Data from USB4F104151__224__14-45-33-686.txt Node

Date: Thu Mar 13 14:45:33 EDT 2025
User: louis
Spectrometer: USB4F10415
Trigger mode: 4
Integration Time (sec): 2.000000E-2
Scans to average: 1
Electric dark correction enabled: true
Nonlinearity correction enabled: false
Boxcar width: 0
XAxis mode: Wavelengths
Number of Pixels in Spectrum: 3648
>>>>>Begin Spectral Data<<<<<
178.204	-131.41
178.424	-131.41
178.644	-131.41
178.864	-92.5
179.084	-119.12
179.304	-22.87
179.524	54.95
179.744	-37.2
179.964	85.67
180.184	-37.2
180.404	22.19
180.624	-39.25
180.844	11.95
181.064	-29.01
181.283	-2.39
181.503	-35.16
181.723	28.33
181.943	44.71
182.163	61.1
182.383	-4.44
182.602	63.15
182.822	63.15
183.042	40.62
183.262	3.75
183.482	-8.53
183.701	-45.4
183.921	-26.96
184.141	18.09
184.361	63.15
184.58	-2.39
184.8	63.15
185.02	22.19
185.239	100.01
185.459	20.14
185.679	67.24
185.898	24.23
186.118	24.23
186.338	-20.82
186.557	61.1
186.777	-33.11
186.997	87.72
187.216	-20.82
187.436	91.82
187.655	13.99
187.875	20.14
188.095	13.99
188.314	46.76
188.534	52.91
188.753	57
188.973	67.24
189.192	120.49
189.412	77.48
189.631	3.75
189.851	50.86
190.07	69.29
190.29	32.43
190.509	75.43
190.729	-59.73
190.948	20.14
191.168	175.78
191.387	79.53
191.607	30.38
191.826	59.05
192.045	42.67
192.265	36.52
192.484	63.15
192.704	38.57
192.923	11.95
193.142	134.82
193.362	36.52
193.581	63.15
193.8	69.29
194.02	110.25
194.239	16.04
194.458	9.9
194.678	11.95
194.897	69.29
195.116	38.57
195.335	9.9
195.555	36.52
195.774	-37.2
195.993	-8.53
196.212	3.75
196.432	89.77
196.651	106.15
196.87	77.48
197.089	114.34
197.308	46.76
197.528	44.71
197.747	-12.63
197.966	46.76
198.185	65.19
198.404	69.29
198.623	89.77
198.842	7.85
199.062	54.95
199.281	13.99
199.5	20.14
199.719	114.34
199.938	61.1
200.157	87.72
200.376	52.91
200.595	-0.34
200.814	28.33
201.033	5.8
201.252	61.1
201.471	3.75
201.69	73.39
201.909	93.87
202.128	20.14
202.347	3.75
202.566	11.95
202.785	71.34
203.004	22.19
203.223	63.15
203.442	61.1
203.661	5.8
203.879	67.24
204.098	100.01
204.317	-35.16
204.536	71.34
204.755	40.62
204.974	13.99
205.193	71.34
205.411	128.68
205.63	79.53
205.849	61.1
206.068	-12.63
206.287	5.8
206.505	13.99
206.724	-8.53
206.943	-2.39
207.162	28.33
207.381	-4.44
207.599	3.75
207.818	-4.44
208.037	36.52
208.255	-33.11
208.474	38.57
208.693	36.52
208.911	38.57
209.13	50.86
209.349	93.87
209.567	59.05
209.786	85.67
210.005	61.1
210.223	42.67
210.442	-29.01
210.661	81.58
210.879	89.77
211.098	34.47
211.316	-2.39
211.535	34.47
211.753	24.23
211.972	38.57
212.191	-20.82
212.409	91.82
212.628	61.1
212.846	34.47
213.065	122.54
213.283	42.67
213.502	44.71
213.72	13.99
213.938	52.91
214.157	13.99
214.375	34.47
214.594	57
214.812	36.52
215.031	48.81
215.249	-35.16
215.467	-78.16
215.686	34.47
215.904	61.1
216.122	20.14
216.341	61.1
216.559	32.43
216.778	24.23
216.996	3.75
217.214	104.11
217.432	-78.16
217.651	30.38
217.869	-39.25
218.087	40.62
218.306	63.15
218.524	59.05
218.742	-0.34
218.96	73.39
219.179	46.76
219.397	44.71
219.615	63.15
219.833	22.19
220.051	36.52
220.27	89.77
220.488	9.9
220.706	9.9
220.924	-65.88
221.142	-14.68
221.36	77.48
221.578	-10.58
221.796	20.14
222.015	30.38
222.233	-8.53
222.451	1.71
222.669	30.38
222.887	110.25
223.105	95.91
223.323	63.15
223.541	16.04
223.759	44.71
223.977	-12.63
224.195	69.29
224.413	114.34
224.631	79.53
224.849	-10.58
225.067	85.67
225.285	-55.64
225.503	77.48
225.721	-51.54
225.939	-10.58
226.157	3.75
226.375	118.44
226.592	61.1
226.81	16.04
227.028	3.75
227.246	71.34
227.464	81.58
227.682	52.91
227.9	59.05
228.117	38.57
228.335	77.48
228.553	61.1
228.771	77.48
228.989	73.39
229.206	69.29
229.424	9.9
229.642	71.34
229.86	28.33
230.077	46.76
230.295	20.14
230.513	7.85
230.731	77.48
230.948	44.71
231.166	63.15
231.384	3.75
231.601	9.9
231.819	36.52
232.037	85.67
232.254	48.81
232.472	-0.34
232.689	57
232.907	95.91
233.125	81.58
233.342	36.52
233.56	44.71
233.777	20.14
233.995	85.67
234.213	75.43
234.43	59.05
234.648	59.05
234.865	20.14
235.083	81.58
235.3	38.57
235.518	9.9
235.735	77.48
235.953	61.1
236.17	11.95
236.388	40.62
236.605	-12.63
236.822	-2.39
237.04	38.57
237.257	30.38
237.475	11.95
237.692	13.99
237.909	28.33
238.127	22.19
238.344	44.71
238.562	102.06
238.779	46.76
238.996	20.14
239.214	18.09
239.431	36.52
239.648	-57.68
239.865	-16.73
240.083	20.14
240.3	50.86
240.517	-45.4
240.735	28.33
240.952	52.91
241.169	52.91
241.386	44.71
241.603	61.1
241.821	-55.64
242.038	28.33
242.255	28.33
242.472	-20.82
242.689	50.86
242.907	102.06
243.124	61.1
243.341	118.44
243.558	42.67
243.775	61.1
243.992	-2.39
244.209	5.8
244.426	46.76
244.643	32.43
244.86	54.95
245.078	20.14
245.295	20.14
245.512	77.48
245.729	3.75
245.946	28.33
246.163	5.8
246.38	13.99
246.597	77.48
246.814	20.14
247.031	44.71
247.248	93.87
247.464	77.48
247.681	-18.77
247.898	106.15
248.115	73.39
248.332	-53.59
248.549	48.81
248.766	28.33
248.983	87.72
249.2	77.48
249.417	71.34
249.633	11.95
249.85	69.29
250.067	57
250.284	44.71
250.501	75.43
250.717	52.91
250.934	-4.44
251.151	63.15
251.368	93.87
251.585	36.52
251.801	30.38
252.018	46.76
252.235	110.25
252.451	-14.68
252.668	5.8
252.885	69.29
253.102	-20.82
253.318	95.91
253.535	102.06
253.752	65.19
253.968	20.14
254.185	-14.68
254.401	52.91
254.618	75.43
254.835	-26.96
255.051	77.48
255.268	42.67
255.484	63.15
255.701	-16.73
255.917	16.04
256.134	-43.35
256.351	93.87
256.567	-22.87
256.784	11.95
257	-41.3
257.217	20.14
257.433	50.86
257.65	42.67
257.866	7.85
258.082	16.04
258.299	5.8
258.515	69.29
258.732	11.95
258.948	95.91
259.165	44.71
259.381	30.38
259.597	-24.92
259.814	73.39
260.03	40.62
260.246	46.76
260.463	18.09
260.679	20.14
260.895	38.57
261.112	161.45
261.328	38.57
261.544	1.71
261.761	57
261.977	24.23
262.193	-24.92
262.409	-6.49
262.626	46.76
262.842	54.95
263.058	32.43
263.274	44.71
263.49	-37.2
263.707	48.81
263.923	36.52
264.139	-20.82
264.355	85.67
264.571	38.57
264.787	-8.53
265.004	54.95
265.22	52.91
265.436	7.85
265.652	77.48
265.868	102.06
266.084	26.28
266.3	77.48
266.516	-12.63
266.732	61.1
266.948	81.58
267.164	-8.53
267.38	-6.49
267.596	52.91
267.812	75.43
268.028	3.75
268.244	46.76
268.46	85.67
268.676	69.29
268.892	63.15
269.108	36.52
269.324	-4.44
269.54	118.44
269.756	36.52
269.972	-12.63
270.188	-35.16
270.403	3.75
270.619	71.34
270.835	75.43
271.051	50.86
271.267	-10.58
271.483	11.95
271.698	20.14
271.914	22.19
272.13	48.81
272.346	36.52
272.562	16.04
272.777	97.96
272.993	24.23
273.209	89.77
273.425	67.24
273.64	52.91
273.856	97.96
274.072	28.33
274.287	34.47
274.503	104.11
274.719	61.1
274.934	11.95
275.15	-10.58
275.366	-41.3
275.581	-16.73
275.797	128.68
276.012	7.85
276.228	97.96
276.444	36.52
276.659	69.29
276.875	-43.35
277.09	44.71
277.306	48.81
277.521	9.9
277.737	93.87
277.952	44.71
278.168	-0.34
278.383	16.04
278.599	3.75
278.814	81.58
279.03	87.72
279.245	110.25
279.461	57
279.676	95.91
279.892	65.19
280.107	69.29
280.322	36.52
280.538	65.19
280.753	-14.68
280.969	104.11
281.184	3.75
281.399	95.91
281.615	73.39
281.83	61.1
282.045	-35.16
282.26	48.81
282.476	61.1
282.691	22.19
282.906	-4.44
283.122	71.34
283.337	7.85
283.552	46.76
283.767	79.53
283.983	120.49
284.198	-8.53
284.413	104.11
284.628	-57.68
284.843	106.15
285.058	3.75
285.274	44.71
285.489	65.19
285.704	65.19
285.919	52.91
286.134	28.33
286.349	28.33
286.564	57
286.779	85.67
286.995	30.38
287.21	52.91
287.425	-12.63
287.64	7.85
287.855	20.14
288.07	32.43
288.285	87.72
288.5	77.48
288.715	44.71
288.93	44.71
289.145	-2.39
289.36	79.53
289.575	57
289.79	28.33
290.004	-0.34
290.219	65.19
290.434	-18.77
290.649	-12.63
290.864	-12.63
291.079	106.15
291.294	36.52
291.509	81.58
291.724	3.75
291.938	32.43
292.153	61.1
292.368	-2.39
292.583	22.19
292.798	42.67
293.012	40.62
293.227	87.72
293.442	104.11
293.657	18.09
293.871	52.91
294.086	5.8
294.301	128.68
294.516	36.52
294.73	-20.82
294.945	-12.63
295.16	28.33
295.374	61.1
295.589	38.57
295.804	36.52
296.018	48.81
296.233	44.71
296.447	81.58
296.662	38.57
296.877	32.43
297.091	85.67
297.306	52.91
297.52	106.15
297.735	65.19
297.949	77.48
298.164	114.34
298.378	38.57
298.593	-45.4
298.807	42.67
299.022	61.1
299.236	102.06
299.451	-8.53
299.665	95.91
299.88	57
300.094	79.53
300.309	95.91
300.523	104.11
300.737	28.33
300.952	3.75
301.166	-35.16
301.381	46.76
301.595	75.43
301.809	-4.44
302.024	57
302.238	1.71
302.452	110.25
302.667	34.47
302.881	61.1
303.095	102.06
303.309	3.75
303.524	13.99
303.738	46.76
303.952	-16.73
304.166	79.53
304.381	-10.58
304.595	143.02
304.809	50.86
305.023	81.58
305.237	-12.63
305.452	-2.39
305.666	-10.58
305.88	36.52
306.094	20.14
306.308	122.54
306.522	48.81
306.736	44.71
306.95	52.91
307.164	81.58
307.379	30.38
307.593	91.82
307.807	61.1
308.021	89.77
308.235	102.06
308.449	3.75
308.663	40.62
308.877	116.39
309.091	42.67
309.305	5.8
309.519	-37.2
309.733	63.15
309.947	-0.34
310.161	69.29
310.374	16.04
310.588	81.58
310.802	-43.35
311.016	44.71
311.23	16.04
311.444	-18.77
311.658	69.29
311.872	118.44
312.085	118.44
312.299	32.43
312.513	40.62
312.727	52.91
312.941	87.72
313.154	136.87
313.368	34.47
313.582	48.81
313.796	102.06
314.009	50.86
314.223	83.63
314.437	54.95
314.651	87.72
314.864	124.58
315.078	11.95
315.292	30.38
315.505	-10.58
315.719	100.01
315.933	-12.63
316.146	52.91
316.36	46.76
316.573	128.68
316.787	65.19
317.001	112.3
317.214	-0.34
317.428	26.28
317.641	-29.01
317.855	67.24
318.068	67.24
318.282	67.24
318.495	69.29
318.709	57
318.922	-8.53
319.136	-16.73
319.349	91.82
319.563	30.38
319.776	20.14
319.99	13.99
320.203	110.25
320.417	65.19
320.63	48.81
320.843	122.54
321.057	97.96
321.27	20.14
321.483	11.95
321.697	63.15
321.91	24.23
322.124	93.87
322.337	91.82
322.55	75.43
322.763	-6.49
322.977	79.53
323.19	44.71
323.403	85.67
323.617	83.63
323.83	81.58
324.043	5.8
324.256	50.86
324.469	26.28
324.683	5.8
324.896	30.38
325.109	28.33
325.322	13.99
325.535	44.71
325.748	38.57
325.962	13.99
326.175	73.39
326.388	61.1
326.601	52.91
326.814	28.33
327.027	28.33
327.24	143.02
327.453	44.71
327.666	44.71
327.879	59.05
328.092	34.47
328.305	-12.63
328.518	61.1
328.731	112.3
328.944	44.71
329.157	73.39
329.37	61.1
329.583	16.04
329.796	30.38
330.009	-8.53
330.222	73.39
330.435	-12.63
330.648	73.39
330.861	44.71
331.073	16.04
331.286	69.29
331.499	89.77
331.712	-57.68
331.925	93.87
332.138	38.57
332.35	59.05
332.563	44.71
332.776	36.52
332.989	38.57
333.202	13.99
333.414	52.91
333.627	44.71
333.84	20.14
334.053	30.38
334.265	63.15
334.478	104.11
334.691	95.91
334.903	48.81
335.116	28.33
335.329	77.48
335.541	26.28
335.754	97.96
335.966	-2.39
336.179	44.71
336.392	-0.34
336.604	71.34
336.817	106.15
337.029	42.67
337.242	61.1
337.454	81.58
337.667	118.44
337.88	79.53
338.092	81.58
338.305	69.29
338.517	46.76
338.729	81.58
338.942	40.62
339.154	-18.77
339.367	-37.2
339.579	79.53
339.792	30.38
340.004	77.48
340.217	61.1
340.429	73.39
340.641	16.04
340.854	36.52
341.066	63.15
341.278	52.91
341.491	114.34
341.703	3.75
341.915	40.62
342.128	52.91
342.34	89.77
342.552	-47.44
342.764	44.71
342.977	65.19
343.189	48.81
343.401	-4.44
343.613	-16.73
343.826	-0.34
344.038	120.49
344.25	69.29
344.462	54.95
344.674	9.9
344.886	34.47
345.099	91.82
345.311	34.47
345.523	38.57
345.735	36.52
345.947	34.47
346.159	77.48
346.371	110.25
346.583	112.3
346.795	36.52
347.007	-2.39
347.219	77.48
347.431	16.04
347.643	57
347.855	20.14
348.067	134.82
348.279	40.62
348.491	20.14
348.703	52.91
348.915	77.48
349.127	3.75
349.339	57
349.551	22.19
349.763	122.54
349.975	77.48
350.187	63.15
350.399	73.39
350.61	46.76
350.822	89.77
351.034	155.3
351.246	16.04
351.458	46.76
351.669	48.81
351.881	34.47
352.093	52.91
352.305	85.67
352.517	-10.58
352.728	140.97
352.94	22.19
353.152	-16.73
353.363	85.67
353.575	69.29
353.787	102.06
353.999	120.49
354.21	26.28
354.422	77.48
354.633	13.99
354.845	18.09
355.057	16.04
355.268	40.62
355.48	106.15
355.692	46.76
355.903	-18.77
356.115	-24.92
356.326	38.57
356.538	159.4
356.749	118.44
356.961	136.87
357.172	40.62
357.384	-12.63
357.595	120.49
357.807	104.11
358.018	-18.77
358.23	77.48
358.441	87.72
358.653	34.47
358.864	24.23
359.075	3.75
359.287	61.1
359.498	122.54
359.709	104.11
359.921	71.34
360.132	93.87
360.344	73.39
360.555	77.48
360.766	44.71
360.977	85.67
361.189	63.15
361.4	11.95
361.611	106.15
361.823	118.44
362.034	40.62
362.245	-20.82
362.456	91.82
362.667	69.29
362.879	-10.58
363.09	102.06
363.301	77.48
363.512	59.05
363.723	28.33
363.935	65.19
364.146	40.62
364.357	13.99
364.568	63.15
364.779	7.85
364.99	95.91
365.201	22.19
365.412	128.68
365.623	61.1
365.834	71.34
366.045	34.47
366.256	85.67
366.467	106.15
366.678	38.57
366.889	28.33
367.1	13.99
367.311	95.91
367.522	57
367.733	69.29
367.944	59.05
368.155	40.62
368.366	89.77
368.577	97.96
368.788	57
368.999	36.52
369.209	40.62
369.42	110.25
369.631	138.92
369.842	57
370.053	52.91
370.264	79.53
370.474	48.81
370.685	118.44
370.896	20.14
371.107	36.52
371.317	89.77
371.528	36.52
371.739	46.76
371.95	71.34
372.16	63.15
372.371	-45.4
372.582	102.06
372.792	149.16
373.003	20.14
373.214	11.95
373.424	3.75
373.635	18.09
373.846	44.71
374.056	85.67
374.267	97.96
374.477	102.06
374.688	-29.01
374.898	89.77
375.109	48.81
375.319	118.44
375.53	77.48
375.74	79.53
375.951	44.71
376.161	110.25
376.372	112.3
376.582	-20.82
376.793	32.43
377.003	44.71
377.214	36.52
377.424	5.8
377.635	114.34
377.845	77.48
378.055	138.92
378.266	48.81
378.476	85.67
378.686	16.04
378.897	20.14
379.107	50.86
379.317	134.82
379.528	100.01
379.738	136.87
379.948	77.48
380.158	69.29
380.369	69.29
380.579	73.39
380.789	75.43
380.999	114.34
381.21	69.29
381.42	126.63
381.63	13.99
381.84	77.48
382.05	71.34
382.261	110.25
382.471	104.11
382.681	73.39
382.891	95.91
383.101	71.34
383.311	44.71
383.521	-22.87
383.731	3.75
383.941	85.67
384.151	106.15
384.361	63.15
384.571	95.91
384.781	126.63
384.991	183.98
385.201	157.35
385.411	134.82
385.621	83.63
385.831	34.47
386.041	63.15
386.251	52.91
386.461	118.44
386.671	36.52
386.881	69.29
387.091	22.19
387.301	132.78
387.511	-24.92
387.72	106.15
387.93	40.62
388.14	114.34
388.35	61.1
388.56	132.78
388.769	102.06
388.979	114.34
389.189	24.23
389.399	61.1
389.609	102.06
389.818	71.34
390.028	120.49
390.238	97.96
390.447	79.53
390.657	71.34
390.867	28.33
391.076	32.43
391.286	69.29
391.496	67.24
391.705	100.01
391.915	118.44
392.125	194.22
392.334	69.29
392.544	54.95
392.753	104.11
392.963	57
393.172	46.76
393.382	112.3
393.591	108.2
393.801	48.81
394.01	120.49
394.22	118.44
394.429	20.14
394.639	93.87
394.848	89.77
395.058	93.87
395.267	18.09
395.477	44.71
395.686	93.87
395.895	79.53
396.105	118.44
396.314	95.91
396.524	169.64
396.733	77.48
396.942	89.77
397.152	149.16
397.361	95.91
397.57	63.15
397.78	97.96
397.989	163.5
398.198	167.59
398.407	147.11
398.617	122.54
398.826	132.78
399.035	65.19
399.244	171.69
399.453	126.63
399.663	75.43
399.872	104.11
400.081	91.82
400.29	138.92
400.499	138.92
400.708	175.78
400.917	112.3
401.127	151.21
401.336	83.63
401.545	136.87
401.754	202.41
401.963	169.64
402.172	169.64
402.381	61.1
402.59	81.58
402.799	153.26
403.008	188.07
403.217	167.59
403.426	192.17
403.635	143.02
403.844	200.36
404.053	183.98
404.262	220.84
404.471	212.65
404.68	224.94
404.888	147.11
405.097	132.78
405.306	177.83
405.515	192.17
405.724	167.59
405.933	241.32
406.142	216.74
406.35	224.94
406.559	241.32
406.768	212.65
406.977	210.6
407.185	161.45
407.394	255.65
407.603	177.83
407.812	216.74
408.02	269.99
408.229	284.33
408.438	263.85
408.646	202.41
408.855	286.37
409.064	323.24
409.272	265.89
409.481	347.81
409.69	319.14
409.898	286.37
410.107	341.67
410.315	315.05
410.524	290.47
410.733	411.3
410.941	442.02
411.15	437.92
411.358	417.44
411.567	462.5
411.775	419.49
411.984	446.12
412.192	437.92
412.401	423.59
412.609	448.16
412.818	566.95
413.026	460.45
413.234	511.65
413.443	612
413.651	622.24
413.86	597.67
414.068	732.83
414.276	691.87
414.485	609.95
414.693	700.06
414.901	757.41
415.11	738.98
415.318	749.22
415.526	792.22
415.734	777.89
415.943	886.43
416.151	954.01
416.359	906.91
416.567	937.63
416.776	1044.12
416.984	962.2
417.192	1027.74
417.4	1031.83
417.608	1048.22
417.817	1187.48
418.025	1187.48
418.233	1263.26
418.441	1298.07
418.649	1283.74
418.857	1363.61
419.065	1386.13
419.273	1453.72
419.481	1537.68
419.689	1603.22
419.897	1658.51
420.105	1730.19
420.313	1738.38
420.521	1822.35
420.729	1816.21
420.937	1799.82
421.145	1830.54
421.353	2100.87
421.561	2199.18
421.769	2086.54
421.977	2207.37
422.185	2211.46
422.393	2412.17
422.601	2483.84
422.809	2455.17
423.017	2477.7
423.224	2668.16
423.432	2836.1
423.64	2764.42
423.848	3042.94
424.056	2895.49
424.263	3237.5
424.471	3090.04
424.679	3171.96
424.887	3343.99
425.094	3491.45
425.302	3575.41
425.51	3628.66
425.718	3772.02
425.925	3855.98
426.133	3968.62
426.341	4247.15
426.548	4359.78
426.756	4363.88
426.964	4367.98
427.171	4714.08
427.379	4789.86
427.586	4787.81
427.794	4974.17
428.001	5176.92
428.209	5355.1
428.417	5340.76
428.624	5699.16
428.832	5791.31
429.039	5797.46
429.247	5729.88
429.454	6344.27
429.662	6622.79
429.869	6237.77
430.076	6807.11
430.284	6583.88
430.491	6782.53
430.699	7306.81
430.906	7233.08
431.114	7450.17
431.321	7527.99
431.528	7665.21
431.736	8044.08
431.943	8580.65
432.15	8326.7
432.358	8445.48
432.565	8891.94
432.772	8707.62
432.979	9319.96
433.187	9524.76
433.394	9434.65
433.601	10223.12
433.808	10331.66
434.016	10178.06
434.223	10653.19
434.43	11357.69
434.637	10939.91
434.844	11910.64
435.052	11939.32
435.259	11824.63
435.466	12060.15
435.673	12031.48
435.88	12553.71
436.087	13510.11
436.294	13336.03
436.501	12983.78
436.708	13295.07
436.915	13581.79
437.122	14407.12
437.329	14552.52
437.537	14704.07
437.743	14949.83
437.95	15050.18
438.157	15687.1
438.364	16203.19
438.571	16168.37
438.778	16326.07
438.985	17872.28
439.192	17159.59
439.399	17552.8
439.606	17403.3
439.813	18363.79
440.02	19512.7
440.227	18890.12
440.433	18642.32
440.64	19357.06
440.847	19338.63
441.054	19455.36
441.261	20964.71
441.467	20667.76
441.674	21142.89
441.881	21955.93
442.088	21732.7
442.294	21921.12
442.501	22412.63
442.708	22871.37
442.914	23823.68
443.121	24849.71
443.328	24026.43
443.534	25603.36
443.741	24792.37
443.948	24542.52
444.154	27016.46
444.361	26303.77
444.568	26395.93
444.774	26391.83
444.981	26735.89
445.187	27544.84
445.394	28835.06
445.6	28357.88
445.807	31188.17
446.013	29758.69
446.22	30242.01
446.426	31589.58
446.633	31728.84
446.839	33012.91
447.046	31655.11
447.252	33389.74
447.459	33461.42
447.665	33152.18
447.871	34587.8
448.078	36222.08
448.284	34096.29
448.491	35421.33
448.697	36797.56
448.903	37203.06
449.11	37608.56
449.316	36881.53
449.522	37786.73
449.728	38673.5
449.935	39117.91
450.141	38890.59
450.347	39390.29
450.553	38902.87
450.76	38966.36
450.966	40477.76
451.172	39658.57
451.378	41210.93
451.584	40275.01
451.791	41088.06
451.997	41169.97
452.203	41788.46
452.409	42202.15
452.615	41571.38
452.821	40170.57
453.027	40057.93
453.233	41923.63
453.44	40309.83
453.646	40694.85
453.852	40739.9
454.058	41638.96
454.264	40203.33
454.47	41239.61
454.676	40338.5
454.882	41950.25
455.088	37835.88
455.294	38632.54
455.5	39842.89
455.705	39771.21
455.911	38278.24
456.117	37387.38
456.323	37168.24
456.529	35298.45
456.735	36541.57
456.941	35775.62
457.147	35591.31
457.352	34301.09
457.558	34004.13
457.764	33752.23
457.97	33277.1
458.176	32773.3
458.381	32543.93
458.587	31093.97
458.793	30930.13
458.999	29611.24
459.204	31669.45
459.41	30858.45
459.616	29000.94
459.821	28880.11
460.027	28736.76
460.233	28091.65
460.438	26858.77
460.644	27337.99
460.85	26029.34
461.055	25570.6
461.261	25455.91
461.466	23541.06
461.672	22883.66
461.878	24554.8
462.083	22934.86
462.289	22824.27
462.494	22371.67
462.7	21450.08
462.905	20702.57
463.111	21581.15
463.316	21704.03
463.522	21173.61
463.727	21132.65
463.932	21161.32
464.138	20764.01
464.343	21253.48
464.549	20391.28
464.754	21026.15
464.959	21044.59
465.165	20839.79
465.37	19959.16
465.575	19443.07
465.781	20381.04
465.986	20331.89
466.191	19707.26
466.397	19139.97
466.602	18460.05
466.807	19058.06
467.012	19096.97
467.218	18974.09
467.423	18654.61
467.628	18959.75
467.833	19686.78
468.038	18879.88
468.244	18341.27
468.449	19088.78
468.654	18580.88
468.859	18380.18
469.064	18118.04
469.269	17485.22
469.474	17739.16
469.679	17913.24
469.885	17542.56
470.09	17573.28
470.295	17771.93
470.5	17294.75
470.705	17761.69
470.91	17139.11
471.115	17102.25
471.32	17157.54
471.525	17077.67
471.73	16625.07
471.935	16588.21
472.139	16055.73
472.344	16131.51
472.549	16047.54
472.754	15943.1
472.959	15721.91
473.164	15240.64
473.369	15277.51
473.574	15429.06
473.778	15289.79
473.983	15308.23
474.188	15275.46
474.393	14724.55
474.598	14669.26
474.802	14634.44
475.007	14548.43
475.212	14335.44
475.417	13999.57
475.621	13915.61
475.826	13942.23
476.031	13831.64
476.235	13282.78
476.44	13782.49
476.645	13606.36
476.849	13618.65
477.054	13217.25
477.259	12953.06
477.463	13135.33
477.668	12766.7
477.872	13039.08
478.077	12600.81
478.282	12412.4
478.486	12387.82
478.691	12414.45
478.895	12125.68
479.1	12154.35
479.304	12387.82
479.509	11658.74
479.713	11843.06
479.918	11681.27
480.122	11392.51
480.326	11730.42
480.531	12017.14
480.735	11494.91
480.94	11490.81
481.144	11908.6
481.348	11316.73
481.553	11484.67
481.757	11025.92
481.961	11466.24
482.166	11468.28
482.37	11322.88
482.574	11025.92
482.778	11111.94
482.983	11658.74
483.187	11152.9
483.391	11417.08
483.595	11187.71
483.8	11099.65
484.004	11423.23
484.208	11406.84
484.412	11410.94
484.616	11302.4
484.821	11253.25
485.025	11116.03
485.229	11435.52
485.433	11402.75
485.637	11466.24
485.841	11148.8
486.045	11175.42
486.249	11294.21
486.453	11245.06
486.657	11187.71
486.861	11578.87
487.065	11398.65
487.269	11439.61
487.473	11120.13
487.677	11324.93
487.881	11437.56
488.085	11433.47
488.289	11621.88
488.493	11275.77
488.697	11388.41
488.901	11343.36
489.105	11271.68
489.309	11441.66
489.512	11443.71
489.716	11339.26
489.92	11484.67
490.124	11353.6
490.328	11628.03
490.531	11605.5
490.735	11599.35
490.939	11685.37
491.143	11793.91
491.346	11875.83
491.55	12011
491.754	11929.08
491.958	11834.87
492.161	11922.93
492.365	12137.97
492.569	12004.85
492.772	11916.79
492.976	12393.97
493.18	12353.01
493.383	12549.61
493.587	12359.15
493.79	12504.56
493.994	12477.93
494.197	12641.77
494.401	12959.2
494.605	12836.33
494.808	13032.93
495.012	13147.62
495.215	12975.59
495.419	13307.36
495.622	13444.57
495.825	13612.51
496.029	13561.31
496.232	13972.95
496.436	13602.27
496.639	14284.24
496.843	14112.21
497.046	14425.55
497.249	14581.2
497.453	14505.42
497.656	14339.54
497.859	14661.07
498.063	14824.9
498.266	15252.93
498.469	15254.98
498.673	15330.75
498.876	15424.96
499.079	15662.52
499.282	15857.08
499.485	16254.39
499.689	16252.34
499.892	16477.62
500.095	16553.39
500.298	16987.56
500.501	16852.39
500.705	17272.23
500.908	17591.71
501.111	17651.1
501.314	17720.73
501.517	17927.58
501.72	18546.06
501.923	18062.74
502.126	18642.32
502.329	18965.9
502.532	19043.72
502.735	19346.82
502.938	19459.46
503.141	19776.89
503.344	20180.34
503.547	19744.13
503.75	20321.65
503.953	20446.58
504.156	20782.45
504.359	20977
504.562	20985.19
504.765	21515.62
504.968	21855.58
505.17	22015.32
505.373	22027.61
505.576	22373.72
505.779	22783.31
505.982	22531.41
506.185	23326.02
506.387	23514.44
506.59	23340.36
506.793	24272.18
506.996	23999.8
507.198	24806.7
507.401	24270.14
507.604	24917.29
507.807	25298.22
508.009	25705.76
508.212	25838.88
508.415	26170.65
508.617	26244.38
508.82	26465.56
509.022	26584.34
509.225	26815.76
509.428	27569.41
509.63	27690.24
509.833	27927.81
510.035	28593.4
510.238	28511.48
510.44	28587.25
510.643	29244.65
510.845	29443.31
511.048	29154.54
511.25	30121.18
511.453	30242.01
511.655	31280.33
511.858	30631.13
512.06	30641.37
512.262	31683.78
512.465	31298.77
512.667	32130.24
512.87	32384.19
513.072	32357.56
513.274	33160.37
513.477	33451.18
513.679	33615.02
513.881	33903.78
514.084	34763.93
514.286	34329.76
514.488	34843.8
514.69	35284.11
514.893	35558.54
515.095	35509.39
515.297	36359.3
515.499	36177.03
515.701	36412.54
515.904	37338.22
516.106	37405.81
516.308	37805.16
516.51	37573.74
516.712	38319.2
516.914	38648.92
517.116	39326.8
517.318	39601.23
517.52	39380.05
517.722	39904.33
517.925	40352.83
518.127	40465.47
518.329	40977.47
518.531	41182.26
518.733	41501.75
518.935	42335.27
519.136	41706.54
519.338	42951.71
519.54	43021.34
519.742	43090.97
519.944	43283.48
520.146	44168.2
520.348	44160.01
520.55	44358.66
520.752	44721.15
520.954	45474.8
521.155	45413.37
521.357	45706.23
521.559	46015.47
521.761	46447.59
521.963	46218.22
522.164	46719.97
522.366	46861.28
522.568	47021.02
522.77	47709.14
522.971	48128.97
523.173	47987.66
523.375	48479.17
523.576	48128.97
523.778	48356.3
523.98	49202.11
524.181	49554.36
524.383	49441.72
524.584	49734.58
524.786	50148.27
524.988	50015.15
525.189	50596.77
525.391	50881.44
525.592	50856.87
525.794	51266.46
525.995	50992.03
526.197	51182.49
526.398	51526.55
526.6	51950.48
526.801	52091.79
527.003	52331.4
527.204	52087.7
527.406	52681.61
527.607	52497.29
527.808	53095.3
528.01	52188.05
528.211	52847.49
528.412	53650.3
528.614	53592.95
528.815	53738.36
529.016	53461.88
529.218	53502.84
529.419	53633.91
529.62	53449.6
529.822	53863.28
530.023	53685.11
530.224	53619.58
530.425	54406
530.626	53330.81
530.828	53566.33
531.029	54819.69
531.23	54213.49
531.431	54268.78
531.632	54571.88
531.833	54633.32
532.035	54748.01
532.236	54428.52
532.437	54678.38
532.638	54502.25
532.839	54909.8
533.04	54887.27
533.241	54616.94
533.442	55079.78
533.643	54848.36
533.844	55188.32
534.045	55278.43
534.246	54664.04
534.447	55276.38
534.648	54762.34
534.849	55319.39
535.05	54377.32
535.251	55171.94
535.451	54657.9
535.652	55145.31
535.853	54946.66
536.054	54999.91
536.255	55409.5
536.456	54737.77
536.657	55749.46
536.857	54782.82
537.058	54694.76
537.259	55685.98
537.46	55497.56
537.66	55305.05
537.861	54846.31
538.062	55026.53
538.263	55108.45
538.463	55067.49
538.664	54915.94
538.865	55196.51
539.065	55524.19
539.266	54217.58
539.466	55278.43
539.667	54492.01
539.868	55421.79
540.068	55120.74
540.269	55260
540.469	55303.01
540.67	55028.58
540.87	55100.26
541.071	54961
541.271	55472.99
541.472	55055.2
541.672	54600.55
541.873	54907.75
542.073	54694.76
542.274	55745.37
542.474	54917.99
542.675	54778.73
542.875	55407.45
543.075	54776.68
543.276	54188.91
543.476	55444.32
543.676	55034.72
543.877	54991.72
544.077	54664.04
544.277	54881.13
544.478	54479.72
544.678	55028.58
544.878	54924.13
545.078	54985.57
545.279	54319.98
545.479	54463.34
545.679	54598.51
545.879	54872.93
546.079	55016.29
546.28	54319.98
546.48	54457.2
546.68	54930.28
546.88	54580.07
547.08	54854.5
547.28	54485.87
547.48	54231.92
547.68	54674.28
547.88	54395.76
548.081	54872.93
548.281	54395.76
548.481	54360.94
548.681	54942.56
548.881	54532.97
549.081	54313.84
549.28	54190.96
549.48	54768.49
549.68	54330.22
549.88	55001.96
550.08	53793.65
550.28	54299.5
550.48	54319.98
550.68	54500.2
550.88	54246.25
551.08	54649.7
551.279	54418.28
551.479	54160.24
551.679	54305.65
551.879	54092.66
552.079	54362.99
552.278	54317.93
552.478	54076.27
552.678	54190.96
552.878	54485.87
553.077	54348.65
553.277	53846.9
553.477	54582.12
553.676	53584.76
553.876	54174.58
554.076	53982.07
554.275	54172.53
554.475	53365.63
554.674	54135.66
554.874	54010.74
555.074	54182.77
555.273	53775.22
555.473	54391.66
555.672	53578.62
555.872	54035.31
556.071	53986.16
556.271	53754.74
556.47	53746.55
556.67	53273.47
556.869	53689.21
557.068	54147.95
557.268	53597.05
557.467	53365.63
557.667	53588.86
557.866	53031.81
558.065	53396.35
558.265	53459.83
558.464	53183.36
558.663	53627.77
558.863	52452.23
559.062	53437.31
559.261	52501.39
559.461	53511.03
559.66	52833.16
559.859	52646.79
560.058	52738.95
560.258	52784.01
560.457	52495.24
560.656	52790.15
560.855	52409.23
561.054	53160.83
561.253	52378.51
561.453	52724.61
561.652	52837.25
561.851	52577.16
562.05	52206.48
562.249	52116.37
562.448	52618.12
562.647	52648.84
562.846	51995.54
563.045	52192.14
563.244	51774.36
563.443	52673.41
563.642	51465.11
563.841	51706.77
564.04	51403.67
564.239	52013.97
564.438	51360.67
564.637	51663.77
564.836	51934.1
565.035	51397.53
565.234	51823.51
565.432	51260.32
565.631	51184.54
565.83	51594.14
566.029	50963.36
566.228	50865.06
566.427	51110.81
566.625	50635.69
566.824	50561.96
567.023	50658.21
567.222	50244.52
567.42	50629.54
567.619	50969.5
567.818	50518.95
568.016	50371.5
568.215	50447.27
568.414	50193.32
568.612	50459.56
568.811	50262.96
569.01	50230.19
569.208	49540.02
569.407	50029.49
569.605	49695.67
569.804	50344.87
570.002	49523.64
570.201	50009.01
570.4	49355.71
570.598	49544.12
570.797	48823.23
570.995	49206.2
571.193	48620.48
571.392	49367.99
571.59	49367.99
571.789	48739.27
571.987	48485.32
572.186	48915.39
572.384	48686.02
572.582	49060.8
572.781	48421.83
572.979	47821.78
573.177	48214.99
573.376	48536.52
573.574	47698.9
573.772	47707.09
573.971	47870.93
574.169	47180.76
574.367	47213.53
574.565	47612.88
574.763	46957.53
574.962	47160.28
575.16	46980.06
575.358	47256.54
575.556	46941.15
575.754	47432.66
575.952	46449.64
576.151	47324.12
576.349	46509.03
576.547	46513.12
576.745	46445.54
576.943	46607.33
577.141	46355.43
577.339	46406.63
577.537	45956.08
577.735	46089.2
577.933	45609.97
578.131	45876.21
578.329	45609.97
578.527	45540.34
578.725	45370.36
578.923	45945.84
579.121	45382.65
579.319	45188.09
579.516	45126.65
579.714	45038.59
579.912	44514.31
580.11	44553.22
580.308	44686.34
580.506	44700.67
580.704	44090.38
580.901	44545.03
581.099	44620.8
581.297	43987.98
581.495	44155.91
581.692	43901.96
581.89	43582.48
582.088	43951.12
582.285	43555.86
582.483	43891.72
582.681	43459.6
582.878	43271.19
583.076	43146.26
583.274	43514.9
583.471	42890.27
583.669	43308.05
583.866	42662.94
584.064	42812.45
584.262	42210.34
584.459	42787.87
584.657	42255.4
584.854	42542.11
585.052	41724.97
585.249	42179.62
585.447	42138.66
585.644	42009.64
585.841	42058.79
586.039	42142.76
586.236	41419.83
586.434	41184.31
586.631	41731.12
586.828	41483.31
587.026	41450.55
587.223	40897.59
587.42	40993.85
587.618	41319.48
587.815	40770.62
588.012	40592.45
588.21	40686.65
588.407	41051.19
588.604	40252.48
588.801	40318.02
588.999	40385.6
589.196	39738.44
589.393	39988.3
589.59	39955.53
589.787	39722.06
589.984	39808.08
590.182	39140.44
590.379	39394.39
590.576	39214.16
590.773	39265.36
590.97	39066.71
591.167	39044.18
591.364	38691.93
591.561	38571.1
591.758	38362.21
591.955	38452.32
592.152	38534.24
592.349	38431.84
592.546	38288.48
592.743	38190.18
592.94	37313.65
593.137	38085.73
593.334	37676.14
593.531	37424.24
593.727	37643.37
593.924	37473.39
594.121	37004.41
594.318	37342.32
594.515	37022.84
594.712	37131.38
594.908	37155.96
595.105	37203.06
595.302	36576.38
595.499	36768.89
595.696	36811.9
595.892	36279.43
596.089	36297.86
596.286	36396.16
596.482	36373.63
596.679	35861.64
596.876	35902.6
597.072	35853.45
597.269	36002.95
597.466	35863.69
597.662	35378.32
597.859	35478.67
598.055	35554.44
598.252	35292.3
598.448	35636.36
598.645	35298.45
598.841	34262.18
599.038	34796.7
599.234	34784.41
599.431	34354.33
599.627	34385.05
599.824	34559.13
600.02	34186.4
600.217	34702.49
600.413	34145.44
600.609	33924.26
600.806	33696.94
601.002	34129.06
601.198	33674.41
601.395	33604.78
601.591	33627.31
601.787	33379.5
601.984	33406.12
602.18	33666.22
602.376	33164.46
602.572	32838.84
602.769	33154.22
602.965	32859.32
603.161	32982.2
603.357	32689.34
603.553	32341.18
603.75	32873.65
603.946	32120
604.142	32621.75
604.338	31943.88
604.534	32269.5
604.73	31802.57
604.926	31458.51
605.122	31997.12
605.318	31519.95
605.514	31542.47
605.71	31620.3
605.906	31806.66
606.102	31550.67
606.298	31386.83
606.494	31184.08
606.69	31044.82
606.886	31313.1
607.082	30848.21
607.278	31276.24
607.474	30440.67
607.67	30661.85
607.866	30242.01
608.062	31016.15
608.257	30536.92
608.453	30411.99
608.649	30301.4
608.845	30510.3
609.041	30471.39
609.236	30397.66
609.432	29998.3
609.628	30063.84
609.824	29979.87
610.019	30219.49
610.215	29736.16
610.411	30178.53
610.606	29627.62
610.802	29836.52
610.998	29623.53
611.193	29801.7
611.389	29410.54
611.584	29113.58
611.78	29295.85
611.976	29564.14
612.171	29232.36
612.367	29269.23
612.562	28964.08
612.758	28783.86
612.953	28730.61
613.149	28839.15
613.344	28613.88
613.539	29512.94
613.735	28914.93
613.93	28988.66
614.126	28714.23
614.321	28812.53
614.517	28548.34
614.712	28585.21
614.907	28353.79
615.103	28310.78
615.298	28194.04
615.493	28308.73
615.688	27888.9
615.884	28714.23
616.079	28091.65
616.274	28378.36
616.47	28042.49
616.665	28228.86
616.86	27770.11
617.055	27983.1
617.25	27811.07
617.445	28089.6
617.641	27327.75
617.836	27512.07
618.031	27170.06
618.226	27536.65
618.421	26881.3
618.616	27450.63
618.811	26850.58
619.006	26952.98
619.201	26336.54
619.396	26791.19
619.591	26578.2
619.786	26602.77
619.981	26426.65
620.176	26408.22
620.371	26250.52
620.566	26471.7
620.761	25978.14
620.956	25926.94
621.151	25797.92
621.346	25826.59
621.541	25113.9
621.735	25582.88
621.93	25417
622.125	25300.26
622.32	24937.77
622.515	24962.35
622.709	24722.74
622.904	24630.58
623.099	24350.01
623.294	24677.68
623.488	24462.65
623.683	24358.2
623.878	23727.42
624.072	24182.07
624.267	23940.41
624.462	23921.98
624.656	23567.68
624.851	23803.2
625.046	23276.87
625.24	22963.53
625.435	22676.82
625.629	23194.95
625.824	22943.05
626.018	22553.94
626.213	22179.16
626.407	22660.43
626.602	22226.26
626.796	22375.77
626.991	22195.54
627.185	22113.63
627.38	21910.88
627.574	21515.62
627.768	21564.77
627.963	21339.49
628.157	21441.89
628.352	21402.98
628.546	20847.98
628.74	21243.24
628.935	20653.42
629.129	20954.47
629.323	20567.41
629.517	20770.16
629.712	20655.47
629.906	20546.93
630.1	20069.75
630.294	20370.8
630.489	19965.31
630.683	20266.36
630.877	19662.21
631.071	19598.72
631.265	19713.41
631.459	19555.71
631.653	19508.61
631.848	19434.88
632.042	19332.48
632.236	19301.76
632.43	19082.63
632.624	18992.52
632.818	19242.37
633.012	18685.33
633.206	18619.79
633.4	18527.63
633.594	18470.29
633.788	18427.28
633.982	18410.9
634.176	18206.1
634.369	17982.87
634.563	17960.34
634.757	17931.67
634.951	17829.27
635.145	17790.36
635.339	17706.4
635.533	17450.4
635.726	17665.44
635.92	17460.64
636.114	17221.03
636.308	17100.2
636.501	17319.33
636.695	16907.69
636.889	16766.38
637.083	16838.06
637.276	16954.79
637.47	16786.86
637.664	16215.48
637.857	16565.68
638.051	16555.44
638.244	16358.83
638.438	16274.87
638.632	16088.5
638.825	15947.19
639.019	15764.92
639.212	15861.18
639.406	15672.76
639.599	15736.25
639.793	15871.42
639.986	15640
640.18	15533.5
640.373	15388.1
640.567	15158.72
640.76	15128
640.954	15119.81
641.147	14964.17
641.34	14933.45
641.534	14939.59
641.727	14882.25
641.92	14863.82
642.114	14736.84
642.307	14552.52
642.5	14534.09
642.694	14405.07
642.887	14462.41
643.08	14302.67
643.273	14384.59
643.467	14101.97
643.66	14114.26
643.853	13848.02
644.046	13780.44
644.239	13739.48
644.432	13766.1
644.626	13450.72
644.819	13352.41
645.012	13473.25
645.205	13139.43
645.398	13317.6
645.591	13135.33
645.784	13176.29
645.977	13102.56
646.17	13118.95
646.363	13120.99
646.556	12715.5
646.749	12781.03
646.942	13008.36
647.135	12596.71
647.328	12512.75
647.521	12508.65
647.714	12359.15
647.907	12492.27
648.099	12107.25
648.292	12109.3
648.485	12185.07
648.678	12060.15
648.871	12033.52
649.064	11906.55
649.256	11924.98
649.449	11826.68
649.642	11775.48
649.835	11718.14
650.027	11648.5
650.22	11542.01
650.413	11453.95
650.605	11458.04
650.798	11390.46
650.991	11333.12
651.183	11310.59
651.376	11261.44
651.568	11161.09
651.761	11087.36
651.954	10966.53
652.146	11017.73
652.339	10724.87
652.531	10745.35
652.724	10683.91
652.916	10505.74
653.109	10821.13
653.301	10257.93
653.494	10452.49
653.686	10407.44
653.879	10573.32
654.071	10243.6
654.263	10280.46
654.456	10128.91
654.648	10376.72
654.84	10014.23
655.033	9926.16
655.225	9844.24
655.417	9920.02
655.61	9821.72
655.802	9948.69
655.994	9793.05
656.186	9915.92
656.379	9623.06
656.571	9932.31
656.763	9391.64
656.955	9403.93
657.148	9496.09
657.34	9508.38
657.532	9158.17
657.724	9182.75
657.916	9164.32
658.108	9199.13
658.3	9018.91
658.492	8984.1
658.684	8818.21
658.876	8918.56
659.068	8998.43
659.26	8973.86
659.452	8773.16
659.644	8750.63
659.836	8564.26
660.028	8842.79
660.22	8416.81
660.412	8488.49
660.604	8312.36
660.796	8435.24
660.988	8281.64
661.18	8148.53
661.372	8375.85
661.563	8406.57
661.755	8080.94
661.947	8080.94
662.139	8128.05
662.331	8082.99
662.522	7767.6
662.714	8007.22
662.906	7925.3
663.097	7747.12
663.289	7673.4
663.481	7636.53
663.673	7812.66
663.864	7644.73
664.056	7628.34
664.247	7482.94
664.439	7405.11
664.631	7646.77
664.822	7499.32
665.014	7392.83
665.205	7251.52
665.397	7335.48
665.588	7276.09
665.78	7009.86
665.971	7142.97
666.163	7077.44
666.354	7028.29
666.546	6991.42
666.737	6848.07
666.929	6901.31
667.12	6792.77
667.311	6884.93
667.503	6790.72
667.694	6698.56
667.885	6747.72
668.077	6835.78
668.268	6520.39
668.459	6669.89
668.651	6649.41
668.842	6559.3
669.033	6544.97
669.224	6397.51
669.416	6680.13
669.607	6280.78
669.798	6461
669.989	6397.51
670.18	6395.47
670.371	6454.86
670.563	6266.44
670.754	6094.41
670.945	6248.01
671.136	6205
671.327	6123.09
671.518	6129.23
671.709	6147.66
671.9	5959.25
672.091	5967.44
672.282	5992.02
672.473	5965.39
672.664	5871.19
672.855	6010.45
673.046	5983.82
673.237	5975.63
673.428	5842.51
673.619	5795.41
673.809	5793.36
674	5738.07
674.191	5576.28
674.382	5549.65
674.573	5672.53
674.764	5537.37
674.954	5733.97
675.145	5391.96
675.336	5385.82
675.527	5525.08
675.717	5494.36
675.908	5414.49
676.099	5363.29
676.289	5340.76
676.48	5473.88
676.671	5295.71
676.861	5273.18
677.052	5232.22
677.243	5142.11
677.433	5340.76
677.624	5156.44
677.814	5244.51
678.005	5213.79
678.195	5172.83
678.386	5058.14
678.576	5181.02
678.767	5023.33
678.957	5174.88
679.148	5267.03
679.338	5109.34
679.529	5002.85
679.719	4927.07
679.909	4912.74
680.1	4925.02
680.29	4984.41
680.481	4912.74
680.671	4982.37
680.861	4814.43
681.052	4888.16
681.242	4681.32
681.432	5092.96
681.622	4808.29
681.813	4738.66
682.003	4777.57
682.193	4695.65
682.383	4757.09
682.573	4660.84
682.764	4566.63
682.954	4814.43
683.144	4531.81
683.334	4623.97
683.524	4509.29
683.714	4615.78
683.904	4642.4
684.094	4804.19
684.284	4654.69
684.474	4697.7
684.664	4722.27
684.854	4511.33
685.044	4527.72
685.234	4486.76
685.424	4408.94
685.614	4273.77
685.804	4322.92
685.994	4437.61
686.184	4374.12
686.374	4396.65
686.564	4279.91
686.753	4437.61
686.943	4376.17
687.133	4331.11
687.323	4402.79
687.513	4335.21
687.702	4230.76
687.892	4189.8
688.082	4259.43
688.272	4191.85
688.461	4058.73
688.651	4167.28
688.841	4310.63
689.03	4120.17
689.22	4191.85
689.41	4279.91
689.599	4058.73
689.789	4003.44
689.979	4120.17
690.168	3976.81
690.358	4030.06
690.547	3991.15
690.737	4034.16
690.926	3997.29
691.116	3880.56
691.305	4083.31
691.495	4056.68
691.684	3876.46
691.874	3960.43
692.063	4132.46
692.252	3929.71
692.442	3862.13
692.631	3907.18
692.82	3927.66
693.01	3829.36
693.199	3898.99
693.388	3772.02
693.578	3948.14
693.767	3886.7
693.956	3743.35
694.146	3661.43
694.335	3778.16
694.524	3620.47
694.713	3884.66
694.902	3825.26
695.092	3663.47
695.281	3575.41
695.47	3704.43
695.659	3597.94
695.848	3706.48
696.037	3698.29
696.226	3638.9
696.415	3526.26
696.604	3599.99
696.793	3571.32
696.982	3499.64
697.171	3649.14
697.36	3501.69
697.549	3481.21
697.738	3618.42
697.927	3556.98
698.116	3632.76
698.305	3606.13
698.494	3387
698.683	3462.77
698.872	3593.84
699.061	3423.86
699.25	3464.82
699.438	3419.77
699.627	3434.1
699.816	3483.25
700.005	3278.46
700.193	3284.6
700.382	3446.39
700.571	3505.78
700.76	3346.04
700.948	3481.21
701.137	3403.38
701.326	3423.86
701.514	3280.5
701.703	3288.7
701.892	3192.44
702.08	3307.13
702.269	3214.97
702.457	3235.45
702.646	3225.21
702.834	3192.44
703.023	3145.34
703.212	3313.27
703.4	3040.89
703.589	3255.93
703.777	3190.39
703.965	3083.9
704.154	3153.53
704.342	3120.76
704.531	3135.1
704.719	3126.91
704.907	3169.91
705.096	3075.71
705.284	3239.55
705.472	3239.55
705.661	3061.37
705.849	3063.42
706.037	2999.93
706.226	3038.84
706.414	3051.13
706.602	2965.12
706.79	3044.99
706.979	3065.47
707.167	3120.76
707.355	2840.19
707.543	2889.34
707.731	2905.73
707.919	2938.49
708.107	2772.61
708.296	2858.62
708.484	2932.35
708.672	2864.77
708.86	2893.44
709.048	2817.66
709.236	2807.42
709.424	2850.43
709.612	2913.92
709.8	2745.98
709.988	2809.47
710.176	2991.74
710.364	2809.47
710.551	2717.31
710.739	2731.65
710.927	2700.93
711.115	2737.79
711.303	2748.03
711.491	2764.42
711.679	2731.65
711.866	2666.11
712.054	2809.47
712.242	2813.57
712.43	2639.49
712.617	2643.59
712.805	2676.35
712.993	2690.69
713.181	2576
713.368	2586.24
713.556	2623.11
713.744	2592.39
713.931	2707.07
714.119	2504.32
714.306	2612.87
714.494	2528.9
714.682	2551.43
714.869	2494.08
715.057	2438.79
715.244	2473.6
715.432	2576
715.619	2502.28
715.807	2492.04
715.994	2403.97
716.182	2477.7
716.369	2494.08
716.556	2444.93
716.744	2487.94
716.931	2320.01
717.119	2309.77
717.306	2403.97
717.493	2485.89
717.681	2354.82
717.868	2420.36
718.055	2311.82
718.242	2506.37
718.43	2436.74
718.617	2377.35
718.804	2250.38
718.991	2424.45
719.179	2293.38
719.366	2363.01
719.553	2272.9
719.74	2426.5
719.927	2244.23
720.114	2291.34
720.301	2256.52
720.488	2285.19
720.676	2150.03
720.863	2217.61
721.05	2373.25
721.237	2272.9
721.424	2252.42
721.611	2127.5
721.798	2219.66
721.985	2252.42
722.172	2223.75
722.358	2277
722.545	2098.83
722.732	2158.22
722.919	2109.07
723.106	2141.83
723.293	2139.79
723.48	2166.41
723.667	2035.34
723.853	2109.07
724.04	2119.31
724.227	2102.92
724.414	2070.16
724.6	2045.58
724.787	2104.97
724.974	1998.48
725.161	2190.99
725.347	2027.15
725.534	2037.39
725.72	2072.2
725.907	2033.29
726.094	2070.16
726.28	1939.09
726.467	1863.31
726.653	2037.39
726.84	2033.29
727.027	2045.58
727.213	1924.75
727.4	2027.15
727.586	1978
727.773	1957.52
727.959	2012.81
728.145	2061.96
728.332	1986.19
728.518	1934.99
728.705	1934.99
728.891	1978
729.077	2010.76
729.264	1896.08
729.45	1883.79
729.636	1881.74
729.823	1947.28
730.009	1980.04
730.195	1848.97
730.382	1914.51
730.568	1793.68
730.754	1797.78
730.94	1822.35
731.126	1865.36
731.313	1881.74
731.499	1740.43
731.685	1789.58
731.871	1822.35
732.057	1765.01
732.243	1896.08
732.429	1838.73
732.615	1906.32
732.801	1797.78
732.987	1795.73
733.173	1803.92
733.359	1744.53
733.545	1822.35
733.731	1789.58
733.917	1799.82
734.103	1740.43
734.289	1738.38
734.475	1756.82
734.661	1773.2
734.847	1713.81
735.033	1744.53
735.219	1676.95
735.404	1709.71
735.59	1652.37
735.776	1642.13
735.962	1744.53
736.148	1707.66
736.333	1713.81
736.519	1609.36
736.705	1672.85
736.89	1658.51
737.076	1734.29
737.262	1625.75
737.447	1646.23
737.633	1676.95
737.819	1547.92
738.004	1547.92
738.19	1586.83
738.375	1502.87
738.561	1568.4
738.747	1609.36
738.932	1556.11
739.118	1621.65
739.303	1609.36
739.489	1625.75
739.674	1578.64
739.859	1414.81
740.045	1468.05
740.23	1552.02
740.416	1482.39
740.601	1556.11
740.786	1502.87
740.972	1535.64
741.157	1404.57
741.342	1500.82
741.528	1453.72
741.713	1461.91
741.898	1400.47
742.084	1420.95
742.269	1437.33
742.454	1394.33
742.639	1474.2
742.824	1433.24
743.01	1443.48
743.195	1523.35
743.38	1470.1
743.565	1367.7
743.75	1406.61
743.935	1347.22
744.12	1404.57
744.305	1257.11
744.49	1357.46
744.675	1306.26
744.86	1365.65
745.045	1322.65
745.23	1334.93
745.415	1379.99
745.6	1277.59
745.785	1238.68
745.97	1275.54
746.155	1326.74
746.34	1298.07
746.525	1207.96
746.71	1326.74
746.895	1228.44
747.079	1257.11
747.264	1253.02
747.449	1250.97
747.634	1193.62
747.819	1267.35
748.003	1281.69
748.188	1175.19
748.373	1324.69
748.557	1117.85
748.742	1220.25
748.927	1191.58
749.111	1158.81
749.296	1199.77
749.481	1144.47
749.665	1185.43
749.85	1134.23
750.034	1160.86
750.219	1187.48
750.404	1078.94
750.588	1070.75
750.773	1035.93
750.957	1087.13
751.141	1097.37
751.326	1142.43
751.51	1015.45
751.695	1080.99
751.879	1111.71
752.064	1109.66
752.248	1048.22
752.432	1128.09
752.617	1103.51
752.801	1054.36
752.985	1070.75
753.17	1044.12
753.354	939.68
753.538	956.06
753.722	962.2
753.907	1013.4
754.091	911
754.275	1042.07
754.459	1027.74
754.643	925.34
754.828	1019.55
755.012	904.86
755.196	896.67
755.38	964.25
755.564	962.2
755.748	947.87
755.932	949.92
756.116	974.49
756.3	947.87
756.484	988.83
756.668	917.15
756.852	921.24
757.036	892.57
757.22	884.38
757.404	898.72
757.588	792.22
757.772	865.95
757.956	855.71
758.14	915.1
758.323	802.46
758.507	941.72
758.691	806.56
758.875	904.86
759.059	923.29
759.242	777.89
759.426	763.55
759.61	868
759.794	716.45
759.977	792.22
760.161	847.52
760.345	757.41
760.528	855.71
760.712	872.09
760.895	845.47
761.079	736.93
761.263	726.69
761.446	728.74
761.63	784.03
761.813	757.41
761.997	734.88
762.18	761.5
762.364	708.26
762.547	675.49
762.731	726.69
762.914	724.64
763.098	753.31
763.281	777.89
763.464	691.87
763.648	769.69
763.831	675.49
764.015	634.53
764.198	693.92
764.381	806.56
764.564	712.35
764.748	718.5
764.931	765.6
765.114	757.41
765.297	769.69
765.481	700.06
765.664	718.5
765.847	722.59
766.03	679.58
766.213	741.02
766.397	710.3
766.58	708.26
766.763	724.64
766.946	749.22
767.129	652.96
767.312	669.34
767.495	706.21
767.678	593.57
767.861	624.29
768.044	685.73
768.227	708.26
768.41	741.02
768.593	781.98
768.776	634.53
768.959	650.91
769.142	618.15
769.324	597.67
769.507	618.15
769.69	673.44
769.873	650.91
770.056	683.68
770.239	646.82
770.421	618.15
770.604	655.01
770.787	571.04
770.97	634.53
771.152	577.19
771.335	628.39
771.518	693.92
771.7	636.58
771.883	659.1
772.066	568.99
772.248	593.57
772.431	638.62
772.613	700.06
772.796	564.9
772.978	581.28
773.161	599.71
773.343	634.53
773.526	593.57
773.708	560.8
773.891	571.04
774.073	585.38
774.256	558.75
774.438	542.37
774.621	581.28
774.803	609.95
774.985	493.22
775.168	595.62
775.35	544.42
775.532	568.99
775.715	478.88
775.897	568.99
776.079	499.36
776.261	532.13
776.444	515.75
776.626	595.62
776.808	568.99
776.99	458.4
777.173	554.66
777.355	554.66
777.537	511.65
777.719	480.93
777.901	558.75
778.083	528.03
778.265	437.92
778.447	542.37
778.629	489.12
778.811	487.08
778.993	429.73
779.175	462.5
779.357	470.69
779.539	423.59
779.721	429.73
779.903	464.55
780.085	423.59
780.267	487.08
780.449	509.6
780.631	513.7
780.812	511.65
780.994	405.16
781.176	437.92
781.358	433.83
781.54	380.58
781.721	380.58
781.903	341.67
782.085	462.5
782.267	470.69
782.448	349.86
782.63	364.2
782.812	374.44
782.993	403.11
783.175	421.54
783.357	433.83
783.538	358.05
783.72	356.01
783.901	364.2
784.083	390.82
784.264	376.48
784.446	347.81
784.627	407.2
784.809	298.66
784.99	392.87
785.172	372.39
785.353	433.83
785.535	396.96
785.716	292.52
785.897	323.24
786.079	339.62
786.26	433.83
786.441	437.92
786.623	358.05
786.804	388.77
786.985	280.23
787.167	308.9
787.348	319.14
787.529	302.76
787.71	356.01
787.891	306.85
788.073	310.95
788.254	392.87
788.435	339.62
788.616	331.43
788.797	290.47
788.978	290.47
789.159	364.2
789.34	388.77
789.522	304.81
789.703	249.51
789.884	339.62
790.065	190.12
790.246	396.96
790.427	308.9
790.607	304.81
790.788	294.57
790.969	292.52
791.15	282.28
791.331	358.05
791.512	243.37
791.693	286.37
791.874	286.37
792.054	358.05
792.235	333.48
792.416	286.37
792.597	196.26
792.778	366.25
792.958	261.8
793.139	196.26
793.32	302.76
793.5	226.98
793.681	339.62
793.862	200.36
794.042	218.79
794.223	284.33
794.404	282.28
794.584	241.32
794.765	298.66
794.945	224.94
795.126	265.89
795.306	241.32
795.487	220.84
795.667	147.11
795.848	200.36
796.028	257.7
796.209	214.7
796.389	298.66
796.57	233.13
796.75	210.6
796.93	226.98
797.111	235.18
797.291	194.22
797.471	243.37
797.652	269.99
797.832	196.26
798.012	274.09
798.192	188.07
798.373	237.22
798.553	212.65
798.733	257.7
798.913	251.56
799.093	243.37
799.274	317.09
799.454	306.85
799.634	210.6
799.814	218.79
799.994	163.5
800.174	224.94
800.354	165.54
800.534	165.54
800.714	212.65
800.894	210.6
801.074	132.78
801.254	212.65
801.434	212.65
801.614	226.98
801.794	167.59
801.974	726.69
802.154	186.02
802.334	251.56
802.514	143.02
802.693	104.11
802.873	179.88
803.053	196.26
803.233	155.3
803.413	216.74
803.592	85.67
803.772	233.13
803.952	167.59
804.131	128.68
804.311	210.6
804.491	226.98
804.67	138.92
804.85	155.3
805.03	233.13
805.209	186.02
805.389	167.59
805.568	171.69
805.748	161.45
805.928	73.39
806.107	208.55
806.287	161.45
806.466	100.01
806.646	102.06
806.825	116.39
807.004	145.06
807.184	196.26
807.363	190.12
807.543	147.11
807.722	136.87
807.901	140.97
808.081	175.78
808.26	77.48
808.439	128.68
808.619	118.44
808.798	167.59
808.977	128.68
809.156	159.4
809.336	159.4
809.515	151.21
809.694	169.64
809.873	179.88
810.052	97.96
810.231	177.83
810.411	165.54
810.59	167.59
810.769	85.67
810.948	87.72
811.127	79.53
811.306	85.67
811.485	52.91
811.664	120.49
811.843	112.3
812.022	77.48
812.201	134.82
812.38	85.67
812.559	102.06
812.737	110.25
812.916	95.91
813.095	126.63
813.274	159.4
813.453	161.45
813.632	143.02
813.811	153.26
813.989	112.3
814.168	110.25
814.347	155.3
814.526	65.19
814.704	118.44
814.883	175.78
815.062	85.67
815.24	112.3
815.419	102.06
815.598	71.34
815.776	110.25
815.955	38.57
816.133	85.67
816.312	77.48
816.49	108.2
816.669	143.02
816.847	192.17
817.026	63.15
817.204	69.29
817.383	5.8
817.561	110.25
817.74	122.54
817.918	138.92
818.097	79.53
818.275	77.48
818.453	95.91
818.632	83.63
818.81	28.33
818.988	44.71
819.167	87.72
819.345	112.3
819.523	42.67
819.701	85.67
819.879	61.1
820.058	85.67
820.236	114.34
820.414	73.39
820.592	134.82
820.77	38.57
820.948	87.72
821.127	77.48
821.305	102.06
821.483	136.87
821.661	163.5
821.839	57
822.017	26.28
822.195	54.95
822.373	122.54
822.551	173.74
822.729	151.21
822.907	104.11
823.085	175.78
823.262	65.19
823.44	61.1
823.618	42.67
823.796	61.1
823.974	59.05
824.152	11.95
824.329	112.3
824.507	52.91
824.685	167.59
824.863	75.43
825.04	54.95
825.218	50.86
825.396	36.52
825.574	87.72
825.751	28.33
825.929	65.19
826.107	-20.82
826.284	52.91
826.462	118.44
826.639	106.15
826.817	128.68
826.994	48.81
827.172	22.19
827.349	87.72
827.527	44.71
827.704	36.52
827.882	108.2
828.059	-0.34
828.237	11.95
828.414	175.78
828.591	26.28
828.769	-4.44
828.946	163.5
829.124	28.33
829.301	102.06
829.478	95.91
829.655	155.3
829.833	83.63
830.01	-43.35
830.187	69.29
830.364	89.77
830.542	95.91
830.719	61.1
830.896	85.67
831.073	77.48
831.25	75.43
831.427	114.34
831.604	61.1
831.782	61.1
831.959	89.77
832.136	11.95
832.313	50.86
832.49	18.09
832.667	143.02
832.844	16.04
833.021	93.87
833.198	97.96
833.374	151.21
833.551	22.19
833.728	143.02
833.905	79.53
834.082	26.28
834.259	61.1
834.436	63.15
834.612	46.76
834.789	89.77
834.966	69.29
835.143	36.52
835.319	-2.39
835.496	151.21
835.673	77.48
835.85	118.44
836.026	38.57
836.203	36.52
836.38	36.52
836.556	44.71
836.733	-20.82
836.909	40.62
837.086	63.15
837.262	40.62
837.439	100.01
837.616	-20.82
837.792	95.91
837.968	54.95
838.145	-98.64
838.321	36.52
838.498	61.1
838.674	52.91
838.851	145.06
839.027	34.47
839.203	97.96
839.38	61.1
839.556	-0.34
839.732	71.34
839.909	36.52
840.085	91.82
840.261	3.75
840.437	69.29
840.614	-10.58
840.79	89.77
840.966	30.38
841.142	54.95
841.318	44.71
841.494	65.19
841.671	73.39
841.847	-49.49
842.023	7.85
842.199	61.1
842.375	143.02
842.551	110.25
842.727	7.85
842.903	54.95
843.079	7.85
843.255	69.29
843.431	44.71
843.607	3.75
843.783	-76.12
843.959	85.67
844.134	22.19
844.31	102.06
844.486	-2.39
844.662	50.86
844.838	24.23
845.013	63.15
845.189	93.87
845.365	91.82
845.541	1.71
845.716	83.63
845.892	28.33
846.068	16.04
846.244	24.23
846.419	73.39
846.595	44.71
846.77	-8.53
846.946	57
847.122	36.52
847.297	13.99
847.473	48.81
847.648	-41.3
847.824	69.29
847.999	-67.92
848.175	-18.77
848.35	38.57
848.526	95.91
848.701	18.09
848.876	69.29
849.052	20.14
849.227	-10.58
849.403	52.91
849.578	32.43
849.753	34.47
849.929	89.77
850.104	-18.77
850.279	71.34
850.454	48.81
850.63	95.91
850.805	28.33
850.98	81.58
851.155	38.57
851.33	93.87
851.505	20.14
851.681	85.67
851.856	36.52
852.031	11.95
852.206	42.67
852.381	20.14
852.556	11.95
852.731	13.99
852.906	36.52
853.081	40.62
853.256	-4.44
853.431	48.81
853.606	50.86
853.781	34.47
853.956	-22.87
854.131	69.29
854.305	38.57
854.48	-0.34
854.655	52.91
854.83	7.85
855.005	30.38
855.18	71.34
855.354	1.71
855.529	32.43
855.704	-29.01
855.879	30.38
856.053	57
856.228	22.19
856.403	40.62
856.577	69.29
856.752	-26.96
856.926	36.52
857.101	50.86
857.276	20.14
857.45	-31.06
857.625	-37.2
857.799	-33.11
857.974	54.95
858.148	59.05
858.323	36.52
858.497	77.48
858.672	-37.2
858.846	7.85
859.02	71.34
859.195	22.19
859.369	44.71
859.543	-26.96
859.718	36.52
859.892	3.75
860.066	69.29
860.241	34.47
860.415	40.62
860.589	-33.11
860.763	-31.06
860.938	11.95
861.112	36.52
861.286	3.75
861.46	3.75
861.634	-26.96
861.808	11.95
861.982	7.85
862.157	52.91
862.331	46.76
862.505	-20.82
862.679	-49.49
862.853	44.71
863.027	16.04
863.201	79.53
863.375	65.19
863.549	77.48
863.722	36.52
863.896	102.06
864.07	-2.39
864.244	46.76
864.418	-10.58
864.592	32.43
864.766	-4.44
864.939	13.99
865.113	-4.44
865.287	77.48
865.461	-35.16
865.634	30.38
865.808	-55.64
865.982	-0.34
866.156	85.67
866.329	36.52
866.503	-12.63
866.676	118.44
866.85	-4.44
867.024	-94.55
867.197	28.33
867.371	-18.77
867.544	65.19
867.718	-43.35
867.891	69.29
868.065	36.52
868.238	7.85
868.412	102.06
868.585	28.33
868.759	85.67
868.932	3.75
869.105	77.48
869.279	79.53
869.452	38.57
869.625	-31.06
869.799	106.15
869.972	13.99
870.145	44.71
870.319	30.38
870.492	52.91
870.665	-31.06
870.838	-41.3
871.011	16.04
871.185	40.62
871.358	22.19
871.531	-4.44
871.704	-24.92
871.877	61.1
872.05	83.63
872.223	28.33
872.396	-6.49
872.569	32.43
872.742	-20.82
872.915	50.86
873.088	-26.96
873.261	11.95
873.434	52.91
873.607	63.15
873.78	34.47
873.953	7.85
874.126	20.14
874.299	59.05
874.471	-0.34
874.644	-69.97
874.817	52.91
874.99	61.1
875.163	-98.64
875.335	40.62
875.508	48.81
875.681	95.91
875.853	-20.82
876.026	30.38
876.199	28.33
876.371	-12.63
876.544	-18.77
876.717	5.8
876.889	-37.2
877.062	-6.49
877.234	71.34
877.407	28.33
877.579	1.71
877.752	44.71
877.924	22.19
878.097	13.99
878.269	3.75
878.442	-0.34
878.614	-2.39
878.786	89.77
878.959	-8.53
879.131	-2.39
879.303	28.33
879.476	-2.39
879.648	67.24
879.82	42.67
879.993	-24.92
880.165	20.14
880.337	-59.73
880.509	-6.49
880.681	11.95
880.854	22.19
881.026	24.23
881.198	97.96
881.37	3.75
881.542	59.05
881.714	36.52
881.886	22.19
882.058	93.87
882.23	61.1
882.402	-6.49
882.574	11.95
882.746	-8.53
882.918	3.75
883.09	26.28
883.262	63.15
883.434	30.38
883.606	-8.53
883.778	13.99
883.95	36.52
884.122	24.23
884.293	30.38
884.465	22.19
884.637	36.52
884.809	-2.39
884.98	48.81
885.152	28.33
885.324	-0.34
885.496	13.99
885.667	28.33
885.839	-33.11
886.011	77.48
886.182	20.14
886.354	46.76
886.525	-0.34
886.697	57
886.869	-61.78
887.04	-35.16
887.212	44.71
887.383	104.11
887.555	-47.44
887.726	-0.34
887.897	-35.16
888.069	13.99
888.24	40.62
888.412	-61.78
888.583	-18.77
888.754	3.75
888.926	52.91
889.097	16.04
889.268	26.28
889.44	24.23
889.611	-69.97
889.782	-57.68
889.953	-2.39
890.125	87.72
890.296	44.71
890.467	52.91
890.638	26.28
890.809	-18.77
890.98	118.44
891.151	40.62
891.323	44.71
891.494	85.67
891.665	11.95
891.836	-4.44
892.007	79.53
892.178	-12.63
892.349	61.1
892.52	-4.44
892.691	67.24
892.862	36.52
893.032	-8.53
893.203	7.85
893.374	-4.44
893.545	16.04
893.716	24.23
893.887	3.75
894.057	-10.58
894.228	30.38
894.399	-16.73
894.57	30.38
894.74	16.04
894.911	34.47
895.082	73.39
895.253	69.29
895.423	7.85
895.594	28.33
895.764	24.23
895.935	-61.78
896.106	-74.07
896.276	-14.68
896.447	-0.34
896.617	13.99
896.788	-67.92
896.958	13.99
897.129	3.75
897.299	-20.82
897.47	38.57
897.64	63.15
897.81	20.14
897.981	20.14
898.151	20.14
898.322	59.05
898.492	-16.73
898.662	28.33
898.832	-8.53
899.003	20.14
899.173	-78.16
899.343	3.75
899.513	-37.2
