Data from USB4F104151__29__14-42-48-445.txt Node

Date: Thu Mar 13 14:42:48 EDT 2025
User: louis
Spectrometer: USB4F10415
Trigger mode: 4
Integration Time (sec): 2.000000E-2
Scans to average: 1
Electric dark correction enabled: true
Nonlinearity correction enabled: false
Boxcar width: 0
XAxis mode: Wavelengths
Number of Pixels in Spectrum: 3648
>>>>>Begin Spectral Data<<<<<
178.204	-24.4
178.424	-24.4
178.644	-24.4
178.864	-102.23
179.084	-155.47
179.304	-38.74
179.524	49.32
179.744	8.36
179.964	41.13
180.184	8.36
180.404	10.41
180.624	-26.45
180.844	-12.12
181.064	-16.21
181.283	-32.6
181.503	-16.21
181.723	24.75
181.943	-130.9
182.163	14.51
182.383	8.36
182.602	-16.21
182.822	0.17
183.042	4.27
183.262	32.94
183.482	-14.17
183.701	24.75
183.921	2.22
184.141	4.27
184.361	10.41
184.58	-48.98
184.8	24.75
185.02	-24.4
185.239	-26.45
185.459	-12.12
185.679	57.51
185.898	-34.64
186.118	4.27
186.338	49.32
186.557	-3.93
186.777	0.17
186.997	82.09
187.216	24.75
187.436	139.43
187.655	10.41
187.875	-44.88
188.095	14.51
188.314	20.65
188.534	112.81
188.753	49.32
188.973	41.13
189.192	147.62
189.412	-24.4
189.631	-24.4
189.851	67.75
190.07	57.51
190.29	20.65
190.509	-32.6
190.729	-38.74
190.948	39.08
191.168	57.51
191.387	12.46
191.607	20.65
191.826	18.6
192.045	-22.36
192.265	63.66
192.484	-12.12
192.704	-65.36
192.923	-36.69
193.142	102.57
193.362	-63.32
193.581	121
193.8	30.89
194.02	73.9
194.239	-20.31
194.458	106.67
194.678	26.79
194.897	-42.84
195.116	-57.17
195.335	-30.55
195.555	22.7
195.774	86.19
195.993	51.37
196.212	-16.21
196.432	90.28
196.651	-32.6
196.87	24.75
197.089	133.29
197.308	43.18
197.528	88.23
197.747	-20.31
197.966	24.75
198.185	112.81
198.404	-55.12
198.623	24.75
198.842	-14.17
199.062	47.27
199.281	75.95
199.5	-3.93
199.719	59.56
199.938	53.42
200.157	20.65
200.376	-22.36
200.595	59.56
200.814	24.75
201.033	98.47
201.252	18.6
201.471	26.79
201.69	67.75
201.909	51.37
202.128	43.18
202.347	-14.17
202.566	65.71
202.785	-8.02
203.004	-16.21
203.223	92.33
203.442	57.51
203.661	-30.55
203.879	-3.93
204.098	28.84
204.317	-65.36
204.536	0.17
204.755	-48.98
204.974	8.36
205.193	10.41
205.411	20.65
205.63	22.7
205.849	-32.6
206.068	20.65
206.287	-24.4
206.505	8.36
206.724	10.41
206.943	-22.36
207.162	28.84
207.381	24.75
207.599	71.85
207.818	34.99
208.037	32.94
208.255	4.27
208.474	2.22
208.693	59.56
208.911	45.23
209.13	-8.02
209.349	41.13
209.567	30.89
209.786	43.18
210.005	65.71
210.223	77.99
210.442	28.84
210.661	-28.5
210.879	12.46
211.098	-63.32
211.316	49.32
211.535	65.71
211.753	61.61
211.972	32.94
212.191	20.65
212.409	39.08
212.628	53.42
212.846	0.17
213.065	82.09
213.283	41.13
213.502	49.32
213.72	26.79
213.938	-28.5
214.157	-10.07
214.375	61.61
214.594	41.13
214.812	28.84
215.031	-32.6
215.249	-26.45
215.467	67.75
215.686	57.51
215.904	45.23
216.122	10.41
216.341	77.99
216.559	73.9
216.778	-44.88
216.996	28.84
217.214	-81.75
217.432	-8.02
217.651	-24.4
217.869	16.55
218.087	14.51
218.306	30.89
218.524	-3.93
218.742	12.46
218.96	24.75
219.179	-40.79
219.397	-22.36
219.615	59.56
219.833	41.13
220.051	-5.97
220.27	65.71
220.488	37.03
220.706	18.6
220.924	24.75
221.142	8.36
221.36	-46.93
221.578	0.17
221.796	45.23
222.015	41.13
222.233	-55.12
222.451	45.23
222.669	41.13
222.887	-8.02
223.105	-57.17
223.323	2.22
223.541	10.41
223.759	4.27
223.977	-48.98
224.195	73.9
224.413	43.18
224.631	49.32
224.849	4.27
225.067	123.05
225.285	-24.4
225.503	-61.27
225.721	-38.74
225.939	80.04
226.157	75.95
226.375	-38.74
226.592	0.17
226.81	8.36
227.028	-10.07
227.246	8.36
227.464	18.6
227.682	-12.12
227.9	-24.4
228.117	-20.31
228.335	41.13
228.553	8.36
228.771	-40.79
228.989	41.13
229.206	34.99
229.424	39.08
229.642	-128.85
229.86	59.56
230.077	41.13
230.295	-40.79
230.513	18.6
230.731	8.36
230.948	49.32
231.166	90.28
231.384	-44.88
231.601	10.41
231.819	26.79
232.037	-14.17
232.254	-51.03
232.472	16.55
232.689	59.56
232.907	86.19
233.125	24.75
233.342	75.95
233.56	28.84
233.777	32.94
233.995	-32.6
234.213	59.56
234.43	32.94
234.648	69.8
234.865	12.46
235.083	22.7
235.3	2.22
235.518	-12.12
235.735	106.67
235.953	41.13
236.17	24.75
236.388	16.55
236.605	43.18
236.822	-1.88
237.04	24.75
237.257	32.94
237.475	32.94
237.692	-3.93
237.909	0.17
238.127	-12.12
238.344	57.51
238.562	92.33
238.779	30.89
238.996	-44.88
239.214	30.89
239.431	41.13
239.648	-5.97
239.865	-73.56
240.083	-48.98
240.3	18.6
240.517	-32.6
240.735	69.8
240.952	53.42
241.169	12.46
241.386	0.17
241.603	57.51
241.821	-53.08
242.038	10.41
242.255	-28.5
242.472	-32.6
242.689	20.65
242.907	2.22
243.124	20.65
243.341	-48.98
243.558	37.03
243.775	65.71
243.992	16.55
244.209	20.65
244.426	16.55
244.643	32.94
244.86	-12.12
245.078	53.42
245.295	73.9
245.512	32.94
245.729	-63.32
245.946	24.75
246.163	73.9
246.38	28.84
246.597	8.36
246.814	77.99
247.031	-96.08
247.248	86.19
247.464	43.18
247.681	26.79
247.898	2.22
248.115	-5.97
248.332	53.42
248.549	26.79
248.766	65.71
248.983	65.71
249.2	-26.45
249.417	34.99
249.633	-51.03
249.85	61.61
250.067	-16.21
250.284	-63.32
250.501	-24.4
250.717	28.84
250.934	24.75
251.151	-40.79
251.368	28.84
251.585	69.8
251.801	0.17
252.018	-16.21
252.235	18.6
252.451	16.55
252.668	-8.02
252.885	106.67
253.102	-16.21
253.318	41.13
253.535	2.22
253.752	-1.88
253.968	26.79
254.185	-14.17
254.401	49.32
254.618	-69.46
254.835	16.55
255.051	10.41
255.268	24.75
255.484	73.9
255.701	51.37
255.917	67.75
256.134	-14.17
256.351	16.55
256.567	-48.98
256.784	8.36
257	-16.21
257.217	4.27
257.433	-36.69
257.65	32.94
257.866	88.23
258.082	-3.93
258.299	-20.31
258.515	43.18
258.732	26.79
258.948	73.9
259.165	4.27
259.381	0.17
259.597	-8.02
259.814	24.75
260.03	-8.02
260.246	28.84
260.463	12.46
260.679	43.18
260.895	-14.17
261.112	-22.36
261.328	0.17
261.544	41.13
261.761	63.66
261.977	61.61
262.193	51.37
262.409	77.99
262.626	53.42
262.842	-32.6
263.058	-5.97
263.274	49.32
263.49	-16.21
263.707	84.14
263.923	20.65
264.139	18.6
264.355	39.08
264.571	-16.21
264.787	-16.21
265.004	-5.97
265.22	41.13
265.436	-22.36
265.652	-57.17
265.868	16.55
266.084	-8.02
266.3	24.75
266.516	-42.84
266.732	90.28
266.948	41.13
267.164	84.14
267.38	-1.88
267.596	20.65
267.812	18.6
268.028	51.37
268.244	-36.69
268.46	16.55
268.676	24.75
268.892	-40.79
269.108	-24.4
269.324	41.13
269.54	0.17
269.756	55.47
269.972	-16.21
270.188	20.65
270.403	65.71
270.619	-22.36
270.835	30.89
271.051	16.55
271.267	-20.31
271.483	49.32
271.698	51.37
271.914	61.61
272.13	57.51
272.346	-42.84
272.562	-5.97
272.777	55.47
272.993	59.56
273.209	2.22
273.425	67.75
273.64	-57.17
273.856	73.9
274.072	16.55
274.287	16.55
274.503	34.99
274.719	57.51
274.934	-38.74
275.15	32.94
275.366	-22.36
275.581	-12.12
275.797	26.79
276.012	57.51
276.228	-30.55
276.444	37.03
276.659	53.42
276.875	-12.12
277.09	-65.36
277.306	-22.36
277.521	16.55
277.737	12.46
277.952	65.71
278.168	-1.88
278.383	-40.79
278.599	6.31
278.814	77.99
279.03	18.6
279.245	73.9
279.461	12.46
279.676	51.37
279.892	55.47
280.107	67.75
280.322	10.41
280.538	49.32
280.753	-20.31
280.969	-40.79
281.184	53.42
281.399	8.36
281.615	8.36
281.83	20.65
282.045	-32.6
282.26	24.75
282.476	16.55
282.691	-22.36
282.906	-3.93
283.122	34.99
283.337	53.42
283.552	49.32
283.767	8.36
283.983	51.37
284.198	24.75
284.413	-12.12
284.628	6.31
284.843	57.51
285.058	49.32
285.274	20.65
285.489	-3.93
285.704	26.79
285.919	45.23
286.134	57.51
286.349	-32.6
286.564	32.94
286.779	73.9
286.995	0.17
287.21	-53.08
287.425	65.71
287.64	-28.5
287.855	61.61
288.07	-69.46
288.285	86.19
288.5	-3.93
288.715	18.6
288.93	-63.32
289.145	41.13
289.36	20.65
289.575	61.61
289.79	-44.88
290.004	12.46
290.219	69.8
290.434	18.6
290.649	-12.12
290.864	16.55
291.079	-12.12
291.294	26.79
291.509	-75.6
291.724	-20.31
291.938	16.55
292.153	-20.31
292.368	22.7
292.583	-24.4
292.798	-40.79
293.012	-38.74
293.227	10.41
293.442	10.41
293.657	57.51
293.871	32.94
294.086	-22.36
294.301	139.43
294.516	53.42
294.73	37.03
294.945	41.13
295.16	32.94
295.374	20.65
295.589	-8.02
295.804	-24.4
296.018	10.41
296.233	24.75
296.447	65.71
296.662	-40.79
296.877	-14.17
297.091	92.33
297.306	8.36
297.52	47.27
297.735	51.37
297.949	-24.4
298.164	4.27
298.378	41.13
298.593	-24.4
298.807	82.09
299.022	18.6
299.236	8.36
299.451	65.71
299.665	16.55
299.88	110.76
300.094	47.27
300.309	65.71
300.523	4.27
300.737	59.56
300.952	-38.74
301.166	90.28
301.381	-5.97
301.595	-14.17
301.809	49.32
302.024	26.79
302.238	-14.17
302.452	32.94
302.667	18.6
302.881	47.27
303.095	53.42
303.309	26.79
303.524	0.17
303.738	-5.97
303.952	45.23
304.166	69.8
304.381	39.08
304.595	63.66
304.809	-3.93
305.023	-48.98
305.237	32.94
305.452	-55.12
305.666	65.71
305.88	65.71
306.094	45.23
306.308	59.56
306.522	37.03
306.736	77.99
306.95	-14.17
307.164	55.47
307.379	43.18
307.593	-8.02
307.807	0.17
308.021	57.51
308.235	-14.17
308.449	-16.21
308.663	10.41
308.877	102.57
309.091	24.75
309.305	8.36
309.519	39.08
309.733	57.51
309.947	8.36
310.161	69.8
310.374	32.94
310.588	84.14
310.802	20.65
311.016	-8.02
311.23	53.42
311.444	32.94
311.658	43.18
311.872	32.94
312.085	-8.02
312.299	98.47
312.513	30.89
312.727	-10.07
312.941	6.31
313.154	41.13
313.368	-18.26
313.582	12.46
313.796	-20.31
314.009	118.95
314.223	75.95
314.437	51.37
314.651	59.56
314.864	-14.17
315.078	4.27
315.292	-1.88
315.505	0.17
315.719	-22.36
315.933	-22.36
316.146	10.41
316.36	71.85
316.573	94.38
316.787	53.42
317.001	-14.17
317.214	123.05
317.428	73.9
317.641	-61.27
317.855	-10.07
318.068	75.95
318.282	37.03
318.495	98.47
318.709	-1.88
318.922	73.9
319.136	57.51
319.349	0.17
319.563	59.56
319.776	75.95
319.99	10.41
320.203	-5.97
320.417	22.7
320.63	10.41
320.843	45.23
321.057	32.94
321.27	59.56
321.483	28.84
321.697	59.56
321.91	57.51
322.124	-3.93
322.337	-18.26
322.55	28.84
322.763	51.37
322.977	41.13
323.19	24.75
323.403	2.22
323.617	43.18
323.83	28.84
324.043	57.51
324.256	82.09
324.469	6.31
324.683	47.27
324.896	32.94
325.109	20.65
325.322	-12.12
325.535	26.79
325.748	-12.12
325.962	-46.93
326.175	106.67
326.388	24.75
326.601	-22.36
326.814	-12.12
327.027	34.99
327.24	-24.4
327.453	41.13
327.666	34.99
327.879	80.04
328.092	49.32
328.305	26.79
328.518	24.75
328.731	-8.02
328.944	-36.69
329.157	-1.88
329.37	57.51
329.583	84.14
329.796	65.71
330.009	28.84
330.222	24.75
330.435	75.95
330.648	47.27
330.861	45.23
331.073	69.8
331.286	123.05
331.499	-12.12
331.712	24.75
331.925	82.09
332.138	10.41
332.35	63.66
332.563	0.17
332.776	73.9
332.989	-44.88
333.202	84.14
333.414	2.22
333.627	0.17
333.84	2.22
334.053	49.32
334.265	75.95
334.478	4.27
334.691	106.67
334.903	-12.12
335.116	41.13
335.329	75.95
335.541	28.84
335.754	73.9
335.966	49.32
336.179	12.46
336.392	73.9
336.604	20.65
336.817	18.6
337.029	-36.69
337.242	49.32
337.454	77.99
337.667	-18.26
337.88	18.6
338.092	65.71
338.305	69.8
338.517	-3.93
338.729	16.55
338.942	51.37
339.154	55.47
339.367	18.6
339.579	65.71
339.792	-24.4
340.004	59.56
340.217	-8.02
340.429	57.51
340.641	37.03
340.854	-44.88
341.066	-30.55
341.278	94.38
341.491	75.95
341.703	22.7
341.915	65.71
342.128	2.22
342.34	43.18
342.552	49.32
342.764	18.6
342.977	86.19
343.189	90.28
343.401	75.95
343.613	-16.21
343.826	-8.02
344.038	34.99
344.25	14.51
344.462	-65.36
344.674	57.51
344.886	-3.93
345.099	90.28
345.311	86.19
345.523	57.51
345.735	18.6
345.947	-38.74
346.159	8.36
346.371	-40.79
346.583	82.09
346.795	90.28
347.007	4.27
347.219	151.72
347.431	41.13
347.643	84.14
347.855	41.13
348.067	18.6
348.279	-40.79
348.491	32.94
348.703	18.6
348.915	16.55
349.127	-28.5
349.339	51.37
349.551	-42.84
349.763	24.75
349.975	-34.64
350.187	65.71
350.399	63.66
350.61	90.28
350.822	18.6
351.034	114.86
351.246	28.84
351.458	57.51
351.669	39.08
351.881	34.99
352.093	106.67
352.305	57.51
352.517	32.94
352.728	94.38
352.94	-16.21
353.152	8.36
353.363	-5.97
353.575	77.99
353.787	28.84
353.999	49.32
354.21	14.51
354.422	37.03
354.633	-61.27
354.845	-5.97
355.057	82.09
355.268	24.75
355.48	45.23
355.692	-53.08
355.903	-16.21
356.115	75.95
356.326	20.65
356.538	16.55
356.749	-16.21
356.961	94.38
357.172	43.18
357.384	51.37
357.595	100.52
357.807	-3.93
358.018	0.17
358.23	49.32
358.441	86.19
358.653	6.31
358.864	59.56
359.075	45.23
359.287	24.75
359.498	-3.93
359.709	26.79
359.921	71.85
360.132	49.32
360.344	26.79
360.555	45.23
360.766	98.47
360.977	-53.08
361.189	32.94
361.4	90.28
361.611	12.46
361.823	18.6
362.034	-5.97
362.245	-20.31
362.456	-36.69
362.667	43.18
362.879	18.6
363.09	37.03
363.301	18.6
363.512	-32.6
363.723	32.94
363.935	90.28
364.146	84.14
364.357	28.84
364.568	82.09
364.779	-1.88
364.99	51.37
365.201	53.42
365.412	16.55
365.623	-5.97
365.834	43.18
366.045	6.31
366.256	30.89
366.467	55.47
366.678	-40.79
366.889	37.03
367.1	32.94
367.311	24.75
367.522	-34.64
367.733	102.57
367.944	24.75
368.155	57.51
368.366	34.99
368.577	82.09
368.788	53.42
368.999	22.7
369.209	75.95
369.42	149.67
369.631	86.19
369.842	45.23
370.053	28.84
370.264	-24.4
370.474	4.27
370.685	45.23
370.896	53.42
371.107	12.46
371.317	110.76
371.528	20.65
371.739	69.8
371.95	18.6
372.16	-20.31
372.371	18.6
372.582	32.94
372.792	53.42
373.003	-1.88
373.214	-12.12
373.424	127.14
373.635	-16.21
373.846	100.52
374.056	55.47
374.267	69.8
374.477	24.75
374.688	55.47
374.898	32.94
375.109	24.75
375.319	32.94
375.53	164.01
375.74	106.67
375.951	2.22
376.161	28.84
376.372	45.23
376.582	-30.55
376.793	34.99
377.003	-44.88
377.214	30.89
377.424	0.17
377.635	-20.31
377.845	84.14
378.055	30.89
378.266	-24.4
378.476	82.09
378.686	-24.4
378.897	88.23
379.107	39.08
379.317	16.55
379.528	-30.55
379.738	49.32
379.948	34.99
380.158	84.14
380.369	-16.21
380.579	82.09
380.789	-24.4
380.999	18.6
381.21	-32.6
381.42	98.47
381.63	67.75
381.84	-8.02
382.05	37.03
382.261	49.32
382.471	-48.98
382.681	49.32
382.891	90.28
383.101	86.19
383.311	-77.65
383.521	43.18
383.731	71.85
383.941	88.23
384.151	69.8
384.361	-20.31
384.571	55.47
384.781	73.9
384.991	59.56
385.201	121
385.411	98.47
385.621	51.37
385.831	16.55
386.041	80.04
386.251	26.79
386.461	92.33
386.671	8.36
386.881	141.48
387.091	57.51
387.301	159.91
387.511	32.94
387.72	69.8
387.93	59.56
388.14	4.27
388.35	34.99
388.56	41.13
388.769	96.43
388.979	65.71
389.189	10.41
389.399	57.51
389.609	32.94
389.818	106.67
390.028	-10.07
390.238	102.57
390.447	16.55
390.657	82.09
390.867	28.84
391.076	-20.31
391.286	114.86
391.496	92.33
391.705	53.42
391.915	114.86
392.125	61.61
392.334	43.18
392.544	73.9
392.753	73.9
392.963	37.03
393.172	32.94
393.382	0.17
393.591	116.9
393.801	57.51
394.01	98.47
394.22	26.79
394.429	57.51
394.639	20.65
394.848	2.22
395.058	-8.02
395.267	108.71
395.477	88.23
395.686	24.75
395.895	2.22
396.105	147.62
396.314	94.38
396.524	61.61
396.733	34.99
396.942	114.86
397.152	106.67
397.361	168.1
397.57	106.67
397.78	114.86
397.989	137.38
398.198	84.14
398.407	92.33
398.617	69.8
398.826	53.42
399.035	4.27
399.244	65.71
399.453	41.13
399.663	96.43
399.872	59.56
400.081	96.43
400.29	127.14
400.499	84.14
400.708	65.71
400.917	30.89
401.127	14.51
401.336	69.8
401.545	102.57
401.754	55.47
401.963	207.02
402.172	161.96
402.381	106.67
402.59	94.38
402.799	-8.02
403.008	106.67
403.217	125.1
403.426	145.58
403.635	141.48
403.844	55.47
404.053	16.55
404.262	37.03
404.471	204.97
404.68	125.1
404.888	147.62
405.097	108.71
405.306	80.04
405.515	123.05
405.724	188.58
405.933	88.23
406.142	131.24
406.35	157.86
406.559	133.29
406.768	182.44
406.977	145.58
407.185	92.33
407.394	184.49
407.603	166.06
407.812	174.25
408.02	217.26
408.229	170.15
408.438	170.15
408.646	196.78
408.855	159.91
409.064	266.41
409.272	139.43
409.481	190.63
409.69	237.74
409.898	237.74
410.107	241.83
410.315	327.85
410.524	213.16
410.733	270.5
410.941	264.36
411.15	344.23
411.358	303.27
411.567	409.76
411.775	286.89
411.984	360.61
412.192	440.48
412.401	417.96
412.609	463.01
412.818	323.75
413.026	403.62
413.234	405.67
413.443	420
413.651	409.76
413.86	469.16
414.068	450.72
414.276	536.74
414.485	514.21
414.693	604.32
414.901	569.51
415.11	643.23
415.318	555.17
415.526	649.38
415.734	606.37
415.943	622.75
416.151	655.52
416.359	698.53
416.567	688.29
416.776	745.63
416.984	725.15
417.192	823.45
417.4	860.32
417.608	852.13
417.817	811.17
418.025	946.33
418.233	952.48
418.441	991.39
418.649	1018.01
418.857	1015.96
419.065	1075.35
419.273	966.81
419.481	1114.27
419.689	1124.51
419.897	1171.61
420.105	1200.28
420.313	1265.82
420.521	1368.21
420.729	1345.69
420.937	1331.35
421.145	1437.84
421.353	1468.56
421.561	1570.96
421.769	1556.63
421.977	1665.17
422.185	1523.86
422.393	1671.31
422.601	1880.21
422.809	1869.97
423.017	1908.88
423.224	1872.01
423.432	1982.6
423.64	1970.32
423.848	2238.6
424.056	2162.83
424.263	2279.56
424.471	2246.79
424.679	2492.55
424.887	2531.46
425.094	2568.32
425.302	2533.51
425.51	2664.58
425.718	2736.26
425.925	2779.26
426.133	2920.57
426.341	2941.05
426.548	3248.25
426.756	3195
426.964	3252.35
427.171	3268.73
427.379	3582.07
427.586	3469.43
427.794	3582.07
428.001	3670.13
428.209	3934.32
428.417	3899.5
428.624	4040.81
428.832	4235.37
429.039	4096.11
429.247	4145.26
429.454	4477.03
429.662	4794.47
429.869	4573.28
430.076	4825.19
430.284	4651.11
430.491	4743.27
430.699	5210.2
430.906	5124.19
431.114	5124.19
431.321	5423.19
431.528	5525.59
431.736	5890.13
431.943	6230.09
432.15	6076.49
432.358	6090.83
432.565	6430.79
432.772	6389.83
432.979	6668.36
433.187	6830.15
433.394	6920.26
433.601	7239.74
433.808	7422.01
434.016	7389.24
434.223	7651.38
434.43	8144.94
434.637	7868.47
434.844	8587.3
435.052	8548.39
435.259	8445.99
435.466	8577.06
435.673	8652.84
435.88	9054.24
436.087	9349.15
436.294	9689.11
436.501	9244.7
436.708	9539.61
436.915	9775.13
437.122	10278.93
437.329	10201.1
437.537	10479.63
437.743	10780.68
437.95	10756.1
438.157	11096.07
438.364	11468.8
438.571	11517.95
438.778	11571.19
438.985	12488.68
439.192	12234.74
439.399	12691.43
439.606	12466.16
439.813	13115.36
440.02	13682.65
440.227	13344.74
440.433	13393.89
440.64	14073.81
440.847	13649.88
441.054	13811.67
441.261	15159.24
441.467	14813.13
441.674	15384.51
441.881	15593.4
442.088	15597.5
442.294	15732.67
442.501	15765.43
442.708	16363.44
442.914	16936.87
443.121	17723.29
443.328	16902.06
443.534	18378.64
443.741	17938.33
443.948	17594.27
444.154	18730.89
444.361	18853.77
444.568	18778
444.774	18829.2
444.981	19169.16
445.187	19580.8
445.394	20645.74
445.6	20316.02
445.807	22452.05
446.013	21096.3
446.22	21548.9
446.426	22507.35
446.633	22970.19
446.839	23533.38
447.046	22822.73
447.252	24170.3
447.459	23772.99
447.665	23828.29
447.871	25003.82
448.078	25878.3
448.284	24313.66
448.491	25239.34
448.697	26378.01
448.903	26763.03
449.11	27176.72
449.316	26722.07
449.522	27078.41
449.728	27803.39
449.935	27930.37
450.141	28153.6
450.347	28747.51
450.553	27991.81
450.76	28071.68
450.966	29146.86
451.172	28874.48
451.378	29630.18
451.584	29042.42
451.791	29929.19
451.997	29826.79
452.203	30138.08
452.409	30500.57
452.615	30326.49
452.821	29112.05
453.027	28550.9
453.233	30215.9
453.44	29427.43
453.646	29382.38
453.852	29628.13
454.058	30039.78
454.264	28995.31
454.47	29847.27
454.676	29140.72
454.882	29970.15
455.088	27678.47
455.294	28167.93
455.5	28352.25
455.705	28464.89
455.911	27418.38
456.117	27158.28
456.323	26414.87
456.529	25394.98
456.735	26720.02
456.941	26011.42
457.147	25390.89
457.352	24602.42
457.558	24422.2
457.764	24610.61
457.97	24045.37
458.176	23652.16
458.381	23813.95
458.587	22298.45
458.793	22445.91
458.999	21096.3
459.204	22990.67
459.41	22107.99
459.616	21028.71
459.821	20557.68
460.027	20688.75
460.233	20338.55
460.438	19378.05
460.644	19726.21
460.85	18696.08
461.055	18280.34
461.261	18468.75
461.466	16732.08
461.672	16586.67
461.878	17878.94
462.083	16418.74
462.289	16058.29
462.494	16078.77
462.7	15378.37
462.905	14899.14
463.111	15366.08
463.316	15458.24
463.522	15187.91
463.727	15333.31
463.932	15433.66
464.138	15056.84
464.343	15103.94
464.549	14616.52
464.754	15179.72
464.959	15097.8
465.165	14837.7
465.37	14172.11
465.575	13565.92
465.781	14628.81
465.986	14653.39
466.191	14264.27
466.397	13828.06
466.602	13041.64
466.807	13524.96
467.012	13518.81
467.218	13623.26
467.423	13264.86
467.628	13420.51
467.833	14032.85
468.038	13492.19
468.244	13297.63
468.449	13731.8
468.654	13328.35
468.859	13127.65
469.064	12943.33
469.269	12564.46
469.474	12627.95
469.679	12914.66
469.885	12468.2
470.09	12797.93
470.295	12666.86
470.5	12183.54
470.705	12308.46
470.91	11984.88
471.115	11948.02
471.32	12253.17
471.525	11896.82
471.73	11649.02
471.935	11761.66
472.139	11462.65
472.344	11493.37
472.549	11239.42
472.754	11456.51
472.959	11165.7
473.164	10797.06
473.369	10756.1
473.574	11266.05
473.778	10838.02
473.983	11024.39
474.188	10887.17
474.393	10297.36
474.598	10309.65
474.802	10323.98
475.007	10383.37
475.212	10334.22
475.417	10080.27
475.621	10051.6
475.826	9912.34
476.031	9830.42
476.235	9838.61
476.44	9758.74
476.645	9590.81
476.849	9447.45
477.054	9431.07
477.259	9203.74
477.463	9256.99
477.668	8974.37
477.872	9322.52
478.077	9087.01
478.282	8831.01
478.486	8824.87
478.691	8570.92
478.895	8757.29
479.1	8609.83
479.304	8691.75
479.509	8294.44
479.713	8542.25
479.918	8454.19
480.122	8171.57
480.326	8351.79
480.531	8222.77
480.735	8273.96
480.94	8103.98
481.144	8415.27
481.348	7938.1
481.553	7974.96
481.757	7888.95
481.961	8208.43
482.166	8134.7
482.37	7977.01
482.574	7706.68
482.778	7825.46
482.983	8013.87
483.187	8120.37
483.391	8013.87
483.595	7970.87
483.8	7786.55
484.004	8151.09
484.208	8106.03
484.412	7950.39
484.616	8067.12
484.821	7866.42
485.025	7704.63
485.229	7983.15
485.433	7907.38
485.637	7950.39
485.841	7905.33
486.045	7938.1
486.249	8013.87
486.453	7833.65
486.657	8024.11
486.861	7905.33
487.065	7827.51
487.269	7983.15
487.473	7723.06
487.677	7989.3
487.881	8138.8
488.085	7927.86
488.289	8022.06
488.493	7991.34
488.697	8040.5
488.901	8036.4
489.105	8073.26
489.309	8171.57
489.512	8157.23
489.716	8126.51
489.92	8118.32
490.124	8063.02
490.328	8278.06
490.531	8210.48
490.735	8132.65
490.939	8452.14
491.143	8110.13
491.346	8454.19
491.55	8300.59
491.754	8486.95
491.958	8427.56
492.161	8423.47
492.365	8458.28
492.569	8581.16
492.772	8431.66
492.976	8589.35
493.18	8720.42
493.383	8773.67
493.587	8806.44
493.79	8837.16
493.994	8779.81
494.197	8978.47
494.401	9121.82
494.605	8843.3
494.808	9410.59
495.012	9228.32
495.215	9209.89
495.419	9287.71
495.622	9166.88
495.825	9381.92
496.029	9388.06
496.232	9768.98
496.436	9517.08
496.639	10033.17
496.843	9928.72
497.046	10201.1
497.249	10321.93
497.453	10199.06
497.656	10354.7
497.859	10264.59
498.063	10385.42
498.266	10909.7
498.469	10792.97
498.673	10885.12
498.876	10971.14
499.079	11161.6
499.282	10985.48
499.485	11290.62
499.689	11356.16
499.892	11739.13
500.095	11610.11
500.298	12042.23
500.501	11681.78
500.705	12040.18
500.908	12312.56
501.111	12271.6
501.314	12562.41
501.517	12568.55
501.72	12849.13
501.923	12752.87
502.126	13178.85
502.329	13565.92
502.532	13584.35
502.735	13549.53
502.938	13811.67
503.141	14002.13
503.344	13856.73
503.547	14362.58
503.75	14462.93
503.953	14972.87
504.156	14694.35
504.359	14895.05
504.562	14895.05
504.765	15491.01
504.968	15482.81
505.17	15648.7
505.373	15736.76
505.576	16021.43
505.779	16293.81
505.982	16385.97
506.185	16648.11
506.387	16844.71
506.59	16752.56
506.793	17051.56
506.996	17223.59
507.198	17563.55
507.401	17461.15
507.604	17790.88
507.807	18096.02
508.009	18448.27
508.212	18530.19
508.415	18898.83
508.617	18816.91
508.82	19144.58
509.022	19044.23
509.225	19472.26
509.428	19597.18
509.63	19832.7
509.833	19982.2
510.035	20547.44
510.238	20143.99
510.44	20868.97
510.643	21446.5
510.845	21282.66
511.048	21139.3
511.25	21600.1
511.453	21428.07
511.655	22351.7
511.858	22314.84
512.06	22249.3
512.262	22511.44
512.465	23019.34
512.667	23052.11
512.87	23422.79
513.072	23293.77
513.274	23783.23
513.477	23873.34
513.679	24219.45
513.881	24596.28
514.084	24616.76
514.286	25093.93
514.488	25038.64
514.69	25687.84
514.893	25698.08
515.095	25933.6
515.297	26203.93
515.499	26281.75
515.701	26730.26
515.904	26859.28
516.106	26961.68
516.308	27287.31
516.51	27846.4
516.712	27574.02
516.914	28215.04
517.116	28368.63
517.318	28458.74
517.52	29142.77
517.722	28821.23
517.925	29177.58
518.127	29984.48
518.329	29826.79
518.531	29654.76
518.733	30514.91
518.935	30674.65
519.136	30731.99
519.338	31311.56
519.54	31033.04
519.742	31708.87
519.944	31760.07
520.146	32700.09
520.348	32427.71
520.55	32714.42
520.752	33074.87
520.954	33285.81
521.155	33255.09
521.357	33660.59
521.559	33672.87
521.761	34369.18
521.963	33996.45
522.164	34688.67
522.366	34442.91
522.568	34866.84
522.77	35282.58
522.971	35595.92
523.173	35116.69
523.375	35718.79
523.576	35733.13
523.778	36265.6
523.98	36382.34
524.181	36548.22
524.383	36521.6
524.584	37222
524.786	37150.32
524.988	37060.21
525.189	37504.62
525.391	37234.29
525.592	37486.19
525.794	37844.59
525.995	38057.57
526.197	38223.46
526.398	38291.04
526.6	38501.98
526.801	38346.34
527.003	38796.89
527.204	38534.75
527.406	39071.32
527.607	39286.36
527.808	39300.69
528.01	39009.88
528.211	39229.01
528.412	39767.63
528.614	39620.17
528.815	40111.69
529.016	39939.66
529.218	39663.18
529.419	39966.28
529.62	40345.16
529.822	40322.63
530.023	40025.67
530.224	40019.53
530.425	40449.6
530.626	40209.99
530.828	40164.93
531.029	40932.92
531.23	40375.87
531.431	40398.4
531.632	40764.99
531.833	40826.43
532.035	40646.21
532.236	41240.12
532.437	41084.47
532.638	40541.76
532.839	40937.02
533.04	41168.44
533.241	40969.79
533.442	41377.33
533.643	41090.62
533.844	41047.61
534.045	40965.69
534.246	40875.58
534.447	41643.57
534.648	40973.88
534.849	41242.17
535.05	40621.63
535.251	41539.12
535.451	41199.16
535.652	41430.58
535.853	40930.87
536.054	41369.14
536.255	41293.36
536.456	40900.15
536.657	41920.04
536.857	41014.84
537.058	40619.58
537.259	41375.28
537.46	41147.96
537.66	41180.73
537.861	41301.56
538.062	41342.52
538.263	41045.56
538.463	41174.58
538.664	41412.15
538.865	41215.54
539.065	41547.31
539.266	40881.72
539.466	41385.52
539.667	40971.83
539.868	41371.19
540.068	41113.14
540.269	41616.94
540.469	41268.79
540.67	40875.58
540.87	41387.57
541.071	40920.63
541.271	41338.42
541.472	40881.72
541.672	40777.28
541.873	41168.44
542.073	40482.37
542.274	41559.6
542.474	40828.48
542.675	40734.27
542.875	41190.97
543.075	41061.94
543.276	40439.36
543.476	41242.17
543.676	40801.85
543.877	40906.3
544.077	41014.84
544.277	41111.1
544.478	40900.15
544.678	41123.38
544.878	40793.66
545.078	40773.18
545.279	40521.28
545.479	41010.74
545.679	41293.36
545.879	40867.39
546.079	40918.59
546.28	41020.98
546.48	40504.9
546.68	41053.75
546.88	40908.35
547.08	40992.31
547.28	40719.93
547.48	40560.19
547.68	40977.98
547.88	40400.45
548.081	41229.88
548.281	41186.87
548.481	40881.72
548.681	41264.69
548.881	40973.88
549.081	40867.39
549.28	40664.64
549.48	40975.93
549.68	40453.7
549.88	40947.26
550.08	40744.51
550.28	40617.53
550.48	40676.93
550.68	41000.51
550.88	40437.31
551.08	40607.3
551.279	40724.03
551.479	40810.04
551.679	40461.89
551.879	40676.93
552.079	40674.88
552.278	40400.45
552.478	40494.66
552.678	40703.55
552.878	40969.79
553.077	40312.39
553.277	40287.81
553.477	41102.9
553.676	40240.71
553.876	40339.01
554.076	40328.77
554.275	39698
554.475	39794.25
554.674	40449.6
554.874	40255.04
555.074	39900.75
555.273	40445.51
555.473	40468.03
555.672	40048.2
555.872	40371.78
556.071	40253
556.271	40007.24
556.47	39628.37
556.67	39663.18
556.869	40070.73
557.068	39392.85
557.268	39794.25
557.467	40169.03
557.667	39775.82
557.866	39741
558.065	39722.57
558.265	39849.55
558.464	39394.9
558.663	39837.26
558.863	39212.63
559.062	39824.97
559.261	39169.62
559.461	39605.84
559.66	38803.03
559.859	39224.92
560.058	38776.41
560.258	39120.47
560.457	39153.24
560.656	39415.38
560.855	38911.58
561.054	39089.75
561.253	38651.48
561.453	39030.36
561.652	39087.7
561.851	38798.94
562.05	38463.07
562.249	38456.93
562.448	39005.78
562.647	38807.13
562.846	38694.49
563.045	38952.54
563.244	38325.86
563.443	38895.19
563.642	38071.91
563.841	38477.41
564.04	38110.82
564.239	38682.2
564.438	37920.36
564.637	38475.36
564.836	37946.98
565.035	37543.53
565.234	37938.79
565.432	37934.7
565.631	37723.76
565.83	37989.99
566.029	37553.77
566.228	37404.27
566.427	37856.87
566.625	37420.66
566.824	37058.17
567.023	37525.1
567.222	36900.47
567.42	37564.01
567.619	37144.18
567.818	37009.01
568.016	36724.35
568.215	37379.7
568.414	36925.05
568.612	37025.4
568.811	36914.81
569.01	37262.96
569.208	36451.97
569.407	36562.56
569.605	36085.38
569.804	36914.81
570.002	35935.88
570.201	36609.66
570.4	35864.2
570.598	35880.58
570.797	35612.3
570.995	36030.08
571.193	35886.73
571.392	35767.94
571.59	35507.85
571.789	35819.14
571.987	35505.8
572.186	35327.63
572.384	35092.12
572.582	35112.59
572.781	35505.8
572.979	34809.5
573.177	34786.97
573.376	35311.25
573.574	34961.05
573.772	34995.86
573.971	34836.12
574.169	34670.23
574.367	34260.64
574.565	34655.9
574.763	34119.33
574.962	34649.75
575.16	33904.29
575.358	34191.01
575.556	33765.03
575.754	34104.99
575.952	33756.84
576.151	33822.37
576.349	33492.65
576.547	33400.49
576.745	33805.99
576.943	33496.75
577.141	33668.78
577.339	33324.72
577.537	33226.42
577.735	33459.88
577.933	33095.35
578.131	32886.45
578.329	32972.47
578.527	33044.15
578.725	32706.23
578.923	33033.91
579.121	32689.85
579.319	32534.2
579.516	32659.13
579.714	32601.79
579.912	32251.58
580.11	31956.68
580.308	32487.1
580.506	31960.77
580.704	31633.1
580.901	32243.39
581.099	32118.46
581.297	31465.16
581.495	31506.12
581.692	31823.56
581.89	31649.48
582.088	31774.41
582.285	31297.23
582.483	31522.51
582.681	31381.2
582.878	31200.97
583.076	30901.97
583.274	31442.63
583.471	30641.88
583.669	31043.28
583.866	30600.92
584.064	30734.04
584.262	30719.7
584.459	30645.98
584.657	30056.16
584.854	30330.59
585.052	29927.14
585.249	30510.81
585.447	30486.23
585.644	29888.23
585.841	30037.73
586.039	29892.32
586.236	29898.47
586.434	29382.38
586.631	29970.15
586.828	29642.47
587.026	29271.79
587.223	29529.83
587.42	29204.21
587.618	29232.88
587.815	29046.51
588.012	28874.48
588.21	28937.97
588.407	29527.78
588.604	28950.26
588.801	28946.16
588.999	28585.72
589.196	28411.64
589.393	28911.35
589.59	28552.95
589.787	28303.1
589.984	28155.65
590.182	28122.88
590.379	28055.29
590.576	28190.46
590.773	28157.69
590.97	27805.44
591.167	27969.28
591.364	27563.78
591.561	27715.33
591.758	27705.09
591.955	27598.6
592.152	27574.02
592.349	27232.01
592.546	27356.94
592.743	27549.45
592.94	27137.8
593.137	26998.54
593.334	27234.06
593.531	26386.2
593.727	27250.44
593.924	26695.44
594.121	26457.88
594.318	26709.78
594.515	26355.48
594.712	26846.99
594.908	26330.9
595.105	26261.27
595.302	26167.07
595.499	26300.19
595.696	26208.03
595.892	25796.39
596.089	26339.1
596.286	26056.48
596.482	25964.32
596.679	25702.18
596.876	25812.77
597.072	25532.2
597.269	25235.24
597.466	25304.87
597.662	25286.44
597.859	25671.46
598.055	25196.33
598.252	25065.26
598.448	25050.92
598.645	25028.4
598.841	24626.99
599.038	24899.37
599.234	24962.86
599.431	24647.47
599.627	24657.71
599.824	24581.94
600.02	24389.43
600.217	24608.56
600.413	24227.64
600.609	24188.73
600.806	24063.8
601.002	24188.73
601.198	24018.75
601.395	23951.17
601.591	23871.29
601.787	23678.79
601.984	23535.43
602.18	23879.49
602.376	23443.27
602.572	23686.98
602.769	23193.42
602.965	23367.49
603.161	23693.12
603.357	23101.26
603.553	23299.91
603.75	23207.75
603.946	22966.09
604.142	22972.24
604.338	22529.87
604.534	23107.4
604.73	22632.27
604.926	22527.83
605.122	22775.63
605.318	22388.57
605.514	22724.43
605.71	22327.13
605.906	22384.47
606.102	22191.96
606.298	22523.73
606.494	22128.47
606.69	22144.86
606.886	22314.84
607.082	21596
607.278	22001.5
607.474	21688.16
607.67	21987.16
607.866	21430.12
608.062	21987.16
608.257	21428.07
608.453	21483.36
608.649	21430.12
608.845	21292.9
609.041	21323.62
609.236	21667.68
609.432	21098.34
609.628	21286.76
609.824	21098.34
610.019	21010.28
610.215	21147.5
610.411	21428.07
610.606	21071.72
610.802	20768.62
610.998	20930.41
611.193	20868.97
611.389	20764.53
611.584	20772.72
611.78	20721.52
611.976	20641.65
612.171	20678.51
612.367	20862.83
612.562	20627.31
612.758	20387.7
612.953	20193.14
613.149	20664.18
613.344	20463.47
613.539	20615.02
613.735	20373.36
613.93	20131.7
614.126	20148.09
614.321	20346.74
614.517	20375.41
614.712	20285.3
614.907	20103.03
615.103	20254.58
615.298	19855.23
615.493	20201.33
615.688	19896.19
615.884	20041.59
616.079	19591.04
616.274	19900.28
616.47	19791.74
616.665	19722.11
616.86	19758.97
617.055	19877.76
617.25	19572.61
617.445	19576.7
617.641	19406.72
617.836	19208.07
618.031	19156.87
618.226	19324.8
618.421	18911.11
618.616	19259.27
618.811	18857.87
619.006	19167.11
619.201	18663.31
619.396	18855.82
619.591	18399.12
619.786	18546.58
619.981	18585.49
620.176	18562.96
620.371	18593.68
620.566	18435.99
620.761	18489.23
620.956	18454.42
621.151	17825.69
621.346	18255.76
621.541	17717.15
621.735	18087.83
621.93	17942.42
622.125	17708.96
622.32	17409.95
622.515	17330.08
622.709	17375.14
622.904	17303.46
623.099	17223.59
623.294	17297.31
623.488	16967.59
623.683	17133.48
623.878	16631.72
624.072	16797.61
624.267	16672.68
624.462	16555.95
624.656	16545.71
624.851	16484.27
625.046	16424.88
625.24	16234.42
625.435	15974.33
625.629	16254.9
625.824	16101.3
626.018	16023.48
626.213	15613.88
626.407	16000.95
626.602	15671.23
626.796	15585.21
626.991	15546.3
627.185	15192
627.38	15417.28
627.574	15015.88
627.768	15028.17
627.963	15093.7
628.157	14917.58
628.352	14880.71
628.546	14538.7
628.74	14866.38
628.935	14626.76
629.129	14864.33
629.323	14286.8
629.517	14389.2
629.712	14534.6
629.906	14329.81
630.1	14127.06
630.294	14096.34
630.489	13905.88
630.683	13772.76
630.877	13846.49
631.071	13819.86
631.265	13787.1
631.459	13502.43
631.653	13942.74
631.848	13539.29
632.042	13551.58
632.236	13737.95
632.43	13105.12
632.624	13410.27
632.818	13336.54
633.012	13092.83
633.206	12869.61
633.4	12961.76
633.594	12799.98
633.788	12959.72
633.982	12572.65
634.176	12853.22
634.369	12836.84
634.563	12517.36
634.757	12568.55
634.951	12679.15
635.145	12466.16
635.339	12382.19
635.533	12283.89
635.726	12242.93
635.92	12017.65
636.114	11841.53
636.308	12124.15
636.501	11917.3
636.695	12077.04
636.889	11808.76
637.083	11970.55
637.276	11763.7
637.47	11608.06
637.664	11552.76
637.857	11413.5
638.051	11560.95
638.244	11448.32
638.438	11370.49
638.632	11227.14
638.825	11126.78
639.019	11175.94
639.212	11089.92
639.406	11008
639.599	11157.5
639.793	10868.74
639.986	10715.14
640.18	10813.45
640.373	10627.08
640.567	10618.89
640.76	10584.07
640.954	10717.19
641.147	10512.39
641.34	10330.13
641.534	10516.49
641.727	10428.43
641.92	10223.63
642.114	10264.59
642.307	10031.12
642.5	10129.42
642.694	9775.13
642.887	9994.26
643.08	10012.69
643.273	9744.41
643.467	9986.07
643.66	9551.9
643.853	9512.99
644.046	9715.73
644.239	9652.25
644.432	9596.95
644.626	9553.94
644.819	9611.29
645.012	9437.21
645.205	9474.07
645.398	9357.34
645.591	9205.79
645.784	9226.27
645.977	9156.64
646.17	9177.12
646.363	9080.86
646.556	8925.22
646.749	8884.26
646.942	8814.63
647.135	8841.25
647.328	8855.59
647.521	8888.36
647.714	8532.01
647.907	8661.03
648.099	8732.71
648.292	8652.84
648.485	8568.87
648.678	8441.9
648.871	8257.58
649.064	8257.58
649.256	8327.21
649.449	8206.38
649.642	8216.62
649.835	8052.78
650.027	8110.13
650.22	7989.3
650.413	8015.92
650.605	8020.02
650.798	8011.82
650.991	7739.44
651.183	7854.13
651.376	7778.36
651.568	7825.46
651.761	7897.14
651.954	7659.57
652.146	7651.38
652.339	7536.7
652.531	7557.18
652.724	7596.09
652.916	7325.75
653.109	7405.63
653.301	7227.45
653.494	7430.2
653.686	7282.75
653.879	7346.23
654.071	7186.49
654.263	7114.81
654.456	7096.38
654.648	7092.29
654.84	7176.25
655.033	7116.86
655.225	7012.42
655.417	6891.59
655.61	6858.82
655.802	6875.2
655.994	6781
656.186	6781
656.379	6694.98
656.571	6713.41
656.763	6627.4
656.955	6688.84
657.148	6539.33
657.34	6508.62
657.532	6445.13
657.724	6469.7
657.916	6326.35
658.108	6398.03
658.3	6334.54
658.492	6471.75
658.684	6291.53
658.876	6213.71
659.068	6039.63
659.26	6025.29
659.452	6066.25
659.644	6135.89
659.836	6099.02
660.028	6041.68
660.22	5879.89
660.412	5890.13
660.604	5714
660.796	5703.76
660.988	5754.96
661.18	5791.83
661.372	5746.77
661.563	5671
661.755	5513.3
661.947	5632.08
662.139	5646.42
662.331	5656.66
662.522	5492.82
662.714	5652.56
662.906	5316.7
663.097	5460.06
663.289	5378.14
663.481	5234.78
663.673	5460.06
663.864	5165.15
664.056	5267.55
664.247	5214.3
664.439	5232.73
664.631	5185.63
664.822	5197.92
665.014	5056.61
665.205	5048.41
665.397	4943.97
665.588	5021.79
665.78	4993.12
665.971	4966.49
666.163	5040.22
666.354	4933.73
666.546	4948.06
666.737	4855.9
666.929	4632.68
667.12	4735.07
667.311	4778.08
667.503	4696.16
667.694	4720.74
667.885	4730.98
668.077	4671.59
668.268	4595.81
668.459	4597.86
668.651	4440.17
668.842	4597.86
669.033	4606.05
669.224	4497.51
669.416	4481.13
669.607	4466.79
669.798	4407.4
669.989	4515.94
670.18	4341.86
670.371	4444.26
670.563	4526.18
670.754	4421.74
670.945	4302.95
671.136	4276.33
671.327	4159.6
671.518	4057.2
671.709	4169.84
671.9	4354.15
672.091	4296.81
672.282	4210.79
672.473	4071.53
672.664	4259.95
672.855	4030.57
673.046	4161.64
673.237	4151.4
673.428	4104.3
673.619	4100.2
673.809	3903.6
674	4020.33
674.191	3995.76
674.382	3985.52
674.573	3874.93
674.764	3860.59
674.954	3860.59
675.145	3883.12
675.336	3893.36
675.527	3891.31
675.717	3815.54
675.908	3778.67
676.099	3891.31
676.289	3850.35
676.48	3756.15
676.671	3844.21
676.861	3731.57
677.052	3747.95
677.243	3629.17
677.433	3620.98
677.624	3717.23
677.814	3637.36
678.005	3629.17
678.195	3696.75
678.386	3475.57
678.576	3565.68
678.767	3596.4
678.957	3592.31
679.148	3645.56
679.338	3645.56
679.529	3721.33
679.719	3477.62
679.909	3731.57
680.1	3616.88
680.29	3530.87
680.481	3555.44
680.671	3543.16
680.861	3522.68
681.052	3545.2
681.242	3485.81
681.432	3592.31
681.622	3448.95
681.813	3524.72
682.003	3420.28
682.193	3309.69
682.383	3416.18
682.573	3416.18
682.764	3420.28
682.954	3469.43
683.144	3326.07
683.334	3549.3
683.524	3315.83
683.714	3350.65
683.904	3383.42
684.094	3401.85
684.284	3287.16
684.474	3410.04
684.664	3287.16
684.854	3377.27
685.044	3424.37
685.234	3328.12
685.424	3344.5
685.614	3240.06
685.804	3264.63
685.994	3311.74
686.184	3227.77
686.374	3231.87
686.564	3235.96
686.753	3330.17
686.943	3301.5
687.133	3278.97
687.323	3162.23
687.513	3229.82
687.702	3317.88
687.892	3180.67
688.082	3102.84
688.272	3203.19
688.461	3213.43
688.651	3262.58
688.841	3055.74
689.03	3195
689.22	3133.56
689.41	3029.12
689.599	3051.64
689.789	3033.21
689.979	3055.74
690.168	3088.51
690.358	3117.18
690.547	2992.25
690.737	3059.84
690.926	2994.3
691.116	3033.21
691.305	2975.87
691.495	3016.83
691.684	2842.75
691.874	2924.67
692.063	2885.76
692.252	2996.35
692.442	2941.05
692.631	2934.91
692.82	3027.07
693.01	2885.76
693.199	2951.29
693.388	2754.69
693.578	2721.92
693.767	2861.18
693.956	2773.12
694.146	2812.03
694.335	2814.08
694.524	2809.98
694.713	2867.33
694.902	2674.82
695.092	2805.89
695.281	2769.02
695.47	2758.78
695.659	2820.22
695.848	2736.26
696.037	2680.96
696.226	2719.87
696.415	2572.42
696.604	2787.46
696.793	2740.35
696.982	2617.47
697.171	2746.5
697.36	2685.06
697.549	2707.59
697.738	2637.95
697.927	2637.95
698.116	2633.86
698.305	2635.91
698.494	2576.52
698.683	2668.67
698.872	2586.76
699.061	2535.56
699.25	2654.34
699.438	2572.42
699.627	2656.39
699.816	2609.28
700.005	2484.36
700.193	2529.41
700.382	2535.56
700.571	2506.88
700.76	2597
700.948	2588.8
701.137	2531.46
701.326	2646.15
701.514	2560.13
701.703	2525.32
701.892	2541.7
702.08	2515.08
702.269	2590.85
702.457	2519.17
702.646	2472.07
702.834	2502.79
703.023	2398.34
703.212	2451.59
703.4	2402.44
703.589	2498.69
703.777	2494.6
703.965	2478.21
704.154	2424.97
704.342	2347.14
704.531	2539.65
704.719	2412.68
704.907	2482.31
705.096	2314.38
705.284	2377.86
705.472	2443.4
705.661	2326.66
705.849	2330.76
706.037	2390.15
706.226	2435.21
706.414	2392.2
706.602	2420.87
706.79	2420.87
706.979	2429.06
707.167	2314.38
707.355	2345.09
707.543	2437.25
707.731	2427.01
707.919	2371.72
708.107	2328.71
708.296	2388.1
708.484	2322.57
708.672	2508.93
708.86	2349.19
709.048	2220.17
709.236	2416.77
709.424	2375.81
709.612	2287.75
709.8	2240.65
709.988	2332.81
710.176	2359.43
710.364	2386.05
710.551	2314.38
710.739	2289.8
710.927	2257.03
711.115	2310.28
711.303	2318.47
711.491	2302.09
711.679	2222.22
711.866	2244.74
712.054	2343.05
712.242	2271.37
712.43	2273.42
712.617	2156.68
712.805	2236.55
712.993	2281.61
713.181	2265.22
713.368	2285.7
713.556	2222.22
713.744	2181.26
713.931	2279.56
714.119	2238.6
714.306	2183.31
714.494	2248.84
714.682	2150.54
714.869	2113.67
715.057	2254.98
715.244	2130.06
715.432	2175.11
715.619	2109.58
715.807	2185.35
715.994	2138.25
716.182	2224.26
716.369	2109.58
716.556	2187.4
716.744	2222.22
716.931	2136.2
717.119	2097.29
717.306	2148.49
717.493	2322.57
717.681	2062.48
717.868	2164.87
718.055	2254.98
718.242	2214.02
718.43	2189.45
718.617	2154.63
718.804	2160.78
718.991	2044.04
719.179	2205.83
719.366	2146.44
719.553	2085
719.74	2099.34
719.927	2146.44
720.114	2005.13
720.301	2191.5
720.488	2080.91
720.676	2076.81
720.863	2105.48
721.05	2064.52
721.237	2117.77
721.424	2085
721.611	2121.87
721.798	2056.33
721.985	2015.37
722.172	2015.37
722.358	2042
722.545	2037.9
722.732	2056.33
722.919	2007.18
723.106	2066.57
723.293	1941.65
723.48	1986.7
723.667	2025.61
723.853	2128.01
724.04	2021.52
724.227	1976.46
724.414	2048.14
724.6	1958.03
724.787	2060.43
724.974	2068.62
725.161	1949.84
725.347	2076.81
725.534	2048.14
725.72	2007.18
725.907	2035.85
726.094	1902.73
726.28	2023.56
726.467	2025.61
726.653	1970.32
726.84	2074.76
727.027	2039.95
727.213	1927.31
727.4	2076.81
727.586	1941.65
727.773	1941.65
727.959	2015.37
728.145	1867.92
728.332	1927.31
728.518	1976.46
728.705	2068.62
728.891	1951.88
729.077	1982.6
729.264	1917.07
729.45	1998.99
729.636	2050.19
729.823	1876.11
730.009	2019.47
730.195	2001.04
730.382	1915.02
730.568	1908.88
730.754	1900.69
730.94	1933.45
731.126	1798.29
731.313	1927.31
731.499	1806.48
731.685	2023.56
731.871	1912.97
732.057	1917.07
732.243	1841.29
732.429	1998.99
732.615	1998.99
732.801	1876.11
732.987	1820.81
733.173	1937.55
733.359	2001.04
733.545	1835.15
733.731	1845.39
733.917	1925.26
734.103	1908.88
734.289	1958.03
734.475	1894.54
734.661	1933.45
734.847	1869.97
735.033	1925.26
735.219	1917.07
735.404	1937.55
735.59	1859.73
735.776	1839.25
735.962	1915.02
736.148	1917.07
736.333	1876.11
736.519	1884.3
736.705	1867.92
736.89	1855.63
737.076	1966.22
737.262	1798.29
737.447	1820.81
737.633	1814.67
737.819	1837.2
738.004	1902.73
738.19	1872.01
738.375	1810.58
738.561	1910.93
738.747	1812.62
738.932	1802.38
739.118	1837.2
739.303	1771.66
739.489	1818.77
739.674	1880.21
739.859	1777.81
740.045	1777.81
740.23	1740.94
740.416	1677.46
740.601	1759.38
740.786	1786
740.972	1697.94
741.157	1642.64
741.342	1638.55
741.528	1695.89
741.713	1773.71
741.898	1720.46
742.084	1779.86
742.269	1699.98
742.454	1706.13
742.639	1695.89
742.824	1630.35
743.01	1740.94
743.195	1638.55
743.38	1624.21
743.565	1724.56
743.75	1656.98
743.935	1679.51
744.12	1726.61
744.305	1659.03
744.49	1638.55
744.675	1564.82
744.86	1564.82
745.045	1628.31
745.23	1558.67
745.415	1597.59
745.6	1638.55
745.785	1654.93
745.97	1552.53
746.155	1484.95
746.34	1573.01
746.525	1548.44
746.71	1515.67
746.895	1519.76
747.079	1548.44
747.264	1495.19
747.449	1560.72
747.634	1480.85
747.819	1536.15
748.003	1464.47
748.188	1411.22
748.373	1425.56
748.557	1515.67
748.742	1564.82
748.927	1366.17
749.111	1384.6
749.296	1386.65
749.481	1378.45
749.665	1441.94
749.85	1302.68
750.034	1370.26
750.219	1437.84
750.404	1304.73
750.588	1378.45
750.773	1327.25
750.957	1343.64
751.141	1261.72
751.326	1335.45
751.51	1298.58
751.695	1421.46
751.879	1321.11
752.064	1255.58
752.248	1355.93
752.432	1337.49
752.617	1274.01
752.801	1224.86
752.985	1237.14
753.17	1183.9
753.354	1212.57
753.538	1360.02
753.722	1271.96
753.907	1198.23
754.091	1167.51
754.275	1216.66
754.459	1198.23
754.643	1091.74
754.828	1179.8
755.012	1140.89
755.196	1073.31
755.38	1138.84
755.564	1138.84
755.748	1073.31
755.932	1179.8
756.116	1128.6
756.3	1089.69
756.484	1120.41
756.668	1095.83
756.852	1032.35
757.036	1106.07
757.22	1034.39
757.404	1050.78
757.588	1001.63
757.772	1126.55
757.956	1122.46
758.14	1052.83
758.323	1061.02
758.507	1032.35
758.691	1073.31
758.875	1032.35
759.059	1046.68
759.242	966.81
759.426	1007.77
759.61	983.2
759.794	1028.25
759.977	1058.97
760.161	991.39
760.345	999.58
760.528	1018.01
760.712	1011.87
760.895	905.37
761.079	956.57
761.263	966.81
761.446	921.76
761.63	995.48
761.813	942.24
761.997	895.13
762.18	884.89
762.364	927.9
762.547	977.05
762.731	882.85
762.914	870.56
763.098	843.93
763.281	817.31
763.464	888.99
763.648	927.9
763.831	950.43
764.015	786.59
764.198	942.24
764.381	835.74
764.564	929.95
764.748	786.59
764.931	774.3
765.114	813.21
765.297	944.28
765.481	811.17
765.664	819.36
765.847	843.93
766.03	848.03
766.213	676
766.397	823.45
766.58	827.55
766.763	782.49
766.946	811.17
767.129	841.89
767.312	805.02
767.495	882.85
767.678	710.82
767.861	778.4
768.044	702.62
768.227	821.41
768.41	725.15
768.593	743.58
768.776	778.4
768.959	835.74
769.142	860.32
769.324	794.78
769.507	782.49
769.69	802.97
769.873	739.49
770.056	778.4
770.239	686.24
770.421	755.87
770.604	700.58
770.787	729.25
770.97	743.58
771.152	755.87
771.335	731.3
771.518	721.06
771.7	735.39
771.883	704.67
772.066	671.9
772.248	704.67
772.431	678.05
772.613	706.72
772.796	739.49
772.978	723.1
773.161	696.48
773.343	721.06
773.526	643.23
773.708	626.85
773.891	606.37
774.073	676
774.256	589.99
774.438	739.49
774.621	622.75
774.803	688.29
774.985	583.84
775.168	721.06
775.35	626.85
775.532	630.95
775.715	575.65
775.897	669.86
776.079	573.6
776.261	589.99
776.444	573.6
776.626	573.6
776.808	501.92
776.99	635.04
777.173	632.99
777.355	630.95
777.537	598.18
777.719	508.07
777.901	508.07
778.083	544.93
778.265	526.5
778.447	632.99
778.629	549.03
778.811	620.71
778.993	540.83
779.175	559.27
779.357	491.68
779.539	477.35
779.721	479.4
779.903	581.79
780.085	540.83
780.267	649.38
780.449	483.49
780.631	473.25
780.812	565.41
780.994	491.68
781.176	516.26
781.358	467.11
781.54	493.73
781.721	551.07
781.903	540.83
782.085	450.72
782.267	557.22
782.448	383.14
782.63	444.58
782.812	454.82
782.993	444.58
783.175	528.55
783.357	495.78
783.538	434.34
783.72	477.35
783.901	434.34
784.083	499.88
784.264	508.07
784.446	454.82
784.627	405.67
784.809	424.1
784.99	387.24
785.172	352.42
785.353	469.16
785.535	450.72
785.716	307.37
785.897	389.28
786.079	315.56
786.26	460.96
786.441	450.72
786.623	372.9
786.804	325.8
786.985	368.81
787.167	442.53
787.348	422.05
787.529	319.65
787.71	389.28
787.891	401.57
788.073	346.28
788.254	290.98
788.435	370.85
788.616	372.9
788.797	301.22
788.978	356.52
789.159	286.89
789.34	338.09
789.522	368.81
789.703	368.81
789.884	379.04
790.065	344.23
790.246	344.23
790.427	313.51
790.607	250.02
790.788	364.71
790.969	266.41
791.15	368.81
791.331	385.19
791.512	262.31
791.693	245.93
791.874	221.35
792.054	407.72
792.235	321.7
792.416	315.56
792.597	329.89
792.778	348.33
792.958	364.71
793.139	352.42
793.32	272.55
793.5	254.12
793.681	319.65
793.862	245.93
794.042	354.47
794.223	211.11
794.404	352.42
794.584	278.69
794.765	278.69
794.945	221.35
795.126	268.45
795.306	352.42
795.487	237.74
795.667	245.93
795.848	303.27
796.028	209.06
796.209	200.87
796.389	198.82
796.57	288.93
796.75	219.3
796.93	237.74
797.111	229.54
797.291	233.64
797.471	190.63
797.652	190.63
797.832	225.45
798.012	217.26
798.192	188.58
798.373	204.97
798.553	196.78
798.733	258.21
798.913	196.78
799.093	190.63
799.274	180.39
799.454	239.78
799.634	207.02
799.814	157.86
799.994	180.39
800.174	247.97
800.354	202.92
800.534	172.2
800.714	241.83
800.894	250.02
801.074	157.86
801.254	172.2
801.434	229.54
801.614	196.78
801.794	225.45
801.974	770.21
802.154	219.3
802.334	245.93
802.514	229.54
802.693	237.74
802.873	192.68
803.053	192.68
803.233	184.49
803.413	118.95
803.592	233.64
803.772	198.82
803.952	225.45
804.131	104.62
804.311	207.02
804.491	262.31
804.67	141.48
804.85	245.93
805.03	159.91
805.209	202.92
805.389	174.25
805.568	188.58
805.748	225.45
805.928	139.43
806.107	198.82
806.287	157.86
806.466	207.02
806.646	180.39
806.825	157.86
807.004	135.34
807.184	188.58
807.363	116.9
807.543	164.01
807.722	121
807.901	172.2
808.081	164.01
808.26	125.1
808.439	155.82
808.619	233.64
808.798	155.82
808.977	192.68
809.156	239.78
809.336	196.78
809.515	149.67
809.694	110.76
809.873	123.05
810.052	131.24
810.231	159.91
810.411	153.77
810.59	164.01
810.769	139.43
810.948	129.19
811.127	114.86
811.306	116.9
811.485	174.25
811.664	207.02
811.843	129.19
812.022	147.62
812.201	118.95
812.38	215.21
812.559	164.01
812.737	147.62
812.916	168.1
813.095	172.2
813.274	57.51
813.453	92.33
813.632	164.01
813.811	141.48
813.989	106.67
814.168	192.68
814.347	67.75
814.526	108.71
814.704	188.58
814.883	127.14
815.062	71.85
815.24	151.72
815.419	51.37
815.598	94.38
815.776	86.19
815.955	157.86
816.133	69.8
816.312	121
816.49	116.9
816.669	94.38
816.847	155.82
817.026	131.24
817.204	106.67
817.383	121
817.561	202.92
817.74	155.82
817.918	37.03
818.097	86.19
818.275	84.14
818.453	145.58
818.632	125.1
818.81	75.95
818.988	32.94
819.167	55.47
819.345	123.05
819.523	30.89
819.701	139.43
819.879	139.43
820.058	139.43
820.236	123.05
820.414	88.23
820.592	100.52
820.77	75.95
820.948	116.9
821.127	127.14
821.305	125.1
821.483	90.28
821.661	127.14
821.839	82.09
822.017	59.56
822.195	67.75
822.373	151.72
822.551	131.24
822.729	84.14
822.907	37.03
823.085	73.9
823.262	82.09
823.44	-20.31
823.618	114.86
823.796	57.51
823.974	92.33
824.152	67.75
824.329	34.99
824.507	24.75
824.685	-14.17
824.863	80.04
825.04	-18.26
825.218	41.13
825.396	131.24
825.574	61.61
825.751	86.19
825.929	92.33
826.107	94.38
826.284	82.09
826.462	28.84
826.639	28.84
826.817	65.71
826.994	139.43
827.172	71.85
827.349	139.43
827.527	49.32
827.704	106.67
827.882	82.09
828.059	98.47
828.237	75.95
828.414	12.46
828.591	57.51
828.769	102.57
828.946	43.18
829.124	135.34
829.301	123.05
829.478	47.27
829.655	41.13
829.833	57.51
830.01	65.71
830.187	59.56
830.364	71.85
830.542	20.65
830.719	75.95
830.896	41.13
831.073	69.8
831.25	86.19
831.427	18.6
831.604	8.36
831.782	69.8
831.959	24.75
832.136	82.09
832.313	57.51
832.49	65.71
832.667	98.47
832.844	41.13
833.021	77.99
833.198	75.95
833.374	90.28
833.551	28.84
833.728	16.55
833.905	-8.02
834.082	65.71
834.259	61.61
834.436	80.04
834.612	0.17
834.789	69.8
834.966	41.13
835.143	77.99
835.319	75.95
835.496	41.13
835.673	28.84
835.85	43.18
836.026	45.23
836.203	69.8
836.38	34.99
836.556	20.65
836.733	32.94
836.909	112.81
837.086	145.58
837.262	-22.36
837.439	82.09
837.616	73.9
837.792	34.99
837.968	139.43
838.145	6.31
838.321	51.37
838.498	-12.12
838.674	92.33
838.851	61.61
839.027	73.9
839.203	112.81
839.38	22.7
839.556	61.61
839.732	32.94
839.909	0.17
840.085	65.71
840.261	37.03
840.437	43.18
840.614	51.37
840.79	41.13
840.966	0.17
841.142	147.62
841.318	57.51
841.494	104.62
841.671	16.55
841.847	10.41
842.023	18.6
842.199	75.95
842.375	45.23
842.551	51.37
842.727	51.37
842.903	69.8
843.079	49.32
843.255	155.82
843.431	-28.5
843.607	65.71
843.783	-104.28
843.959	75.95
844.134	10.41
844.31	98.47
844.486	51.37
844.662	34.99
844.838	90.28
845.013	24.75
845.189	67.75
845.365	12.46
845.541	67.75
845.716	92.33
845.892	12.46
846.068	37.03
846.244	69.8
846.419	-22.36
846.595	28.84
846.77	57.51
846.946	82.09
847.122	37.03
847.297	41.13
847.473	51.37
847.648	-24.4
847.824	104.62
847.999	-20.31
848.175	2.22
848.35	-1.88
848.526	67.75
848.701	-10.07
848.876	43.18
849.052	59.56
849.227	10.41
849.403	34.99
849.578	0.17
849.753	37.03
849.929	-16.21
850.104	-3.93
850.279	49.32
850.454	37.03
850.63	-5.97
850.805	24.75
850.98	-5.97
851.155	8.36
851.33	59.56
851.505	-12.12
851.681	53.42
851.856	-69.46
852.031	4.27
852.206	20.65
852.381	0.17
852.556	53.42
852.731	67.75
852.906	-24.4
853.081	49.32
853.256	141.48
853.431	77.99
853.606	26.79
853.781	98.47
853.956	8.36
854.131	2.22
854.305	-48.98
854.48	-24.4
854.655	-3.93
854.83	-30.55
855.005	-8.02
855.18	-38.74
855.354	8.36
855.529	12.46
855.704	43.18
855.879	8.36
856.053	49.32
856.228	59.56
856.403	-12.12
856.577	63.66
856.752	-40.79
856.926	0.17
857.101	71.85
857.276	-40.79
857.45	-5.97
857.625	53.42
857.799	-3.93
857.974	90.28
858.148	-48.98
858.323	32.94
858.497	-20.31
858.672	-5.97
858.846	10.41
859.02	49.32
859.195	45.23
859.369	-14.17
859.543	-73.56
859.718	0.17
859.892	-32.6
860.066	0.17
860.241	6.31
860.415	-3.93
860.589	-32.6
860.763	-40.79
860.938	-48.98
861.112	69.8
861.286	49.32
861.46	41.13
861.634	106.67
861.808	32.94
861.982	-24.4
862.157	24.75
862.331	-30.55
862.505	-42.84
862.679	45.23
862.853	16.55
863.027	-83.8
863.201	118.95
863.375	-48.98
863.549	49.32
863.722	10.41
863.896	59.56
864.07	-22.36
864.244	53.42
864.418	65.71
864.592	100.52
864.766	100.52
864.939	-77.65
865.113	0.17
865.287	88.23
865.461	37.03
865.634	10.41
865.808	-57.17
865.982	8.36
866.156	24.75
866.329	4.27
866.503	57.51
866.676	-63.32
866.85	0.17
867.024	10.41
867.197	39.08
867.371	-24.4
867.544	2.22
867.718	-20.31
867.891	32.94
868.065	-53.08
868.238	6.31
868.412	16.55
868.585	37.03
868.759	16.55
868.932	-22.36
869.105	-91.99
869.279	-12.12
869.452	-36.69
869.625	49.32
869.799	-42.84
869.972	-32.6
870.145	-12.12
870.319	34.99
870.492	-10.07
870.665	-57.17
870.838	-28.5
871.011	-63.32
871.185	18.6
871.358	-12.12
871.531	59.56
871.704	-5.97
871.877	-65.36
872.05	-12.12
872.223	-63.32
872.396	16.55
872.569	-30.55
872.742	-40.79
872.915	8.36
873.088	61.61
873.261	0.17
873.434	-32.6
873.607	-24.4
873.78	43.18
873.953	-8.02
874.126	-40.79
874.299	-5.97
874.471	-28.5
874.644	51.37
874.817	10.41
874.99	-3.93
875.163	-34.64
875.335	20.65
875.508	-38.74
875.681	16.55
875.853	28.84
876.026	-1.88
876.199	82.09
876.371	-20.31
876.544	10.41
876.717	-48.98
876.889	75.95
877.062	65.71
877.234	-75.6
877.407	-20.31
877.579	-38.74
877.752	0.17
877.924	-16.21
878.097	10.41
878.269	20.65
878.442	28.84
878.614	-5.97
878.786	-65.36
878.959	34.99
879.131	49.32
879.303	-12.12
879.476	2.22
879.648	12.46
879.82	-1.88
879.993	-40.79
880.165	-22.36
880.337	-30.55
880.509	8.36
880.681	-83.8
880.854	-28.5
881.026	59.56
881.198	75.95
881.37	8.36
881.542	16.55
881.714	10.41
881.886	-94.04
882.058	16.55
882.23	57.51
882.402	73.9
882.574	73.9
882.746	-48.98
882.918	-46.93
883.09	45.23
883.262	16.55
883.434	-40.79
883.606	-5.97
883.778	12.46
883.95	82.09
884.122	57.51
884.293	20.65
884.465	-8.02
884.637	59.56
884.809	-1.88
884.98	26.79
885.152	-71.51
885.324	8.36
885.496	-51.03
885.667	4.27
885.839	18.6
886.011	10.41
886.182	-16.21
886.354	-61.27
886.525	59.56
886.697	0.17
886.869	-48.98
887.04	-12.12
887.212	18.6
887.383	127.14
887.555	-3.93
887.726	-40.79
887.897	-36.69
888.069	86.19
888.24	71.85
888.412	24.75
888.583	-46.93
888.754	-12.12
888.926	0.17
889.097	-48.98
889.268	-24.4
889.44	-40.79
889.611	6.31
889.782	-44.88
889.953	-81.75
890.125	61.61
890.296	-46.93
890.467	-36.69
890.638	-14.17
890.809	-8.02
890.98	-44.88
891.151	41.13
891.323	16.55
891.494	-32.6
891.665	61.61
891.836	-30.55
892.007	41.13
892.178	12.46
892.349	-48.98
892.52	-40.79
892.691	16.55
892.862	24.75
893.032	-40.79
893.203	-53.08
893.374	-24.4
893.545	41.13
893.716	-24.4
893.887	73.9
894.057	12.46
894.228	49.32
894.399	-53.08
894.57	65.71
894.74	51.37
894.911	41.13
895.082	24.75
895.253	24.75
895.423	-30.55
895.594	-1.88
895.764	-16.21
895.935	57.51
896.106	26.79
896.276	-46.93
896.447	-16.21
896.617	24.75
896.788	-77.65
896.958	-30.55
897.129	-57.17
897.299	8.36
897.47	75.95
897.64	-22.36
897.81	-46.93
897.981	26.79
898.151	-73.56
898.322	75.95
898.492	41.13
898.662	-77.65
898.832	41.13
899.003	-65.36
899.173	6.31
899.343	-32.6
899.513	41.13
