Data from USB4F104151__165__14-44-47-037.txt Node

Date: Thu Mar 13 14:44:47 EDT 2025
User: louis
Spectrometer: USB4F10415
Trigger mode: 4
Integration Time (sec): 2.000000E-2
Scans to average: 1
Electric dark correction enabled: true
Nonlinearity correction enabled: false
Boxcar width: 0
XAxis mode: Wavelengths
Number of Pixels in Spectrum: 3648
>>>>>Begin Spectral Data<<<<<
178.204	-75.6
178.424	-75.6
178.644	-75.6
178.864	-112.47
179.084	-112.47
179.304	51.37
179.524	-67.41
179.744	-34.64
179.964	32.94
180.184	12.46
180.404	22.7
180.624	18.6
180.844	8.36
181.064	-12.12
181.283	45.23
181.503	-18.26
181.723	-59.22
181.943	-51.03
182.163	24.75
182.383	63.66
182.602	39.08
182.822	34.99
183.042	22.7
183.262	30.89
183.482	26.79
183.701	41.13
183.921	-10.07
184.141	16.55
184.361	51.37
184.58	22.7
184.8	39.08
185.02	55.47
185.239	2.22
185.459	47.27
185.679	-24.4
185.898	-40.79
186.118	6.31
186.338	10.41
186.557	47.27
186.777	34.99
186.997	55.47
187.216	-1.88
187.436	14.51
187.655	37.03
187.875	49.32
188.095	14.51
188.314	0.17
188.534	131.24
188.753	16.55
188.973	24.75
189.192	22.7
189.412	47.27
189.631	20.65
189.851	6.31
190.07	57.51
190.29	-22.36
190.509	32.94
190.729	14.51
190.948	104.62
191.168	6.31
191.387	26.79
191.607	-42.84
191.826	18.6
192.045	-10.07
192.265	0.17
192.484	-38.74
192.704	98.47
192.923	10.41
193.142	96.43
193.362	41.13
193.581	-26.45
193.8	-1.88
194.02	43.18
194.239	-20.31
194.458	18.6
194.678	59.56
194.897	41.13
195.116	82.09
195.335	6.31
195.555	-53.08
195.774	116.9
195.993	55.47
196.212	-3.93
196.432	39.08
196.651	65.71
196.87	10.41
197.089	22.7
197.308	2.22
197.528	18.6
197.747	-16.21
197.966	80.04
198.185	41.13
198.404	-53.08
198.623	123.05
198.842	123.05
199.062	45.23
199.281	96.43
199.5	139.43
199.719	-1.88
199.938	14.51
200.157	-1.88
200.376	57.51
200.595	16.55
200.814	30.89
201.033	-1.88
201.252	-8.02
201.471	37.03
201.69	71.85
201.909	129.19
202.128	67.75
202.347	55.47
202.566	80.04
202.785	6.31
203.004	-16.21
203.223	116.9
203.442	34.99
203.661	-75.6
203.879	18.6
204.098	71.85
204.317	-3.93
204.536	37.03
204.755	59.56
204.974	59.56
205.193	-1.88
205.411	96.43
205.63	-8.02
205.849	-8.02
206.068	49.32
206.287	22.7
206.505	73.9
206.724	6.31
206.943	28.84
207.162	45.23
207.381	-18.26
207.599	55.47
207.818	28.84
208.037	114.86
208.255	14.51
208.474	30.89
208.693	32.94
208.911	30.89
209.13	39.08
209.349	34.99
209.567	57.51
209.786	116.9
210.005	63.66
210.223	88.23
210.442	10.41
210.661	26.79
210.879	41.13
211.098	16.55
211.316	24.75
211.535	34.99
211.753	24.75
211.972	-8.02
212.191	22.7
212.409	84.14
212.628	100.52
212.846	0.17
213.065	26.79
213.283	39.08
213.502	71.85
213.72	6.31
213.938	112.81
214.157	-1.88
214.375	88.23
214.594	12.46
214.812	47.27
215.031	-8.02
215.249	8.36
215.467	80.04
215.686	-26.45
215.904	55.47
216.122	82.09
216.341	55.47
216.559	-5.97
216.778	63.66
216.996	32.94
217.214	24.75
217.432	8.36
217.651	-16.21
217.869	8.36
218.087	63.66
218.306	10.41
218.524	37.03
218.742	34.99
218.96	-5.97
219.179	34.99
219.397	22.7
219.615	100.52
219.833	12.46
220.051	57.51
220.27	30.89
220.488	6.31
220.706	28.84
220.924	-16.21
221.142	16.55
221.36	82.09
221.578	45.23
221.796	41.13
222.015	-51.03
222.233	84.14
222.451	73.9
222.669	34.99
222.887	20.65
223.105	-85.84
223.323	75.95
223.541	14.51
223.759	71.85
223.977	-26.45
224.195	71.85
224.413	26.79
224.631	67.75
224.849	32.94
225.067	123.05
225.285	-26.45
225.503	-22.36
225.721	0.17
225.939	-14.17
226.157	-42.84
226.375	98.47
226.592	-10.07
226.81	37.03
227.028	51.37
227.246	112.81
227.464	34.99
227.682	67.75
227.9	-1.88
228.117	53.42
228.335	137.38
228.553	6.31
228.771	55.47
228.989	-5.97
229.206	-8.02
229.424	-12.12
229.642	71.85
229.86	2.22
230.077	80.04
230.295	22.7
230.513	75.95
230.731	22.7
230.948	63.66
231.166	86.19
231.384	47.27
231.601	-1.88
231.819	102.57
232.037	-10.07
232.254	-14.17
232.472	43.18
232.689	34.99
232.907	47.27
233.125	96.43
233.342	51.37
233.56	-8.02
233.777	6.31
233.995	51.37
234.213	88.23
234.43	73.9
234.648	41.13
234.865	-14.17
235.083	26.79
235.3	47.27
235.518	30.89
235.735	55.47
235.953	24.75
236.17	69.8
236.388	-30.55
236.605	-10.07
236.822	80.04
237.04	26.79
237.257	43.18
237.475	-1.88
237.692	-3.93
237.909	-34.64
238.127	121
238.344	6.31
238.562	88.23
238.779	34.99
238.996	-36.69
239.214	100.52
239.431	67.75
239.648	-34.64
239.865	49.32
240.083	102.57
240.3	80.04
240.517	-1.88
240.735	37.03
240.952	100.52
241.169	28.84
241.386	96.43
241.603	32.94
241.821	6.31
242.038	32.94
242.255	63.66
242.472	-48.98
242.689	73.9
242.907	6.31
243.124	-18.26
243.341	-1.88
243.558	-18.26
243.775	-22.36
243.992	49.32
244.209	55.47
244.426	51.37
244.643	55.47
244.86	-10.07
245.078	59.56
245.295	39.08
245.512	-8.02
245.729	-8.02
245.946	32.94
246.163	8.36
246.38	75.95
246.597	10.41
246.814	41.13
247.031	55.47
247.248	-10.07
247.464	92.33
247.681	73.9
247.898	98.47
248.115	-34.64
248.332	-3.93
248.549	28.84
248.766	8.36
248.983	96.43
249.2	-22.36
249.417	41.13
249.633	-40.79
249.85	-1.88
250.067	-14.17
250.284	20.65
250.501	34.99
250.717	71.85
250.934	14.51
251.151	80.04
251.368	84.14
251.585	43.18
251.801	53.42
252.018	-28.5
252.235	61.61
252.451	47.27
252.668	18.6
252.885	49.32
253.102	53.42
253.318	10.41
253.535	6.31
253.752	63.66
253.968	-5.97
254.185	2.22
254.401	71.85
254.618	43.18
254.835	-40.79
255.051	63.66
255.268	43.18
255.484	-8.02
255.701	77.99
255.917	75.95
256.134	-10.07
256.351	39.08
256.567	14.51
256.784	14.51
257	6.31
257.217	59.56
257.433	67.75
257.65	24.75
257.866	104.62
258.082	30.89
258.299	-24.4
258.515	24.75
258.732	-40.79
258.948	6.31
259.165	32.94
259.381	63.66
259.597	-42.84
259.814	34.99
260.03	73.9
260.246	10.41
260.463	55.47
260.679	65.71
260.895	65.71
261.112	39.08
261.328	-38.74
261.544	88.23
261.761	59.56
261.977	12.46
262.193	-63.32
262.409	77.99
262.626	32.94
262.842	6.31
263.058	-32.6
263.274	41.13
263.49	43.18
263.707	71.85
263.923	32.94
264.139	6.31
264.355	24.75
264.571	49.32
264.787	-46.93
265.004	0.17
265.22	6.31
265.436	51.37
265.652	57.51
265.868	47.27
266.084	49.32
266.3	6.31
266.516	80.04
266.732	24.75
266.948	-10.07
267.164	14.51
267.38	6.31
267.596	20.65
267.812	80.04
268.028	131.24
268.244	-34.64
268.46	39.08
268.676	-24.4
268.892	14.51
269.108	71.85
269.324	47.27
269.54	-16.21
269.756	0.17
269.972	49.32
270.188	-1.88
270.403	-1.88
270.619	55.47
270.835	6.31
271.051	77.99
271.267	63.66
271.483	65.71
271.698	30.89
271.914	32.94
272.13	30.89
272.346	55.47
272.562	-34.64
272.777	65.71
272.993	-1.88
273.209	39.08
273.425	0.17
273.64	63.66
273.856	100.52
274.072	22.7
274.287	-42.84
274.503	-1.88
274.719	49.32
274.934	39.08
275.15	8.36
275.366	6.31
275.581	47.27
275.797	69.8
276.012	-16.21
276.228	22.7
276.444	10.41
276.659	32.94
276.875	-34.64
277.09	67.75
277.306	39.08
277.521	67.75
277.737	-26.45
277.952	8.36
278.168	6.31
278.383	-8.02
278.599	47.27
278.814	92.33
279.03	45.23
279.245	80.04
279.461	-24.4
279.676	104.62
279.892	69.8
280.107	47.27
280.322	22.7
280.538	47.27
280.753	2.22
280.969	55.47
281.184	39.08
281.399	65.71
281.615	24.75
281.83	75.95
282.045	-10.07
282.26	-8.02
282.476	43.18
282.691	39.08
282.906	-12.12
283.122	6.31
283.337	30.89
283.552	24.75
283.767	18.6
283.983	55.47
284.198	32.94
284.413	55.47
284.628	71.85
284.843	0.17
285.058	28.84
285.274	-26.45
285.489	-26.45
285.704	0.17
285.919	-16.21
286.134	73.9
286.349	18.6
286.564	43.18
286.779	10.41
286.995	-34.64
287.21	-42.84
287.425	69.8
287.64	-1.88
287.855	88.23
288.07	20.65
288.285	49.32
288.5	71.85
288.715	26.79
288.93	28.84
289.145	80.04
289.36	39.08
289.575	18.6
289.79	92.33
290.004	10.41
290.219	161.96
290.434	8.36
290.649	-34.64
290.864	30.89
291.079	-22.36
291.294	-18.26
291.509	34.99
291.724	63.66
291.938	32.94
292.153	82.09
292.368	22.7
292.583	2.22
292.798	47.27
293.012	-5.97
293.227	2.22
293.442	10.41
293.657	43.18
293.871	51.37
294.086	80.04
294.301	47.27
294.516	55.47
294.73	0.17
294.945	-30.55
295.16	32.94
295.374	98.47
295.589	14.51
295.804	-16.21
296.018	0.17
296.233	12.46
296.447	32.94
296.662	-10.07
296.877	39.08
297.091	10.41
297.306	24.75
297.52	2.22
297.735	32.94
297.949	43.18
298.164	71.85
298.378	-5.97
298.593	41.13
298.807	-5.97
299.022	114.86
299.236	77.99
299.451	65.71
299.665	100.52
299.88	43.18
300.094	65.71
300.309	43.18
300.523	-40.79
300.737	88.23
300.952	-59.22
301.166	45.23
301.381	41.13
301.595	47.27
301.809	10.41
302.024	6.31
302.238	30.89
302.452	96.43
302.667	100.52
302.881	139.43
303.095	-16.21
303.309	26.79
303.524	14.51
303.738	37.03
303.952	2.22
304.166	53.42
304.381	10.41
304.595	-26.45
304.809	32.94
305.023	-28.5
305.237	32.94
305.452	24.75
305.666	47.27
305.88	90.28
306.094	106.67
306.308	49.32
306.522	90.28
306.736	149.67
306.95	88.23
307.164	-34.64
307.379	61.61
307.593	127.14
307.807	24.75
308.021	30.89
308.235	-24.4
308.449	-14.17
308.663	-8.02
308.877	82.09
309.091	-14.17
309.305	45.23
309.519	-59.22
309.733	49.32
309.947	-18.26
310.161	80.04
310.374	49.32
310.588	80.04
310.802	-48.98
311.016	0.17
311.23	26.79
311.444	18.6
311.658	-18.26
311.872	14.51
312.085	65.71
312.299	30.89
312.513	96.43
312.727	65.71
312.941	57.51
313.154	121
313.368	14.51
313.582	77.99
313.796	30.89
314.009	22.7
314.223	98.47
314.437	22.7
314.651	53.42
314.864	30.89
315.078	16.55
315.292	6.31
315.505	47.27
315.719	59.56
315.933	22.7
316.146	12.46
316.36	16.55
316.573	82.09
316.787	34.99
317.001	86.19
317.214	24.75
317.428	-1.88
317.641	0.17
317.855	55.47
318.068	71.85
318.282	10.41
318.495	139.43
318.709	55.47
318.922	2.22
319.136	121
319.349	73.9
319.563	41.13
319.776	57.51
319.99	-42.84
320.203	63.66
320.417	8.36
320.63	6.31
320.843	30.89
321.057	59.56
321.27	0.17
321.483	63.66
321.697	16.55
321.91	6.31
322.124	63.66
322.337	65.71
322.55	80.04
322.763	63.66
322.977	6.31
323.19	-67.41
323.403	71.85
323.617	39.08
323.83	-1.88
324.043	92.33
324.256	32.94
324.469	-40.79
324.683	51.37
324.896	65.71
325.109	71.85
325.322	34.99
325.535	100.52
325.748	39.08
325.962	49.32
326.175	20.65
326.388	57.51
326.601	28.84
326.814	-10.07
327.027	-81.75
327.24	88.23
327.453	-65.36
327.666	8.36
327.879	47.27
328.092	41.13
328.305	96.43
328.518	4.27
328.731	-26.45
328.944	43.18
329.157	47.27
329.37	30.89
329.583	71.85
329.796	82.09
330.009	80.04
330.222	39.08
330.435	22.7
330.648	39.08
330.861	65.71
331.073	55.47
331.286	6.31
331.499	55.47
331.712	80.04
331.925	8.36
332.138	-34.64
332.35	63.66
332.563	22.7
332.776	106.67
332.989	-16.21
333.202	57.51
333.414	49.32
333.627	18.6
333.84	96.43
334.053	82.09
334.265	28.84
334.478	16.55
334.691	71.85
334.903	-5.97
335.116	6.31
335.329	32.94
335.541	96.43
335.754	114.86
335.966	32.94
336.179	43.18
336.392	0.17
336.604	37.03
336.817	26.79
337.029	63.66
337.242	30.89
337.454	84.14
337.667	43.18
337.88	41.13
338.092	69.8
338.305	67.75
338.517	-16.21
338.729	90.28
338.942	49.32
339.154	24.75
339.367	14.51
339.579	149.67
339.792	8.36
340.004	98.47
340.217	59.56
340.429	43.18
340.641	77.99
340.854	43.18
341.066	14.51
341.278	6.31
341.491	63.66
341.703	20.65
341.915	71.85
342.128	82.09
342.34	22.7
342.552	30.89
342.764	63.66
342.977	57.51
343.189	30.89
343.401	14.51
343.613	6.31
343.826	16.55
344.038	39.08
344.25	71.85
344.462	92.33
344.674	20.65
344.886	8.36
345.099	39.08
345.311	43.18
345.523	34.99
345.735	57.51
345.947	32.94
346.159	39.08
346.371	14.51
346.583	16.55
346.795	116.9
347.007	-3.93
347.219	8.36
347.431	30.89
347.643	80.04
347.855	-69.46
348.067	6.31
348.279	-71.51
348.491	26.79
348.703	82.09
348.915	18.6
349.127	26.79
349.339	41.13
349.551	39.08
349.763	63.66
349.975	-16.21
350.187	139.43
350.399	-1.88
350.61	123.05
350.822	24.75
351.034	88.23
351.246	34.99
351.458	71.85
351.669	18.6
351.881	82.09
352.093	104.62
352.305	100.52
352.517	57.51
352.728	112.81
352.94	-10.07
353.152	2.22
353.363	-22.36
353.575	98.47
353.787	84.14
353.999	75.95
354.21	63.66
354.422	55.47
354.633	2.22
354.845	96.43
355.057	73.9
355.268	24.75
355.48	80.04
355.692	2.22
355.903	20.65
356.115	26.79
356.326	-18.26
356.538	86.19
356.749	-5.97
356.961	32.94
357.172	8.36
357.384	20.65
357.595	104.62
357.807	2.22
358.018	55.47
358.23	129.19
358.441	41.13
358.653	51.37
358.864	22.7
359.075	41.13
359.287	94.38
359.498	71.85
359.709	82.09
359.921	30.89
360.132	75.95
360.344	6.31
360.555	16.55
360.766	63.66
360.977	12.46
361.189	73.9
361.4	-3.93
361.611	30.89
361.823	98.47
362.034	-1.88
362.245	0.17
362.456	39.08
362.667	71.85
362.879	47.27
363.09	80.04
363.301	-1.88
363.512	71.85
363.723	47.27
363.935	-10.07
364.146	2.22
364.357	32.94
364.568	80.04
364.779	32.94
364.99	63.66
365.201	34.99
365.412	32.94
365.623	22.7
365.834	59.56
366.045	14.51
366.256	135.34
366.467	55.47
366.678	-8.02
366.889	8.36
367.1	16.55
367.311	8.36
367.522	-32.6
367.733	8.36
367.944	26.79
368.155	26.79
368.366	34.99
368.577	88.23
368.788	67.75
368.999	0.17
369.209	-26.45
369.42	47.27
369.631	75.95
369.842	88.23
370.053	30.89
370.264	98.47
370.474	-26.45
370.685	39.08
370.896	24.75
371.107	22.7
371.317	-8.02
371.528	8.36
371.739	55.47
371.95	-5.97
372.16	63.66
372.371	22.7
372.582	63.66
372.792	80.04
373.003	80.04
373.214	49.32
373.424	86.19
373.635	-5.97
373.846	125.1
374.056	-1.88
374.267	30.89
374.477	24.75
374.688	-8.02
374.898	63.66
375.109	71.85
375.319	6.31
375.53	96.43
375.74	22.7
375.951	92.33
376.161	39.08
376.372	104.62
376.582	77.99
376.793	32.94
377.003	49.32
377.214	57.51
377.424	63.66
377.635	37.03
377.845	59.56
378.055	96.43
378.266	16.55
378.476	112.81
378.686	47.27
378.897	47.27
379.107	92.33
379.317	41.13
379.528	-24.4
379.738	-1.88
379.948	6.31
380.158	47.27
380.369	49.32
380.579	57.51
380.789	65.71
380.999	55.47
381.21	18.6
381.42	71.85
381.63	90.28
381.84	0.17
382.05	63.66
382.261	110.76
382.471	45.23
382.681	-1.88
382.891	96.43
383.101	-3.93
383.311	20.65
383.521	10.41
383.731	39.08
383.941	18.6
384.151	112.81
384.361	-5.97
384.571	-24.4
384.781	67.75
384.991	16.55
385.201	96.43
385.411	71.85
385.621	37.03
385.831	18.6
386.041	65.71
386.251	96.43
386.461	96.43
386.671	26.79
386.881	131.24
387.091	71.85
387.301	55.47
387.511	39.08
387.72	63.66
387.93	67.75
388.14	-1.88
388.35	75.95
388.56	106.67
388.769	73.9
388.979	34.99
389.189	-20.31
389.399	26.79
389.609	92.33
389.818	43.18
390.028	71.85
390.238	34.99
390.447	98.47
390.657	155.82
390.867	51.37
391.076	14.51
391.286	96.43
391.496	102.57
391.705	80.04
391.915	151.72
392.125	57.51
392.334	88.23
392.544	116.9
392.753	43.18
392.963	24.75
393.172	100.52
393.382	63.66
393.591	114.86
393.801	55.47
394.01	149.67
394.22	143.53
394.429	59.56
394.639	116.9
394.848	59.56
395.058	8.36
395.267	88.23
395.477	32.94
395.686	4.27
395.895	51.37
396.105	26.79
396.314	71.85
396.524	108.71
396.733	8.36
396.942	106.67
397.152	118.95
397.361	106.67
397.57	98.47
397.78	6.31
397.989	84.14
398.198	127.14
398.407	39.08
398.617	129.19
398.826	118.95
399.035	98.47
399.244	108.71
399.453	82.09
399.663	6.31
399.872	67.75
400.081	104.62
400.29	168.1
400.499	55.47
400.708	106.67
400.917	59.56
401.127	57.51
401.336	131.24
401.545	98.47
401.754	149.67
401.963	59.56
402.172	71.85
402.381	125.1
402.59	98.47
402.799	129.19
403.008	166.06
403.217	182.44
403.426	63.66
403.635	22.7
403.844	155.82
404.053	88.23
404.262	108.71
404.471	145.58
404.68	86.19
404.888	161.96
405.097	59.56
405.306	121
405.515	157.86
405.724	149.67
405.933	194.73
406.142	178.34
406.35	182.44
406.559	161.96
406.768	164.01
406.977	221.35
407.185	129.19
407.394	272.55
407.603	213.16
407.812	176.3
408.02	198.82
408.229	141.48
408.438	149.67
408.646	190.63
408.855	174.25
409.064	252.07
409.272	262.31
409.481	262.31
409.69	198.82
409.898	153.77
410.107	231.59
410.315	252.07
410.524	280.74
410.733	313.51
410.941	268.45
411.15	383.14
411.358	309.41
411.567	383.14
411.775	327.85
411.984	377
412.192	331.94
412.401	360.61
412.609	393.38
412.818	415.91
413.026	381.09
413.234	368.81
413.443	401.57
413.651	442.53
413.86	508.07
414.068	501.92
414.276	483.49
414.485	469.16
414.693	503.97
414.901	628.9
415.11	610.47
415.318	549.03
415.526	645.28
415.734	669.86
415.943	751.78
416.151	678.05
416.359	723.1
416.567	727.2
416.776	751.78
416.984	800.93
417.192	817.31
417.4	788.64
417.608	800.93
417.817	809.12
418.025	833.69
418.233	925.85
418.441	884.89
418.649	907.42
418.857	981.15
419.065	1118.36
419.273	1104.03
419.481	1087.64
419.689	1079.45
419.897	1157.27
420.105	1259.67
420.313	1237.14
420.521	1353.88
420.729	1353.88
420.937	1312.92
421.145	1362.07
421.353	1521.81
421.561	1603.73
421.769	1665.17
421.977	1693.84
422.185	1611.92
422.393	1736.85
422.601	1777.81
422.809	1898.64
423.017	1761.42
423.224	1843.34
423.432	2023.56
423.64	2031.76
423.848	2222.22
424.056	2269.32
424.263	2392.2
424.471	2324.62
424.679	2463.88
424.887	2414.73
425.094	2572.42
425.302	2556.04
425.51	2533.51
425.718	2965.63
425.925	2633.86
426.133	2918.53
426.341	3020.92
426.548	3119.23
426.756	3377.27
426.964	3135.61
427.171	3561.59
427.379	3487.86
427.586	3422.33
427.794	3678.32
428.001	3793.01
428.209	4012.14
428.417	3874.93
428.624	4028.53
428.832	4210.79
429.039	4044.91
429.247	4149.36
429.454	4474.98
429.662	4728.93
429.869	4511.85
430.076	4913.25
430.284	4741.22
430.491	4986.97
430.699	5316.7
430.906	5275.74
431.114	5253.21
431.321	5541.97
431.528	5517.4
431.736	6021.2
431.943	6207.56
432.15	6010.96
432.358	6094.93
432.565	6469.7
432.772	6312.01
432.979	6748.23
433.187	6748.23
433.394	6819.91
433.601	7424.06
433.808	7309.37
434.016	7358.52
434.223	7690.29
434.43	8235.05
434.637	8097.84
434.844	8417.32
435.052	8536.1
435.259	8618.02
435.466	8601.64
435.673	8499.24
435.88	8931.36
436.087	9445.4
436.294	9441.31
436.501	9361.44
436.708	9502.75
436.915	9721.88
437.122	10315.79
437.329	10283.02
437.537	10528.78
437.743	10887.17
437.95	10702.86
438.157	10983.43
438.364	11501.56
438.571	11644.92
438.778	11667.45
438.985	12892.13
439.192	12216.3
439.399	12517.36
439.606	12150.77
439.813	12963.81
440.02	14006.23
440.227	13383.65
440.433	13486.04
440.64	13676.51
440.847	13780.95
441.054	14030.8
441.261	14923.72
441.467	14735.31
441.674	14968.77
441.881	15622.08
442.088	15464.38
442.294	15376.32
442.501	16009.14
442.708	16111.54
442.914	16768.94
443.121	17405.86
443.328	16842.67
443.534	18347.92
443.741	17690.52
443.948	17684.38
444.154	18515.86
444.361	18902.92
444.568	18964.36
444.774	18683.79
444.981	18933.64
445.187	19687.29
445.394	20359.03
445.6	20486
445.807	21858.14
446.013	21208.94
446.22	21241.7
446.426	22103.9
446.633	22372.18
446.839	23320.39
447.046	22288.21
447.252	23637.83
447.459	23457.6
447.665	23226.18
447.871	24391.48
448.078	25534.25
448.284	24426.29
448.491	25181.99
448.697	26330.9
448.903	26629.91
449.11	26375.96
449.316	26283.8
449.522	26591
449.728	27461.38
449.935	27348.75
450.141	27692.8
450.347	28182.27
450.553	27326.22
450.76	27569.93
450.966	28858.1
451.172	28663.54
451.378	29249.26
451.584	28382.97
451.791	29224.68
451.997	29077.23
452.203	29949.67
452.409	29490.92
452.615	29503.21
452.821	28489.46
453.027	28151.55
453.233	29681.38
453.44	28567.29
453.646	28931.83
453.852	28741.36
454.058	29138.67
454.264	28622.58
454.47	29738.72
454.676	28743.41
454.882	29464.3
455.088	26887.95
455.294	27344.65
455.5	27793.15
455.705	28028.67
455.911	27146
456.117	26287.9
456.323	26244.89
456.529	24827.7
456.735	26005.28
456.941	25354.02
457.147	24962.86
457.352	24487.73
457.558	23899.97
457.764	24246.07
457.97	23664.45
458.176	23308.1
458.381	23197.51
458.587	22128.47
458.793	21882.72
458.999	20846.44
459.204	22269.78
459.41	21808.99
459.616	20223.86
459.821	20498.29
460.027	20088.7
460.233	19873.66
460.438	18915.21
460.644	18937.74
460.85	18063.26
461.055	18155.41
461.261	17844.12
461.466	16721.84
461.672	16109.49
461.878	16945.06
462.083	16017.33
462.289	15951.8
462.494	15574.97
462.7	15058.88
462.905	14503.89
463.111	15077.32
463.316	15040.45
463.522	14923.72
463.727	14692.3
463.932	14544.84
464.138	14561.23
464.343	14616.52
464.549	14401.49
464.754	14610.38
464.959	14645.2
465.165	14524.37
465.37	13791.19
465.575	13365.21
465.781	13828.06
465.986	14143.44
466.191	13479.9
466.397	13287.39
466.602	12812.26
466.807	13146.08
467.012	13303.78
467.218	13078.5
467.423	12924.9
467.628	13051.88
467.833	13502.43
468.038	13053.92
468.244	12543.98
468.449	13309.92
468.654	12728.3
468.859	12634.09
469.064	12564.46
469.269	12118
469.474	12312.56
469.679	12421.1
469.885	11972.6
470.09	12208.11
470.295	12062.71
470.5	11876.34
470.705	12099.57
470.91	11493.37
471.115	11679.74
471.32	11638.78
471.525	11624.44
471.73	11577.34
471.935	11419.64
472.139	10905.6
472.344	11327.49
472.549	11087.87
472.754	11057.15
472.959	10639.37
473.164	10524.68
473.369	10448.91
473.574	10807.3
473.778	10508.3
473.983	10463.24
474.188	10633.22
474.393	9975.83
474.598	10012.69
474.802	10072.08
475.007	9912.34
475.212	9885.72
475.417	9545.75
475.621	9639.96
475.826	9646.1
476.031	9617.43
476.235	9277.47
476.44	9295.9
476.645	9048.1
476.849	9265.18
477.054	9044
477.259	9033.76
477.463	8951.84
477.668	8783.91
477.872	8906.79
478.077	8763.43
478.282	8427.56
478.486	8570.92
478.691	8378.41
478.895	8544.3
479.1	8300.59
479.304	8353.84
479.509	8132.65
479.713	8208.43
479.918	8103.98
480.122	7866.42
480.326	7970.87
480.531	7845.94
480.735	7788.6
480.94	7751.73
481.144	8101.94
481.348	7698.49
481.553	7970.87
481.757	7542.84
481.961	7843.89
482.166	7706.68
482.37	7731.25
482.574	7594.04
482.778	7694.39
482.983	7739.44
483.187	7804.98
483.391	7796.79
483.595	7534.65
483.8	7624.76
484.004	7665.72
484.208	7755.83
484.412	7788.6
484.616	7577.66
484.821	7723.06
485.025	7407.67
485.229	7680.05
485.433	7583.8
485.637	7645.24
485.841	7659.57
486.045	7407.67
486.249	7583.8
486.453	7571.51
486.657	7743.54
486.861	7731.25
487.065	7415.87
487.269	7678.01
487.473	7510.07
487.677	7714.87
487.881	7768.12
488.085	7665.72
488.289	7716.92
488.493	7690.29
488.697	7804.98
488.901	7704.63
489.105	7708.73
489.309	7747.64
489.512	7831.6
489.716	7741.49
489.92	7571.51
490.124	7708.73
490.328	7831.6
490.531	7817.27
490.735	7802.93
490.939	7952.43
491.143	7886.9
491.346	7958.58
491.55	8020.02
491.754	7968.82
491.958	7921.71
492.161	7895.09
492.365	8099.89
492.569	8013.87
492.772	8058.93
492.976	8165.42
493.18	8265.77
493.383	8167.47
493.587	8376.36
493.79	8493.1
493.994	8343.6
494.197	8241.2
494.401	8435.75
494.605	8484.91
494.808	8462.38
495.012	8638.5
495.215	8630.31
495.419	8910.88
495.622	8884.26
495.825	9031.71
496.029	8794.15
496.232	9273.37
496.436	9046.05
496.639	9271.33
496.843	9232.41
497.046	9306.14
497.249	9465.88
497.453	9537.56
497.656	9269.28
497.859	9512.99
498.063	9771.03
498.266	10082.32
498.469	9877.52
498.673	9986.07
498.876	10221.58
499.079	10072.08
499.282	10086.42
499.485	10543.11
499.689	10551.31
499.892	10604.55
500.095	10579.98
500.298	10987.52
500.501	10772.49
500.705	11218.94
500.908	11350.01
501.111	11393.02
501.314	11378.69
501.517	11479.04
501.72	11610.11
501.923	11716.6
502.126	11986.93
502.329	12070.9
502.532	12161.01
502.735	12232.69
502.938	12693.48
503.141	12488.68
503.344	12662.76
503.547	12765.16
503.75	13305.82
503.953	13193.19
504.156	13545.44
504.359	13418.46
504.562	13600.73
504.765	13653.98
504.968	13856.73
505.17	14145.49
505.373	14079.96
505.576	14284.75
505.779	14706.63
505.982	14766.03
506.185	14952.39
506.387	14831.56
506.59	15073.22
506.793	15472.57
506.996	15095.75
507.198	15691.71
507.401	15628.22
507.604	15994.81
507.807	16009.14
508.009	16586.67
508.212	16416.69
508.415	16639.92
508.617	16658.35
508.82	16818.09
509.022	16779.18
509.225	17192.87
509.428	17541.02
509.63	17708.96
509.833	17620.89
510.035	18071.45
510.238	17780.64
510.44	18370.45
510.643	18540.43
510.845	18616.21
511.048	18495.38
511.25	19193.73
511.453	19048.33
511.655	19601.28
511.858	19447.68
512.06	19617.66
512.262	20086.65
512.465	19675.01
512.667	20506.48
512.87	20469.62
513.072	20465.52
513.274	20709.23
513.477	21016.43
513.679	21247.85
513.881	21383.01
514.084	21843.81
514.286	21659.49
514.488	21782.37
514.69	22826.83
514.893	22538.07
515.095	22884.17
515.297	22953.8
515.499	22947.66
515.701	23164.75
515.904	23443.27
516.106	23629.63
516.308	24145.72
516.51	24014.65
516.712	23961.41
516.914	24190.78
517.116	24760.11
517.318	24958.77
517.52	24985.39
517.722	25159.47
517.925	25517.86
518.127	25933.6
518.329	26052.38
518.531	25933.6
518.733	26787.6
518.935	26564.37
519.136	26535.7
519.338	26982.16
519.54	27508.49
519.742	27461.38
519.944	27401.99
520.146	27981.57
520.348	28096.25
520.55	28217.08
520.752	28655.35
520.954	28935.92
521.155	28450.55
521.357	29300.46
521.559	29318.89
521.761	29730.53
521.963	29796.07
522.164	30025.44
522.366	29841.12
522.568	30420.7
522.77	30056.16
522.971	31026.9
523.173	30570.2
523.375	30744.28
523.576	31125.2
523.778	31307.47
523.98	31624.9
524.181	31885
524.383	31528.65
524.584	32108.22
524.786	32231.1
524.988	32130.75
525.189	32489.15
525.391	32536.25
525.592	33081.01
525.794	32972.47
525.995	32911.03
526.197	33011.38
526.398	33509.04
526.6	33369.77
526.801	33889.96
527.003	33674.92
527.204	33777.32
527.406	33961.64
527.607	34107.04
527.808	34287.26
528.01	33904.29
528.211	34129.57
528.412	35073.68
528.614	34463.39
528.815	34664.09
529.016	34844.31
529.218	34977.43
529.419	34868.89
529.62	34870.93
529.822	34891.41
530.023	35034.77
530.224	35188.37
530.425	35286.67
530.626	34559.64
530.828	34811.54
531.029	35710.6
531.23	35143.31
531.431	35296.91
531.632	35315.34
531.833	35450.51
532.035	35255.95
532.236	35501.71
532.437	36058.76
532.638	35401.36
532.839	35726.99
533.04	36038.28
533.241	35640.97
533.442	36157.06
533.643	36056.71
533.844	35780.23
534.045	36175.49
534.246	35597.96
534.447	36157.06
534.648	35704.46
534.849	35980.93
535.05	35583.63
535.251	35769.99
535.451	35690.12
535.652	35862.15
535.853	35956.36
536.054	36050.56
536.255	35843.72
536.456	36052.61
536.657	36081.28
536.857	35514
537.058	35700.36
537.259	35935.88
537.46	36112
537.66	35853.96
537.861	35856.01
538.062	35991.17
538.263	35880.58
538.463	35511.95
538.664	35845.77
538.865	35589.77
539.065	36101.76
539.266	35925.64
539.466	36148.87
539.667	35606.16
539.868	35909.25
540.068	35817.1
540.269	35600.01
540.469	35833.48
540.67	35921.54
540.87	35346.06
541.071	35776.14
541.271	35747.47
541.472	35757.71
541.672	35714.7
541.873	35409.55
542.073	35260.05
542.274	36114.05
542.474	35708.55
542.675	35655.31
542.875	35870.34
543.075	35688.07
543.276	35354.26
543.476	36308.61
543.676	35423.89
543.877	35815.05
544.077	35769.99
544.277	35554.96
544.478	35565.2
544.678	35700.36
544.878	35817.1
545.078	35567.24
545.279	35624.59
545.479	35266.19
545.679	35677.83
545.879	35329.68
546.079	35346.06
546.28	35532.43
546.48	35151.51
546.68	35475.09
546.88	35251.86
547.08	35563.15
547.28	35579.53
547.48	35344.02
547.68	35473.04
547.88	35171.99
548.081	35182.23
548.281	35466.89
548.481	35131.03
548.681	35378.83
548.881	35585.68
549.081	35071.64
549.28	35112.59
549.48	35200.66
549.68	35292.82
549.88	35841.67
550.08	35083.92
550.28	35315.34
550.48	35395.21
550.68	35499.66
550.88	35032.72
551.08	35217.04
551.279	35219.09
551.479	35401.36
551.679	35174.03
551.879	34891.41
552.079	35110.55
552.278	35356.3
552.478	35024.53
552.678	35188.37
552.878	35008.15
553.077	35272.34
553.277	34993.81
553.477	35210.9
553.676	35186.32
553.876	34926.23
554.076	34782.87
554.275	34971.29
554.475	34401.95
554.674	34981.52
554.874	34793.11
555.074	34922.13
555.273	34791.06
555.473	34700.95
555.672	34549.4
555.872	34825.88
556.071	34795.16
556.271	35018.39
556.47	34571.93
556.67	34479.77
556.869	34174.63
557.068	34836.12
557.268	34092.71
557.467	34442.91
557.667	34326.17
557.866	34444.96
558.065	34219.68
558.265	34119.33
558.464	34090.66
558.663	34453.15
558.863	33818.28
559.062	34158.24
559.261	33595.05
559.461	34311.84
559.66	33902.25
559.859	34092.71
560.058	33529.52
560.258	34293.41
560.457	33582.76
560.656	34082.47
560.855	33593
561.054	33672.87
561.253	33451.69
561.453	33756.84
561.652	33683.11
561.851	33427.12
562.05	33541.8
562.249	33121.97
562.448	33599.15
562.647	33588.91
562.846	33097.39
563.045	32945.84
563.244	32816.82
563.443	33351.34
563.642	32495.29
563.841	32857.78
564.04	32755.38
564.239	33048.24
564.438	32777.91
564.637	32925.36
564.836	32536.25
565.035	32401.08
565.234	32519.87
565.432	32280.25
565.631	32259.77
565.83	32730.81
566.029	32634.55
566.228	32296.64
566.427	31989.44
566.625	32280.25
566.824	31739.59
567.023	32208.58
567.222	31432.4
567.42	32102.08
567.619	31639.24
567.818	31737.54
568.016	31682.25
568.215	31860.42
568.414	31626.95
568.612	31692.49
568.811	31196.88
569.01	31354.57
569.208	31010.51
569.407	31495.88
569.605	30947.03
569.804	31452.87
570.002	31012.56
570.201	31084.24
570.4	30998.23
570.598	30662.36
570.797	30396.12
570.995	30734.04
571.193	30461.66
571.392	30584.54
571.59	29992.67
571.789	30324.44
571.987	30142.17
572.186	30084.83
572.384	30254.81
572.582	30082.78
572.781	29945.57
572.979	29761.25
573.177	29976.29
573.376	29976.29
573.574	29916.9
573.772	29863.65
573.971	29376.23
574.169	29257.45
574.367	29347.56
574.565	29779.68
574.763	29433.58
574.962	29478.63
575.16	28907.25
575.358	29327.08
575.556	28409.59
575.754	29120.24
575.952	28811
576.151	29193.97
576.349	28839.67
576.547	28573.43
576.745	28870.39
576.943	28624.63
577.141	28407.55
577.339	28696.31
577.537	28030.72
577.735	28286.72
577.933	28036.86
578.131	28094.21
578.329	28215.04
578.527	27725.57
578.725	27981.57
578.923	27961.09
579.121	27660.04
579.319	27455.24
579.516	27821.83
579.714	27354.89
579.912	27350.79
580.11	27180.81
580.308	27537.16
580.506	27053.84
580.704	26849.04
580.901	26978.06
581.099	27307.79
581.297	26951.44
581.495	27186.96
581.692	26916.62
581.89	26556.18
582.088	26736.4
582.285	26541.85
582.483	26851.09
582.681	26699.54
582.878	26451.74
583.076	26314.52
583.274	26656.53
583.471	26287.9
583.669	26345.24
583.866	26162.97
584.064	26246.94
584.262	25866.02
584.459	26076.96
584.657	25593.64
584.854	25823.01
585.052	25536.29
585.249	25534.25
585.447	25894.69
585.644	25556.77
585.841	25401.13
586.039	25800.48
586.236	25085.74
586.434	25067.31
586.631	25409.32
586.828	25093.93
587.026	25278.25
587.223	25110.32
587.42	24948.53
587.618	24862.51
587.815	24784.69
588.012	24729.39
588.21	24311.61
588.407	24682.29
588.604	24549.17
588.801	24397.62
588.999	24553.27
589.196	24225.59
589.393	24287.03
589.59	24100.67
589.787	24033.08
589.984	24125.24
590.182	23578.43
590.379	23799.62
590.576	23574.34
590.773	23648.07
590.97	23428.93
591.167	23689.03
591.364	22949.71
591.561	23586.63
591.758	23256.9
591.955	23074.63
592.152	23367.49
592.349	23015.24
592.546	23447.36
592.743	23228.23
592.94	22800.21
593.137	23031.63
593.334	22918.99
593.531	22890.32
593.727	22927.18
593.924	22619.99
594.121	22566.74
594.318	22495.06
594.515	22353.75
594.712	22546.26
594.908	22419.28
595.105	22388.57
595.302	22015.83
595.499	22380.37
595.696	22394.71
595.892	22132.57
596.089	22103.9
596.286	22097.75
596.482	21831.52
596.679	21960.54
596.876	21866.33
597.072	21739.36
597.269	21763.93
597.466	21675.87
597.662	21356.39
597.859	21258.09
598.055	21507.94
598.252	20963.18
598.448	21186.41
598.645	20991.85
598.841	20645.74
599.038	21198.7
599.234	21030.76
599.431	20707.18
599.627	20658.03
599.824	20828.01
600.02	20709.23
600.217	20942.7
600.413	20383.6
600.609	20397.94
600.806	20395.89
601.002	20602.74
601.198	20418.42
601.395	20170.61
601.591	20453.23
601.787	20137.85
601.984	20299.64
602.18	20174.71
602.376	19941.24
602.572	19914.62
602.769	19789.69
602.965	19707.77
603.161	19830.65
603.357	19457.92
603.553	19537.79
603.75	19670.91
603.946	19484.55
604.142	19527.55
604.338	19285.89
604.534	19730.3
604.73	19175.3
604.926	19029.9
605.122	19267.46
605.318	19120.01
605.514	19068.81
605.71	19046.28
605.906	18810.76
606.102	18950.03
606.298	18990.98
606.494	19001.22
606.69	18663.31
606.886	18597.77
607.082	18423.7
607.278	18677.65
607.474	18294.68
607.67	18601.87
607.866	18089.88
608.062	18585.49
608.257	18433.94
608.453	18382.74
608.649	18347.92
608.845	18614.16
609.041	18034.58
609.236	18309.01
609.432	18110.36
609.628	18110.36
609.824	18005.91
610.019	17981.34
610.215	18069.4
610.411	18024.34
610.606	17835.93
610.802	17694.62
610.998	17858.46
611.193	17817.5
611.389	17780.64
611.584	17584.03
611.78	17436.58
611.976	17543.07
612.171	17794.97
612.367	17637.28
612.562	17440.67
612.758	17205.16
612.953	17295.27
613.149	17483.68
613.344	17072.04
613.539	17571.74
613.735	17276.84
613.93	17213.35
614.126	17246.12
614.321	17346.47
614.517	17242.02
614.712	17295.27
614.907	16965.54
615.103	17086.37
615.298	16744.36
615.493	16885.67
615.688	16770.99
615.884	16756.65
616.079	17094.57
616.274	16940.97
616.47	16775.08
616.665	16805.8
616.86	16695.21
617.055	16523.18
617.25	16523.18
617.445	16660.4
617.641	16267.19
617.836	16736.17
618.031	16207.8
618.226	16562.09
618.421	16314.29
618.616	16830.38
618.811	16166.84
619.006	16390.06
619.201	16052.15
619.396	16046.01
619.591	15837.11
619.786	15902.65
619.981	15667.13
620.176	15863.74
620.371	15517.63
620.566	15814.59
620.761	15456.19
620.956	15550.4
621.151	15325.12
621.346	15407.04
621.541	15251.39
621.735	15382.46
621.93	15151.04
622.125	15161.28
622.32	15013.83
622.515	15124.42
622.709	14931.91
622.904	14966.73
623.099	14907.34
623.294	14671.82
623.488	14364.62
623.683	14704.59
623.878	14333.9
624.072	14475.21
624.267	14360.53
624.462	14481.36
624.656	14059.48
624.851	14178.26
625.046	14063.57
625.24	14088.15
625.435	13656.03
625.629	13686.75
625.824	13703.13
626.018	13772.76
626.213	13467.61
626.407	13576.16
626.602	13440.99
626.796	13522.91
626.991	13434.85
627.185	13096.93
627.38	13133.79
627.574	12888.04
627.768	12941.29
627.963	13129.7
628.157	12705.77
628.352	13107.17
628.546	12822.5
628.74	12787.69
628.935	12736.49
629.129	12478.44
629.323	12326.89
629.517	12402.67
629.712	12570.6
629.906	12453.87
630.1	12011.51
630.294	11896.82
630.489	12044.27
630.683	12128.24
630.877	12058.61
631.071	11757.56
631.265	12083.19
631.459	11900.92
631.653	11515.9
631.848	11802.61
632.042	11331.58
632.236	11722.74
632.43	11425.79
632.624	11589.63
632.818	11536.38
633.012	11311.1
633.206	11245.57
633.4	11102.21
633.594	11212.8
633.788	11159.55
633.982	11268.09
634.176	11071.49
634.369	10690.57
634.563	10680.33
634.757	10838.02
634.951	10627.08
635.145	10958.85
635.339	10598.41
635.533	10944.52
635.726	10438.67
635.92	10561.55
636.114	10477.58
636.308	10342.41
636.501	10213.39
636.695	10434.57
636.889	10041.36
637.083	10084.37
637.276	10031.12
637.47	9877.52
637.664	9902.1
637.857	10016.79
638.051	9928.72
638.244	9781.27
638.438	9852.95
638.632	9648.15
638.825	9689.11
639.019	9639.96
639.212	9627.67
639.406	9795.61
639.599	9390.11
639.793	9525.27
639.986	9398.3
640.18	9250.85
640.373	9218.08
640.567	9140.26
640.76	9369.63
640.954	8968.23
641.147	9115.68
641.34	9091.1
641.534	8996.9
641.727	9017.38
641.92	8792.1
642.114	8779.81
642.307	8906.79
642.5	8808.48
642.694	8771.62
642.887	8599.59
643.08	8656.93
643.273	8351.79
643.467	8495.15
643.66	8489
643.853	8353.84
644.046	8280.11
644.239	8202.29
644.432	8312.88
644.626	8292.4
644.819	8073.26
645.012	8253.48
645.205	8058.93
645.398	8067.12
645.591	7858.23
645.784	8030.26
645.977	7895.09
646.17	7866.42
646.363	7856.18
646.556	7694.39
646.749	7788.6
646.942	7690.29
647.135	7643.19
647.328	7548.98
647.521	7723.06
647.714	7444.54
647.907	7563.32
648.099	7501.88
648.292	7452.73
648.485	7446.59
648.678	7350.33
648.871	7264.32
649.064	7135.29
649.256	7354.43
649.449	7153.73
649.642	7252.03
649.835	7114.81
650.027	7211.07
650.22	7206.97
650.413	6967.36
650.605	6899.78
650.798	6834.24
650.991	6703.17
651.183	7051.33
651.376	6854.72
651.568	6854.72
651.761	6883.39
651.954	6725.7
652.146	6684.74
652.339	6697.03
652.531	6707.27
652.724	6486.09
652.916	6568.01
653.109	6500.42
653.301	6629.45
653.494	6451.27
653.686	6359.11
653.879	6447.18
654.071	6273.1
654.263	6330.44
654.456	6404.17
654.648	6307.91
654.84	5935.18
655.033	6189.13
655.225	6154.32
655.417	6019.15
655.61	5982.29
655.802	6051.92
655.994	5980.24
656.186	5972.05
656.379	5931.09
656.571	6166.6
656.763	5830.74
656.955	5773.39
657.148	5726.29
657.34	5673.04
657.532	5783.63
657.724	5703.76
657.916	5972.05
658.108	5757.01
658.3	5568.6
658.492	5765.2
658.684	5621.84
658.876	5556.31
659.068	5533.78
659.26	5384.28
659.452	5480.54
659.644	5453.91
659.836	5431.38
660.028	5494.87
660.22	5238.87
660.412	5369.94
660.604	5269.59
660.796	5382.23
660.988	5101.66
661.18	5118.04
661.372	5091.42
661.563	5105.76
661.755	5177.44
661.947	5027.93
662.139	5083.23
662.331	4980.83
662.522	5064.8
662.714	4923.49
662.906	4960.35
663.097	4913.25
663.289	4890.72
663.481	4864.1
663.673	4831.33
663.864	4964.45
664.056	4737.12
664.247	4743.27
664.439	4800.61
664.631	4667.49
664.822	4790.37
665.014	4675.68
665.205	4720.74
665.397	4528.23
665.588	4505.7
665.78	4618.34
665.971	4653.16
666.163	4694.12
666.354	4587.62
666.546	4384.87
666.737	4423.78
666.929	4423.78
667.12	4399.21
667.311	4413.54
667.503	4235.37
667.694	4284.52
667.885	4372.58
668.077	4407.4
668.268	4261.99
668.459	4313.19
668.651	4327.53
668.842	4249.71
669.033	4229.23
669.224	4159.6
669.416	4163.69
669.607	4137.07
669.798	4083.82
669.989	4266.09
670.18	4055.15
670.371	3971.18
670.563	3991.66
670.754	4016.24
670.945	3989.61
671.136	3989.61
671.327	3934.32
671.518	3971.18
671.709	3930.22
671.9	3893.36
672.091	3893.36
672.282	3870.83
672.473	4030.57
672.664	3801.2
672.855	3924.08
673.046	3930.22
673.237	3905.65
673.428	3838.06
673.619	3676.27
673.809	3647.6
674	3889.26
674.191	3897.46
674.382	3709.04
674.573	3731.57
674.764	3807.34
674.954	3752.05
675.145	3727.47
675.336	3760.24
675.527	3651.7
675.717	3793.01
675.908	3575.92
676.099	3602.55
676.289	3569.78
676.48	3682.42
676.671	3586.16
676.861	3637.36
677.052	3608.69
677.243	3442.81
677.433	3577.97
677.624	3534.96
677.814	3588.21
678.005	3522.68
678.195	3500.15
678.386	3537.01
678.576	3514.49
678.767	3606.64
678.957	3438.71
679.148	3610.74
679.338	3528.82
679.529	3463.29
679.719	3358.84
679.909	3418.23
680.1	3508.34
680.29	3448.95
680.481	3471.48
680.671	3577.97
680.861	3508.34
681.052	3391.61
681.242	3297.4
681.432	3524.72
681.622	3371.13
681.813	3317.88
682.003	3291.26
682.193	3258.49
682.383	3375.22
682.573	3375.22
682.764	3272.82
682.954	3324.02
683.144	3410.04
683.334	3371.13
683.524	3233.91
683.714	3258.49
683.904	3180.67
684.094	3305.59
684.284	3336.31
684.474	3264.63
684.664	3334.26
684.854	3250.3
685.044	3238.01
685.234	3278.97
685.424	3242.11
685.614	3233.91
685.804	3459.19
685.994	3147.9
686.184	3127.42
686.374	3197.05
686.564	3180.67
686.753	3141.75
686.943	3203.19
687.133	3250.3
687.323	3111.04
687.513	2988.16
687.702	3049.6
687.892	3135.61
688.082	3061.88
688.272	3113.08
688.461	3020.92
688.651	3063.93
688.841	2924.67
689.03	3072.12
689.22	2947.2
689.41	3070.08
689.599	3020.92
689.789	3045.5
689.979	2984.06
690.168	2904.19
690.358	2865.28
690.547	2906.24
690.737	2766.98
690.926	2906.24
691.116	2865.28
691.305	2822.27
691.495	2812.03
691.684	2771.07
691.874	2812.03
692.063	2971.77
692.252	2771.07
692.442	2852.99
692.631	2693.25
692.82	2826.37
693.01	2777.22
693.199	2738.3
693.388	2828.42
693.578	2736.26
693.767	2754.69
693.956	2711.68
694.146	2594.95
694.335	2586.76
694.524	2726.02
694.713	2570.37
694.902	2613.38
695.092	2560.13
695.281	2537.6
695.47	2578.56
695.659	2551.94
695.848	2531.46
696.037	2605.19
696.226	2558.08
696.415	2521.22
696.604	2687.11
696.793	2472.07
696.982	2537.6
697.171	2617.47
697.36	2463.88
697.549	2521.22
697.738	2414.73
697.927	2492.55
698.116	2490.5
698.305	2431.11
698.494	2463.88
698.683	2447.49
698.872	2504.84
699.061	2365.57
699.25	2377.86
699.438	2480.26
699.627	2525.32
699.816	2422.92
700.005	2375.81
700.193	2451.59
700.382	2476.16
700.571	2486.4
700.76	2457.73
700.948	2398.34
701.137	2427.01
701.326	2412.68
701.514	2336.9
701.703	2371.72
701.892	2443.4
702.08	2476.16
702.269	2332.81
702.457	2357.38
702.646	2285.7
702.834	2386.05
703.023	2379.91
703.212	2252.94
703.4	2496.64
703.589	2310.28
703.777	2351.24
703.965	2349.19
704.154	2275.46
704.342	2310.28
704.531	2304.14
704.719	2400.39
704.907	2326.66
705.096	2402.44
705.284	2398.34
705.472	2279.56
705.661	2377.86
705.849	2291.85
706.037	2334.86
706.226	2392.2
706.414	2291.85
706.602	2334.86
706.79	2375.81
706.979	2349.19
707.167	2367.62
707.355	2283.66
707.543	2365.57
707.731	2357.38
707.919	2254.98
708.107	2297.99
708.296	2275.46
708.484	2308.23
708.672	2191.5
708.86	2248.84
709.048	2236.55
709.236	2328.71
709.424	2181.26
709.612	2357.38
709.8	2203.79
709.988	2283.66
710.176	2234.5
710.364	2308.23
710.551	2375.81
710.739	2185.35
710.927	2316.42
711.115	2240.65
711.303	2291.85
711.491	2136.2
711.679	2310.28
711.866	2306.18
712.054	2316.42
712.242	2201.74
712.43	2295.94
712.617	2277.51
712.805	2334.86
712.993	2238.6
713.181	2144.39
713.368	2246.79
713.556	2234.5
713.744	2220.17
713.931	2441.35
714.119	2334.86
714.306	2252.94
714.494	2295.94
714.682	2226.31
714.869	2171.02
715.057	2171.02
715.244	2222.22
715.432	2185.35
715.619	2250.89
715.807	2232.46
715.994	2357.38
716.182	2185.35
716.369	2234.5
716.556	2261.13
716.744	2209.93
716.931	2209.93
717.119	2197.64
717.306	2158.73
717.493	2220.17
717.681	2201.74
717.868	2254.98
718.055	2265.22
718.242	2205.83
718.43	2269.32
718.617	2283.66
718.804	2140.3
718.991	2279.56
719.179	2193.55
719.366	2193.55
719.553	2234.5
719.74	2205.83
719.927	2185.35
720.114	2257.03
720.301	2242.7
720.488	2171.02
720.676	2121.87
720.863	2302.09
721.05	2357.38
721.237	2318.47
721.424	2252.94
721.611	2209.93
721.798	2226.31
721.985	2189.45
722.172	2283.66
722.358	2300.04
722.545	2269.32
722.732	2173.07
722.919	2197.64
723.106	2201.74
723.293	2236.55
723.48	2277.51
723.667	2259.08
723.853	2230.41
724.04	2240.65
724.227	2261.13
724.414	2275.46
724.6	2209.93
724.787	2132.11
724.974	2310.28
725.161	2216.07
725.347	2144.39
725.534	2283.66
725.72	2275.46
725.907	2189.45
726.094	2257.03
726.28	2078.86
726.467	2166.92
726.653	2250.89
726.84	2254.98
727.027	2234.5
727.213	2162.83
727.4	2261.13
727.586	2209.93
727.773	2259.08
727.959	2181.26
728.145	2300.04
728.332	2168.97
728.518	2244.74
728.705	2234.5
728.891	2271.37
729.077	2226.31
729.264	2072.72
729.45	2334.86
729.636	2304.14
729.823	2181.26
730.009	2250.89
730.195	2160.78
730.382	2216.07
730.568	2287.75
730.754	2168.97
730.94	2228.36
731.126	2138.25
731.313	2285.7
731.499	2171.02
731.685	2144.39
731.871	2187.4
732.057	2152.59
732.243	2162.83
732.429	2201.74
732.615	2347.14
732.801	2216.07
732.987	2154.63
733.173	2332.81
733.359	2152.59
733.545	2197.64
733.731	2119.82
733.917	2250.89
734.103	2279.56
734.289	2195.59
734.475	2218.12
734.661	2078.86
734.847	2287.75
735.033	2285.7
735.219	2189.45
735.404	2162.83
735.59	2248.84
735.776	2080.91
735.962	2201.74
736.148	2275.46
736.333	2150.54
736.519	2226.31
736.705	2138.25
736.89	2220.17
737.076	2154.63
737.262	2072.72
737.447	2136.2
737.633	2082.95
737.819	2054.28
738.004	2066.57
738.19	2128.01
738.375	2132.11
738.561	2103.43
738.747	2164.87
738.932	2097.29
739.118	2293.9
739.303	2128.01
739.489	2248.84
739.674	2197.64
739.859	2097.29
740.045	2103.43
740.23	2154.63
740.416	2101.39
740.601	2185.35
740.786	2076.81
740.972	2111.63
741.157	2130.06
741.342	2078.86
741.528	1996.94
741.713	2103.43
741.898	2044.04
742.084	1968.27
742.269	2009.23
742.454	2044.04
742.639	2099.34
742.824	2095.24
743.01	1933.45
743.195	2035.85
743.38	1949.84
743.565	1933.45
743.75	1972.36
743.935	2037.9
744.12	2021.52
744.305	1835.15
744.49	1953.93
744.675	2064.52
744.86	1915.02
745.045	1927.31
745.23	1990.8
745.415	1964.17
745.6	1857.68
745.785	2007.18
745.97	1925.26
746.155	2042
746.34	1917.07
746.525	1857.68
746.71	1939.6
746.895	1900.69
747.079	1775.76
747.264	1800.34
747.449	1915.02
747.634	1849.49
747.819	1751.18
748.003	1771.66
748.188	1777.81
748.373	1730.7
748.557	1896.59
748.742	1857.68
748.927	1697.94
749.111	1738.9
749.296	1783.95
749.481	1742.99
749.665	1730.7
749.85	1695.89
750.034	1726.61
750.219	1638.55
750.404	1659.03
750.588	1638.55
750.773	1642.64
750.957	1685.65
751.141	1779.86
751.326	1542.29
751.51	1517.72
751.695	1546.39
751.879	1630.35
752.064	1630.35
752.248	1587.35
752.432	1566.87
752.617	1501.33
752.801	1597.59
752.985	1480.85
753.17	1497.24
753.354	1484.95
753.538	1472.66
753.722	1595.54
753.907	1513.62
754.091	1472.66
754.275	1466.52
754.459	1493.14
754.643	1431.7
754.828	1382.55
755.012	1427.6
755.196	1413.27
755.38	1360.02
755.564	1398.93
755.748	1489.04
755.932	1462.42
756.116	1327.25
756.3	1296.53
756.484	1380.5
756.668	1314.97
756.852	1407.13
757.036	1325.21
757.22	1253.53
757.404	1331.35
757.588	1292.44
757.772	1296.53
757.956	1323.16
758.14	1247.38
758.323	1247.38
758.507	1255.58
758.691	1196.18
758.875	1185.94
759.059	1276.06
759.242	1255.58
759.426	1136.79
759.61	1132.7
759.794	1187.99
759.977	1214.62
760.161	1235.1
760.345	1194.14
760.528	1212.57
760.712	1099.93
760.895	1212.57
761.079	1153.18
761.263	1030.3
761.446	1112.22
761.63	1095.83
761.813	1083.55
761.997	1104.03
762.18	1081.5
762.364	1063.07
762.547	1040.54
762.731	1087.64
762.914	1147.03
763.098	1128.6
763.281	1157.27
763.464	1030.3
763.648	1067.16
763.831	1071.26
764.015	1030.3
764.198	1097.88
764.381	1075.35
764.564	1013.92
764.748	932
764.931	1093.79
765.114	1003.68
765.297	999.58
765.481	968.86
765.664	1071.26
765.847	964.76
766.03	1038.49
766.213	1005.72
766.397	948.38
766.58	948.38
766.763	979.1
766.946	1032.35
767.129	958.62
767.312	1007.77
767.495	989.34
767.678	989.34
767.861	942.24
768.044	895.13
768.227	983.2
768.41	966.81
768.593	915.61
768.776	975
768.959	907.42
769.142	972.96
769.324	841.89
769.507	862.37
769.69	915.61
769.873	876.7
770.056	950.43
770.239	882.85
770.421	866.46
770.604	981.15
770.787	870.56
770.97	886.94
771.152	827.55
771.335	862.37
771.518	891.04
771.7	903.32
771.883	932
772.066	762.02
772.248	886.94
772.431	866.46
772.613	819.36
772.796	854.17
772.978	825.5
773.161	807.07
773.343	843.93
773.526	835.74
773.708	872.61
773.891	751.78
774.073	835.74
774.256	843.93
774.438	802.97
774.621	792.73
774.803	805.02
774.985	850.08
775.168	815.26
775.35	792.73
775.532	757.92
775.715	739.49
775.897	712.86
776.079	735.39
776.261	731.3
776.444	678.05
776.626	743.58
776.808	780.45
776.99	645.28
777.173	645.28
777.355	639.14
777.537	710.82
777.719	721.06
777.901	630.95
778.083	669.86
778.265	667.81
778.447	614.56
778.629	624.8
778.811	598.18
778.993	618.66
779.175	696.48
779.357	733.34
779.539	555.17
779.721	557.22
779.903	710.82
780.085	665.76
780.267	624.8
780.449	598.18
780.631	719.01
780.812	602.27
780.994	499.88
781.176	569.51
781.358	575.65
781.54	557.22
781.721	538.79
781.903	567.46
782.085	546.98
782.267	534.69
782.448	471.2
782.63	518.31
782.812	426.15
782.993	643.23
783.175	514.21
783.357	538.79
783.538	526.5
783.72	528.55
783.901	587.94
784.083	534.69
784.264	514.21
784.446	401.57
784.627	497.83
784.809	559.27
784.99	426.15
785.172	493.73
785.353	473.25
785.535	473.25
785.716	432.29
785.897	506.02
786.079	409.76
786.26	524.45
786.441	493.73
786.623	452.77
786.804	411.81
786.985	354.47
787.167	479.4
787.348	401.57
787.529	465.06
787.71	495.78
787.891	444.58
788.073	395.43
788.254	360.61
788.435	444.58
788.616	387.24
788.797	333.99
788.978	428.2
789.159	403.62
789.34	424.1
789.522	350.37
789.703	329.89
789.884	399.52
790.065	395.43
790.246	436.39
790.427	325.8
790.607	379.04
790.788	403.62
790.969	350.37
791.15	366.76
791.331	346.28
791.512	374.95
791.693	350.37
791.874	415.91
792.054	411.81
792.235	377
792.416	321.7
792.597	342.18
792.778	303.27
792.958	415.91
793.139	321.7
793.32	319.65
793.5	348.33
793.681	377
793.862	276.65
794.042	333.99
794.223	301.22
794.404	252.07
794.584	301.22
794.765	266.41
794.945	286.89
795.126	346.28
795.306	319.65
795.487	409.76
795.667	278.69
795.848	352.42
796.028	309.41
796.209	262.31
796.389	303.27
796.57	315.56
796.75	333.99
796.93	307.37
797.111	186.54
797.291	284.84
797.471	317.61
797.652	329.89
797.832	268.45
798.012	209.06
798.192	178.34
798.373	268.45
798.553	243.88
798.733	229.54
798.913	276.65
799.093	243.88
799.274	272.55
799.454	198.82
799.634	313.51
799.814	295.08
799.994	293.03
800.174	215.21
800.354	221.35
800.534	266.41
800.714	284.84
800.894	178.34
801.074	284.84
801.254	186.54
801.434	235.69
801.614	268.45
801.794	217.26
801.974	809.12
802.154	252.07
802.334	202.92
802.514	219.3
802.693	243.88
802.873	221.35
803.053	301.22
803.233	219.3
803.413	252.07
803.592	194.73
803.772	270.5
803.952	221.35
804.131	237.74
804.311	188.58
804.491	221.35
804.67	196.78
804.85	161.96
805.03	194.73
805.209	293.03
805.389	141.48
805.568	204.97
805.748	180.39
805.928	223.4
806.107	235.69
806.287	221.35
806.466	143.53
806.646	170.15
806.825	186.54
807.004	256.17
807.184	227.5
807.363	235.69
807.543	196.78
807.722	196.78
807.901	239.78
808.081	278.69
808.26	147.62
808.439	170.15
808.619	204.97
808.798	186.54
808.977	180.39
809.156	254.12
809.336	151.72
809.515	252.07
809.694	260.26
809.873	186.54
810.052	106.67
810.231	182.44
810.411	213.16
810.59	143.53
810.769	157.86
810.948	182.44
811.127	139.43
811.306	104.62
811.485	159.91
811.664	241.83
811.843	137.38
812.022	96.43
812.201	88.23
812.38	170.15
812.559	149.67
812.737	237.74
812.916	145.58
813.095	174.25
813.274	139.43
813.453	157.86
813.632	118.95
813.811	194.73
813.989	133.29
814.168	170.15
814.347	166.06
814.526	164.01
814.704	237.74
814.883	178.34
815.062	67.75
815.24	145.58
815.419	98.47
815.598	157.86
815.776	100.52
815.955	153.77
816.133	129.19
816.312	80.04
816.49	125.1
816.669	129.19
816.847	145.58
817.026	123.05
817.204	100.52
817.383	80.04
817.561	90.28
817.74	164.01
817.918	112.81
818.097	145.58
818.275	131.24
818.453	129.19
818.632	129.19
818.81	133.29
818.988	123.05
819.167	125.1
819.345	151.72
819.523	153.77
819.701	123.05
819.879	104.62
820.058	73.9
820.236	153.77
820.414	145.58
820.592	114.86
820.77	133.29
820.948	161.96
821.127	92.33
821.305	108.71
821.483	22.7
821.661	147.62
821.839	131.24
822.017	118.95
822.195	55.47
822.373	186.54
822.551	139.43
822.729	118.95
822.907	121
823.085	63.66
823.262	145.58
823.44	55.47
823.618	51.37
823.796	106.67
823.974	51.37
824.152	104.62
824.329	59.56
824.507	137.38
824.685	100.52
824.863	106.67
825.04	157.86
825.218	180.39
825.396	-16.21
825.574	90.28
825.751	69.8
825.929	137.38
826.107	104.62
826.284	125.1
826.462	108.71
826.639	106.67
826.817	88.23
826.994	32.94
827.172	116.9
827.349	170.15
827.527	133.29
827.704	147.62
827.882	98.47
828.059	153.77
828.237	18.6
828.414	90.28
828.591	71.85
828.769	198.82
828.946	77.99
829.124	112.81
829.301	147.62
829.478	63.66
829.655	145.58
829.833	90.28
830.01	37.03
830.187	63.66
830.364	86.19
830.542	166.06
830.719	106.67
830.896	133.29
831.073	45.23
831.25	133.29
831.427	96.43
831.604	112.81
831.782	6.31
831.959	53.42
832.136	90.28
832.313	123.05
832.49	6.31
832.667	108.71
832.844	77.99
833.021	174.25
833.198	4.27
833.374	57.51
833.551	131.24
833.728	106.67
833.905	90.28
834.082	-10.07
834.259	14.51
834.436	118.95
834.612	157.86
834.789	67.75
834.966	96.43
835.143	86.19
835.319	129.19
835.496	75.95
835.673	129.19
835.85	174.25
836.026	104.62
836.203	129.19
836.38	32.94
836.556	98.47
836.733	75.95
836.909	100.52
837.086	125.1
837.262	10.41
837.439	26.79
837.616	20.65
837.792	63.66
837.968	75.95
838.145	32.94
838.321	98.47
838.498	41.13
838.674	73.9
838.851	96.43
839.027	73.9
839.203	92.33
839.38	69.8
839.556	22.7
839.732	47.27
839.909	57.51
840.085	26.79
840.261	45.23
840.437	141.48
840.614	14.51
840.79	49.32
840.966	82.09
841.142	39.08
841.318	0.17
841.494	104.62
841.671	80.04
841.847	20.65
842.023	47.27
842.199	55.47
842.375	90.28
842.551	-5.97
842.727	73.9
842.903	159.91
843.079	-26.45
843.255	51.37
843.431	32.94
843.607	80.04
843.783	-24.4
843.959	-32.6
844.134	41.13
844.31	75.95
844.486	-8.02
844.662	32.94
844.838	45.23
845.013	67.75
845.189	141.48
845.365	55.47
845.541	92.33
845.716	34.99
845.892	75.95
846.068	26.79
846.244	39.08
846.419	55.47
846.595	80.04
846.77	47.27
846.946	73.9
847.122	92.33
847.297	14.51
847.473	51.37
847.648	-51.03
847.824	157.86
847.999	14.51
848.175	45.23
848.35	61.61
848.526	49.32
848.701	43.18
848.876	80.04
849.052	80.04
849.227	73.9
849.403	8.36
849.578	55.47
849.753	-67.41
849.929	14.51
850.104	53.42
850.279	77.99
850.454	71.85
850.63	71.85
850.805	22.7
850.98	88.23
851.155	47.27
851.33	80.04
851.505	-106.32
851.681	96.43
851.856	16.55
852.031	59.56
852.206	63.66
852.381	-10.07
852.556	43.18
852.731	22.7
852.906	34.99
853.081	61.61
853.256	84.14
853.431	14.51
853.606	47.27
853.781	-46.93
853.956	61.61
854.131	63.66
854.305	0.17
854.48	22.7
854.655	-44.88
854.83	47.27
855.005	88.23
855.18	-26.45
855.354	63.66
855.529	-16.21
855.704	24.75
855.879	0.17
856.053	-18.26
856.228	30.89
856.403	57.51
856.577	57.51
856.752	16.55
856.926	30.89
857.101	24.75
857.276	-34.64
857.45	14.51
857.625	75.95
857.799	-30.55
857.974	-1.88
858.148	-10.07
858.323	-14.17
858.497	-22.36
858.672	67.75
858.846	26.79
859.02	145.58
859.195	-1.88
859.369	59.56
859.543	94.38
859.718	104.62
859.892	26.79
860.066	-14.17
860.241	30.89
860.415	-1.88
860.589	6.31
860.763	34.99
860.938	112.81
861.112	57.51
861.286	57.51
861.46	80.04
861.634	-38.74
861.808	82.09
861.982	22.7
862.157	14.51
862.331	-34.64
862.505	-42.84
862.679	-36.69
862.853	-20.31
863.027	39.08
863.201	57.51
863.375	-22.36
863.549	73.9
863.722	30.89
863.896	-14.17
864.07	-30.55
864.244	24.75
864.418	6.31
864.592	24.75
864.766	2.22
864.939	-18.26
865.113	-36.69
865.287	59.56
865.461	-40.79
865.634	16.55
865.808	-18.26
865.982	-10.07
866.156	-1.88
866.329	14.51
866.503	43.18
866.676	73.9
866.85	-14.17
867.024	16.55
867.197	-3.93
867.371	63.66
867.544	12.46
867.718	-28.5
867.891	96.43
868.065	-1.88
868.238	26.79
868.412	57.51
868.585	30.89
868.759	-8.02
868.932	-16.21
869.105	-32.6
869.279	67.75
869.452	-71.51
869.625	39.08
869.799	-16.21
869.972	-12.12
870.145	39.08
870.319	55.47
870.492	39.08
870.665	30.89
870.838	24.75
871.011	-53.08
871.185	18.6
871.358	43.18
871.531	61.61
871.704	34.99
871.877	43.18
872.05	20.65
872.223	-61.27
872.396	37.03
872.569	-3.93
872.742	-5.97
872.915	84.14
873.088	14.51
873.261	-10.07
873.434	24.75
873.607	-14.17
873.78	57.51
873.953	-18.26
874.126	26.79
874.299	30.89
874.471	-26.45
874.644	43.18
874.817	63.66
874.99	37.03
875.163	-24.4
875.335	-5.97
875.508	18.6
875.681	8.36
875.853	41.13
876.026	-40.79
876.199	69.8
876.371	18.6
876.544	41.13
876.717	-22.36
876.889	-16.21
877.062	32.94
877.234	-10.07
877.407	-48.98
877.579	2.22
877.752	47.27
877.924	26.79
878.097	47.27
878.269	-59.22
878.442	-14.17
878.614	6.31
878.786	51.37
878.959	92.33
879.131	4.27
879.303	-85.84
879.476	80.04
879.648	-14.17
879.82	39.08
879.993	53.42
880.165	-40.79
880.337	2.22
880.509	-5.97
880.681	-10.07
880.854	22.7
881.026	-10.07
881.198	39.08
881.37	22.7
881.542	8.36
881.714	63.66
881.886	71.85
882.058	-18.26
882.23	131.24
882.402	20.65
882.574	98.47
882.746	-34.64
882.918	43.18
883.09	24.75
883.262	-34.64
883.434	-46.93
883.606	-22.36
883.778	-65.36
883.95	-10.07
884.122	-18.26
884.293	80.04
884.465	71.85
884.637	-18.26
884.809	6.31
884.98	77.99
885.152	10.41
885.324	-16.21
885.496	30.89
885.667	65.71
885.839	22.7
886.011	43.18
886.182	22.7
886.354	6.31
886.525	-30.55
886.697	-57.17
886.869	-10.07
887.04	-30.55
887.212	18.6
887.383	43.18
887.555	-67.41
887.726	8.36
887.897	-42.84
888.069	63.66
888.24	28.84
888.412	80.04
888.583	-73.56
888.754	98.47
888.926	-75.6
889.097	-57.17
889.268	67.75
889.44	41.13
889.611	-77.65
889.782	-96.08
889.953	-5.97
890.125	65.71
890.296	34.99
890.467	14.51
890.638	55.47
890.809	16.55
890.98	39.08
891.151	84.14
891.323	41.13
891.494	-8.02
891.665	-20.31
891.836	-77.65
892.007	-34.64
892.178	-40.79
892.349	-5.97
892.52	-26.45
892.691	-38.74
892.862	-59.22
893.032	-24.4
893.203	100.52
893.374	-40.79
893.545	-14.17
893.716	-59.22
893.887	-42.84
894.057	6.31
894.228	-10.07
894.399	-51.03
894.57	22.7
894.74	-12.12
894.911	-20.31
895.082	-8.02
895.253	-32.6
895.423	32.94
895.594	-10.07
895.764	32.94
895.935	18.6
896.106	6.31
896.276	45.23
896.447	55.47
896.617	30.89
896.788	41.13
896.958	14.51
897.129	-10.07
897.299	-26.45
897.47	63.66
897.64	-14.17
897.81	-14.17
897.981	18.6
898.151	-14.17
898.322	-1.88
898.492	43.18
898.662	-98.13
898.832	-42.84
899.003	-5.97
899.173	28.84
899.343	-48.98
899.513	-12.12
