Data from USB4F104151__30__14-42-49-105.txt Node

Date: Thu Mar 13 14:42:49 EDT 2025
User: louis
Spectrometer: USB4F10415
Trigger mode: 4
Integration Time (sec): 2.000000E-2
Scans to average: 1
Electric dark correction enabled: true
Nonlinearity correction enabled: false
Boxcar width: 0
XAxis mode: Wavelengths
Number of Pixels in Spectrum: 3648
>>>>>Begin Spectral Data<<<<<
178.204	-80.55
178.424	-80.55
178.644	-80.55
178.864	-98.99
179.084	-125.61
179.304	38.23
179.524	44.37
179.744	-45.74
179.964	13.65
180.184	3.41
180.404	19.8
180.624	-10.92
180.844	-2.73
181.064	-4.78
181.283	5.46
181.503	-27.31
181.723	-33.45
181.943	-72.36
182.163	85.33
182.383	77.14
182.602	-10.92
182.822	-12.97
183.042	32.08
183.262	3.41
183.482	68.95
183.701	-29.35
183.921	77.14
184.141	-45.74
184.361	81.24
184.58	25.94
184.8	27.99
185.02	23.89
185.239	27.99
185.459	38.23
185.679	44.37
185.898	13.65
186.118	30.04
186.338	27.99
186.557	93.52
186.777	-45.74
186.997	-12.97
187.216	36.18
187.436	81.24
187.655	7.51
187.875	-43.69
188.095	56.66
188.314	77.14
188.534	93.52
188.753	17.75
188.973	3.41
189.192	60.76
189.412	27.99
189.631	60.76
189.851	15.7
190.07	77.14
190.29	23.89
190.509	56.66
190.729	-0.68
190.948	44.37
191.168	97.62
191.387	44.37
191.607	-2.73
191.826	-8.87
192.045	19.8
192.265	-17.07
192.484	32.08
192.704	3.41
192.923	36.18
193.142	17.75
193.362	3.41
193.581	34.13
193.8	-8.87
194.02	36.18
194.239	-8.87
194.458	48.47
194.678	3.41
194.897	21.85
195.116	-45.74
195.335	-15.02
195.555	54.61
195.774	30.04
195.993	21.85
196.212	-60.07
196.432	19.8
196.651	52.56
196.87	-8.87
197.089	109.91
197.308	-12.97
197.528	38.23
197.747	-8.87
197.966	64.85
198.185	152.92
198.404	-2.73
198.623	-2.73
198.842	46.42
199.062	79.19
199.281	52.56
199.5	15.7
199.719	-35.5
199.938	34.13
200.157	54.61
200.376	30.04
200.595	73.04
200.814	-12.97
201.033	11.61
201.252	-6.83
201.471	15.7
201.69	95.57
201.909	13.65
202.128	-23.21
202.347	32.08
202.566	60.76
202.785	64.85
203.004	-15.02
203.223	75.09
203.442	46.42
203.661	-2.73
203.879	-25.26
204.098	-2.73
204.317	36.18
204.536	56.66
204.755	-0.68
204.974	-2.73
205.193	77.14
205.411	40.28
205.63	30.04
205.849	23.89
206.068	44.37
206.287	-2.73
206.505	77.14
206.724	-12.97
206.943	44.37
207.162	19.8
207.381	13.65
207.599	44.37
207.818	42.32
208.037	68.95
208.255	-4.78
208.474	52.56
208.693	-21.16
208.911	66.9
209.13	5.46
209.349	27.99
209.567	40.28
209.786	-8.87
210.005	89.43
210.223	-25.26
210.442	32.08
210.661	85.33
210.879	36.18
211.098	32.08
211.316	27.99
211.535	-4.78
211.753	11.61
211.972	58.71
212.191	-19.11
212.409	46.42
212.628	75.09
212.846	19.8
213.065	-12.97
213.283	44.37
213.502	3.41
213.72	13.65
213.938	44.37
214.157	38.23
214.375	81.24
214.594	66.9
214.812	36.18
215.031	11.61
215.249	21.85
215.467	3.41
215.686	-51.88
215.904	105.81
216.122	46.42
216.341	5.46
216.559	32.08
216.778	134.48
216.996	40.28
217.214	79.19
217.432	-23.21
217.651	27.99
217.869	-21.16
218.087	50.52
218.306	-8.87
218.524	56.66
218.742	23.89
218.96	91.48
219.179	-4.78
219.397	-45.74
219.615	77.14
219.833	32.08
220.051	3.41
220.27	58.71
220.488	58.71
220.706	71
220.924	-29.35
221.142	36.18
221.36	19.8
221.578	71
221.796	77.14
222.015	44.37
222.233	25.94
222.451	79.19
222.669	52.56
222.887	54.61
223.105	60.76
223.323	11.61
223.541	11.61
223.759	75.09
223.977	19.8
224.195	-0.68
224.413	-8.87
224.631	32.08
224.849	1.37
225.067	-37.55
225.285	13.65
225.503	13.65
225.721	-41.64
225.939	-4.78
226.157	30.04
226.375	136.53
226.592	19.8
226.81	38.23
227.028	11.61
227.246	38.23
227.464	32.08
227.682	46.42
227.9	36.18
228.117	79.19
228.335	73.04
228.553	62.8
228.771	44.37
228.989	-41.64
229.206	36.18
229.424	44.37
229.642	-29.35
229.86	-0.68
230.077	36.18
230.295	9.56
230.513	126.29
230.731	19.8
230.948	40.28
231.166	52.56
231.384	-0.68
231.601	-21.16
231.819	97.62
232.037	-45.74
232.254	1.37
232.472	-4.78
232.689	-37.55
232.907	87.38
233.125	87.38
233.342	3.41
233.56	23.89
233.777	27.99
233.995	7.51
234.213	38.23
234.43	-21.16
234.648	-58.03
234.865	-25.26
235.083	-45.74
235.3	27.99
235.518	52.56
235.735	75.09
235.953	44.37
236.17	-35.5
236.388	11.61
236.605	-0.68
236.822	-41.64
237.04	44.37
237.257	-6.83
237.475	-43.69
237.692	68.95
237.909	60.76
238.127	19.8
238.344	56.66
238.562	19.8
238.779	-37.55
238.996	-2.73
239.214	-49.83
239.431	93.52
239.648	83.28
239.865	-37.55
240.083	93.52
240.3	-4.78
240.517	-19.11
240.735	75.09
240.952	95.57
241.169	60.76
241.386	46.42
241.603	23.89
241.821	-92.84
242.038	36.18
242.255	27.99
242.472	-21.16
242.689	11.61
242.907	-8.87
243.124	23.89
243.341	48.47
243.558	85.33
243.775	-45.74
243.992	-37.55
244.209	46.42
244.426	58.71
244.643	68.95
244.86	9.56
245.078	-12.97
245.295	-51.88
245.512	-62.12
245.729	-4.78
245.946	19.8
246.163	-23.21
246.38	3.41
246.597	19.8
246.814	40.28
247.031	-21.16
247.248	52.56
247.464	56.66
247.681	-0.68
247.898	44.37
248.115	-45.74
248.332	36.18
248.549	87.38
248.766	27.99
248.983	56.66
249.2	11.61
249.417	11.61
249.633	-0.68
249.85	52.56
250.067	-12.97
250.284	11.61
250.501	50.52
250.717	62.8
250.934	-0.68
251.151	38.23
251.368	11.61
251.585	46.42
251.801	9.56
252.018	71
252.235	103.76
252.451	44.37
252.668	-21.16
252.885	-4.78
253.102	-12.97
253.318	44.37
253.535	-17.07
253.752	-6.83
253.968	48.47
254.185	44.37
254.401	3.41
254.618	40.28
254.835	73.04
255.051	109.91
255.268	64.85
255.484	36.18
255.701	-17.07
255.917	77.14
256.134	-51.88
256.351	52.56
256.567	15.7
256.784	60.76
257	-33.45
257.217	56.66
257.433	85.33
257.65	19.8
257.866	66.9
258.082	46.42
258.299	36.18
258.515	13.65
258.732	-4.78
258.948	73.04
259.165	38.23
259.381	19.8
259.597	60.76
259.814	-31.4
260.03	-0.68
260.246	-25.26
260.463	3.41
260.679	99.67
260.895	13.65
261.112	54.61
261.328	15.7
261.544	-45.74
261.761	87.38
261.977	-8.87
262.193	-37.55
262.409	54.61
262.626	50.52
262.842	38.23
263.058	25.94
263.274	11.61
263.49	-19.11
263.707	21.85
263.923	15.7
264.139	5.46
264.355	-4.78
264.571	146.77
264.787	23.89
265.004	27.99
265.22	1.37
265.436	11.61
265.652	32.08
265.868	40.28
266.084	107.86
266.3	87.38
266.516	-0.68
266.732	-21.16
266.948	13.65
267.164	-4.78
267.38	30.04
267.596	73.04
267.812	-47.79
268.028	44.37
268.244	5.46
268.46	44.37
268.676	-21.16
268.892	7.51
269.108	19.8
269.324	77.14
269.54	-2.73
269.756	9.56
269.972	-51.88
270.188	62.8
270.403	-23.21
270.619	17.75
270.835	-29.35
271.051	97.62
271.267	-58.03
271.483	62.8
271.698	101.72
271.914	52.56
272.13	-21.16
272.346	21.85
272.562	15.7
272.777	36.18
272.993	46.42
273.209	-19.11
273.425	15.7
273.64	34.13
273.856	27.99
274.072	-2.73
274.287	-4.78
274.503	77.14
274.719	13.65
274.934	9.56
275.15	-21.16
275.366	38.23
275.581	52.56
275.797	46.42
276.012	-21.16
276.228	-4.78
276.444	19.8
276.659	44.37
276.875	44.37
277.09	-25.26
277.306	-19.11
277.521	-33.45
277.737	52.56
277.952	-4.78
278.168	50.52
278.383	27.99
278.599	15.7
278.814	23.89
279.03	-19.11
279.245	116.05
279.461	-10.92
279.676	46.42
279.892	-68.27
280.107	50.52
280.322	68.95
280.538	46.42
280.753	64.85
280.969	46.42
281.184	27.99
281.399	19.8
281.615	62.8
281.83	46.42
282.045	44.37
282.26	30.04
282.476	-4.78
282.691	40.28
282.906	32.08
283.122	27.99
283.337	-0.68
283.552	56.66
283.767	-27.31
283.983	52.56
284.198	-33.45
284.413	68.95
284.628	-17.07
284.843	87.38
285.058	68.95
285.274	36.18
285.489	13.65
285.704	58.71
285.919	52.56
286.134	52.56
286.349	44.37
286.564	-0.68
286.779	40.28
286.995	40.28
287.21	-10.92
287.425	62.8
287.64	-23.21
287.855	60.76
288.07	-19.11
288.285	71
288.5	27.99
288.715	36.18
288.93	-2.73
289.145	3.41
289.36	19.8
289.575	11.61
289.79	23.89
290.004	15.7
290.219	48.47
290.434	-12.97
290.649	21.85
290.864	23.89
291.079	19.8
291.294	44.37
291.509	-8.87
291.724	54.61
291.938	3.41
292.153	68.95
292.368	7.51
292.583	11.61
292.798	81.24
293.012	77.14
293.227	48.47
293.442	5.46
293.657	44.37
293.871	56.66
294.086	60.76
294.301	85.33
294.516	5.46
294.73	44.37
294.945	87.38
295.16	42.32
295.374	38.23
295.589	52.56
295.804	27.99
296.018	7.51
296.233	48.47
296.447	46.42
296.662	5.46
296.877	1.37
297.091	60.76
297.306	52.56
297.52	-45.74
297.735	-10.92
297.949	60.76
298.164	44.37
298.378	54.61
298.593	40.28
298.807	9.56
299.022	52.56
299.236	81.24
299.451	11.61
299.665	44.37
299.88	66.9
300.094	60.76
300.309	-12.97
300.523	54.61
300.737	7.51
300.952	23.89
301.166	17.75
301.381	11.61
301.595	64.85
301.809	-17.07
302.024	50.52
302.238	40.28
302.452	62.8
302.667	-4.78
302.881	58.71
303.095	60.76
303.309	95.57
303.524	27.99
303.738	19.8
303.952	11.61
304.166	27.99
304.381	-12.97
304.595	11.61
304.809	52.56
305.023	68.95
305.237	-74.41
305.452	68.95
305.666	32.08
305.88	77.14
306.094	3.41
306.308	34.13
306.522	-4.78
306.736	-2.73
306.95	27.99
307.164	19.8
307.379	-2.73
307.593	15.7
307.807	15.7
308.021	-4.78
308.235	15.7
308.449	3.41
308.663	62.8
308.877	91.48
309.091	54.61
309.305	71
309.519	-4.78
309.733	42.32
309.947	-35.5
310.161	27.99
310.374	126.29
310.588	68.95
310.802	-12.97
311.016	30.04
311.23	44.37
311.444	62.8
311.658	-21.16
311.872	93.52
312.085	95.57
312.299	56.66
312.513	-4.78
312.727	27.99
312.941	27.99
313.154	23.89
313.368	9.56
313.582	52.56
313.796	46.42
314.009	36.18
314.223	-31.4
314.437	-12.97
314.651	30.04
314.864	15.7
315.078	-12.97
315.292	38.23
315.505	-4.78
315.719	38.23
315.933	-17.07
316.146	32.08
316.36	-62.12
316.573	42.32
316.787	34.13
317.001	60.76
317.214	19.8
317.428	64.85
317.641	-19.11
317.855	-4.78
318.068	101.72
318.282	-17.07
318.495	87.38
318.709	85.33
318.922	-15.02
319.136	40.28
319.349	34.13
319.563	60.76
319.776	109.91
319.99	13.65
320.203	17.75
320.417	19.8
320.63	23.89
320.843	71
321.057	40.28
321.27	38.23
321.483	34.13
321.697	109.91
321.91	46.42
322.124	15.7
322.337	46.42
322.55	13.65
322.763	-12.97
322.977	-17.07
323.19	48.47
323.403	-4.78
323.617	103.76
323.83	95.57
324.043	-10.92
324.256	107.86
324.469	11.61
324.683	118.1
324.896	-58.03
325.109	60.76
325.322	15.7
325.535	95.57
325.748	11.61
325.962	46.42
326.175	62.8
326.388	46.42
326.601	83.28
326.814	75.09
327.027	5.46
327.24	103.76
327.453	-23.21
327.666	79.19
327.879	58.71
328.092	-27.31
328.305	73.04
328.518	36.18
328.731	-0.68
328.944	34.13
329.157	48.47
329.37	-49.83
329.583	-4.78
329.796	77.14
330.009	-37.55
330.222	21.85
330.435	79.19
330.648	44.37
330.861	21.85
331.073	77.14
331.286	25.94
331.499	38.23
331.712	19.8
331.925	-31.4
332.138	-51.88
332.35	60.76
332.563	-19.11
332.776	73.04
332.989	-2.73
333.202	3.41
333.414	3.41
333.627	19.8
333.84	93.52
334.053	46.42
334.265	60.76
334.478	-37.55
334.691	32.08
334.903	19.8
335.116	32.08
335.329	38.23
335.541	-21.16
335.754	87.38
335.966	89.43
336.179	3.41
336.392	3.41
336.604	-51.88
336.817	50.52
337.029	68.95
337.242	27.99
337.454	95.57
337.667	-31.4
337.88	68.95
338.092	97.62
338.305	62.8
338.517	68.95
338.729	73.04
338.942	77.14
339.154	-2.73
339.367	15.7
339.579	38.23
339.792	13.65
340.004	85.33
340.217	3.41
340.429	54.61
340.641	-37.55
340.854	25.94
341.066	44.37
341.278	79.19
341.491	36.18
341.703	30.04
341.915	-25.26
342.128	95.57
342.34	40.28
342.552	23.89
342.764	36.18
342.977	44.37
343.189	19.8
343.401	64.85
343.613	-2.73
343.826	40.28
344.038	-29.35
344.25	36.18
344.462	34.13
344.674	-68.27
344.886	58.71
345.099	60.76
345.311	58.71
345.523	36.18
345.735	-6.83
345.947	81.24
346.159	11.61
346.371	62.8
346.583	23.89
346.795	44.37
347.007	62.8
347.219	-12.97
347.431	19.8
347.643	60.76
347.855	-10.92
348.067	52.56
348.279	21.85
348.491	5.46
348.703	68.95
348.915	-21.16
349.127	48.47
349.339	-6.83
349.551	15.7
349.763	71
349.975	-6.83
350.187	36.18
350.399	101.72
350.61	-4.78
350.822	-0.68
351.034	3.41
351.246	-12.97
351.458	38.23
351.669	68.95
351.881	11.61
352.093	150.87
352.305	136.53
352.517	73.04
352.728	60.76
352.94	77.14
353.152	30.04
353.363	3.41
353.575	73.04
353.787	30.04
353.999	52.56
354.21	52.56
354.422	68.95
354.633	5.46
354.845	19.8
355.057	54.61
355.268	19.8
355.48	36.18
355.692	7.51
355.903	-17.07
356.115	105.81
356.326	17.75
356.538	56.66
356.749	44.37
356.961	-19.11
357.172	68.95
357.384	68.95
357.595	7.51
357.807	-35.5
358.018	11.61
358.23	-37.55
358.441	46.42
358.653	60.76
358.864	-0.68
359.075	7.51
359.287	81.24
359.498	42.32
359.709	71
359.921	-23.21
360.132	60.76
360.344	62.8
360.555	27.99
360.766	64.85
360.977	-49.83
361.189	40.28
361.4	32.08
361.611	118.1
361.823	44.37
362.034	-33.45
362.245	-39.59
362.456	27.99
362.667	109.91
362.879	62.8
363.09	9.56
363.301	93.52
363.512	73.04
363.723	30.04
363.935	77.14
364.146	101.72
364.357	46.42
364.568	-10.92
364.779	-25.26
364.99	-2.73
365.201	32.08
365.412	114
365.623	-21.16
365.834	27.99
366.045	52.56
366.256	97.62
366.467	48.47
366.678	27.99
366.889	-8.87
367.1	-33.45
367.311	77.14
367.522	77.14
367.733	52.56
367.944	64.85
368.155	-37.55
368.366	38.23
368.577	15.7
368.788	64.85
368.999	48.47
369.209	44.37
369.42	87.38
369.631	167.25
369.842	9.56
370.053	21.85
370.264	19.8
370.474	23.89
370.685	101.72
370.896	130.39
371.107	101.72
371.317	54.61
371.528	15.7
371.739	68.95
371.95	-41.64
372.16	66.9
372.371	21.85
372.582	15.7
372.792	52.56
373.003	21.85
373.214	5.46
373.424	56.66
373.635	-37.55
373.846	95.57
374.056	54.61
374.267	64.85
374.477	44.37
374.688	11.61
374.898	50.52
375.109	36.18
375.319	126.29
375.53	68.95
375.74	40.28
375.951	93.52
376.161	46.42
376.372	60.76
376.582	23.89
376.793	32.08
377.003	11.61
377.214	-6.83
377.424	21.85
377.635	44.37
377.845	36.18
378.055	32.08
378.266	56.66
378.476	62.8
378.686	-2.73
378.897	71
379.107	89.43
379.317	124.24
379.528	-10.92
379.738	120.15
379.948	95.57
380.158	105.81
380.369	3.41
380.579	97.62
380.789	89.43
380.999	64.85
381.21	44.37
381.42	118.1
381.63	23.89
381.84	52.56
382.05	11.61
382.261	77.14
382.471	109.91
382.681	30.04
382.891	34.13
383.101	44.37
383.311	19.8
383.521	21.85
383.731	79.19
383.941	89.43
384.151	44.37
384.361	68.95
384.571	71
384.781	60.76
384.991	54.61
385.201	56.66
385.411	46.42
385.621	52.56
385.831	44.37
386.041	134.48
386.251	40.28
386.461	122.2
386.671	68.95
386.881	99.67
387.091	-4.78
387.301	44.37
387.511	38.23
387.72	-10.92
387.93	38.23
388.14	5.46
388.35	-0.68
388.56	105.81
388.769	46.42
388.979	97.62
389.189	44.37
389.399	-2.73
389.609	-12.97
389.818	79.19
390.028	23.89
390.238	97.62
390.447	3.41
390.657	71
390.867	85.33
391.076	99.67
391.286	79.19
391.496	19.8
391.705	-31.4
391.915	5.46
392.125	103.76
392.334	3.41
392.544	38.23
392.753	93.52
392.963	-0.68
393.172	95.57
393.382	13.65
393.591	183.63
393.801	19.8
394.01	134.48
394.22	144.72
394.429	68.95
394.639	-6.83
394.848	60.76
395.058	21.85
395.267	150.87
395.477	85.33
395.686	60.76
395.895	30.04
396.105	179.54
396.314	36.18
396.524	64.85
396.733	11.61
396.942	134.48
397.152	81.24
397.361	152.92
397.57	114
397.78	42.32
397.989	93.52
398.198	183.63
398.407	75.09
398.617	144.72
398.826	130.39
399.035	77.14
399.244	77.14
399.453	93.52
399.663	134.48
399.872	77.14
400.081	-10.92
400.29	122.2
400.499	126.29
400.708	111.96
400.917	87.38
401.127	122.2
401.336	-17.07
401.545	236.88
401.754	107.86
401.963	77.14
402.172	85.33
402.381	150.87
402.59	66.9
402.799	148.82
403.008	118.1
403.217	73.04
403.426	64.85
403.635	52.56
403.844	118.1
404.053	136.53
404.262	85.33
404.471	208.21
404.68	85.33
404.888	77.14
405.097	91.48
405.306	109.91
405.515	136.53
405.724	191.83
405.933	138.58
406.142	111.96
406.35	193.87
406.559	103.76
406.768	171.35
406.977	236.88
407.185	218.45
407.394	62.8
407.603	109.91
407.812	236.88
408.02	171.35
408.229	191.83
408.438	183.63
408.646	226.64
408.855	263.51
409.064	212.31
409.272	220.5
409.481	183.63
409.69	169.3
409.898	226.64
410.107	265.55
410.315	232.79
410.524	245.07
410.733	339.28
410.941	294.22
411.15	355.66
411.358	265.55
411.567	361.81
411.775	363.86
411.984	324.94
412.192	322.9
412.401	351.57
412.609	447.82
412.818	429.39
413.026	392.53
413.234	449.87
413.443	439.63
413.651	466.25
413.86	468.3
414.068	501.07
414.276	478.54
414.485	533.84
414.693	560.46
414.901	642.38
415.11	669
415.318	564.56
415.526	546.13
415.734	701.77
415.943	644.43
416.151	699.72
416.359	699.72
416.567	642.38
416.776	748.87
416.984	740.68
417.192	785.74
417.4	709.96
417.608	769.35
417.817	845.13
418.025	970.05
418.233	957.77
418.441	879.94
418.649	931.14
418.857	1066.31
419.065	1111.36
419.273	1037.64
419.481	1090.88
419.689	1234.24
419.897	1176.9
420.105	1207.62
420.313	1307.97
420.521	1350.98
420.729	1281.35
420.937	1398.08
421.145	1400.13
421.353	1461.57
421.561	1559.87
421.769	1629.5
421.977	1719.61
422.185	1645.88
422.393	1768.76
422.601	1785.15
422.809	1799.48
423.017	1826.11
423.224	1953.08
423.432	2092.34
423.64	2059.57
423.848	2272.56
424.056	2125.11
424.263	2260.27
424.471	2315.57
424.679	2348.34
424.887	2477.36
425.094	2563.37
425.302	2604.33
425.51	2567.47
425.718	2747.69
425.925	2743.6
426.133	2831.66
426.341	3104.04
426.548	3099.94
426.756	3210.53
426.964	3165.48
427.171	3480.86
427.379	3497.25
427.586	3726.62
427.794	3591.45
428.001	3779.87
428.209	4035.86
428.417	3816.73
428.624	4144.41
428.832	4148.5
429.039	4107.54
429.247	4222.23
429.454	4537.62
429.662	4803.85
429.869	4592.91
430.076	4844.81
430.284	4746.51
430.491	4904.2
430.699	5295.36
430.906	5240.07
431.114	5242.12
431.321	5514.5
431.528	5655.81
431.736	6065.4
431.943	6294.77
432.15	6067.45
432.358	6145.27
432.565	6386.93
432.772	6370.55
432.979	6839.53
433.187	6817.01
433.394	6929.64
433.601	7451.88
433.808	7417.06
434.016	7460.07
434.223	7474.4
434.43	8236.25
434.637	7967.96
434.844	8385.75
435.052	8553.68
435.259	8596.69
435.466	8680.66
435.673	8563.92
435.88	9082.06
436.087	9280.71
436.294	9489.6
436.501	9186.51
436.708	9528.52
436.915	9934.01
437.122	10218.68
437.329	10366.14
437.537	10532.02
437.743	10824.88
437.95	10542.26
438.157	11089.07
438.364	11535.53
438.571	11582.63
438.778	11469.99
438.985	12692.63
439.192	12149.92
439.399	12635.28
439.606	12244.12
439.813	13173.9
440.02	13925.5
440.227	13380.75
440.433	13366.41
440.64	13823.11
440.847	13782.15
441.054	14206.08
441.261	15033.46
441.467	14974.06
441.674	15324.27
441.881	15850.6
442.088	15670.37
442.294	15445.1
442.501	16108.64
442.708	16358.49
442.914	17001.55
443.121	18003.01
443.328	17044.56
443.534	18478.14
443.741	17749.06
443.948	17564.75
444.154	18959.41
444.361	18900.02
444.568	19147.83
444.774	19016.76
444.981	18981.94
445.187	19829.8
445.394	20788.25
445.6	20542.49
445.807	22346.75
446.013	21482.51
446.22	21603.34
446.426	22402.05
446.633	22801.4
446.839	23856.11
447.046	22703.1
447.252	23915.5
447.459	23897.06
447.665	24058.85
447.871	24814.55
448.078	26063.82
448.284	24943.58
448.491	25627.6
448.697	26239.94
448.903	27067.32
449.11	27231.16
449.316	26573.76
449.522	26954.68
449.728	27882.41
449.935	28380.07
450.141	28060.59
450.347	29170.58
450.553	27837.36
450.76	28445.6
450.966	29602.71
451.172	28717.98
451.378	29606.8
451.584	29121.43
451.791	30004.11
451.997	29762.45
452.203	30239.62
452.409	30329.73
452.615	30282.63
452.821	29279.13
453.027	28988.31
453.233	30428.04
453.44	29199.26
453.646	29520.79
453.852	29901.71
454.058	30114.7
454.264	29139.86
454.47	29842.32
454.676	29107.1
454.882	30229.38
455.088	27560.88
455.294	28105.64
455.5	28642.21
455.705	28998.55
455.911	27638.7
456.117	27048.89
456.323	26895.29
456.529	25269.2
456.735	26559.42
456.941	25785.29
457.147	25519.06
457.352	24849.37
457.558	24552.41
457.764	24628.19
457.97	24171.49
458.176	23596.01
458.381	23720.94
458.587	22350.85
458.793	22406.14
458.999	21527.56
459.204	22834.17
459.41	22211.59
459.616	20800.54
459.821	20700.19
460.027	20716.57
460.233	20304.93
460.438	19266.61
460.644	19438.64
460.85	18693.18
461.055	18388.03
461.261	18312.25
461.466	17157.2
461.672	16440.41
461.878	17689.67
462.083	16510.04
462.289	16469.08
462.494	16225.37
462.7	15443.05
462.905	14746.74
463.111	15320.17
463.316	15283.31
463.522	15225.97
463.727	15240.3
463.932	15211.63
464.138	15266.92
464.343	15314.03
464.549	14589.05
464.754	15164.53
464.959	15027.31
465.165	15096.94
465.37	14308.47
465.575	13950.08
465.781	14722.16
465.986	14535.8
466.191	14021.76
466.397	13794.43
466.602	13022.35
466.807	13585.54
467.012	13601.93
467.218	13472.9
467.423	13261.96
467.628	13708.42
467.833	13878.4
468.038	13477
468.244	13147.28
468.449	13472.9
468.654	13227.15
468.859	13153.42
469.064	13229.2
469.269	12590.23
469.474	12532.89
469.679	13030.54
469.885	12487.83
470.09	12735.64
470.295	12743.83
470.5	12334.23
470.705	12496.02
470.91	12268.7
471.115	12074.14
471.32	12008.61
471.525	12053.66
471.73	11924.64
471.935	11676.84
472.139	11363.5
472.344	11691.17
472.549	11390.12
472.754	11203.75
472.959	11185.32
473.164	10790.06
473.369	10955.95
473.574	11164.84
473.778	10896.56
473.983	10898.61
474.188	10812.59
474.393	10382.52
474.598	10478.77
474.802	10353.85
475.007	10220.73
475.212	10288.31
475.417	9759.94
475.621	9864.38
475.826	10022.08
476.031	9655.49
476.235	9653.44
476.44	9792.7
476.645	9475.27
476.849	9606.34
477.054	9282.76
477.259	9444.55
477.463	9237.7
477.668	8996.04
477.872	9229.51
478.077	8942.8
478.282	8875.21
478.486	8873.17
478.691	8649.94
478.895	8705.23
479.1	8643.79
479.304	8670.42
479.509	8424.66
479.713	8500.44
479.918	8363.22
480.122	8172.76
480.326	8406.23
480.531	8338.65
480.735	8195.29
480.94	8023.26
481.144	8326.36
481.348	8084.7
481.553	8266.97
481.757	7871.71
481.961	7961.82
482.166	8166.62
482.37	8129.75
482.574	7965.92
482.778	8115.42
482.983	8187.1
483.187	7974.11
483.391	8066.27
483.595	8096.99
483.8	7967.96
484.004	8142.04
484.208	8064.22
484.412	7998.68
484.616	7927
484.821	7920.86
485.025	7916.76
485.229	7939.29
485.433	8099.03
485.637	7992.54
485.841	7834.85
486.045	8027.35
486.249	7933.15
486.453	7777.5
486.657	7957.72
486.861	8111.32
487.065	7820.51
487.269	7949.53
487.473	7935.2
487.677	8058.07
487.881	8213.72
488.085	7982.3
488.289	8094.94
488.493	7875.81
488.697	8094.94
488.901	8096.99
489.105	8248.54
489.309	8342.74
489.512	8178.9
489.716	8203.48
489.92	8107.23
490.124	7982.3
490.328	8404.18
490.531	8113.37
490.735	8309.97
490.939	8295.64
491.143	8172.76
491.346	8051.93
491.55	8551.63
491.754	8436.95
491.958	8672.47
492.161	8352.98
492.365	8742.1
492.569	8639.7
492.772	8621.27
492.976	8645.84
493.18	8869.07
493.383	8916.17
493.587	8817.87
493.79	8916.17
493.994	8869.07
494.197	9049.29
494.401	9112.78
494.605	9092.3
494.808	9243.85
495.012	9288.9
495.215	9333.96
495.419	9317.58
495.622	9270.47
495.825	9499.84
496.029	9391.3
496.232	9493.7
496.436	9841.86
496.639	10114.23
496.843	10079.42
497.046	10251.45
497.249	10251.45
497.453	10222.78
497.656	10302.65
497.859	10374.33
498.063	10550.45
498.266	10718.39
498.469	10704.05
498.673	10978.48
498.876	10906.8
499.079	11193.51
499.282	11119.79
499.485	11547.81
499.689	11558.05
499.892	11572.39
500.095	11883.68
500.298	12240.03
500.501	11799.71
500.705	12184.73
500.908	12410.01
501.111	12387.48
501.314	12741.78
501.517	12657.81
501.72	12639.38
501.923	12782.74
502.126	13321.35
502.329	13560.97
502.532	13450.38
502.735	13493.38
502.938	13966.46
503.141	13882.5
503.344	14042.24
503.547	14507.13
503.75	14318.71
503.953	14611.57
504.156	14830.71
504.359	15240.3
504.562	14992.5
504.765	15424.62
504.968	15459.43
505.17	15725.67
505.373	15742.05
505.576	16036.96
505.779	16118.88
505.982	16456.79
506.185	16708.69
506.387	16567.38
506.59	16763.99
506.793	17501.26
506.996	17151.06
507.198	17632.33
507.401	17460.3
507.604	17826.89
507.807	18394.17
508.009	18201.66
508.212	18428.99
508.415	18928.69
508.617	18639.93
508.82	18943.03
509.022	19190.83
509.225	19627.05
509.428	19786.79
509.63	20053.03
509.833	20159.52
510.035	20304.93
510.238	20573.21
510.44	20702.23
510.643	20878.36
510.845	21328.91
511.048	21179.41
511.25	21453.84
511.453	21652.49
511.655	22361.09
511.858	22432.77
512.06	22352.9
512.262	22756.35
512.465	22615.04
512.667	23213.04
512.87	23643.12
513.072	23231.47
513.274	24009.7
513.477	24052.71
513.679	24263.65
513.881	24699.87
514.084	24814.55
514.286	24830.94
514.488	25451.47
514.69	25998.28
514.893	25656.27
515.095	26129.35
515.297	26389.44
515.499	26174.41
515.701	26708.93
515.904	26997.69
516.106	26835.9
516.308	27528.11
516.51	27669.42
516.712	27837.36
516.914	27982.76
517.116	28634.02
517.318	28457.89
517.52	28795.81
517.722	28853.15
517.925	29301.65
518.127	29739.92
518.329	29967.24
518.531	29801.36
518.733	30520.2
518.935	30862.21
519.136	30944.13
519.338	31308.66
519.54	31294.33
519.742	31492.98
519.944	31908.72
520.146	32289.64
520.348	32375.66
520.55	32482.15
520.752	33139.55
520.954	33413.98
521.155	32973.66
521.357	33743.7
521.559	33956.69
521.761	34554.69
521.963	34634.56
522.164	34814.79
522.366	34751.3
522.568	35007.3
522.77	35056.45
522.971	35695.41
523.173	35431.22
523.375	35945.26
523.576	35818.29
523.778	36199.21
523.98	36188.97
524.181	36653.86
524.383	36436.78
524.584	37202.72
524.786	37219.1
524.988	37208.86
525.189	37643.03
525.391	38093.58
525.592	38009.62
525.794	37917.46
525.995	38320.91
526.197	38318.86
526.398	38282
526.6	38509.32
526.801	38681.35
527.003	38859.52
527.204	38656.78
527.406	39228.16
527.607	39330.56
527.808	39633.66
528.01	38925.06
528.211	39426.81
528.412	40196.85
528.614	40010.48
528.815	39754.49
529.016	40047.35
529.218	39967.48
529.419	40377.07
529.62	40362.73
529.822	40018.67
530.023	40307.44
530.224	40370.93
530.425	40395.5
530.626	40188.66
530.828	40319.73
531.029	41050.85
531.23	40688.36
531.431	40411.88
531.632	40934.12
531.833	40522.47
532.035	40981.22
532.236	41171.68
532.437	41343.71
532.638	40637.16
532.839	41149.15
533.04	41431.77
533.241	40747.75
533.442	41593.56
533.643	41171.68
533.844	41038.56
534.045	41446.11
534.246	40860.39
534.447	41476.83
534.648	41337.57
534.849	41147.11
535.05	40927.97
535.251	41523.93
535.451	40950.5
535.652	41302.75
535.853	41259.74
536.054	41470.68
536.255	41517.79
536.456	41059.04
536.657	41704.15
536.857	40942.31
537.058	41114.34
537.259	41325.28
537.46	41437.92
537.66	41280.22
537.861	41556.7
538.062	41394.91
538.263	41939.67
538.463	41054.95
538.664	41222.88
538.865	41439.97
539.065	41056.99
539.266	40837.86
539.466	41597.66
539.667	40485.61
539.868	41642.71
540.068	40911.59
540.269	41100
540.469	41312.99
540.67	41229.02
540.87	41294.56
541.071	40854.25
541.271	41525.98
541.472	41222.88
541.672	40774.38
541.873	40813.29
542.073	40702.7
542.274	41421.53
542.474	40932.07
542.675	40770.28
542.875	41214.69
543.075	40960.74
543.276	40977.12
543.476	41456.35
543.676	41345.76
543.877	41431.77
544.077	41143.01
544.277	41206.5
544.478	40870.63
544.678	41439.97
544.878	40940.26
545.078	40981.22
545.279	40606.44
545.479	40704.74
545.679	40878.82
545.879	41050.85
546.079	40944.36
546.28	41208.54
546.48	40743.66
546.68	41018.08
546.88	41038.56
547.08	40768.23
547.28	40958.69
547.48	40583.91
547.68	41112.29
547.88	40839.91
548.081	40975.08
548.281	40897.25
548.481	40786.66
548.681	41173.73
548.881	40811.24
549.081	40676.07
549.28	40592.11
549.48	41259.74
549.68	40708.84
549.88	41278.18
550.08	40463.08
550.28	40649.45
550.48	40555.24
550.68	40907.49
550.88	40801
551.08	40649.45
551.279	40901.35
551.479	40334.06
551.679	40628.97
551.879	40872.68
552.079	40774.38
552.278	40311.53
552.478	40757.99
552.678	40737.51
552.878	40495.85
553.077	40325.87
553.277	40063.73
553.477	41030.37
553.676	40420.08
553.876	40581.87
554.076	40280.81
554.275	40776.42
554.475	40198.9
554.674	40659.69
554.874	40469.23
555.074	40405.74
555.273	40159.98
555.473	40608.49
555.672	39975.67
555.872	40078.07
556.071	40223.47
556.271	40211.18
556.47	40274.67
556.67	39551.74
556.869	39994.1
557.068	40049.39
557.268	40100.59
557.467	40432.36
557.667	39611.13
557.866	39805.69
558.065	39523.07
558.265	39734.01
558.464	39631.61
558.663	40155.89
558.863	39363.32
559.062	40010.48
559.261	39127.81
559.461	40194.8
559.66	39125.76
559.859	39222.01
560.058	38920.96
560.258	39021.31
560.457	39291.65
560.656	39469.82
560.855	38961.92
561.054	39348.99
561.253	39082.75
561.453	38822.66
561.652	39572.22
561.851	39461.63
562.05	38699.78
562.249	38632.2
562.448	39035.65
562.647	38925.06
562.846	39049.99
563.045	39140.1
563.244	38206.22
563.443	39133.95
563.642	38019.86
563.841	38474.51
564.04	38191.89
564.239	38587.14
564.438	38402.83
564.637	37948.18
564.836	38132.5
565.035	37667.61
565.234	38075.15
565.432	37575.45
565.631	38257.42
565.83	37698.33
566.029	37665.56
566.228	37337.88
566.427	37550.87
566.625	37546.78
566.824	37227.29
567.023	37583.64
567.222	36748.07
567.42	37550.87
567.619	37186.33
567.818	37315.36
568.016	36944.67
568.215	37002.02
568.414	37022.5
568.612	37184.29
568.811	36660.01
569.01	37200.67
569.208	36510.5
569.407	36723.49
569.605	36487.98
569.804	36664.1
570.002	35873.59
570.201	36633.38
570.4	36082.48
570.598	35990.32
570.797	36356.91
570.995	36637.48
571.193	35404.6
571.392	36205.36
571.59	35570.49
571.789	35455.8
571.987	35554.1
572.186	35324.73
572.384	35150.65
572.582	35666.74
572.781	35607.35
572.979	34923.33
573.177	35345.21
573.376	35085.12
573.574	35128.13
573.772	34878.27
573.971	34937.66
574.169	34464.58
574.367	34558.79
574.565	35097.41
574.763	34585.41
574.962	34270.03
575.16	34048.85
575.358	34599.75
575.556	34081.61
575.754	34257.74
575.952	33854.29
576.151	33968.97
576.349	33860.43
576.547	33559.38
576.745	33762.13
576.943	33704.79
577.141	33702.74
577.339	33467.22
577.537	33467.22
577.735	33049.44
577.933	33606.48
578.131	33430.36
578.329	33200.99
578.527	32545.64
578.725	33026.91
578.923	33002.33
579.121	32789.35
579.319	32789.35
579.516	32691.04
579.714	32619.36
579.912	32504.68
580.11	32209.77
580.308	32217.96
580.506	32209.77
580.704	31884.14
580.901	32359.27
581.099	32064.36
581.297	31701.87
581.495	31556.47
581.692	31695.73
581.89	31462.26
582.088	31611.76
582.285	31595.38
582.483	31501.17
582.681	31622
582.878	31433.59
583.076	31185.79
583.274	31009.66
583.471	31003.52
583.669	31005.56
583.866	30704.51
584.064	30794.62
584.262	30311.3
584.459	30843.77
584.657	30356.36
584.854	30684.03
585.052	30143.37
585.249	30421.89
585.447	30833.53
585.644	29879.18
585.841	29780.88
586.039	30555.01
586.236	29774.73
586.434	29610.9
586.631	29885.33
586.828	29694.86
587.026	29584.27
587.223	29709.2
587.42	29408.15
587.618	29322.13
587.815	28859.29
588.012	29135.77
588.21	29059.99
588.407	29088.67
588.604	28818.33
588.801	28619.68
588.999	28558.24
589.196	28664.74
589.393	28343.2
589.59	28285.86
589.787	28775.33
589.984	28146.6
590.182	28079.02
590.379	27976.62
590.576	28009.39
590.773	28257.19
590.97	27900.84
591.167	27902.89
591.364	27761.58
591.561	27941.8
591.758	27417.52
591.955	27433.91
592.152	27915.18
592.349	27343.8
592.546	27458.48
592.743	27569.07
592.94	27321.27
593.137	27200.44
593.334	27214.77
593.531	26624.96
593.727	26905.53
593.924	26706.88
594.121	26821.56
594.318	26700.73
594.515	26213.32
594.712	26751.93
594.908	26309.57
595.105	26538.94
595.302	26188.74
595.499	26518.46
595.696	26110.92
595.892	25920.46
596.089	26295.24
596.286	26174.41
596.482	26012.62
596.679	26004.42
596.876	25709.52
597.072	25691.09
597.269	25656.27
597.466	25297.88
597.662	25093.08
597.859	25242.58
598.055	25279.44
598.252	25111.51
598.448	25138.13
598.645	24871.9
598.841	24601.57
599.038	24650.72
599.234	24701.92
599.431	24646.62
599.627	24593.37
599.824	24880.09
600.02	24372.19
600.217	24562.65
600.413	24241.12
600.609	24351.71
600.806	24021.99
601.002	24382.43
601.198	24200.16
601.395	23727.08
601.591	24028.13
601.787	23800.81
601.984	23712.75
602.18	23966.7
602.376	23266.29
602.572	23553.01
602.769	23682.03
602.965	23417.84
603.161	23167.99
603.357	23397.36
603.553	23315.44
603.75	23258.1
603.946	22858.74
604.142	23172.08
604.338	23104.5
604.534	22774.78
604.73	22506.49
604.926	22729.72
605.122	22737.91
605.318	22537.21
605.514	22397.95
605.71	22367.23
605.906	22334.46
606.102	22422.53
606.298	22252.55
606.494	22420.48
606.69	22146.05
606.886	22383.62
607.082	21640.2
607.278	22344.7
607.474	21845
607.67	21820.42
607.866	21797.9
608.062	21945.35
608.257	21916.68
608.453	21728.27
608.649	21603.34
608.845	21330.96
609.041	21584.91
609.236	21443.6
609.432	21343.25
609.628	21333.01
609.824	21152.79
610.019	21441.55
610.215	21548.04
610.411	21197.84
610.606	21064.72
610.802	21017.62
610.998	20812.82
611.193	21081.11
611.389	20829.21
611.584	20771.86
611.78	20597.79
611.976	20569.12
612.171	20868.12
612.367	20636.7
612.562	20542.49
612.758	20554.78
612.953	20427.81
613.149	20671.51
613.344	20298.78
613.539	20954.13
613.735	20247.58
613.93	20417.57
614.126	20167.71
614.321	20235.3
614.517	20380.7
614.712	20249.63
614.907	20081.7
615.103	20284.45
615.298	19997.73
615.493	20155.43
615.688	19717.16
615.884	19993.64
616.079	19743.78
616.274	19688.49
616.47	19663.91
616.665	19747.88
616.86	19676.2
617.055	19805.22
617.25	19434.54
617.445	19407.92
617.641	19340.33
617.836	19412.01
618.031	19117.11
618.226	19307.57
618.421	18977.84
618.616	19403.82
618.811	19037.23
619.006	19414.06
619.201	18795.57
619.396	18910.26
619.591	18791.48
619.786	18885.69
619.981	18857.01
620.176	18721.85
620.371	18207.81
620.566	18498.62
620.761	18508.86
620.956	18582.59
621.151	18084.93
621.346	18277.44
621.541	17767.49
621.735	17970.24
621.93	17738.82
622.125	17605.7
622.32	17493.07
622.515	17685.58
622.709	17362
622.904	17390.67
623.099	17218.64
623.294	17355.85
623.488	16936.02
623.683	17126.48
623.878	16870.48
624.072	16813.14
624.267	16743.51
624.462	16727.13
624.656	16591.96
624.851	16381.02
625.046	16436.31
625.24	16198.75
625.435	16307.29
625.629	16282.72
625.824	16022.62
626.018	16051.3
626.213	15789.16
626.407	16077.92
626.602	15567.98
626.796	15649.89
626.991	15395.95
627.185	15584.36
627.38	15189.1
627.574	15047.79
627.768	15012.98
627.963	15082.61
628.157	14945.39
628.352	14947.44
628.546	14765.17
628.74	14974.06
628.935	14814.32
629.129	14640.25
629.323	14636.15
629.517	14503.03
629.712	14601.33
629.906	14326.91
630.1	14120.06
630.294	14341.24
630.489	14230.65
630.683	14224.51
630.877	13880.45
631.071	13780.1
631.265	13898.88
631.459	13702.28
631.653	13782.15
631.848	13653.12
632.042	13597.83
632.236	13407.37
632.43	13354.12
632.624	13329.55
632.818	13266.06
633.012	13018.25
633.206	12940.43
633.4	13042.83
633.594	12866.7
633.788	12860.56
633.982	12930.19
634.176	12676.24
634.369	12481.69
634.563	12770.45
634.757	12623
634.951	12790.93
635.145	12561.56
635.339	12383.38
635.533	12291.23
635.726	12172.44
635.92	12315.8
636.114	12102.81
636.308	11984.03
636.501	11685.03
636.695	11857.06
636.889	11871.39
637.083	11842.72
637.276	11891.87
637.47	11545.77
637.664	11785.38
637.857	11580.58
638.051	11535.53
638.244	11070.64
638.438	11451.56
638.632	11242.67
638.825	11218.09
639.019	11226.28
639.212	11031.73
639.406	11050.16
639.599	10933.42
639.793	11080.88
639.986	10734.77
640.18	10890.42
640.373	10781.87
640.567	10589.36
640.76	10689.71
640.954	10470.58
641.147	10394.81
641.34	10532.02
641.534	10366.14
641.727	10439.86
641.92	10497.21
642.114	10251.45
642.307	10245.31
642.5	10253.5
642.694	9979.07
642.887	9938.11
643.08	9907.39
643.273	9897.15
643.467	9782.46
643.66	9739.46
643.853	9452.74
644.046	9630.91
644.239	9653.44
644.432	9680.07
644.626	9450.69
644.819	9501.89
645.012	9405.64
645.205	9397.45
645.398	9499.84
645.591	9313.48
645.784	9202.89
645.977	9077.96
646.17	9084.11
646.363	9016.52
646.556	8967.37
646.749	9049.29
646.942	9137.35
647.135	8776.91
647.328	8783.06
647.521	8744.14
647.714	8654.03
647.907	8463.57
648.099	8592.59
648.292	8479.96
648.485	8395.99
648.678	8494.29
648.871	8457.43
649.064	8432.85
649.256	8473.81
649.449	8250.58
649.642	8273.11
649.835	8297.69
650.027	8166.62
650.22	8045.79
650.413	7910.62
650.605	8125.66
650.798	8023.26
650.991	7773.41
651.183	8008.92
651.376	7564.51
651.568	7757.02
651.761	7671.01
651.954	7697.63
652.146	7697.63
652.339	7810.27
652.531	7535.84
652.724	7517.41
652.916	7539.94
653.109	7349.48
653.301	7314.66
653.494	7318.76
653.686	7333.09
653.879	7169.26
654.071	7077.1
654.263	7165.16
654.456	7134.44
654.648	7212.26
654.84	6968.56
655.033	6923.5
655.225	7109.86
655.417	6860.01
655.61	6935.79
655.802	6855.92
655.994	6917.36
656.186	6905.07
656.379	6659.31
656.571	6741.23
656.763	6561.01
656.955	6739.18
657.148	6554.87
657.34	6601.97
657.532	6393.08
657.724	6518
657.916	6413.56
658.108	6374.64
658.3	6315.25
658.492	6403.32
658.684	6315.25
658.876	6175.99
659.068	6208.76
659.26	6270.2
659.452	6094.07
659.644	6188.28
659.836	6071.54
660.028	6206.71
660.22	5991.67
660.412	5971.19
660.604	5756.16
660.796	5934.33
660.988	5917.95
661.18	5786.88
661.372	5795.07
661.563	5666.05
661.755	5889.28
661.947	5745.92
662.139	5690.62
662.331	5477.63
662.522	5545.22
662.714	5442.82
662.906	5532.93
663.097	5502.21
663.289	5479.68
663.481	5272.84
663.673	5229.83
663.864	5311.75
664.056	5213.45
664.247	5180.68
664.439	5240.07
664.631	5188.87
664.822	5289.22
665.014	5104.9
665.205	5045.51
665.397	5074.18
665.588	4996.36
665.78	5016.84
665.971	5010.7
666.163	5084.42
666.354	4814.09
666.546	4941.07
666.737	4914.44
666.929	4869.39
667.12	4699.41
667.311	4812.04
667.503	4721.93
667.694	4748.56
667.885	4658.45
668.077	4713.74
668.268	4691.21
668.459	4664.59
668.651	4592.91
668.842	4621.58
669.033	4465.94
669.224	4525.33
669.416	4599.06
669.607	4345.11
669.798	4304.15
669.989	4547.86
670.18	4275.48
670.371	4377.87
670.563	4263.19
670.754	4240.66
670.945	4211.99
671.136	4283.67
671.327	4259.09
671.518	4224.28
671.709	4166.93
671.9	4226.32
672.091	4205.85
672.282	4173.08
672.473	4168.98
672.664	4242.71
672.855	4338.96
673.046	4082.97
673.237	3878.17
673.428	3970.33
673.619	3988.76
673.809	4082.97
674	4025.62
674.191	4009.24
674.382	4017.43
674.573	3804.44
674.764	3910.94
674.954	3861.79
675.145	3841.31
675.336	3960.09
675.527	3804.44
675.717	3753.24
675.908	3853.59
676.099	3695.9
676.289	3927.32
676.48	3749.15
676.671	3732.76
676.861	3788.06
677.052	3656.99
677.243	3783.96
677.433	3644.7
677.624	3673.37
677.814	3581.21
678.005	3558.69
678.195	3661.09
678.386	3630.37
678.576	3656.99
678.767	3546.4
678.957	3697.95
679.148	3495.2
679.338	3628.32
679.529	3542.3
679.719	3675.42
679.909	3534.11
680.1	3550.5
680.29	3650.85
680.481	3484.96
680.671	3501.34
680.861	3435.81
681.052	3552.54
681.242	3603.74
681.432	3566.88
681.622	3439.9
681.813	3487.01
682.003	3558.69
682.193	3454.24
682.383	3611.93
682.573	3398.95
682.764	3347.75
682.954	3435.81
683.144	3421.47
683.334	3403.04
683.524	3312.93
683.714	3413.28
683.904	3446.05
684.094	3378.47
684.284	3542.3
684.474	3308.83
684.664	3476.77
684.854	3325.22
685.044	3396.9
685.234	3419.43
685.424	3151.14
685.614	3202.34
685.804	3411.23
685.994	3222.82
686.184	3380.51
686.374	3206.44
686.564	3339.55
686.753	3206.44
686.943	3347.75
687.133	3276.07
687.323	3280.16
687.513	3210.53
687.702	3257.64
687.892	3063.08
688.082	3271.97
688.272	3069.22
688.461	3161.38
688.651	3235.11
688.841	3118.37
689.03	3140.9
689.22	3050.79
689.41	3036.45
689.599	3065.13
689.789	3204.39
689.979	3249.44
690.168	3112.23
690.358	3005.74
690.547	3085.61
690.737	3075.37
690.926	3179.81
691.116	2977.06
691.305	2821.42
691.495	2936.1
691.684	2923.82
691.874	2993.45
692.063	2997.54
692.252	2968.87
692.442	2977.06
692.631	2766.12
692.82	2862.38
693.01	2823.47
693.199	2972.97
693.388	2856.23
693.578	2897.19
693.767	2874.67
693.956	2831.66
694.146	2968.87
694.335	2932.01
694.524	2880.81
694.713	2833.71
694.902	2757.93
695.092	2764.08
695.281	2856.23
695.47	2829.61
695.659	2772.27
695.848	2755.88
696.037	2764.08
696.226	2747.69
696.415	2772.27
696.604	2778.41
696.793	2665.77
696.982	2587.95
697.171	2684.2
697.36	2723.12
697.549	2692.4
697.738	2645.29
697.927	2739.5
698.116	2706.73
698.305	2618.67
698.494	2739.5
698.683	2716.97
698.872	2731.31
699.061	2592.05
699.25	2608.43
699.438	2757.93
699.627	2630.96
699.816	2645.29
700.005	2714.92
700.193	2616.62
700.382	2639.15
700.571	2569.52
700.76	2592.05
700.948	2499.89
701.137	2460.98
701.326	2637.1
701.514	2501.94
701.703	2577.71
701.892	2530.61
702.08	2575.66
702.269	2755.88
702.457	2503.98
702.646	2602.29
702.834	2432.3
703.023	2403.63
703.212	2526.51
703.4	2522.41
703.589	2383.15
703.777	2518.32
703.965	2540.85
704.154	2393.39
704.342	2454.83
704.531	2577.71
704.719	2510.13
704.907	2477.36
705.096	2403.63
705.284	2387.25
705.472	2444.59
705.661	2379.06
705.849	2403.63
706.037	2385.2
706.226	2385.2
706.414	2354.48
706.602	2430.26
706.79	2448.69
706.979	2454.83
707.167	2372.91
707.355	2420.02
707.543	2434.35
707.731	2534.7
707.919	2383.15
708.107	2344.24
708.296	2317.62
708.484	2444.59
708.672	2272.56
708.86	2354.48
709.048	2323.76
709.236	2235.7
709.424	2362.67
709.612	2274.61
709.8	2379.06
709.988	2305.33
710.176	2313.52
710.364	2329.91
710.551	2346.29
710.739	2198.84
710.927	2366.77
711.115	2227.51
711.303	2293.04
711.491	2215.22
711.679	2215.22
711.866	2192.69
712.054	2362.67
712.242	2192.69
712.43	2399.54
712.617	2239.8
712.805	2196.79
712.993	2293.04
713.181	2256.18
713.368	2239.8
713.556	2243.89
713.744	2215.22
713.931	2334
714.119	2336.05
714.306	2301.23
714.494	2182.45
714.682	2157.88
714.869	2196.79
715.057	2225.46
715.244	2192.69
715.432	2155.83
715.619	2092.34
715.807	2073.91
715.994	2170.16
716.182	2235.7
716.369	2211.12
716.556	2272.56
716.744	2153.78
716.931	2137.4
717.119	2139.44
717.306	2247.99
717.493	2198.84
717.681	2198.84
717.868	2207.03
718.055	2037.05
718.242	2252.08
718.43	2166.07
718.617	2223.41
718.804	2161.97
718.991	2209.08
719.179	2112.82
719.366	2178.36
719.553	2215.22
719.74	2055.48
719.927	2135.35
720.114	2108.73
720.301	2110.77
720.488	1979.7
720.676	2075.96
720.863	2063.67
721.05	2051.38
721.237	2045.24
721.424	2094.39
721.611	2190.64
721.798	1975.61
721.985	1969.46
722.172	2035
722.358	2096.44
722.545	2088.25
722.732	2145.59
722.919	2116.92
723.106	2108.73
723.293	2018.61
723.48	2026.81
723.667	2039.09
723.853	1953.08
724.04	2182.45
724.227	2053.43
724.414	2055.48
724.6	2061.62
724.787	2043.19
724.974	2053.43
725.161	1959.22
725.347	2067.77
725.534	2039.09
725.72	2026.81
725.907	1969.46
726.094	2026.81
726.28	1961.27
726.467	2059.57
726.653	1951.03
726.84	1996.09
727.027	2045.24
727.213	1901.88
727.4	1940.79
727.586	2018.61
727.773	2168.12
727.959	1946.94
728.145	1987.9
728.332	2010.42
728.518	2035
728.705	2043.19
728.891	2043.19
729.077	1918.26
729.264	1879.35
729.45	1969.46
729.636	2127.16
729.823	1965.37
730.009	1957.18
730.195	2059.57
730.382	2043.19
730.568	1912.12
730.754	2002.23
730.94	2004.28
731.126	2010.42
731.313	2014.52
731.499	1998.13
731.685	2004.28
731.871	1922.36
732.057	1930.55
732.243	1930.55
732.429	1989.94
732.615	1996.09
732.801	1971.51
732.987	1914.17
733.173	1936.7
733.359	1905.98
733.545	1922.36
733.731	1944.89
733.917	1991.99
734.103	1881.4
734.289	1867.06
734.475	1862.97
734.661	2020.66
734.847	1865.02
735.033	1897.78
735.219	1871.16
735.404	1879.35
735.59	1832.25
735.776	1985.85
735.962	1903.93
736.148	1897.78
736.333	1871.16
736.519	1948.98
736.705	1772.86
736.89	1908.02
737.076	1944.89
737.262	1881.4
737.447	1805.63
737.633	1822.01
737.819	1922.36
738.004	1887.54
738.19	1928.5
738.375	1811.77
738.561	2022.71
738.747	1865.02
738.932	1727.8
739.118	1887.54
739.303	1885.5
739.489	1797.43
739.674	1787.19
739.859	1822.01
740.045	1785.15
740.23	1783.1
740.416	1682.75
740.601	1758.52
740.786	1758.52
740.972	1692.99
741.157	1756.47
741.342	1742.14
741.528	1666.36
741.713	1830.2
741.898	1717.56
742.084	1799.48
742.269	1733.95
742.454	1756.47
742.639	1744.19
742.824	1676.6
743.01	1707.32
743.195	1707.32
743.38	1715.52
743.565	1660.22
743.75	1740.09
743.935	1772.86
744.12	1727.8
744.305	1674.56
744.49	1576.25
744.675	1619.26
744.86	1563.97
745.045	1555.77
745.23	1586.49
745.415	1652.03
745.6	1674.56
745.785	1604.92
745.97	1520.96
746.155	1619.26
746.34	1633.6
746.525	1582.4
746.71	1609.02
746.895	1502.53
747.079	1455.42
747.264	1533.25
747.449	1557.82
747.634	1559.87
747.819	1496.38
748.003	1445.18
748.188	1461.57
748.373	1469.76
748.557	1486.14
748.742	1428.8
748.927	1324.35
749.111	1453.38
749.296	1408.32
749.481	1541.44
749.665	1488.19
749.85	1344.83
750.034	1428.8
750.219	1338.69
750.404	1379.65
750.588	1373.5
750.773	1344.83
750.957	1357.12
751.141	1301.83
751.326	1453.38
751.51	1420.61
751.695	1359.17
751.879	1391.94
752.064	1332.55
752.248	1312.07
752.432	1324.35
752.617	1316.16
752.801	1414.46
752.985	1301.83
753.17	1256.77
753.354	1203.52
753.538	1230.15
753.722	1189.19
753.907	1162.56
754.091	1221.95
754.275	1246.53
754.459	1207.62
754.643	1150.28
754.828	1109.32
755.012	1137.99
755.196	1199.43
755.38	1191.24
755.564	1133.89
755.748	1119.56
755.932	1264.96
756.116	1174.85
756.3	1117.51
756.484	1084.74
756.668	1074.5
756.852	1051.97
757.036	1092.93
757.22	1047.88
757.404	990.53
757.588	1119.56
757.772	1062.21
757.956	1011.01
758.14	1021.25
758.323	982.34
758.507	1099.08
758.691	1027.4
758.875	1178.95
759.059	1115.46
759.242	990.53
759.426	955.72
759.61	970.05
759.794	1084.74
759.977	1004.87
760.161	1004.87
760.345	1066.31
760.528	1019.21
760.712	916.81
760.895	1006.92
761.079	939.34
761.263	890.18
761.446	914.76
761.63	929.1
761.813	947.53
761.997	974.15
762.18	910.66
762.364	959.81
762.547	881.99
762.731	896.33
762.914	982.34
763.098	890.18
763.281	859.46
763.464	851.27
763.648	925
763.831	908.62
764.015	771.4
764.198	863.56
764.381	908.62
764.564	920.9
764.748	865.61
764.931	853.32
765.114	916.81
765.297	865.61
765.481	789.83
765.664	865.61
765.847	871.75
766.03	896.33
766.213	826.7
766.397	824.65
766.58	912.71
766.763	888.14
766.946	787.79
767.129	806.22
767.312	806.22
767.495	789.83
767.678	752.97
767.861	816.46
768.044	785.74
768.227	744.78
768.41	789.83
768.593	759.11
768.776	699.72
768.959	789.83
769.142	849.22
769.324	691.53
769.507	709.96
769.69	783.69
769.873	785.74
770.056	824.65
770.239	769.35
770.421	806.22
770.604	804.17
770.787	750.92
770.97	724.3
771.152	775.5
771.335	765.26
771.518	658.76
771.7	777.55
771.883	714.06
772.066	748.87
772.248	691.53
772.431	750.92
772.613	755.02
772.796	652.62
772.978	724.3
773.161	726.35
773.343	752.97
773.526	617.8
773.708	718.15
773.891	669
774.073	707.91
774.256	716.11
774.438	750.92
774.621	654.67
774.803	742.73
774.985	617.8
775.168	683.34
775.35	613.71
775.532	683.34
775.715	576.84
775.897	675.15
776.079	638.28
776.261	578.89
776.444	662.86
776.626	615.76
776.808	576.84
776.99	585.04
777.173	603.47
777.355	660.81
777.537	523.6
777.719	699.72
777.901	587.08
778.083	462.16
778.265	523.6
778.447	628.04
778.629	521.55
778.811	519.5
778.993	535.89
779.175	599.37
779.357	585.04
779.539	435.53
779.721	603.47
779.903	601.42
780.085	539.98
780.267	472.4
780.449	572.75
780.631	521.55
780.812	449.87
780.994	474.45
781.176	521.55
781.358	505.17
781.54	537.93
781.721	494.93
781.903	488.78
782.085	429.39
782.267	458.06
782.448	470.35
782.63	499.02
782.812	494.93
782.993	445.77
783.175	468.3
783.357	429.39
783.538	447.82
783.72	421.2
783.901	499.02
784.083	499.02
784.264	400.72
784.446	404.82
784.627	388.43
784.809	388.43
784.99	404.82
785.172	380.24
785.353	464.21
785.535	339.28
785.716	423.25
785.897	433.49
786.079	384.34
786.26	431.44
786.441	425.29
786.623	349.52
786.804	413.01
786.985	449.87
787.167	390.48
787.348	341.33
787.529	333.14
787.71	400.72
787.891	515.41
788.073	339.28
788.254	316.75
788.435	351.57
788.616	355.66
788.797	359.76
788.978	382.29
789.159	357.71
789.34	322.9
789.522	339.28
789.703	314.7
789.884	363.86
790.065	316.75
790.246	404.82
790.427	357.71
790.607	357.71
790.788	329.04
790.969	277.84
791.15	339.28
791.331	294.22
791.512	324.94
791.693	281.94
791.874	273.75
792.054	283.99
792.235	308.56
792.416	286.03
792.597	277.84
792.778	292.18
792.958	341.33
793.139	306.51
793.32	298.32
793.5	283.99
793.681	292.18
793.862	281.94
794.042	326.99
794.223	236.88
794.404	269.65
794.584	204.11
794.765	326.99
794.945	294.22
795.126	322.9
795.306	314.7
795.487	318.8
795.667	169.3
795.848	226.64
796.028	384.34
796.209	349.52
796.389	236.88
796.57	243.03
796.75	228.69
796.93	257.36
797.111	234.83
797.291	290.13
797.471	265.55
797.652	216.4
797.832	247.12
798.012	245.07
798.192	175.44
798.373	185.68
798.553	183.63
798.733	288.08
798.913	134.48
799.093	251.22
799.274	220.5
799.454	240.98
799.634	308.56
799.814	298.32
799.994	271.7
800.174	200.02
800.354	126.29
800.534	152.92
800.714	267.6
800.894	251.22
801.074	179.54
801.254	200.02
801.434	157.01
801.614	224.59
801.794	191.83
801.974	736.59
802.154	202.07
802.334	243.03
802.514	118.1
802.693	183.63
802.873	134.48
803.053	310.61
803.233	200.02
803.413	208.21
803.592	148.82
803.772	193.87
803.952	273.75
804.131	193.87
804.311	167.25
804.491	163.15
804.67	128.34
804.85	175.44
805.03	159.06
805.209	216.4
805.389	175.44
805.568	159.06
805.748	154.96
805.928	208.21
806.107	159.06
806.287	226.64
806.466	202.07
806.646	206.16
806.825	224.59
807.004	120.15
807.184	146.77
807.363	163.15
807.543	118.1
807.722	193.87
807.901	146.77
808.081	232.79
808.26	111.96
808.439	183.63
808.619	68.95
808.798	175.44
808.977	167.25
809.156	159.06
809.336	122.2
809.515	191.83
809.694	154.96
809.873	191.83
810.052	126.29
810.231	220.5
810.411	132.44
810.59	189.78
810.769	85.33
810.948	144.72
811.127	38.23
811.306	109.91
811.485	97.62
811.664	218.45
811.843	167.25
812.022	175.44
812.201	75.09
812.38	210.26
812.559	77.14
812.737	134.48
812.916	118.1
813.095	93.52
813.274	109.91
813.453	132.44
813.632	148.82
813.811	150.87
813.989	23.89
814.168	152.92
814.347	93.52
814.526	101.72
814.704	183.63
814.883	187.73
815.062	95.57
815.24	138.58
815.419	97.62
815.598	224.59
815.776	159.06
815.955	114
816.133	87.38
816.312	77.14
816.49	126.29
816.669	144.72
816.847	85.33
817.026	95.57
817.204	154.96
817.383	60.76
817.561	134.48
817.74	183.63
817.918	109.91
818.097	118.1
818.275	101.72
818.453	52.56
818.632	124.24
818.81	118.1
818.988	60.76
819.167	109.91
819.345	122.2
819.523	36.18
819.701	71
819.879	118.1
820.058	111.96
820.236	111.96
820.414	109.91
820.592	142.68
820.77	62.8
820.948	128.34
821.127	105.81
821.305	146.77
821.483	103.76
821.661	109.91
821.839	81.24
822.017	142.68
822.195	87.38
822.373	171.35
822.551	79.19
822.729	107.86
822.907	120.15
823.085	60.76
823.262	23.89
823.44	60.76
823.618	73.04
823.796	124.24
823.974	146.77
824.152	58.71
824.329	103.76
824.507	142.68
824.685	32.08
824.863	68.95
825.04	68.95
825.218	130.39
825.396	134.48
825.574	126.29
825.751	56.66
825.929	93.52
826.107	105.81
826.284	85.33
826.462	124.24
826.639	-17.07
826.817	23.89
826.994	62.8
827.172	36.18
827.349	142.68
827.527	109.91
827.704	17.75
827.882	91.48
828.059	-4.78
828.237	99.67
828.414	134.48
828.591	21.85
828.769	73.04
828.946	27.99
829.124	114
829.301	85.33
829.478	58.71
829.655	48.47
829.833	167.25
830.01	48.47
830.187	52.56
830.364	99.67
830.542	85.33
830.719	118.1
830.896	71
831.073	85.33
831.25	58.71
831.427	48.47
831.604	32.08
831.782	52.56
831.959	128.34
832.136	46.42
832.313	68.95
832.49	30.04
832.667	85.33
832.844	44.37
833.021	114
833.198	64.85
833.374	132.44
833.551	30.04
833.728	95.57
833.905	38.23
834.082	-21.16
834.259	89.43
834.436	5.46
834.612	93.52
834.789	85.33
834.966	73.04
835.143	-19.11
835.319	44.37
835.496	93.52
835.673	75.09
835.85	36.18
836.026	118.1
836.203	134.48
836.38	19.8
836.556	46.42
836.733	64.85
836.909	38.23
837.086	17.75
837.262	1.37
837.439	95.57
837.616	-2.73
837.792	87.38
837.968	60.76
838.145	36.18
838.321	52.56
838.498	46.42
838.674	9.56
838.851	-0.68
839.027	11.61
839.203	27.99
839.38	30.04
839.556	64.85
839.732	85.33
839.909	11.61
840.085	23.89
840.261	105.81
840.437	32.08
840.614	42.32
840.79	77.14
840.966	46.42
841.142	32.08
841.318	-2.73
841.494	52.56
841.671	79.19
841.847	83.28
842.023	5.46
842.199	79.19
842.375	44.37
842.551	-8.87
842.727	30.04
842.903	62.8
843.079	30.04
843.255	79.19
843.431	66.9
843.607	134.48
843.783	21.85
843.959	21.85
844.134	-12.97
844.31	48.47
844.486	17.75
844.662	58.71
844.838	-8.87
845.013	48.47
845.189	-2.73
845.365	97.62
845.541	81.24
845.716	46.42
845.892	54.61
846.068	52.56
846.244	79.19
846.419	60.76
846.595	11.61
846.77	46.42
846.946	89.43
847.122	13.65
847.297	23.89
847.473	62.8
847.648	-39.59
847.824	52.56
847.999	-12.97
848.175	-12.97
848.35	79.19
848.526	38.23
848.701	30.04
848.876	81.24
849.052	40.28
849.227	11.61
849.403	40.28
849.578	-19.11
849.753	-19.11
849.929	81.24
850.104	-29.35
850.279	-15.02
850.454	68.95
850.63	105.81
850.805	46.42
850.98	7.51
851.155	-53.93
851.33	19.8
851.505	-35.5
851.681	134.48
851.856	19.8
852.031	99.67
852.206	36.18
852.381	-21.16
852.556	73.04
852.731	5.46
852.906	85.33
853.081	13.65
853.256	36.18
853.431	27.99
853.606	-49.83
853.781	64.85
853.956	-15.02
854.131	-21.16
854.305	-12.97
854.48	3.41
854.655	-21.16
854.83	54.61
855.005	7.51
855.18	52.56
855.354	-0.68
855.529	3.41
855.704	-29.35
855.879	-4.78
856.053	-41.64
856.228	85.33
856.403	-45.74
856.577	-39.59
856.752	-19.11
856.926	30.04
857.101	13.65
857.276	-51.88
857.45	40.28
857.625	68.95
857.799	54.61
857.974	48.47
858.148	13.65
858.323	-8.87
858.497	13.65
858.672	-12.97
858.846	34.13
859.02	60.76
859.195	-70.31
859.369	38.23
859.543	36.18
859.718	48.47
859.892	-19.11
860.066	-4.78
860.241	-8.87
860.415	64.85
860.589	11.61
860.763	52.56
860.938	-4.78
861.112	50.52
861.286	-29.35
861.46	79.19
861.634	-21.16
861.808	54.61
861.982	-4.78
862.157	13.65
862.331	56.66
862.505	-45.74
862.679	-47.79
862.853	-6.83
863.027	-2.73
863.201	19.8
863.375	-51.88
863.549	-6.83
863.722	79.19
863.896	-17.07
864.07	54.61
864.244	3.41
864.418	93.52
864.592	11.61
864.766	-12.97
864.939	36.18
865.113	27.99
865.287	60.76
865.461	1.37
865.634	118.1
865.808	-19.11
865.982	-10.92
866.156	3.41
866.329	-45.74
866.503	79.19
866.676	97.62
866.85	32.08
867.024	-78.51
867.197	60.76
867.371	7.51
867.544	32.08
867.718	-45.74
867.891	38.23
868.065	-98.99
868.238	17.75
868.412	52.56
868.585	-25.26
868.759	5.46
868.932	-43.69
869.105	27.99
869.279	30.04
869.452	38.23
869.625	71
869.799	-4.78
869.972	-43.69
870.145	-12.97
870.319	-4.78
870.492	30.04
870.665	-33.45
870.838	-10.92
871.011	48.47
871.185	3.41
871.358	60.76
871.531	50.52
871.704	-27.31
871.877	-45.74
872.05	-35.5
872.223	11.61
872.396	3.41
872.569	13.65
872.742	-17.07
872.915	36.18
873.088	-35.5
873.261	-66.22
873.434	17.75
873.607	23.89
873.78	27.99
873.953	5.46
874.126	38.23
874.299	19.8
874.471	-0.68
874.644	3.41
874.817	-2.73
874.99	-0.68
875.163	-2.73
875.335	-23.21
875.508	-12.97
875.681	27.99
875.853	3.41
876.026	36.18
876.199	32.08
876.371	-21.16
876.544	5.46
876.717	-62.12
876.889	11.61
877.062	-29.35
877.234	13.65
877.407	-25.26
877.579	15.7
877.752	21.85
877.924	3.41
878.097	40.28
878.269	62.8
878.442	81.24
878.614	27.99
878.786	79.19
878.959	3.41
879.131	71
879.303	5.46
879.476	21.85
879.648	68.95
879.82	5.46
879.993	-111.27
880.165	-21.16
880.337	-12.97
880.509	66.9
880.681	-82.6
880.854	19.8
881.026	15.7
881.198	27.99
881.37	-58.03
881.542	-86.7
881.714	9.56
881.886	-17.07
882.058	11.61
882.23	-10.92
882.402	-8.87
882.574	-29.35
882.746	13.65
882.918	23.89
883.09	-4.78
883.262	-25.26
883.434	44.37
883.606	-33.45
883.778	13.65
883.95	1.37
884.122	27.99
884.293	27.99
884.465	-4.78
884.637	5.46
884.809	25.94
884.98	-25.26
885.152	56.66
885.324	36.18
885.496	-49.83
885.667	3.41
885.839	-39.59
886.011	13.65
886.182	-53.93
886.354	77.14
886.525	5.46
886.697	48.47
886.869	-33.45
887.04	3.41
887.212	-4.78
887.383	105.81
887.555	48.47
887.726	23.89
887.897	-0.68
888.069	-29.35
888.24	48.47
888.412	-4.78
888.583	-4.78
888.754	-35.5
888.926	7.51
889.097	-8.87
889.268	-43.69
889.44	64.85
889.611	3.41
889.782	-51.88
889.953	-4.78
890.125	36.18
890.296	-23.21
890.467	19.8
890.638	-25.26
890.809	25.94
890.98	-78.51
891.151	58.71
891.323	64.85
891.494	-66.22
891.665	-2.73
891.836	48.47
892.007	-47.79
892.178	52.56
892.349	-41.64
892.52	-27.31
892.691	-29.35
892.862	-2.73
893.032	-29.35
893.203	-51.88
893.374	-25.26
893.545	56.66
893.716	48.47
893.887	30.04
894.057	-21.16
894.228	-39.59
894.399	-37.55
894.57	71
894.74	-2.73
894.911	-29.35
895.082	-8.87
895.253	-29.35
895.423	44.37
895.594	36.18
895.764	-35.5
895.935	23.89
896.106	-29.35
896.276	42.32
896.447	-64.17
896.617	36.18
896.788	-53.93
896.958	-10.92
897.129	-43.69
897.299	11.61
897.47	3.41
897.64	-21.16
897.81	11.61
897.981	-41.64
898.151	-62.12
898.322	5.46
898.492	38.23
898.662	-4.78
898.832	-12.97
899.003	-4.78
899.173	-4.78
899.343	-0.68
899.513	-25.26
