Data from USB4F104151__50__14-43-05-921.txt Node

Date: Thu Mar 13 14:43:05 EDT 2025
User: louis
Spectrometer: USB4F10415
Trigger mode: 4
Integration Time (sec): 2.000000E-2
Scans to average: 1
Electric dark correction enabled: true
Nonlinearity correction enabled: false
Boxcar width: 0
XAxis mode: Wavelengths
Number of Pixels in Spectrum: 3648
>>>>>Begin Spectral Data<<<<<
178.204	-124.93
178.424	-124.93
178.644	-124.93
178.864	-18.43
179.084	-90.11
179.304	-2.05
179.524	-18.43
179.744	2.05
179.964	26.62
180.184	38.91
180.404	14.34
180.624	47.1
180.844	36.86
181.064	-57.34
181.283	-38.91
181.503	-47.1
181.723	-2.05
181.943	-16.38
182.163	75.77
182.383	51.2
182.602	10.24
182.822	67.58
183.042	79.87
183.262	-32.77
183.482	43.01
183.701	81.92
183.921	71.68
184.141	-81.92
184.361	73.73
184.58	55.3
184.8	2.05
185.02	79.87
185.239	75.77
185.459	14.34
185.679	86.01
185.898	-2.05
186.118	30.72
186.338	51.2
186.557	14.34
186.777	20.48
186.997	-0
187.216	-14.34
187.436	69.63
187.655	63.49
187.875	34.82
188.095	40.96
188.314	145.41
188.534	106.49
188.753	-14.34
188.973	90.11
189.192	92.16
189.412	71.68
189.631	32.77
189.851	38.91
190.07	100.35
190.29	38.91
190.509	-30.72
190.729	129.02
190.948	71.68
191.168	188.41
191.387	147.45
191.607	14.34
191.826	38.91
192.045	-14.34
192.265	34.82
192.484	24.58
192.704	98.3
192.923	16.38
193.142	120.83
193.362	30.72
193.581	55.3
193.8	90.11
194.02	49.15
194.239	18.43
194.458	92.16
194.678	26.62
194.897	10.24
195.116	120.83
195.335	40.96
195.555	57.34
195.774	26.62
195.993	14.34
196.212	24.58
196.432	79.87
196.651	73.73
196.87	34.82
197.089	86.01
197.308	69.63
197.528	55.3
197.747	73.73
197.966	47.1
198.185	106.49
198.404	51.2
198.623	79.87
198.842	49.15
199.062	59.39
199.281	51.2
199.5	30.72
199.719	38.91
199.938	53.25
200.157	120.83
200.376	-16.38
200.595	100.35
200.814	112.64
201.033	2.05
201.252	57.34
201.471	100.35
201.69	22.53
201.909	71.68
202.128	30.72
202.347	88.06
202.566	73.73
202.785	16.38
203.004	36.86
203.223	163.84
203.442	63.49
203.661	34.82
203.879	47.1
204.098	79.87
204.317	65.53
204.536	81.92
204.755	88.06
204.974	63.49
205.193	94.21
205.411	96.25
205.63	55.3
205.849	92.16
206.068	57.34
206.287	24.58
206.505	14.34
206.724	51.2
206.943	40.96
207.162	88.06
207.381	100.35
207.599	49.15
207.818	77.82
208.037	-2.05
208.255	71.68
208.474	30.72
208.693	92.16
208.911	55.3
209.13	40.96
209.349	57.34
209.567	53.25
209.786	57.34
210.005	88.06
210.223	2.05
210.442	28.67
210.661	75.77
210.879	57.34
211.098	55.3
211.316	86.01
211.535	63.49
211.753	-24.58
211.972	55.3
212.191	22.53
212.409	90.11
212.628	79.87
212.846	30.72
213.065	65.53
213.283	47.1
213.502	34.82
213.72	73.73
213.938	75.77
214.157	26.62
214.375	6.14
214.594	-43.01
214.812	40.96
215.031	112.64
215.249	22.53
215.467	-34.82
215.686	120.83
215.904	122.88
216.122	-8.19
216.341	118.78
216.559	96.25
216.778	38.91
216.996	34.82
217.214	-6.14
217.432	-75.77
217.651	59.39
217.869	18.43
218.087	83.97
218.306	30.72
218.524	96.25
218.742	16.38
218.96	55.3
219.179	65.53
219.397	65.53
219.615	137.21
219.833	131.07
220.051	22.53
220.27	96.25
220.488	18.43
220.706	51.2
220.924	30.72
221.142	59.39
221.36	92.16
221.578	30.72
221.796	14.34
222.015	79.87
222.233	38.91
222.451	126.97
222.669	-45.06
222.887	104.45
223.105	16.38
223.323	55.3
223.541	90.11
223.759	53.25
223.977	59.39
224.195	-10.24
224.413	112.64
224.631	137.21
224.849	43.01
225.067	153.6
225.285	-98.3
225.503	30.72
225.721	38.91
225.939	34.82
226.157	38.91
226.375	110.59
226.592	22.53
226.81	67.58
227.028	47.1
227.246	38.91
227.464	53.25
227.682	30.72
227.9	69.63
228.117	120.83
228.335	51.2
228.553	18.43
228.771	51.2
228.989	47.1
229.206	47.1
229.424	14.34
229.642	30.72
229.86	26.62
230.077	114.69
230.295	63.49
230.513	71.68
230.731	32.77
230.948	59.39
231.166	71.68
231.384	83.97
231.601	40.96
231.819	108.54
232.037	79.87
232.254	-2.05
232.472	63.49
232.689	26.62
232.907	73.73
233.125	30.72
233.342	43.01
233.56	18.43
233.777	38.91
233.995	-8.19
234.213	71.68
234.43	124.93
234.648	30.72
234.865	6.14
235.083	92.16
235.3	73.73
235.518	40.96
235.735	104.45
235.953	24.58
236.17	120.83
236.388	30.72
236.605	79.87
236.822	73.73
237.04	26.62
237.257	22.53
237.475	30.72
237.692	38.91
237.909	79.87
238.127	102.4
238.344	96.25
238.562	129.02
238.779	79.87
238.996	47.1
239.214	-32.77
239.431	55.3
239.648	90.11
239.865	67.58
240.083	114.69
240.3	69.63
240.517	55.3
240.735	38.91
240.952	45.06
241.169	40.96
241.386	63.49
241.603	153.6
241.821	2.05
242.038	100.35
242.255	88.06
242.472	57.34
242.689	47.1
242.907	67.58
243.124	-69.63
243.341	73.73
243.558	2.05
243.775	24.58
243.992	6.14
244.209	14.34
244.426	112.64
244.643	104.45
244.86	-12.29
245.078	88.06
245.295	104.45
245.512	81.92
245.729	14.34
245.946	96.25
246.163	81.92
246.38	96.25
246.597	94.21
246.814	67.58
247.031	67.58
247.248	40.96
247.464	-16.38
247.681	38.91
247.898	43.01
248.115	67.58
248.332	34.82
248.549	88.06
248.766	137.21
248.983	38.91
249.2	79.87
249.417	22.53
249.633	-81.92
249.85	10.24
250.067	36.86
250.284	38.91
250.501	55.3
250.717	40.96
250.934	20.48
251.151	43.01
251.368	83.97
251.585	90.11
251.801	104.45
252.018	79.87
252.235	135.17
252.451	129.02
252.668	-10.24
252.885	30.72
253.102	8.19
253.318	-38.91
253.535	30.72
253.752	18.43
253.968	-26.62
254.185	55.3
254.401	71.68
254.618	16.38
254.835	22.53
255.051	69.63
255.268	36.86
255.484	79.87
255.701	63.49
255.917	69.63
256.134	14.34
256.351	-16.38
256.567	83.97
256.784	34.82
257	-6.14
257.217	83.97
257.433	36.86
257.65	63.49
257.866	106.49
258.082	-26.62
258.299	65.53
258.515	110.59
258.732	73.73
258.948	6.14
259.165	8.19
259.381	59.39
259.597	22.53
259.814	133.12
260.03	55.3
260.246	145.41
260.463	55.3
260.679	55.3
260.895	38.91
261.112	63.49
261.328	34.82
261.544	51.2
261.761	165.89
261.977	63.49
262.193	71.68
262.409	122.88
262.626	94.21
262.842	106.49
263.058	26.62
263.274	106.49
263.49	32.77
263.707	104.45
263.923	88.06
264.139	73.73
264.355	20.48
264.571	120.83
264.787	73.73
265.004	81.92
265.22	106.49
265.436	30.72
265.652	51.2
265.868	8.19
266.084	-12.29
266.3	36.86
266.516	71.68
266.732	81.92
266.948	14.34
267.164	30.72
267.38	112.64
267.596	-12.29
267.812	112.64
268.028	61.44
268.244	24.58
268.46	83.97
268.676	38.91
268.892	-2.05
269.108	59.39
269.324	8.19
269.54	-2.05
269.756	90.11
269.972	14.34
270.188	49.15
270.403	88.06
270.619	67.58
270.835	43.01
271.051	63.49
271.267	-34.82
271.483	65.53
271.698	36.86
271.914	108.54
272.13	112.64
272.346	88.06
272.562	75.77
272.777	63.49
272.993	-45.06
273.209	26.62
273.425	45.06
273.64	18.43
273.856	120.83
274.072	57.34
274.287	26.62
274.503	38.91
274.719	63.49
274.934	131.07
275.15	8.19
275.366	55.3
275.581	81.92
275.797	2.05
276.012	18.43
276.228	75.77
276.444	24.58
276.659	59.39
276.875	43.01
277.09	65.53
277.306	69.63
277.521	81.92
277.737	38.91
277.952	67.58
278.168	83.97
278.383	79.87
278.599	2.05
278.814	104.45
279.03	75.77
279.245	188.41
279.461	18.43
279.676	43.01
279.892	81.92
280.107	47.1
280.322	4.1
280.538	43.01
280.753	67.58
280.969	36.86
281.184	53.25
281.399	112.64
281.615	49.15
281.83	104.45
282.045	57.34
282.26	73.73
282.476	-6.14
282.691	57.34
282.906	6.14
283.122	106.49
283.337	4.1
283.552	96.25
283.767	67.58
283.983	96.25
284.198	59.39
284.413	57.34
284.628	8.19
284.843	59.39
285.058	-40.96
285.274	120.83
285.489	92.16
285.704	12.29
285.919	47.1
286.134	45.06
286.349	71.68
286.564	69.63
286.779	73.73
286.995	22.53
287.21	-4.1
287.425	96.25
287.64	-10.24
287.855	38.91
288.07	24.58
288.285	96.25
288.5	104.45
288.715	65.53
288.93	67.58
289.145	86.01
289.36	96.25
289.575	47.1
289.79	118.78
290.004	88.06
290.219	88.06
290.434	98.3
290.649	40.96
290.864	26.62
291.079	45.06
291.294	-30.72
291.509	83.97
291.724	81.92
291.938	-43.01
292.153	100.35
292.368	14.34
292.583	14.34
292.798	38.91
293.012	83.97
293.227	59.39
293.442	124.93
293.657	30.72
293.871	149.5
294.086	96.25
294.301	120.83
294.516	114.69
294.73	24.58
294.945	26.62
295.16	38.91
295.374	55.3
295.589	90.11
295.804	24.58
296.018	176.13
296.233	24.58
296.447	34.82
296.662	40.96
296.877	81.92
297.091	59.39
297.306	67.58
297.52	63.49
297.735	83.97
297.949	16.38
298.164	65.53
298.378	83.97
298.593	40.96
298.807	-22.53
299.022	63.49
299.236	65.53
299.451	63.49
299.665	55.3
299.88	-32.77
300.094	77.82
300.309	51.2
300.523	96.25
300.737	79.87
300.952	-8.19
301.166	20.48
301.381	-2.05
301.595	30.72
301.809	49.15
302.024	47.1
302.238	96.25
302.452	30.72
302.667	40.96
302.881	67.58
303.095	112.64
303.309	79.87
303.524	55.3
303.738	67.58
303.952	133.12
304.166	71.68
304.381	26.62
304.595	79.87
304.809	22.53
305.023	49.15
305.237	-14.34
305.452	14.34
305.666	51.2
305.88	69.63
306.094	51.2
306.308	79.87
306.522	71.68
306.736	73.73
306.95	49.15
307.164	-34.82
307.379	81.92
307.593	120.83
307.807	55.3
308.021	90.11
308.235	65.53
308.449	34.82
308.663	86.01
308.877	108.54
309.091	12.29
309.305	34.82
309.519	20.48
309.733	57.34
309.947	14.34
310.161	32.77
310.374	12.29
310.588	55.3
310.802	-2.05
311.016	63.49
311.23	75.77
311.444	32.77
311.658	43.01
311.872	104.45
312.085	137.21
312.299	98.3
312.513	106.49
312.727	65.53
312.941	59.39
313.154	-10.24
313.368	63.49
313.582	16.38
313.796	88.06
314.009	8.19
314.223	96.25
314.437	88.06
314.651	112.64
314.864	8.19
315.078	45.06
315.292	32.77
315.505	96.25
315.719	40.96
315.933	26.62
316.146	-2.05
316.36	83.97
316.573	63.49
316.787	114.69
317.001	47.1
317.214	26.62
317.428	49.15
317.641	34.82
317.855	61.44
318.068	6.14
318.282	43.01
318.495	47.1
318.709	43.01
318.922	6.14
319.136	65.53
319.349	139.26
319.563	49.15
319.776	77.82
319.99	-10.24
320.203	-14.34
320.417	131.07
320.63	63.49
320.843	129.02
321.057	55.3
321.27	69.63
321.483	79.87
321.697	30.72
321.91	38.91
322.124	16.38
322.337	6.14
322.55	63.49
322.763	63.49
322.977	14.34
323.19	61.44
323.403	155.65
323.617	61.44
323.83	59.39
324.043	67.58
324.256	22.53
324.469	30.72
324.683	61.44
324.896	-30.72
325.109	73.73
325.322	88.06
325.535	90.11
325.748	149.5
325.962	63.49
326.175	34.82
326.388	110.59
326.601	73.73
326.814	6.14
327.027	24.58
327.24	151.55
327.453	79.87
327.666	24.58
327.879	96.25
328.092	100.35
328.305	112.64
328.518	24.58
328.731	55.3
328.944	83.97
329.157	32.77
329.37	34.82
329.583	100.35
329.796	157.69
330.009	30.72
330.222	38.91
330.435	79.87
330.648	24.58
330.861	59.39
331.073	79.87
331.286	53.25
331.499	32.77
331.712	75.77
331.925	43.01
332.138	36.86
332.35	63.49
332.563	10.24
332.776	57.34
332.989	90.11
333.202	120.83
333.414	12.29
333.627	43.01
333.84	124.93
334.053	57.34
334.265	47.1
334.478	30.72
334.691	30.72
334.903	79.87
335.116	-2.05
335.329	75.77
335.541	4.1
335.754	30.72
335.966	67.58
336.179	51.2
336.392	124.93
336.604	83.97
336.817	49.15
337.029	22.53
337.242	-24.58
337.454	14.34
337.667	-30.72
337.88	118.78
338.092	129.02
338.305	77.82
338.517	59.39
338.729	88.06
338.942	59.39
339.154	26.62
339.367	26.62
339.579	40.96
339.792	-0
340.004	73.73
340.217	106.49
340.429	55.3
340.641	51.2
340.854	51.2
341.066	-2.05
341.278	98.3
341.491	79.87
341.703	55.3
341.915	16.38
342.128	124.93
342.34	79.87
342.552	38.91
342.764	49.15
342.977	-0
343.189	40.96
343.401	20.48
343.613	2.05
343.826	81.92
344.038	98.3
344.25	86.01
344.462	-8.19
344.674	75.77
344.886	2.05
345.099	90.11
345.311	83.97
345.523	51.2
345.735	40.96
345.947	18.43
346.159	59.39
346.371	30.72
346.583	86.01
346.795	75.77
347.007	36.86
347.219	32.77
347.431	88.06
347.643	79.87
347.855	-26.62
348.067	71.68
348.279	47.1
348.491	51.2
348.703	73.73
348.915	57.34
349.127	47.1
349.339	149.5
349.551	114.69
349.763	104.45
349.975	34.82
350.187	108.54
350.399	83.97
350.61	79.87
350.822	8.19
351.034	120.83
351.246	-16.38
351.458	79.87
351.669	100.35
351.881	98.3
352.093	57.34
352.305	133.12
352.517	51.2
352.728	122.88
352.94	63.49
353.152	96.25
353.363	-14.34
353.575	59.39
353.787	161.79
353.999	14.34
354.21	71.68
354.422	36.86
354.633	63.49
354.845	129.02
355.057	137.21
355.268	112.64
355.48	69.63
355.692	57.34
355.903	32.77
356.115	34.82
356.326	57.34
356.538	151.55
356.749	-14.34
356.961	161.79
357.172	51.2
357.384	59.39
357.595	65.53
357.807	22.53
358.018	104.45
358.23	133.12
358.441	49.15
358.653	79.87
358.864	53.25
359.075	28.67
359.287	47.1
359.498	30.72
359.709	59.39
359.921	79.87
360.132	116.73
360.344	75.77
360.555	6.14
360.766	141.31
360.977	26.62
361.189	104.45
361.4	36.86
361.611	104.45
361.823	108.54
362.034	73.73
362.245	145.41
362.456	59.39
362.667	57.34
362.879	63.49
363.09	43.01
363.301	96.25
363.512	-8.19
363.723	116.73
363.935	51.2
364.146	137.21
364.357	38.91
364.568	106.49
364.779	34.82
364.99	96.25
365.201	55.3
365.412	122.88
365.623	63.49
365.834	51.2
366.045	71.68
366.256	139.26
366.467	22.53
366.678	57.34
366.889	67.58
367.1	71.68
367.311	145.41
367.522	88.06
367.733	112.64
367.944	63.49
368.155	51.2
368.366	24.58
368.577	98.3
368.788	55.3
368.999	38.91
369.209	124.93
369.42	100.35
369.631	145.41
369.842	169.98
370.053	2.05
370.264	57.34
370.474	53.25
370.685	92.16
370.896	96.25
371.107	88.06
371.317	114.69
371.528	51.2
371.739	106.49
371.95	104.45
372.16	88.06
372.371	18.43
372.582	92.16
372.792	47.1
373.003	10.24
373.214	24.58
373.424	112.64
373.635	120.83
373.846	139.26
374.056	145.41
374.267	139.26
374.477	71.68
374.688	71.68
374.898	59.39
375.109	104.45
375.319	104.45
375.53	73.73
375.74	65.53
375.951	57.34
376.161	28.67
376.372	118.78
376.582	65.53
376.793	129.02
377.003	18.43
377.214	69.63
377.424	8.19
377.635	26.62
377.845	90.11
378.055	79.87
378.266	-16.38
378.476	98.3
378.686	112.64
378.897	75.77
379.107	67.58
379.317	79.87
379.528	65.53
379.738	14.34
379.948	63.49
380.158	61.44
380.369	-2.05
380.579	51.2
380.789	108.54
380.999	124.93
381.21	108.54
381.42	112.64
381.63	57.34
381.84	81.92
382.05	59.39
382.261	92.16
382.471	75.77
382.681	57.34
382.891	135.17
383.101	98.3
383.311	-14.34
383.521	-16.38
383.731	90.11
383.941	67.58
384.151	81.92
384.361	71.68
384.571	69.63
384.781	98.3
384.991	43.01
385.201	120.83
385.411	100.35
385.621	30.72
385.831	43.01
386.041	122.88
386.251	18.43
386.461	47.1
386.671	96.25
386.881	92.16
387.091	79.87
387.301	90.11
387.511	129.02
387.72	131.07
387.93	108.54
388.14	47.1
388.35	65.53
388.56	79.87
388.769	47.1
388.979	63.49
389.189	88.06
389.399	129.02
389.609	59.39
389.818	90.11
390.028	10.24
390.238	133.12
390.447	6.14
390.657	143.36
390.867	32.77
391.076	47.1
391.286	120.83
391.496	102.4
391.705	79.87
391.915	71.68
392.125	112.64
392.334	96.25
392.544	86.01
392.753	75.77
392.963	73.73
393.172	98.3
393.382	67.58
393.591	100.35
393.801	73.73
394.01	120.83
394.22	43.01
394.429	65.53
394.639	98.3
394.848	139.26
395.058	102.4
395.267	88.06
395.477	120.83
395.686	63.49
395.895	139.26
396.105	200.7
396.314	47.1
396.524	163.84
396.733	129.02
396.942	98.3
397.152	90.11
397.361	88.06
397.57	135.17
397.78	120.83
397.989	53.25
398.198	155.65
398.407	88.06
398.617	196.6
398.826	55.3
399.035	215.04
399.244	90.11
399.453	169.98
399.663	79.87
399.872	63.49
400.081	83.97
400.29	129.02
400.499	98.3
400.708	172.03
400.917	112.64
401.127	88.06
401.336	124.93
401.545	131.07
401.754	112.64
401.963	120.83
402.172	178.17
402.381	63.49
402.59	126.97
402.799	145.41
403.008	122.88
403.217	192.51
403.426	182.27
403.635	112.64
403.844	174.08
404.053	157.69
404.262	92.16
404.471	196.6
404.68	137.21
404.888	186.37
405.097	161.79
405.306	186.37
405.515	157.69
405.724	169.98
405.933	204.8
406.142	278.52
406.35	153.6
406.559	231.42
406.768	215.04
406.977	184.32
407.185	237.56
407.394	180.22
407.603	210.94
407.812	180.22
408.02	286.72
408.229	253.95
408.438	251.9
408.646	204.8
408.855	223.23
409.064	292.86
409.272	270.33
409.481	350.2
409.69	307.2
409.898	276.48
410.107	344.06
410.315	317.44
410.524	223.23
410.733	370.68
410.941	370.68
411.15	274.43
411.358	350.2
411.567	417.79
411.775	352.25
411.984	415.74
412.192	423.93
412.401	423.93
412.609	468.98
412.818	538.62
413.026	456.7
413.234	428.03
413.443	440.31
413.651	530.42
413.86	509.94
414.068	528.38
414.276	598.01
414.485	591.86
414.693	694.26
414.901	638.97
415.11	653.3
415.318	677.88
415.526	712.69
415.734	704.5
415.943	776.18
416.151	765.94
416.359	759.8
416.567	772.08
416.776	806.9
416.984	894.96
417.192	968.69
417.4	987.12
417.608	960.5
417.817	886.77
418.025	956.4
418.233	1187.82
418.441	1112.05
418.649	1136.62
418.857	1202.16
419.065	1196.01
419.273	1138.67
419.481	1187.82
419.689	1296.36
419.897	1402.86
420.105	1474.54
420.313	1513.45
420.521	1458.15
420.729	1488.87
420.937	1533.93
421.145	1693.67
421.353	1683.43
421.561	1812.45
421.769	1779.68
421.977	1931.23
422.185	1857.51
422.393	2082.78
422.601	2009.06
422.809	2090.98
423.017	2160.61
423.224	2154.46
423.432	2193.37
423.64	2310.11
423.848	2496.47
424.056	2377.69
424.263	2697.17
424.471	2523.1
424.679	2605.02
424.887	2779.09
425.094	2820.05
425.302	2834.39
425.51	2781.14
425.718	3078.1
425.925	3049.43
426.133	3194.83
426.341	3403.72
426.548	3499.98
426.756	3469.26
426.964	3602.38
427.171	3647.43
427.379	3995.59
427.586	3942.34
427.794	4161.47
428.001	4231.1
428.209	4364.22
428.417	4452.28
428.624	4702.14
428.832	4573.11
429.039	4630.46
429.247	4732.86
429.454	5105.59
429.662	5420.97
429.869	5062.58
430.076	5277.62
430.284	5220.27
430.491	5449.64
430.699	5750.7
430.906	5801.9
431.114	5937.06
431.321	6051.75
431.528	6123.43
431.736	6668.19
431.943	6858.65
432.15	6635.42
432.358	6909.85
432.565	7157.65
432.772	6952.85
432.979	7579.53
433.187	7589.77
433.394	7694.22
433.601	8206.21
433.808	8183.68
434.016	8003.46
434.223	8531.84
434.43	8998.77
434.637	8810.36
434.844	9271.15
435.052	9566.06
435.259	9592.69
435.466	9566.06
435.673	9367.41
435.88	10250.08
436.087	10747.74
436.294	10598.24
436.501	10336.1
436.708	10602.33
436.915	10917.72
437.122	11427.67
437.329	11411.28
437.537	11644.75
437.743	12191.56
437.95	11745.1
438.157	12418.88
438.364	12697.41
438.571	12805.95
438.778	12877.63
438.985	13934.38
439.192	13459.25
439.399	13954.86
439.606	13557.55
439.813	14485.28
440.02	15476.5
440.227	15144.73
440.433	15079.19
440.64	15390.49
440.847	15202.07
441.054	15826.7
441.261	16623.36
441.467	16631.55
441.674	16762.62
441.881	17350.39
442.088	17315.58
442.294	17051.39
442.501	17637.11
442.708	17698.55
442.914	18630.37
443.121	19457.75
443.328	18958.05
443.534	20002.51
443.741	19541.72
443.948	19584.73
444.154	20739.78
444.361	20733.64
444.568	20842.18
444.774	20926.14
444.981	21069.5
445.187	21585.59
445.394	22507.18
445.6	21929.65
445.807	24389.26
446.013	23344.8
446.22	23871.12
446.426	24440.46
446.633	24891.01
446.839	25814.65
447.046	24749.7
447.252	26236.53
447.459	25835.13
447.665	26058.35
447.871	27008.61
448.078	28071.51
448.284	26812.01
448.491	27747.93
448.697	28569.16
448.903	29220.42
449.11	29544
449.316	28874.31
449.522	29445.69
449.728	30103.09
449.935	30336.56
450.141	30430.77
450.347	31090.21
450.553	30428.72
450.76	30819.88
450.966	31276.58
451.172	30946.86
451.378	32165.4
451.584	31553.05
451.791	32247.32
451.997	32235.03
452.203	32433.68
452.409	32687.63
452.615	32357.91
452.821	31268.39
453.027	31196.71
453.233	32902.67
453.44	31366.69
453.646	31661.6
453.852	31886.87
454.058	32552.46
454.264	31366.69
454.47	32192.02
454.676	31272.48
454.882	32718.35
455.088	29335.1
455.294	30133.81
455.5	30791.21
455.705	31237.67
455.911	29756.99
456.117	29288
456.323	29025.86
456.529	27156.07
456.735	28601.93
456.941	27876.95
457.147	27598.43
457.352	26414.7
457.558	26297.97
457.764	26343.02
457.97	26218.1
458.176	25046.66
458.381	25144.96
458.587	24032.91
458.793	24159.89
458.999	22908.58
459.204	24536.71
459.41	23768.73
459.616	22286
459.821	22654.63
460.027	22226.6
460.233	21749.43
460.438	20557.51
460.644	21327.55
460.85	19676.88
461.055	19433.18
461.261	19635.92
461.466	18269.93
461.672	17815.28
461.878	19166.94
462.083	17749.75
462.289	17503.99
462.494	16975.61
462.7	16420.61
462.905	16062.22
463.111	16293.64
463.316	16582.4
463.522	16316.17
463.727	16115.47
463.932	16197.38
464.138	15972.11
464.343	16209.67
464.549	15869.71
464.754	16121.61
464.959	16074.51
465.165	15697.68
465.37	15243.03
465.575	14698.27
465.781	15185.69
465.986	15507.22
466.191	15073.05
466.397	14487.33
466.602	13854.51
466.807	14464.8
467.012	14616.35
467.218	14364.45
467.423	14141.22
467.628	14247.72
467.833	14855.97
468.038	13911.85
468.244	13952.81
468.449	14464.8
468.654	14014.25
468.859	13879.08
469.064	13518.64
469.269	13403.96
469.474	13328.18
469.679	13403.96
469.885	13117.24
470.09	13467.44
470.295	13231.93
470.5	13090.62
470.705	13072.18
470.91	12967.74
471.115	12427.07
471.32	13014.84
471.525	12947.26
471.73	12480.32
471.935	12605.25
472.139	11904.84
472.344	12240.71
472.549	12070.73
472.754	12072.78
472.959	11861.83
473.164	11573.07
473.369	11538.26
473.574	11810.64
473.778	11530.06
473.983	11493.2
474.188	11519.82
474.393	10917.72
474.598	11128.66
474.802	11020.12
475.007	10819.42
475.212	10770.27
475.417	10485.6
475.621	10489.7
475.826	10618.72
476.031	10229.6
476.235	9959.27
476.44	10272.61
476.645	9994.09
476.849	10200.93
477.054	9944.94
477.259	9824.11
477.463	9740.14
477.668	9557.87
477.872	9764.71
478.077	9308.02
478.282	9156.47
478.486	9109.36
478.691	8976.25
478.895	9013.11
479.1	8959.86
479.304	9035.64
479.509	8884.09
479.713	9025.4
479.918	8941.43
480.122	8640.38
480.326	8912.76
480.531	8609.66
480.735	8695.68
480.94	8576.89
481.144	8894.33
481.348	8411.01
481.553	8570.75
481.757	8333.18
481.961	8484.73
482.166	8470.4
482.37	8370.05
482.574	8286.08
482.778	8345.47
482.983	8435.58
483.187	8396.67
483.391	8273.79
483.595	8249.22
483.8	8136.58
484.004	8302.47
484.208	8572.8
484.412	8292.23
484.616	8439.68
484.821	8378.24
485.025	8337.28
485.229	8378.24
485.433	8275.84
485.637	8312.71
485.841	8191.88
486.045	8255.36
486.249	8419.2
486.453	8247.17
486.657	8486.78
486.861	8380.29
487.065	8425.34
487.269	8152.96
487.473	8052.61
487.677	8349.57
487.881	8206.21
488.085	8443.78
488.289	8415.1
488.493	8243.07
488.697	8398.72
488.901	8435.58
489.105	8554.37
489.309	8507.26
489.512	8527.74
489.716	8451.97
489.92	8437.63
490.124	8288.13
490.328	8535.93
490.531	8439.68
490.735	8609.66
490.939	8677.24
491.143	8617.85
491.346	8615.8
491.55	8707.96
491.754	8574.85
491.958	8675.2
492.161	8632.19
492.365	8800.12
492.569	8650.62
492.772	8601.47
492.976	8886.14
493.18	9027.45
493.383	9039.73
493.587	9027.45
493.79	9234.29
493.994	8988.53
494.197	9031.54
494.401	9107.32
494.605	9394.03
494.808	9402.22
495.012	9508.72
495.215	9561.97
495.419	9717.61
495.622	9566.06
495.825	9645.93
496.029	9613.17
496.232	9873.26
496.436	9703.28
496.639	9963.37
496.843	10010.47
497.046	10194.79
497.249	10305.38
497.453	10243.94
497.656	10473.31
497.859	10413.92
498.063	10485.6
498.266	10868.57
498.469	10815.32
498.673	10729.31
498.876	11089.75
499.079	11077.46
499.282	11007.83
499.485	11427.67
499.689	11339.6
499.892	11630.41
500.095	11634.51
500.298	11990.86
500.501	11884.36
500.705	11976.52
500.908	12158.79
501.111	12476.23
501.314	12572.48
501.517	12453.7
501.72	12728.13
501.923	12695.36
502.126	12953.4
502.329	13141.82
502.532	13172.53
502.735	13231.93
502.938	13614.9
503.141	13635.38
503.344	13856.56
503.547	14102.31
503.75	14278.44
503.953	14352.16
504.156	14368.55
504.359	14436.13
504.562	14614.3
504.765	14892.83
504.968	14993.18
505.17	15015.71
505.373	15355.67
505.576	15697.68
505.779	15793.93
505.982	15714.06
506.185	16393.99
506.387	16019.21
506.59	16072.46
506.793	16422.66
506.996	16537.35
507.198	17020.67
507.401	16699.14
507.604	17118.97
507.807	17336.06
508.009	17542.9
508.212	17450.74
508.415	17987.31
508.617	17813.23
508.82	18290.41
509.022	18110.19
509.225	18603.75
509.428	18722.53
509.63	19048.16
509.833	19068.64
510.035	19312.35
510.238	19437.27
510.44	19646.16
510.643	19689.17
510.845	20225.74
511.048	20027.09
511.25	20176.59
511.453	20506.31
511.655	21159.61
511.858	20885.19
512.06	21077.69
512.262	21198.52
512.465	20991.68
512.667	21692.08
512.87	21933.75
513.072	21937.84
513.274	22257.32
513.477	22595.24
513.679	22693.54
513.881	22994.59
514.084	23154.33
514.286	23275.16
514.488	23471.77
514.69	23879.32
514.893	24262.29
515.095	24237.71
515.297	24266.38
515.499	24321.68
515.701	24829.57
515.904	24999.55
516.106	25114.24
516.308	25435.77
516.51	25642.62
516.712	25804.41
516.914	26316.4
517.116	26435.18
517.318	26486.38
517.52	26435.18
517.722	26535.53
517.925	27242.08
518.127	27317.86
518.329	27448.93
518.531	27547.23
518.733	27979.35
518.935	28419.66
519.136	28614.22
519.338	28685.9
519.54	29005.38
519.742	29382.21
519.944	29138.5
520.146	29859.38
520.348	29894.2
520.55	29978.17
520.752	30068.28
520.954	30543.41
521.155	30692.91
521.357	31008.29
521.559	31151.65
521.761	31501.86
521.963	31479.33
522.164	31858.2
522.366	31684.12
522.568	32300.56
522.77	32308.75
522.971	32894.47
523.173	32699.92
523.375	32859.66
523.576	33111.56
523.778	33412.61
523.98	33531.39
524.181	33725.95
524.383	33652.22
524.584	34145.78
524.786	34166.26
524.988	33977.85
525.189	34430.45
525.391	34590.19
525.592	34524.66
525.794	34893.29
525.995	34870.76
526.197	34727.41
526.398	35034.6
526.6	35429.86
526.801	35769.82
527.003	35200.49
527.204	35851.74
527.406	35798.49
527.607	36193.75
527.808	36425.17
528.01	35540.45
528.211	35982.81
528.412	36896.2
528.614	36586.96
528.815	36548.05
529.016	36902.35
529.218	36339.16
529.419	36359.64
529.62	36658.64
529.822	36728.27
530.023	36826.57
530.224	37230.02
530.425	37101
530.626	36916.68
530.828	36767.18
531.029	37694.91
531.23	37262.79
531.431	37203.4
531.632	37176.78
531.833	37596.61
532.035	37752.26
532.236	37748.16
532.437	37742.02
532.638	37111.24
532.839	37324.23
533.04	37828.03
533.241	37199.3
533.442	37752.26
533.643	37883.33
533.844	37750.21
534.045	37490.12
534.246	37645.76
534.447	38096.31
534.648	37748.16
534.849	37610.95
535.05	37492.16
535.251	37860.8
535.451	37567.94
535.652	37801.41
535.853	37619.14
536.054	37860.8
536.255	37707.2
536.456	37592.51
536.657	38600.11
536.857	37678.53
537.058	37574.08
537.259	38268.34
537.46	37961.15
537.66	37897.66
537.861	37744.06
538.062	37799.36
538.263	37821.89
538.463	38094.27
538.664	37617.09
538.865	37766.59
539.065	38131.13
539.266	37459.4
539.466	38217.14
539.667	37334.47
539.868	37664.19
540.068	37778.88
540.269	37719.49
540.469	38120.89
540.67	37641.67
540.87	37424.58
541.071	37580.23
541.271	37795.26
541.472	37656
541.672	37514.69
541.873	37522.88
542.073	36842.96
542.274	37916.09
542.474	37334.47
542.675	37311.94
542.875	37737.92
543.075	37115.34
543.276	37094.86
543.476	38182.33
543.676	37328.33
543.877	37402.05
544.077	37647.81
544.277	37635.52
544.478	37385.67
544.678	37469.64
544.878	37178.82
545.078	37436.87
545.279	37057.99
545.479	37676.48
545.679	37922.24
545.879	37383.62
546.079	37635.52
546.28	37133.77
546.48	37021.13
546.68	37412.29
546.88	37502.4
547.08	37432.77
547.28	37133.77
547.48	36945.36
547.68	37731.78
547.88	36943.31
548.081	37653.95
548.281	37367.24
548.481	36988.36
548.681	37215.69
548.881	37148.11
549.081	37266.89
549.28	37051.85
549.48	37309.89
549.68	36982.22
549.88	38002.11
550.08	37047.75
550.28	37098.95
550.48	37053.9
550.68	37146.06
550.88	36855.25
551.08	36859.34
551.279	36869.58
551.479	37078.47
551.679	37152.2
551.879	37068.23
552.079	37387.72
552.278	37078.47
552.478	37154.25
552.678	37383.62
552.878	37537.22
553.077	37064.14
553.277	36627.92
553.477	37330.37
553.676	36607.44
553.876	36447.7
554.076	36566.48
554.275	36640.21
554.475	36160.98
554.674	36681.17
554.874	36320.73
555.074	36515.28
555.273	36695.5
555.473	36681.17
555.672	36261.33
555.872	36320.73
556.071	36326.87
556.271	36306.39
556.47	36226.52
556.67	36173.27
556.869	36433.36
557.068	36556.24
557.268	36072.92
557.467	36193.75
557.667	36214.23
557.866	36017.63
558.065	36064.73
558.265	35694.05
558.464	36183.51
558.663	36255.19
558.863	35601.89
559.062	36283.86
559.261	35507.68
559.461	36138.46
559.66	35567.07
559.859	35388.9
560.058	35661.28
560.258	36050.39
560.457	35159.53
560.656	35827.17
560.855	35622.37
561.054	35261.93
561.253	35247.59
561.453	35595.74
561.652	35442.15
561.851	35595.74
562.05	35091.94
562.249	34991.59
562.448	35358.18
562.647	34958.83
562.846	35096.04
563.045	35069.42
563.244	34582
563.443	35198.44
563.642	34223.61
563.841	34952.68
564.04	34246.13
564.239	34512.37
564.438	34377.2
564.637	34805.23
564.836	34571.76
565.035	34047.48
565.234	34467.31
565.432	34305.52
565.631	33926.65
565.83	34399.73
566.029	34086.39
566.228	34094.58
566.427	33750.52
566.625	33711.61
566.824	33316.36
567.023	34055.67
567.222	33670.65
567.42	33492.48
567.619	33531.39
567.818	33582.59
568.016	33748.48
568.215	33654.27
568.414	33236.48
568.612	33633.79
568.811	33277.44
569.01	32949.77
569.208	33003.02
569.407	33173
569.605	32605.71
569.804	32691.73
570.002	32507.41
570.201	32480.78
570.4	32593.42
570.598	32550.42
570.797	32390.67
570.995	32347.67
571.193	32192.02
571.392	32538.13
571.59	32034.33
571.789	32046.61
571.987	32183.83
572.186	31745.56
572.384	31931.93
572.582	31833.63
572.781	31948.31
572.979	31505.95
573.177	31956.5
573.376	31614.49
573.574	31505.95
573.772	31528.48
573.971	31219.24
574.169	31082.02
574.367	31329.83
574.565	31329.83
574.763	31454.75
574.962	30909.99
575.16	30676.52
575.358	30963.24
575.556	30012.98
575.754	30852.65
575.952	30142
576.151	30803.5
576.349	30359.09
576.547	30332.47
576.745	30303.79
576.943	30598.7
577.141	30225.97
577.339	30072.37
577.537	30182.96
577.735	29724.22
577.933	29679.16
578.131	29826.62
578.329	29799.99
578.527	29507.13
578.725	29754.94
578.923	29763.13
579.121	29251.14
579.319	29290.05
579.516	29349.44
579.714	29075.01
579.912	29216.32
580.11	28857.93
580.308	29085.25
580.506	28771.91
580.704	28517.96
580.901	28808.78
581.099	29163.07
581.297	28692.04
581.495	28712.52
581.692	28528.2
581.89	28307.02
582.088	28558.92
582.285	28477.01
582.483	28278.35
582.681	28118.61
582.878	28083.8
583.076	27854.42
583.274	27979.35
583.471	27663.96
583.669	28087.89
583.866	27504.22
584.064	27881.05
584.262	27139.68
584.459	27727.45
584.657	27362.91
584.854	27608.67
585.052	27121.25
585.249	27149.92
585.447	27330.14
585.644	26906.21
585.841	26922.6
586.039	26975.84
586.236	26809.96
586.434	26713.7
586.631	26420.84
586.828	26668.65
587.026	26742.38
587.223	26709.61
587.42	26588.78
587.618	26222.19
587.815	26326.64
588.012	25980.53
588.21	25935.48
588.407	26777.19
588.604	26072.69
588.801	25630.33
588.999	25966.2
589.196	26232.43
589.393	25908.85
589.59	25659
589.787	25626.23
589.984	25552.51
590.182	25257.6
590.379	25497.21
590.576	25276.03
590.773	25243.26
590.97	25005.7
591.167	25360
591.364	24884.87
591.561	25083.52
591.758	24565.39
591.955	24745.61
592.152	24913.54
592.349	24764.04
592.546	24559.24
592.743	24526.47
592.94	24254.09
593.137	24303.25
593.334	24555.15
593.531	24118.93
593.727	24188.56
593.924	24366.73
594.121	23729.81
594.318	24161.94
594.515	23797.4
594.712	24235.66
594.908	23420.57
595.105	23926.42
595.302	23582.36
595.499	23527.06
595.696	23332.51
595.892	23395.99
596.089	23283.36
596.286	23699.09
596.482	23242.4
596.679	23142.05
596.876	23211.68
597.072	22927.01
597.269	23131.81
597.466	22967.97
597.662	22685.35
597.859	22730.41
598.055	22740.64
598.252	22595.24
598.448	22437.55
598.645	22458.03
598.841	22142.64
599.038	22269.61
599.234	22423.21
599.431	22044.34
599.627	22052.53
599.824	22281.9
600.02	22228.65
600.217	22193.84
600.413	21982.9
600.609	21837.49
600.806	21796.53
601.002	21778.1
601.198	21391.03
601.395	21350.07
601.591	21561.01
601.787	21380.79
601.984	21360.31
602.18	21401.27
602.376	21229.24
602.572	21202.62
602.769	21235.39
602.965	20938.43
603.161	20862.66
603.357	20905.67
603.553	20674.24
603.75	20860.61
603.946	20850.37
604.142	21026.5
604.338	20668.1
604.534	20555.46
604.73	20666.05
604.926	20301.51
605.122	20438.73
605.318	20397.77
605.514	19967.7
605.71	20109.01
605.906	20059.85
606.102	20149.96
606.298	20115.15
606.494	19988.17
606.69	19979.98
606.886	20098.77
607.082	19558.1
607.278	19740.37
607.474	19652.31
607.67	19678.93
607.866	19586.77
608.062	19928.78
608.257	19367.64
608.453	19658.45
608.649	19691.22
608.845	19478.23
609.041	19279.58
609.236	19273.43
609.432	19437.27
609.628	19197.66
609.824	19160.8
610.019	18974.43
610.215	19328.73
610.411	19095.26
610.606	18929.38
610.802	18861.79
610.998	18876.13
611.193	18908.9
611.389	18743.01
611.584	18884.32
611.78	18761.44
611.976	18515.69
612.171	18708.19
612.367	18683.62
612.562	18654.95
612.758	18513.64
612.953	18353.9
613.149	18536.17
613.344	18409.19
613.539	18624.23
613.735	18439.91
613.93	18552.55
614.126	18364.14
614.321	18583.27
614.517	18337.51
614.712	18427.62
614.907	18110.19
615.103	18263.79
615.298	18196.2
615.493	18425.57
615.688	17866.48
615.884	18175.72
616.079	17661.68
616.274	17970.93
616.47	17800.94
616.665	18030.32
616.86	17714.93
617.055	17811.18
617.25	17829.62
617.445	17970.93
617.641	17512.18
617.836	17952.49
618.031	17403.64
618.226	17405.69
618.421	17512.18
618.616	17749.75
618.811	17090.3
619.006	17389.3
619.201	17151.74
619.396	17155.83
619.591	16684.8
619.786	17327.86
619.981	16783.1
620.176	16858.88
620.371	16791.3
620.566	16992
620.761	16748.29
620.956	16729.86
621.151	16422.66
621.346	16652.03
621.541	16094.99
621.735	16387.85
621.93	16121.61
622.125	16133.9
622.32	16021.26
622.515	16035.6
622.709	16029.45
622.904	15800.08
623.099	15890.19
623.294	16074.51
623.488	15499.03
623.683	15656.72
623.878	15513.36
624.072	15322.9
624.267	15300.37
624.462	15185.69
624.656	15021.85
624.851	15191.83
625.046	14933.79
625.24	15054.62
625.435	14896.92
625.629	14901.02
625.824	14585.63
626.018	14671.65
626.213	14380.84
626.407	14567.2
626.602	14243.62
626.796	14036.78
626.991	14241.57
627.185	14038.83
627.38	14100.26
627.574	13858.6
627.768	13991.72
627.963	13879.08
628.157	13756.21
628.352	13758.25
628.546	13383.48
628.74	13672.24
628.935	13477.68
629.129	13152.06
629.323	13244.21
629.517	13199.16
629.712	13092.66
629.906	13264.69
630.1	12808
630.294	12961.59
630.489	12842.81
630.683	12789.56
630.877	12695.36
631.071	12609.34
631.265	12756.8
631.459	12711.74
631.653	12347.2
631.848	12535.62
632.042	12166.98
632.236	12482.37
632.43	12275.52
632.624	12228.42
632.818	12150.6
633.012	11890.51
633.206	12160.84
633.4	12015.43
633.594	11663.18
633.788	11827.02
633.982	11867.98
634.176	11945.8
634.369	11568.98
634.563	11654.99
634.757	11517.78
634.951	11437.91
635.145	11669.33
635.339	11458.39
635.533	11468.62
635.726	11210.58
635.92	11091.8
636.114	11229.01
636.308	10993.5
636.501	11024.22
636.695	10919.77
636.889	10944.34
637.083	10805.08
637.276	10948.44
637.47	10655.58
637.664	10760.03
637.857	10620.77
638.051	10753.88
638.244	10547.04
638.438	10553.18
638.632	10307.43
638.825	10116.97
639.019	10325.86
639.212	10166.12
639.406	10375.01
639.599	10069.86
639.793	10278.76
639.986	9916.26
640.18	10127.21
640.373	9975.66
640.567	9820.01
640.76	9846.63
640.954	9789.29
641.147	9543.53
641.34	9410.42
641.534	9449.33
641.727	9590.64
641.92	9533.29
642.114	9443.18
642.307	9412.46
642.5	9324.4
642.694	9269.11
642.887	9031.54
643.08	9297.78
643.273	9166.71
643.467	9172.85
643.66	8939.38
643.853	9107.32
644.046	8918.9
644.239	8906.62
644.432	8656.76
644.626	8748.92
644.819	8804.22
645.012	8710.01
645.205	8677.24
645.398	8515.45
645.591	8593.28
645.784	8527.74
645.977	8486.78
646.17	8544.13
646.363	8308.61
646.556	8361.86
646.749	8476.54
646.942	8263.55
647.135	8222.59
647.328	8159.11
647.521	8228.74
647.714	7978.89
647.907	8132.48
648.099	8028.04
648.292	7755.66
648.485	7712.65
648.678	7890.82
648.871	7817.1
649.064	7778.19
649.256	7823.24
649.449	7731.08
649.642	7597.96
649.835	7815.05
650.027	7640.97
650.22	7380.88
650.413	7413.65
650.605	7430.03
650.798	7382.93
650.991	7067.54
651.183	7329.68
651.376	7235.47
651.568	7348.11
651.761	7059.35
651.954	7088.02
652.146	7255.95
652.339	7108.5
652.531	7151.51
652.724	6913.94
652.916	6920.09
653.109	6866.84
653.301	6858.65
653.494	7163.79
653.686	6815.64
653.879	6879.13
654.071	6897.56
654.263	6682.52
654.456	6662.04
654.648	6711.19
654.84	6608.8
655.033	6512.54
655.225	6494.11
655.417	6338.46
655.61	6526.88
655.802	6549.4
655.994	6231.97
656.186	6346.66
656.379	6430.62
656.571	6244.26
656.763	6330.27
656.955	6338.46
657.148	6150.05
657.34	6250.4
657.532	6131.62
657.724	6137.76
657.916	6180.77
658.108	6170.53
658.3	6041.51
658.492	5889.96
658.684	5900.2
658.876	5969.83
659.068	5842.85
659.26	5918.63
659.452	5904.29
659.644	5949.35
659.836	5740.46
660.028	5693.35
660.22	5679.02
660.412	5593
660.604	5537.71
660.796	5605.29
660.988	5502.89
661.18	5523.37
661.372	5513.13
661.563	5498.8
661.755	5433.26
661.947	5449.64
662.139	5504.94
662.331	5375.92
662.522	5367.73
662.714	5248.94
662.906	5259.18
663.097	5224.37
663.289	5306.29
663.481	5142.45
663.673	5300.14
663.864	5156.79
664.056	5193.65
664.247	4904.89
664.439	5044.15
664.631	5107.63
664.822	5064.63
665.014	4995
665.205	4872.12
665.397	5103.54
665.588	4820.92
665.78	4865.97
665.971	4868.02
666.163	5003.19
666.354	4927.41
666.546	4798.39
666.737	4779.96
666.929	4726.71
667.12	4822.97
667.311	4753.34
667.503	4652.98
667.694	4605.88
667.885	4556.73
668.077	4659.13
668.268	4513.72
668.459	4677.56
668.651	4437.95
668.842	4474.81
669.033	4536.25
669.224	4427.71
669.416	4519.87
669.607	4442.04
669.798	4483
669.989	4470.72
670.18	4349.89
670.371	4356.03
670.563	4153.28
670.754	4407.23
670.945	4077.51
671.136	4102.08
671.327	4394.94
671.518	4353.98
671.709	4298.69
671.9	4237.25
672.091	4272.06
672.282	4128.7
672.473	4014.02
672.664	4081.6
672.855	4249.54
673.046	4161.47
673.237	4149.18
673.428	4052.93
673.619	4007.87
673.809	4052.93
674	4061.12
674.191	3962.82
674.382	4061.12
674.573	3999.68
674.764	3893.19
674.954	3893.19
675.145	3956.68
675.336	3862.47
675.527	3809.22
675.717	3880.9
675.908	3792.84
676.099	3743.69
676.289	3844.04
676.48	3819.46
676.671	3827.65
676.861	3694.54
677.052	3776.45
677.243	3780.55
677.433	3868.61
677.624	3784.65
677.814	3633.1
678.005	3639.24
678.195	3792.84
678.386	3565.51
678.576	3563.47
678.767	3571.66
678.957	3545.03
679.148	3612.62
679.338	3629
679.529	3536.84
679.719	3553.23
679.909	3655.62
680.1	3594.19
680.29	3581.9
680.481	3575.75
680.671	3557.32
680.861	3508.17
681.052	3409.87
681.242	3340.24
681.432	3504.07
681.622	3379.15
681.813	3397.58
682.003	3553.23
682.193	3446.73
682.383	3282.89
682.573	3336.14
682.764	3373
682.954	3305.42
683.144	3225.55
683.334	3370.96
683.524	3286.99
683.714	3401.68
683.904	3264.46
684.094	3135.44
684.284	3284.94
684.474	3299.28
684.664	3299.28
684.854	3274.7
685.044	3276.75
685.234	3170.26
685.424	3184.59
685.614	3110.86
685.804	3170.26
685.994	3057.62
686.184	3166.16
686.374	3205.07
686.564	3129.3
686.753	3045.33
686.943	3030.99
687.133	3114.96
687.323	2975.7
687.513	3037.14
687.702	3098.58
687.892	2979.79
688.082	3119.06
688.272	2969.55
688.461	2987.99
688.651	3030.99
688.841	2914.26
689.03	2899.92
689.22	2883.54
689.41	2918.36
689.599	2932.69
689.789	2797.53
689.979	2881.49
690.168	2828.24
690.358	2906.07
690.547	2824.15
690.737	2906.07
690.926	2734.04
691.116	2758.61
691.305	2758.61
691.495	2564.06
691.684	2760.66
691.874	2725.85
692.063	2760.66
692.252	2678.74
692.442	2815.96
692.631	2693.08
692.82	2731.99
693.01	2609.11
693.199	2707.41
693.388	2701.27
693.578	2668.5
693.767	2574.3
693.956	2625.5
694.146	2545.63
694.335	2621.4
694.524	2578.39
694.713	2553.82
694.902	2566.1
695.092	2557.91
695.281	2512.86
695.47	2439.13
695.659	2545.63
695.848	2504.67
696.037	2430.94
696.226	2525.15
696.415	2467.8
696.604	2381.79
696.793	2457.56
696.982	2451.42
697.171	2496.47
697.36	2408.41
697.549	2398.17
697.738	2353.12
697.927	2422.75
698.116	2498.52
698.305	2545.63
698.494	2543.58
698.683	2381.79
698.872	2449.37
699.061	2432.99
699.25	2414.56
699.438	2451.42
699.627	2263.01
699.816	2504.67
700.005	2273.25
700.193	2293.72
700.382	2508.76
700.571	2389.98
700.76	2328.54
700.948	2322.4
701.137	2377.69
701.326	2392.03
701.514	2240.48
701.703	2416.6
701.892	2375.64
702.08	2377.69
702.269	2344.92
702.457	2250.72
702.646	2308.06
702.834	2330.59
703.023	2379.74
703.212	2328.54
703.4	2234.33
703.589	2308.06
703.777	2164.7
703.965	2242.53
704.154	2297.82
704.342	2312.16
704.531	2316.25
704.719	2181.09
704.907	2310.11
705.096	2236.38
705.284	2244.57
705.472	2297.82
705.661	2217.95
705.849	2205.66
706.037	2213.85
706.226	2271.2
706.414	2111.46
706.602	2213.85
706.79	2252.77
706.979	2133.98
707.167	2236.38
707.355	2228.19
707.543	2099.17
707.731	2140.13
707.919	2293.72
708.107	2166.75
708.296	2121.7
708.484	2076.64
708.672	2148.32
708.86	2181.09
709.048	2127.84
709.236	2267.1
709.424	2205.66
709.612	2103.26
709.8	2275.29
709.988	2150.37
710.176	2226.14
710.364	2136.03
710.551	2236.38
710.739	2162.65
710.927	2129.89
711.115	2164.7
711.303	2205.66
711.491	2234.33
711.679	2119.65
711.866	2129.89
712.054	2129.89
712.242	1994.72
712.43	2246.62
712.617	2197.47
712.805	2168.8
712.993	2168.8
713.181	2152.42
713.368	2140.13
713.556	2021.35
713.744	2136.03
713.931	2197.47
714.119	2136.03
714.306	2181.09
714.494	2209.76
714.682	2170.85
714.869	2031.58
715.057	2197.47
715.244	2250.72
715.432	2154.46
715.619	2127.84
715.807	2131.94
715.994	2121.7
716.182	2115.55
716.369	2154.46
716.556	2058.21
716.744	2103.26
716.931	2099.17
717.119	2156.51
717.306	2160.61
717.493	2037.73
717.681	2021.35
717.868	2101.22
718.055	2115.55
718.242	2070.5
718.43	2088.93
718.617	2176.99
718.804	2086.88
718.991	2076.64
719.179	2099.17
719.366	2086.88
719.553	2117.6
719.74	2029.54
719.927	2072.54
720.114	2086.88
720.301	2123.74
720.488	2168.8
720.676	2158.56
720.863	2119.65
721.05	2058.21
721.237	2082.78
721.424	2107.36
721.611	2045.92
721.798	2064.35
721.985	2021.35
722.172	2056.16
722.358	2160.61
722.545	2121.7
722.732	1933.28
722.919	2113.5
723.106	2004.96
723.293	2129.89
723.48	2189.28
723.667	1992.67
723.853	2031.58
724.04	2029.54
724.227	2103.26
724.414	2056.16
724.6	2029.54
724.787	2136.03
724.974	2101.22
725.161	2058.21
725.347	2056.16
725.534	2035.68
725.72	1966.05
725.907	2119.65
726.094	2056.16
726.28	2062.3
726.467	2064.35
726.653	2054.11
726.84	2082.78
727.027	2181.09
727.213	2115.55
727.4	2029.54
727.586	2197.47
727.773	2007.01
727.959	2062.3
728.145	1964
728.332	2007.01
728.518	2009.06
728.705	2115.55
728.891	2017.25
729.077	2013.15
729.264	2029.54
729.45	2019.3
729.636	2031.58
729.823	2029.54
730.009	2035.68
730.195	2070.5
730.382	2234.33
730.568	1998.82
730.754	2088.93
730.94	1951.71
731.126	1939.43
731.313	2062.3
731.499	2064.35
731.685	2013.15
731.871	2009.06
732.057	1984.48
732.243	1939.43
732.429	2031.58
732.615	1990.63
732.801	2103.26
732.987	1990.63
733.173	2031.58
733.359	2080.74
733.545	1908.71
733.731	1941.47
733.917	2004.96
734.103	2045.92
734.289	2066.4
734.475	1875.94
734.661	2070.5
734.847	1988.58
735.033	2072.54
735.219	2101.22
735.404	2029.54
735.59	1920.99
735.776	2058.21
735.962	2021.35
736.148	2095.07
736.333	2160.61
736.519	2013.15
736.705	2007.01
736.89	2050.02
737.076	2002.91
737.262	1937.38
737.447	1937.38
737.633	1947.62
737.819	2013.15
738.004	1964
738.19	1851.36
738.375	1841.12
738.561	1935.33
738.747	1908.71
738.932	1845.22
739.118	1832.93
739.303	1964
739.489	2039.78
739.674	1841.12
739.859	1980.39
740.045	1951.71
740.23	1818.6
740.416	1857.51
740.601	1873.89
740.786	1910.75
740.972	1837.03
741.157	1892.32
741.342	1716.2
741.528	1781.73
741.713	1877.99
741.898	1759.21
742.084	1791.97
742.269	1761.25
742.454	1906.66
742.639	1914.85
742.824	1943.52
743.01	1787.88
743.195	1873.89
743.38	1753.06
743.565	1841.12
743.75	1869.8
743.935	1861.6
744.12	1753.06
744.305	1785.83
744.49	1802.21
744.675	1791.97
744.86	1697.77
745.045	1710.05
745.23	1832.93
745.415	1746.92
745.6	1826.79
745.785	1708.01
745.97	1755.11
746.155	1726.44
746.34	1787.88
746.525	1665
746.71	1726.44
746.895	1603.56
747.079	1619.94
747.264	1585.13
747.449	1658.85
747.634	1665
747.819	1656.81
748.003	1605.61
748.188	1613.8
748.373	1554.41
748.557	1605.61
748.742	1636.33
748.927	1542.12
749.111	1488.87
749.296	1554.41
749.481	1583.08
749.665	1452.01
749.85	1509.35
750.034	1488.87
750.219	1427.43
750.404	1484.78
750.588	1599.46
750.773	1425.39
750.957	1398.76
751.141	1419.24
751.326	1464.3
751.51	1476.59
751.695	1374.19
751.879	1497.07
752.064	1441.77
752.248	1419.24
752.432	1501.16
752.617	1394.67
752.801	1394.67
752.985	1314.8
753.17	1382.38
753.354	1378.28
753.538	1425.39
753.722	1331.18
753.907	1343.47
754.091	1304.56
754.275	1357.8
754.459	1251.31
754.643	1253.36
754.828	1234.93
755.012	1312.75
755.196	1239.02
755.38	1220.59
755.564	1191.92
755.748	1222.64
755.932	1333.23
756.116	1185.77
756.3	1236.97
756.484	1183.73
756.668	1251.31
756.852	1146.86
757.036	1155.05
757.22	1234.93
757.404	1228.78
757.588	1191.92
757.772	1275.88
757.956	1130.48
758.14	1202.16
758.323	1114.09
758.507	1116.14
758.691	1107.95
758.875	1210.35
759.059	1095.66
759.242	1134.57
759.426	1169.39
759.61	1114.09
759.794	1021.94
759.977	1081.33
760.161	1013.74
760.345	1107.95
760.528	1179.63
760.712	1030.13
760.895	1064.94
761.079	1103.86
761.263	1021.94
761.446	1007.6
761.63	1015.79
761.813	989.17
761.997	1030.13
762.18	968.69
762.364	935.92
762.547	983.02
762.731	983.02
762.914	1017.84
763.098	1083.38
763.281	1030.13
763.464	1046.51
763.648	923.63
763.831	958.45
764.015	860.15
764.198	935.92
764.381	907.25
764.564	925.68
764.748	972.79
764.931	923.63
765.114	899.06
765.297	933.87
765.481	841.72
765.664	878.58
765.847	956.4
766.03	917.49
766.213	874.48
766.397	901.11
766.58	1001.46
766.763	931.83
766.946	903.15
767.129	845.81
767.312	786.42
767.495	901.11
767.678	874.48
767.861	876.53
768.044	907.25
768.227	874.48
768.41	917.49
768.593	915.44
768.776	894.96
768.959	991.22
769.142	899.06
769.324	882.67
769.507	808.95
769.69	841.72
769.873	784.37
770.056	923.63
770.239	915.44
770.421	813.04
770.604	843.76
770.787	780.28
770.97	856.05
771.152	862.19
771.335	843.76
771.518	739.32
771.7	784.37
771.883	839.67
772.066	833.52
772.248	788.47
772.431	794.61
772.613	759.8
772.796	786.42
772.978	733.17
773.161	782.32
773.343	729.08
773.526	817.14
773.708	759.8
773.891	788.47
774.073	727.03
774.256	727.03
774.438	745.46
774.621	770.04
774.803	743.41
774.985	706.55
775.168	718.84
775.35	700.41
775.532	702.45
775.715	679.93
775.897	727.03
776.079	698.36
776.261	796.66
776.444	718.84
776.626	690.17
776.808	632.82
776.99	677.88
777.173	647.16
777.355	636.92
777.537	614.39
777.719	675.83
777.901	647.16
778.083	663.54
778.265	696.31
778.447	671.73
778.629	540.66
778.811	612.34
778.993	636.92
779.175	696.31
779.357	571.38
779.539	591.86
779.721	638.97
779.903	557.05
780.085	557.05
780.267	616.44
780.449	589.81
780.631	636.92
780.812	702.45
780.994	565.24
781.176	591.86
781.358	581.62
781.54	516.09
781.721	507.9
781.903	612.34
782.085	567.29
782.267	624.63
782.448	473.08
782.63	518.14
782.812	528.38
782.993	548.86
783.175	456.7
783.357	473.08
783.538	495.61
783.72	421.88
783.901	559.1
784.083	514.04
784.264	444.41
784.446	442.36
784.627	464.89
784.809	432.12
784.99	516.09
785.172	497.66
785.353	458.74
785.535	491.51
785.716	505.85
785.897	419.83
786.079	389.11
786.26	505.85
786.441	440.31
786.623	399.35
786.804	497.66
786.985	397.31
787.167	368.63
787.348	430.07
787.529	481.27
787.71	464.89
787.891	342.01
788.073	464.89
788.254	409.59
788.435	415.74
788.616	372.73
788.797	399.35
788.978	423.93
789.159	411.64
789.34	481.27
789.522	391.16
789.703	378.87
789.884	436.22
790.065	411.64
790.246	382.97
790.427	370.68
790.607	415.74
790.788	448.51
790.969	382.97
791.15	385.02
791.331	311.29
791.512	415.74
791.693	325.63
791.874	358.39
792.054	440.31
792.235	368.63
792.416	409.59
792.597	284.67
792.778	374.78
792.958	421.88
793.139	385.02
793.32	407.55
793.5	303.1
793.681	374.78
793.862	315.39
794.042	325.63
794.223	333.82
794.404	432.12
794.584	356.35
794.765	286.72
794.945	268.28
795.126	292.86
795.306	362.49
795.487	354.3
795.667	280.57
795.848	329.72
796.028	321.53
796.209	292.86
796.389	247.8
796.57	358.39
796.75	227.32
796.93	317.44
797.111	227.32
797.291	315.39
797.471	305.15
797.652	311.29
797.832	239.61
798.012	243.71
798.192	206.84
798.373	247.8
798.553	309.24
798.733	286.72
798.913	294.91
799.093	237.56
799.274	292.86
799.454	303.1
799.634	288.76
799.814	399.35
799.994	227.32
800.174	335.87
800.354	307.2
800.534	268.28
800.714	235.52
800.894	219.13
801.074	245.76
801.254	182.27
801.434	325.63
801.614	301.05
801.794	210.94
801.974	845.81
802.154	262.14
802.334	305.15
802.514	268.28
802.693	268.28
802.873	286.72
803.053	180.22
803.233	235.52
803.413	186.37
803.592	284.67
803.772	219.13
803.952	227.32
804.131	262.14
804.311	245.76
804.491	251.9
804.67	219.13
804.85	184.32
805.03	210.94
805.209	219.13
805.389	161.79
805.568	194.56
805.748	229.37
805.928	161.79
806.107	231.42
806.287	204.8
806.466	145.41
806.646	243.71
806.825	157.69
807.004	147.45
807.184	262.14
807.363	278.52
807.543	204.8
807.722	231.42
807.901	198.65
808.081	245.76
808.26	159.74
808.439	260.09
808.619	182.27
808.798	198.65
808.977	180.22
809.156	253.95
809.336	208.89
809.515	264.19
809.694	202.75
809.873	237.56
810.052	231.42
810.231	178.17
810.411	149.5
810.59	161.79
810.769	198.65
810.948	178.17
811.127	137.21
811.306	161.79
811.485	182.27
811.664	260.09
811.843	210.94
812.022	190.46
812.201	161.79
812.38	159.74
812.559	163.84
812.737	215.04
812.916	133.12
813.095	110.59
813.274	172.03
813.453	153.6
813.632	253.95
813.811	202.75
813.989	169.98
814.168	188.41
814.347	180.22
814.526	161.79
814.704	131.07
814.883	221.18
815.062	184.32
815.24	112.64
815.419	157.69
815.598	212.99
815.776	75.77
815.955	182.27
816.133	59.39
816.312	198.65
816.49	186.37
816.669	108.54
816.847	65.53
817.026	129.02
817.204	200.7
817.383	151.55
817.561	129.02
817.74	120.83
817.918	118.78
818.097	114.69
818.275	104.45
818.453	180.22
818.632	157.69
818.81	122.88
818.988	79.87
819.167	145.41
819.345	135.17
819.523	81.92
819.701	178.17
819.879	155.65
820.058	223.23
820.236	114.69
820.414	106.49
820.592	178.17
820.77	106.49
820.948	122.88
821.127	184.32
821.305	163.84
821.483	172.03
821.661	139.26
821.839	223.23
822.017	145.41
822.195	79.87
822.373	100.35
822.551	147.45
822.729	155.65
822.907	133.12
823.085	147.45
823.262	145.41
823.44	141.31
823.618	129.02
823.796	147.45
823.974	124.93
824.152	176.13
824.329	57.34
824.507	65.53
824.685	145.41
824.863	106.49
825.04	114.69
825.218	98.3
825.396	108.54
825.574	122.88
825.751	18.43
825.929	129.02
826.107	114.69
826.284	165.89
826.462	141.31
826.639	88.06
826.817	71.68
826.994	67.58
827.172	71.68
827.349	139.26
827.527	178.17
827.704	114.69
827.882	139.26
828.059	40.96
828.237	18.43
828.414	104.45
828.591	73.73
828.769	122.88
828.946	96.25
829.124	65.53
829.301	98.3
829.478	104.45
829.655	186.37
829.833	112.64
830.01	-14.34
830.187	112.64
830.364	104.45
830.542	79.87
830.719	108.54
830.896	116.73
831.073	73.73
831.25	186.37
831.427	153.6
831.604	163.84
831.782	75.77
831.959	124.93
832.136	24.58
832.313	112.64
832.49	92.16
832.667	122.88
832.844	30.72
833.021	196.6
833.198	96.25
833.374	83.97
833.551	114.69
833.728	63.49
833.905	129.02
834.082	86.01
834.259	94.21
834.436	169.98
834.612	63.49
834.789	104.45
834.966	47.1
835.143	153.6
835.319	98.3
835.496	75.77
835.673	86.01
835.85	147.45
836.026	47.1
836.203	110.59
836.38	18.43
836.556	106.49
836.733	83.97
836.909	167.93
837.086	71.68
837.262	104.45
837.439	65.53
837.616	65.53
837.792	53.25
837.968	81.92
838.145	-2.05
838.321	94.21
838.498	120.83
838.674	49.15
838.851	102.4
839.027	65.53
839.203	71.68
839.38	38.91
839.556	131.07
839.732	161.79
839.909	38.91
840.085	129.02
840.261	124.93
840.437	22.53
840.614	79.87
840.79	65.53
840.966	43.01
841.142	112.64
841.318	73.73
841.494	38.91
841.671	79.87
841.847	79.87
842.023	24.58
842.199	96.25
842.375	102.4
842.551	38.91
842.727	43.01
842.903	71.68
843.079	57.34
843.255	100.35
843.431	65.53
843.607	120.83
843.783	2.05
843.959	49.15
844.134	30.72
844.31	169.98
844.486	83.97
844.662	98.3
844.838	57.34
845.013	34.82
845.189	114.69
845.365	79.87
845.541	6.14
845.716	47.1
845.892	124.93
846.068	71.68
846.244	65.53
846.419	96.25
846.595	43.01
846.77	38.91
846.946	38.91
847.122	55.3
847.297	51.2
847.473	63.49
847.648	-40.96
847.824	75.77
847.999	18.43
848.175	55.3
848.35	126.97
848.526	79.87
848.701	-0
848.876	18.43
849.052	157.69
849.227	40.96
849.403	24.58
849.578	40.96
849.753	77.82
849.929	100.35
850.104	30.72
850.279	55.3
850.454	65.53
850.63	34.82
850.805	129.02
850.98	71.68
851.155	-0
851.33	98.3
851.505	18.43
851.681	120.83
851.856	71.68
852.031	45.06
852.206	104.45
852.381	-16.38
852.556	-14.34
852.731	57.34
852.906	45.06
853.081	51.2
853.256	40.96
853.431	153.6
853.606	20.48
853.781	-0
853.956	24.58
854.131	100.35
854.305	47.1
854.48	104.45
854.655	47.1
854.83	75.77
855.005	67.58
855.18	92.16
855.354	83.97
855.529	47.1
855.704	65.53
855.879	-26.62
856.053	-18.43
856.228	59.39
856.403	14.34
856.577	96.25
856.752	45.06
856.926	88.06
857.101	75.77
857.276	38.91
857.45	40.96
857.625	49.15
857.799	88.06
857.974	81.92
858.148	26.62
858.323	88.06
858.497	8.19
858.672	30.72
858.846	112.64
859.02	71.68
859.195	36.86
859.369	8.19
859.543	-12.29
859.718	96.25
859.892	83.97
860.066	219.13
860.241	14.34
860.415	57.34
860.589	12.29
860.763	65.53
860.938	18.43
861.112	45.06
861.286	-16.38
861.46	63.49
861.634	-6.14
861.808	47.1
861.982	-4.1
862.157	30.72
862.331	40.96
862.505	40.96
862.679	22.53
862.853	4.1
863.027	90.11
863.201	90.11
863.375	65.53
863.549	30.72
863.722	24.58
863.896	90.11
864.07	43.01
864.244	-26.62
864.418	-26.62
864.592	36.86
864.766	47.1
864.939	2.05
865.113	40.96
865.287	14.34
865.461	-24.58
865.634	83.97
865.808	-0
865.982	14.34
866.156	73.73
866.329	38.91
866.503	26.62
866.676	104.45
866.85	26.62
867.024	63.49
867.197	49.15
867.371	63.49
867.544	51.2
867.718	55.3
867.891	47.1
868.065	-40.96
868.238	77.82
868.412	6.14
868.585	6.14
868.759	38.91
868.932	-61.44
869.105	26.62
869.279	77.82
869.452	2.05
869.625	30.72
869.799	40.96
869.972	-83.97
870.145	90.11
870.319	81.92
870.492	51.2
870.665	-18.43
870.838	75.77
871.011	-34.82
871.185	45.06
871.358	-73.73
871.531	40.96
871.704	59.39
871.877	51.2
872.05	14.34
872.223	-28.67
872.396	63.49
872.569	8.19
872.742	63.49
872.915	63.49
873.088	-34.82
873.261	59.39
873.434	94.21
873.607	53.25
873.78	98.3
873.953	-0
874.126	47.1
874.299	-2.05
874.471	47.1
874.644	-14.34
874.817	36.86
874.99	90.11
875.163	2.05
875.335	100.35
875.508	40.96
875.681	-0
875.853	24.58
876.026	-18.43
876.199	63.49
876.371	40.96
876.544	24.58
876.717	-16.38
876.889	-24.58
877.062	22.53
877.234	6.14
877.407	14.34
877.579	24.58
877.752	24.58
877.924	79.87
878.097	14.34
878.269	79.87
878.442	8.19
878.614	75.77
878.786	145.41
878.959	67.58
879.131	55.3
879.303	-18.43
879.476	8.19
879.648	94.21
879.82	14.34
879.993	40.96
880.165	22.53
880.337	-26.62
880.509	16.38
880.681	92.16
880.854	22.53
881.026	-22.53
881.198	69.63
881.37	32.77
881.542	112.64
881.714	-47.1
881.886	-18.43
882.058	14.34
882.23	-2.05
882.402	65.53
882.574	16.38
882.746	43.01
882.918	36.86
883.09	57.34
883.262	65.53
883.434	38.91
883.606	-2.05
883.778	18.43
883.95	30.72
884.122	-18.43
884.293	51.2
884.465	40.96
884.637	73.73
884.809	34.82
884.98	65.53
885.152	57.34
885.324	59.39
885.496	49.15
885.667	49.15
885.839	38.91
886.011	61.44
886.182	12.29
886.354	81.92
886.525	-81.92
886.697	96.25
886.869	-26.62
887.04	65.53
887.212	38.91
887.383	83.97
887.555	63.49
887.726	57.34
887.897	6.14
888.069	81.92
888.24	96.25
888.412	-0
888.583	34.82
888.754	22.53
888.926	26.62
889.097	30.72
889.268	26.62
889.44	83.97
889.611	-43.01
889.782	-2.05
889.953	2.05
890.125	108.54
890.296	18.43
890.467	57.34
890.638	57.34
890.809	104.45
890.98	-2.05
891.151	-2.05
891.323	4.1
891.494	49.15
891.665	47.1
891.836	-34.82
892.007	-47.1
892.178	-2.05
892.349	26.62
892.52	73.73
892.691	8.19
892.862	38.91
893.032	-4.1
893.203	30.72
893.374	96.25
893.545	34.82
893.716	-43.01
893.887	96.25
894.057	-10.24
894.228	10.24
894.399	45.06
894.57	104.45
894.74	-18.43
894.911	-26.62
895.082	-0
895.253	47.1
895.423	-6.14
895.594	67.58
895.764	-2.05
895.935	-40.96
896.106	47.1
896.276	-14.34
896.447	73.73
896.617	14.34
896.788	6.14
896.958	65.53
897.129	24.58
897.299	49.15
897.47	28.67
897.64	116.73
897.81	-22.53
897.981	16.38
898.151	16.38
898.322	-24.58
898.492	83.97
898.662	45.06
898.832	4.1
899.003	22.53
899.173	65.53
899.343	38.91
899.513	55.3
