Data from USB4F104151__74__14-43-24-057.txt Node

Date: Thu Mar 13 14:43:24 EDT 2025
User: louis
Spectrometer: USB4F10415
Trigger mode: 4
Integration Time (sec): 2.000000E-2
Scans to average: 1
Electric dark correction enabled: true
Nonlinearity correction enabled: false
Boxcar width: 0
XAxis mode: Wavelengths
Number of Pixels in Spectrum: 3648
>>>>>Begin Spectral Data<<<<<
178.204	-46.25
178.424	-46.25
178.644	-46.25
178.864	-124.07
179.084	-60.59
179.304	29.52
179.524	11.09
179.744	31.57
179.964	-36.01
180.184	2.9
180.404	19.29
180.624	-42.15
180.844	27.48
181.064	-48.3
181.283	-11.43
181.503	-21.67
181.723	37.72
181.943	-17.58
182.163	99.16
182.383	29.52
182.602	45.91
182.822	105.3
183.042	43.86
183.262	13.14
183.482	19.29
183.701	27.48
183.921	19.29
184.141	21.33
184.361	33.62
184.58	-1.19
184.8	54.1
185.02	78.68
185.239	45.91
185.459	50
185.679	88.92
185.898	86.87
186.118	76.63
186.338	76.63
186.557	72.53
186.777	-15.53
186.997	-40.11
187.216	121.68
187.436	174.93
187.655	-15.53
187.875	68.44
188.095	-27.82
188.314	82.77
188.534	68.44
188.753	95.06
188.973	119.64
189.192	76.63
189.412	23.38
189.631	60.24
189.851	-13.48
190.07	68.44
190.29	50
190.509	-27.82
190.729	93.01
190.948	21.33
191.168	133.97
191.387	179.03
191.607	-17.58
191.826	84.82
192.045	54.1
192.265	2.9
192.484	15.19
192.704	54.1
192.923	64.34
193.142	86.87
193.362	43.86
193.581	136.02
193.8	0.85
194.02	117.59
194.239	4.95
194.458	43.86
194.678	27.48
194.897	84.82
195.116	27.48
195.335	103.25
195.555	93.01
195.774	-3.24
195.993	60.24
196.212	70.48
196.432	109.4
196.651	103.25
196.87	29.52
197.089	136.02
197.308	82.77
197.528	103.25
197.747	-36.01
197.966	33.62
198.185	101.2
198.404	39.76
198.623	80.72
198.842	113.49
199.062	103.25
199.281	62.29
199.5	54.1
199.719	29.52
199.938	76.63
200.157	29.52
200.376	123.73
200.595	60.24
200.814	35.67
201.033	2.9
201.252	70.48
201.471	62.29
201.69	105.3
201.909	121.68
202.128	47.96
202.347	29.52
202.566	54.1
202.785	37.72
203.004	76.63
203.223	162.64
203.442	35.67
203.661	111.44
203.879	45.91
204.098	117.59
204.317	93.01
204.536	62.29
204.755	35.67
204.974	56.15
205.193	27.48
205.411	101.2
205.63	84.82
205.849	43.86
206.068	52.05
206.287	-5.29
206.505	95.06
206.724	19.29
206.943	7
207.162	31.57
207.381	52.05
207.599	35.67
207.818	62.29
208.037	84.82
208.255	68.44
208.474	70.48
208.693	27.48
208.911	68.44
209.13	72.53
209.349	11.09
209.567	136.02
209.786	31.57
210.005	62.29
210.223	97.11
210.442	-9.39
210.661	93.01
210.879	35.67
211.098	82.77
211.316	2.9
211.535	52.05
211.753	2.9
211.972	82.77
212.191	39.76
212.409	4.95
212.628	11.09
212.846	35.67
213.065	25.43
213.283	45.91
213.502	103.25
213.72	21.33
213.938	41.81
214.157	37.72
214.375	86.87
214.594	37.72
214.812	86.87
215.031	60.24
215.249	0.85
215.467	15.19
215.686	60.24
215.904	43.86
216.122	19.29
216.341	127.83
216.559	39.76
216.778	150.36
216.996	45.91
217.214	-1.19
217.432	35.67
217.651	27.48
217.869	58.2
218.087	72.53
218.306	-3.24
218.524	47.96
218.742	27.48
218.96	23.38
219.179	21.33
219.397	84.82
219.615	13.14
219.833	109.4
220.051	43.86
220.27	68.44
220.488	41.81
220.706	68.44
220.924	31.57
221.142	78.68
221.36	72.53
221.578	43.86
221.796	17.24
222.015	-50.35
222.233	142.16
222.451	60.24
222.669	-40.11
222.887	78.68
223.105	27.48
223.323	19.29
223.541	-1.19
223.759	39.76
223.977	123.73
224.195	47.96
224.413	93.01
224.631	156.5
224.849	-25.77
225.067	103.25
225.285	-27.82
225.503	35.67
225.721	80.72
225.939	19.29
226.157	-27.82
226.375	76.63
226.592	35.67
226.81	45.91
227.028	131.92
227.246	103.25
227.464	68.44
227.682	21.33
227.9	21.33
228.117	93.01
228.335	72.53
228.553	72.53
228.771	37.72
228.989	68.44
229.206	15.19
229.424	-38.06
229.642	-29.87
229.86	-13.48
230.077	123.73
230.295	90.96
230.513	80.72
230.731	84.82
230.948	-1.19
231.166	109.4
231.384	74.58
231.601	84.82
231.819	93.01
232.037	70.48
232.254	-46.25
232.472	41.81
232.689	11.09
232.907	125.78
233.125	47.96
233.342	-21.67
233.56	35.67
233.777	64.34
233.995	35.67
234.213	56.15
234.43	21.33
234.648	37.72
234.865	-1.19
235.083	15.19
235.3	-46.25
235.518	68.44
235.735	80.72
235.953	72.53
236.17	-19.63
236.388	45.91
236.605	23.38
236.822	154.45
237.04	60.24
237.257	68.44
237.475	52.05
237.692	52.05
237.909	60.24
238.127	31.57
238.344	60.24
238.562	68.44
238.779	13.14
238.996	93.01
239.214	70.48
239.431	88.92
239.648	29.52
239.865	23.38
240.083	13.14
240.3	-33.96
240.517	56.15
240.735	82.77
240.952	76.63
241.169	111.44
241.386	4.95
241.603	76.63
241.821	56.15
242.038	95.06
242.255	52.05
242.472	-44.2
242.689	93.01
242.907	60.24
243.124	21.33
243.341	107.35
243.558	19.29
243.775	21.33
243.992	15.19
244.209	70.48
244.426	88.92
244.643	13.14
244.86	-9.39
245.078	27.48
245.295	56.15
245.512	117.59
245.729	4.95
245.946	7
246.163	74.58
246.38	-68.78
246.597	64.34
246.814	88.92
247.031	76.63
247.248	60.24
247.464	68.44
247.681	84.82
247.898	117.59
248.115	11.09
248.332	-17.58
248.549	119.64
248.766	54.1
248.983	80.72
249.2	27.48
249.417	133.97
249.633	-13.48
249.85	129.88
250.067	45.91
250.284	39.76
250.501	-3.24
250.717	166.74
250.934	4.95
251.151	54.1
251.368	27.48
251.585	117.59
251.801	58.2
252.018	27.48
252.235	52.05
252.451	62.29
252.668	7
252.885	105.3
253.102	84.82
253.318	70.48
253.535	-5.29
253.752	-5.29
253.968	62.29
254.185	84.82
254.401	105.3
254.618	29.52
254.835	121.68
255.051	99.16
255.268	31.57
255.484	125.78
255.701	62.29
255.917	84.82
256.134	60.24
256.351	31.57
256.567	-25.77
256.784	150.36
257	19.29
257.217	101.2
257.433	125.78
257.65	72.53
257.866	84.82
258.082	7
258.299	27.48
258.515	101.2
258.732	37.72
258.948	84.82
259.165	62.29
259.381	39.76
259.597	45.91
259.814	-9.39
260.03	19.29
260.246	2.9
260.463	97.11
260.679	68.44
260.895	95.06
261.112	0.85
261.328	47.96
261.544	76.63
261.761	41.81
261.977	43.86
262.193	54.1
262.409	76.63
262.626	60.24
262.842	56.15
263.058	60.24
263.274	21.33
263.49	111.44
263.707	111.44
263.923	101.2
264.139	-27.82
264.355	35.67
264.571	109.4
264.787	31.57
265.004	47.96
265.22	56.15
265.436	88.92
265.652	56.15
265.868	78.68
266.084	33.62
266.3	13.14
266.516	88.92
266.732	39.76
266.948	72.53
267.164	109.4
267.38	47.96
267.596	101.2
267.812	113.49
268.028	52.05
268.244	72.53
268.46	7
268.676	113.49
268.892	101.2
269.108	37.72
269.324	93.01
269.54	-5.29
269.756	29.52
269.972	-5.29
270.188	80.72
270.403	9.05
270.619	-9.39
270.835	-21.67
271.051	9.05
271.267	15.19
271.483	21.33
271.698	-17.58
271.914	62.29
272.13	27.48
272.346	-1.19
272.562	2.9
272.777	47.96
272.993	150.36
273.209	27.48
273.425	72.53
273.64	52.05
273.856	109.4
274.072	43.86
274.287	25.43
274.503	31.57
274.719	45.91
274.934	58.2
275.15	27.48
275.366	21.33
275.581	60.24
275.797	33.62
276.012	23.38
276.228	72.53
276.444	80.72
276.659	37.72
276.875	15.19
277.09	103.25
277.306	54.1
277.521	39.76
277.737	7
277.952	84.82
278.168	99.16
278.383	7
278.599	64.34
278.814	113.49
279.03	-3.24
279.245	119.64
279.461	88.92
279.676	50
279.892	11.09
280.107	56.15
280.322	37.72
280.538	82.77
280.753	15.19
280.969	43.86
281.184	23.38
281.399	78.68
281.615	82.77
281.83	70.48
282.045	7
282.26	41.81
282.476	-5.29
282.691	11.09
282.906	-27.82
283.122	64.34
283.337	76.63
283.552	33.62
283.767	-38.06
283.983	93.01
284.198	33.62
284.413	125.78
284.628	-36.01
284.843	27.48
285.058	33.62
285.274	43.86
285.489	15.19
285.704	52.05
285.919	-46.25
286.134	27.48
286.349	27.48
286.564	97.11
286.779	37.72
286.995	62.29
287.21	-66.73
287.425	19.29
287.64	21.33
287.855	76.63
288.07	-11.43
288.285	78.68
288.5	37.72
288.715	80.72
288.93	-17.58
289.145	-27.82
289.36	19.29
289.575	72.53
289.79	52.05
290.004	15.19
290.219	72.53
290.434	-1.19
290.649	-50.35
290.864	66.39
291.079	29.52
291.294	93.01
291.509	-5.29
291.724	45.91
291.938	47.96
292.153	43.86
292.368	-11.43
292.583	37.72
292.798	19.29
293.012	115.54
293.227	64.34
293.442	62.29
293.657	4.95
293.871	27.48
294.086	95.06
294.301	101.2
294.516	74.58
294.73	80.72
294.945	-13.48
295.16	54.1
295.374	45.91
295.589	68.44
295.804	19.29
296.018	19.29
296.233	47.96
296.447	84.82
296.662	68.44
296.877	68.44
297.091	68.44
297.306	82.77
297.52	23.38
297.735	82.77
297.949	68.44
298.164	68.44
298.378	52.05
298.593	2.9
298.807	-21.67
299.022	60.24
299.236	113.49
299.451	54.1
299.665	52.05
299.88	-13.48
300.094	-3.24
300.309	-3.24
300.523	74.58
300.737	29.52
300.952	-27.82
301.166	78.68
301.381	35.67
301.595	43.86
301.809	52.05
302.024	43.86
302.238	-21.67
302.452	29.52
302.667	23.38
302.881	39.76
303.095	43.86
303.309	13.14
303.524	29.52
303.738	60.24
303.952	-11.43
304.166	88.92
304.381	21.33
304.595	64.34
304.809	31.57
305.023	52.05
305.237	-13.48
305.452	47.96
305.666	101.2
305.88	105.3
306.094	97.11
306.308	56.15
306.522	121.68
306.736	78.68
306.95	76.63
307.164	78.68
307.379	80.72
307.593	121.68
307.807	43.86
308.021	72.53
308.235	-3.24
308.449	35.67
308.663	45.91
308.877	117.59
309.091	2.9
309.305	52.05
309.519	27.48
309.733	142.16
309.947	-19.63
310.161	117.59
310.374	84.82
310.588	176.98
310.802	-38.06
311.016	39.76
311.23	84.82
311.444	76.63
311.658	162.64
311.872	76.63
312.085	66.39
312.299	-5.29
312.513	35.67
312.727	45.91
312.941	-46.25
313.154	84.82
313.368	76.63
313.582	99.16
313.796	117.59
314.009	78.68
314.223	21.33
314.437	43.86
314.651	37.72
314.864	-36.01
315.078	39.76
315.292	60.24
315.505	142.16
315.719	60.24
315.933	99.16
316.146	47.96
316.36	27.48
316.573	133.97
316.787	50
317.001	4.95
317.214	-7.34
317.428	113.49
317.641	37.72
317.855	68.44
318.068	119.64
318.282	56.15
318.495	47.96
318.709	76.63
318.922	50
319.136	54.1
319.349	99.16
319.563	97.11
319.776	27.48
319.99	19.29
320.203	86.87
320.417	150.36
320.63	43.86
320.843	78.68
321.057	13.14
321.27	27.48
321.483	43.86
321.697	82.77
321.91	43.86
322.124	58.2
322.337	47.96
322.55	23.38
322.763	35.67
322.977	43.86
323.19	43.86
323.403	123.73
323.617	56.15
323.83	43.86
324.043	9.05
324.256	39.76
324.469	70.48
324.683	35.67
324.896	39.76
325.109	113.49
325.322	-44.2
325.535	109.4
325.748	80.72
325.962	70.48
326.175	27.48
326.388	80.72
326.601	21.33
326.814	88.92
327.027	-42.15
327.24	105.3
327.453	60.24
327.666	136.02
327.879	76.63
328.092	39.76
328.305	99.16
328.518	-29.87
328.731	47.96
328.944	97.11
329.157	95.06
329.37	119.64
329.583	23.38
329.796	136.02
330.009	52.05
330.222	2.9
330.435	54.1
330.648	43.86
330.861	33.62
331.073	39.76
331.286	95.06
331.499	62.29
331.712	-13.48
331.925	66.39
332.138	76.63
332.35	54.1
332.563	21.33
332.776	64.34
332.989	15.19
333.202	35.67
333.414	21.33
333.627	68.44
333.84	41.81
334.053	76.63
334.265	64.34
334.478	54.1
334.691	93.01
334.903	78.68
335.116	-11.43
335.329	-29.87
335.541	68.44
335.754	101.2
335.966	27.48
336.179	39.76
336.392	72.53
336.604	2.9
336.817	80.72
337.029	19.29
337.242	103.25
337.454	56.15
337.667	35.67
337.88	56.15
338.092	11.09
338.305	29.52
338.517	35.67
338.729	95.06
338.942	76.63
339.154	-11.43
339.367	70.48
339.579	27.48
339.792	27.48
340.004	109.4
340.217	97.11
340.429	60.24
340.641	7
340.854	78.68
341.066	31.57
341.278	138.07
341.491	80.72
341.703	43.86
341.915	15.19
342.128	88.92
342.34	9.05
342.552	68.44
342.764	86.87
342.977	-7.34
343.189	54.1
343.401	86.87
343.613	-17.58
343.826	33.62
344.038	19.29
344.25	15.19
344.462	-31.91
344.674	-13.48
344.886	-1.19
345.099	78.68
345.311	76.63
345.523	43.86
345.735	2.9
345.947	23.38
346.159	7
346.371	117.59
346.583	50
346.795	7
347.007	-33.96
347.219	21.33
347.431	47.96
347.643	76.63
347.855	23.38
348.067	60.24
348.279	68.44
348.491	2.9
348.703	64.34
348.915	125.78
349.127	101.2
349.339	101.2
349.551	-83.11
349.763	37.72
349.975	29.52
350.187	119.64
350.399	86.87
350.61	60.24
350.822	64.34
351.034	78.68
351.246	70.48
351.458	70.48
351.669	146.26
351.881	101.2
352.093	86.87
352.305	121.68
352.517	111.44
352.728	97.11
352.94	88.92
353.152	84.82
353.363	27.48
353.575	97.11
353.787	82.77
353.999	76.63
354.21	117.59
354.422	45.91
354.633	31.57
354.845	33.62
355.057	78.68
355.268	27.48
355.48	13.14
355.692	31.57
355.903	68.44
356.115	7
356.326	33.62
356.538	72.53
356.749	27.48
356.961	142.16
357.172	-13.48
357.384	111.44
357.595	101.2
357.807	68.44
358.018	-19.63
358.23	35.67
358.441	101.2
358.653	109.4
358.864	88.92
359.075	60.24
359.287	76.63
359.498	125.78
359.709	103.25
359.921	2.9
360.132	103.25
360.344	37.72
360.555	19.29
360.766	43.86
360.977	52.05
361.189	97.11
361.4	9.05
361.611	103.25
361.823	101.2
362.034	68.44
362.245	-46.25
362.456	58.2
362.667	93.01
362.879	109.4
363.09	82.77
363.301	27.48
363.512	68.44
363.723	56.15
363.935	95.06
364.146	105.3
364.357	93.01
364.568	9.05
364.779	60.24
364.99	138.07
365.201	97.11
365.412	101.2
365.623	39.76
365.834	80.72
366.045	70.48
366.256	15.19
366.467	66.39
366.678	52.05
366.889	-11.43
367.1	97.11
367.311	101.2
367.522	76.63
367.733	136.02
367.944	45.91
368.155	27.48
368.366	64.34
368.577	90.96
368.788	68.44
368.999	93.01
369.209	105.3
369.42	68.44
369.631	119.64
369.842	88.92
370.053	93.01
370.264	109.4
370.474	52.05
370.685	78.68
370.896	45.91
371.107	84.82
371.317	84.82
371.528	27.48
371.739	19.29
371.95	95.06
372.16	68.44
372.371	68.44
372.582	93.01
372.792	86.87
373.003	41.81
373.214	101.2
373.424	127.83
373.635	60.24
373.846	111.44
374.056	105.3
374.267	43.86
374.477	97.11
374.688	74.58
374.898	13.14
375.109	56.15
375.319	62.29
375.53	52.05
375.74	35.67
375.951	109.4
376.161	15.19
376.372	78.68
376.582	-1.19
376.793	56.15
377.003	47.96
377.214	80.72
377.424	62.29
377.635	70.48
377.845	58.2
378.055	136.02
378.266	-1.19
378.476	60.24
378.686	86.87
378.897	78.68
379.107	50
379.317	166.74
379.528	111.44
379.738	68.44
379.948	-48.3
380.158	54.1
380.369	31.57
380.579	56.15
380.789	70.48
380.999	52.05
381.21	133.97
381.42	181.07
381.63	136.02
381.84	11.09
382.05	27.48
382.261	93.01
382.471	35.67
382.681	95.06
382.891	97.11
383.101	60.24
383.311	76.63
383.521	93.01
383.731	119.64
383.941	117.59
384.151	70.48
384.361	93.01
384.571	119.64
384.781	105.3
384.991	152.4
385.201	117.59
385.411	60.24
385.621	37.72
385.831	23.38
386.041	111.44
386.251	76.63
386.461	93.01
386.671	56.15
386.881	84.82
387.091	86.87
387.301	76.63
387.511	121.68
387.72	103.25
387.93	56.15
388.14	4.95
388.35	37.72
388.56	101.2
388.769	93.01
388.979	72.53
389.189	52.05
389.399	68.44
389.609	93.01
389.818	50
390.028	95.06
390.238	72.53
390.447	-25.77
390.657	105.3
390.867	33.62
391.076	72.53
391.286	117.59
391.496	31.57
391.705	2.9
391.915	150.36
392.125	207.7
392.334	-1.19
392.544	125.78
392.753	160.59
392.963	23.38
393.172	35.67
393.382	45.91
393.591	168.79
393.801	60.24
394.01	41.81
394.22	43.86
394.429	95.06
394.639	78.68
394.848	166.74
395.058	78.68
395.267	158.55
395.477	62.29
395.686	136.02
395.895	101.2
396.105	105.3
396.314	97.11
396.524	117.59
396.733	103.25
396.942	101.2
397.152	101.2
397.361	43.86
397.57	88.92
397.78	90.96
397.989	74.58
398.198	191.31
398.407	86.87
398.617	76.63
398.826	119.64
399.035	121.68
399.244	154.45
399.453	101.2
399.663	82.77
399.872	142.16
400.081	117.59
400.29	181.07
400.499	136.02
400.708	117.59
400.917	103.25
401.127	154.45
401.336	93.01
401.545	203.6
401.754	101.2
401.963	125.78
402.172	170.83
402.381	84.82
402.59	176.98
402.799	97.11
403.008	97.11
403.217	142.16
403.426	95.06
403.635	101.2
403.844	160.59
404.053	146.26
404.262	142.16
404.471	203.6
404.68	144.21
404.888	168.79
405.097	179.03
405.306	72.53
405.515	162.64
405.724	140.12
405.933	162.64
406.142	166.74
406.35	166.74
406.559	166.74
406.768	176.98
406.977	260.95
407.185	252.75
407.394	174.93
407.603	181.07
407.812	240.47
408.02	295.76
408.229	224.08
408.438	275.28
408.646	244.56
408.855	213.84
409.064	297.81
409.272	213.84
409.481	322.38
409.69	271.19
409.898	273.23
410.107	260.95
410.315	351.06
410.524	289.62
410.733	365.39
410.941	398.16
411.15	426.83
411.358	314.19
411.567	371.54
411.775	408.4
411.984	420.69
412.192	418.64
412.401	406.35
412.609	449.36
412.818	543.57
413.026	496.46
413.234	559.95
413.443	463.69
413.651	592.72
413.86	500.56
414.068	662.35
414.276	623.44
414.485	662.35
414.693	596.81
414.901	666.44
415.11	699.21
415.318	688.97
415.526	660.3
415.734	746.31
415.943	727.88
416.151	750.41
416.359	723.79
416.567	828.23
416.776	777.03
416.984	944.97
417.192	912.2
417.4	842.57
417.608	936.78
417.817	1018.69
418.025	1033.03
418.233	1076.04
418.441	1084.23
418.649	1190.72
418.857	1190.72
419.065	1213.25
419.273	1121.09
419.481	1223.49
419.689	1325.89
419.897	1372.99
420.105	1473.34
420.313	1477.44
420.521	1518.4
420.729	1516.35
420.937	1622.84
421.145	1620.8
421.353	1727.29
421.561	1751.87
421.769	1891.13
421.977	1960.76
422.185	1807.16
422.393	2022.2
422.601	2085.69
422.809	1985.34
423.017	2196.28
423.224	2231.09
423.432	2341.68
423.64	2374.45
423.848	2558.77
424.056	2439.98
424.263	2560.81
424.471	2554.67
424.679	2673.45
424.887	2810.67
425.094	2853.67
425.302	2906.92
425.51	3025.7
425.718	3205.92
425.925	3126.05
426.133	3291.94
426.341	3427.11
426.548	3488.54
426.756	3617.57
426.964	3650.33
427.171	3713.82
427.379	3861.27
427.586	4000.54
427.794	4176.66
428.001	4330.26
428.209	4348.69
428.417	4379.41
428.624	4723.47
428.832	4719.37
429.039	4756.24
429.247	4754.19
429.454	5122.82
429.662	5376.77
429.869	5214.98
430.076	5530.37
430.284	5262.09
430.491	5530.37
430.699	5870.33
430.906	6046.46
431.114	6015.74
431.321	6302.45
431.528	6238.97
431.736	6648.56
431.943	6886.12
432.15	6724.33
432.358	6830.83
432.565	7262.95
432.772	7183.08
432.979	7486.18
433.187	7756.51
433.394	7719.65
433.601	8334.04
433.808	8239.83
434.016	8102.62
434.223	8499.92
434.43	9210.57
434.637	8702.67
434.844	9609.92
435.052	9587.4
435.259	9546.44
435.466	9779.9
435.673	9493.19
435.88	10185.4
436.087	10775.22
436.294	10734.26
436.501	10418.87
436.708	10824.37
436.915	10922.67
437.122	11602.6
437.329	11422.38
437.537	11891.36
437.743	12096.16
437.95	12044.96
438.157	12446.36
438.364	12886.67
438.571	12921.49
438.778	13122.19
438.985	14084.73
439.192	13552.26
439.399	14084.73
439.606	13642.37
439.813	14563.96
440.02	15360.62
440.227	15118.96
440.433	14977.65
440.64	15575.66
440.847	15596.14
441.054	16046.69
441.261	16689.75
441.467	16749.14
441.674	16900.69
441.881	17502.79
442.088	17330.76
442.294	17058.39
442.501	17844.81
442.708	18041.41
442.914	18786.87
443.121	19730.98
443.328	19130.93
443.534	20562.46
443.741	19812.9
443.948	19538.48
444.154	20922.9
444.361	20744.73
444.568	21236.24
444.774	21013.01
444.981	21283.34
445.187	21717.51
445.394	22817.27
445.6	22311.42
445.807	24818.14
446.013	23589.36
446.22	23828.97
446.426	24740.32
446.633	25055.7
446.839	26067.4
447.046	25045.46
447.252	26094.02
447.459	26352.07
447.665	26333.64
447.871	27306.42
448.078	28551.59
448.284	26661.31
448.491	27732.4
448.697	29194.65
448.903	29491.6
449.11	29557.14
449.316	29407.64
449.522	29858.19
449.728	30636.42
449.935	30636.42
450.141	30589.31
450.347	31158.65
450.553	30411.14
450.76	30812.54
450.966	31857.01
451.172	31553.91
451.378	32805.22
451.584	31676.79
451.791	32504.17
451.997	32395.62
452.203	32743.78
452.409	32948.57
452.615	32948.57
452.821	31824.24
453.027	31195.51
453.233	32975.2
453.44	31672.69
453.646	32110.96
453.852	32098.67
454.058	32903.52
454.264	31736.18
454.47	32532.84
454.676	31574.39
454.882	32958.81
455.088	29979.02
455.294	30407.05
455.5	31041.92
455.705	31437.17
455.911	29776.27
456.117	29507.99
456.323	28905.88
456.529	27298.23
456.735	28631.46
456.941	28146.09
457.147	27466.16
457.352	27222.45
457.558	26669.5
457.764	26573.25
457.97	26208.71
458.176	25522.64
458.381	25674.19
458.587	24273.38
458.793	24297.95
458.999	22948.34
459.204	24932.82
459.41	24173.03
459.616	22491.65
459.821	22579.71
460.027	22434.3
460.233	21989.89
460.438	20832.79
460.644	21236.24
460.85	20140.58
461.055	19851.81
461.261	19960.36
461.466	18334.27
461.672	17476.17
461.878	19036.72
462.083	17697.35
462.289	17678.92
462.494	17275.47
462.7	16587.35
462.905	16046.69
463.111	16472.67
463.316	16853.59
463.522	16206.43
463.727	16261.73
463.932	16390.75
464.138	16128.61
464.343	16241.25
464.549	15911.52
464.754	16235.1
464.959	16116.32
465.165	15960.67
465.37	15272.56
465.575	14887.54
465.781	15587.94
465.986	15426.15
466.191	15174.25
466.397	14922.35
466.602	13902.47
466.807	14576.25
467.012	14551.67
467.218	14496.38
467.423	14357.11
467.628	14430.84
467.833	14963.31
468.038	14385.79
468.244	14119.55
468.449	14842.48
468.654	14164.61
468.859	14056.06
469.064	13849.22
469.269	13445.77
469.474	13677.19
469.679	13798.02
469.885	13449.86
470.09	13679.24
470.295	13335.18
470.5	12984.98
470.705	13167.24
470.91	13107.85
471.115	12771.99
471.32	13011.6
471.525	12821.14
471.73	12702.36
471.935	12526.23
472.139	12147.36
472.344	12380.82
472.549	12272.28
472.754	12012.19
472.959	11655.84
473.164	11629.22
473.369	11375.27
473.574	12038.81
473.778	11803.3
473.983	11563.68
474.188	11668.13
474.393	10957.49
474.598	11154.09
474.802	11111.08
475.007	11039.4
475.212	11037.36
475.417	10568.37
475.621	10613.43
475.826	10758.83
476.031	10478.26
476.235	10103.48
476.44	10275.51
476.645	10267.32
476.849	10142.39
477.054	10222.27
477.259	9939.65
477.463	9792.19
477.668	9855.68
477.872	9925.31
478.077	9589.44
478.282	9259.72
478.486	9204.42
478.691	9302.73
478.895	9317.06
479.1	9013.96
479.304	9054.92
479.509	8952.52
479.713	9165.51
479.918	8866.51
480.122	8649.43
480.326	8905.42
480.531	8858.32
480.735	8651.47
480.94	8755.92
481.144	8921.81
481.348	8461.01
481.553	8710.86
481.757	8311.51
481.961	8575.7
482.166	8491.73
482.37	8512.21
482.574	8426.2
482.778	8385.24
482.983	8461.01
483.187	8420.05
483.391	8532.69
483.595	8305.37
483.8	8354.52
484.004	8465.11
484.208	8424.15
484.412	8344.28
484.616	8442.58
484.821	8375
485.025	8444.63
485.229	8628.95
485.433	8516.31
485.637	8475.35
485.841	8420.05
486.045	8282.84
486.249	8428.24
486.453	8418
486.657	8526.55
486.861	8450.77
487.065	8254.17
487.269	8526.55
487.473	8248.02
487.677	8481.49
487.881	8471.25
488.085	8538.84
488.289	8311.51
488.493	8352.47
488.697	8418
488.901	8587.99
489.105	8448.72
489.309	8479.44
489.512	8594.13
489.716	8581.84
489.92	8342.23
490.124	8418
490.328	8768.21
490.531	8555.22
490.735	8743.63
490.939	8669.91
491.143	8696.53
491.346	8411.86
491.55	8846.03
491.754	8706.77
491.958	8880.85
492.161	8794.83
492.365	8809.17
492.569	8870.61
492.772	8841.93
492.976	8800.98
493.18	9042.64
493.383	8917.71
493.587	9081.55
493.79	9263.82
493.994	9145.03
494.197	9351.88
494.401	9235.14
494.605	9507.52
494.808	9368.26
495.012	9530.05
495.215	9370.31
495.419	9540.29
495.622	9706.18
495.825	9712.32
496.029	9638.59
496.232	9947.84
496.436	9859.77
496.639	10138.3
496.843	10074.81
497.046	10402.49
497.249	10203.83
497.453	10427.06
497.656	10529.46
497.859	10676.91
498.063	10603.19
498.266	11051.69
498.469	10701.49
498.673	10779.31
498.876	11068.08
499.079	11332.26
499.282	11340.46
499.485	11557.54
499.689	11629.22
499.892	11782.82
500.095	11641.51
500.298	11815.59
500.501	12047.01
500.705	12329.63
500.908	12382.87
501.111	12327.58
501.314	12731.03
501.517	12843.67
501.72	12757.65
501.923	12825.23
502.126	12995.22
502.329	13511.3
502.532	13310.6
502.735	13472.39
502.938	13679.24
503.141	13924.99
503.344	13865.6
503.547	13943.42
503.75	14324.35
503.953	14404.22
504.156	14559.86
504.359	14721.65
504.562	14789.24
504.765	15286.89
504.968	15360.62
505.17	15266.41
505.373	15581.8
505.576	15600.23
505.779	16038.5
505.982	16020.06
506.185	16116.32
506.387	16325.21
506.59	16400.99
506.793	16464.47
506.996	16671.32
507.198	17203.79
507.401	17013.33
507.604	17271.37
507.807	17893.96
508.009	17627.72
508.212	17869.38
508.415	17826.37
508.617	18213.44
508.82	18657.85
509.022	18354.75
509.225	19124.79
509.428	18700.86
509.63	19184.18
509.833	19307.05
510.035	19573.29
510.238	19477.04
510.44	19595.82
510.643	20257.31
510.845	20443.68
511.048	20384.29
511.25	20496.92
511.453	20828.7
511.655	21346.83
511.858	21217.81
512.06	21150.23
512.262	21475.85
512.465	21619.21
512.667	22008.33
512.87	22090.24
513.072	22213.12
513.274	22682.11
513.477	22880.76
513.679	22874.62
513.881	23124.47
514.084	23548.4
514.286	23474.67
514.488	23728.62
514.69	24533.47
514.893	24465.89
515.095	24394.21
515.297	24650.21
515.499	24762.84
515.701	24885.72
515.904	25631.18
516.106	25272.79
516.308	25551.31
516.51	25821.64
516.712	25954.76
516.914	26489.28
517.116	26952.12
517.318	26907.07
517.52	26978.75
517.722	27179.45
517.925	27560.37
518.127	27722.16
518.329	28012.97
518.531	27765.17
518.733	28578.21
518.935	28441
519.136	28905.88
519.338	29346.2
519.54	29364.63
519.742	29438.36
519.944	29352.34
520.146	30126.47
520.348	30308.74
520.55	30390.66
520.752	30574.98
520.954	31242.62
521.155	30822.78
521.357	31091.07
521.559	31293.82
521.761	31723.89
521.963	31953.26
522.164	32076.14
522.366	32186.73
522.568	32225.64
522.77	32407.91
522.971	32837.98
523.173	33085.79
523.375	32997.73
523.576	33325.4
523.778	33223
523.98	33464.66
524.181	34064.72
524.383	33816.91
524.584	34072.91
524.786	34322.76
524.988	34095.44
525.189	35027.26
525.391	34646.34
525.592	34793.79
525.794	35025.21
525.995	35176.76
526.197	35262.78
526.398	35283.26
526.6	35490.1
526.801	35860.79
527.003	35928.37
527.204	35719.48
527.406	36360.49
527.607	35911.99
527.808	36774.18
528.01	36032.82
528.211	35885.36
528.412	36796.71
528.614	36667.69
528.815	37052.7
529.016	37038.37
529.218	36686.12
529.419	36837.67
529.62	36817.19
529.822	36972.83
530.023	37120.29
530.224	37384.47
530.425	36899.11
530.626	36765.99
530.828	37151.01
531.029	37835.03
531.23	37241.12
531.431	37343.52
531.632	37378.33
531.833	37757.21
532.035	37501.21
532.236	37726.49
532.437	37736.73
532.638	37495.07
532.839	37894.42
533.04	37906.71
533.241	37777.68
533.442	38076.69
533.643	38023.44
533.844	37816.6
534.045	37689.62
534.246	37744.92
534.447	37994.77
534.648	37697.81
534.849	37814.55
535.05	37830.93
535.251	38232.33
535.451	38074.64
535.652	37703.96
535.853	38134.03
536.054	37740.82
536.255	37880.08
536.456	37751.06
536.657	38330.64
536.857	37703.96
537.058	37540.12
537.259	38320.4
537.46	38050.06
537.66	37808.4
537.861	38045.97
538.062	37574.94
538.263	37849.36
538.463	37906.71
538.664	37726.49
538.865	38037.78
539.065	37906.71
539.266	37843.22
539.466	38181.13
539.667	37450.01
539.868	38195.47
540.068	37990.67
540.269	37663
540.469	37957.91
540.67	37681.43
540.87	38048.02
541.071	37728.53
541.271	37832.98
541.472	37691.67
541.672	37835.03
541.873	37650.71
542.073	37148.96
542.274	37935.38
542.474	37978.39
542.675	37470.49
542.875	37900.56
543.075	37589.27
543.276	37523.74
543.476	37513.5
543.676	37407
543.877	37953.81
544.077	37757.21
544.277	37380.38
544.478	37382.43
544.678	37746.97
544.878	37626.14
545.078	37736.73
545.279	37181.73
545.479	37204.25
545.679	37638.42
545.879	37435.67
546.079	37237.02
546.28	37355.8
546.48	37138.72
546.68	37474.59
546.88	37409.05
547.08	37837.08
547.28	37404.95
547.48	37273.88
547.68	37501.21
547.88	37044.51
548.081	37626.14
548.281	37435.67
548.481	37140.77
548.681	37796.12
548.881	37458.2
549.081	37191.97
549.28	36991.26
549.48	37212.45
549.68	37454.11
549.88	37650.71
550.08	37376.28
550.28	37566.74
550.48	36938.02
550.68	37439.77
550.88	36907.3
551.08	37052.7
551.279	37249.31
551.479	36880.67
551.679	37052.7
551.879	36682.02
552.079	37396.76
552.278	36684.07
552.478	36919.59
552.678	36722.98
552.878	37234.97
553.077	37101.86
553.277	36200.75
553.477	37474.59
553.676	36780.32
553.876	37339.42
554.076	36462.89
554.275	36841.76
554.475	36571.43
554.674	36929.83
554.874	36667.69
555.074	36587.82
555.273	36962.59
555.473	37019.94
555.672	36116.78
555.872	36423.98
556.071	36796.71
556.271	36288.81
556.47	36698.41
556.67	36321.58
556.869	36579.62
557.068	36722.98
557.268	36299.05
557.467	36329.77
557.667	36405.55
557.866	36260.14
558.065	36075.82
558.265	36004.14
558.464	35995.95
558.663	36282.67
558.863	35815.73
559.062	36553
559.261	35975.47
559.461	36213.04
559.66	35674.42
559.859	35838.26
560.058	35739.96
560.258	35766.58
560.457	35705.14
560.656	35848.5
560.855	35680.56
561.054	35438.9
561.253	35232.06
561.453	35221.82
561.652	35791.16
561.851	35881.27
562.05	35584.31
562.249	35217.72
562.448	35252.54
562.647	35326.27
562.846	35354.94
563.045	34816.32
563.244	34912.58
563.443	35172.67
563.642	34609.48
563.841	35039.55
564.04	34965.82
564.239	34900.29
564.438	34363.72
564.637	34771.27
564.836	34738.5
565.035	34267.47
565.234	34443.59
565.432	34574.66
565.631	34236.75
565.83	34445.64
566.029	34079.05
566.228	33982.8
566.427	33722.71
566.625	33866.06
566.824	33444.18
567.023	33929.55
567.222	33515.86
567.42	33864.02
567.619	33714.51
567.818	33837.39
568.016	33483.09
568.215	33565.01
568.414	33501.53
568.612	33577.3
568.811	33415.51
569.01	33358.17
569.208	32815.46
569.407	33220.95
569.605	32571.75
569.804	33270.11
570.002	33038.69
570.201	32864.61
570.4	32622.95
570.598	32756.07
570.797	32387.43
570.995	32653.67
571.193	32407.91
571.392	32545.12
571.59	32395.62
571.789	32250.22
571.987	32184.68
572.186	32098.67
572.384	32022.89
572.582	32168.3
572.781	31949.17
572.979	31680.88
573.177	31908.21
573.376	31955.31
573.574	31453.56
573.772	31721.84
573.971	31488.37
574.169	31422.84
574.367	31031.68
574.565	31320.44
574.763	31261.05
574.962	31410.55
575.16	30830.97
575.358	31179.13
575.556	30456.2
575.754	31146.36
575.952	30581.12
576.151	30978.43
576.349	30419.33
576.547	30638.47
576.745	30503.3
576.943	30370.18
577.141	30214.54
577.339	30531.97
577.537	30216.58
577.735	30296.46
577.933	29708.69
578.131	30161.29
578.329	30093.71
578.527	29663.63
578.725	29655.44
578.923	30056.84
579.121	29733.26
579.319	29366.68
579.516	29630.87
579.714	29391.25
579.912	29217.18
580.11	29165.98
580.308	29426.07
580.506	29208.98
580.704	28674.46
580.901	29100.44
581.099	29178.26
581.297	29122.97
581.495	28641.7
581.692	28963.23
581.89	28303.78
582.088	28664.22
582.285	28354.98
582.483	28551.59
582.681	28619.17
582.878	28420.52
583.076	27873.71
583.274	28152.23
583.471	28146.09
583.669	27910.57
583.866	27689.39
584.064	27908.52
584.262	27736.49
584.459	28162.47
584.657	27797.93
584.854	27826.6
585.052	27593.14
585.249	27400.63
585.447	27539.89
585.644	27163.06
585.841	27085.24
586.039	27503.03
586.236	27328.95
586.434	26921.4
586.631	26870.2
586.828	26243.52
587.026	26972.6
587.223	26591.68
587.42	26575.3
587.618	26749.37
587.815	26329.54
588.012	26448.32
588.21	26503.62
588.407	26585.54
588.604	26225.09
588.801	26005.96
588.999	26380.74
589.196	26018.25
589.393	25930.19
589.59	25668.05
589.787	25721.29
589.984	25866.7
590.182	25516.5
590.379	25448.91
590.576	25344.47
590.773	25055.7
590.97	25149.91
591.167	25416.15
591.364	25182.68
591.561	25151.96
591.758	24953.3
591.955	24918.49
592.152	25088.47
592.349	24928.73
592.546	24728.03
592.743	24719.84
592.94	24455.65
593.137	24721.88
593.334	24711.64
593.531	24127.97
593.727	24379.87
593.924	24220.13
594.121	23790.06
594.318	24295.91
594.515	23855.59
594.712	23914.98
594.908	23826.92
595.105	23937.51
595.302	23577.07
595.499	23710.19
595.696	23380.46
595.892	23355.89
596.089	23892.46
596.286	23431.66
596.482	23097.84
596.679	23327.22
596.876	23271.92
597.072	23007.73
597.269	22876.66
597.466	22852.09
597.662	23020.02
597.859	22870.52
598.055	22653.44
598.252	23013.88
598.448	22735.35
598.645	22548.99
598.841	22481.41
599.038	22575.61
599.234	22432.26
599.431	22043.14
599.627	22284.8
599.824	22276.61
600.02	22194.69
600.217	22106.63
600.413	21879.3
600.609	21813.77
600.806	21950.98
601.002	21897.74
601.198	21498.38
601.395	21549.58
601.591	21563.92
601.787	21613.07
601.984	21547.53
602.18	21666.31
602.376	21027.35
602.572	21211.67
602.769	21330.45
602.965	21041.68
603.161	21291.54
603.357	21133.84
603.553	21008.92
603.75	21025.3
603.946	21103.12
604.142	20918.81
604.338	20689.43
604.534	20627.99
604.73	20802.07
604.926	20261.41
605.122	20625.95
605.318	20468.25
605.514	20124.19
605.71	20507.16
605.906	20490.78
606.102	20564.51
606.298	20605.47
606.494	20199.97
606.69	20093.47
606.886	20109.86
607.082	19847.72
607.278	19921.45
607.474	19659.31
607.67	19937.83
607.866	19886.63
608.062	19874.34
608.257	19499.56
608.453	19556.91
608.649	19620.39
608.845	19442.22
609.041	19751.46
609.236	19835.43
609.432	19386.93
609.628	19499.56
609.824	19124.79
610.019	19442.22
610.215	19178.03
610.411	19311.15
610.606	18987.57
610.802	19194.42
610.998	19280.43
611.193	18987.57
611.389	19046.96
611.584	18754.1
611.78	18948.66
611.976	19006
612.171	18762.3
612.367	18852.41
612.562	18682.42
612.758	18608.7
612.953	18446.91
613.149	18663.99
613.344	18453.05
613.539	18717.24
613.735	18565.69
613.93	18582.07
614.126	18362.94
614.321	18422.33
614.517	18508.35
614.712	18410.04
614.907	18285.12
615.103	18537.02
615.298	18328.13
615.493	18297.41
615.688	18108.99
615.884	18453.05
616.079	18131.52
616.274	18180.67
616.47	18088.51
616.665	18055.75
616.86	17953.35
617.055	18025.03
617.25	17975.88
617.445	18022.98
617.641	17601.1
617.836	18108.99
618.031	17578.57
618.226	17789.51
618.421	17494.6
618.616	17685.06
618.811	17486.41
619.006	17558.09
619.201	17134.16
619.396	17148.5
619.591	17150.54
619.786	17515.08
619.981	16706.13
620.176	17103.44
620.371	16722.52
620.566	16927.32
620.761	16804.44
620.956	16771.67
621.151	16806.48
621.346	16947.79
621.541	16446.04
621.735	16611.93
621.93	16224.86
622.125	16329.31
622.32	16136.8
622.515	15946.34
622.709	15927.91
622.904	15985.25
623.099	15731.3
623.294	15827.56
623.488	15825.51
623.683	15895.14
623.878	15290.99
624.072	15571.56
624.267	15379.05
624.462	15280.75
624.656	15239.79
624.851	15055.47
625.046	15262.32
625.24	15037.04
625.435	14905.97
625.629	14817.91
625.824	14666.36
626.018	14799.48
626.213	14602.87
626.407	14479.99
626.602	14072.45
626.796	14506.62
626.991	14385.79
627.185	14240.38
627.38	14119.55
627.574	14084.73
627.768	14029.44
627.963	13984.38
628.157	13675.14
628.352	13935.23
628.546	13621.89
628.74	13744.77
628.935	13347.47
629.129	13640.33
629.323	13365.9
629.517	13537.93
629.712	13195.92
629.906	13437.58
630.1	12941.97
630.294	13159.05
630.489	13144.72
630.683	12833.43
630.877	12966.54
631.071	12585.62
631.265	12933.78
631.459	12843.67
631.653	12526.23
631.848	12567.19
632.042	12544.66
632.236	12602.01
632.43	12305.05
632.624	12352.15
632.818	12266.14
633.012	12200.6
633.206	12028.57
633.4	12044.96
633.594	11711.14
633.788	11995.81
633.982	11860.64
634.176	11920.03
634.369	11664.04
634.563	11707.04
634.757	11358.89
634.951	11559.59
635.145	11600.55
635.339	11436.71
635.533	11270.83
635.726	11526.82
635.92	11299.5
636.114	11182.76
636.308	11315.88
636.501	11063.98
636.695	11137.71
636.889	10685.11
637.083	10867.38
637.276	10869.42
637.47	10777.26
637.664	10816.18
637.857	10791.6
638.051	10566.32
638.244	10408.63
638.438	10259.13
638.632	10515.12
638.825	10394.29
639.019	10283.7
639.212	10138.3
639.406	10123.96
639.599	10252.98
639.793	10103.48
639.986	9956.03
640.18	10066.62
640.373	9904.83
640.567	9755.33
640.76	9812.67
640.954	9611.97
641.147	9917.12
641.34	9749.18
641.534	9661.12
641.727	9685.7
641.92	9540.29
642.114	9482.95
642.307	9468.61
642.5	9456.33
642.694	9288.39
642.887	9360.07
643.08	9366.21
643.273	9177.8
643.467	9138.89
643.66	9151.18
643.853	8958.67
644.046	8870.61
644.239	9083.59
644.432	8800.98
644.626	8966.86
644.819	8895.18
645.012	8780.5
645.205	8809.17
645.398	8671.95
645.591	8579.79
645.784	8440.53
645.977	8293.08
646.17	8688.34
646.363	8489.68
646.556	8370.9
646.749	8456.92
646.942	8383.19
647.135	8383.19
647.328	8387.29
647.521	8207.06
647.714	8145.63
647.907	8053.47
648.099	7994.08
648.292	8073.95
648.485	7965.4
648.678	7957.21
648.871	7953.12
649.064	7961.31
649.256	7930.59
649.449	7830.24
649.642	7604.96
649.835	7613.15
650.027	7602.91
650.22	7496.42
650.413	7377.64
650.605	7449.32
650.798	7473.89
650.991	7416.55
651.183	7301.86
651.376	7336.68
651.568	7271.14
651.761	7441.12
651.954	7156.46
652.146	7082.73
652.339	7213.8
652.531	6966
652.724	7113.45
652.916	7052.01
653.109	6961.9
653.301	6845.16
653.494	7066.35
653.686	6867.69
653.879	6922.99
654.071	6703.86
654.263	6578.93
654.456	6746.86
654.648	6673.14
654.84	6593.26
655.033	6630.13
655.225	6703.86
655.417	6464.24
655.61	6535.92
655.802	6417.14
655.994	6425.33
656.186	6460.15
656.379	6617.84
656.571	6294.26
656.763	6310.65
656.955	6482.67
657.148	6286.07
657.34	6427.38
657.532	6146.81
657.724	6327.03
657.916	6140.66
658.108	6109.94
658.3	6071.03
658.492	6181.62
658.684	5980.92
658.876	5958.39
659.068	5851.9
659.26	5876.48
659.452	5798.65
659.644	5853.95
659.836	5792.51
660.028	5782.27
660.22	5776.13
660.412	5561.09
660.604	5747.45
660.796	5767.93
660.988	5696.25
661.18	5632.77
661.372	5538.56
661.563	5479.17
661.755	5548.8
661.947	5403.39
662.139	5372.68
662.331	5262.09
662.522	5229.32
662.714	5380.87
662.906	5280.52
663.097	5139.21
663.289	5163.78
663.481	5204.74
663.673	5327.62
663.864	5028.62
664.056	5239.56
664.247	5120.78
664.439	5102.34
664.631	5192.45
664.822	5141.25
665.014	5024.52
665.205	4999.95
665.397	5020.42
665.588	4891.4
665.78	4942.6
665.971	4819.72
666.163	4838.16
666.354	4920.07
666.546	4815.63
666.737	4877.07
666.929	4799.24
667.12	4698.89
667.311	4793.1
667.503	4643.6
667.694	4754.19
667.885	4621.07
668.077	4711.18
668.268	4598.54
668.459	4657.93
668.651	4604.69
668.842	4610.83
669.033	4537.1
669.224	4471.57
669.416	4535.06
669.607	4307.73
669.798	4518.67
669.989	4518.67
670.18	4313.88
670.371	4369.17
670.563	4475.67
670.754	4442.9
670.945	4289.3
671.136	4309.78
671.327	4281.11
671.518	4135.7
671.709	4406.03
671.9	4295.44
672.091	4193.05
672.282	4234
672.473	4098.84
672.664	4135.7
672.855	4033.3
673.046	4174.61
673.237	4133.65
673.428	4133.65
673.619	4066.07
673.809	4029.21
674	4098.84
674.191	3982.1
674.382	4064.02
674.573	4033.3
674.764	3918.62
674.954	3996.44
675.145	3861.27
675.336	3812.12
675.527	3914.52
675.717	3668.77
675.908	3740.44
676.099	3613.47
676.289	3881.75
676.48	3879.71
676.671	3783.45
676.861	3713.82
677.052	3713.82
677.243	3640.09
677.433	3599.13
677.624	3801.88
677.814	3689.25
678.005	3625.76
678.195	3767.07
678.386	3650.33
678.576	3668.77
678.767	3470.11
678.957	3625.76
679.148	3656.48
679.338	3603.23
679.529	3549.98
679.719	3556.13
679.909	3552.03
680.1	3509.02
680.29	3605.28
680.481	3500.83
680.671	3441.44
680.861	3527.46
681.052	3406.63
681.242	3439.39
681.432	3275.56
681.622	3525.41
681.813	3492.64
682.003	3513.12
682.193	3392.29
682.383	3418.91
682.573	3472.16
682.764	3248.93
682.954	3472.16
683.144	3242.79
683.334	3369.76
683.524	3306.27
683.714	3429.15
683.904	3287.84
684.094	3308.32
684.284	3146.53
684.474	3257.12
684.664	3171.11
684.854	3248.93
685.044	3115.81
685.234	3162.92
685.424	3160.87
685.614	3121.96
685.804	3169.06
685.994	3162.92
686.184	3177.25
686.374	3074.85
686.564	2929.45
686.753	3191.59
686.943	3029.8
687.133	3001.13
687.323	3017.51
687.513	3074.85
687.702	3050.28
687.892	2892.59
688.082	3099.43
688.272	3150.63
688.461	2927.4
688.651	2931.5
688.841	2892.59
689.03	2972.46
689.22	2943.78
689.41	2997.03
689.599	2855.72
689.789	2861.87
689.979	2831.15
690.168	2804.52
690.358	2937.64
690.547	2822.95
690.737	2708.27
690.926	2872.11
691.116	2861.87
691.305	2734.89
691.495	2722.6
691.684	2720.56
691.874	2700.08
692.063	2747.18
692.252	2755.37
692.442	2587.44
692.631	2693.93
692.82	2642.73
693.01	2626.35
693.199	2583.34
693.388	2722.6
693.578	2640.69
693.767	2603.82
693.956	2491.18
694.146	2575.15
694.335	2476.85
694.524	2571.05
694.713	2585.39
694.902	2536.24
695.092	2560.81
695.281	2450.22
695.47	2495.28
695.659	2364.21
695.848	2501.42
696.037	2540.33
696.226	2548.53
696.415	2431.79
696.604	2575.15
696.793	2517.81
696.982	2366.26
697.171	2478.9
697.36	2478.9
697.549	2466.61
697.738	2444.08
697.927	2370.35
698.116	2423.6
698.305	2362.16
698.494	2468.66
698.683	2267.95
698.872	2423.6
699.061	2419.5
699.25	2272.05
699.438	2407.22
699.627	2460.46
699.816	2384.69
700.005	2310.96
700.193	2349.87
700.382	2296.63
700.571	2272.05
700.76	2382.64
700.948	2366.26
701.137	2292.53
701.326	2272.05
701.514	2229.04
701.703	2304.82
701.892	2298.67
702.08	2292.53
702.269	2306.87
702.457	2356.02
702.646	2337.59
702.834	2388.78
703.023	2239.28
703.212	2345.78
703.4	2292.53
703.589	2183.99
703.777	2306.87
703.965	2243.38
704.154	2157.36
704.342	2288.43
704.531	2302.77
704.719	2235.19
704.907	2157.36
705.096	2204.47
705.284	2110.26
705.472	2134.84
705.661	2243.38
705.849	2276.15
706.037	2235.19
706.226	2282.29
706.414	2245.43
706.602	2202.42
706.79	2159.41
706.979	2149.17
707.167	2190.13
707.355	2190.13
707.543	2210.61
707.731	2257.71
707.919	2214.71
708.107	2165.56
708.296	2140.98
708.484	2208.56
708.672	2231.09
708.86	2112.31
709.048	2145.08
709.236	2149.17
709.424	2302.77
709.612	2198.32
709.8	2128.69
709.988	2100.02
710.176	2153.27
710.364	2134.84
710.551	2167.6
710.739	2120.5
710.927	2052.92
711.115	2030.39
711.303	2177.84
711.491	2214.71
711.679	2186.04
711.866	2071.35
712.054	2151.22
712.242	2067.25
712.43	2112.31
712.617	2120.5
712.805	2181.94
712.993	2204.47
713.181	2011.96
713.368	2186.04
713.556	2153.27
713.744	2063.16
713.931	2181.94
714.119	2085.69
714.306	2071.35
714.494	2028.34
714.682	2091.83
714.869	2108.21
715.057	2108.21
715.244	2059.06
715.432	2097.97
715.619	2075.45
715.807	2110.26
715.994	2171.7
716.182	2110.26
716.369	2071.35
716.556	2153.27
716.744	2069.3
716.931	2048.82
717.119	2052.92
717.306	2124.6
717.493	2106.17
717.681	2083.64
717.868	2140.98
718.055	2140.98
718.242	2161.46
718.43	2075.45
718.617	2085.69
718.804	2102.07
718.991	2124.6
719.179	2052.92
719.366	2026.29
719.553	2032.44
719.74	2069.3
719.927	2100.02
720.114	1968.95
720.301	2044.73
720.488	2079.54
720.676	2052.92
720.863	2087.73
721.05	2020.15
721.237	2048.82
721.424	2118.45
721.611	2050.87
721.798	1975.1
721.985	2034.49
722.172	2085.69
722.358	2001.72
722.545	2003.77
722.732	1938.23
722.919	1993.53
723.106	2061.11
723.293	1940.28
723.48	2065.21
723.667	2042.68
723.853	1993.53
724.04	2116.41
724.227	1977.14
724.414	1985.34
724.6	2192.18
724.787	2089.78
724.974	2005.81
725.161	2044.73
725.347	2026.29
725.534	2005.81
725.72	2050.87
725.907	2087.73
726.094	2011.96
726.28	2032.44
726.467	2009.91
726.653	2071.35
726.84	2112.31
727.027	2122.55
727.213	1938.23
727.4	2001.72
727.586	2095.93
727.773	2011.96
727.959	2020.15
728.145	2044.73
728.332	2038.58
728.518	2014.01
728.705	2009.91
728.891	1993.53
729.077	2036.53
729.264	1948.47
729.45	1956.66
729.636	2022.2
729.823	2093.88
730.009	2003.77
730.195	2071.35
730.382	2087.73
730.568	2071.35
730.754	1960.76
730.94	2050.87
731.126	1964.86
731.313	1944.38
731.499	2026.29
731.685	2067.25
731.871	2052.92
732.057	1913.66
732.243	1975.1
732.429	2050.87
732.615	2091.83
732.801	2050.87
732.987	2036.53
733.173	2020.15
733.359	2112.31
733.545	2042.68
733.731	2020.15
733.917	2036.53
734.103	1960.76
734.289	1985.34
734.475	2067.25
734.661	2102.07
734.847	2048.82
735.033	1981.24
735.219	1946.42
735.404	2052.92
735.59	1968.95
735.776	1911.61
735.962	2032.44
736.148	1997.62
736.333	1911.61
736.519	1985.34
736.705	1893.18
736.89	1884.98
737.076	1936.18
737.262	1813.31
737.447	1995.57
737.633	1913.66
737.819	1823.55
738.004	2003.77
738.19	1968.95
738.375	1882.94
738.561	1936.18
738.747	1936.18
738.932	1940.28
739.118	1971
739.303	1968.95
739.489	1897.27
739.674	1801.02
739.859	1766.2
740.045	1876.79
740.23	1807.16
740.416	1862.46
740.601	1887.03
740.786	1823.55
740.972	1790.78
741.157	1854.27
741.342	1772.35
741.528	1850.17
741.713	1915.7
741.898	1903.42
742.084	1819.45
742.269	1829.69
742.454	1788.73
742.639	1780.54
742.824	1682.24
743.01	1878.84
743.195	1805.11
743.38	1825.59
743.565	1801.02
743.75	1796.92
743.935	1692.48
744.12	1848.12
744.305	1747.77
744.49	1766.2
744.675	1762.11
744.86	1665.85
745.045	1762.11
745.23	1635.13
745.415	1684.28
745.6	1772.35
745.785	1631.04
745.97	1661.76
746.155	1649.47
746.34	1618.75
746.525	1534.78
746.71	1614.65
746.895	1631.04
747.079	1534.78
747.264	1608.51
747.449	1645.37
747.634	1661.76
747.819	1555.26
748.003	1600.32
748.188	1481.53
748.373	1649.47
748.557	1557.31
748.742	1600.32
748.927	1479.49
749.111	1477.44
749.296	1618.75
749.481	1561.41
749.665	1551.17
749.85	1518.4
750.034	1612.6
750.219	1430.34
750.404	1434.43
750.588	1418.05
750.773	1526.59
750.957	1405.76
751.141	1424.19
751.326	1424.19
751.51	1377.09
751.695	1477.44
751.879	1383.23
752.064	1438.53
752.248	1395.52
752.432	1475.39
752.617	1346.37
752.801	1393.47
752.985	1284.93
753.17	1375.04
753.354	1209.15
753.538	1342.27
753.722	1282.88
753.907	1299.27
754.091	1329.99
754.275	1317.7
754.459	1198.92
754.643	1264.45
754.828	1346.37
755.012	1301.31
755.196	1258.31
755.38	1344.32
755.564	1207.11
755.748	1297.22
755.932	1239.87
756.116	1364.8
756.3	1219.39
756.484	1174.34
756.668	1119.04
756.852	1190.72
757.036	1258.31
757.22	1211.2
757.404	1053.51
757.588	1166.15
757.772	1174.34
757.956	1192.77
758.14	1200.96
758.323	1092.42
758.507	1164.1
758.691	1088.32
758.875	1198.92
759.059	1069.89
759.242	1090.37
759.426	1117
759.61	1129.28
759.794	1076.04
759.977	1067.85
760.161	1125.19
760.345	973.64
760.528	1076.04
760.712	998.21
760.895	1061.7
761.079	1035.08
761.263	1022.79
761.446	1024.84
761.63	985.93
761.813	1069.89
761.997	1006.41
762.18	1028.93
762.364	996.17
762.547	963.4
762.731	979.78
762.914	1035.08
763.098	1078.08
763.281	1002.31
763.464	910.15
763.648	998.21
763.831	912.2
764.015	959.3
764.198	977.73
764.381	932.68
764.564	953.16
764.748	1000.26
764.931	1028.93
765.114	1051.46
765.297	869.19
765.481	895.82
765.664	928.58
765.847	1010.5
766.03	908.1
766.213	901.96
766.397	944.97
766.58	858.95
766.763	916.3
766.946	891.72
767.129	1028.93
767.312	940.87
767.495	889.67
767.678	805.71
767.861	836.42
768.044	867.14
768.227	858.95
768.41	863.05
768.593	887.62
768.776	846.66
768.959	904.01
769.142	856.9
769.324	887.62
769.507	928.58
769.69	764.75
769.873	856.9
770.056	856.9
770.239	750.41
770.421	953.16
770.604	838.47
770.787	897.86
770.97	789.32
771.152	807.75
771.335	928.58
771.518	822.09
771.7	779.08
771.883	875.34
772.066	789.32
772.248	793.42
772.431	738.12
772.613	793.42
772.796	678.73
772.978	873.29
773.161	725.83
773.343	865.1
773.526	756.55
773.708	719.69
773.891	813.9
774.073	744.27
774.256	799.56
774.438	772.94
774.621	764.75
774.803	746.31
774.985	711.5
775.168	711.5
775.35	744.27
775.532	785.23
775.715	652.11
775.897	723.79
776.079	752.46
776.261	703.31
776.444	723.79
776.626	817.99
776.808	666.44
776.99	631.63
777.173	705.35
777.355	627.53
777.537	678.73
777.719	660.3
777.901	650.06
778.083	596.81
778.265	635.72
778.447	635.72
778.629	654.16
778.811	578.38
778.993	666.44
779.175	637.77
779.357	600.91
779.539	533.33
779.721	625.48
779.903	613.2
780.085	600.91
780.267	668.49
780.449	609.1
780.631	564.04
780.812	682.83
780.994	633.68
781.176	605
781.358	637.77
781.54	498.51
781.721	529.23
781.903	658.25
782.085	465.74
782.267	514.89
782.448	455.5
782.63	512.85
782.812	529.23
782.993	508.75
783.175	486.22
783.357	441.17
783.538	518.99
783.72	471.89
783.901	518.99
784.083	461.65
784.264	559.95
784.446	502.61
784.627	445.26
784.809	566.09
784.99	396.11
785.172	496.46
785.353	496.46
785.535	516.94
785.716	406.35
785.897	424.78
786.079	387.92
786.26	404.3
786.441	496.46
786.623	441.17
786.804	332.62
786.985	346.96
787.167	424.78
787.348	426.83
787.529	439.12
787.71	426.83
787.891	357.2
788.073	430.93
788.254	387.92
788.435	428.88
788.616	371.54
788.797	437.07
788.978	363.34
789.159	316.24
789.34	379.73
789.522	381.78
789.703	428.88
789.884	379.73
790.065	422.73
790.246	422.73
790.427	344.91
790.607	457.55
790.788	338.77
790.969	385.87
791.15	389.97
791.331	346.96
791.512	342.86
791.693	387.92
791.874	308.05
792.054	420.69
792.235	367.44
792.416	318.29
792.597	306
792.778	281.43
792.958	297.81
793.139	318.29
793.32	293.71
793.5	273.23
793.681	363.34
793.862	353.1
794.042	260.95
794.223	324.43
794.404	244.56
794.584	242.51
794.765	351.06
794.945	258.9
795.126	363.34
795.306	367.44
795.487	301.9
795.667	246.61
795.848	334.67
796.028	252.75
796.209	293.71
796.389	308.05
796.57	316.24
796.75	168.79
796.93	256.85
797.111	279.38
797.291	224.08
797.471	299.86
797.652	334.67
797.832	256.85
798.012	310.1
798.192	281.43
798.373	211.79
798.553	234.32
798.733	232.27
798.913	258.9
799.093	262.99
799.274	256.85
799.454	260.95
799.634	318.29
799.814	338.77
799.994	285.52
800.174	230.23
800.354	367.44
800.534	213.84
800.714	281.43
800.894	279.38
801.074	273.23
801.254	213.84
801.434	215.89
801.614	283.47
801.794	183.12
801.974	838.47
802.154	207.7
802.334	273.23
802.514	191.31
802.693	234.32
802.873	248.66
803.053	324.43
803.233	256.85
803.413	234.32
803.592	215.89
803.772	224.08
803.952	258.9
804.131	125.78
804.311	226.13
804.491	258.9
804.67	228.18
804.85	234.32
805.03	170.83
805.209	248.66
805.389	213.84
805.568	191.31
805.748	158.55
805.928	215.89
806.107	160.59
806.287	217.94
806.466	199.51
806.646	183.12
806.825	185.17
807.004	138.07
807.184	236.37
807.363	240.47
807.543	191.31
807.722	183.12
807.901	224.08
808.081	228.18
808.26	203.6
808.439	232.27
808.619	103.25
808.798	109.4
808.977	195.41
809.156	219.99
809.336	183.12
809.515	152.4
809.694	129.88
809.873	174.93
810.052	240.47
810.231	174.93
810.411	162.64
810.59	199.51
810.769	168.79
810.948	207.7
811.127	199.51
811.306	211.79
811.485	181.07
811.664	242.51
811.843	150.36
812.022	166.74
812.201	113.49
812.38	219.99
812.559	199.51
812.737	193.36
812.916	119.64
813.095	146.26
813.274	154.45
813.453	174.93
813.632	174.93
813.811	193.36
813.989	168.79
814.168	136.02
814.347	142.16
814.526	209.75
814.704	183.12
814.883	181.07
815.062	181.07
815.24	187.22
815.419	158.55
815.598	174.93
815.776	136.02
815.955	68.44
816.133	150.36
816.312	138.07
816.49	217.94
816.669	158.55
816.847	183.12
817.026	176.98
817.204	99.16
817.383	78.68
817.561	105.3
817.74	166.74
817.918	80.72
818.097	146.26
818.275	133.97
818.453	121.68
818.632	95.06
818.81	99.16
818.988	125.78
819.167	209.75
819.345	183.12
819.523	113.49
819.701	131.92
819.879	158.55
820.058	60.24
820.236	125.78
820.414	127.83
820.592	152.4
820.77	138.07
820.948	187.22
821.127	109.4
821.305	160.59
821.483	43.86
821.661	142.16
821.839	146.26
822.017	191.31
822.195	97.11
822.373	185.17
822.551	150.36
822.729	117.59
822.907	142.16
823.085	150.36
823.262	64.34
823.44	99.16
823.618	127.83
823.796	109.4
823.974	127.83
824.152	90.96
824.329	160.59
824.507	195.41
824.685	168.79
824.863	131.92
825.04	125.78
825.218	168.79
825.396	93.01
825.574	142.16
825.751	109.4
825.929	99.16
826.107	93.01
826.284	138.07
826.462	127.83
826.639	109.4
826.817	113.49
826.994	84.82
827.172	174.93
827.349	146.26
827.527	84.82
827.704	84.82
827.882	43.86
828.059	78.68
828.237	142.16
828.414	84.82
828.591	37.72
828.769	39.76
828.946	86.87
829.124	154.45
829.301	105.3
829.478	109.4
829.655	117.59
829.833	119.64
830.01	62.29
830.187	127.83
830.364	119.64
830.542	144.21
830.719	95.06
830.896	70.48
831.073	64.34
831.25	119.64
831.427	74.58
831.604	121.68
831.782	101.2
831.959	160.59
832.136	136.02
832.313	52.05
832.49	95.06
832.667	60.24
832.844	84.82
833.021	76.63
833.198	133.97
833.374	224.08
833.551	80.72
833.728	109.4
833.905	148.31
834.082	101.2
834.259	84.82
834.436	142.16
834.612	54.1
834.789	119.64
834.966	84.82
835.143	119.64
835.319	27.48
835.496	76.63
835.673	37.72
835.85	138.07
836.026	45.91
836.203	72.53
836.38	27.48
836.556	154.45
836.733	15.19
836.909	125.78
837.086	62.29
837.262	62.29
837.439	68.44
837.616	27.48
837.792	68.44
837.968	76.63
838.145	113.49
838.321	166.74
838.498	127.83
838.674	72.53
838.851	43.86
839.027	168.79
839.203	43.86
839.38	43.86
839.556	58.2
839.732	47.96
839.909	80.72
840.085	93.01
840.261	70.48
840.437	109.4
840.614	52.05
840.79	62.29
840.966	86.87
841.142	84.82
841.318	119.64
841.494	105.3
841.671	84.82
841.847	68.44
842.023	-3.24
842.199	52.05
842.375	52.05
842.551	76.63
842.727	88.92
842.903	152.4
843.079	19.29
843.255	72.53
843.431	68.44
843.607	117.59
843.783	35.67
843.959	76.63
844.134	19.29
844.31	76.63
844.486	105.3
844.662	88.92
844.838	101.2
845.013	37.72
845.189	68.44
845.365	19.29
845.541	66.39
845.716	47.96
845.892	60.24
846.068	47.96
846.244	80.72
846.419	27.48
846.595	-15.53
846.77	35.67
846.946	13.14
847.122	11.09
847.297	37.72
847.473	84.82
847.648	90.96
847.824	56.15
847.999	27.48
848.175	37.72
848.35	86.87
848.526	166.74
848.701	101.2
848.876	95.06
849.052	93.01
849.227	37.72
849.403	35.67
849.578	113.49
849.753	88.92
849.929	68.44
850.104	41.81
850.279	47.96
850.454	66.39
850.63	70.48
850.805	76.63
850.98	27.48
851.155	9.05
851.33	47.96
851.505	-17.58
851.681	52.05
851.856	27.48
852.031	84.82
852.206	-21.67
852.381	47.96
852.556	60.24
852.731	33.62
852.906	90.96
853.081	52.05
853.256	70.48
853.431	21.33
853.606	2.9
853.781	66.39
853.956	15.19
854.131	82.77
854.305	21.33
854.48	88.92
854.655	41.81
854.83	19.29
855.005	35.67
855.18	103.25
855.354	41.81
855.529	50
855.704	84.82
855.879	84.82
856.053	111.44
856.228	25.43
856.403	97.11
856.577	39.76
856.752	-21.67
856.926	76.63
857.101	23.38
857.276	-5.29
857.45	50
857.625	60.24
857.799	43.86
857.974	117.59
858.148	86.87
858.323	70.48
858.497	39.76
858.672	62.29
858.846	35.67
859.02	29.52
859.195	-44.2
859.369	35.67
859.543	19.29
859.718	35.67
859.892	56.15
860.066	68.44
860.241	52.05
860.415	35.67
860.589	39.76
860.763	-5.29
860.938	60.24
861.112	68.44
861.286	-5.29
861.46	50
861.634	72.53
861.808	133.97
861.982	-3.24
862.157	93.01
862.331	35.67
862.505	52.05
862.679	-29.87
862.853	52.05
863.027	-50.35
863.201	181.07
863.375	13.14
863.549	60.24
863.722	84.82
863.896	158.55
864.07	41.81
864.244	27.48
864.418	144.21
864.592	23.38
864.766	41.81
864.939	58.2
865.113	-9.39
865.287	84.82
865.461	-1.19
865.634	103.25
865.808	-25.77
865.982	50
866.156	-17.58
866.329	-11.43
866.503	43.86
866.676	13.14
866.85	33.62
867.024	23.38
867.197	70.48
867.371	54.1
867.544	64.34
867.718	-44.2
867.891	76.63
868.065	-29.87
868.238	60.24
868.412	4.95
868.585	-15.53
868.759	-21.67
868.932	7
869.105	45.91
869.279	64.34
869.452	31.57
869.625	11.09
869.799	-19.63
869.972	-38.06
870.145	88.92
870.319	148.31
870.492	27.48
870.665	-7.34
870.838	13.14
871.011	-21.67
871.185	43.86
871.358	-60.59
871.531	136.02
871.704	21.33
871.877	74.58
872.05	95.06
872.223	62.29
872.396	62.29
872.569	117.59
872.742	4.95
872.915	84.82
873.088	-1.19
873.261	29.52
873.434	127.83
873.607	-9.39
873.78	58.2
873.953	-50.35
874.126	-13.48
874.299	76.63
874.471	60.24
874.644	29.52
874.817	54.1
874.99	43.86
875.163	7
875.335	27.48
875.508	-48.3
875.681	68.44
875.853	95.06
876.026	13.14
876.199	60.24
876.371	21.33
876.544	-1.19
876.717	37.72
876.889	-5.29
877.062	39.76
877.234	-15.53
877.407	-50.35
877.579	76.63
877.752	80.72
877.924	43.86
878.097	84.82
878.269	-40.11
878.442	2.9
878.614	76.63
878.786	93.01
878.959	41.81
879.131	37.72
879.303	37.72
879.476	52.05
879.648	-1.19
879.82	72.53
879.993	45.91
880.165	68.44
880.337	11.09
880.509	19.29
880.681	-44.2
880.854	54.1
881.026	76.63
881.198	58.2
881.37	68.44
881.542	47.96
881.714	64.34
881.886	23.38
882.058	-46.25
882.23	84.82
882.402	52.05
882.574	47.96
882.746	47.96
882.918	117.59
883.09	29.52
883.262	45.91
883.434	43.86
883.606	-15.53
883.778	4.95
883.95	101.2
884.122	2.9
884.293	-13.48
884.465	19.29
884.637	47.96
884.809	-33.96
884.98	21.33
885.152	29.52
885.324	-46.25
885.496	-17.58
885.667	37.72
885.839	37.72
886.011	21.33
886.182	29.52
886.354	103.25
886.525	43.86
886.697	-58.54
886.869	35.67
887.04	60.24
887.212	84.82
887.383	115.54
887.555	-5.29
887.726	4.95
887.897	60.24
888.069	82.77
888.24	84.82
888.412	-5.29
888.583	-5.29
888.754	43.86
888.926	-19.63
889.097	52.05
889.268	-50.35
889.44	84.82
889.611	27.48
889.782	2.9
889.953	33.62
890.125	35.67
890.296	-33.96
890.467	52.05
890.638	21.33
890.809	7
890.98	84.82
891.151	142.16
891.323	7
891.494	0.85
891.665	43.86
891.836	54.1
892.007	60.24
892.178	23.38
892.349	80.72
892.52	11.09
892.691	60.24
892.862	39.76
893.032	-29.87
893.203	-11.43
893.374	60.24
893.545	-5.29
893.716	-46.25
893.887	52.05
894.057	-27.82
894.228	7
894.399	31.57
894.57	21.33
894.74	2.9
894.911	93.01
895.082	25.43
895.253	17.24
895.423	25.43
895.594	43.86
895.764	-15.53
895.935	35.67
896.106	52.05
896.276	47.96
896.447	47.96
896.617	11.09
896.788	-38.06
896.958	-46.25
897.129	-5.29
897.299	-3.24
897.47	68.44
897.64	60.24
897.81	23.38
897.981	31.57
898.151	-21.67
898.322	11.09
898.492	19.29
898.662	-5.29
898.832	37.72
899.003	37.72
899.173	43.86
899.343	70.48
899.513	-46.25
