Data from USB4F104151__198__14-45-17-130.txt Node

Date: Thu Mar 13 14:45:17 EDT 2025
User: louis
Spectrometer: USB4F10415
Trigger mode: 4
Integration Time (sec): 2.000000E-2
Scans to average: 1
Electric dark correction enabled: true
Nonlinearity correction enabled: false
Boxcar width: 0
XAxis mode: Wavelengths
Number of Pixels in Spectrum: 3648
>>>>>Begin Spectral Data<<<<<
178.204	-160.94
178.424	-160.94
178.644	-160.94
178.864	-101.55
179.084	-115.88
179.304	-29.87
179.524	-25.77
179.744	11.09
179.964	58.2
180.184	-1.19
180.404	7
180.624	-7.34
180.844	-3.24
181.064	-38.06
181.283	-79.02
181.503	39.76
181.723	68.44
181.943	-50.35
182.163	68.44
182.383	-36.01
182.602	66.39
182.822	11.09
183.042	15.19
183.262	-42.15
183.482	4.95
183.701	43.86
183.921	4.95
184.141	-72.87
184.361	52.05
184.58	80.72
184.8	43.86
185.02	84.82
185.239	2.9
185.459	4.95
185.679	50
185.898	17.24
186.118	35.67
186.338	-27.82
186.557	78.68
186.777	-11.43
186.997	19.29
187.216	9.05
187.436	64.34
187.655	-19.63
187.875	31.57
188.095	-19.63
188.314	39.76
188.534	11.09
188.753	-7.34
188.973	4.95
189.192	68.44
189.412	52.05
189.631	-27.82
189.851	-13.48
190.07	86.87
190.29	-76.97
190.509	31.57
190.729	47.96
190.948	52.05
191.168	164.69
191.387	35.67
191.607	-33.96
191.826	52.05
192.045	45.91
192.265	-27.82
192.484	11.09
192.704	103.25
192.923	35.67
193.142	76.63
193.362	23.38
193.581	60.24
193.8	13.14
194.02	2.9
194.239	21.33
194.458	45.91
194.678	52.05
194.897	60.24
195.116	-5.29
195.335	-5.29
195.555	27.48
195.774	23.38
195.993	68.44
196.212	-50.35
196.432	-5.29
196.651	-3.24
196.87	41.81
197.089	54.1
197.308	27.48
197.528	-33.96
197.747	43.86
197.966	11.09
198.185	101.2
198.404	25.43
198.623	-13.48
198.842	19.29
199.062	23.38
199.281	60.24
199.5	-3.24
199.719	29.52
199.938	88.92
200.157	21.33
200.376	52.05
200.595	101.2
200.814	27.48
201.033	56.15
201.252	60.24
201.471	29.52
201.69	47.96
201.909	78.68
202.128	-23.72
202.347	21.33
202.566	23.38
202.785	45.91
203.004	-3.24
203.223	64.34
203.442	23.38
203.661	60.24
203.879	15.19
204.098	86.87
204.317	-1.19
204.536	76.63
204.755	4.95
204.974	84.82
205.193	97.11
205.411	78.68
205.63	11.09
205.849	13.14
206.068	2.9
206.287	-5.29
206.505	66.39
206.724	11.09
206.943	7
207.162	-17.58
207.381	-3.24
207.599	-46.25
207.818	52.05
208.037	-25.77
208.255	39.76
208.474	7
208.693	13.14
208.911	29.52
209.13	88.92
209.349	50
209.567	-21.67
209.786	82.77
210.005	33.62
210.223	64.34
210.442	7
210.661	2.9
210.879	0.85
211.098	-9.39
211.316	-5.29
211.535	47.96
211.753	31.57
211.972	27.48
212.191	31.57
212.409	99.16
212.628	72.53
212.846	-11.43
213.065	-21.67
213.283	62.29
213.502	4.95
213.72	76.63
213.938	-11.43
214.157	-50.35
214.375	68.44
214.594	35.67
214.812	31.57
215.031	68.44
215.249	2.9
215.467	47.96
215.686	41.81
215.904	64.34
216.122	27.48
216.341	29.52
216.559	11.09
216.778	45.91
216.996	113.49
217.214	39.76
217.432	27.48
217.651	4.95
217.869	-3.24
218.087	95.06
218.306	-52.39
218.524	21.33
218.742	-17.58
218.96	2.9
219.179	19.29
219.397	13.14
219.615	45.91
219.833	19.29
220.051	-31.91
220.27	35.67
220.488	29.52
220.706	84.82
220.924	4.95
221.142	-9.39
221.36	-13.48
221.578	-21.67
221.796	27.48
222.015	117.59
222.233	50
222.451	54.1
222.669	-93.35
222.887	-38.06
223.105	-21.67
223.323	2.9
223.541	60.24
223.759	84.82
223.977	29.52
224.195	86.87
224.413	37.72
224.631	-23.72
224.849	-11.43
225.067	35.67
225.285	-87.21
225.503	-13.48
225.721	-11.43
225.939	37.72
226.157	2.9
226.375	121.68
226.592	52.05
226.81	93.01
227.028	9.05
227.246	109.4
227.464	-58.54
227.682	37.72
227.9	23.38
228.117	68.44
228.335	-11.43
228.553	37.72
228.771	27.48
228.989	50
229.206	19.29
229.424	37.72
229.642	-64.68
229.86	60.24
230.077	-44.2
230.295	54.1
230.513	113.49
230.731	31.57
230.948	78.68
231.166	39.76
231.384	43.86
231.601	21.33
231.819	58.2
232.037	19.29
232.254	-38.06
232.472	2.9
232.689	-79.02
232.907	29.52
233.125	39.76
233.342	-27.82
233.56	-29.87
233.777	60.24
233.995	-25.77
234.213	37.72
234.43	23.38
234.648	-38.06
234.865	68.44
235.083	19.29
235.3	21.33
235.518	142.16
235.735	84.82
235.953	68.44
236.17	25.43
236.388	-7.34
236.605	43.86
236.822	35.67
237.04	-29.87
237.257	60.24
237.475	11.09
237.692	43.86
237.909	-13.48
238.127	-54.44
238.344	52.05
238.562	-5.29
238.779	-17.58
238.996	-31.91
239.214	19.29
239.431	21.33
239.648	-33.96
239.865	39.76
240.083	-52.39
240.3	-29.87
240.517	13.14
240.735	-27.82
240.952	7
241.169	23.38
241.386	-31.91
241.603	52.05
241.821	-17.58
242.038	131.92
242.255	27.48
242.472	39.76
242.689	21.33
242.907	54.1
243.124	70.48
243.341	68.44
243.558	-11.43
243.775	35.67
243.992	-7.34
244.209	29.52
244.426	11.09
244.643	80.72
244.86	-29.87
245.078	60.24
245.295	121.68
245.512	39.76
245.729	-42.15
245.946	-21.67
246.163	52.05
246.38	68.44
246.597	84.82
246.814	131.92
247.031	62.29
247.248	-3.24
247.464	-11.43
247.681	21.33
247.898	25.43
248.115	-7.34
248.332	-93.35
248.549	64.34
248.766	21.33
248.983	72.53
249.2	45.91
249.417	52.05
249.633	-31.91
249.85	72.53
250.067	25.43
250.284	-42.15
250.501	86.87
250.717	64.34
250.934	45.91
251.151	80.72
251.368	-11.43
251.585	68.44
251.801	-3.24
252.018	39.76
252.235	60.24
252.451	-13.48
252.668	-7.34
252.885	43.86
253.102	62.29
253.318	62.29
253.535	43.86
253.752	2.9
253.968	60.24
254.185	76.63
254.401	-21.67
254.618	31.57
254.835	35.67
255.051	7
255.268	-21.67
255.484	-5.29
255.701	68.44
255.917	80.72
256.134	2.9
256.351	29.52
256.567	35.67
256.784	-38.06
257	31.57
257.217	9.05
257.433	64.34
257.65	39.76
257.866	109.4
258.082	11.09
258.299	52.05
258.515	35.67
258.732	37.72
258.948	37.72
259.165	2.9
259.381	4.95
259.597	64.34
259.814	52.05
260.03	25.43
260.246	-3.24
260.463	15.19
260.679	76.63
260.895	-36.01
261.112	52.05
261.328	23.38
261.544	47.96
261.761	76.63
261.977	-5.29
262.193	-17.58
262.409	35.67
262.626	52.05
262.842	76.63
263.058	11.09
263.274	-9.39
263.49	21.33
263.707	15.19
263.923	17.24
264.139	37.72
264.355	80.72
264.571	93.01
264.787	54.1
265.004	27.48
265.22	54.1
265.436	-36.01
265.652	13.14
265.868	43.86
266.084	31.57
266.3	54.1
266.516	-1.19
266.732	-13.48
266.948	27.48
267.164	19.29
267.38	39.76
267.596	37.72
267.812	31.57
268.028	109.4
268.244	-9.39
268.46	35.67
268.676	27.48
268.892	21.33
269.108	-13.48
269.324	7
269.54	-1.19
269.756	74.58
269.972	-31.91
270.188	15.19
270.403	47.96
270.619	76.63
270.835	2.9
271.051	2.9
271.267	-21.67
271.483	-5.29
271.698	-27.82
271.914	-21.67
272.13	43.86
272.346	-21.67
272.562	17.24
272.777	-5.29
272.993	2.9
273.209	23.38
273.425	115.54
273.64	-50.35
273.856	68.44
274.072	-17.58
274.287	19.29
274.503	70.48
274.719	52.05
274.934	11.09
275.15	-64.68
275.366	31.57
275.581	31.57
275.797	31.57
276.012	-52.39
276.228	2.9
276.444	80.72
276.659	43.86
276.875	-11.43
277.09	37.72
277.306	-5.29
277.521	19.29
277.737	27.48
277.952	0.85
278.168	37.72
278.383	113.49
278.599	-1.19
278.814	-19.63
279.03	109.4
279.245	68.44
279.461	50
279.676	2.9
279.892	2.9
280.107	58.2
280.322	52.05
280.538	105.3
280.753	64.34
280.969	68.44
281.184	37.72
281.399	21.33
281.615	105.3
281.83	35.67
282.045	11.09
282.26	33.62
282.476	-11.43
282.691	25.43
282.906	13.14
283.122	23.38
283.337	41.81
283.552	4.95
283.767	-11.43
283.983	-11.43
284.198	-1.19
284.413	2.9
284.628	-17.58
284.843	99.16
285.058	19.29
285.274	52.05
285.489	45.91
285.704	35.67
285.919	27.48
286.134	86.87
286.349	-21.67
286.564	-68.78
286.779	66.39
286.995	-29.87
287.21	-1.19
287.425	70.48
287.64	43.86
287.855	11.09
288.07	-38.06
288.285	27.48
288.5	62.29
288.715	78.68
288.93	25.43
289.145	-9.39
289.36	142.16
289.575	-3.24
289.79	62.29
290.004	-7.34
290.219	11.09
290.434	-44.2
290.649	2.9
290.864	-52.39
291.079	-3.24
291.294	7
291.509	19.29
291.724	-3.24
291.938	-27.82
292.153	-5.29
292.368	-15.53
292.583	52.05
292.798	84.82
293.012	43.86
293.227	90.96
293.442	11.09
293.657	88.92
293.871	43.86
294.086	76.63
294.301	146.26
294.516	72.53
294.73	52.05
294.945	15.19
295.16	15.19
295.374	17.24
295.589	72.53
295.804	-17.58
296.018	27.48
296.233	64.34
296.447	37.72
296.662	105.3
296.877	-27.82
297.091	66.39
297.306	45.91
297.52	2.9
297.735	29.52
297.949	19.29
298.164	60.24
298.378	74.58
298.593	64.34
298.807	11.09
299.022	101.2
299.236	19.29
299.451	-21.67
299.665	76.63
299.88	2.9
300.094	47.96
300.309	33.62
300.523	-60.59
300.737	93.01
300.952	21.33
301.166	19.29
301.381	-23.72
301.595	27.48
301.809	13.14
302.024	13.14
302.238	43.86
302.452	31.57
302.667	54.1
302.881	39.76
303.095	0.85
303.309	62.29
303.524	-19.63
303.738	35.67
303.952	27.48
304.166	-3.24
304.381	-44.2
304.595	88.92
304.809	84.82
305.023	60.24
305.237	23.38
305.452	45.91
305.666	54.1
305.88	11.09
306.094	27.48
306.308	68.44
306.522	23.38
306.736	52.05
306.95	52.05
307.164	11.09
307.379	-21.67
307.593	86.87
307.807	64.34
308.021	101.2
308.235	11.09
308.449	-42.15
308.663	37.72
308.877	78.68
309.091	13.14
309.305	86.87
309.519	-38.06
309.733	45.91
309.947	13.14
310.161	31.57
310.374	78.68
310.588	31.57
310.802	-11.43
311.016	-29.87
311.23	4.95
311.444	31.57
311.658	113.49
311.872	99.16
312.085	54.1
312.299	64.34
312.513	56.15
312.727	68.44
312.941	27.48
313.154	70.48
313.368	-29.87
313.582	47.96
313.796	56.15
314.009	4.95
314.223	23.38
314.437	13.14
314.651	19.29
314.864	2.9
315.078	-17.58
315.292	-99.5
315.505	-3.24
315.719	-70.83
315.933	93.01
316.146	11.09
316.36	-7.34
316.573	125.78
316.787	62.29
317.001	76.63
317.214	-44.2
317.428	93.01
317.641	15.19
317.855	86.87
318.068	43.86
318.282	-38.06
318.495	101.2
318.709	62.29
318.922	136.02
319.136	15.19
319.349	78.68
319.563	2.9
319.776	29.52
319.99	76.63
320.203	35.67
320.417	23.38
320.63	62.29
320.843	0.85
321.057	101.2
321.27	-25.77
321.483	-13.48
321.697	84.82
321.91	84.82
322.124	19.29
322.337	27.48
322.55	-17.58
322.763	15.19
322.977	88.92
323.19	-5.29
323.403	80.72
323.617	2.9
323.83	29.52
324.043	97.11
324.256	13.14
324.469	60.24
324.683	19.29
324.896	64.34
325.109	80.72
325.322	-11.43
325.535	93.01
325.748	52.05
325.962	19.29
326.175	58.2
326.388	29.52
326.601	142.16
326.814	35.67
327.027	68.44
327.24	62.29
327.453	15.19
327.666	54.1
327.879	-48.3
328.092	95.06
328.305	123.73
328.518	13.14
328.731	74.58
328.944	52.05
329.157	21.33
329.37	0.85
329.583	140.12
329.796	56.15
330.009	19.29
330.222	11.09
330.435	-11.43
330.648	29.52
330.861	11.09
331.073	-25.77
331.286	35.67
331.499	47.96
331.712	41.81
331.925	119.64
332.138	27.48
332.35	47.96
332.563	68.44
332.776	52.05
332.989	-21.67
333.202	47.96
333.414	27.48
333.627	62.29
333.84	4.95
334.053	95.06
334.265	11.09
334.478	45.91
334.691	50
334.903	21.33
335.116	-9.39
335.329	-38.06
335.541	25.43
335.754	146.26
335.966	-5.29
336.179	80.72
336.392	21.33
336.604	50
336.817	-3.24
337.029	-1.19
337.242	-5.29
337.454	86.87
337.667	60.24
337.88	64.34
338.092	50
338.305	150.36
338.517	27.48
338.729	-21.67
338.942	27.48
339.154	33.62
339.367	76.63
339.579	15.19
339.792	2.9
340.004	70.48
340.217	68.44
340.429	86.87
340.641	11.09
340.854	27.48
341.066	-5.29
341.278	21.33
341.491	133.97
341.703	95.06
341.915	39.76
342.128	76.63
342.34	-13.48
342.552	-11.43
342.764	60.24
342.977	15.19
343.189	84.82
343.401	60.24
343.613	-60.59
343.826	35.67
344.038	11.09
344.25	82.77
344.462	68.44
344.674	43.86
344.886	72.53
345.099	47.96
345.311	-17.58
345.523	15.19
345.735	68.44
345.947	11.09
346.159	-17.58
346.371	11.09
346.583	11.09
346.795	133.97
347.007	35.67
347.219	58.2
347.431	45.91
347.643	56.15
347.855	56.15
348.067	72.53
348.279	-17.58
348.491	93.01
348.703	82.77
348.915	41.81
349.127	29.52
349.339	11.09
349.551	35.67
349.763	72.53
349.975	52.05
350.187	-1.19
350.399	21.33
350.61	21.33
350.822	33.62
351.034	56.15
351.246	64.34
351.458	52.05
351.669	9.05
351.881	15.19
352.093	19.29
352.305	60.24
352.517	80.72
352.728	52.05
352.94	-21.67
353.152	-7.34
353.363	60.24
353.575	68.44
353.787	68.44
353.999	31.57
354.21	39.76
354.422	-21.67
354.633	45.91
354.845	39.76
355.057	52.05
355.268	4.95
355.48	109.4
355.692	21.33
355.903	-29.87
356.115	11.09
356.326	15.19
356.538	68.44
356.749	52.05
356.961	54.1
357.172	21.33
357.384	31.57
357.595	90.96
357.807	-40.11
358.018	-19.63
358.23	86.87
358.441	113.49
358.653	113.49
358.864	-19.63
359.075	-68.78
359.287	45.91
359.498	33.62
359.709	86.87
359.921	52.05
360.132	-15.53
360.344	62.29
360.555	56.15
360.766	11.09
360.977	21.33
361.189	168.79
361.4	52.05
361.611	133.97
361.823	58.2
362.034	43.86
362.245	-46.25
362.456	82.77
362.667	133.97
362.879	109.4
363.09	47.96
363.301	60.24
363.512	70.48
363.723	68.44
363.935	43.86
364.146	146.26
364.357	-36.01
364.568	58.2
364.779	-19.63
364.99	47.96
365.201	45.91
365.412	19.29
365.623	13.14
365.834	45.91
366.045	13.14
366.256	27.48
366.467	90.96
366.678	84.82
366.889	56.15
367.1	72.53
367.311	111.44
367.522	19.29
367.733	86.87
367.944	68.44
368.155	-5.29
368.366	7
368.577	-17.58
368.788	70.48
368.999	-5.29
369.209	23.38
369.42	152.4
369.631	78.68
369.842	60.24
370.053	21.33
370.264	142.16
370.474	68.44
370.685	39.76
370.896	-13.48
371.107	76.63
371.317	2.9
371.528	-21.67
371.739	25.43
371.95	76.63
372.16	52.05
372.371	60.24
372.582	74.58
372.792	70.48
373.003	119.64
373.214	43.86
373.424	15.19
373.635	19.29
373.846	111.44
374.056	52.05
374.267	52.05
374.477	15.19
374.688	107.35
374.898	-3.24
375.109	93.01
375.319	19.29
375.53	80.72
375.74	54.1
375.951	29.52
376.161	99.16
376.372	84.82
376.582	-38.06
376.793	78.68
377.003	37.72
377.214	70.48
377.424	47.96
377.635	78.68
377.845	60.24
378.055	21.33
378.266	0.85
378.476	60.24
378.686	70.48
378.897	84.82
379.107	45.91
379.317	19.29
379.528	-1.19
379.738	74.58
379.948	13.14
380.158	70.48
380.369	105.3
380.579	56.15
380.789	82.77
380.999	4.95
381.21	31.57
381.42	64.34
381.63	47.96
381.84	58.2
382.05	11.09
382.261	43.86
382.471	68.44
382.681	-27.82
382.891	109.4
383.101	86.87
383.311	-19.63
383.521	21.33
383.731	101.2
383.941	121.68
384.151	29.52
384.361	45.91
384.571	142.16
384.781	105.3
384.991	2.9
385.201	56.15
385.411	41.81
385.621	35.67
385.831	2.9
386.041	33.62
386.251	47.96
386.461	27.48
386.671	84.82
386.881	-5.29
387.091	-1.19
387.301	150.36
387.511	27.48
387.72	41.81
387.93	129.88
388.14	-7.34
388.35	105.3
388.56	64.34
388.769	27.48
388.979	133.97
389.189	41.81
389.399	125.78
389.609	93.01
389.818	103.25
390.028	72.53
390.238	11.09
390.447	60.24
390.657	-29.87
390.867	93.01
391.076	54.1
391.286	21.33
391.496	84.82
391.705	66.39
391.915	101.2
392.125	-21.67
392.334	27.48
392.544	76.63
392.753	35.67
392.963	-33.96
393.172	86.87
393.382	-19.63
393.591	166.74
393.801	47.96
394.01	185.17
394.22	74.58
394.429	115.54
394.639	43.86
394.848	56.15
395.058	54.1
395.267	54.1
395.477	158.55
395.686	109.4
395.895	127.83
396.105	133.97
396.314	84.82
396.524	82.77
396.733	105.3
396.942	105.3
397.152	72.53
397.361	111.44
397.57	84.82
397.78	70.48
397.989	129.88
398.198	162.64
398.407	47.96
398.617	31.57
398.826	31.57
399.035	68.44
399.244	56.15
399.453	4.95
399.663	43.86
399.872	52.05
400.081	136.02
400.29	117.59
400.499	95.06
400.708	142.16
400.917	84.82
401.127	37.72
401.336	97.11
401.545	129.88
401.754	160.59
401.963	144.21
402.172	80.72
402.381	127.83
402.59	144.21
402.799	156.5
403.008	191.31
403.217	119.64
403.426	125.78
403.635	88.92
403.844	136.02
404.053	99.16
404.262	113.49
404.471	156.5
404.68	168.79
404.888	289.62
405.097	164.69
405.306	101.2
405.515	185.17
405.724	127.83
405.933	105.3
406.142	203.6
406.35	189.27
406.559	232.27
406.768	236.37
406.977	222.03
407.185	252.75
407.394	164.69
407.603	248.66
407.812	164.69
408.02	234.32
408.229	234.32
408.438	211.79
408.646	199.51
408.855	301.9
409.064	330.58
409.272	232.27
409.481	340.82
409.69	273.23
409.898	248.66
410.107	289.62
410.315	308.05
410.524	277.33
410.733	324.43
410.941	299.86
411.15	332.62
411.358	363.34
411.567	463.69
411.775	326.48
411.984	375.63
412.192	412.5
412.401	379.73
412.609	527.18
412.818	478.03
413.026	445.26
413.234	394.06
413.443	543.57
413.651	453.45
413.86	516.94
414.068	660.3
414.276	707.4
414.485	535.37
414.693	617.29
414.901	674.64
415.11	641.87
415.318	754.51
415.526	740.17
415.734	797.51
415.943	768.84
416.151	777.03
416.359	772.94
416.567	805.71
416.776	889.67
416.984	873.29
417.192	953.16
417.4	987.97
417.608	930.63
417.817	1030.98
418.025	1112.9
418.233	1117
418.441	1127.24
418.649	1157.96
418.857	1198.92
419.065	1284.93
419.273	1248.07
419.481	1354.56
419.689	1407.81
419.897	1428.29
420.105	1502.01
420.313	1516.35
420.521	1628.99
420.729	1626.94
420.937	1534.78
421.145	1764.15
421.353	1674.04
421.561	1868.6
421.769	1813.31
421.977	2059.06
422.185	2028.34
422.393	2079.54
422.601	2282.29
422.809	2315.06
423.017	2282.29
423.224	2439.98
423.432	2419.5
423.64	2530.09
423.848	2771.76
424.056	2665.26
424.263	2779.95
424.471	2820.91
424.679	2863.91
424.887	2968.36
425.094	2960.17
425.302	3126.05
425.51	3304.23
425.718	3418.91
425.925	3443.49
426.133	3466.02
426.341	3681.05
426.548	3908.38
426.756	3910.43
426.964	3904.28
427.171	4102.93
427.379	4326.16
427.586	4221.72
427.794	4463.38
428.001	4717.33
428.209	4739.85
428.417	4834.06
428.624	5096.2
428.832	5073.67
429.039	4958.99
429.247	5153.54
429.454	5604.1
429.662	5921.53
429.869	5585.66
430.076	6032.12
430.284	5581.57
430.491	5993.21
430.699	6574.83
430.906	6331.12
431.114	6392.56
431.321	6894.32
431.528	6841.07
431.736	7328.49
431.943	7572.19
432.15	7246.57
432.358	7420.64
432.565	7891.68
432.772	7875.29
432.979	8315.61
433.187	8487.64
433.394	8575.7
433.601	8940.24
433.808	9185.99
434.016	9005.77
434.223	9441.99
434.43	9964.22
434.637	9827.01
434.844	10517.17
435.052	10635.96
435.259	10384.05
435.466	10398.39
435.673	10463.93
435.88	11070.12
436.087	11571.88
436.294	11788.96
436.501	11567.78
436.708	11649.7
436.915	12077.73
437.122	12591.77
437.329	12741.27
437.537	13144.72
437.743	13191.82
437.95	13152.91
438.157	13984.38
438.364	14449.27
438.571	14246.52
438.778	14166.65
438.985	15829.6
439.192	15061.62
439.399	15460.97
439.606	15295.08
439.813	16173.66
440.02	17205.84
440.227	16616.02
440.433	16624.22
440.64	17205.84
440.847	16941.65
441.054	17523.27
441.261	18680.38
441.467	18405.95
441.674	18733.62
441.881	19708.46
442.088	19337.77
442.294	19130.93
442.501	19483.18
442.708	20085.28
442.914	20920.85
443.121	21680.65
443.328	21404.17
443.534	22704.63
443.741	21967.37
443.948	21707.27
444.154	23609.84
444.361	23065.08
444.568	23587.31
444.774	23478.77
444.981	23933.42
445.187	24367.59
445.394	25321.94
445.6	25254.36
445.807	27271.61
446.013	26214.85
446.22	26847.68
446.426	27787.69
446.633	27902.38
446.839	28912.03
447.046	27722.16
447.252	29632.91
447.459	29591.95
447.665	29464.98
447.871	30413.19
448.078	32203.11
448.284	30443.91
448.491	31283.58
448.697	32549.22
448.903	33048.93
449.11	33055.07
449.316	32676.19
449.522	33274.2
449.728	34277.71
449.935	34425.16
450.141	34386.25
450.347	35299.64
450.553	34111.82
450.76	34750.79
450.966	35938.61
451.172	35293.5
451.378	36591.91
451.584	35711.28
451.791	36430.12
451.997	36780.32
452.203	36970.79
452.409	37423.39
452.615	36888.87
452.821	35578.17
453.027	35336.51
453.233	37335.32
453.44	35780.92
453.646	36301.1
453.852	36243.76
454.058	36882.72
454.264	35432.76
454.47	37108
454.676	35774.77
454.882	37323.04
455.088	33687.89
455.294	34343.24
455.5	34965.82
455.705	35062.08
455.911	33763.67
456.117	33276.25
456.323	32737.63
456.529	31248.76
456.735	32369
456.941	31637.87
457.147	31207.8
457.352	30208.39
457.558	30136.71
457.764	30065.03
457.97	29581.71
458.176	28830.11
458.381	29249.94
458.587	27296.18
458.793	27490.74
458.999	26214.85
459.204	27754.93
459.41	26941.88
459.616	25516.5
459.821	25809.36
460.027	25547.22
460.233	24811.99
460.438	23904.74
460.644	23900.65
460.85	22962.68
461.055	22602.24
461.261	22594.04
461.466	21004.82
461.672	20271.65
461.878	21746.19
462.083	20494.88
462.289	19841.57
462.494	19833.38
462.7	18989.62
462.905	18557.5
463.111	19104.31
463.316	19167.79
463.522	18645.56
463.727	18659.9
463.932	18766.39
464.138	18575.93
464.343	18590.27
464.549	18158.14
464.754	18670.14
464.959	18631.23
465.165	18260.54
465.37	17635.91
465.575	17283.66
465.781	17814.09
465.986	17963.59
466.191	17488.46
466.397	17076.82
466.602	16194.14
466.807	16743
467.012	16915.03
467.218	16607.83
467.423	16495.19
467.628	16714.33
467.833	17060.43
468.038	16720.47
468.244	16169.57
468.449	16683.61
468.654	16392.8
468.859	16099.94
469.064	16081.5
469.269	15395.43
469.474	15612.52
469.679	15919.71
469.885	15329.9
470.09	15452.78
470.295	15727.21
470.5	15243.88
470.705	15444.59
470.91	14967.41
471.115	14795.38
471.32	15219.31
471.525	15198.83
471.73	14551.67
471.935	14545.53
472.139	14146.17
472.344	14226.04
472.549	14236.28
472.754	14027.39
472.959	13630.09
473.164	13486.73
473.369	13431.43
473.574	13838.98
473.778	13734.53
473.983	13390.47
474.188	13574.79
474.393	12698.26
474.598	13040.27
474.802	12872.34
475.007	12651.16
475.212	12724.88
475.417	12233.37
475.621	12135.07
475.826	12309.15
476.031	12112.54
476.235	11995.81
476.44	12317.34
476.645	11696.8
476.849	11684.52
477.054	11657.89
477.259	11451.05
477.463	11594.4
477.668	11152.04
477.872	11307.69
478.077	11252.39
478.282	10986.16
478.486	10773.17
478.691	10703.54
478.895	10678.96
479.1	10818.22
479.304	10717.87
479.509	10541.75
479.713	10652.34
479.918	10379.96
480.122	10005.18
480.326	10492.6
480.531	10160.83
480.735	10175.16
480.94	10289.85
481.144	10539.7
481.348	9839.3
481.553	10109.63
481.757	9927.36
481.961	10109.63
482.166	10242.75
482.37	10166.97
482.574	9765.57
482.778	9835.2
482.983	10107.58
483.187	9933.5
483.391	10017.47
483.595	9964.22
483.8	9769.66
484.004	9790.14
484.208	9906.88
484.412	9910.97
484.616	9788.1
484.821	10009.28
485.025	9697.99
485.229	9980.61
485.433	9687.75
485.637	10062.52
485.841	9902.78
486.045	9994.94
486.249	9980.61
486.453	9765.57
486.657	10013.37
486.861	9937.6
487.065	9620.16
487.269	10197.69
487.473	9867.97
487.677	9867.97
487.881	9947.84
488.085	9972.41
488.289	10087.1
488.493	9808.58
488.697	10054.33
488.901	10080.96
489.105	10140.35
489.309	10101.44
489.512	10156.73
489.716	10275.51
489.92	10007.23
490.124	9931.45
490.328	10379.96
490.531	10085.05
490.735	10316.47
490.939	10052.28
491.143	10169.02
491.346	10398.39
491.55	10445.49
491.754	10345.14
491.958	10504.89
492.161	10613.43
492.365	10418.87
492.569	10476.21
492.772	10576.56
492.976	10678.96
493.18	10853.04
493.383	11068.08
493.587	10975.92
493.79	11303.59
493.994	10879.66
494.197	11119.28
494.401	11262.63
494.605	11307.69
494.808	11432.61
495.012	11397.8
495.215	11442.85
495.419	11524.77
495.622	11309.74
495.825	11936.42
496.029	11823.78
496.232	12126.88
496.436	11979.42
496.639	12432.02
496.843	12249.75
497.046	12485.27
497.249	12575.38
497.453	12573.33
497.656	12939.92
497.859	13085.33
498.063	12948.11
498.266	13226.64
498.469	13347.47
498.673	13453.96
498.876	13658.76
499.079	13871.75
499.282	13652.61
499.485	14111.36
499.689	14299.77
499.892	14336.63
500.095	14527.1
500.298	14703.22
500.501	14660.21
500.705	15057.52
500.908	15182.45
501.111	15237.74
501.314	15465.07
501.517	15594.09
501.72	15872.61
501.923	15747.69
502.126	16446.04
502.329	16642.65
502.532	16607.83
502.735	16689.75
502.938	17023.57
503.141	17189.46
503.344	17357.39
503.547	17478.22
503.75	17885.76
503.953	18143.81
504.156	18147.9
504.359	18457.15
504.562	18469.44
504.765	18690.62
504.968	18924.08
505.17	19450.41
505.373	19280.43
505.576	19606.06
505.779	20021.8
505.982	20165.15
506.185	20595.23
506.387	20130.34
506.59	20820.5
506.793	21080.6
506.996	21115.41
507.198	21762.57
507.401	21688.84
507.604	21852.68
507.807	22157.83
508.009	22258.18
508.212	22360.58
508.415	23009.78
508.617	23128.56
508.82	23443.95
509.022	23327.22
509.225	23859.69
509.428	24304.1
509.63	24058.34
509.833	24789.47
510.035	24912.35
510.238	25111
510.44	25350.61
510.643	25610.7
510.845	25688.53
511.048	25977.29
511.25	25917.9
511.453	26106.31
511.655	27406.77
511.858	27111.86
512.06	27275.7
512.262	27439.54
512.465	27693.49
512.667	28109.22
512.87	28402.08
513.072	28307.88
513.274	29213.08
513.477	29415.83
513.679	29454.74
513.881	29837.71
514.084	30034.32
514.286	30144.91
514.488	30685.57
514.69	31183.23
514.893	31353.21
515.095	31584.63
515.297	32008.56
515.499	31986.03
515.701	32551.27
515.904	32614.76
516.106	32768.35
516.308	33632.6
516.51	33499.48
516.712	33646.93
516.914	34097.49
517.116	34498.89
517.318	34771.27
517.52	34832.71
517.722	34775.36
517.925	35367.23
518.127	35785.01
518.329	36311.34
518.531	36170.03
518.733	36571.43
518.935	36907.3
519.136	37021.98
519.338	37310.75
519.54	37896.47
519.742	38232.33
519.944	38045.97
520.146	38902.02
520.348	39100.67
520.55	38985.99
520.752	39133.44
520.954	40009.97
521.155	39774.45
521.357	40356.08
521.559	40030.45
521.761	41091.3
521.963	40845.54
522.164	41416.93
522.366	41386.21
522.568	41896.15
522.77	41982.16
522.971	42725.58
523.173	42232.02
523.375	42987.72
523.576	42787.02
523.778	42973.38
523.98	43368.64
524.181	43442.37
524.383	43651.26
524.584	44259.51
524.786	44472.49
524.988	44028.09
525.189	44447.92
525.391	44859.56
525.592	45424.8
525.794	45365.41
525.995	45396.13
526.197	45400.22
526.398	45883.55
526.6	45781.15
526.801	46518.42
527.003	46497.94
527.204	46524.56
527.406	46723.21
527.607	46665.87
527.808	47251.59
528.01	46499.98
528.211	46633.1
528.412	47407.23
528.614	47319.17
528.815	47341.7
529.016	47751.29
529.218	47380.61
529.419	47753.34
529.62	47665.28
529.822	48058.49
530.023	47825.02
530.224	47990.91
530.425	47845.5
530.626	47888.51
530.828	47902.84
531.029	48349.3
531.23	47990.91
531.431	48500.85
531.632	48554.1
531.833	48398.45
532.035	48523.38
532.236	48543.86
532.437	48871.53
532.638	48312.44
532.839	48599.15
533.04	48719.98
533.241	48259.19
533.442	49199.21
533.643	48973.93
533.844	48930.92
534.045	48898.16
534.246	48339.06
534.447	49068.14
534.648	48418.93
534.849	48926.83
535.05	48535.66
535.251	48519.28
535.451	48615.54
535.652	48889.96
535.853	49137.77
536.054	49158.25
536.255	48916.59
536.456	48527.47
536.657	49535.07
536.857	48984.17
537.058	48627.82
537.259	49193.06
537.46	49035.37
537.66	48971.88
537.861	48969.83
538.062	48994.41
538.263	48812.14
538.463	48558.19
538.664	48578.67
538.865	49055.85
539.065	49307.75
539.266	48449.65
539.466	49045.61
539.667	48478.32
539.868	49330.28
540.068	48816.24
540.269	48558.19
540.469	49567.84
540.67	48713.84
540.87	48699.5
541.071	49172.58
541.271	48996.46
541.472	48711.79
541.672	48638.06
541.873	48875.63
542.073	48619.63
542.274	49236.07
542.474	49002.6
542.675	48472.18
542.875	49111.14
543.075	49074.28
543.276	48089.21
543.476	49129.58
543.676	48824.43
543.877	48656.49
544.077	48982.12
544.277	49031.27
544.478	48107.64
544.678	48562.29
544.878	48988.27
545.078	48611.44
545.279	48638.06
545.479	48509.04
545.679	48468.08
545.879	48316.53
546.079	48308.34
546.28	48380.02
546.48	48150.65
546.68	48599.15
546.88	48783.47
547.08	48916.59
547.28	48824.43
547.48	48056.44
547.68	48015.48
547.88	48054.39
548.081	48687.21
548.281	48140.41
548.481	48238.71
548.681	48885.87
548.881	48406.64
549.081	48298.1
549.28	48341.11
549.48	48504.95
549.68	48087.16
549.88	48916.59
550.08	48203.89
550.28	48855.15
550.48	48369.78
550.68	48998.51
550.88	48015.48
551.08	48330.87
551.279	48400.5
551.479	47442.05
551.679	48308.34
551.879	47855.74
552.079	48265.33
552.278	47767.68
552.478	48320.63
552.678	48384.12
552.878	48382.07
553.077	47796.35
553.277	47595.65
553.477	48355.44
553.676	47679.61
553.876	48140.41
554.076	47702.14
554.275	47816.83
554.475	47110.28
554.674	47837.31
554.874	48212.09
555.074	47564.93
555.273	47898.75
555.473	47724.67
555.672	47390.85
555.872	48009.34
556.071	47730.81
556.271	48167.03
556.47	47671.42
556.67	47128.71
556.869	47493.25
557.068	47569.02
557.268	47319.17
557.467	47243.4
557.667	47102.09
557.866	47069.32
558.065	47091.85
558.265	46790.8
558.464	47356.03
558.663	47515.78
558.863	46755.98
559.062	47714.43
559.261	46917.77
559.461	47165.57
559.66	46106.77
559.859	46729.36
560.058	46973.06
560.258	47018.12
560.457	46981.26
560.656	47054.98
560.855	46344.34
561.054	46796.94
561.253	46137.49
561.453	46334.1
561.652	46579.85
561.851	46448.78
562.05	46092.44
562.249	46037.14
562.448	46594.19
562.647	46164.12
562.846	45899.93
563.045	46651.53
563.244	45887.64
563.443	46086.29
563.642	45525.15
563.841	45777.05
564.04	45631.65
564.239	46143.64
564.438	45217.96
564.637	45899.93
564.836	45478.05
565.035	45099.17
565.234	45406.37
565.432	45097.13
565.631	45490.34
565.83	45201.57
566.029	44718.25
566.228	45025.45
566.427	44873.9
566.625	44576.94
566.824	44284.08
567.023	45056.17
567.222	44112.05
567.42	44503.21
567.619	44593.32
567.818	44343.47
568.016	44431.54
568.215	44724.39
568.414	44138.68
568.612	44417.2
568.811	43739.32
569.01	44431.54
569.208	43571.39
569.407	44189.88
569.605	43188.42
569.804	43714.75
570.002	43129.03
570.201	43915.45
570.4	43442.37
570.598	43174.08
570.797	43002.05
570.995	43204.8
571.193	42934.47
571.392	43360.45
571.59	42844.36
571.789	42784.97
571.987	42805.45
572.186	42907.85
572.384	42526.92
572.582	42631.37
572.781	42328.27
572.979	42191.06
573.177	42547.4
573.376	42086.61
573.574	41707.74
573.772	42481.87
573.971	41742.55
574.169	41529.56
574.367	41287.9
574.565	41548
574.763	41394.4
574.962	41392.35
575.16	41054.43
575.358	41330.91
575.556	41117.92
575.754	41527.52
575.952	40714.47
576.151	41148.64
576.349	40220.91
576.547	40380.65
576.745	40890.6
576.943	40739.05
577.141	41005.28
577.339	40554.73
577.537	40247.54
577.735	40345.84
577.933	39995.64
578.131	40222.96
578.329	39858.42
578.527	39665.91
578.725	39676.15
578.923	39692.54
579.121	39403.77
579.319	39332.09
579.516	39493.88
579.714	39633.14
579.912	39123.2
580.11	39051.52
580.308	39069.95
580.506	39192.83
580.704	38285.58
580.901	38926.6
581.099	38983.94
581.297	38314.25
581.495	38097.17
581.692	38529.29
581.89	38076.69
582.088	38623.5
582.285	37953.81
582.483	38174.99
582.681	37763.35
582.878	37978.39
583.076	37630.23
583.274	37968.15
583.471	37632.28
583.669	37378.33
583.866	37361.95
584.064	37726.49
584.262	37155.1
584.459	37478.68
584.657	36849.96
584.854	37257.5
585.052	36411.69
585.249	36987.17
585.447	36837.67
585.644	36600.1
585.841	36573.48
586.039	36567.34
586.236	36151.6
586.434	36043.06
586.631	36352.3
586.828	36567.34
587.026	36116.78
587.223	35557.69
587.42	35778.87
587.618	35516.73
587.815	35172.67
588.012	35625.27
588.21	34918.72
588.407	35717.43
588.604	35135.81
588.801	35025.21
588.999	34777.41
589.196	34892.1
589.393	35100.99
589.59	34396.49
589.787	34816.32
589.984	34468.17
590.182	34199.88
590.379	34390.34
590.576	34130.25
590.773	34500.93
590.97	33915.22
591.167	34046.29
591.364	33616.21
591.561	34095.44
591.758	33341.78
591.955	33378.65
592.152	33595.73
592.349	33241.43
592.546	33487.19
592.743	33313.11
592.94	32833.89
593.137	32971.1
593.334	32770.4
593.531	32780.64
593.727	33018.21
593.924	32971.1
594.121	32436.58
594.318	32350.57
594.515	32303.46
594.712	32680.29
594.908	32227.69
595.105	32194.92
595.302	31635.83
595.499	32100.72
595.696	31918.45
595.892	31510.9
596.089	31840.62
596.286	31799.66
596.482	31889.77
596.679	31613.3
596.876	31379.83
597.072	31152.51
597.269	31355.25
597.466	31011.2
597.662	30972.28
597.859	30894.46
598.055	30636.42
598.252	30740.86
598.448	30613.89
598.645	30726.53
598.841	30194.06
599.038	30353.8
599.234	30333.32
599.431	30101.9
599.627	29618.58
599.824	30235.02
600.02	29999.5
600.217	29925.77
600.413	29768.08
600.609	29786.51
600.806	29217.18
601.002	29563.28
601.198	29188.5
601.395	29020.57
601.591	29223.32
601.787	29032.86
601.984	29028.76
602.18	29282.71
602.376	28694.94
602.572	28768.67
602.769	28619.17
602.965	28242.34
603.161	28463.52
603.357	28570.02
603.553	28244.39
603.75	28473.76
603.946	28256.68
604.142	28297.64
604.338	27976.11
604.534	27875.76
604.73	27777.45
604.926	28043.69
605.122	27732.4
605.318	27681.2
605.514	27664.82
605.71	27425.2
605.906	27505.07
606.102	27490.74
606.298	27423.15
606.494	27148.73
606.69	27443.63
606.886	26814.91
607.082	26608.06
607.278	27050.42
607.474	26618.3
607.67	26911.16
607.866	26413.51
608.062	26960.31
608.257	26610.11
608.453	26431.94
608.649	26599.87
608.845	26286.53
609.041	26094.02
609.236	26225.09
609.432	26196.42
609.628	26075.59
609.824	25817.55
610.019	26145.22
610.215	25883.08
610.411	26102.22
610.606	25760.2
610.802	25899.47
610.998	25817.55
611.193	25866.7
611.389	25688.53
611.584	25473.49
611.78	25168.34
611.976	25252.31
612.171	25299.41
612.367	25414.1
612.562	24832.47
612.758	25055.7
612.953	25063.89
613.149	25344.47
613.344	24906.2
613.539	25326.03
613.735	25113.05
613.93	25233.88
614.126	24648.16
614.321	25057.75
614.517	25166.29
614.712	24621.53
614.907	24832.47
615.103	24748.51
615.298	24383.97
615.493	24631.77
615.688	24308.19
615.884	24646.11
616.079	24146.4
616.274	24422.88
616.47	24021.48
616.665	24150.5
616.86	24140.26
617.055	24144.36
617.25	23949.8
617.445	24041.96
617.641	23552.49
617.836	23792.11
618.031	23472.62
618.226	24044.01
618.421	23245.3
618.616	23714.28
618.811	23147
619.006	23785.96
619.201	23017.97
619.396	23413.23
619.591	22995.45
619.786	23032.31
619.981	22938.1
620.176	23114.23
620.371	22503.93
620.566	22702.59
620.761	22252.03
620.956	22882.81
621.151	22180.35
621.346	22487.55
621.541	21748.23
621.735	22559.23
621.93	21801.48
622.125	21998.09
622.32	21623.31
622.515	21688.84
622.709	21482
622.904	21613.07
623.099	21346.83
623.294	21428.75
623.488	21291.54
623.683	21045.78
623.878	20591.13
624.072	20881.94
624.267	20605.47
624.462	20298.27
624.656	20380.19
624.851	20324.9
625.046	20490.78
625.24	20144.67
625.435	19948.07
625.629	19939.88
625.824	19784.23
626.018	19493.42
626.213	19266.1
626.407	19497.52
626.602	19192.37
626.796	19200.56
626.991	19561
627.185	19073.59
627.38	18983.48
627.574	18899.51
627.768	18518.59
627.963	18614.84
628.157	18197.06
628.352	18514.49
628.546	18281.02
628.74	18385.47
628.935	18154.05
629.129	18053.7
629.323	17726.02
629.517	17838.66
629.712	17822.28
629.906	17660.49
630.1	17273.42
630.294	17431.12
630.489	17281.61
630.683	17553.99
630.877	17289.81
631.071	17226.32
631.265	17177.17
631.459	16912.98
631.653	16898.64
631.848	16796.25
632.042	16593.5
632.236	16562.78
632.43	16376.41
632.624	16484.95
632.818	16249.44
633.012	16026.21
633.206	16222.81
633.4	16071.26
633.594	15862.37
633.788	15997.54
633.982	15993.44
634.176	15741.54
634.369	15581.8
634.563	15553.13
634.757	15573.61
634.951	15739.49
635.145	15362.67
635.339	15467.11
635.533	15059.57
635.726	15217.26
635.92	15016.56
636.114	15043.18
636.308	14805.62
636.501	14690.93
636.695	14699.13
636.889	14770.8
637.083	14338.68
637.276	14668.41
637.47	14619.25
637.664	14400.12
637.857	14590.58
638.051	14211.71
638.244	13949.57
638.438	14006.91
638.632	14058.11
638.825	13845.12
639.019	13812.35
639.212	13755.01
639.406	13621.89
639.599	13560.45
639.793	13562.5
639.986	13349.51
640.18	13374.09
640.373	13507.21
640.567	13175.44
640.76	13238.92
640.954	13087.37
641.147	12954.26
641.34	13058.7
641.534	13103.76
641.727	12855.95
641.92	12700.31
642.114	12458.65
642.307	12767.89
642.5	12524.18
642.694	12442.26
642.887	12124.83
643.08	12436.12
643.273	12235.42
643.467	12241.56
643.66	11877.02
643.853	12055.2
644.046	11668.13
644.239	11864.74
644.432	11920.03
644.626	11768.48
644.819	11594.4
645.012	11727.52
645.205	11455.14
645.398	11471.53
645.591	11444.9
645.784	11158.19
645.977	11311.78
646.17	11106.99
646.363	11233.96
646.556	11016.88
646.749	11106.99
646.942	11197.1
647.135	11006.64
647.328	10932.91
647.521	10877.62
647.714	10676.91
647.907	10564.28
648.099	10789.55
648.292	10638
648.485	10515.12
648.678	10513.08
648.871	10310.33
649.064	10177.21
649.256	10199.74
649.449	10240.7
649.642	10250.94
649.835	10130.11
650.027	9894.59
650.22	9996.99
650.413	9956.03
650.605	9919.17
650.798	9974.46
650.991	9779.9
651.183	9657.03
651.376	9597.63
651.568	9695.94
651.761	9472.71
651.954	9689.79
652.146	9599.68
652.339	9446.09
652.531	9562.82
652.724	9018.06
652.916	9235.14
653.109	9226.95
653.301	9259.72
653.494	9218.76
653.686	9005.77
653.879	8911.57
654.071	8944.33
654.263	8786.64
654.456	8809.17
654.648	8860.37
654.84	8706.77
655.033	8731.34
655.225	8585.94
655.417	8579.79
655.61	8452.82
655.802	8563.41
655.994	8506.07
656.186	8383.19
656.379	8368.85
656.571	8200.92
656.763	8235.74
656.955	8207.06
657.148	8352.47
657.34	8049.37
657.532	8166.1
657.724	8108.76
657.916	8172.25
658.108	7817.95
658.3	7867.1
658.492	7895.77
658.684	7723.74
658.876	7801.57
659.068	7631.58
659.26	7615.2
659.452	7498.47
659.644	7695.07
659.836	7555.81
660.028	7607.01
660.22	7359.21
660.412	7465.7
660.604	7412.45
660.796	7332.58
660.988	7299.81
661.18	7035.63
661.372	7185.13
661.563	7351.01
661.755	6939.37
661.947	7002.86
662.139	7058.15
662.331	6933.23
662.522	7011.05
662.714	7023.34
662.906	6908.65
663.097	6900.46
663.289	6712.05
663.481	6714.09
663.673	6793.97
663.864	6712.05
664.056	6533.87
664.247	6585.07
664.439	6394.61
664.631	6666.99
664.822	6540.02
665.014	6441.72
665.205	6404.85
665.397	6435.57
665.588	6435.57
665.78	6206.2
665.971	6216.44
666.163	6122.23
666.354	6040.31
666.546	6198.01
666.737	5993.21
666.929	5968.63
667.12	6038.27
667.311	5819.13
667.503	5892.86
667.694	5997.31
667.885	6009.59
668.077	5950.2
668.268	5735.17
668.459	5675.77
668.651	5692.16
668.842	5767.93
669.033	5716.73
669.224	5612.29
669.416	5731.07
669.607	5503.75
669.798	5477.12
669.989	5591.81
670.18	5655.3
670.371	5585.66
670.563	5364.48
670.754	5364.48
670.945	5397.25
671.136	5372.68
671.327	5395.2
671.518	5245.7
671.709	5364.48
671.9	5292.8
672.091	5313.28
672.282	5133.06
672.473	5110.54
672.664	5098.25
672.855	5100.3
673.046	5114.63
673.237	5147.4
673.428	4956.94
673.619	5098.25
673.809	5131.02
674	5102.34
674.191	5045
674.382	4836.11
674.573	5026.57
674.764	4903.69
674.954	4956.94
675.145	4746
675.336	4811.53
675.527	4803.34
675.717	4690.7
675.908	4739.85
676.099	4901.64
676.289	4762.38
676.48	4635.41
676.671	4719.37
676.861	4535.06
677.052	4533.01
677.243	4463.38
677.433	4678.41
677.624	4590.35
677.814	4619.02
678.005	4592.4
678.195	4524.82
678.386	4514.58
678.576	4518.67
678.767	4389.65
678.957	4502.29
679.148	4428.56
679.338	4565.78
679.529	4471.57
679.719	4467.47
679.909	4524.82
680.1	4248.34
680.29	4467.47
680.481	4332.31
680.671	4293.4
680.861	4254.48
681.052	4285.2
681.242	4291.35
681.432	4244.24
681.622	4184.85
681.813	4043.54
682.003	4156.18
682.193	4131.61
682.383	4180.76
682.573	4176.66
682.764	4076.31
682.954	4201.24
683.144	4287.25
683.334	4080.41
683.524	4025.11
683.714	4174.61
683.904	4012.82
684.094	4156.18
684.284	4188.95
684.474	4107.03
684.664	3928.86
684.854	3920.67
685.044	4117.27
685.234	4111.13
685.424	3926.81
685.614	3869.47
685.804	4068.12
685.994	4090.65
686.184	3980.06
686.374	4039.45
686.564	3982.1
686.753	3875.61
686.943	3742.49
687.133	3887.9
687.323	3877.66
687.513	3910.43
687.702	3787.55
687.892	3791.64
688.082	3767.07
688.272	3724.06
688.461	3656.48
688.651	3687.2
688.841	3658.53
689.03	3470.11
689.22	3746.59
689.41	3726.11
689.599	3738.4
689.789	3734.3
689.979	3697.44
690.168	3648.29
690.358	3619.61
690.547	3535.65
690.737	3549.98
690.926	3562.27
691.116	3496.74
691.305	3588.89
691.495	3480.35
691.684	3582.75
691.874	3521.31
692.063	3445.54
692.252	3681.05
692.442	3509.02
692.631	3541.79
692.82	3345.19
693.01	3396.39
693.199	3345.19
693.388	3468.06
693.578	3386.15
693.767	3590.94
693.956	3289.89
694.146	3361.57
694.335	3318.56
694.524	3304.23
694.713	3242.79
694.902	3324.71
695.092	3289.89
695.281	3242.79
695.47	3336.99
695.659	3177.25
695.848	3238.69
696.037	3187.49
696.226	3273.51
696.415	3314.47
696.604	3291.94
696.793	3273.51
696.982	3232.55
697.171	3281.7
697.36	3107.62
697.549	3255.08
697.738	3064.61
697.927	3044.13
698.116	3216.16
698.305	3117.86
698.494	3181.35
698.683	3052.33
698.872	3093.29
699.061	3150.63
699.25	3011.37
699.438	2988.84
699.627	3052.33
699.816	3099.43
700.005	3015.46
700.193	2978.6
700.382	3091.24
700.571	3011.37
700.76	2984.74
700.948	3019.56
701.137	3107.62
701.326	2980.65
701.514	2829.1
701.703	2962.22
701.892	2929.45
702.08	3021.61
702.269	3048.23
702.457	2943.78
702.646	2874.15
702.834	2872.11
703.023	2935.59
703.212	2927.4
703.4	2829.1
703.589	2913.06
703.777	2861.87
703.965	2847.53
704.154	2886.44
704.342	2644.78
704.531	2853.67
704.719	2669.36
704.907	2859.82
705.096	2829.1
705.284	2726.7
705.472	2833.19
705.661	2804.52
705.849	2743.08
706.037	2738.99
706.226	2630.45
706.414	2845.48
706.602	2736.94
706.79	2751.28
706.979	2763.56
707.167	2833.19
707.355	2747.18
707.543	2698.03
707.731	2577.2
707.919	2704.17
708.107	2681.64
708.296	2681.64
708.484	2591.53
708.672	2786.09
708.86	2677.55
709.048	2659.12
709.236	2579.25
709.424	2591.53
709.612	2593.58
709.8	2517.81
709.988	2536.24
710.176	2534.19
710.364	2689.84
710.551	2558.77
710.739	2534.19
710.927	2542.38
711.115	2624.3
711.303	2609.97
711.491	2509.62
711.679	2450.22
711.866	2530.09
712.054	2509.62
712.242	2519.85
712.43	2628.4
712.617	2480.94
712.805	2577.2
712.993	2429.74
713.181	2454.32
713.368	2501.42
713.556	2403.12
713.744	2392.88
713.931	2411.31
714.119	2482.99
714.306	2554.67
714.494	2474.8
714.682	2452.27
714.869	2411.31
715.057	2462.51
715.244	2321.2
715.432	2448.18
715.619	2257.71
715.807	2351.92
715.994	2362.16
716.182	2323.25
716.369	2401.07
716.556	2427.7
716.744	2337.59
716.931	2325.3
717.119	2272.05
717.306	2339.63
717.493	2317.11
717.681	2251.57
717.868	2208.56
718.055	2378.55
718.242	2292.53
718.43	2261.81
718.617	2364.21
718.804	2345.78
718.991	2313.01
719.179	2274.1
719.366	2245.43
719.553	2216.76
719.74	2267.95
719.927	2247.48
720.114	2202.42
720.301	2194.23
720.488	2224.95
720.676	2128.69
720.863	2263.86
721.05	2140.98
721.237	2116.41
721.424	2173.75
721.611	2124.6
721.798	2159.41
721.985	2087.73
722.172	2108.21
722.358	2196.28
722.545	2177.84
722.732	2044.73
722.919	2239.28
723.106	2110.26
723.293	2136.88
723.48	2165.56
723.667	2001.72
723.853	2077.49
724.04	2249.52
724.227	2149.17
724.414	1993.53
724.6	2136.88
724.787	2034.49
724.974	2079.54
725.161	2073.4
725.347	2038.58
725.534	2067.25
725.72	2093.88
725.907	2075.45
726.094	1993.53
726.28	1987.38
726.467	1872.7
726.653	2089.78
726.84	2003.77
727.027	2067.25
727.213	1973.05
727.4	2022.2
727.586	1927.99
727.773	1968.95
727.959	1884.98
728.145	2003.77
728.332	1862.46
728.518	1880.89
728.705	1997.62
728.891	1946.42
729.077	1952.57
729.264	1870.65
729.45	1956.66
729.636	1889.08
729.823	1985.34
730.009	1858.36
730.195	1887.03
730.382	1954.62
730.568	1889.08
730.754	1866.55
730.94	1805.11
731.126	1891.13
731.313	2003.77
731.499	1825.59
731.685	1930.04
731.871	1854.27
732.057	1864.5
732.243	1762.11
732.429	1887.03
732.615	1878.84
732.801	1719.1
732.987	1876.79
733.173	1854.27
733.359	1811.26
733.545	1780.54
733.731	1854.27
733.917	1801.02
734.103	1755.96
734.289	1790.78
734.475	1735.48
734.661	1776.44
734.847	1817.4
735.033	1776.44
735.219	1805.11
735.404	1774.39
735.59	1813.31
735.776	1663.8
735.962	1813.31
736.148	1798.97
736.333	1846.07
736.519	1753.91
736.705	1776.44
736.89	1712.96
737.076	1715
737.262	1708.86
737.447	1710.91
737.633	1649.47
737.819	1725.24
738.004	1758.01
738.19	1706.81
738.375	1682.24
738.561	1715
738.747	1692.48
738.932	1624.89
739.118	1755.96
739.303	1663.8
739.489	1653.56
739.674	1694.52
739.859	1698.62
740.045	1682.24
740.23	1620.8
740.416	1575.74
740.601	1579.84
740.786	1674.04
740.972	1536.83
741.157	1530.69
741.342	1542.97
741.528	1499.97
741.713	1590.08
741.898	1571.65
742.084	1614.65
742.269	1506.11
742.454	1485.63
742.639	1571.65
742.824	1563.45
743.01	1620.8
743.195	1594.17
743.38	1452.86
743.565	1506.11
743.75	1598.27
743.935	1469.25
744.12	1561.41
744.305	1430.34
744.49	1448.77
744.675	1452.86
744.86	1395.52
745.045	1411.9
745.23	1416
745.415	1391.42
745.6	1504.06
745.785	1411.9
745.97	1444.67
746.155	1465.15
746.34	1444.67
746.525	1362.75
746.71	1420.1
746.895	1350.46
747.079	1338.18
747.264	1362.75
747.449	1432.38
747.634	1338.18
747.819	1223.49
748.003	1305.41
748.188	1338.18
748.373	1248.07
748.557	1311.55
748.742	1280.83
748.927	1274.69
749.111	1311.55
749.296	1174.34
749.481	1237.83
749.665	1368.9
749.85	1239.87
750.034	1149.76
750.219	1225.54
750.404	1305.41
750.588	1135.43
750.773	1125.19
750.957	1239.87
751.141	1108.8
751.326	1211.2
751.51	1147.72
751.695	1264.45
751.879	1164.1
752.064	1127.24
752.248	1174.34
752.432	1166.15
752.617	1135.43
752.801	1133.38
752.985	1200.96
753.17	1117
753.354	1137.48
753.538	1125.19
753.722	1061.7
753.907	1106.76
754.091	1071.94
754.275	1067.85
754.459	979.78
754.643	1084.23
754.828	1037.13
755.012	1037.13
755.196	1014.6
755.38	963.4
755.564	926.54
755.748	992.07
755.932	1004.36
756.116	977.73
756.3	979.78
756.484	1022.79
756.668	1020.74
756.852	1030.98
757.036	930.63
757.22	979.78
757.404	998.21
757.588	963.4
757.772	985.93
757.956	1002.31
758.14	934.73
758.323	977.73
758.507	897.86
758.691	969.54
758.875	912.2
759.059	854.86
759.242	926.54
759.426	906.06
759.61	846.66
759.794	947.01
759.977	830.28
760.161	920.39
760.345	830.28
760.528	852.81
760.712	826.18
760.895	871.24
761.079	774.99
761.263	856.9
761.446	797.51
761.63	817.99
761.813	875.34
761.997	801.61
762.18	873.29
762.364	854.86
762.547	815.94
762.731	789.32
762.914	766.79
763.098	742.22
763.281	846.66
763.464	830.28
763.648	807.75
763.831	764.75
764.015	762.7
764.198	707.4
764.381	748.36
764.564	719.69
764.748	789.32
764.931	731.98
765.114	725.83
765.297	813.9
765.481	764.75
765.664	772.94
765.847	715.59
766.03	758.6
766.213	666.44
766.397	731.98
766.58	670.54
766.763	740.17
766.946	758.6
767.129	764.75
767.312	699.21
767.495	785.23
767.678	678.73
767.861	676.68
768.044	703.31
768.227	658.25
768.41	752.46
768.593	731.98
768.776	715.59
768.959	736.07
769.142	693.07
769.324	715.59
769.507	699.21
769.69	613.2
769.873	650.06
770.056	785.23
770.239	672.59
770.421	611.15
770.604	633.68
770.787	707.4
770.97	719.69
771.152	621.39
771.335	637.77
771.518	656.2
771.7	772.94
771.883	740.17
772.066	635.72
772.248	723.79
772.431	664.4
772.613	719.69
772.796	555.85
772.978	627.53
773.161	629.58
773.343	629.58
773.526	639.82
773.708	678.73
773.891	514.89
774.073	637.77
774.256	533.33
774.438	621.39
774.621	594.76
774.803	574.28
774.985	545.61
775.168	617.29
775.35	527.18
775.532	621.39
775.715	551.76
775.897	637.77
776.079	613.2
776.261	623.44
776.444	527.18
776.626	551.76
776.808	564.04
776.99	584.52
777.173	510.8
777.355	473.93
777.537	557.9
777.719	582.48
777.901	512.85
778.083	518.99
778.265	535.37
778.447	445.26
778.629	494.41
778.811	527.18
778.993	447.31
779.175	490.32
779.357	492.37
779.539	428.88
779.721	449.36
779.903	465.74
780.085	506.7
780.267	518.99
780.449	537.42
780.631	516.94
780.812	502.61
780.994	478.03
781.176	475.98
781.358	461.65
781.54	463.69
781.721	584.52
781.903	518.99
782.085	459.6
782.267	498.51
782.448	416.59
782.63	428.88
782.812	424.78
782.993	455.5
783.175	379.73
783.357	383.82
783.538	435.02
783.72	367.44
783.901	412.5
784.083	346.96
784.264	379.73
784.446	408.4
784.627	365.39
784.809	349.01
784.99	418.64
785.172	340.82
785.353	422.73
785.535	453.45
785.716	363.34
785.897	445.26
786.079	389.97
786.26	359.25
786.441	422.73
786.623	322.38
786.804	355.15
786.985	381.78
787.167	406.35
787.348	330.58
787.529	232.27
787.71	392.02
787.891	367.44
788.073	330.58
788.254	283.47
788.435	334.67
788.616	340.82
788.797	299.86
788.978	297.81
789.159	340.82
789.34	332.62
789.522	306
789.703	267.09
789.884	336.72
790.065	316.24
790.246	408.4
790.427	330.58
790.607	306
790.788	322.38
790.969	299.86
791.15	355.15
791.331	306
791.512	228.18
791.693	240.47
791.874	326.48
792.054	303.95
792.235	232.27
792.416	238.42
792.597	324.43
792.778	262.99
792.958	293.71
793.139	252.75
793.32	289.62
793.5	287.57
793.681	285.52
793.862	265.04
794.042	279.38
794.223	217.94
794.404	179.03
794.584	236.37
794.765	265.04
794.945	273.23
795.126	297.81
795.306	267.09
795.487	293.71
795.667	262.99
795.848	232.27
796.028	228.18
796.209	219.99
796.389	324.43
796.57	252.75
796.75	215.89
796.93	273.23
797.111	197.46
797.291	248.66
797.471	125.78
797.652	217.94
797.832	246.61
798.012	211.79
798.192	248.66
798.373	117.59
798.553	213.84
798.733	228.18
798.913	158.55
799.093	224.08
799.274	228.18
799.454	236.37
799.634	215.89
799.814	195.41
799.994	197.46
800.174	289.62
800.354	275.28
800.534	240.47
800.714	273.23
800.894	217.94
801.074	121.68
801.254	170.83
801.434	250.71
801.614	224.08
801.794	111.44
801.974	725.83
802.154	142.16
802.334	193.36
802.514	207.7
802.693	207.7
802.873	170.83
803.053	203.6
803.233	142.16
803.413	117.59
803.592	195.41
803.772	217.94
803.952	133.97
804.131	111.44
804.311	244.56
804.491	215.89
804.67	176.98
804.85	179.03
805.03	224.08
805.209	152.4
805.389	174.93
805.568	133.97
805.748	119.64
805.928	201.55
806.107	156.5
806.287	215.89
806.466	195.41
806.646	160.59
806.825	152.4
807.004	142.16
807.184	142.16
807.363	160.59
807.543	228.18
807.722	166.74
807.901	172.88
808.081	183.12
808.26	60.24
808.439	197.46
808.619	125.78
808.798	119.64
808.977	133.97
809.156	183.12
809.336	179.03
809.515	119.64
809.694	72.53
809.873	123.73
810.052	199.51
810.231	183.12
810.411	125.78
810.59	60.24
810.769	50
810.948	211.79
811.127	56.15
811.306	144.21
811.485	60.24
811.664	95.06
811.843	207.7
812.022	199.51
812.201	125.78
812.38	103.25
812.559	80.72
812.737	158.55
812.916	88.92
813.095	146.26
813.274	117.59
813.453	84.82
813.632	201.55
813.811	168.79
813.989	95.06
814.168	82.77
814.347	109.4
814.526	138.07
814.704	183.12
814.883	125.78
815.062	80.72
815.24	144.21
815.419	111.44
815.598	144.21
815.776	72.53
815.955	154.45
816.133	109.4
816.312	183.12
816.49	117.59
816.669	183.12
816.847	93.01
817.026	133.97
817.204	76.63
817.383	158.55
817.561	84.82
817.74	17.24
817.918	142.16
818.097	107.35
818.275	142.16
818.453	156.5
818.632	131.92
818.81	21.33
818.988	99.16
819.167	-21.67
819.345	76.63
819.523	93.01
819.701	119.64
819.879	133.97
820.058	93.01
820.236	127.83
820.414	93.01
820.592	-5.29
820.77	7
820.948	136.02
821.127	86.87
821.305	111.44
821.483	117.59
821.661	144.21
821.839	97.11
822.017	80.72
822.195	56.15
822.373	86.87
822.551	95.06
822.729	95.06
822.907	68.44
823.085	84.82
823.262	111.44
823.44	76.63
823.618	93.01
823.796	133.97
823.974	93.01
824.152	97.11
824.329	54.1
824.507	11.09
824.685	68.44
824.863	146.26
825.04	76.63
825.218	105.3
825.396	93.01
825.574	54.1
825.751	-19.63
825.929	146.26
826.107	-5.29
826.284	54.1
826.462	76.63
826.639	125.78
826.817	133.97
826.994	60.24
827.172	64.34
827.349	150.36
827.527	109.4
827.704	140.12
827.882	88.92
828.059	56.15
828.237	19.29
828.414	131.92
828.591	80.72
828.769	84.82
828.946	27.48
829.124	111.44
829.301	80.72
829.478	93.01
829.655	80.72
829.833	62.29
830.01	-25.77
830.187	125.78
830.364	84.82
830.542	50
830.719	113.49
830.896	174.93
831.073	35.67
831.25	19.29
831.427	43.86
831.604	31.57
831.782	72.53
831.959	66.39
832.136	86.87
832.313	43.86
832.49	47.96
832.667	84.82
832.844	60.24
833.021	60.24
833.198	103.25
833.374	29.52
833.551	101.2
833.728	84.82
833.905	109.4
834.082	2.9
834.259	-1.19
834.436	136.02
834.612	37.72
834.789	115.54
834.966	43.86
835.143	86.87
835.319	60.24
835.496	129.88
835.673	19.29
835.85	103.25
836.026	101.2
836.203	95.06
836.38	62.29
836.556	109.4
836.733	41.81
836.909	-5.29
837.086	111.44
837.262	9.05
837.439	7
837.616	62.29
837.792	43.86
837.968	39.76
838.145	-27.82
838.321	97.11
838.498	80.72
838.674	-44.2
838.851	11.09
839.027	11.09
839.203	2.9
839.38	105.3
839.556	11.09
839.732	109.4
839.909	11.09
840.085	168.79
840.261	-101.55
840.437	56.15
840.614	74.58
840.79	86.87
840.966	45.91
841.142	43.86
841.318	13.14
841.494	56.15
841.671	43.86
841.847	52.05
842.023	86.87
842.199	86.87
842.375	-44.2
842.551	33.62
842.727	35.67
842.903	84.82
843.079	4.95
843.255	109.4
843.431	29.52
843.607	72.53
843.783	-58.54
843.959	54.1
844.134	-66.73
844.31	111.44
844.486	52.05
844.662	29.52
844.838	50
845.013	19.29
845.189	84.82
845.365	21.33
845.541	84.82
845.716	-27.82
845.892	97.11
846.068	31.57
846.244	-13.48
846.419	17.24
846.595	-74.92
846.77	54.1
846.946	19.29
847.122	37.72
847.297	-1.19
847.473	54.1
847.648	52.05
847.824	62.29
847.999	-29.87
848.175	-1.19
848.35	60.24
848.526	101.2
848.701	13.14
848.876	86.87
849.052	-3.24
849.227	-19.63
849.403	62.29
849.578	27.48
849.753	-17.58
849.929	11.09
850.104	-1.19
850.279	56.15
850.454	21.33
850.63	43.86
850.805	60.24
850.98	64.34
851.155	-9.39
851.33	-17.58
851.505	-17.58
851.681	15.19
851.856	-38.06
852.031	62.29
852.206	54.1
852.381	78.68
852.556	43.86
852.731	45.91
852.906	88.92
853.081	93.01
853.256	-9.39
853.431	-3.24
853.606	25.43
853.781	-66.73
853.956	54.1
854.131	56.15
854.305	-64.68
854.48	52.05
854.655	54.1
854.83	-1.19
855.005	52.05
855.18	54.1
855.354	52.05
855.529	60.24
855.704	27.48
855.879	95.06
856.053	-15.53
856.228	17.24
856.403	33.62
856.577	37.72
856.752	-29.87
856.926	-44.2
857.101	95.06
857.276	66.39
857.45	-29.87
857.625	15.19
857.799	90.96
857.974	-1.19
858.148	-11.43
858.323	103.25
858.497	50
858.672	2.9
858.846	11.09
859.02	-50.35
859.195	13.14
859.369	-1.19
859.543	19.29
859.718	-1.19
859.892	-13.48
860.066	76.63
860.241	-62.63
860.415	-17.58
860.589	-13.48
860.763	19.29
860.938	-3.24
861.112	86.87
861.286	-29.87
861.46	43.86
861.634	29.52
861.808	125.78
861.982	-27.82
862.157	19.29
862.331	-54.44
862.505	-17.58
862.679	-9.39
862.853	-54.44
863.027	2.9
863.201	11.09
863.375	-13.48
863.549	64.34
863.722	78.68
863.896	45.91
864.07	-17.58
864.244	19.29
864.418	-17.58
864.592	45.91
864.766	72.53
864.939	25.43
865.113	-23.72
865.287	60.24
865.461	-25.77
865.634	45.91
865.808	-33.96
865.982	54.1
866.156	19.29
866.329	-19.63
866.503	64.34
866.676	68.44
866.85	25.43
867.024	11.09
867.197	93.01
867.371	-38.06
867.544	43.86
867.718	19.29
867.891	84.82
868.065	0.85
868.238	-21.67
868.412	11.09
868.585	21.33
868.759	2.9
868.932	2.9
869.105	68.44
869.279	-3.24
869.452	-19.63
869.625	82.77
869.799	86.87
869.972	0.85
870.145	2.9
870.319	13.14
870.492	19.29
870.665	-5.29
870.838	4.95
871.011	37.72
871.185	52.05
871.358	11.09
871.531	66.39
871.704	-3.24
871.877	-3.24
872.05	-13.48
872.223	70.48
872.396	-5.29
872.569	58.2
872.742	-1.19
872.915	54.1
873.088	-38.06
873.261	4.95
873.434	95.06
873.607	60.24
873.78	33.62
873.953	2.9
874.126	2.9
874.299	78.68
874.471	52.05
874.644	43.86
874.817	35.67
874.99	43.86
875.163	-36.01
875.335	13.14
875.508	-29.87
875.681	31.57
875.853	-5.29
876.026	4.95
876.199	70.48
876.371	68.44
876.544	-74.92
876.717	-19.63
876.889	-15.53
877.062	60.24
877.234	-5.29
877.407	35.67
877.579	-29.87
877.752	15.19
877.924	52.05
878.097	23.38
878.269	-54.44
878.442	19.29
878.614	39.76
878.786	84.82
878.959	70.48
879.131	-21.67
879.303	-70.83
879.476	15.19
879.648	45.91
879.82	2.9
879.993	-13.48
880.165	-38.06
880.337	-42.15
880.509	35.67
880.681	11.09
880.854	11.09
881.026	-42.15
881.198	56.15
881.37	11.09
881.542	-5.29
881.714	82.77
881.886	37.72
882.058	-5.29
882.23	45.91
882.402	-27.82
882.574	23.38
882.746	76.63
882.918	4.95
883.09	68.44
883.262	-33.96
883.434	11.09
883.606	-11.43
883.778	-38.06
883.95	84.82
884.122	7
884.293	27.48
884.465	62.29
884.637	-5.29
884.809	-25.77
884.98	4.95
885.152	-7.34
885.324	-5.29
885.496	-46.25
885.667	52.05
885.839	-60.59
886.011	62.29
886.182	27.48
886.354	-7.34
886.525	31.57
886.697	76.63
886.869	33.62
887.04	27.48
887.212	27.48
887.383	76.63
887.555	-3.24
887.726	-40.11
887.897	115.54
888.069	-1.19
888.24	19.29
888.412	7
888.583	52.05
888.754	52.05
888.926	52.05
889.097	11.09
889.268	-42.15
889.44	43.86
889.611	-70.83
889.782	-13.48
889.953	-31.91
890.125	68.44
890.296	9.05
890.467	15.19
890.638	35.67
890.809	43.86
890.98	-85.16
891.151	35.67
891.323	21.33
891.494	-3.24
891.665	-9.39
891.836	-5.29
892.007	21.33
892.178	60.24
892.349	11.09
892.52	-68.78
892.691	70.48
892.862	-13.48
893.032	-87.21
893.203	11.09
893.374	-50.35
893.545	4.95
893.716	-21.67
893.887	-21.67
894.057	-17.58
894.228	76.63
894.399	21.33
894.57	90.96
894.74	-5.29
894.911	-52.39
895.082	2.9
895.253	11.09
895.423	-44.2
895.594	-11.43
895.764	-9.39
895.935	2.9
896.106	15.19
896.276	27.48
896.447	-52.39
896.617	43.86
896.788	-29.87
896.958	17.24
897.129	-50.35
897.299	2.9
897.47	31.57
897.64	-17.58
897.81	7
897.981	2.9
898.151	-50.35
898.322	70.48
898.492	-5.29
898.662	-1.19
898.832	-13.48
899.003	23.38
899.173	60.24
899.343	-68.78
899.513	-109.74
