Data from USB4F104151__70__14-43-21-318.txt Node

Date: Thu Mar 13 14:43:21 EDT 2025
User: louis
Spectrometer: USB4F10415
Trigger mode: 4
Integration Time (sec): 2.000000E-2
Scans to average: 1
Electric dark correction enabled: true
Nonlinearity correction enabled: false
Boxcar width: 0
XAxis mode: Wavelengths
Number of Pixels in Spectrum: 3648
>>>>>Begin Spectral Data<<<<<
178.204	-102.23
178.424	-102.23
178.644	-102.23
178.864	-112.47
179.084	-114.52
179.304	18.6
179.524	-38.74
179.744	45.23
179.964	0.17
180.184	-44.88
180.404	-3.93
180.624	12.46
180.844	-3.93
181.064	34.99
181.283	-16.21
181.503	-12.12
181.723	8.36
181.943	8.36
182.163	-1.88
182.383	-44.88
182.602	0.17
182.822	24.75
183.042	57.51
183.262	-16.21
183.482	-8.02
183.701	-32.6
183.921	-24.4
184.141	-24.4
184.361	20.65
184.58	-46.93
184.8	26.79
185.02	-22.36
185.239	57.51
185.459	53.42
185.679	16.55
185.898	20.65
186.118	32.94
186.338	82.09
186.557	77.99
186.777	16.55
186.997	43.18
187.216	53.42
187.436	-3.93
187.655	0.17
187.875	34.99
188.095	12.46
188.314	82.09
188.534	28.84
188.753	86.19
188.973	6.31
189.192	30.89
189.412	127.14
189.631	57.51
189.851	-18.26
190.07	65.71
190.29	-5.97
190.509	63.66
190.729	24.75
190.948	37.03
191.168	100.52
191.387	59.56
191.607	-32.6
191.826	-5.97
192.045	73.9
192.265	-22.36
192.484	32.94
192.704	-14.17
192.923	8.36
193.142	116.9
193.362	69.8
193.581	32.94
193.8	26.79
194.02	94.38
194.239	24.75
194.458	57.51
194.678	82.09
194.897	2.22
195.116	34.99
195.335	49.32
195.555	24.75
195.774	41.13
195.993	69.8
196.212	-48.98
196.432	34.99
196.651	32.94
196.87	-30.55
197.089	16.55
197.308	104.62
197.528	37.03
197.747	-1.88
197.966	-22.36
198.185	96.43
198.404	-3.93
198.623	16.55
198.842	32.94
199.062	-5.97
199.281	110.76
199.5	6.31
199.719	49.32
199.938	8.36
200.157	47.27
200.376	10.41
200.595	92.33
200.814	2.22
201.033	-8.02
201.252	41.13
201.471	2.22
201.69	34.99
201.909	28.84
202.128	59.56
202.347	-32.6
202.566	6.31
202.785	4.27
203.004	-14.17
203.223	-16.21
203.442	-26.45
203.661	-32.6
203.879	8.36
204.098	51.37
204.317	41.13
204.536	55.47
204.755	82.09
204.974	90.28
205.193	-5.97
205.411	139.43
205.63	67.75
205.849	49.32
206.068	53.42
206.287	26.79
206.505	-8.02
206.724	28.84
206.943	2.22
207.162	41.13
207.381	45.23
207.599	26.79
207.818	37.03
208.037	43.18
208.255	16.55
208.474	-22.36
208.693	14.51
208.911	53.42
209.13	26.79
209.349	-14.17
209.567	90.28
209.786	53.42
210.005	4.27
210.223	-20.31
210.442	-26.45
210.661	-8.02
210.879	-8.02
211.098	22.7
211.316	73.9
211.535	45.23
211.753	18.6
211.972	30.89
212.191	34.99
212.409	18.6
212.628	4.27
212.846	0.17
213.065	43.18
213.283	28.84
213.502	65.71
213.72	24.75
213.938	53.42
214.157	43.18
214.375	65.71
214.594	-14.17
214.812	28.84
215.031	86.19
215.249	-28.5
215.467	59.56
215.686	2.22
215.904	24.75
216.122	-16.21
216.341	32.94
216.559	57.51
216.778	37.03
216.996	82.09
217.214	-104.28
217.432	-61.27
217.651	65.71
217.869	22.7
218.087	24.75
218.306	98.47
218.524	12.46
218.742	37.03
218.96	34.99
219.179	37.03
219.397	-24.4
219.615	20.65
219.833	49.32
220.051	-38.74
220.27	28.84
220.488	24.75
220.706	55.47
220.924	34.99
221.142	24.75
221.36	69.8
221.578	104.62
221.796	41.13
222.015	49.32
222.233	8.36
222.451	41.13
222.669	-16.21
222.887	57.51
223.105	10.41
223.323	0.17
223.541	-16.21
223.759	73.9
223.977	24.75
224.195	110.76
224.413	12.46
224.631	61.61
224.849	-24.4
225.067	106.67
225.285	-24.4
225.503	10.41
225.721	8.36
225.939	26.79
226.157	28.84
226.375	77.99
226.592	14.51
226.81	-8.02
227.028	-30.55
227.246	94.38
227.464	43.18
227.682	53.42
227.9	6.31
228.117	-12.12
228.335	10.41
228.553	41.13
228.771	82.09
228.989	61.61
229.206	-24.4
229.424	-3.93
229.642	10.41
229.86	-12.12
230.077	43.18
230.295	20.65
230.513	90.28
230.731	-42.84
230.948	43.18
231.166	26.79
231.384	49.32
231.601	8.36
231.819	16.55
232.037	16.55
232.254	-30.55
232.472	-8.02
232.689	-71.51
232.907	39.08
233.125	61.61
233.342	8.36
233.56	-5.97
233.777	-24.4
233.995	8.36
234.213	108.71
234.43	69.8
234.648	10.41
234.865	12.46
235.083	34.99
235.3	45.23
235.518	77.99
235.735	41.13
235.953	24.75
236.17	28.84
236.388	45.23
236.605	43.18
236.822	84.14
237.04	73.9
237.257	0.17
237.475	-18.26
237.692	24.75
237.909	41.13
238.127	-14.17
238.344	37.03
238.562	69.8
238.779	-14.17
238.996	16.55
239.214	34.99
239.431	82.09
239.648	16.55
239.865	71.85
240.083	65.71
240.3	-5.97
240.517	0.17
240.735	45.23
240.952	69.8
241.169	98.47
241.386	75.95
241.603	26.79
241.821	-30.55
242.038	-14.17
242.255	20.65
242.472	-8.02
242.689	18.6
242.907	6.31
243.124	47.27
243.341	28.84
243.558	-46.93
243.775	45.23
243.992	14.51
244.209	14.51
244.426	61.61
244.643	-14.17
244.86	94.38
245.078	12.46
245.295	34.99
245.512	-16.21
245.729	-5.97
245.946	37.03
246.163	63.66
246.38	8.36
246.597	57.51
246.814	4.27
247.031	18.6
247.248	49.32
247.464	77.99
247.681	10.41
247.898	84.14
248.115	24.75
248.332	-32.6
248.549	77.99
248.766	63.66
248.983	67.75
249.2	32.94
249.417	-16.21
249.633	41.13
249.85	98.47
250.067	32.94
250.284	8.36
250.501	34.99
250.717	77.99
250.934	-12.12
251.151	-40.79
251.368	49.32
251.585	32.94
251.801	73.9
252.018	0.17
252.235	16.55
252.451	86.19
252.668	4.27
252.885	49.32
253.102	55.47
253.318	41.13
253.535	63.66
253.752	24.75
253.968	-8.02
254.185	10.41
254.401	10.41
254.618	24.75
254.835	-30.55
255.051	57.51
255.268	92.33
255.484	49.32
255.701	16.55
255.917	-30.55
256.134	-40.79
256.351	32.94
256.567	10.41
256.784	67.75
257	-75.6
257.217	51.37
257.433	123.05
257.65	-12.12
257.866	90.28
258.082	0.17
258.299	28.84
258.515	49.32
258.732	20.65
258.948	69.8
259.165	131.24
259.381	57.51
259.597	53.42
259.814	-16.21
260.03	12.46
260.246	-38.74
260.463	118.95
260.679	18.6
260.895	61.61
261.112	114.86
261.328	2.22
261.544	-65.36
261.761	34.99
261.977	-12.12
262.193	-3.93
262.409	118.95
262.626	86.19
262.842	139.43
263.058	-59.22
263.274	32.94
263.49	-14.17
263.707	69.8
263.923	57.51
264.139	26.79
264.355	2.22
264.571	22.7
264.787	10.41
265.004	49.32
265.22	6.31
265.436	-28.5
265.652	-77.65
265.868	2.22
266.084	2.22
266.3	-14.17
266.516	20.65
266.732	82.09
266.948	0.17
267.164	16.55
267.38	-16.21
267.596	2.22
267.812	45.23
268.028	12.46
268.244	63.66
268.46	90.28
268.676	28.84
268.892	0.17
269.108	41.13
269.324	32.94
269.54	-16.21
269.756	65.71
269.972	16.55
270.188	-48.98
270.403	43.18
270.619	98.47
270.835	20.65
271.051	51.37
271.267	39.08
271.483	-16.21
271.698	59.56
271.914	18.6
272.13	8.36
272.346	-20.31
272.562	2.22
272.777	88.23
272.993	-24.4
273.209	-14.17
273.425	-12.12
273.64	-57.17
273.856	32.94
274.072	51.37
274.287	-14.17
274.503	73.9
274.719	69.8
274.934	-30.55
275.15	0.17
275.366	8.36
275.581	8.36
275.797	18.6
276.012	69.8
276.228	-12.12
276.444	57.51
276.659	67.75
276.875	-12.12
277.09	-57.17
277.306	-40.79
277.521	90.28
277.737	53.42
277.952	8.36
278.168	12.46
278.383	26.79
278.599	-40.79
278.814	57.51
279.03	61.61
279.245	82.09
279.461	28.84
279.676	73.9
279.892	-1.88
280.107	-24.4
280.322	67.75
280.538	34.99
280.753	4.27
280.969	2.22
281.184	51.37
281.399	16.55
281.615	57.51
281.83	90.28
282.045	-24.4
282.26	4.27
282.476	-48.98
282.691	-40.79
282.906	61.61
283.122	53.42
283.337	28.84
283.552	37.03
283.767	10.41
283.983	37.03
284.198	-5.97
284.413	2.22
284.628	-22.36
284.843	-18.26
285.058	94.38
285.274	18.6
285.489	10.41
285.704	94.38
285.919	51.37
286.134	39.08
286.349	34.99
286.564	10.41
286.779	59.56
286.995	26.79
287.21	-3.93
287.425	-14.17
287.64	37.03
287.855	24.75
288.07	8.36
288.285	-55.12
288.5	6.31
288.715	2.22
288.93	49.32
289.145	32.94
289.36	49.32
289.575	24.75
289.79	14.51
290.004	-77.65
290.219	59.56
290.434	2.22
290.649	-14.17
290.864	28.84
291.079	49.32
291.294	-3.93
291.509	18.6
291.724	108.71
291.938	-24.4
292.153	92.33
292.368	0.17
292.583	88.23
292.798	4.27
293.012	84.14
293.227	49.32
293.442	24.75
293.657	-8.02
293.871	24.75
294.086	26.79
294.301	8.36
294.516	84.14
294.73	-16.21
294.945	-46.93
295.16	-36.69
295.374	18.6
295.589	96.43
295.804	51.37
296.018	-44.88
296.233	90.28
296.447	-30.55
296.662	-20.31
296.877	41.13
297.091	55.47
297.306	73.9
297.52	-3.93
297.735	18.6
297.949	-14.17
298.164	59.56
298.378	73.9
298.593	-8.02
298.807	69.8
299.022	28.84
299.236	39.08
299.451	0.17
299.665	28.84
299.88	43.18
300.094	90.28
300.309	-1.88
300.523	28.84
300.737	57.51
300.952	53.42
301.166	-12.12
301.381	57.51
301.595	-30.55
301.809	69.8
302.024	-20.31
302.238	32.94
302.452	98.47
302.667	24.75
302.881	69.8
303.095	75.95
303.309	59.56
303.524	51.37
303.738	-14.17
303.952	-12.12
304.166	0.17
304.381	8.36
304.595	55.47
304.809	20.65
305.023	53.42
305.237	37.03
305.452	-24.4
305.666	43.18
305.88	147.62
306.094	2.22
306.308	106.67
306.522	-16.21
306.736	67.75
306.95	43.18
307.164	34.99
307.379	-12.12
307.593	-8.02
307.807	43.18
308.021	28.84
308.235	37.03
308.449	65.71
308.663	37.03
308.877	51.37
309.091	65.71
309.305	24.75
309.519	53.42
309.733	100.52
309.947	26.79
310.161	-14.17
310.374	-12.12
310.588	0.17
310.802	32.94
311.016	61.61
311.23	-26.45
311.444	28.84
311.658	28.84
311.872	37.03
312.085	65.71
312.299	16.55
312.513	16.55
312.727	4.27
312.941	24.75
313.154	2.22
313.368	8.36
313.582	59.56
313.796	84.14
314.009	-24.4
314.223	65.71
314.437	106.67
314.651	69.8
314.864	26.79
315.078	-24.4
315.292	43.18
315.505	16.55
315.719	82.09
315.933	-44.88
316.146	-24.4
316.36	-5.97
316.573	53.42
316.787	51.37
317.001	45.23
317.214	-44.88
317.428	73.9
317.641	49.32
317.855	114.86
318.068	16.55
318.282	41.13
318.495	121
318.709	71.85
318.922	75.95
319.136	102.57
319.349	75.95
319.563	26.79
319.776	-8.02
319.99	12.46
320.203	49.32
320.417	34.99
320.63	2.22
320.843	92.33
321.057	24.75
321.27	-18.26
321.483	100.52
321.697	59.56
321.91	49.32
322.124	41.13
322.337	73.9
322.55	8.36
322.763	30.89
322.977	53.42
323.19	30.89
323.403	-16.21
323.617	49.32
323.83	73.9
324.043	49.32
324.256	32.94
324.469	0.17
324.683	49.32
324.896	16.55
325.109	37.03
325.322	20.65
325.535	41.13
325.748	82.09
325.962	32.94
326.175	24.75
326.388	2.22
326.601	16.55
326.814	53.42
327.027	49.32
327.24	127.14
327.453	-48.98
327.666	12.46
327.879	34.99
328.092	45.23
328.305	24.75
328.518	16.55
328.731	32.94
328.944	65.71
329.157	16.55
329.37	-147.28
329.583	90.28
329.796	131.24
330.009	-44.88
330.222	75.95
330.435	32.94
330.648	45.23
330.861	24.75
331.073	18.6
331.286	49.32
331.499	24.75
331.712	6.31
331.925	10.41
332.138	28.84
332.35	75.95
332.563	-34.64
332.776	53.42
332.989	20.65
333.202	90.28
333.414	55.47
333.627	-22.36
333.84	32.94
334.053	-14.17
334.265	6.31
334.478	24.75
334.691	49.32
334.903	0.17
335.116	0.17
335.329	43.18
335.541	-10.07
335.754	92.33
335.966	108.71
336.179	10.41
336.392	14.51
336.604	-8.02
336.817	12.46
337.029	123.05
337.242	0.17
337.454	75.95
337.667	-28.5
337.88	57.51
338.092	94.38
338.305	8.36
338.517	41.13
338.729	102.57
338.942	24.75
339.154	-32.6
339.367	-3.93
339.579	-5.97
339.792	0.17
340.004	22.7
340.217	-12.12
340.429	10.41
340.641	-3.93
340.854	-57.17
341.066	37.03
341.278	34.99
341.491	82.09
341.703	75.95
341.915	24.75
342.128	80.04
342.34	34.99
342.552	-5.97
342.764	20.65
342.977	73.9
343.189	26.79
343.401	90.28
343.613	-24.4
343.826	32.94
344.038	-14.17
344.25	75.95
344.462	49.32
344.674	37.03
344.886	-57.17
345.099	30.89
345.311	47.27
345.523	16.55
345.735	71.85
345.947	24.75
346.159	53.42
346.371	108.71
346.583	0.17
346.795	59.56
347.007	6.31
347.219	20.65
347.431	39.08
347.643	73.9
347.855	-34.64
348.067	49.32
348.279	18.6
348.491	41.13
348.703	45.23
348.915	53.42
349.127	-22.36
349.339	24.75
349.551	18.6
349.763	-5.97
349.975	41.13
350.187	75.95
350.399	45.23
350.61	100.52
350.822	61.61
351.034	26.79
351.246	84.14
351.458	90.28
351.669	10.41
351.881	82.09
352.093	-16.21
352.305	82.09
352.517	65.71
352.728	86.19
352.94	73.9
353.152	65.71
353.363	-8.02
353.575	41.13
353.787	51.37
353.999	32.94
354.21	92.33
354.422	18.6
354.633	-14.17
354.845	-24.4
355.057	16.55
355.268	41.13
355.48	16.55
355.692	2.22
355.903	41.13
356.115	14.51
356.326	-12.12
356.538	28.84
356.749	73.9
356.961	133.29
357.172	57.51
357.384	82.09
357.595	22.7
357.807	94.38
358.018	18.6
358.23	53.42
358.441	49.32
358.653	28.84
358.864	2.22
359.075	67.75
359.287	45.23
359.498	77.99
359.709	2.22
359.921	65.71
360.132	77.99
360.344	110.76
360.555	82.09
360.766	82.09
360.977	71.85
361.189	98.47
361.4	0.17
361.611	37.03
361.823	67.75
362.034	90.28
362.245	-22.36
362.456	84.14
362.667	-1.88
362.879	45.23
363.09	41.13
363.301	51.37
363.512	88.23
363.723	57.51
363.935	-22.36
364.146	59.56
364.357	92.33
364.568	37.03
364.779	4.27
364.99	-5.97
365.201	2.22
365.412	37.03
365.623	16.55
365.834	43.18
366.045	45.23
366.256	18.6
366.467	49.32
366.678	32.94
366.889	59.56
367.1	34.99
367.311	61.61
367.522	77.99
367.733	43.18
367.944	123.05
368.155	34.99
368.366	71.85
368.577	67.75
368.788	139.43
368.999	-20.31
369.209	114.86
369.42	108.71
369.631	147.62
369.842	30.89
370.053	61.61
370.264	22.7
370.474	-48.98
370.685	86.19
370.896	69.8
371.107	65.71
371.317	84.14
371.528	-22.36
371.739	20.65
371.95	69.8
372.16	24.75
372.371	0.17
372.582	65.71
372.792	49.32
373.003	24.75
373.214	88.23
373.424	92.33
373.635	65.71
373.846	90.28
374.056	39.08
374.267	67.75
374.477	47.27
374.688	28.84
374.898	8.36
375.109	53.42
375.319	-10.07
375.53	114.86
375.74	-20.31
375.951	61.61
376.161	57.51
376.372	116.9
376.582	2.22
376.793	-24.4
377.003	0.17
377.214	-32.6
377.424	51.37
377.635	77.99
377.845	45.23
378.055	57.51
378.266	32.94
378.476	12.46
378.686	34.99
378.897	26.79
379.107	-30.55
379.317	28.84
379.528	10.41
379.738	102.57
379.948	-34.64
380.158	53.42
380.369	2.22
380.579	100.52
380.789	59.56
380.999	45.23
381.21	65.71
381.42	67.75
381.63	28.84
381.84	-24.4
382.05	24.75
382.261	18.6
382.471	37.03
382.681	-38.74
382.891	-22.36
383.101	96.43
383.311	43.18
383.521	61.61
383.731	65.71
383.941	-24.4
384.151	8.36
384.361	92.33
384.571	10.41
384.781	63.66
384.991	98.47
385.201	65.71
385.411	108.71
385.621	51.37
385.831	-32.6
386.041	114.86
386.251	69.8
386.461	34.99
386.671	73.9
386.881	30.89
387.091	45.23
387.301	67.75
387.511	24.75
387.72	-20.31
387.93	41.13
388.14	16.55
388.35	45.23
388.56	118.95
388.769	75.95
388.979	57.51
389.189	43.18
389.399	102.57
389.609	114.86
389.818	69.8
390.028	18.6
390.238	82.09
390.447	41.13
390.657	43.18
390.867	24.75
391.076	84.14
391.286	63.66
391.496	26.79
391.705	63.66
391.915	65.71
392.125	26.79
392.334	-32.6
392.544	94.38
392.753	80.04
392.963	49.32
393.172	53.42
393.382	32.94
393.591	67.75
393.801	84.14
394.01	143.53
394.22	26.79
394.429	49.32
394.639	43.18
394.848	155.82
395.058	0.17
395.267	114.86
395.477	57.51
395.686	0.17
395.895	112.81
396.105	164.01
396.314	67.75
396.524	108.71
396.733	114.86
396.942	37.03
397.152	112.81
397.361	82.09
397.57	63.66
397.78	75.95
397.989	30.89
398.198	133.29
398.407	108.71
398.617	108.71
398.826	90.28
399.035	26.79
399.244	135.34
399.453	94.38
399.663	53.42
399.872	168.1
400.081	45.23
400.29	106.67
400.499	57.51
400.708	90.28
400.917	51.37
401.127	104.62
401.336	18.6
401.545	129.19
401.754	90.28
401.963	98.47
402.172	82.09
402.381	90.28
402.59	8.36
402.799	118.95
403.008	166.06
403.217	127.14
403.426	135.34
403.635	26.79
403.844	92.33
404.053	155.82
404.262	129.19
404.471	75.95
404.68	133.29
404.888	73.9
405.097	65.71
405.306	112.81
405.515	96.43
405.724	166.06
405.933	147.62
406.142	90.28
406.35	100.52
406.559	155.82
406.768	147.62
406.977	135.34
407.185	164.01
407.394	131.24
407.603	155.82
407.812	198.82
408.02	174.25
408.229	213.16
408.438	170.15
408.646	157.86
408.855	219.3
409.064	174.25
409.272	282.79
409.481	264.36
409.69	190.63
409.898	256.17
410.107	268.45
410.315	250.02
410.524	264.36
410.733	270.5
410.941	217.26
411.15	254.12
411.358	247.97
411.567	266.41
411.775	286.89
411.984	278.69
412.192	319.65
412.401	313.51
412.609	411.81
412.818	450.72
413.026	377
413.234	387.24
413.443	426.15
413.651	387.24
413.86	383.14
414.068	450.72
414.276	471.2
414.485	524.45
414.693	491.68
414.901	520.35
415.11	503.97
415.318	544.93
415.526	624.8
415.734	589.99
415.943	540.83
416.151	639.14
416.359	499.88
416.567	639.14
416.776	778.4
416.984	714.91
417.192	721.06
417.4	704.67
417.608	778.4
417.817	778.4
418.025	813.21
418.233	862.37
418.441	788.64
418.649	872.61
418.857	876.7
419.065	929.95
419.273	1001.63
419.481	1032.35
419.689	1056.92
419.897	1065.11
420.105	1185.94
420.313	1239.19
420.521	1208.47
420.729	1237.14
420.937	1286.3
421.145	1253.53
421.353	1314.97
421.561	1542.29
421.769	1376.41
421.977	1585.3
422.185	1507.48
422.393	1585.3
422.601	1687.7
422.809	1640.59
423.017	1755.28
423.224	1755.28
423.432	1796.24
423.64	1863.82
423.848	1992.84
424.056	2011.28
424.263	1998.99
424.471	2019.47
424.679	2132.11
424.887	2171.02
425.094	2291.85
425.302	2404.49
425.51	2427.01
425.718	2510.98
425.925	2547.84
426.133	2711.68
426.341	2644.1
426.548	2891.9
426.756	2760.83
426.964	2838.66
427.171	3057.79
427.379	3164.28
427.586	3246.2
427.794	3432.57
428.001	3518.58
428.209	3614.84
428.417	3602.55
428.624	3942.51
428.832	3846.26
429.039	3842.16
429.247	3856.5
429.454	4202.6
429.662	4573.28
429.869	3999.85
430.076	4415.59
430.284	4370.54
430.491	4485.22
430.699	4714.59
430.906	4880.48
431.114	4728.93
431.321	5070.94
431.528	5136.48
431.736	5478.49
431.943	5746.77
432.15	5582.93
432.358	5685.33
432.565	6017.1
432.772	5689.43
432.979	6201.42
433.187	6260.81
433.394	6410.31
433.601	6867.01
433.808	6889.54
434.016	6758.47
434.223	7114.81
434.43	7315.52
434.637	7178.3
434.844	7702.58
435.052	7837.75
435.259	7901.23
435.466	7772.21
435.673	7729.2
435.88	8085.55
436.087	8833.06
436.294	8908.83
436.501	8511.53
436.708	8710.18
436.915	8783.91
437.122	9224.22
437.329	9314.33
437.537	9787.41
437.743	9838.61
437.95	9707.54
438.157	10389.52
438.364	10709
438.571	10489.87
438.778	10711.05
438.985	11745.27
439.192	11055.11
439.399	11427.84
439.606	11118.59
439.813	12019.7
440.02	12597.23
440.227	12212.21
440.433	12310.51
440.64	12838.89
440.847	12568.55
441.054	12877.8
441.261	13717.47
441.467	13527
441.674	14002.13
441.881	14354.38
442.088	14354.38
442.294	14266.32
442.501	14530.51
442.708	14827.46
442.914	15302.59
443.121	15998.9
443.328	15445.95
443.534	16859.05
443.741	16297.91
443.948	15785.91
444.154	17432.48
444.361	17340.32
444.568	17340.32
444.774	17080.23
444.981	17530.78
445.187	17971.1
445.394	18694.03
445.6	18358.16
445.807	19974.01
446.013	19431.3
446.22	19668.86
446.426	20449.14
446.633	20619.12
446.839	21415.78
447.046	20453.23
447.252	21708.64
447.459	21460.84
447.665	21636.96
447.871	22654.8
448.078	23521.09
448.284	22165.34
448.491	23238.47
448.697	24039.23
448.903	24280.89
449.11	24160.06
449.316	23834.43
449.522	24717.11
449.728	25087.79
449.935	25552.68
450.141	25292.58
450.347	25800.48
450.553	24977.2
450.76	25405.22
450.966	26070.81
451.172	26056.48
451.378	26603.28
451.584	26052.38
451.791	27053.84
451.997	27109.13
452.203	27229.96
452.409	27406.09
452.615	27389.7
452.821	26410.78
453.027	26009.37
453.233	27373.32
453.44	26441.5
453.646	26820.37
453.852	26763.03
454.058	27320.07
454.264	26040.09
454.47	27090.7
454.676	26640.15
454.882	27297.55
455.088	24905.52
455.294	25329.45
455.5	25640.74
455.705	26236.7
455.911	25001.77
456.117	24825.65
456.323	24180.54
456.529	23064.39
456.735	24151.87
456.941	23584.58
457.147	23408.45
457.352	22366.04
457.558	22249.3
457.764	22241.11
457.97	21825.37
458.176	21514.08
458.381	21426.02
458.587	20463.47
458.793	20313.97
458.999	19380.1
459.204	20733.81
459.41	19926.91
459.616	18796.43
459.821	19163.01
460.027	19056.52
460.233	18569.1
460.438	17645.47
460.644	17416.1
460.85	16793.51
461.055	16713.64
461.261	16639.92
461.466	15534.01
461.672	14870.47
461.878	16105.4
462.083	14866.38
462.289	14714.83
462.494	14323.66
462.7	13901.78
462.905	13588.44
463.111	14172.11
463.316	14024.66
463.522	13617.11
463.727	13678.55
463.932	13715.42
464.138	13602.78
464.343	13539.29
464.549	13248.48
464.754	13498.33
464.959	13598.68
465.165	13166.56
465.37	12845.03
465.575	12451.82
465.781	12914.66
465.986	13017.06
466.191	12613.61
466.397	12273.65
466.602	11702.26
466.807	12025.84
467.012	12009.46
467.218	12124.15
467.423	11978.74
467.628	12103.67
467.833	12406.77
468.038	11851.77
468.244	11911.16
468.449	12193.78
468.654	11909.11
468.859	11812.85
469.064	11870.2
469.269	11288.57
469.474	11347.97
469.679	11503.61
469.885	10928.13
470.09	11317.25
470.295	11440.12
470.5	10813.45
470.705	11147.26
470.91	10928.13
471.115	10649.61
471.32	10770.44
471.525	10854.41
471.73	10510.35
471.935	10479.63
472.139	10225.68
472.344	10186.77
472.549	10178.58
472.754	10326.03
472.959	9936.92
473.164	9629.72
473.369	9664.54
473.574	9889.81
473.778	9969.68
473.983	9861.14
474.188	9777.17
474.393	9365.53
474.598	9422.87
474.802	9154.59
475.007	9328.67
475.212	9134.11
475.417	8740.9
475.621	8984.61
475.826	8957.99
476.031	8740.9
476.235	8540.2
476.44	8609.83
476.645	8349.74
476.849	8683.56
477.054	8552.49
477.259	8366.12
477.463	8368.17
477.668	8118.32
477.872	8316.97
478.077	8003.63
478.282	7841.84
478.486	7938.1
478.691	7743.54
478.895	7725.11
479.1	7675.96
479.304	7811.12
479.509	7526.46
479.713	7606.33
479.918	7442.49
480.122	7249.98
480.326	7432.25
480.531	7530.55
480.735	7233.6
480.94	7237.69
481.144	7389.24
481.348	7153.73
481.553	6998.08
481.757	7104.57
481.961	7217.21
482.166	7315.52
482.37	7200.83
482.574	6889.54
482.778	7077.95
482.983	7227.45
483.187	7018.56
483.391	7065.66
483.595	7057.47
483.8	6950.98
484.004	6938.69
484.208	7106.62
484.412	6979.65
484.616	7045.18
484.821	6971.46
485.025	7032.9
485.229	7016.51
485.433	7014.46
485.637	7045.18
485.841	7061.57
486.045	7014.46
486.249	7073.85
486.453	7039.04
486.657	7073.85
486.861	7137.34
487.065	6840.39
487.269	7036.99
487.473	6774.85
487.677	7145.53
487.881	7161.92
488.085	6977.6
488.289	7071.81
488.493	7112.77
488.697	7168.06
488.901	7120.96
489.105	7266.36
489.309	6916.16
489.512	7139.39
489.716	7155.77
489.92	7127.1
490.124	7376.95
490.328	7462.97
490.531	7041.09
490.735	7217.21
490.939	7168.06
491.143	7143.49
491.346	7385.15
491.55	7471.16
491.754	7542.84
491.958	7358.52
492.161	7323.71
492.365	7315.52
492.569	7325.75
492.772	7366.71
492.976	7505.98
493.18	7389.24
493.383	7587.89
493.587	7526.46
493.79	7698.49
493.994	7610.42
494.197	7684.15
494.401	7915.57
494.605	7759.92
494.808	8038.45
495.012	8034.35
495.215	8138.8
495.419	8011.82
495.622	8144.94
495.825	8149.04
496.029	8167.47
496.232	8464.43
496.436	8251.44
496.639	8624.17
496.843	8433.71
497.046	8464.43
497.249	8906.79
497.453	8781.86
497.656	8837.16
497.859	9031.71
498.063	9084.96
498.266	9238.56
498.469	9056.29
498.673	9228.32
498.876	9627.67
499.079	9285.66
499.282	9429.02
499.485	9705.49
499.689	9715.73
499.892	9898
500.095	9811.99
500.298	10022.93
500.501	9707.54
500.705	10354.7
500.908	10455.05
501.111	10633.22
501.314	10969.09
501.517	10733.57
501.72	10649.61
501.923	10930.18
502.126	11126.78
502.329	11362.3
502.532	11526.14
502.735	11364.35
502.938	11624.44
503.141	11712.5
503.344	11892.73
503.547	11913.2
503.75	11968.5
503.953	12027.89
504.156	12322.8
504.359	12558.32
504.562	12580.84
504.765	12869.61
504.968	12953.57
505.17	12898.28
505.373	12922.85
505.576	13271.01
505.779	13518.81
505.982	13289.44
506.185	13649.88
506.387	13762.52
506.59	13875.16
506.793	14063.57
506.996	14288.85
507.198	14444.49
507.401	14770.12
507.604	14796.74
507.807	15132.61
508.009	14899.14
508.212	15513.53
508.415	15306.69
508.617	15550.4
508.82	15693.76
509.022	15544.25
509.225	15937.46
509.428	16048.05
509.63	16125.88
509.833	16031.67
510.035	16586.67
510.238	16750.51
510.44	17145.77
510.643	17424.29
510.845	17289.12
511.048	17176.48
511.25	17594.27
511.453	17530.78
511.655	18173.85
511.858	17768.35
512.06	18294.68
512.262	18362.26
512.465	18433.94
512.667	18651.02
512.87	18972.55
513.072	18851.72
513.274	19445.63
513.477	19328.9
513.679	19502.98
513.881	19984.25
514.084	20068.22
514.286	19955.58
514.488	20070.26
514.69	20828.01
514.893	20731.76
515.095	20658.03
515.297	20983.66
515.499	21192.55
515.701	21464.93
515.904	21765.98
516.106	21917.53
516.308	22105.95
516.51	22345.56
516.712	22458.2
516.914	22679.38
517.116	23357.25
517.318	23080.78
517.52	23125.83
517.722	23324.49
517.925	23586.63
518.127	23762.75
518.329	24106.81
518.531	23945.02
518.733	24547.12
518.935	24577.84
519.136	24909.61
519.338	25073.45
519.54	25091.88
519.742	25300.78
519.944	25585.44
520.146	26117.92
520.348	26160.92
520.55	26210.07
520.752	26046.24
520.954	26840.85
521.155	26765.07
521.357	27049.74
521.559	27115.28
521.761	27563.78
521.963	27545.35
522.164	27455.24
522.366	27569.93
522.568	28096.25
522.77	28190.46
522.971	28663.54
523.173	28229.37
523.375	29062.9
523.576	28653.3
523.778	28749.56
523.98	29251.31
524.181	29302.51
524.383	29433.58
524.584	29949.67
524.786	29806.31
524.988	29726.44
525.189	30465.75
525.391	30324.44
525.592	30445.27
525.794	30963.41
525.995	30658.26
526.197	30645.98
526.398	30344.92
526.6	31010.51
526.801	31264.46
527.003	31090.38
527.204	31452.87
527.406	31657.67
527.607	31540.94
527.808	31739.59
528.01	31258.32
528.211	31555.27
528.412	32208.58
528.614	31919.81
528.815	31971.01
529.016	32399.04
529.218	32255.68
529.419	32337.6
529.62	32200.38
529.822	32263.87
530.023	32577.21
530.224	32300.73
530.425	32425.66
530.626	32294.59
530.828	32130.75
531.029	33074.87
531.23	32681.66
531.431	32931.51
531.632	33085.11
531.833	32865.97
532.035	32896.69
532.236	32886.45
532.437	33363.63
532.638	33091.25
532.839	33332.91
533.04	33205.94
533.241	32794.29
533.442	33867.43
533.643	33246.9
533.844	33103.54
534.045	33459.88
534.246	33134.26
534.447	33607.34
534.648	33214.13
534.849	33345.2
535.05	33087.15
535.251	33138.35
535.451	33265.33
535.652	33347.25
535.853	33095.35
536.054	33410.73
536.255	33334.96
536.456	33003.19
536.657	33687.21
536.857	33103.54
537.058	33011.38
537.259	33480.36
537.46	33445.55
537.66	33265.33
537.861	33289.9
538.062	33435.31
538.263	33410.73
538.463	33140.4
538.664	33490.6
538.865	33300.14
539.065	33324.72
539.266	33281.71
539.466	33910.44
539.667	33013.43
539.868	33564.33
540.068	33197.74
540.269	33214.13
540.469	33803.94
540.67	33330.86
540.87	33410.73
541.071	33064.63
541.271	33613.48
541.472	33179.31
541.672	33154.74
541.873	32992.95
542.073	32880.31
542.274	33314.48
542.474	33345.2
542.675	33177.26
542.875	33496.75
543.075	32954.04
543.276	32581.31
543.476	33363.63
543.676	33367.73
543.877	33337.01
544.077	32997.04
544.277	33138.35
544.478	33095.35
544.678	33453.74
544.878	33089.2
545.078	33154.74
545.279	33072.82
545.479	33160.88
545.679	33427.12
545.879	33347.25
546.079	32982.71
546.28	32786.1
546.48	32872.12
546.68	33554.09
546.88	32837.3
547.08	33171.12
547.28	32829.11
547.48	32722.62
547.68	32849.59
547.88	32687.8
548.081	33484.46
548.281	32884.4
548.481	32761.53
548.681	33124.02
548.881	32861.88
549.081	32896.69
549.28	32663.22
549.48	33068.72
549.68	32786.1
549.88	33138.35
550.08	32562.87
550.28	32982.71
550.48	32825.01
550.68	32968.37
550.88	32681.66
551.08	32906.93
551.279	32820.92
551.479	32798.39
551.679	32837.3
551.879	32691.9
552.079	32853.69
552.278	32472.76
552.478	32726.71
552.678	32700.09
552.878	32687.8
553.077	32632.5
553.277	32673.46
553.477	33085.11
553.676	32364.22
553.876	32575.16
554.076	32456.38
554.275	32382.65
554.475	31942.34
554.674	32353.98
554.874	32493.24
555.074	32071.36
555.273	32403.13
555.473	32388.8
555.672	32442.04
555.872	31934.15
556.071	32132.8
556.271	32356.03
556.47	32192.19
556.67	32063.17
556.869	31993.54
557.068	32210.62
557.268	31981.25
557.467	32042.69
557.667	32337.6
557.866	31913.67
558.065	32173.76
558.265	31751.88
558.464	31534.79
558.663	31717.06
558.863	31307.47
559.062	32153.28
559.261	31530.7
559.461	32044.74
559.66	31151.82
559.859	31672.01
560.058	31493.83
560.258	31710.92
560.457	31176.4
560.656	31784.65
560.855	31383.24
561.054	31391.44
561.253	31243.98
561.453	31696.58
561.652	31538.89
561.851	31248.08
562.05	30826.2
562.249	30940.88
562.448	31264.46
562.647	30930.64
562.846	30873.3
563.045	31008.47
563.244	30471.9
563.443	31010.51
563.642	30504.67
563.841	30584.54
564.04	30432.99
564.239	30793.43
564.438	30232.29
564.637	30777.05
564.836	30844.63
565.035	30250.72
565.234	30490.33
565.432	29798.12
565.631	30138.08
565.83	30275.29
566.029	30199.52
566.228	29869.79
566.427	29701.86
566.625	29720.29
566.824	29640.42
567.023	29976.29
567.222	29499.11
567.42	29867.75
567.619	29736.68
567.818	29566.7
568.016	29691.62
568.215	29632.23
568.414	29574.89
568.612	29515.5
568.811	29126.38
569.01	29331.18
569.208	29136.62
569.407	29161.2
569.605	28892.91
569.804	28845.81
570.002	28712.69
570.201	28774.13
570.4	28772.08
570.598	28382.97
570.797	28333.82
570.995	28702.45
571.193	28219.13
571.392	28792.56
571.59	28174.08
571.789	28335.87
571.987	28477.18
572.186	28137.21
572.384	28096.25
572.582	28468.98
572.781	28016.38
572.979	27731.72
573.177	27827.97
573.376	27873.03
573.574	27772.67
573.772	27537.16
573.971	27733.76
574.169	27391.75
574.367	27287.31
574.565	27473.67
574.763	27088.65
574.962	27326.22
575.16	27395.85
575.358	27369.23
575.556	26605.33
575.754	27043.6
575.952	26742.55
576.151	26971.92
576.349	26685.2
576.547	26699.54
576.745	26519.32
576.943	26871.57
577.141	26621.72
577.339	26513.17
577.537	26371.86
577.735	26179.36
577.933	26083.1
578.131	26373.91
578.329	26140.44
578.527	25896.74
578.725	26072.86
578.923	26130.2
579.121	25812.77
579.319	26013.47
579.516	26017.57
579.714	25632.55
579.912	25745.19
580.11	25558.82
580.308	25630.5
580.506	25552.68
580.704	25153.32
580.901	25270.06
581.099	25650.98
581.297	25083.69
581.495	24991.53
581.692	24981.29
581.89	25087.79
582.088	25194.28
582.285	24971.05
582.483	25222.95
582.681	24917.81
582.878	25202.47
583.076	24520.5
583.274	24547.12
583.471	24274.74
583.669	24362.81
583.866	24264.5
584.064	24416.05
584.262	24207.16
584.459	24411.96
584.657	24403.77
584.854	23873.34
585.052	23566.15
585.249	23953.21
585.447	23697.22
585.644	23824.19
585.841	23627.59
586.039	24049.47
586.236	23605.06
586.434	23592.77
586.631	23387.97
586.828	23543.62
587.026	23555.91
587.223	23443.27
587.42	23377.73
587.618	23342.92
587.815	23019.34
588.012	22884.17
588.21	23011.15
588.407	22865.74
588.604	22892.37
588.801	22888.27
588.999	22591.31
589.196	22388.57
589.393	22456.15
589.59	22650.71
589.787	22429.52
589.984	22353.75
590.182	21921.63
590.379	21966.68
590.576	21985.12
590.773	22144.86
590.97	21886.81
591.167	22185.82
591.364	21946.2
591.561	22126.43
591.758	21940.06
591.955	21628.77
592.152	21794.65
592.349	21612.38
592.546	21538.66
592.743	21847.9
592.94	21266.28
593.137	21333.86
593.334	21219.17
593.531	20944.75
593.727	20961.13
593.924	21303.14
594.121	21118.82
594.318	21286.76
594.515	20795.25
594.712	20821.87
594.908	20868.97
595.105	20651.89
595.302	20668.27
595.499	20848.49
595.696	20817.77
595.892	20283.25
596.089	20330.36
596.286	20694.89
596.482	20356.98
596.679	20074.36
596.876	20326.26
597.072	20090.74
597.269	20381.56
597.466	19881.85
597.662	19765.12
597.859	20092.79
598.055	19892.09
598.252	19652.48
598.448	19650.43
598.645	19629.95
598.841	19588.99
599.038	19640.19
599.234	19943.29
599.431	19482.5
599.627	19220.36
599.824	19558.27
600.02	19376
600.217	19494.79
600.413	19173.25
600.609	19281.8
600.806	19244.93
601.002	19142.53
601.198	18841.48
601.395	18831.24
601.591	18704.27
601.787	18923.4
601.984	18767.76
602.18	18683.79
602.376	18696.08
602.572	18712.46
602.769	18630.54
602.965	18358.16
603.161	18319.25
603.357	18186.13
603.553	18407.31
603.75	18288.53
603.946	18124.69
604.142	18132.89
604.338	17962.9
604.534	18157.46
604.73	17860.51
604.926	17711
605.122	17887.13
605.318	17852.31
605.514	17639.33
605.71	17573.79
605.906	17756.06
606.102	17461.15
606.298	17493.92
606.494	17633.18
606.69	17487.78
606.886	17379.23
607.082	17440.67
607.278	17395.62
607.474	17172.39
607.67	17399.71
607.866	16832.43
608.062	17266.6
608.257	16922.54
608.453	17141.67
608.649	16936.87
608.845	16930.73
609.041	17147.81
609.236	17219.49
609.432	16961.45
609.628	16779.18
609.824	16732.08
610.019	16705.45
610.215	16879.53
610.411	16889.77
610.606	16588.72
610.802	16873.39
610.998	16578.48
611.193	16752.56
611.389	16418.74
611.584	16603.05
611.78	16539.57
611.976	16377.78
612.171	16113.59
612.367	16439.22
612.562	16486.32
612.758	16119.73
612.953	16080.82
613.149	16508.85
613.344	16207.8
613.539	16334.77
613.735	16324.53
613.93	16191.41
614.126	16074.68
614.321	16119.73
614.517	16068.53
614.712	16039.86
614.907	15890.36
615.103	16142.26
615.298	15853.5
615.493	15859.64
615.688	15783.87
615.884	15962.04
616.079	15767.48
616.274	16019.38
616.47	15441.86
616.665	15839.16
616.86	15478.72
617.055	15609.79
617.25	15304.64
617.445	15554.49
617.641	15196.1
617.836	15460.29
618.031	15421.38
618.226	15462.33
618.421	15288.26
618.616	15273.92
618.811	15085.51
619.006	15300.55
619.201	14976.97
619.396	14876.62
619.591	14657.48
619.786	15019.97
619.981	14628.81
620.176	14860.23
620.371	14598.09
620.566	14559.18
620.761	14507.98
620.956	14610.38
621.151	14297.04
621.346	14542.8
621.541	14417.87
621.735	14641.1
621.93	14292.94
622.125	14352.34
622.32	14082
622.515	13742.04
622.709	13998.04
622.904	14018.52
623.099	13891.54
623.294	13950.93
623.488	13518.81
623.683	13531.1
623.878	13404.13
624.072	13451.23
624.267	13387.74
624.462	13389.79
624.656	13082.6
624.851	13119.46
625.046	13017.06
625.24	13248.48
625.435	12832.74
625.629	13041.64
625.824	12857.32
626.018	12724.2
626.213	12593.13
626.407	12820.46
626.602	12554.22
626.796	12482.54
626.991	12466.16
627.185	12388.33
627.38	12290.03
627.574	12173.3
627.768	12369.9
627.963	12165.11
628.157	11919.35
628.352	12038.13
628.546	11751.42
628.74	11868.15
628.935	11929.59
629.129	11681.78
629.323	11636.73
629.517	11593.72
629.712	11560.95
629.906	11319.29
630.1	11143.17
630.294	11307.01
630.489	11180.03
630.683	11073.54
630.877	10911.75
631.071	11124.74
631.265	11075.59
631.459	11005.95
631.653	10985.48
631.848	10766.34
632.042	10717.19
632.236	10713.1
632.43	10555.4
632.624	10762.25
632.818	10371.08
633.012	10692.62
633.206	10354.7
633.4	10579.98
633.594	10227.73
633.788	10086.42
633.982	10381.32
634.176	10219.53
634.369	10201.1
634.563	10188.82
634.757	9953.3
634.951	10158.1
635.145	10248.21
635.339	9877.52
635.533	10010.64
635.726	9863.19
635.92	9797.65
636.114	9779.22
636.308	9768.98
636.501	9676.82
636.695	9566.23
636.889	9388.06
637.083	9355.29
637.276	9345.05
637.47	9336.86
637.664	9351.2
637.857	9170.97
638.051	9248.8
638.244	9261.09
638.438	8886.31
638.632	9072.67
638.825	9068.58
639.019	9031.71
639.212	9035.81
639.406	8896.55
639.599	8765.48
639.793	8929.31
639.986	8595.5
640.18	8814.63
640.373	8687.65
640.567	8630.31
640.76	8515.62
640.954	8341.55
641.147	8396.84
641.34	8402.99
641.534	8462.38
641.727	8290.35
641.92	8126.51
642.114	8298.54
642.307	8339.5
642.5	8179.76
642.694	8179.76
642.887	7946.29
643.08	7798.84
643.273	8022.06
643.467	8112.17
643.66	7835.7
643.853	7858.23
644.046	7815.22
644.239	7856.18
644.432	7618.61
644.626	7536.7
644.819	7624.76
645.012	7575.61
645.205	7331.9
645.398	7804.98
645.591	7415.87
645.784	7376.95
645.977	7358.52
646.17	7276.6
646.363	7184.45
646.556	7178.3
646.749	7172.16
646.942	7299.13
647.135	7022.66
647.328	7237.69
647.521	6981.7
647.714	7061.57
647.907	7082.05
648.099	7045.18
648.292	6971.46
648.485	6922.31
648.678	6840.39
648.871	6828.1
649.064	6877.25
649.256	6889.54
649.449	6791.24
649.642	6715.46
649.835	6537.29
650.027	6623.3
650.22	6590.53
650.413	6312.01
650.605	6547.53
650.798	6357.07
650.991	6299.72
651.183	6352.97
651.376	6242.38
651.568	6496.33
651.761	6201.42
651.954	6279.24
652.146	6248.52
652.339	6101.07
652.531	6094.93
652.724	6148.17
652.916	6033.49
653.109	6096.97
653.301	6041.68
653.494	5941.33
653.686	5996.62
653.879	5996.62
654.071	5861.46
654.263	5757.01
654.456	5898.32
654.648	5886.03
654.84	5611.61
655.033	5720.15
655.225	5812.31
655.417	5451.86
655.61	5800.02
655.802	5644.37
655.994	5515.35
656.186	5460.06
656.379	5492.82
656.571	5400.66
656.763	5357.66
656.955	5288.03
657.148	5455.96
657.34	5474.39
657.532	5398.62
657.724	5222.49
657.916	5398.62
658.108	5337.18
658.3	5111.9
658.492	5355.61
658.684	5210.2
658.876	5249.11
659.068	5128.28
659.26	5111.9
659.452	5163.1
659.644	5103.71
659.836	4964.45
660.028	4954.21
660.22	4923.49
660.412	4851.81
660.604	4812.9
660.796	4952.16
660.988	4796.51
661.18	4833.38
661.372	4780.13
661.563	4911.2
661.755	4763.75
661.947	4735.07
662.139	4755.55
662.331	4579.43
662.522	4776.03
662.714	4425.83
662.906	4587.62
663.097	4472.93
663.289	4542.57
663.481	4638.82
663.673	4616.29
663.864	4358.25
664.056	4495.46
664.247	4583.52
664.439	4286.57
664.631	4520.04
664.822	4538.47
665.014	4343.91
665.205	4395.11
665.397	4255.85
665.588	4403.3
665.78	4223.08
665.971	4253.8
666.163	4270.19
666.354	4147.31
666.546	4251.75
666.737	4087.92
666.929	4096.11
667.12	4225.13
667.311	3967.09
667.503	4057.2
667.694	4194.41
667.885	4096.11
668.077	4108.4
668.268	3981.42
668.459	4098.16
668.651	3821.68
668.842	3948.65
669.033	3846.26
669.224	3776.63
669.416	3932.27
669.607	3758.19
669.798	3721.33
669.989	3954.8
670.18	3780.72
670.371	3805.3
670.563	3694.71
670.754	3698.8
670.945	3770.48
671.136	3670.13
671.327	3688.56
671.518	3623.03
671.709	3727.47
671.9	3682.42
672.091	3735.67
672.282	3657.84
672.473	3584.12
672.664	3551.35
672.855	3575.92
673.046	3706.99
673.237	3565.68
673.428	3694.71
673.619	3475.57
673.809	3371.13
674	3547.25
674.191	3461.24
674.382	3389.56
674.573	3338.36
674.764	3416.18
674.954	3467.38
675.145	3350.65
675.336	3383.42
675.527	3418.23
675.717	3407.99
675.908	3407.99
676.099	3321.98
676.289	3186.81
676.48	3305.59
676.671	3254.39
676.861	3246.2
677.052	3182.71
677.243	3154.04
677.433	3195
677.624	3199.1
677.814	3229.82
678.005	3268.73
678.195	3176.57
678.386	3149.95
678.576	3121.28
678.767	3203.19
678.957	3192.95
679.148	3199.1
679.338	3170.43
679.529	3070.08
679.719	3154.04
679.909	3260.54
680.1	3094.65
680.29	3127.42
680.481	3186.81
680.671	2977.92
680.861	3104.89
681.052	3108.99
681.242	3143.8
681.432	3090.56
681.622	3172.47
681.813	2949.25
682.003	3154.04
682.193	2986.11
682.383	3098.75
682.573	3006.59
682.764	2891.9
682.954	3115.13
683.144	2941.05
683.334	3082.36
683.524	2893.95
683.714	3031.16
683.904	2969.73
684.094	2902.14
684.284	2871.42
684.474	2949.25
684.664	2949.25
684.854	3002.49
685.044	2840.7
685.234	2805.89
685.424	2838.66
685.614	2728.07
685.804	2775.17
685.994	2834.56
686.184	2902.14
686.374	2834.56
686.564	2807.94
686.753	2799.74
686.943	2744.45
687.133	2818.18
687.323	2713.73
687.513	2719.87
687.702	2793.6
687.892	2744.45
688.082	2588.8
688.272	2818.18
688.461	2781.31
688.651	2676.87
688.841	2742.4
689.03	2506.88
689.22	2674.82
689.41	2609.28
689.599	2590.85
689.789	2592.9
689.979	2625.67
690.168	2656.39
690.358	2539.65
690.547	2611.33
690.737	2582.66
690.926	2570.37
691.116	2515.08
691.305	2449.54
691.495	2482.31
691.684	2414.73
691.874	2410.63
692.063	2443.4
692.252	2597
692.442	2537.6
692.631	2402.44
692.82	2345.09
693.01	2322.57
693.199	2357.38
693.388	2328.71
693.578	2441.35
693.767	2414.73
693.956	2257.03
694.146	2410.63
694.335	2334.86
694.524	2351.24
694.713	2396.29
694.902	2369.67
695.092	2334.86
695.281	2320.52
695.47	2322.57
695.659	2230.41
695.848	2203.79
696.037	2289.8
696.226	2211.98
696.415	2324.62
696.604	2318.47
696.793	2269.32
696.982	2252.94
697.171	2252.94
697.36	2224.26
697.549	2185.35
697.738	2199.69
697.927	2254.98
698.116	2197.64
698.305	2181.26
698.494	2162.83
698.683	2138.25
698.872	2244.74
699.061	2080.91
699.25	2072.72
699.438	2250.89
699.627	2162.83
699.816	2273.42
700.005	2048.14
700.193	2181.26
700.382	2252.94
700.571	2166.92
700.76	2263.18
700.948	2136.2
701.137	2236.55
701.326	2160.78
701.514	2111.63
701.703	2236.55
701.892	2160.78
702.08	2224.26
702.269	2146.44
702.457	2029.71
702.646	2244.74
702.834	2132.11
703.023	2132.11
703.212	1962.12
703.4	2166.92
703.589	2105.48
703.777	2146.44
703.965	2007.18
704.154	2048.14
704.342	2072.72
704.531	2076.81
704.719	2056.33
704.907	2197.64
705.096	2009.23
705.284	1998.99
705.472	2156.68
705.661	1984.65
705.849	2037.9
706.037	2089.1
706.226	2009.23
706.414	2058.38
706.602	2031.76
706.79	2023.56
706.979	2164.87
707.167	2064.52
707.355	1953.93
707.543	2064.52
707.731	1974.41
707.919	2039.95
708.107	1996.94
708.296	2072.72
708.484	2089.1
708.672	2078.86
708.86	2023.56
709.048	2078.86
709.236	1984.65
709.424	2015.37
709.612	1970.32
709.8	2068.62
709.988	2089.1
710.176	2050.19
710.364	2078.86
710.551	1982.6
710.739	1992.84
710.927	2009.23
711.115	2033.8
711.303	2042
711.491	1966.22
711.679	1984.65
711.866	2044.04
712.054	1992.84
712.242	2072.72
712.43	2039.95
712.617	2048.14
712.805	2062.48
712.993	2031.76
713.181	1949.84
713.368	2037.9
713.556	1978.51
713.744	1974.41
713.931	2162.83
714.119	1998.99
714.306	2025.61
714.494	1972.36
714.682	1974.41
714.869	2033.8
715.057	2080.91
715.244	1894.54
715.432	2093.19
715.619	1984.65
715.807	1976.46
715.994	1929.36
716.182	1972.36
716.369	1982.6
716.556	1882.25
716.744	1976.46
716.931	1986.7
717.119	2019.47
717.306	2072.72
717.493	2058.38
717.681	2105.48
717.868	2080.91
718.055	2107.53
718.242	2074.76
718.43	2003.08
718.617	2072.72
718.804	2015.37
718.991	2052.24
719.179	2017.42
719.366	2007.18
719.553	2089.1
719.74	1941.65
719.927	1990.8
720.114	2093.19
720.301	1958.03
720.488	1992.84
720.676	1904.78
720.863	1966.22
721.05	2085
721.237	2001.04
721.424	2031.76
721.611	1908.88
721.798	2025.61
721.985	1982.6
722.172	1976.46
722.358	1919.12
722.545	1978.51
722.732	1902.73
722.919	2011.28
723.106	2027.66
723.293	1933.45
723.48	1982.6
723.667	1900.69
723.853	2007.18
724.04	2080.91
724.227	2072.72
724.414	2066.57
724.6	2039.95
724.787	2064.52
724.974	2064.52
725.161	1898.64
725.347	1986.7
725.534	1984.65
725.72	2054.28
725.907	2015.37
726.094	2023.56
726.28	2009.23
726.467	1908.88
726.653	2015.37
726.84	1949.84
727.027	1974.41
727.213	1941.65
727.4	2093.19
727.586	1978.51
727.773	1945.74
727.959	2007.18
728.145	2005.13
728.332	1972.36
728.518	1958.03
728.705	2033.8
728.891	1894.54
729.077	1892.49
729.264	1943.69
729.45	1974.41
729.636	2017.42
729.823	1978.51
730.009	2025.61
730.195	1917.07
730.382	2025.61
730.568	1949.84
730.754	2017.42
730.94	2066.57
731.126	1984.65
731.313	2091.15
731.499	1908.88
731.685	2017.42
731.871	2025.61
732.057	1978.51
732.243	2007.18
732.429	2017.42
732.615	2033.8
732.801	2011.28
732.987	2052.24
733.173	2097.29
733.359	1851.53
733.545	1898.64
733.731	1943.69
733.917	1964.17
734.103	2064.52
734.289	1933.45
734.475	1919.12
734.661	2097.29
734.847	1986.7
735.033	1968.27
735.219	1986.7
735.404	2033.8
735.59	1966.22
735.776	1925.26
735.962	2039.95
736.148	1917.07
736.333	1906.83
736.519	1964.17
736.705	2054.28
736.89	1992.84
737.076	1939.6
737.262	1908.88
737.447	1822.86
737.633	1824.91
737.819	1943.69
738.004	1949.84
738.19	1949.84
738.375	1851.53
738.561	1962.12
738.747	1892.49
738.932	1886.35
739.118	1927.31
739.303	1933.45
739.489	1908.88
739.674	1851.53
739.859	1859.73
740.045	1886.35
740.23	1853.58
740.416	1765.52
740.601	1910.93
740.786	1757.33
740.972	1894.54
741.157	1831.05
741.342	1761.42
741.528	1863.82
741.713	1779.86
741.898	1708.18
742.084	1851.53
742.269	1786
742.454	1769.62
742.639	1775.76
742.824	1695.89
743.01	1736.85
743.195	1794.19
743.38	1792.14
743.565	1730.7
743.75	1798.29
743.935	1835.15
744.12	1876.11
744.305	1763.47
744.49	1788.05
744.675	1689.74
744.86	1810.58
745.045	1697.94
745.23	1675.41
745.415	1681.55
745.6	1607.83
745.785	1558.67
745.97	1712.27
746.155	1573.01
746.34	1681.55
746.525	1695.89
746.71	1607.83
746.895	1769.62
747.079	1630.35
747.264	1638.55
747.449	1714.32
747.634	1640.59
747.819	1632.4
748.003	1536.15
748.188	1630.35
748.373	1599.63
748.557	1611.92
748.742	1601.68
748.927	1532.05
749.111	1458.32
749.296	1458.32
749.481	1466.52
749.665	1509.52
749.85	1517.72
750.034	1441.94
750.219	1515.67
750.404	1443.99
750.588	1476.76
750.773	1462.42
750.957	1499.28
751.141	1443.99
751.326	1427.6
751.51	1443.99
751.695	1470.61
751.879	1409.17
752.064	1441.94
752.248	1372.31
752.432	1355.93
752.617	1394.84
752.801	1314.97
752.985	1353.88
753.17	1349.78
753.354	1392.79
753.538	1368.21
753.722	1331.35
753.907	1261.72
754.091	1284.25
754.275	1319.06
754.459	1294.49
754.643	1159.32
754.828	1366.17
755.012	1165.46
755.196	1265.82
755.38	1296.53
755.564	1282.2
755.748	1245.34
755.932	1210.52
756.116	1245.34
756.3	1228.95
756.484	1218.71
756.668	1163.42
756.852	1192.09
757.036	1142.94
757.22	1187.99
757.404	1175.7
757.588	1099.93
757.772	1173.66
757.956	1155.23
758.14	1126.55
758.323	1112.22
758.507	1144.99
758.691	1081.5
758.875	1142.94
759.059	1142.94
759.242	977.05
759.426	1114.27
759.61	1040.54
759.794	1118.36
759.977	1112.22
760.161	1018.01
760.345	1089.69
760.528	1118.36
760.712	999.58
760.895	1030.3
761.079	954.52
761.263	983.2
761.446	985.24
761.63	1024.16
761.813	948.38
761.997	1044.63
762.18	1040.54
762.364	1106.07
762.547	884.89
762.731	975
762.914	979.1
763.098	985.24
763.281	938.14
763.464	946.33
763.648	909.47
763.831	876.7
764.015	884.89
764.198	1015.96
764.381	854.17
764.564	979.1
764.748	936.09
764.931	913.56
765.114	925.85
765.297	927.9
765.481	868.51
765.664	901.28
765.847	802.97
766.03	872.61
766.213	843.93
766.397	874.65
766.58	794.78
766.763	884.89
766.946	905.37
767.129	901.28
767.312	798.88
767.495	809.12
767.678	807.07
767.861	868.51
768.044	899.23
768.227	848.03
768.41	815.26
768.593	835.74
768.776	831.65
768.959	839.84
769.142	923.8
769.324	784.54
769.507	831.65
769.69	845.98
769.873	843.93
770.056	798.88
770.239	862.37
770.421	860.32
770.604	796.83
770.787	843.93
770.97	802.97
771.152	850.08
771.335	827.55
771.518	864.41
771.7	868.51
771.883	827.55
772.066	786.59
772.248	770.21
772.431	823.45
772.613	827.55
772.796	721.06
772.978	700.58
773.161	794.78
773.343	772.25
773.526	702.62
773.708	663.71
773.891	745.63
774.073	735.39
774.256	651.42
774.438	786.59
774.621	667.81
774.803	655.52
774.985	704.67
775.168	706.72
775.35	647.33
775.532	721.06
775.715	649.38
775.897	708.77
776.079	594.08
776.261	655.52
776.444	647.33
776.626	706.72
776.808	684.19
776.99	676
777.173	606.37
777.355	680.1
777.537	575.65
777.719	606.37
777.901	553.12
778.083	667.81
778.265	688.29
778.447	692.38
778.629	551.07
778.811	559.27
778.993	555.17
779.175	602.27
779.357	639.14
779.539	598.18
779.721	618.66
779.903	579.75
780.085	559.27
780.267	616.61
780.449	471.2
780.631	598.18
780.812	573.6
780.994	477.35
781.176	467.11
781.358	546.98
781.54	458.92
781.721	565.41
781.903	551.07
782.085	589.99
782.267	585.89
782.448	524.45
782.63	471.2
782.812	503.97
782.993	567.46
783.175	508.07
783.357	456.87
783.538	473.25
783.72	469.16
783.901	434.34
784.083	518.31
784.264	551.07
784.446	401.57
784.627	434.34
784.809	469.16
784.99	417.96
785.172	485.54
785.353	499.88
785.535	501.92
785.716	428.2
785.897	442.53
786.079	409.76
786.26	428.2
786.441	426.15
786.623	356.52
786.804	389.28
786.985	411.81
787.167	463.01
787.348	368.81
787.529	413.86
787.71	467.11
787.891	305.32
788.073	399.52
788.254	364.71
788.435	309.41
788.616	346.28
788.797	333.99
788.978	352.42
789.159	301.22
789.34	395.43
789.522	344.23
789.703	352.42
789.884	379.04
790.065	319.65
790.246	377
790.427	405.67
790.607	278.69
790.788	344.23
790.969	290.98
791.15	338.09
791.331	293.03
791.512	256.17
791.693	368.81
791.874	313.51
792.054	297.13
792.235	360.61
792.416	229.54
792.597	204.97
792.778	387.24
792.958	245.93
793.139	370.85
793.32	182.44
793.5	295.08
793.681	344.23
793.862	282.79
794.042	313.51
794.223	260.26
794.404	321.7
794.584	311.46
794.765	282.79
794.945	274.6
795.126	325.8
795.306	327.85
795.487	235.69
795.667	217.26
795.848	346.28
796.028	204.97
796.209	184.49
796.389	278.69
796.57	274.6
796.75	180.39
796.93	254.12
797.111	266.41
797.291	272.55
797.471	213.16
797.652	166.06
797.832	188.58
798.012	272.55
798.192	231.59
798.373	190.63
798.553	209.06
798.733	256.17
798.913	266.41
799.093	194.73
799.274	317.61
799.454	237.74
799.634	266.41
799.814	207.02
799.994	213.16
800.174	252.07
800.354	217.26
800.534	233.64
800.714	254.12
800.894	241.83
801.074	200.87
801.254	262.31
801.434	198.82
801.614	223.4
801.794	157.86
801.974	860.32
802.154	225.45
802.334	266.41
802.514	137.38
802.693	254.12
802.873	229.54
803.053	241.83
803.233	254.12
803.413	213.16
803.592	215.21
803.772	215.21
803.952	164.01
804.131	207.02
804.311	256.17
804.491	254.12
804.67	196.78
804.85	192.68
805.03	217.26
805.209	207.02
805.389	192.68
805.568	180.39
805.748	168.1
805.928	215.21
806.107	151.72
806.287	241.83
806.466	207.02
806.646	182.44
806.825	266.41
807.004	200.87
807.184	225.45
807.363	219.3
807.543	174.25
807.722	141.48
807.901	247.97
808.081	116.9
808.26	86.19
808.439	114.86
808.619	194.73
808.798	172.2
808.977	217.26
809.156	262.31
809.336	184.49
809.515	123.05
809.694	174.25
809.873	104.62
810.052	145.58
810.231	213.16
810.411	159.91
810.59	221.35
810.769	164.01
810.948	75.95
811.127	121
811.306	112.81
811.485	96.43
811.664	243.88
811.843	149.67
812.022	135.34
812.201	73.9
812.38	151.72
812.559	65.71
812.737	237.74
812.916	108.71
813.095	118.95
813.274	164.01
813.453	86.19
813.632	135.34
813.811	190.63
813.989	98.47
814.168	127.14
814.347	123.05
814.526	129.19
814.704	149.67
814.883	118.95
815.062	190.63
815.24	188.58
815.419	137.38
815.598	168.1
815.776	133.29
815.955	204.97
816.133	143.53
816.312	51.37
816.49	82.09
816.669	112.81
816.847	141.48
817.026	116.9
817.204	172.2
817.383	82.09
817.561	94.38
817.74	151.72
817.918	221.35
818.097	84.14
818.275	0.17
818.453	143.53
818.632	73.9
818.81	108.71
818.988	188.58
819.167	157.86
819.345	114.86
819.523	43.18
819.701	41.13
819.879	139.43
820.058	155.82
820.236	82.09
820.414	100.52
820.592	133.29
820.77	155.82
820.948	65.71
821.127	53.42
821.305	127.14
821.483	55.47
821.661	161.96
821.839	98.47
822.017	94.38
822.195	125.1
822.373	67.75
822.551	125.1
822.729	82.09
822.907	53.42
823.085	159.91
823.262	57.51
823.44	110.76
823.618	129.19
823.796	116.9
823.974	51.37
824.152	110.76
824.329	73.9
824.507	92.33
824.685	131.24
824.863	73.9
825.04	75.95
825.218	118.95
825.396	77.99
825.574	188.58
825.751	51.37
825.929	92.33
826.107	57.51
826.284	149.67
826.462	125.1
826.639	57.51
826.817	43.18
826.994	-8.02
827.172	30.89
827.349	125.1
827.527	55.47
827.704	123.05
827.882	129.19
828.059	59.56
828.237	114.86
828.414	106.67
828.591	84.14
828.769	34.99
828.946	84.14
829.124	86.19
829.301	49.32
829.478	98.47
829.655	100.52
829.833	41.13
830.01	92.33
830.187	75.95
830.364	90.28
830.542	141.48
830.719	73.9
830.896	55.47
831.073	96.43
831.25	73.9
831.427	32.94
831.604	77.99
831.782	18.6
831.959	61.61
832.136	75.95
832.313	155.82
832.49	41.13
832.667	155.82
832.844	39.08
833.021	114.86
833.198	10.41
833.374	86.19
833.551	-16.21
833.728	110.76
833.905	57.51
834.082	49.32
834.259	102.57
834.436	84.14
834.612	12.46
834.789	123.05
834.966	90.28
835.143	155.82
835.319	59.56
835.496	51.37
835.673	45.23
835.85	82.09
836.026	51.37
836.203	-16.21
836.38	0.17
836.556	75.95
836.733	51.37
836.909	26.79
837.086	75.95
837.262	34.99
837.439	53.42
837.616	73.9
837.792	12.46
837.968	80.04
838.145	43.18
838.321	49.32
838.498	75.95
838.674	98.47
838.851	151.72
839.027	2.22
839.203	106.67
839.38	114.86
839.556	92.33
839.732	84.14
839.909	55.47
840.085	59.56
840.261	-5.97
840.437	41.13
840.614	67.75
840.79	75.95
840.966	45.23
841.142	100.52
841.318	24.75
841.494	57.51
841.671	98.47
841.847	63.66
842.023	63.66
842.199	24.75
842.375	51.37
842.551	51.37
842.727	16.55
842.903	-32.6
843.079	10.41
843.255	125.1
843.431	67.75
843.607	118.95
843.783	-3.93
843.959	8.36
844.134	51.37
844.31	114.86
844.486	-22.36
844.662	37.03
844.838	18.6
845.013	82.09
845.189	73.9
845.365	49.32
845.541	39.08
845.716	90.28
845.892	82.09
846.068	-22.36
846.244	0.17
846.419	61.61
846.595	67.75
846.77	8.36
846.946	-14.17
847.122	63.66
847.297	41.13
847.473	18.6
847.648	-61.27
847.824	12.46
847.999	43.18
848.175	41.13
848.35	-20.31
848.526	116.9
848.701	92.33
848.876	75.95
849.052	75.95
849.227	41.13
849.403	4.27
849.578	94.38
849.753	45.23
849.929	102.57
850.104	57.51
850.279	-12.12
850.454	86.19
850.63	65.71
850.805	43.18
850.98	123.05
851.155	39.08
851.33	88.23
851.505	-12.12
851.681	65.71
851.856	8.36
852.031	84.14
852.206	73.9
852.381	22.7
852.556	10.41
852.731	82.09
852.906	75.95
853.081	49.32
853.256	37.03
853.431	-3.93
853.606	49.32
853.781	10.41
853.956	0.17
854.131	26.79
854.305	-16.21
854.48	24.75
854.655	24.75
854.83	-16.21
855.005	34.99
855.18	69.8
855.354	59.56
855.529	10.41
855.704	16.55
855.879	65.71
856.053	-5.97
856.228	86.19
856.403	2.22
856.577	49.32
856.752	20.65
856.926	20.65
857.101	65.71
857.276	-26.45
857.45	73.9
857.625	100.52
857.799	57.51
857.974	-16.21
858.148	-30.55
858.323	45.23
858.497	2.22
858.672	77.99
858.846	43.18
859.02	41.13
859.195	-5.97
859.369	45.23
859.543	-5.97
859.718	75.95
859.892	22.7
860.066	-12.12
860.241	24.75
860.415	24.75
860.589	-46.93
860.763	14.51
860.938	8.36
861.112	75.95
861.286	12.46
861.46	16.55
861.634	-8.02
861.808	106.67
861.982	28.84
862.157	-1.88
862.331	61.61
862.505	-16.21
862.679	-1.88
862.853	28.84
863.027	-26.45
863.201	32.94
863.375	16.55
863.549	77.99
863.722	39.08
863.896	32.94
864.07	4.27
864.244	65.71
864.418	-20.31
864.592	2.22
864.766	-22.36
864.939	16.55
865.113	90.28
865.287	20.65
865.461	0.17
865.634	16.55
865.808	-16.21
865.982	12.46
866.156	18.6
866.329	92.33
866.503	43.18
866.676	12.46
866.85	28.84
867.024	-5.97
867.197	55.47
867.371	39.08
867.544	-14.17
867.718	-24.4
867.891	75.95
868.065	26.79
868.238	51.37
868.412	-28.5
868.585	41.13
868.759	-28.5
868.932	57.51
869.105	45.23
869.279	71.85
869.452	34.99
869.625	22.7
869.799	-26.45
869.972	-22.36
870.145	37.03
870.319	34.99
870.492	20.65
870.665	-57.17
870.838	43.18
871.011	-94.04
871.185	24.75
871.358	-53.08
871.531	39.08
871.704	14.51
871.877	49.32
872.05	-44.88
872.223	18.6
872.396	-1.88
872.569	43.18
872.742	-14.17
872.915	16.55
873.088	8.36
873.261	-32.6
873.434	22.7
873.607	39.08
873.78	-32.6
873.953	-32.6
874.126	41.13
874.299	-5.97
874.471	8.36
874.644	-34.64
874.817	20.65
874.99	108.71
875.163	8.36
875.335	37.03
875.508	12.46
875.681	30.89
875.853	75.95
876.026	102.57
876.199	114.86
876.371	0.17
876.544	-24.4
876.717	-32.6
876.889	45.23
877.062	-20.31
877.234	-48.98
877.407	-20.31
877.579	57.51
877.752	43.18
877.924	75.95
878.097	-10.07
878.269	37.03
878.442	-57.17
878.614	57.51
878.786	-32.6
878.959	2.22
879.131	43.18
879.303	-24.4
879.476	59.56
879.648	2.22
879.82	4.27
879.993	51.37
880.165	32.94
880.337	-53.08
880.509	-22.36
880.681	-1.88
880.854	49.32
881.026	90.28
881.198	57.51
881.37	-44.88
881.542	22.7
881.714	18.6
881.886	133.29
882.058	-57.17
882.23	26.79
882.402	0.17
882.574	37.03
882.746	-8.02
882.918	96.43
883.09	49.32
883.262	30.89
883.434	-12.12
883.606	26.79
883.778	-57.17
883.95	26.79
884.122	59.56
884.293	67.75
884.465	2.22
884.637	41.13
884.809	0.17
884.98	8.36
885.152	51.37
885.324	61.61
885.496	-32.6
885.667	-8.02
885.839	-48.98
886.011	22.7
886.182	51.37
886.354	61.61
886.525	8.36
886.697	49.32
886.869	-18.26
887.04	100.52
887.212	-5.97
887.383	-8.02
887.555	28.84
887.726	-24.4
887.897	49.32
888.069	-5.97
888.24	-14.17
888.412	14.51
888.583	45.23
888.754	-12.12
888.926	-22.36
889.097	61.61
889.268	41.13
889.44	-30.55
889.611	53.42
889.782	-8.02
889.953	-28.5
890.125	14.51
890.296	0.17
890.467	61.61
890.638	37.03
890.809	-16.21
890.98	14.51
891.151	-53.08
891.323	49.32
891.494	-26.45
891.665	2.22
891.836	0.17
892.007	10.41
892.178	16.55
892.349	0.17
892.52	2.22
892.691	-22.36
892.862	8.36
893.032	-24.4
893.203	-12.12
893.374	-38.74
893.545	8.36
893.716	24.75
893.887	10.41
894.057	-34.64
894.228	4.27
894.399	-57.17
894.57	4.27
894.74	24.75
894.911	-28.5
895.082	-12.12
895.253	-5.97
895.423	2.22
895.594	24.75
895.764	34.99
895.935	-16.21
896.106	32.94
896.276	12.46
896.447	49.32
896.617	41.13
896.788	-120.66
896.958	2.22
897.129	-8.02
897.299	4.27
897.47	18.6
897.64	8.36
897.81	49.32
897.981	-8.02
898.151	-32.6
898.322	43.18
898.492	57.51
898.662	22.7
898.832	-40.79
899.003	53.42
899.173	-5.97
899.343	0.17
899.513	45.23
