Data from USB4F104151__238__14-45-44-884.txt Node

Date: Thu Mar 13 14:45:44 EDT 2025
User: louis
Spectrometer: USB4F10415
Trigger mode: 4
Integration Time (sec): 2.000000E-2
Scans to average: 1
Electric dark correction enabled: true
Nonlinearity correction enabled: false
Boxcar width: 0
XAxis mode: Wavelengths
Number of Pixels in Spectrum: 3648
>>>>>Begin Spectral Data<<<<<
178.204	-62.12
178.424	-62.12
178.644	-62.12
178.864	-68.27
179.084	-121.51
179.304	-72.36
179.524	-76.46
179.744	5.46
179.964	34.13
180.184	1.37
180.404	11.61
180.624	27.99
180.844	9.56
181.064	-55.98
181.283	71
181.503	1.37
181.723	42.32
181.943	-47.79
182.163	17.75
182.383	-2.73
182.602	-6.83
182.822	-23.21
183.042	40.28
183.262	34.13
183.482	44.37
183.701	75.09
183.921	54.61
184.141	42.32
184.361	71
184.58	62.8
184.8	44.37
185.02	34.13
185.239	21.84
185.459	75.09
185.679	75.09
185.898	-15.02
186.118	91.48
186.338	1.37
186.557	42.32
186.777	11.61
186.997	11.61
187.216	11.61
187.436	77.14
187.655	34.13
187.875	21.84
188.095	103.76
188.314	171.35
188.534	50.52
188.753	50.52
188.973	91.48
189.192	128.34
189.412	111.96
189.631	-2.73
189.851	83.28
190.07	136.53
190.29	-58.03
190.509	42.32
190.729	-8.87
190.948	17.75
191.168	109.91
191.387	46.42
191.607	3.41
191.826	-2.73
192.045	15.7
192.265	40.28
192.484	46.42
192.704	105.81
192.923	9.56
193.142	81.24
193.362	11.61
193.581	34.13
193.8	19.8
194.02	54.61
194.239	-2.73
194.458	99.67
194.678	75.09
194.897	13.65
195.116	25.94
195.335	25.94
195.555	34.13
195.774	21.84
195.993	23.89
196.212	52.56
196.432	9.56
196.651	25.94
196.87	68.95
197.089	95.57
197.308	34.13
197.528	64.85
197.747	17.75
197.966	-12.97
198.185	38.23
198.404	-6.83
198.623	52.56
198.842	19.8
199.062	93.52
199.281	52.56
199.5	13.65
199.719	50.52
199.938	52.56
200.157	136.53
200.376	9.56
200.595	79.19
200.814	58.71
201.033	66.9
201.252	-21.16
201.471	27.99
201.69	25.94
201.909	-37.55
202.128	58.71
202.347	71
202.566	36.18
202.785	19.8
203.004	27.99
203.223	124.24
203.442	50.52
203.661	-12.97
203.879	36.18
204.098	-6.83
204.317	-39.59
204.536	-27.31
204.755	34.13
204.974	111.96
205.193	134.48
205.411	38.23
205.63	11.61
205.849	7.51
206.068	1.37
206.287	1.37
206.505	75.09
206.724	116.05
206.943	30.04
207.162	-35.5
207.381	9.56
207.599	-45.74
207.818	-12.97
208.037	50.52
208.255	19.8
208.474	-39.59
208.693	36.18
208.911	66.9
209.13	77.14
209.349	60.76
209.567	7.51
209.786	1.37
210.005	83.28
210.223	50.52
210.442	-60.07
210.661	3.41
210.879	-0.68
211.098	5.46
211.316	66.9
211.535	27.99
211.753	58.71
211.972	17.75
212.191	66.9
212.409	50.52
212.628	60.76
212.846	19.8
213.065	34.13
213.283	83.28
213.502	66.9
213.72	75.09
213.938	27.99
214.157	38.23
214.375	48.47
214.594	-0.68
214.812	-21.16
215.031	-4.78
215.249	-4.78
215.467	60.76
215.686	-19.11
215.904	36.18
216.122	-6.83
216.341	15.7
216.559	52.56
216.778	68.95
216.996	-10.92
217.214	3.41
217.432	36.18
217.651	52.56
217.869	50.52
218.087	66.9
218.306	17.75
218.524	95.57
218.742	11.61
218.96	5.46
219.179	25.94
219.397	62.8
219.615	95.57
219.833	25.94
220.051	-27.31
220.27	99.67
220.488	101.72
220.706	38.23
220.924	-39.59
221.142	38.23
221.36	42.32
221.578	58.71
221.796	50.52
222.015	21.84
222.233	-12.97
222.451	66.9
222.669	-27.31
222.887	30.04
223.105	50.52
223.323	52.56
223.541	-23.21
223.759	107.86
223.977	25.94
224.195	36.18
224.413	54.61
224.631	99.67
224.849	58.71
225.067	116.05
225.285	58.71
225.503	62.8
225.721	-51.88
225.939	13.65
226.157	77.14
226.375	83.28
226.592	157.01
226.81	-37.55
227.028	56.66
227.246	-15.02
227.464	17.75
227.682	107.86
227.9	58.71
228.117	50.52
228.335	13.65
228.553	11.61
228.771	34.13
228.989	60.76
229.206	75.09
229.424	34.13
229.642	-6.83
229.86	27.99
230.077	71
230.295	36.18
230.513	50.52
230.731	101.72
230.948	60.76
231.166	23.89
231.384	75.09
231.601	42.32
231.819	-21.16
232.037	75.09
232.254	-21.16
232.472	38.23
232.689	-17.07
232.907	62.8
233.125	15.7
233.342	-2.73
233.56	11.61
233.777	38.23
233.995	60.76
234.213	21.84
234.43	-31.4
234.648	50.52
234.865	13.65
235.083	60.76
235.3	-39.59
235.518	81.24
235.735	15.7
235.953	11.61
236.17	9.56
236.388	-37.55
236.605	99.67
236.822	126.29
237.04	66.9
237.257	5.46
237.475	27.99
237.692	79.19
237.909	-23.21
238.127	-12.97
238.344	38.23
238.562	93.52
238.779	11.61
238.996	27.99
239.214	-8.87
239.431	58.71
239.648	30.04
239.865	107.86
240.083	9.56
240.3	66.9
240.517	25.94
240.735	13.65
240.952	-37.55
241.169	122.2
241.386	23.89
241.603	79.19
241.821	-2.73
242.038	52.56
242.255	42.32
242.472	19.8
242.689	7.51
242.907	58.71
243.124	48.47
243.341	38.23
243.558	13.65
243.775	73.04
243.992	-15.02
244.209	42.32
244.426	116.05
244.643	38.23
244.86	-2.73
245.078	58.71
245.295	91.48
245.512	19.8
245.729	30.04
245.946	-45.74
246.163	60.76
246.38	36.18
246.597	40.28
246.814	-19.11
247.031	46.42
247.248	85.33
247.464	21.84
247.681	44.37
247.898	38.23
248.115	79.19
248.332	93.52
248.549	27.99
248.766	89.43
248.983	58.71
249.2	44.37
249.417	83.28
249.633	52.56
249.85	62.8
250.067	46.42
250.284	21.84
250.501	91.48
250.717	30.04
250.934	-19.11
251.151	11.61
251.368	99.67
251.585	58.71
251.801	-6.83
252.018	44.37
252.235	71
252.451	83.28
252.668	36.18
252.885	23.89
253.102	83.28
253.318	95.57
253.535	-41.64
253.752	-23.21
253.968	46.42
254.185	44.37
254.401	36.18
254.618	25.94
254.835	7.51
255.051	148.82
255.268	64.85
255.484	109.91
255.701	68.95
255.917	17.75
256.134	44.37
256.351	9.56
256.567	1.37
256.784	54.61
257	-6.83
257.217	46.42
257.433	75.09
257.65	46.42
257.866	-4.78
258.082	3.41
258.299	3.41
258.515	58.71
258.732	-33.45
258.948	83.28
259.165	54.61
259.381	-39.59
259.597	25.94
259.814	34.13
260.03	-55.98
260.246	85.33
260.463	19.8
260.679	34.13
260.895	13.65
261.112	-0.68
261.328	-0.68
261.544	-12.97
261.761	95.57
261.977	91.48
262.193	-27.31
262.409	95.57
262.626	85.33
262.842	58.71
263.058	60.76
263.274	54.61
263.49	73.04
263.707	126.29
263.923	-8.87
264.139	-0.68
264.355	58.71
264.571	44.37
264.787	75.09
265.004	60.76
265.22	122.2
265.436	-37.55
265.652	165.2
265.868	46.42
266.084	-8.87
266.3	9.56
266.516	-4.78
266.732	42.32
266.948	66.9
267.164	25.94
267.38	25.94
267.596	75.09
267.812	85.33
268.028	58.71
268.244	1.37
268.46	83.28
268.676	-17.07
268.892	48.47
269.108	-10.92
269.324	54.61
269.54	64.85
269.756	77.14
269.972	-4.78
270.188	-0.68
270.403	50.52
270.619	25.94
270.835	-25.26
271.051	38.23
271.267	36.18
271.483	62.8
271.698	32.08
271.914	48.47
272.13	64.85
272.346	58.71
272.562	77.14
272.777	17.75
272.993	73.04
273.209	27.99
273.425	105.81
273.64	9.56
273.856	77.14
274.072	-31.4
274.287	68.95
274.503	91.48
274.719	50.52
274.934	-2.73
275.15	-15.02
275.366	58.71
275.581	-10.92
275.797	85.33
276.012	44.37
276.228	87.38
276.444	-15.02
276.659	46.42
276.875	19.8
277.09	68.95
277.306	71
277.521	140.63
277.737	99.67
277.952	56.66
278.168	-4.78
278.383	83.28
278.599	40.28
278.814	60.76
279.03	-47.79
279.245	103.76
279.461	-31.4
279.676	30.04
279.892	11.61
280.107	107.86
280.322	79.19
280.538	-4.78
280.753	21.84
280.969	148.82
281.184	46.42
281.399	126.29
281.615	-15.02
281.83	120.15
282.045	30.04
282.26	9.56
282.476	-12.97
282.691	38.23
282.906	-12.97
283.122	75.09
283.337	-0.68
283.552	99.67
283.767	25.94
283.983	42.32
284.198	36.18
284.413	66.9
284.628	-12.97
284.843	-4.78
285.058	52.56
285.274	-49.83
285.489	-6.83
285.704	62.8
285.919	-6.83
286.134	54.61
286.349	-6.83
286.564	13.65
286.779	30.04
286.995	5.46
287.21	77.14
287.425	11.61
287.64	27.99
287.855	3.41
288.07	-58.03
288.285	34.13
288.5	13.65
288.715	27.99
288.93	34.13
289.145	73.04
289.36	99.67
289.575	-23.21
289.79	126.29
290.004	77.14
290.219	9.56
290.434	11.61
290.649	19.8
290.864	81.24
291.079	-31.4
291.294	19.8
291.509	77.14
291.724	-53.93
291.938	60.76
292.153	17.75
292.368	56.66
292.583	21.84
292.798	136.53
293.012	34.13
293.227	-37.55
293.442	68.95
293.657	75.09
293.871	87.38
294.086	48.47
294.301	66.9
294.516	79.19
294.73	54.61
294.945	-4.78
295.16	-33.45
295.374	101.72
295.589	83.28
295.804	42.32
296.018	83.28
296.233	58.71
296.447	79.19
296.662	17.75
296.877	81.24
297.091	-12.97
297.306	32.08
297.52	40.28
297.735	93.52
297.949	79.19
298.164	148.82
298.378	1.37
298.593	21.84
298.807	-6.83
299.022	52.56
299.236	77.14
299.451	93.52
299.665	60.76
299.88	-12.97
300.094	87.38
300.309	19.8
300.523	50.52
300.737	66.9
300.952	-15.02
301.166	58.71
301.381	-43.69
301.595	-6.83
301.809	25.94
302.024	1.37
302.238	-23.21
302.452	66.9
302.667	42.32
302.881	150.87
303.095	52.56
303.309	56.66
303.524	34.13
303.738	38.23
303.952	52.56
304.166	107.86
304.381	-8.87
304.595	27.99
304.809	46.42
305.023	44.37
305.237	-2.73
305.452	34.13
305.666	32.08
305.88	75.09
306.094	91.48
306.308	-15.02
306.522	50.52
306.736	62.8
306.95	120.15
307.164	7.51
307.379	36.18
307.593	19.8
307.807	3.41
308.021	13.65
308.235	52.56
308.449	9.56
308.663	13.65
308.877	140.63
309.091	5.46
309.305	60.76
309.519	-31.4
309.733	79.19
309.947	60.76
310.161	85.33
310.374	44.37
310.588	44.37
310.802	50.52
311.016	83.28
311.23	87.38
311.444	7.51
311.658	-6.83
311.872	83.28
312.085	32.08
312.299	97.62
312.513	25.94
312.727	38.23
312.941	34.13
313.154	11.61
313.368	27.99
313.582	-17.07
313.796	42.32
314.009	71
314.223	75.09
314.437	13.65
314.651	44.37
314.864	122.2
315.078	73.04
315.292	9.56
315.505	13.65
315.719	17.75
315.933	75.09
316.146	91.48
316.36	-25.26
316.573	50.52
316.787	21.84
317.001	44.37
317.214	32.08
317.428	3.41
317.641	5.46
317.855	42.32
318.068	15.7
318.282	46.42
318.495	38.23
318.709	42.32
318.922	13.65
319.136	97.62
319.349	48.47
319.563	30.04
319.776	66.9
319.99	50.52
320.203	107.86
320.417	25.94
320.63	93.52
320.843	32.08
321.057	71
321.27	34.13
321.483	81.24
321.697	128.34
321.91	-37.55
322.124	116.05
322.337	60.76
322.55	91.48
322.763	54.61
322.977	42.32
323.19	15.7
323.403	9.56
323.617	95.57
323.83	34.13
324.043	56.66
324.256	46.42
324.469	-35.5
324.683	103.76
324.896	71
325.109	50.52
325.322	-4.78
325.535	52.56
325.748	83.28
325.962	-23.21
326.175	101.72
326.388	27.99
326.601	27.99
326.814	-4.78
327.027	66.9
327.24	120.15
327.453	-64.17
327.666	71
327.879	87.38
328.092	50.52
328.305	56.66
328.518	-23.21
328.731	-0.68
328.944	44.37
329.157	91.48
329.37	46.42
329.583	85.33
329.796	58.71
330.009	-31.4
330.222	103.76
330.435	79.19
330.648	87.38
330.861	46.42
331.073	25.94
331.286	-12.97
331.499	52.56
331.712	75.09
331.925	68.95
332.138	1.37
332.35	40.28
332.563	42.32
332.776	109.91
332.989	17.75
333.202	75.09
333.414	132.44
333.627	42.32
333.84	87.38
334.053	11.61
334.265	105.81
334.478	-8.87
334.691	-4.78
334.903	46.42
335.116	-31.4
335.329	95.57
335.541	91.48
335.754	85.33
335.966	95.57
336.179	19.8
336.392	85.33
336.604	34.13
336.817	3.41
337.029	52.56
337.242	44.37
337.454	107.86
337.667	23.89
337.88	97.62
338.092	58.71
338.305	46.42
338.517	-4.78
338.729	40.28
338.942	60.76
339.154	52.56
339.367	-23.21
339.579	75.09
339.792	68.95
340.004	38.23
340.217	27.99
340.429	-2.73
340.641	1.37
340.854	13.65
341.066	-62.12
341.278	99.67
341.491	62.8
341.703	25.94
341.915	34.13
342.128	99.67
342.34	15.7
342.552	83.28
342.764	58.71
342.977	-6.83
343.189	77.14
343.401	9.56
343.613	1.37
343.826	23.89
344.038	-12.97
344.25	85.33
344.462	21.84
344.674	83.28
344.886	-23.21
345.099	99.67
345.311	66.9
345.523	11.61
345.735	-10.92
345.947	-2.73
346.159	75.09
346.371	-39.59
346.583	-37.55
346.795	152.91
347.007	140.63
347.219	38.23
347.431	34.13
347.643	64.85
347.855	60.76
348.067	58.71
348.279	21.84
348.491	36.18
348.703	30.04
348.915	36.18
349.127	85.33
349.339	83.28
349.551	-6.83
349.763	23.89
349.975	1.37
350.187	75.09
350.399	13.65
350.61	38.23
350.822	-39.59
351.034	93.52
351.246	42.32
351.458	52.56
351.669	85.33
351.881	58.71
352.093	66.9
352.305	95.57
352.517	50.52
352.728	118.1
352.94	1.37
353.152	75.09
353.363	40.28
353.575	1.37
353.787	99.67
353.999	56.66
354.21	103.76
354.422	-6.83
354.633	124.24
354.845	38.23
355.057	111.96
355.268	114
355.48	73.04
355.692	60.76
355.903	105.81
356.115	62.8
356.326	15.7
356.538	25.94
356.749	40.28
356.961	50.52
357.172	103.76
357.384	109.91
357.595	101.72
357.807	66.9
358.018	-19.11
358.23	56.66
358.441	79.19
358.653	126.29
358.864	9.56
359.075	19.8
359.287	19.8
359.498	68.95
359.709	75.09
359.921	91.48
360.132	17.75
360.344	83.28
360.555	34.13
360.766	62.8
360.977	120.15
361.189	85.33
361.4	-21.16
361.611	36.18
361.823	136.53
362.034	25.94
362.245	27.99
362.456	75.09
362.667	44.37
362.879	34.13
363.09	36.18
363.301	107.86
363.512	38.23
363.723	5.46
363.935	7.51
364.146	134.48
364.357	40.28
364.568	25.94
364.779	1.37
364.99	58.71
365.201	25.94
365.412	132.44
365.623	-6.83
365.834	75.09
366.045	32.08
366.256	126.29
366.467	21.84
366.678	27.99
366.889	68.95
367.1	87.38
367.311	40.28
367.522	19.8
367.733	34.13
367.944	62.8
368.155	66.9
368.366	58.71
368.577	32.08
368.788	95.57
368.999	-10.92
369.209	50.52
369.42	140.63
369.631	130.39
369.842	93.52
370.053	95.57
370.264	7.51
370.474	42.32
370.685	95.57
370.896	9.56
371.107	83.28
371.317	103.76
371.528	9.56
371.739	25.94
371.95	40.28
372.16	-23.21
372.371	36.18
372.582	17.75
372.792	-29.35
373.003	83.28
373.214	23.89
373.424	25.94
373.635	42.32
373.846	11.61
374.056	54.61
374.267	118.1
374.477	13.65
374.688	140.63
374.898	30.04
375.109	54.61
375.319	50.52
375.53	83.28
375.74	44.37
375.951	91.48
376.161	54.61
376.372	120.15
376.582	64.85
376.793	-4.78
377.003	54.61
377.214	83.28
377.424	83.28
377.635	66.9
377.845	54.61
378.055	11.61
378.266	40.28
378.476	60.76
378.686	52.56
378.897	75.09
379.107	25.94
379.317	122.2
379.528	85.33
379.738	17.75
379.948	85.33
380.158	19.8
380.369	93.52
380.579	71
380.789	52.56
380.999	25.94
381.21	54.61
381.42	118.1
381.63	42.32
381.84	58.71
382.05	46.42
382.261	54.61
382.471	116.05
382.681	32.08
382.891	124.24
383.101	3.41
383.311	-39.59
383.521	64.85
383.731	15.7
383.941	36.18
384.151	66.9
384.361	50.52
384.571	-12.97
384.781	58.71
384.991	66.9
385.201	93.52
385.411	138.58
385.621	120.15
385.831	111.96
386.041	64.85
386.251	120.15
386.461	97.62
386.671	111.96
386.881	83.28
387.091	89.43
387.301	42.32
387.511	66.9
387.72	75.09
387.93	85.33
388.14	-10.92
388.35	23.89
388.56	91.48
388.769	91.48
388.979	99.67
389.189	27.99
389.399	44.37
389.609	148.82
389.818	34.13
390.028	89.43
390.238	44.37
390.447	68.95
390.657	111.96
390.867	30.04
391.076	87.38
391.286	40.28
391.496	21.84
391.705	71
391.915	140.63
392.125	52.56
392.334	-12.97
392.544	15.7
392.753	30.04
392.963	58.71
393.172	42.32
393.382	81.24
393.591	128.34
393.801	89.43
394.01	148.82
394.22	77.14
394.429	95.57
394.639	30.04
394.848	79.19
395.058	93.52
395.267	11.61
395.477	144.72
395.686	66.9
395.895	99.67
396.105	134.48
396.314	66.9
396.524	54.61
396.733	30.04
396.942	134.48
397.152	77.14
397.361	140.63
397.57	101.72
397.78	83.28
397.989	148.82
398.198	232.79
398.407	64.85
398.617	148.82
398.826	99.67
399.035	101.72
399.244	111.96
399.453	81.24
399.663	144.72
399.872	161.11
400.081	66.9
400.29	210.26
400.499	62.8
400.708	150.87
400.917	101.72
401.127	11.61
401.336	95.57
401.545	177.49
401.754	103.76
401.963	161.11
402.172	81.24
402.381	109.91
402.59	185.68
402.799	81.24
403.008	128.34
403.217	46.42
403.426	116.05
403.635	183.63
403.844	111.96
404.053	120.15
404.262	103.76
404.471	208.21
404.68	54.61
404.888	132.44
405.097	89.43
405.306	144.72
405.515	218.45
405.724	226.64
405.933	181.59
406.142	118.1
406.35	214.35
406.559	124.24
406.768	120.15
406.977	230.74
407.185	165.2
407.394	118.1
407.603	142.68
407.812	206.16
408.02	224.59
408.229	175.44
408.438	214.35
408.646	150.87
408.855	257.36
409.064	236.88
409.272	206.16
409.481	255.31
409.69	232.79
409.898	193.87
410.107	249.17
410.315	306.51
410.524	281.94
410.733	329.04
410.941	218.45
411.15	263.51
411.358	378.19
411.567	423.25
411.775	308.56
411.984	349.52
412.192	396.62
412.401	337.23
412.609	390.48
412.818	429.39
413.026	396.62
413.234	451.92
413.443	435.53
413.651	427.34
413.86	509.26
414.068	453.97
414.276	509.26
414.485	462.16
414.693	591.18
414.901	656.72
415.11	533.84
415.318	587.08
415.526	611.66
415.734	542.03
415.943	621.9
416.151	640.33
416.359	687.43
416.567	740.68
416.776	701.77
416.984	787.79
417.192	791.88
417.4	855.37
417.608	800.07
417.817	787.79
418.025	863.56
418.233	978.25
418.441	961.86
418.649	927.05
418.857	972.1
419.065	1070.4
419.273	910.66
419.481	1129.8
419.689	1019.21
419.897	1168.71
420.105	1185.09
420.313	1183.04
420.521	1305.92
420.729	1344.83
420.937	1299.78
421.145	1373.5
421.353	1463.61
421.561	1498.43
421.769	1566.01
421.977	1633.6
422.185	1664.32
422.393	1688.89
422.601	1967.42
422.809	1885.5
423.017	1729.85
423.224	1903.93
423.432	1977.66
423.64	2110.77
423.848	2217.27
424.056	2198.84
424.263	2319.67
424.471	2405.68
424.679	2350.39
424.887	2344.24
425.094	2499.89
425.302	2534.7
425.51	2700.59
425.718	2669.87
425.925	2673.96
426.133	2925.86
426.341	3056.93
426.548	3194.15
426.756	3138.85
426.964	3208.48
427.171	3364.13
427.379	3542.3
427.586	3589.41
427.794	3771.68
428.001	3763.48
428.209	3949.85
428.417	3896.6
428.624	4138.26
428.832	4248.85
429.039	4121.88
429.247	3972.38
429.454	4551.95
429.662	4932.87
429.869	4375.83
430.076	4822.28
430.284	4703.5
430.491	4936.97
430.699	5178.63
430.906	5260.55
431.114	5270.79
431.321	5489.92
431.528	5623.04
431.736	5852.41
431.943	6128.89
432.15	5985.53
432.358	6018.3
432.565	6409.46
432.772	6335.73
432.979	6610.16
433.187	6798.57
433.394	6724.85
433.601	7349.48
433.808	7410.92
434.016	7253.22
434.223	7527.65
434.43	7957.72
434.637	7851.23
434.844	8385.75
435.052	8430.8
435.259	8447.19
435.466	8549.59
435.673	8303.83
435.88	8948.94
436.087	9559.24
436.294	9426.12
436.501	9262.28
436.708	9583.81
436.915	9770.18
437.122	10142.91
437.329	10128.57
437.537	10409.14
437.743	10710.19
437.95	10560.69
438.157	11027.63
438.364	11562.15
438.571	11453.61
438.778	11531.43
438.985	12598.42
439.192	12029.09
439.399	12491.93
439.606	12364.95
439.813	12891.28
440.02	13468.81
440.227	13505.67
440.433	13393.03
440.64	13769.86
440.847	13522.06
441.054	14066.81
441.261	15254.64
441.467	14550.14
441.674	15015.02
441.881	15570.02
442.088	15348.84
442.294	15385.71
442.501	15848.55
442.708	15987.81
442.914	17095.76
443.121	17362
443.328	17228.88
443.534	18033.73
443.741	17794.12
443.948	17312.85
444.154	18555.96
444.361	18687.03
444.568	18566.2
444.774	18820.15
444.981	18619.45
445.187	19436.59
445.394	20323.36
445.6	20243.49
445.807	21955.59
446.013	20966.42
446.22	21500.94
446.426	22092.8
446.633	22731.77
446.839	23497.71
447.046	22123.52
447.252	23460.85
447.459	23524.33
447.665	23282.67
447.871	24566.75
448.078	25254.87
448.284	24114.15
448.491	25134.04
448.697	25723.85
448.903	26057.67
449.11	26643.39
449.316	25940.94
449.522	26594.24
449.728	27653.04
449.935	27765.68
450.141	27485.11
450.347	28304.29
450.553	27300.79
450.76	27984.81
450.966	28500.9
451.172	28443.56
451.378	29053.85
451.584	28615.58
451.791	29057.95
451.997	28720.03
452.203	29279.13
452.409	29715.34
452.615	29629.33
452.821	28160.94
453.027	28033.96
453.233	29254.55
453.44	28451.75
453.646	28924.83
453.852	28681.12
454.058	29760.4
454.264	28513.19
454.47	29293.46
454.676	28138.41
454.882	29236.12
455.088	26631.1
455.294	27329.46
455.5	27571.12
455.705	27976.62
455.911	26821.56
456.117	26467.27
456.323	26162.12
456.529	24689.63
456.735	26198.98
456.941	25357.27
457.147	25002.97
457.352	24038.37
457.558	23827.43
457.764	23946.22
457.97	23636.97
458.176	23053.3
458.381	22842.36
458.587	21779.47
458.793	21949.45
458.999	20681.75
459.204	22119.43
459.41	21572.62
459.616	20300.83
459.821	20317.22
460.027	20163.62
460.233	19837.99
460.438	19037.23
460.644	19194.93
460.85	18109.51
461.055	17986.63
461.261	17876.04
461.466	16686.17
461.672	16120.93
461.878	17026.13
462.083	15895.65
462.289	15711.33
462.494	15668.33
462.7	14861.43
462.905	14335.1
463.111	14988.4
463.316	14840.95
463.522	14806.13
463.727	14767.22
463.932	14802.04
464.138	14482.55
464.343	14978.16
464.549	14310.52
464.754	14550.14
464.959	14500.98
465.165	14589.05
465.37	13712.52
465.575	13298.83
465.781	14185.6
465.986	14140.54
466.191	13735.04
466.397	13509.77
466.602	12756.11
466.807	13225.1
467.012	12850.32
467.218	13186.19
467.423	12676.24
467.628	13112.46
467.833	13642.89
468.038	13071.5
468.244	12792.98
468.449	13294.73
468.654	12817.55
468.859	12727.44
469.064	12835.99
469.269	12041.37
469.474	12387.48
469.679	12410.01
469.885	12135.58
470.09	12434.58
470.295	12117.15
470.5	11898.02
470.705	12145.82
470.91	11793.57
471.115	11490.47
471.32	11990.17
471.525	11916.45
471.73	11510.95
471.935	11455.65
472.139	11162.8
472.344	11064.49
472.549	10867.89
472.754	10876.08
472.959	10941.61
473.164	10587.32
473.369	10425.53
473.574	10818.74
473.778	10835.12
473.983	10433.72
474.188	10632.37
474.393	9921.73
474.598	10056.89
474.802	9815.23
475.007	10069.18
475.212	9882.81
475.417	9587.91
475.621	9592
475.826	9888.96
476.031	9512.13
476.235	9182.41
476.44	9467.08
476.645	9211.08
476.849	9411.78
477.054	9200.84
477.259	8987.85
477.463	8879.31
477.668	9012.43
477.872	8918.22
478.077	8842.45
478.282	8553.68
478.486	8449.24
478.691	8506.58
478.895	8352.98
479.1	8449.24
479.304	8447.19
479.509	8137.95
479.713	8269.02
479.918	8129.75
480.122	7908.57
480.326	8056.03
480.531	8058.07
480.735	7847.13
480.94	7873.76
481.144	8103.13
481.348	7865.57
481.553	7881.95
481.757	7711.97
481.961	7742.69
482.166	7832.8
482.37	7605.47
482.574	7615.71
482.778	7884
482.983	7980.25
483.187	7797.98
483.391	7849.18
483.595	7861.47
483.8	7685.34
484.004	7513.31
484.208	7707.87
484.412	7834.85
484.616	7724.26
484.821	7775.45
485.025	7705.82
485.229	7777.5
485.433	7806.17
485.637	7562.47
485.841	7423.2
486.045	7826.65
486.249	7738.59
486.453	7589.09
486.657	7865.57
486.861	7687.39
487.065	7603.43
487.269	7607.52
487.473	7539.94
487.677	7836.89
487.881	7775.45
488.085	7621.86
488.289	7869.66
488.493	7767.26
488.697	7808.22
488.901	7851.23
489.105	7781.6
489.309	7754.97
489.512	7886.04
489.716	8008.92
489.92	7847.13
490.124	7734.5
490.328	8025.31
490.531	7908.57
490.735	8033.5
490.939	7963.87
491.143	8139.99
491.346	8148.18
491.55	8234.2
491.754	8180.95
491.958	8246.49
492.161	7927
492.365	8135.9
492.569	8445.14
492.772	8213.72
492.976	8447.19
493.18	8414.42
493.383	8414.42
493.587	8398.04
493.79	8674.51
493.994	8439
494.197	8615.12
494.401	8766.67
494.605	8617.17
494.808	8778.96
495.012	8891.6
495.215	8869.07
495.419	8756.43
495.622	8883.41
495.825	9045.2
496.029	8942.8
496.232	9086.15
496.436	9086.15
496.639	9372.87
496.843	9393.35
497.046	9661.63
497.249	9770.18
497.453	9743.55
497.656	9821.38
497.859	9680.07
498.063	9917.63
498.266	10011.84
498.469	10194.11
498.673	10355.9
498.876	10403
499.079	10654.9
499.282	10515.64
499.485	10919.09
499.689	10781.87
499.892	10851.5
500.095	10781.87
500.298	11183.27
500.501	10980.53
500.705	11429.03
500.908	11695.27
501.111	11650.21
501.314	11801.76
501.517	11816.1
501.72	12121.24
501.923	12215.45
502.126	12289.18
502.329	12813.46
502.532	12727.44
502.735	12735.64
502.938	12833.94
503.141	13118.61
503.344	13067.41
503.547	13003.92
503.75	13347.98
503.953	13917.31
504.156	13937.79
504.359	14017.66
504.562	13976.7
504.765	14267.52
504.968	14486.65
505.17	14595.19
505.373	14492.79
505.576	14967.92
505.779	15174.77
505.982	14949.49
506.185	15412.33
506.387	15524.97
506.59	15557.74
506.793	16088.16
506.996	16034.91
507.198	16249.95
507.401	16163.93
507.604	16692.31
507.807	16821.33
508.009	16888.92
508.212	16929.88
508.415	17339.47
508.617	17480.78
508.82	17419.34
509.022	17728.58
509.225	18062.4
509.428	18224.19
509.63	18388.03
509.833	18379.84
510.035	18854.97
510.238	18877.49
510.44	19055.67
510.643	19383.34
510.845	19358.77
511.048	19295.28
511.25	19629.1
511.453	20134.95
511.655	20575.26
511.858	20349.98
512.06	20390.94
512.262	20655.13
512.465	20730.9
512.667	21195.79
512.87	21193.75
513.072	21312.53
513.274	21347.34
513.477	21965.83
513.679	22029.32
513.881	22502.4
514.084	22520.83
514.286	22541.31
514.488	22911.99
514.69	23286.77
514.893	23335.92
515.095	23487.47
515.297	23790.57
515.499	23827.43
515.701	24200.16
515.904	24665.05
516.106	24622.05
516.308	25093.08
516.51	25222.1
516.712	25287.64
516.914	25572.3
517.116	25572.3
517.318	25971.66
517.52	26309.57
517.722	26127.3
517.925	26768.32
518.127	26862.52
518.329	27382.71
518.531	26848.19
518.733	27665.33
518.935	27927.47
519.136	27833.26
519.338	28316.58
519.54	28408.74
519.742	28363.68
519.944	28539.81
520.146	29477.78
520.348	29010.84
520.55	29658
520.752	29352.85
520.954	30208.9
521.155	30090.12
521.357	30514.05
521.559	30485.38
521.761	30942.08
521.963	31073.15
522.164	30989.18
522.366	31132.54
522.568	31247.22
522.77	31771.5
522.971	32029.55
523.173	31355.77
523.375	31994.73
523.576	31996.78
523.778	32551.78
523.98	32858.98
524.181	32777.06
524.383	32850.78
524.584	33293.15
524.786	33241.95
524.988	33155.93
525.189	33567.57
525.391	33958.74
525.592	34069.33
525.794	34069.33
525.995	34509.64
526.197	34310.99
526.398	34413.38
526.6	34511.69
526.801	35019.58
527.003	34974.53
527.204	35038.01
527.406	35371.83
527.607	35418.94
527.808	35230.52
528.01	34972.48
528.211	35318.59
528.412	36152.11
528.614	36035.38
528.815	35957.55
529.016	36645.67
529.218	35656.5
529.419	35951.41
529.62	36262.7
529.822	36326.19
530.023	36195.12
530.224	36420.39
530.425	36244.27
530.626	36137.77
530.828	36184.88
531.029	36557.61
531.23	36404.01
531.431	36520.74
531.632	36635.43
531.833	36817.7
532.035	36719.4
532.236	36526.89
532.437	36825.89
532.638	37002.02
532.839	36981.54
533.04	37266.2
533.241	36793.12
533.442	37407.51
533.643	36819.75
533.844	37169.95
534.045	37104.42
534.246	36451.11
534.447	36899.62
534.648	36934.43
534.849	36959.01
535.05	36723.49
535.251	36809.51
535.451	37016.35
535.652	36868.9
535.853	37288.73
536.054	37096.22
536.255	36868.9
536.456	37010.21
536.657	37384.99
536.857	37073.7
537.058	37278.49
537.259	37118.75
537.46	37198.62
537.66	37049.12
537.861	37272.35
538.062	37198.62
538.263	37067.55
538.463	36987.68
538.664	36821.8
538.865	37233.44
539.065	37229.34
539.266	36791.08
539.466	37358.36
539.667	36715.3
539.868	37040.93
540.068	37047.07
540.269	37417.75
540.469	37468.95
540.67	36993.82
540.87	36956.96
541.071	36961.06
541.271	37468.95
541.472	37489.43
541.672	37139.23
541.873	36909.86
542.073	36573.99
542.274	37239.58
542.474	36625.19
542.675	36660.01
542.875	37358.36
543.075	37032.74
543.276	36385.58
543.476	37321.5
543.676	36971.3
543.877	36653.86
544.077	37196.57
544.277	36862.75
544.478	36631.33
544.678	36832.04
544.878	36870.95
545.078	36819.75
545.279	36913.95
545.479	36741.92
545.679	36983.58
545.879	36942.63
546.079	36610.85
546.28	36639.53
546.48	36608.81
546.68	37079.84
546.88	36946.72
547.08	36533.03
547.28	36715.3
547.48	36322.09
547.68	36516.65
547.88	36385.58
548.081	36991.78
548.281	36875.04
548.481	36645.67
548.681	37065.5
548.881	36743.97
549.081	37061.41
549.28	36727.59
549.48	36840.23
549.68	36639.53
549.88	37061.41
550.08	36438.83
550.28	36705.06
550.48	36639.53
550.68	36567.85
550.88	36739.88
551.08	36236.08
551.279	36668.2
551.479	36307.76
551.679	36612.9
551.879	36469.54
552.079	36479.78
552.278	36404.01
552.478	36467.5
552.678	36291.37
552.878	36768.55
553.077	36678.44
553.277	35943.22
553.477	36860.71
553.676	36176.69
553.876	36299.56
554.076	36111.15
554.275	36442.92
554.475	35951.41
554.674	36510.5
554.874	36291.37
555.074	35930.93
555.273	36168.49
555.473	36606.76
555.672	36086.57
555.872	36297.52
556.071	35975.98
556.271	36008.75
556.47	35785.52
556.67	35660.6
556.869	35560.25
557.068	35990.32
557.268	35357.5
557.467	35863.35
557.667	36225.84
557.866	35760.95
558.065	35539.77
558.265	35466.04
558.464	35590.97
558.663	35705.65
558.863	35359.55
559.062	36074.29
559.261	35529.53
559.461	35607.35
559.66	35152.7
559.859	35208
560.058	34839.36
560.258	35216.19
560.457	34777.92
560.656	35609.4
560.855	34753.35
561.054	35148.6
561.253	35310.39
561.453	35062.59
561.652	35375.93
561.851	34743.11
562.05	34782.02
562.249	34609.99
562.448	35132.22
562.647	34843.46
562.846	34706.24
563.045	34624.32
563.244	34163.53
563.443	34863.94
563.642	34100.04
563.841	34837.31
564.04	34270.03
564.239	34921.28
564.438	34243.4
564.637	34376.52
564.836	33768.27
565.035	33846.1
565.234	34157.39
565.432	33993.55
565.631	34046.8
565.83	34114.38
566.029	33905.49
566.228	33817.43
566.427	33780.56
566.625	33317.72
566.824	33442.65
567.023	33696.6
567.222	33278.81
567.42	33551.19
567.619	33067.87
567.818	33264.47
568.016	32916.32
568.215	33225.56
568.414	33067.87
568.612	32936.8
568.811	32715.62
569.01	33137.5
569.208	32570.21
569.407	32568.16
569.605	32375.66
569.804	32957.28
570.002	32496.49
570.201	32770.91
570.4	32521.06
570.598	32138.09
570.797	32412.52
570.995	32123.76
571.193	31859.57
571.392	32301.93
571.59	31753.07
571.789	31785.84
571.987	31882.09
572.186	31826.8
572.384	31789.94
572.582	31814.51
572.781	31675.25
572.979	31562.61
573.177	31748.98
573.376	31540.08
573.574	31306.62
573.772	31265.66
573.971	31060.86
574.169	31048.57
574.367	30458.76
574.565	31292.28
574.763	30706.56
574.962	31085.44
575.16	30526.34
575.358	30724.99
575.556	30206.86
575.754	31003.52
575.952	30053.26
576.151	30477.19
576.349	30221.19
576.547	30313.35
576.745	29967.24
576.943	30268.3
577.141	30247.82
577.339	30184.33
577.537	29815.69
577.735	29981.58
577.933	29492.12
578.131	29698.96
578.329	29723.54
578.527	29488.02
578.725	29387.67
578.923	29445.01
579.121	29152.15
579.319	29143.96
579.516	29207.45
579.714	29127.58
579.912	28955.55
580.11	29025.18
580.308	28996.51
580.506	28478.37
580.704	28261.29
580.901	28554.15
581.099	29107.1
581.297	28416.93
581.495	28576.67
581.692	28404.64
581.89	28539.81
582.088	28677.02
582.285	28119.98
582.483	28287.91
582.681	28316.58
582.878	28021.67
583.076	27796.4
583.274	27820.97
583.471	27749.29
583.669	27767.73
583.866	27454.39
584.064	27753.39
584.262	27302.84
584.459	27390.9
584.657	27186.1
584.854	27423.67
585.052	27288.5
585.249	26987.45
585.447	27388.85
585.644	26997.69
585.841	26880.96
586.039	26975.16
586.236	26586.05
586.434	26379.2
586.631	26815.42
586.828	26500.03
587.026	26692.54
587.223	26352.58
587.42	26510.27
587.618	26336.2
587.815	26241.99
588.012	26149.83
588.21	25934.79
588.407	26022.86
588.604	25961.42
588.801	25762.76
588.999	25592.78
589.196	25961.42
589.393	25641.93
589.59	25232.34
589.787	25672.65
589.984	25543.63
590.182	25269.2
590.379	25318.35
590.576	25332.69
590.773	25015.26
590.97	24888.28
591.167	25168.85
591.364	24902.62
591.561	24980.44
591.758	24325.09
591.955	24957.91
592.152	24894.43
592.349	24632.29
592.546	24712.16
592.743	24390.63
592.94	24200.16
593.137	24316.9
593.334	24429.54
593.531	23962.6
593.727	24476.64
593.924	24148.96
594.121	23907.3
594.318	24163.3
594.515	23565.29
594.712	24085.48
594.908	23833.58
595.105	23737.32
595.302	23698.41
595.499	23667.69
595.696	23340.02
595.892	23327.73
596.089	23057.4
596.286	23251.95
596.482	22950.9
596.679	23139.32
596.876	22967.29
597.072	22871.03
597.269	22940.66
597.466	22795.26
597.662	22864.89
597.859	22660.09
598.055	22586.36
598.252	22576.12
598.448	22739.96
598.645	22299.65
598.841	22176.77
599.038	22449.15
599.234	22369.28
599.431	22094.85
599.627	22103.04
599.824	21924.87
600.02	22012.93
600.217	21699.59
600.413	21877.77
600.609	21724.17
600.806	21693.45
601.002	21832.71
601.198	21396.49
601.395	21459.98
601.591	21455.89
601.787	21427.21
601.984	21330.96
602.18	21281.81
602.376	21214.23
602.572	20956.18
602.769	20991
602.965	21036.05
603.161	21074.96
603.357	20798.49
603.553	20718.62
603.75	20669.47
603.946	20612.12
604.142	20648.99
604.338	20485.15
604.534	20642.84
604.73	20292.64
604.926	20122.66
605.122	20212.77
605.318	20229.15
605.514	20290.59
605.71	20053.03
605.906	20155.43
606.102	19733.54
606.298	20001.83
606.494	19874.85
606.69	19950.63
606.886	20024.36
607.082	19493.93
607.278	19954.72
607.474	19543.08
607.67	19516.46
607.866	19358.77
608.062	19663.91
608.257	19448.88
608.453	19530.8
608.649	19672.11
608.845	19297.33
609.041	19506.22
609.236	19479.6
609.432	19194.93
609.628	19315.76
609.824	19301.42
610.019	18895.92
610.215	18967.6
610.411	19422.25
610.606	18914.36
610.802	18922.55
610.998	18727.99
611.193	19207.22
611.389	18719.8
611.584	18854.97
611.78	18646.07
611.976	18619.45
612.171	18449.47
612.367	18515
612.562	18355.26
612.758	18406.46
612.953	18379.84
613.149	18838.58
613.344	18326.59
613.539	18637.88
613.735	18222.14
613.93	18682.94
614.126	18447.42
614.321	18500.67
614.517	18273.34
614.712	18170.94
614.907	18060.35
615.103	18234.43
615.298	18037.83
615.493	18017.35
615.688	17865.8
615.884	18414.65
616.079	17869.89
616.274	18158.66
616.47	17806.41
616.665	17732.68
616.86	17783.88
617.055	17548.36
617.25	17630.28
617.445	17806.41
617.641	17529.93
617.836	17579.08
618.031	17249.36
618.226	17525.83
618.421	17396.81
618.616	17402.96
618.811	17116.24
619.006	17566.79
619.201	17085.52
619.396	17318.99
619.591	16696.41
619.786	16981.07
619.981	16823.38
620.176	16936.02
620.371	16647.26
620.566	16567.38
620.761	16565.34
620.956	16620.63
621.151	16028.77
621.346	16673.88
621.541	16182.37
621.735	16389.21
621.93	16174.17
622.125	16110.69
622.32	15662.18
622.515	16039.01
622.709	15750.24
622.904	15660.13
623.099	15492.2
623.294	15887.46
623.488	15328.36
623.683	15326.32
623.878	15459.43
624.072	15172.72
624.267	15479.91
624.462	15230.06
624.656	14920.82
624.851	14881.91
625.046	14845.04
625.24	14701.69
625.435	14593.14
625.629	14607.48
625.824	14414.97
626.018	14464.12
626.213	14148.73
626.407	14255.23
626.602	14142.59
626.796	14283.9
626.991	14230.65
627.185	14173.31
627.38	13898.88
627.574	13726.85
627.768	13563.01
627.963	13702.28
628.157	13661.32
628.352	13567.11
628.546	13417.61
628.74	13569.16
628.935	13186.19
629.129	13323.4
629.323	13233.29
629.517	13053.07
629.712	12895.38
629.906	12905.62
630.1	12698.77
630.294	13065.36
630.489	12711.06
630.683	12903.57
630.877	12610.71
631.071	12631.19
631.265	12614.8
631.459	12403.86
631.653	12608.66
631.848	12455.06
632.042	12233.88
632.236	12311.71
632.43	12127.39
632.624	11957.41
632.818	12061.85
633.012	12125.34
633.206	11814.05
633.4	11922.59
633.594	11732.13
633.788	11756.71
633.982	11572.39
634.176	11639.97
634.369	11658.4
634.563	11599.01
634.757	11248.81
634.951	11336.87
635.145	11494.57
635.339	11357.35
635.533	11308.2
635.726	11252.91
635.92	10996.91
636.114	10990.77
636.308	10904.75
636.501	11009.2
636.695	10896.56
636.889	10745.01
637.083	10810.54
637.276	10773.68
637.47	10665.14
637.664	10304.7
637.857	10271.93
638.051	10290.36
638.244	10376.38
638.438	10433.72
638.632	10298.55
638.825	10161.34
639.019	9923.77
639.212	10173.63
639.406	9938.11
639.599	9993.4
639.793	9804.99
639.986	9653.44
640.18	9882.81
640.373	9856.19
640.567	9645.25
640.76	9749.7
640.954	9784.51
641.147	9487.56
641.34	9407.69
641.534	9522.37
641.727	9471.17
641.92	9389.25
642.114	9440.45
642.307	9233.61
642.5	9071.82
642.694	9051.34
642.887	8987.85
643.08	9352.39
643.273	9012.43
643.467	8795.34
643.66	9018.57
643.853	8836.3
644.046	8686.8
644.239	8856.78
644.432	8619.22
644.626	8674.51
644.819	8656.08
645.012	8672.47
645.205	8586.45
645.398	8463.57
645.591	8428.76
645.784	8447.19
645.977	8387.8
646.17	8293.59
646.363	8262.87
646.556	8250.58
646.749	8183
646.942	8410.33
647.135	8074.46
647.328	8139.99
647.521	7994.59
647.714	7881.95
647.907	7914.72
648.099	7877.85
648.292	7879.9
648.485	7808.22
648.678	7724.26
648.871	7544.03
649.064	7724.26
649.256	7603.43
649.449	7562.47
649.642	7744.74
649.835	7539.94
650.027	7640.29
650.22	7431.4
650.413	7259.37
650.605	7202.02
650.798	7449.83
650.991	7154.92
651.183	7283.94
651.376	7140.58
651.568	7210.22
651.761	6968.55
651.954	7132.39
652.146	6980.84
652.339	6931.69
652.531	6980.84
652.724	6870.25
652.916	6634.74
653.109	6612.21
653.301	6802.67
653.494	6612.21
653.686	6687.98
653.879	6706.41
654.071	6661.36
654.263	6608.11
654.456	6569.2
654.648	6614.26
654.84	6481.14
655.033	6491.38
655.225	6458.61
655.417	6255.86
655.61	6448.37
655.802	6382.84
655.994	6333.68
656.186	6251.77
656.379	6300.92
656.571	6173.94
656.763	6122.74
656.955	6022.39
657.148	6114.55
657.34	5952.76
657.532	6104.31
657.724	5948.67
657.916	5989.63
658.108	6067.45
658.3	5860.6
658.492	6096.12
658.684	5811.45
658.876	5686.53
659.068	5891.32
659.26	5739.77
659.452	5711.1
659.644	5795.07
659.836	5571.84
660.028	5620.99
660.22	5563.65
660.412	5680.38
660.604	5489.92
660.796	5539.07
660.988	5305.6
661.18	5348.61
661.372	5481.73
661.563	5340.42
661.755	5399.81
661.947	5297.41
662.139	5295.36
662.331	5055.75
662.522	5319.94
662.714	5147.91
662.906	5211.4
663.097	5119.24
663.289	5063.94
663.481	4887.82
663.673	5055.75
663.864	5098.76
664.056	5115.14
664.247	4885.77
664.439	4881.67
664.631	4898.06
664.822	4865.29
665.014	4887.82
665.205	4877.58
665.397	4760.84
665.588	4752.65
665.78	4619.53
665.971	4713.74
666.163	4607.25
666.354	4594.96
666.546	4635.92
666.737	4508.94
666.929	4535.57
667.12	4617.49
667.311	4607.25
667.503	4392.21
667.694	4441.36
667.885	4523.28
668.077	4601.1
668.268	4336.92
668.459	4433.17
668.651	4246.8
668.842	4285.72
669.033	4142.36
669.224	4338.96
669.416	4314.39
669.607	4338.96
669.798	4371.73
669.989	4353.3
670.18	4171.03
670.371	4164.89
670.563	4089.11
670.754	4162.84
670.945	3968.28
671.136	4123.93
671.327	4085.01
671.518	3837.21
671.709	3927.32
671.9	4093.21
672.091	4068.63
672.282	4039.96
672.473	3933.47
672.664	3976.47
672.855	3937.56
673.046	3880.22
673.237	3876.12
673.428	3935.51
673.619	3966.23
673.809	3851.55
674	3847.45
674.191	3851.55
674.382	3843.35
674.573	3747.1
674.764	3814.68
674.954	3806.49
675.145	3654.94
675.336	3720.48
675.527	3775.77
675.717	3702.04
675.908	3564.83
676.099	3583.26
676.289	3642.65
676.48	3609.89
676.671	3532.06
676.861	3730.72
677.052	3601.69
677.243	3577.12
677.433	3613.98
677.624	3564.83
677.814	3501.34
678.005	3413.28
678.195	3542.3
678.386	3499.3
678.576	3476.77
678.767	3417.38
678.957	3374.37
679.148	3474.72
679.338	3487.01
679.529	3403.04
679.719	3460.38
679.909	3400.99
680.1	3417.38
680.29	3460.38
680.481	3421.47
680.671	3308.83
680.861	3335.46
681.052	3335.46
681.242	3312.93
681.432	3329.31
681.622	3278.12
681.813	3267.88
682.003	3167.52
682.193	3327.27
682.383	3314.98
682.573	3380.51
682.764	3206.44
682.954	3261.73
683.144	3183.91
683.334	3145
683.524	3175.72
683.714	3212.58
683.904	3149.09
684.094	3198.24
684.284	3147.05
684.474	3194.15
684.664	3130.66
684.854	3083.56
685.044	3081.51
685.234	3114.28
685.424	3181.86
685.614	3216.68
685.804	3063.08
685.994	3034.41
686.184	3149.09
686.374	3007.78
686.564	3065.13
686.753	3136.81
686.943	3044.65
687.133	2876.71
687.323	3007.78
687.513	3013.93
687.702	2985.26
687.892	3040.55
688.082	2889
688.272	2893.1
688.461	2952.49
688.651	2946.34
688.841	2794.79
689.03	2938.15
689.22	2858.28
689.41	2938.15
689.599	2856.23
689.789	2766.12
689.979	2837.8
690.168	2897.19
690.358	2712.88
690.547	2770.22
690.737	2739.5
690.926	2721.07
691.116	2845.99
691.305	2837.8
691.495	2733.36
691.684	2729.26
691.874	2688.3
692.063	2692.4
692.252	2657.58
692.442	2764.08
692.631	2559.28
692.82	2680.11
693.01	2594.09
693.199	2682.16
693.388	2450.74
693.578	2723.12
693.767	2585.9
693.956	2618.67
694.146	2592.05
694.335	2635.05
694.524	2608.43
694.713	2532.65
694.902	2555.18
695.092	2460.98
695.281	2438.45
695.47	2516.27
695.659	2460.98
695.848	2536.75
696.037	2516.27
696.226	2463.02
696.415	2374.96
696.604	2491.7
696.793	2428.21
696.982	2467.12
697.171	2307.38
697.36	2465.07
697.549	2434.35
697.738	2311.47
697.927	2340.15
698.116	2356.53
698.305	2444.59
698.494	2387.25
698.683	2315.57
698.872	2397.49
699.061	2409.78
699.25	2241.84
699.438	2362.67
699.627	2311.47
699.816	2399.54
700.005	2272.56
700.193	2290.99
700.382	2397.49
700.571	2379.06
700.76	2319.67
700.948	2377.01
701.137	2237.75
701.326	2268.47
701.514	2202.93
701.703	2254.13
701.892	2256.18
702.08	2321.71
702.269	2155.83
702.457	2196.79
702.646	2323.76
702.834	2176.31
703.023	2155.83
703.212	2290.99
703.4	2264.37
703.589	2243.89
703.777	2274.61
703.965	2196.79
704.154	2090.29
704.342	2200.88
704.531	2190.64
704.719	2108.73
704.907	2157.88
705.096	2100.53
705.284	2196.79
705.472	2084.15
705.661	2239.8
705.849	2198.84
706.037	2196.79
706.226	2225.46
706.414	2147.64
706.602	2213.17
706.79	2268.47
706.979	2131.25
707.167	2123.06
707.355	2180.4
707.543	2157.88
707.731	2188.6
707.919	2032.95
708.107	2114.87
708.296	2209.08
708.484	2082.1
708.672	2118.96
708.86	2024.76
709.048	2082.1
709.236	2073.91
709.424	2090.29
709.612	2264.37
709.8	2008.37
709.988	2114.87
710.176	2147.64
710.364	2164.02
710.551	2032.95
710.739	2069.81
710.927	2041.14
711.115	2098.49
711.303	2098.49
711.491	2037.05
711.679	2188.6
711.866	2018.61
712.054	2012.47
712.242	2116.92
712.43	2116.92
712.617	2055.48
712.805	2059.57
712.993	2067.77
713.181	1934.65
713.368	2026.81
713.556	2041.14
713.744	1983.8
713.931	2116.92
714.119	1959.22
714.306	2098.49
714.494	1971.51
714.682	2090.29
714.869	1991.99
715.057	2024.76
715.244	2053.43
715.432	2026.81
715.619	2000.18
715.807	1959.22
715.994	2041.14
716.182	1989.94
716.369	1946.94
716.556	2053.43
716.744	1936.7
716.931	2045.24
717.119	2104.63
717.306	2035
717.493	1944.89
717.681	2016.57
717.868	2012.47
718.055	2014.52
718.242	2016.57
718.43	1965.37
718.617	2047.29
718.804	2008.37
718.991	1930.55
719.179	1983.8
719.366	1975.61
719.553	1979.7
719.74	1901.88
719.927	1938.74
720.114	1918.26
720.301	1932.6
720.488	1991.99
720.676	1926.46
720.863	1991.99
721.05	1996.09
721.237	2008.37
721.424	1953.08
721.611	1901.88
721.798	1891.64
721.985	2012.47
722.172	1830.2
722.358	1938.74
722.545	1869.11
722.732	1926.46
722.919	1942.84
723.106	1951.03
723.293	1903.93
723.48	1961.27
723.667	1901.88
723.853	1942.84
724.04	1934.65
724.227	1881.4
724.414	1871.16
724.6	1881.4
724.787	1903.93
724.974	1844.54
725.161	1963.32
725.347	1830.2
725.534	1848.63
725.72	1805.63
725.907	1824.06
726.094	1918.26
726.28	1926.46
726.467	1844.54
726.653	1908.02
726.84	1994.04
727.027	2028.85
727.213	1754.43
727.4	1822.01
727.586	1893.69
727.773	1871.16
727.959	1844.54
728.145	1819.96
728.332	1867.06
728.518	1844.54
728.705	1928.5
728.891	1914.17
729.077	1881.4
729.264	1926.46
729.45	1873.21
729.636	1979.7
729.823	1852.73
730.009	1955.13
730.195	1748.28
730.382	1920.31
730.568	1840.44
730.754	1819.96
730.94	1873.21
731.126	1951.03
731.313	1735.99
731.499	1899.83
731.685	1791.29
731.871	1836.35
732.057	1832.25
732.243	1889.59
732.429	1854.78
732.615	1862.97
732.801	1819.96
732.987	1854.78
733.173	1844.54
733.359	1819.96
733.545	1844.54
733.731	1738.04
733.917	1881.4
734.103	1815.87
734.289	1785.15
734.475	1738.04
734.661	1807.67
734.847	1844.54
735.033	1713.47
735.219	1840.44
735.404	1762.62
735.59	1680.7
735.776	1811.77
735.962	1760.57
736.148	1733.95
736.333	1910.07
736.519	1852.73
736.705	1795.39
736.89	1779
737.076	1756.47
737.262	1738.04
737.447	1740.09
737.633	1705.28
737.819	1764.67
738.004	1701.18
738.19	1805.63
738.375	1631.55
738.561	1713.47
738.747	1713.47
738.932	1738.04
739.118	1721.66
739.303	1729.85
739.489	1654.08
739.674	1654.08
739.859	1676.6
740.045	1633.6
740.23	1860.92
740.416	1563.97
740.601	1692.99
740.786	1647.93
740.972	1590.59
741.157	1647.93
741.342	1623.36
741.528	1676.6
741.713	1598.78
741.898	1619.26
742.084	1582.4
742.269	1707.32
742.454	1705.28
742.639	1699.13
742.824	1566.01
743.01	1545.53
743.195	1660.22
743.38	1590.59
743.565	1602.88
743.75	1553.73
743.935	1631.55
744.12	1639.74
744.305	1574.21
744.49	1545.53
744.675	1559.87
744.86	1527.1
745.045	1580.35
745.23	1502.53
745.415	1525.05
745.6	1557.82
745.785	1500.48
745.97	1592.64
746.155	1557.82
746.34	1527.1
746.525	1422.66
746.71	1520.96
746.895	1455.42
747.079	1369.41
747.264	1428.8
747.449	1512.77
747.634	1426.75
747.819	1492.29
748.003	1467.71
748.188	1387.84
748.373	1375.55
748.557	1441.09
748.742	1418.56
748.927	1295.68
749.111	1428.8
749.296	1418.56
749.481	1436.99
749.665	1344.83
749.85	1340.74
750.034	1289.54
750.219	1414.46
750.404	1281.35
750.588	1262.91
750.773	1254.72
750.957	1305.92
751.141	1398.08
751.326	1316.16
751.51	1230.15
751.695	1244.48
751.879	1262.91
752.064	1355.07
752.248	1350.98
752.432	1264.96
752.617	1189.19
752.801	1262.91
752.985	1156.42
753.17	1123.65
753.354	1215.81
753.538	1137.99
753.722	1170.76
753.907	1162.56
754.091	978.25
754.275	1144.13
754.459	1094.98
754.643	1125.7
754.828	1140.04
755.012	1140.04
755.196	1164.61
755.38	1207.62
755.564	1113.41
755.748	1080.64
755.932	1045.83
756.116	1099.08
756.3	1043.78
756.484	1099.08
756.668	1092.93
756.852	992.58
757.036	1004.87
757.22	1076.55
757.404	961.86
757.588	1051.97
757.772	1017.16
757.956	990.53
758.14	1021.25
758.323	1049.93
758.507	1006.92
758.691	1000.77
758.875	984.39
759.059	951.62
759.242	992.58
759.426	935.24
759.61	912.71
759.794	1000.77
759.977	908.62
760.161	922.95
760.345	888.14
760.528	935.24
760.712	968.01
760.895	789.83
761.079	896.33
761.263	853.32
761.446	879.94
761.63	955.72
761.813	937.29
761.997	795.98
762.18	847.18
762.364	861.51
762.547	902.47
762.731	935.24
762.914	881.99
763.098	787.79
763.281	804.17
763.464	873.8
763.648	855.37
763.831	881.99
764.015	847.18
764.198	795.98
764.381	836.94
764.564	765.26
764.748	808.26
764.931	875.85
765.114	853.32
765.297	783.69
765.481	865.61
765.664	822.6
765.847	767.31
766.03	775.5
766.213	822.6
766.397	851.27
766.58	849.22
766.763	818.5
766.946	812.36
767.129	781.64
767.312	755.02
767.495	806.22
767.678	689.48
767.861	779.59
768.044	781.64
768.227	802.12
768.41	787.79
768.593	738.63
768.776	765.26
768.959	755.02
769.142	738.63
769.324	740.68
769.507	789.83
769.69	712.01
769.873	773.45
770.056	691.53
770.239	718.15
770.421	673.1
770.604	793.93
770.787	730.44
770.97	662.86
771.152	703.82
771.335	798.03
771.518	681.29
771.7	728.39
771.883	722.25
772.066	705.87
772.248	714.06
772.431	683.34
772.613	705.87
772.796	664.91
772.978	705.87
773.161	732.49
773.343	738.63
773.526	689.48
773.708	656.72
773.891	669
774.073	642.38
774.256	724.3
774.438	648.52
774.621	648.52
774.803	593.23
774.985	636.24
775.168	576.84
775.35	664.91
775.532	623.95
775.715	611.66
775.897	603.47
776.079	558.41
776.261	709.96
776.444	539.98
776.626	593.23
776.808	570.7
776.99	533.84
777.173	535.89
777.355	648.52
777.537	595.28
777.719	650.57
777.901	566.6
778.083	605.52
778.265	509.26
778.447	648.52
778.629	566.6
778.811	570.7
778.993	525.65
779.175	599.37
779.357	515.41
779.539	533.84
779.721	531.79
779.903	537.93
780.085	484.69
780.267	519.5
780.449	503.12
780.631	525.65
780.812	517.45
780.994	529.74
781.176	544.08
781.358	460.11
781.54	490.83
781.721	484.69
781.903	466.25
782.085	460.11
782.267	482.64
782.448	476.49
782.63	468.3
782.812	531.79
782.993	384.34
783.175	484.69
783.357	480.59
783.538	435.53
783.72	464.21
783.901	496.97
784.083	484.69
784.264	451.92
784.446	443.73
784.627	365.9
784.809	390.48
784.99	388.43
785.172	462.16
785.353	363.86
785.535	443.73
785.716	441.68
785.897	404.82
786.079	337.23
786.26	331.09
786.441	349.52
786.623	400.72
786.804	359.76
786.985	472.4
787.167	365.9
787.348	423.25
787.529	300.37
787.71	431.44
787.891	443.73
788.073	320.85
788.254	329.04
788.435	394.58
788.616	382.29
788.797	304.46
788.978	326.99
789.159	347.47
789.34	427.34
789.522	292.18
789.703	365.9
789.884	353.62
790.065	343.38
790.246	324.94
790.427	308.56
790.607	279.89
790.788	349.52
790.969	238.93
791.15	326.99
791.331	193.87
791.512	296.27
791.693	249.17
791.874	255.31
792.054	380.24
792.235	347.47
792.416	337.23
792.597	230.74
792.778	271.7
792.958	335.18
793.139	288.08
793.32	255.31
793.5	292.18
793.681	353.62
793.862	288.08
794.042	316.75
794.223	279.89
794.404	298.32
794.584	255.31
794.765	267.6
794.945	304.46
795.126	394.58
795.306	218.45
795.487	298.32
795.667	277.84
795.848	304.46
796.028	271.7
796.209	249.17
796.389	308.56
796.57	238.93
796.75	167.25
796.93	240.98
797.111	136.53
797.291	240.98
797.471	263.51
797.652	226.64
797.832	222.55
798.012	238.93
798.192	281.94
798.373	306.51
798.553	161.11
798.733	292.18
798.913	216.4
799.093	191.83
799.274	265.55
799.454	361.81
799.634	238.93
799.814	263.51
799.994	181.59
800.174	210.26
800.354	167.25
800.534	255.31
800.714	200.02
800.894	271.7
801.074	132.44
801.254	177.49
801.434	283.98
801.614	173.39
801.794	165.2
801.974	757.07
802.154	251.22
802.334	171.35
802.514	122.2
802.693	224.59
802.873	189.78
803.053	247.12
803.233	200.02
803.413	187.73
803.592	177.49
803.772	208.21
803.952	265.55
804.131	83.28
804.311	148.82
804.491	273.75
804.67	187.73
804.85	154.96
805.03	202.07
805.209	197.97
805.389	218.45
805.568	210.26
805.748	214.35
805.928	169.3
806.107	138.58
806.287	304.46
806.466	206.16
806.646	185.68
806.825	165.2
807.004	177.49
807.184	181.59
807.363	103.76
807.543	204.11
807.722	161.11
807.901	148.82
808.081	183.63
808.26	85.33
808.439	177.49
808.619	111.96
808.798	181.59
808.977	148.82
809.156	167.25
809.336	124.24
809.515	218.45
809.694	73.04
809.873	128.34
810.052	144.72
810.231	200.02
810.411	132.44
810.59	157.01
810.769	120.15
810.948	202.07
811.127	118.1
811.306	85.33
811.485	154.96
811.664	197.97
811.843	54.61
812.022	144.72
812.201	111.96
812.38	87.38
812.559	132.44
812.737	214.35
812.916	81.24
813.095	165.2
813.274	87.38
813.453	122.2
813.632	124.24
813.811	140.63
813.989	150.87
814.168	165.2
814.347	181.59
814.526	89.43
814.704	77.14
814.883	177.49
815.062	93.52
815.24	126.29
815.419	46.42
815.598	87.38
815.776	79.19
815.955	136.53
816.133	148.82
816.312	130.39
816.49	197.97
816.669	77.14
816.847	73.04
817.026	202.07
817.204	116.05
817.383	173.39
817.561	54.61
817.74	157.01
817.918	66.9
818.097	101.72
818.275	124.24
818.453	85.33
818.632	140.63
818.81	140.63
818.988	68.95
819.167	161.11
819.345	99.67
819.523	103.76
819.701	9.56
819.879	116.05
820.058	79.19
820.236	165.2
820.414	66.9
820.592	79.19
820.77	144.72
820.948	114
821.127	144.72
821.305	83.28
821.483	118.1
821.661	165.2
821.839	93.52
822.017	109.91
822.195	83.28
822.373	116.05
822.551	99.67
822.729	134.48
822.907	132.44
823.085	71
823.262	93.52
823.44	128.34
823.618	68.95
823.796	122.2
823.974	140.63
824.152	103.76
824.329	66.9
824.507	107.86
824.685	105.81
824.863	103.76
825.04	111.96
825.218	87.38
825.396	77.14
825.574	197.97
825.751	107.86
825.929	157.01
826.107	101.72
826.284	50.52
826.462	17.75
826.639	148.82
826.817	34.13
826.994	109.91
827.172	87.38
827.349	75.09
827.527	128.34
827.704	83.28
827.882	116.05
828.059	32.08
828.237	9.56
828.414	171.35
828.591	50.52
828.769	83.28
828.946	87.38
829.124	157.01
829.301	157.01
829.478	68.95
829.655	109.91
829.833	116.05
830.01	66.9
830.187	87.38
830.364	71
830.542	91.48
830.719	91.48
830.896	167.25
831.073	71
831.25	58.71
831.427	46.42
831.604	75.09
831.782	-0.68
831.959	148.82
832.136	36.18
832.313	85.33
832.49	7.51
832.667	62.8
832.844	93.52
833.021	99.67
833.198	99.67
833.374	54.61
833.551	148.82
833.728	111.96
833.905	191.83
834.082	5.46
834.259	71
834.436	85.33
834.612	1.37
834.789	50.52
834.966	52.56
835.143	42.32
835.319	56.66
835.496	118.1
835.673	97.62
835.85	36.18
836.026	46.42
836.203	68.95
836.38	42.32
836.556	95.57
836.733	64.85
836.909	25.94
837.086	38.23
837.262	66.9
837.439	97.62
837.616	40.28
837.792	-39.59
837.968	19.8
838.145	77.14
838.321	15.7
838.498	42.32
838.674	87.38
838.851	99.67
839.027	-4.78
839.203	19.8
839.38	132.44
839.556	-0.68
839.732	99.67
839.909	58.71
840.085	93.52
840.261	34.13
840.437	107.86
840.614	34.13
840.79	99.67
840.966	101.72
841.142	50.52
841.318	25.94
841.494	71
841.671	11.61
841.847	58.71
842.023	36.18
842.199	87.38
842.375	13.65
842.551	-47.79
842.727	-8.87
842.903	144.72
843.079	50.52
843.255	83.28
843.431	-4.78
843.607	71
843.783	-37.55
843.959	44.37
844.134	91.48
844.31	116.05
844.486	9.56
844.662	91.48
844.838	99.67
845.013	83.28
845.189	15.7
845.365	34.13
845.541	-15.02
845.716	46.42
845.892	77.14
846.068	7.51
846.244	30.04
846.419	91.48
846.595	30.04
846.77	68.95
846.946	68.95
847.122	19.8
847.297	5.46
847.473	103.76
847.648	105.81
847.824	19.8
847.999	3.41
848.175	134.48
848.35	87.38
848.526	120.15
848.701	-6.83
848.876	97.62
849.052	32.08
849.227	101.72
849.403	50.52
849.578	-10.92
849.753	116.05
849.929	54.61
850.104	-17.07
850.279	75.09
850.454	42.32
850.63	58.71
850.805	-21.16
850.98	83.28
851.155	13.65
851.33	85.33
851.505	3.41
851.681	21.84
851.856	19.8
852.031	34.13
852.206	21.84
852.381	-6.83
852.556	87.38
852.731	124.24
852.906	42.32
853.081	48.47
853.256	-15.02
853.431	-12.97
853.606	40.28
853.781	-68.27
853.956	27.99
854.131	107.86
854.305	40.28
854.48	38.23
854.655	52.56
854.83	50.52
855.005	46.42
855.18	-39.59
855.354	13.65
855.529	54.61
855.704	-29.35
855.879	42.32
856.053	42.32
856.228	50.52
856.403	46.42
856.577	75.09
856.752	9.56
856.926	11.61
857.101	25.94
857.276	11.61
857.45	97.62
857.625	36.18
857.799	62.8
857.974	60.76
858.148	-6.83
858.323	54.61
858.497	-33.45
858.672	50.52
858.846	17.75
859.02	114
859.195	56.66
859.369	30.04
859.543	23.89
859.718	79.19
859.892	66.9
860.066	42.32
860.241	-23.21
860.415	95.57
860.589	66.9
860.763	-10.92
860.938	15.7
861.112	62.8
861.286	5.46
861.46	-19.11
861.634	17.75
861.808	114
861.982	75.09
862.157	-35.5
862.331	1.37
862.505	-19.11
862.679	-27.31
862.853	7.51
863.027	9.56
863.201	-4.78
863.375	-43.69
863.549	19.8
863.722	34.13
863.896	75.09
864.07	19.8
864.244	42.32
864.418	68.95
864.592	120.15
864.766	25.94
864.939	83.28
865.113	7.51
865.287	101.72
865.461	1.37
865.634	17.75
865.808	19.8
865.982	34.13
866.156	-27.31
866.329	-10.92
866.503	46.42
866.676	50.52
866.85	30.04
867.024	-23.21
867.197	-19.11
867.371	-6.83
867.544	34.13
867.718	27.99
867.891	50.52
868.065	91.48
868.238	46.42
868.412	25.94
868.585	83.28
868.759	-15.02
868.932	-37.55
869.105	-15.02
869.279	27.99
869.452	-17.07
869.625	-21.16
869.799	21.84
869.972	-39.59
870.145	19.8
870.319	-35.5
870.492	66.9
870.665	25.94
870.838	-37.55
871.011	46.42
871.185	5.46
871.358	1.37
871.531	7.51
871.704	-78.51
871.877	144.72
872.05	-29.35
872.223	5.46
872.396	36.18
872.569	25.94
872.742	5.46
872.915	1.37
873.088	3.41
873.261	-6.83
873.434	42.32
873.607	77.14
873.78	40.28
873.953	-41.64
874.126	71
874.299	11.61
874.471	-53.93
874.644	75.09
874.817	19.8
874.99	111.96
875.163	27.99
875.335	25.94
875.508	-6.83
875.681	1.37
875.853	25.94
876.026	50.52
876.199	42.32
876.371	42.32
876.544	13.65
876.717	23.89
876.889	42.32
877.062	-35.5
877.234	36.18
877.407	7.51
877.579	25.94
877.752	-19.11
877.924	13.65
878.097	-21.16
878.269	-45.74
878.442	1.37
878.614	68.95
878.786	79.19
878.959	-21.16
879.131	-4.78
879.303	-6.83
879.476	25.94
879.648	52.56
879.82	66.9
879.993	-12.97
880.165	25.94
880.337	27.99
880.509	-31.4
880.681	-6.83
880.854	48.47
881.026	34.13
881.198	68.95
881.37	27.99
881.542	66.9
881.714	-47.79
881.886	52.56
882.058	7.51
882.23	-37.55
882.402	1.37
882.574	27.99
882.746	34.13
882.918	34.13
883.09	19.8
883.262	30.04
883.434	1.37
883.606	27.99
883.778	19.8
883.95	44.37
884.122	-47.79
884.293	62.8
884.465	11.61
884.637	13.65
884.809	-21.16
884.98	9.56
885.152	3.41
885.324	17.75
885.496	58.71
885.667	-4.78
885.839	-0.68
886.011	116.05
886.182	15.7
886.354	91.48
886.525	114
886.697	-45.74
886.869	9.56
887.04	-45.74
887.212	-41.64
887.383	95.57
887.555	34.13
887.726	-15.02
887.897	-47.79
888.069	27.99
888.24	52.56
888.412	30.04
888.583	-43.69
888.754	-6.83
888.926	-35.5
889.097	-15.02
889.268	9.56
889.44	34.13
889.611	21.84
889.782	1.37
889.953	48.47
890.125	52.56
890.296	5.46
890.467	-15.02
890.638	9.56
890.809	-55.98
890.98	9.56
891.151	58.71
891.323	87.38
891.494	116.05
891.665	-8.87
891.836	-0.68
892.007	-6.83
892.178	40.28
892.349	52.56
892.52	50.52
892.691	1.37
892.862	9.56
893.032	11.61
893.203	19.8
893.374	-15.02
893.545	34.13
893.716	3.41
893.887	58.71
894.057	-66.22
894.228	9.56
894.399	-47.79
894.57	54.61
894.74	52.56
894.911	5.46
895.082	5.46
895.253	68.95
895.423	-12.97
895.594	116.05
895.764	23.89
895.935	-10.92
896.106	17.75
896.276	25.94
896.447	27.99
896.617	-29.35
896.788	25.94
896.958	27.99
897.129	-6.83
897.299	-37.55
897.47	1.37
897.64	58.71
897.81	-15.02
897.981	-17.07
898.151	-33.45
898.322	17.75
898.492	5.46
898.662	-47.79
898.832	3.41
899.003	36.18
899.173	-0.68
899.343	-0.68
899.513	34.13
