Data from USB4F104151__239__14-45-45-244.txt Node

Date: Thu Mar 13 14:45:45 EDT 2025
User: louis
Spectrometer: USB4F10415
Trigger mode: 4
Integration Time (sec): 2.000000E-2
Scans to average: 1
Electric dark correction enabled: true
Nonlinearity correction enabled: false
Boxcar width: 0
XAxis mode: Wavelengths
Number of Pixels in Spectrum: 3648
>>>>>Begin Spectral Data<<<<<
178.204	-151.38
178.424	-151.38
178.644	-151.38
178.864	-73.56
179.084	-126.8
179.304	4.27
179.524	-48.98
179.744	12.46
179.964	16.55
180.184	-14.17
180.404	-32.6
180.624	34.99
180.844	61.61
181.064	-73.56
181.283	-20.31
181.503	0.17
181.723	59.56
181.943	-38.74
182.163	24.75
182.383	-12.12
182.602	37.03
182.822	-8.02
183.042	-30.55
183.262	-30.55
183.482	0.17
183.701	-32.6
183.921	12.46
184.141	-40.79
184.361	16.55
184.58	26.79
184.8	28.84
185.02	-16.21
185.239	24.75
185.459	-69.46
185.679	45.23
185.898	0.17
186.118	110.76
186.338	55.47
186.557	0.17
186.777	-22.36
186.997	-34.64
187.216	-12.12
187.436	-30.55
187.655	43.18
187.875	37.03
188.095	30.89
188.314	8.36
188.534	67.75
188.753	-69.46
188.973	-22.36
189.192	75.95
189.412	45.23
189.631	32.94
189.851	57.51
190.07	123.05
190.29	18.6
190.509	41.13
190.729	-3.93
190.948	114.86
191.168	133.29
191.387	61.61
191.607	53.42
191.826	18.6
192.045	20.65
192.265	118.95
192.484	6.31
192.704	-8.02
192.923	-20.31
193.142	125.1
193.362	2.22
193.581	10.41
193.8	41.13
194.02	4.27
194.239	-3.93
194.458	20.65
194.678	57.51
194.897	2.22
195.116	-38.74
195.335	-32.6
195.555	2.22
195.774	2.22
195.993	-36.69
196.212	-104.28
196.432	-79.7
196.651	-36.69
196.87	24.75
197.089	49.32
197.308	53.42
197.528	-16.21
197.747	-16.21
197.966	0.17
198.185	6.31
198.404	4.27
198.623	67.75
198.842	10.41
199.062	2.22
199.281	94.38
199.5	16.55
199.719	73.9
199.938	49.32
200.157	57.51
200.376	77.99
200.595	57.51
200.814	20.65
201.033	18.6
201.252	18.6
201.471	32.94
201.69	32.94
201.909	24.75
202.128	26.79
202.347	24.75
202.566	-44.88
202.785	-8.02
203.004	-28.5
203.223	75.95
203.442	-26.45
203.661	-8.02
203.879	51.37
204.098	18.6
204.317	-42.84
204.536	98.47
204.755	84.14
204.974	-5.97
205.193	8.36
205.411	16.55
205.63	73.9
205.849	14.51
206.068	24.75
206.287	51.37
206.505	129.19
206.724	-8.02
206.943	-42.84
207.162	-20.31
207.381	24.75
207.599	22.7
207.818	-8.02
208.037	-46.93
208.255	-46.93
208.474	30.89
208.693	0.17
208.911	57.51
209.13	10.41
209.349	77.99
209.567	108.71
209.786	41.13
210.005	8.36
210.223	108.71
210.442	16.55
210.661	39.08
210.879	37.03
211.098	0.17
211.316	-53.08
211.535	0.17
211.753	10.41
211.972	20.65
212.191	-8.02
212.409	-36.69
212.628	-5.97
212.846	51.37
213.065	-12.12
213.283	90.28
213.502	-36.69
213.72	34.99
213.938	12.46
214.157	98.47
214.375	34.99
214.594	-32.6
214.812	2.22
215.031	-42.84
215.249	-32.6
215.467	-14.17
215.686	-16.21
215.904	84.14
216.122	-53.08
216.341	12.46
216.559	14.51
216.778	-36.69
216.996	32.94
217.214	-16.21
217.432	0.17
217.651	51.37
217.869	-16.21
218.087	-46.93
218.306	-77.65
218.524	28.84
218.742	-20.31
218.96	49.32
219.179	47.27
219.397	-14.17
219.615	37.03
219.833	67.75
220.051	-51.03
220.27	41.13
220.488	51.37
220.706	0.17
220.924	-16.21
221.142	26.79
221.36	-24.4
221.578	88.23
221.796	59.56
222.015	100.52
222.233	0.17
222.451	39.08
222.669	10.41
222.887	41.13
223.105	-32.6
223.323	-30.55
223.541	-40.79
223.759	0.17
223.977	30.89
224.195	37.03
224.413	39.08
224.631	34.99
224.849	34.99
225.067	49.32
225.285	16.55
225.503	4.27
225.721	-44.88
225.939	24.75
226.157	28.84
226.375	106.67
226.592	-14.17
226.81	59.56
227.028	8.36
227.246	49.32
227.464	57.51
227.682	43.18
227.9	26.79
228.117	73.9
228.335	61.61
228.553	-46.93
228.771	59.56
228.989	-3.93
229.206	10.41
229.424	16.55
229.642	47.27
229.86	-16.21
230.077	53.42
230.295	69.8
230.513	77.99
230.731	-30.55
230.948	114.86
231.166	45.23
231.384	59.56
231.601	55.47
231.819	-14.17
232.037	65.71
232.254	-18.26
232.472	37.03
232.689	43.18
232.907	-48.98
233.125	24.75
233.342	-28.5
233.56	12.46
233.777	26.79
233.995	-16.21
234.213	-3.93
234.43	30.89
234.648	8.36
234.865	4.27
235.083	26.79
235.3	22.7
235.518	2.22
235.735	41.13
235.953	65.71
236.17	37.03
236.388	22.7
236.605	-24.4
236.822	53.42
237.04	24.75
237.257	-8.02
237.475	2.22
237.692	53.42
237.909	-5.97
238.127	-16.21
238.344	-48.98
238.562	6.31
238.779	6.31
238.996	-48.98
239.214	43.18
239.431	-24.4
239.648	-16.21
239.865	-20.31
240.083	0.17
240.3	-53.08
240.517	-24.4
240.735	53.42
240.952	24.75
241.169	49.32
241.386	24.75
241.603	-36.69
241.821	32.94
242.038	77.99
242.255	-24.4
242.472	-32.6
242.689	51.37
242.907	98.47
243.124	20.65
243.341	26.79
243.558	-36.69
243.775	65.71
243.992	34.99
244.209	98.47
244.426	131.24
244.643	22.7
244.86	18.6
245.078	41.13
245.295	49.32
245.512	59.56
245.729	2.22
245.946	69.8
246.163	-3.93
246.38	32.94
246.597	-22.36
246.814	-16.21
247.031	-1.88
247.248	12.46
247.464	0.17
247.681	45.23
247.898	55.47
248.115	-8.02
248.332	-16.21
248.549	47.27
248.766	53.42
248.983	-40.79
249.2	-3.93
249.417	65.71
249.633	-20.31
249.85	43.18
250.067	32.94
250.284	59.56
250.501	43.18
250.717	-20.31
250.934	41.13
251.151	-5.97
251.368	8.36
251.585	41.13
251.801	0.17
252.018	-40.79
252.235	20.65
252.451	8.36
252.668	-30.55
252.885	-8.02
253.102	-3.93
253.318	34.99
253.535	106.67
253.752	45.23
253.968	0.17
254.185	-5.97
254.401	-5.97
254.618	90.28
254.835	-38.74
255.051	16.55
255.268	90.28
255.484	2.22
255.701	28.84
255.917	2.22
256.134	-24.4
256.351	2.22
256.567	-87.89
256.784	6.31
257	-18.26
257.217	82.09
257.433	16.55
257.65	73.9
257.866	8.36
258.082	-16.21
258.299	-61.27
258.515	0.17
258.732	-12.12
258.948	32.94
259.165	53.42
259.381	26.79
259.597	-10.07
259.814	-53.08
260.03	51.37
260.246	55.47
260.463	82.09
260.679	61.61
260.895	-40.79
261.112	-3.93
261.328	-3.93
261.544	-26.45
261.761	55.47
261.977	24.75
262.193	-36.69
262.409	0.17
262.626	16.55
262.842	-14.17
263.058	2.22
263.274	57.51
263.49	-24.4
263.707	45.23
263.923	16.55
264.139	-32.6
264.355	-10.07
264.571	10.41
264.787	20.65
265.004	106.67
265.22	49.32
265.436	41.13
265.652	73.9
265.868	57.51
266.084	-36.69
266.3	34.99
266.516	12.46
266.732	57.51
266.948	32.94
267.164	-8.02
267.38	-1.88
267.596	-8.02
267.812	92.33
268.028	51.37
268.244	-69.46
268.46	-8.02
268.676	-38.74
268.892	125.1
269.108	24.75
269.324	-5.97
269.54	20.65
269.756	-5.97
269.972	-57.17
270.188	-46.93
270.403	-24.4
270.619	86.19
270.835	-26.45
271.051	-3.93
271.267	12.46
271.483	-16.21
271.698	37.03
271.914	-22.36
272.13	32.94
272.346	16.55
272.562	45.23
272.777	8.36
272.993	-44.88
273.209	59.56
273.425	39.08
273.64	34.99
273.856	24.75
274.072	73.9
274.287	-40.79
274.503	108.71
274.719	41.13
274.934	22.7
275.15	-46.93
275.366	18.6
275.581	-16.21
275.797	24.75
276.012	-16.21
276.228	-8.02
276.444	14.51
276.659	73.9
276.875	-57.17
277.09	18.6
277.306	69.8
277.521	-8.02
277.737	34.99
277.952	10.41
278.168	2.22
278.383	26.79
278.599	-24.4
278.814	30.89
279.03	43.18
279.245	41.13
279.461	43.18
279.676	77.99
279.892	-67.41
280.107	57.51
280.322	-22.36
280.538	-20.31
280.753	12.46
280.969	32.94
281.184	63.66
281.399	6.31
281.615	55.47
281.83	51.37
282.045	-94.04
282.26	0.17
282.476	16.55
282.691	-48.98
282.906	67.75
283.122	-40.79
283.337	8.36
283.552	30.89
283.767	-48.98
283.983	-1.88
284.198	-14.17
284.413	65.71
284.628	-24.4
284.843	24.75
285.058	43.18
285.274	18.6
285.489	61.61
285.704	34.99
285.919	-20.31
286.134	-3.93
286.349	-48.98
286.564	-8.02
286.779	49.32
286.995	-10.07
287.21	10.41
287.425	-3.93
287.64	-14.17
287.855	75.95
288.07	32.94
288.285	55.47
288.5	-26.45
288.715	51.37
288.93	-32.6
289.145	-8.02
289.36	-32.6
289.575	32.94
289.79	49.32
290.004	2.22
290.219	0.17
290.434	53.42
290.649	12.46
290.864	-63.32
291.079	28.84
291.294	28.84
291.509	-36.69
291.724	18.6
291.938	-59.22
292.153	-34.64
292.368	18.6
292.583	49.32
292.798	57.51
293.012	49.32
293.227	106.67
293.442	106.67
293.657	82.09
293.871	-16.21
294.086	100.52
294.301	82.09
294.516	94.38
294.73	41.13
294.945	-63.32
295.16	65.71
295.374	2.22
295.589	61.61
295.804	-46.93
296.018	32.94
296.233	-1.88
296.447	28.84
296.662	24.75
296.877	-16.21
297.091	116.9
297.306	10.41
297.52	32.94
297.735	28.84
297.949	49.32
298.164	0.17
298.378	28.84
298.593	28.84
298.807	41.13
299.022	90.28
299.236	-20.31
299.451	24.75
299.665	73.9
299.88	0.17
300.094	10.41
300.309	65.71
300.523	55.47
300.737	-40.79
300.952	-12.12
301.166	14.51
301.381	-85.84
301.595	0.17
301.809	8.36
302.024	57.51
302.238	-14.17
302.452	16.55
302.667	-16.21
302.881	10.41
303.095	-22.36
303.309	32.94
303.524	22.7
303.738	20.65
303.952	8.36
304.166	100.52
304.381	-112.47
304.595	55.47
304.809	16.55
305.023	59.56
305.237	49.32
305.452	-46.93
305.666	28.84
305.88	49.32
306.094	-81.75
306.308	49.32
306.522	24.75
306.736	94.38
306.95	34.99
307.164	61.61
307.379	49.32
307.593	102.57
307.807	10.41
308.021	37.03
308.235	108.71
308.449	53.42
308.663	49.32
308.877	77.99
309.091	24.75
309.305	80.04
309.519	-40.79
309.733	98.47
309.947	-24.4
310.161	82.09
310.374	-12.12
310.588	16.55
310.802	-69.46
311.016	43.18
311.23	-28.5
311.444	-24.4
311.658	14.51
311.872	-20.31
312.085	75.95
312.299	57.51
312.513	12.46
312.727	22.7
312.941	-5.97
313.154	8.36
313.368	143.53
313.582	84.14
313.796	8.36
314.009	-46.93
314.223	71.85
314.437	18.6
314.651	18.6
314.864	24.75
315.078	32.94
315.292	65.71
315.505	32.94
315.719	-32.6
315.933	24.75
316.146	-38.74
316.36	41.13
316.573	73.9
316.787	49.32
317.001	65.71
317.214	0.17
317.428	24.75
317.641	-12.12
317.855	24.75
318.068	4.27
318.282	16.55
318.495	77.99
318.709	51.37
318.922	-28.5
319.136	106.67
319.349	-22.36
319.563	12.46
319.776	51.37
319.99	57.51
320.203	16.55
320.417	41.13
320.63	65.71
320.843	8.36
321.057	10.41
321.27	65.71
321.483	73.9
321.697	-8.02
321.91	-57.17
322.124	-8.02
322.337	-16.21
322.55	32.94
322.763	-14.17
322.977	59.56
323.19	10.41
323.403	59.56
323.617	-24.4
323.83	41.13
324.043	-32.6
324.256	-8.02
324.469	-3.93
324.683	45.23
324.896	55.47
325.109	67.75
325.322	-8.02
325.535	41.13
325.748	37.03
325.962	0.17
326.175	-8.02
326.388	75.95
326.601	49.32
326.814	45.23
327.027	53.42
327.24	32.94
327.453	-48.98
327.666	32.94
327.879	49.32
328.092	-12.12
328.305	32.94
328.518	86.19
328.731	-40.79
328.944	2.22
329.157	82.09
329.37	43.18
329.583	77.99
329.796	57.51
330.009	2.22
330.222	69.8
330.435	49.32
330.648	-3.93
330.861	-16.21
331.073	12.46
331.286	16.55
331.499	2.22
331.712	-36.69
331.925	57.51
332.138	-71.51
332.35	0.17
332.563	-36.69
332.776	65.71
332.989	22.7
333.202	14.51
333.414	67.75
333.627	8.36
333.84	86.19
334.053	65.71
334.265	20.65
334.478	16.55
334.691	51.37
334.903	26.79
335.116	10.41
335.329	32.94
335.541	24.75
335.754	12.46
335.966	49.32
336.179	43.18
336.392	104.62
336.604	-36.69
336.817	20.65
337.029	-65.36
337.242	-12.12
337.454	88.23
337.667	43.18
337.88	67.75
338.092	-63.32
338.305	45.23
338.517	32.94
338.729	98.47
338.942	49.32
339.154	32.94
339.367	49.32
339.579	28.84
339.792	-16.21
340.004	41.13
340.217	8.36
340.429	53.42
340.641	-42.84
340.854	-55.12
341.066	-59.22
341.278	98.47
341.491	0.17
341.703	-40.79
341.915	-36.69
342.128	18.6
342.34	65.71
342.552	-24.4
342.764	20.65
342.977	53.42
343.189	-1.88
343.401	24.75
343.613	-96.08
343.826	65.71
344.038	8.36
344.25	22.7
344.462	41.13
344.674	-5.97
344.886	34.99
345.099	57.51
345.311	77.99
345.523	-5.97
345.735	14.51
345.947	65.71
346.159	59.56
346.371	53.42
346.583	14.51
346.795	8.36
347.007	4.27
347.219	77.99
347.431	45.23
347.643	80.04
347.855	-30.55
348.067	77.99
348.279	26.79
348.491	-53.08
348.703	26.79
348.915	-20.31
349.127	32.94
349.339	65.71
349.551	-1.88
349.763	41.13
349.975	32.94
350.187	0.17
350.399	123.05
350.61	0.17
350.822	-16.21
351.034	43.18
351.246	65.71
351.458	45.23
351.669	84.14
351.881	92.33
352.093	34.99
352.305	84.14
352.517	86.19
352.728	92.33
352.94	37.03
353.152	28.84
353.363	0.17
353.575	16.55
353.787	69.8
353.999	16.55
354.21	-8.02
354.422	43.18
354.633	39.08
354.845	82.09
355.057	123.05
355.268	41.13
355.48	73.9
355.692	12.46
355.903	32.94
356.115	-3.93
356.326	-30.55
356.538	-32.6
356.749	0.17
356.961	75.95
357.172	24.75
357.384	-30.55
357.595	20.65
357.807	82.09
358.018	-81.75
358.23	49.32
358.441	24.75
358.653	32.94
358.864	4.27
359.075	24.75
359.287	57.51
359.498	106.67
359.709	28.84
359.921	-8.02
360.132	53.42
360.344	96.43
360.555	28.84
360.766	16.55
360.977	-22.36
361.189	8.36
361.4	39.08
361.611	73.9
361.823	135.34
362.034	30.89
362.245	-14.17
362.456	18.6
362.667	30.89
362.879	8.36
363.09	0.17
363.301	92.33
363.512	49.32
363.723	41.13
363.935	-20.31
364.146	123.05
364.357	57.51
364.568	41.13
364.779	-40.79
364.99	149.67
365.201	41.13
365.412	73.9
365.623	12.46
365.834	45.23
366.045	77.99
366.256	18.6
366.467	53.42
366.678	-38.74
366.889	65.71
367.1	41.13
367.311	32.94
367.522	-46.93
367.733	41.13
367.944	118.95
368.155	37.03
368.366	139.43
368.577	96.43
368.788	86.19
368.999	53.42
369.209	53.42
369.42	116.9
369.631	49.32
369.842	-16.21
370.053	-36.69
370.264	77.99
370.474	51.37
370.685	73.9
370.896	-81.75
371.107	55.47
371.317	30.89
371.528	-59.22
371.739	32.94
371.95	26.79
372.16	16.55
372.371	-28.5
372.582	32.94
372.792	32.94
373.003	49.32
373.214	57.51
373.424	49.32
373.635	6.31
373.846	123.05
374.056	18.6
374.267	-3.93
374.477	53.42
374.688	-14.17
374.898	75.95
375.109	45.23
375.319	106.67
375.53	24.75
375.74	69.8
375.951	61.61
376.161	96.43
376.372	96.43
376.582	41.13
376.793	92.33
377.003	43.18
377.214	73.9
377.424	0.17
377.635	39.08
377.845	-5.97
378.055	57.51
378.266	24.75
378.476	61.61
378.686	96.43
378.897	57.51
379.107	16.55
379.317	82.09
379.528	-24.4
379.738	67.75
379.948	34.99
380.158	-16.21
380.369	63.66
380.579	28.84
380.789	28.84
380.999	92.33
381.21	20.65
381.42	168.1
381.63	-12.12
381.84	116.9
382.05	34.99
382.261	43.18
382.471	20.65
382.681	37.03
382.891	98.47
383.101	34.99
383.311	-24.4
383.521	10.41
383.731	28.84
383.941	65.71
384.151	20.65
384.361	16.55
384.571	-12.12
384.781	98.47
384.991	73.9
385.201	20.65
385.411	92.33
385.621	73.9
385.831	2.22
386.041	22.7
386.251	86.19
386.461	73.9
386.671	73.9
386.881	37.03
387.091	-18.26
387.301	100.52
387.511	61.61
387.72	-5.97
387.93	-36.69
388.14	10.41
388.35	-3.93
388.56	28.84
388.769	75.95
388.979	61.61
389.189	-8.02
389.399	16.55
389.609	65.71
389.818	118.95
390.028	84.14
390.238	43.18
390.447	24.75
390.657	34.99
390.867	51.37
391.076	0.17
391.286	75.95
391.496	55.47
391.705	24.75
391.915	75.95
392.125	51.37
392.334	69.8
392.544	98.47
392.753	73.9
392.963	71.85
393.172	61.61
393.382	24.75
393.591	151.72
393.801	73.9
394.01	131.24
394.22	-8.02
394.429	-8.02
394.639	32.94
394.848	94.38
395.058	-10.07
395.267	123.05
395.477	65.71
395.686	43.18
395.895	114.86
396.105	82.09
396.314	75.95
396.524	59.56
396.733	59.56
396.942	73.9
397.152	90.28
397.361	73.9
397.57	118.95
397.78	32.94
397.989	98.47
398.198	51.37
398.407	41.13
398.617	41.13
398.826	118.95
399.035	94.38
399.244	69.8
399.453	77.99
399.663	82.09
399.872	98.47
400.081	100.52
400.29	82.09
400.499	41.13
400.708	133.29
400.917	75.95
401.127	100.52
401.336	100.52
401.545	133.29
401.754	112.81
401.963	106.67
402.172	90.28
402.381	59.56
402.59	2.22
402.799	168.1
403.008	116.9
403.217	147.62
403.426	176.3
403.635	53.42
403.844	118.95
404.053	49.32
404.262	139.43
404.471	198.82
404.68	106.67
404.888	161.96
405.097	98.47
405.306	139.43
405.515	116.9
405.724	188.58
405.933	164.01
406.142	174.25
406.35	147.62
406.559	149.67
406.768	159.91
406.977	213.16
407.185	100.52
407.394	121
407.603	127.14
407.812	215.21
408.02	145.58
408.229	110.76
408.438	254.12
408.646	196.78
408.855	213.16
409.064	190.63
409.272	123.05
409.481	258.21
409.69	280.74
409.898	221.35
410.107	260.26
410.315	211.11
410.524	180.39
410.733	243.88
410.941	266.41
411.15	307.37
411.358	260.26
411.567	340.13
411.775	362.66
411.984	299.17
412.192	272.55
412.401	327.85
412.609	401.57
412.818	407.72
413.026	331.94
413.234	458.92
413.443	436.39
413.651	442.53
413.86	458.92
414.068	518.31
414.276	524.45
414.485	559.27
414.693	624.8
414.901	581.79
415.11	577.7
415.318	520.35
415.526	583.84
415.734	608.42
415.943	589.99
416.151	669.86
416.359	655.52
416.567	704.67
416.776	739.49
416.984	706.72
417.192	802.97
417.4	696.48
417.608	876.7
417.817	786.59
418.025	911.52
418.233	952.48
418.441	909.47
418.649	882.85
418.857	1007.77
419.065	1077.4
419.273	991.39
419.481	1138.84
419.689	1167.51
419.897	1253.53
420.105	1159.32
420.313	1278.1
420.521	1319.06
420.729	1282.2
420.937	1384.6
421.145	1417.37
421.353	1441.94
421.561	1530
421.769	1560.72
421.977	1695.89
422.185	1630.35
422.393	1663.12
422.601	1902.73
422.809	1814.67
423.017	1695.89
423.224	2003.08
423.432	2015.37
423.64	2064.52
423.848	2244.74
424.056	2134.15
424.263	2289.8
424.471	2322.57
424.679	2236.55
424.887	2488.45
425.094	2529.41
425.302	2447.49
425.51	2625.67
425.718	2732.16
425.925	2744.45
426.133	2787.46
426.341	2967.68
426.548	3229.82
426.756	3045.5
426.964	3186.81
427.171	3428.47
427.379	3420.28
427.586	3424.37
427.794	3620.98
428.001	3805.3
428.209	4028.53
428.417	3852.4
428.624	4108.4
428.832	4229.23
429.039	4110.44
429.247	4042.86
429.454	4571.24
429.662	4780.13
429.869	4526.18
430.076	4827.23
430.284	4694.12
430.491	4866.14
430.699	5089.37
430.906	5316.7
431.114	5398.62
431.321	5460.06
431.528	5570.65
431.736	5800.02
431.943	6174.8
432.15	5894.22
432.358	5902.42
432.565	6242.38
432.772	6318.15
432.979	6772.8
433.187	6758.47
433.394	6946.88
433.601	7182.4
433.808	7385.15
434.016	7184.45
434.223	7639.09
434.43	7983.15
434.637	7862.32
434.844	8319.02
435.052	8568.87
435.259	8378.41
435.466	8456.23
435.673	8364.08
435.88	8874.02
436.087	9414.68
436.294	9566.23
436.501	9338.91
436.708	9584.66
436.915	9580.57
437.122	10317.84
437.329	10166.29
437.537	10278.93
437.743	10813.45
437.95	10424.33
438.157	11214.85
438.364	11354.11
438.571	11624.44
438.778	11368.45
438.985	12691.43
439.192	12124.15
439.399	12374
439.606	12281.84
439.813	12910.57
440.02	13744.09
440.227	13277.15
440.433	13031.4
440.64	13852.63
440.847	13484
441.054	14045.14
441.261	14979.01
441.467	14680.01
441.674	15060.93
441.881	15607.74
442.088	15372.22
442.294	15505.34
442.501	15822.78
442.708	16150.45
442.914	16678.83
443.121	17442.72
443.328	17074.09
443.534	18075.54
443.741	17893.27
443.948	17579.93
444.154	18431.89
444.361	18620.3
444.568	18601.87
444.774	18554.77
444.981	18870.15
445.187	19263.36
445.394	20023.16
445.6	20094.84
445.807	21940.06
446.013	21063.53
446.22	21292.9
446.426	22075.23
446.633	22493.01
446.839	23220.04
447.046	22163.29
447.252	23457.6
447.459	23660.35
447.665	23766.85
447.871	24692.53
448.078	25489.19
448.284	24393.53
448.491	25233.19
448.697	25650.98
448.903	26597.14
449.11	26537.75
449.316	26089.24
449.522	26767.12
449.728	27354.89
449.935	27651.84
450.141	27557.64
450.347	27981.57
450.553	27485.96
450.76	27737.86
450.966	28536.57
451.172	28356.35
451.378	28991.22
451.584	28503.8
451.791	29032.18
451.997	29050.61
452.203	29740.77
452.409	29554.41
452.615	29564.65
452.821	28444.41
453.027	28002.05
453.233	29763.3
453.44	28489.46
453.646	28761.84
453.852	28894.96
454.058	29015.79
454.264	28507.9
454.47	29144.81
454.676	28536.57
454.882	29583.08
455.088	26967.82
455.294	27135.76
455.5	27754.24
455.705	28145.41
455.911	26742.55
456.117	26734.35
456.323	25902.88
456.529	24735.54
456.735	25900.83
456.941	25272.11
457.147	24751.92
457.352	23934.78
457.558	23748.42
457.764	23863.1
457.97	23330.63
458.176	22863.69
458.381	23058.25
458.587	21755.74
458.793	21808.99
458.999	20811.63
459.204	22302.55
459.41	21749.6
459.616	20064.12
459.821	19996.54
460.027	20166.52
460.233	19634.05
460.438	18823.05
460.644	19124.1
460.85	18196.37
461.055	17661.85
461.261	17774.49
461.466	16340.91
461.672	16269.23
461.878	17190.82
462.083	15933.37
462.289	16037.81
462.494	15628.22
462.7	15126.47
462.905	14688.2
463.111	14972.87
463.316	15204.29
463.522	14999.49
463.727	14704.59
463.932	14766.03
464.138	14663.63
464.343	14417.87
464.549	14475.21
464.754	14682.06
464.959	14372.82
465.165	14286.8
465.37	13737.95
465.575	13756.38
465.781	13920.21
465.986	14151.63
466.191	13727.71
466.397	13311.97
466.602	12822.5
466.807	12953.57
467.012	13254.62
467.218	13103.07
467.423	12855.27
467.628	12885.99
467.833	13559.77
468.038	13070.31
468.244	12906.47
468.449	13484
468.654	12836.84
468.859	12640.23
469.064	12689.39
469.269	12302.32
469.474	12193.78
469.679	12617.71
469.885	12130.29
470.09	12058.61
470.295	12142.58
470.5	11962.36
470.705	12085.23
470.91	11806.71
471.115	11460.6
471.32	11888.63
471.525	11743.22
471.73	11354.11
471.935	11509.76
472.139	10909.7
472.344	11337.73
472.549	10993.67
472.754	10733.57
472.959	10584.07
473.164	10496.01
473.369	10242.06
473.574	10821.64
473.778	10340.36
473.983	10565.64
474.188	10715.14
474.393	10067.99
474.598	10031.12
474.802	9758.74
475.007	9883.67
475.212	9971.73
475.417	9744.41
475.621	9611.29
475.826	9717.78
476.031	9453.59
476.235	9347.1
476.44	9357.34
476.645	9177.12
476.849	9283.61
477.054	9041.95
477.259	8953.89
477.463	9044
477.668	8765.48
477.872	8695.85
478.077	8609.83
478.282	8536.1
478.486	8486.95
478.691	8370.22
478.895	8427.56
479.1	8458.28
479.304	8427.56
479.509	8155.18
479.713	8417.32
479.918	8120.37
480.122	8071.22
480.326	8200.24
480.531	8165.42
480.735	8022.06
480.94	7913.52
481.144	8163.37
481.348	7802.93
481.553	7858.23
481.757	7770.16
481.961	7847.99
482.166	7766.07
482.37	7882.8
482.574	7561.27
482.778	7764.02
482.983	7944.24
483.187	7835.7
483.391	7749.68
483.595	7764.02
483.8	7860.27
484.004	7628.85
484.208	7798.84
484.412	7782.45
484.616	7845.94
484.821	7807.03
485.025	7589.94
485.229	7866.42
485.433	7524.41
485.637	7702.58
485.841	7651.38
486.045	7692.34
486.249	7802.93
486.453	7526.46
486.657	7612.47
486.861	7835.7
487.065	7579.7
487.269	7589.94
487.473	7675.96
487.677	7884.85
487.881	7852.08
488.085	7704.63
488.289	7940.15
488.493	7823.41
488.697	7956.53
488.901	7766.07
489.105	7938.1
489.309	7841.84
489.512	7907.38
489.716	8030.26
489.92	7671.86
490.124	7921.71
490.328	8042.54
490.531	8036.4
490.735	8022.06
490.939	8093.74
491.143	7868.47
491.346	7983.15
491.55	7913.52
491.754	8337.45
491.958	8185.9
492.161	8177.71
492.365	8106.03
492.569	8185.9
492.772	8095.79
492.976	8415.27
493.18	8335.4
493.383	8538.15
493.587	8503.34
493.79	8421.42
493.994	8577.06
494.197	8429.61
494.401	8765.48
494.605	8806.44
494.808	8720.42
495.012	8943.65
495.215	8855.59
495.419	8882.21
495.622	8982.56
495.825	9113.63
496.029	9134.11
496.232	9119.78
496.436	9185.31
496.639	9367.58
496.843	9347.1
497.046	9547.8
497.249	9674.78
497.453	9650.2
497.656	9918.48
497.859	9707.54
498.063	9938.96
498.266	10041.36
498.469	10268.69
498.673	10299.41
498.876	10455.05
499.079	10563.59
499.282	10561.55
499.485	10833.93
499.689	10842.12
499.892	11055.11
500.095	11116.55
500.298	11309.05
500.501	11108.35
500.705	11509.76
500.908	11681.78
501.111	11739.13
501.314	11884.53
501.517	11841.53
501.72	12064.75
501.923	12167.15
502.126	12427.25
502.329	12543.98
502.532	12732.39
502.735	12656.62
502.938	13098.98
503.141	12924.9
503.344	13074.4
503.547	13320.16
503.75	13713.37
503.953	13635.55
504.156	13846.49
504.359	14018.52
504.562	13957.08
504.765	14311.38
504.968	14520.27
505.17	14559.18
505.373	14645.2
505.576	14864.33
505.779	15142.85
505.982	14852.04
506.185	15615.93
506.387	15577.02
506.59	15712.19
506.793	16052.15
506.996	15765.43
507.198	16457.65
507.401	16285.62
507.604	16779.18
507.807	16717.74
508.009	17151.91
508.212	16902.06
508.415	17178.53
508.617	17532.83
508.82	17524.64
509.022	17543.07
509.225	18003.86
509.428	18083.73
509.63	18120.6
509.833	18427.79
510.035	18743.18
510.238	18677.65
510.44	18974.6
510.643	19103.62
510.845	19603.33
511.048	19228.55
511.25	19683.2
511.453	19693.44
511.655	20838.25
511.858	20393.84
512.06	20336.5
512.262	20721.52
512.465	20553.59
512.667	21153.64
512.87	21280.61
513.072	21493.6
513.274	21808.99
513.477	21958.49
513.679	22001.5
513.881	22392.66
514.084	22544.21
514.286	22511.44
514.488	22742.86
514.69	23539.52
514.893	23473.99
515.095	23387.97
515.297	23750.46
515.499	24190.78
515.701	24454.97
515.904	24520.5
516.106	24471.35
516.308	24975.15
516.51	25141.04
516.712	25231.15
516.914	25519.91
517.116	25915.17
517.318	26005.28
517.52	25841.44
517.722	26134.3
517.925	26484.5
518.127	27211.53
518.329	26971.92
518.531	27064.08
518.733	27518.73
518.935	27535.11
519.136	27643.65
519.338	28327.67
519.54	28112.64
519.742	28962.54
519.944	28808.95
520.146	29122.29
520.348	29130.48
520.55	29165.29
520.752	29515.5
520.954	29867.75
521.155	29918.95
521.357	30453.47
521.559	30404.31
521.761	31006.42
521.963	31045.33
522.164	30889.68
522.366	31243.98
522.568	31493.83
522.77	31612.62
522.971	31966.91
523.173	31600.33
523.375	32069.31
523.576	32345.79
523.778	32237.25
523.98	32681.66
524.181	33017.52
524.383	33431.21
524.584	33437.36
524.786	33308.33
524.988	33111.73
525.189	34027.17
525.391	33650.35
525.592	33830.57
525.794	34264.74
525.995	33967.78
526.197	34346.65
526.398	34533.02
526.6	34471.58
526.801	34942.61
527.003	34829.98
527.204	34985.62
527.406	35124.88
527.607	35438.22
527.808	35561.1
528.01	34973.33
528.211	35276.43
528.412	35673.74
528.614	35591.82
528.815	35741.32
529.016	36214.4
529.218	35858.06
529.419	36214.4
529.62	36048.52
529.822	35858.06
530.023	35923.59
530.224	36058.76
530.425	36247.17
530.626	36191.87
530.828	36097.67
531.029	37160.56
531.23	36324.99
531.431	36572.8
531.632	36789.88
531.833	37047.93
532.035	36722.3
532.236	37006.97
532.437	36804.22
532.638	36828.79
532.839	36959.86
533.04	37125.75
533.241	36664.96
533.442	37148.28
533.643	37056.12
533.844	36679.29
534.045	37166.71
534.246	36826.74
534.447	37047.93
534.648	37156.47
534.849	36957.81
535.05	36781.69
535.251	36984.44
535.451	36984.44
535.652	37541.49
535.853	37070.45
536.054	36804.22
536.255	37092.98
536.456	36300.42
536.657	37557.87
536.857	36904.57
537.058	37285.49
537.259	37074.55
537.46	37025.4
537.66	36920.95
537.861	37379.7
538.062	36937.34
538.263	37090.93
538.463	37244.53
538.664	37140.08
538.865	37359.22
539.065	37166.71
539.266	36570.75
539.466	37189.24
539.667	36980.34
539.868	37148.28
540.068	37105.27
540.269	37285.49
540.469	36982.39
540.67	37277.3
540.87	37187.19
541.071	37117.56
541.271	37234.29
541.472	37224.05
541.672	37035.64
541.873	36738.68
542.073	36773.5
542.274	37228.15
542.474	37031.54
542.675	36550.27
542.875	36836.98
543.075	37262.96
543.276	36777.59
543.476	37072.5
543.676	36759.16
543.877	37426.8
544.077	36687.48
544.277	36802.17
544.478	36648.57
544.678	36808.31
544.878	37064.31
545.078	37162.61
545.279	36800.12
545.479	36753.02
545.679	37213.81
545.879	36570.75
546.079	36482.69
546.28	36947.57
546.48	36873.85
546.68	36755.07
546.88	36943.48
547.08	37127.8
547.28	36789.88
547.48	36671.1
547.68	36480.64
547.88	36636.28
548.081	36736.63
548.281	36669.05
548.481	36613.76
548.681	37369.46
548.881	36699.77
549.081	36968.05
549.28	36722.3
549.48	36730.49
549.68	36767.35
549.88	37072.5
550.08	36787.83
550.28	36617.85
550.48	36402.82
550.68	36771.45
550.88	36812.41
551.08	36554.36
551.279	36607.61
551.479	36507.26
551.679	36408.96
551.879	36333.18
552.079	36918.9
552.278	36550.27
552.478	36605.56
552.678	36234.88
552.878	36501.12
553.077	36519.55
553.277	36189.83
553.477	36671.1
553.676	36400.77
553.876	36234.88
554.076	36132.48
554.275	36349.57
554.475	35815.05
554.674	36218.5
554.874	36296.32
555.074	36370.05
555.273	35968.65
555.473	35923.59
555.672	36005.51
555.872	35796.62
556.071	36036.23
556.271	36101.76
556.47	35911.3
556.67	35581.58
556.869	35993.22
557.068	36114.05
557.268	35851.91
557.467	36032.13
557.667	35606.16
557.866	36025.99
558.065	35393.17
558.265	35645.07
558.464	35442.32
558.663	35796.62
558.863	35344.02
559.062	35647.11
559.261	35296.91
559.461	35612.3
559.66	34977.43
559.859	35286.67
560.058	35323.54
560.258	35284.62
560.457	35085.97
560.656	35378.83
560.855	34956.95
561.054	35382.93
561.253	34825.88
561.453	34823.83
561.652	35186.32
561.851	35085.97
562.05	34862.74
562.249	34848.41
562.448	35059.35
562.647	34543.26
562.846	34870.93
563.045	34711.19
563.244	34356.89
563.443	34836.12
563.642	34104.99
563.841	34604.7
564.04	34010.79
564.239	34725.53
564.438	33924.77
564.637	34229.92
564.836	34393.76
565.035	33863.33
565.234	34209.44
565.432	33941.16
565.631	33875.62
565.83	33887.91
566.029	33212.08
566.228	34041.51
566.427	33748.65
566.625	33509.04
566.824	33203.89
567.023	33623.72
567.222	32929.46
567.42	33441.45
567.619	33224.37
567.818	33205.94
568.016	33439.4
568.215	33605.29
568.414	33033.91
568.612	33296.05
568.811	32790.2
569.01	33064.63
569.208	32575.16
569.407	33052.34
569.605	32245.44
569.804	32663.22
570.002	32931.51
570.201	32857.78
570.4	32243.39
570.598	32544.44
570.797	32425.66
570.995	32210.62
571.193	32046.79
571.392	32224.96
571.59	32011.97
571.789	31936.2
571.987	31895.24
572.186	31987.39
572.384	31622.86
572.582	31725.25
572.781	31889.09
572.979	31145.68
573.177	31504.07
573.376	31782.6
573.574	31182.54
573.772	31440.59
573.971	30793.43
574.169	30906.07
574.367	30885.59
574.565	31131.34
574.763	30906.07
574.962	30688.98
575.16	30283.48
575.358	30582.49
575.556	30187.23
575.754	30635.74
575.952	30398.17
576.151	30492.38
576.349	30064.35
576.547	30371.55
576.745	30607.06
576.943	30224.09
577.141	30062.3
577.339	29925.09
577.537	29859.56
577.735	30002.91
577.933	29640.42
578.131	29689.57
578.329	29372.14
578.527	29413.1
578.725	29429.48
578.923	29755.11
579.121	29253.36
579.319	29120.24
579.516	28937.97
579.714	29413.1
579.912	28788.47
580.11	28884.72
580.308	28733.17
580.506	28788.47
580.704	28559.09
580.901	28761.84
581.099	28980.98
581.297	27952.9
581.495	28194.56
581.692	28393.21
581.89	28098.3
582.088	28221.18
582.285	28020.48
582.483	28249.85
582.681	27838.21
582.878	28354.3
583.076	27901.7
583.274	28032.77
583.471	27588.36
583.669	27782.91
583.866	27420.42
584.064	28043.01
584.262	27455.24
584.459	27604.74
584.657	27535.11
584.854	27516.68
585.052	27021.07
585.249	27246.35
585.447	27424.52
585.644	26668.82
585.841	26609.43
586.039	27219.72
586.236	26849.04
586.434	26775.31
586.631	26468.12
586.828	26545.94
587.026	26453.78
587.223	26601.24
587.42	26220.31
587.618	26146.59
587.815	26033.95
588.012	26218.27
588.21	25870.11
588.407	26285.85
588.604	25718.56
588.801	25687.84
588.999	25673.51
589.196	25915.17
589.393	25802.53
589.59	25507.62
589.787	25540.39
589.984	25593.64
590.182	25048.88
590.379	25501.48
590.576	24801.07
590.773	25345.83
590.97	24895.28
591.167	25012.01
591.364	24796.98
591.561	24913.71
591.758	24629.04
591.955	24827.7
592.152	24772.4
592.349	24424.25
592.546	24651.57
592.743	24454.97
592.94	24346.42
593.137	24532.79
593.334	24127.29
593.531	23985.98
593.727	24252.22
593.924	24100.67
594.121	23971.64
594.318	23938.88
594.515	23574.34
594.712	23619.39
594.908	23537.48
595.105	23826.24
595.302	23803.71
595.499	23359.3
595.696	23457.6
595.892	23244.62
596.089	23191.37
596.286	23551.81
596.482	23109.45
596.679	23119.69
596.876	23199.56
597.072	23144.27
597.269	23002.96
597.466	22699.86
597.662	22738.77
597.859	22558.55
598.055	22716.24
598.252	22191.96
598.448	22331.22
598.645	22275.93
598.841	22212.44
599.038	22320.98
599.234	22206.3
599.431	21778.27
599.627	22257.5
599.824	22318.93
600.02	21882.72
600.217	21960.54
600.413	21872.48
600.609	21581.67
600.806	21778.27
601.002	21770.08
601.198	21632.86
601.395	21655.39
601.591	21393.25
601.787	21606.24
601.984	21290.85
602.18	21489.51
602.376	21423.97
602.572	21022.57
602.769	21167.98
602.965	20637.55
603.161	21012.33
603.357	20825.96
603.553	20928.36
603.75	21077.87
603.946	20686.7
604.142	20944.75
604.338	20283.25
604.534	20776.81
604.73	20275.06
604.926	20486
605.122	20414.32
605.318	20340.6
605.514	20299.64
605.71	20168.57
605.906	19906.43
606.102	19816.32
606.298	19894.14
606.494	19980.15
606.69	19758.97
606.886	19740.54
607.082	19480.45
607.278	19498.88
607.474	19515.26
607.67	19705.73
607.866	19398.53
608.062	19773.31
608.257	19265.41
608.453	19580.8
608.649	19468.16
608.845	19500.93
609.041	19480.45
609.236	19328.9
609.432	19203.97
609.628	19257.22
609.824	19242.89
610.019	18999.18
610.215	19363.72
610.411	19132.29
610.606	19062.66
610.802	19025.8
610.998	18988.94
611.193	18995.08
611.389	18689.93
611.584	18679.69
611.78	18620.3
611.976	18821
612.171	18786.19
612.367	18589.58
612.562	18487.18
612.758	18300.82
612.953	18335.63
613.149	18532.24
613.344	18329.49
613.539	18694.03
613.735	18481.04
613.93	18362.26
614.126	18173.85
614.321	18405.27
614.517	18266
614.712	18120.6
614.907	18034.58
615.103	18245.52
615.298	17999.77
615.493	18010.01
615.688	17952.66
615.884	17893.27
616.079	17674.14
616.274	17917.85
616.47	17784.73
616.665	18026.39
616.86	17440.67
617.055	17780.64
617.25	17588.13
617.445	17837.98
617.641	17366.95
617.836	17651.61
618.031	17350.56
618.226	17645.47
618.421	17368.99
618.616	17491.87
618.811	17162.15
619.006	17389.47
619.201	16873.39
619.396	17004.46
619.591	16973.74
619.786	16945.06
619.981	16779.18
620.176	16895.91
620.371	16764.84
620.566	16801.71
620.761	16482.22
620.956	16539.57
621.151	16322.48
621.346	16349.11
621.541	16056.25
621.735	16383.92
621.93	15990.71
622.125	16068.53
622.32	15904.7
622.515	15849.4
622.709	16111.54
622.904	15820.73
623.099	15867.83
623.294	15478.72
623.488	15579.07
623.683	15628.22
623.878	15189.95
624.072	15435.71
624.267	15441.86
624.462	15185.86
624.656	14895.05
624.851	14966.73
625.046	14946.25
625.24	14704.59
625.435	14698.44
625.629	14458.83
625.824	14594
626.018	14503.89
626.213	13987.8
626.407	14397.39
626.602	14122.96
626.796	14172.11
626.991	14221.27
627.185	14272.46
627.38	13873.11
627.574	13995.99
627.768	13787.1
627.963	13537.24
628.157	13418.46
628.352	13610.97
628.546	13311.97
628.74	13813.72
628.935	13168.61
629.129	13150.18
629.323	13117.41
629.517	12980.2
629.712	12929
629.906	13062.12
630.1	12740.58
630.294	12951.53
630.489	12681.19
630.683	12677.1
630.877	12484.59
631.071	12546.03
631.265	12683.24
631.459	12503.02
631.653	12269.55
631.848	12404.72
632.042	12122.1
632.236	12369.9
632.43	12304.37
632.624	12177.39
632.818	12054.51
633.012	11964.4
633.206	11759.61
633.4	11864.05
633.594	11763.7
633.788	12107.76
633.982	11659.26
634.176	11642.87
634.369	11649.02
634.563	11327.49
634.757	11429.88
634.951	11470.84
635.145	11374.59
635.339	11440.12
635.533	11362.3
635.726	11206.66
635.92	10858.5
636.114	10979.33
636.308	11014.15
636.501	10889.22
636.695	10985.48
636.889	10688.52
637.083	10618.89
637.276	10764.29
637.47	10545.16
637.664	10536.97
637.857	10541.07
638.051	10428.43
638.244	10313.74
638.438	10532.87
638.632	10444.81
638.825	9943.06
639.019	10223.63
639.212	10086.42
639.406	10110.99
639.599	10012.69
639.793	9895.96
639.986	9740.31
640.18	9760.79
640.373	9777.17
640.567	9539.61
640.76	9719.83
640.954	9750.55
641.147	9334.81
641.34	9490.46
641.534	9386.01
641.727	9437.21
641.92	9318.43
642.114	9340.96
642.307	9293.85
642.5	9431.07
642.694	8988.71
642.887	9232.41
643.08	9244.7
643.273	9035.81
643.467	8970.27
643.66	8937.51
643.853	8794.15
644.046	8894.5
644.239	8900.64
644.432	8693.8
644.626	8683.56
644.819	8775.72
645.012	8745
645.205	8593.45
645.398	8437.8
645.591	8384.55
645.784	8417.32
645.977	8269.87
646.17	8306.73
646.363	8300.59
646.556	8089.65
646.749	8046.64
646.942	8222.77
647.135	8134.7
647.328	7940.15
647.521	8036.4
647.714	7850.03
647.907	8020.02
648.099	7934
648.292	7727.16
648.485	7770.16
648.678	7807.03
648.871	7635
649.064	7663.67
649.256	7675.96
649.449	7637.05
649.642	7422.01
649.835	7532.6
650.027	7512.12
650.22	7465.02
650.413	7473.21
650.605	7348.28
650.798	7116.86
650.991	7256.12
651.183	7041.09
651.376	7163.97
651.568	6959.17
651.761	6981.7
651.954	7036.99
652.146	6969.41
652.339	7024.7
652.531	6983.74
652.724	6858.82
652.916	6856.77
653.109	6809.67
653.301	6709.32
653.494	6819.91
653.686	6754.37
653.879	6688.84
654.071	6611.01
654.263	6672.45
654.456	6678.6
654.648	6406.22
654.84	6490.18
655.033	6455.37
655.225	6486.09
655.417	6238.28
655.61	6426.7
655.802	6328.39
655.994	6350.92
656.186	6352.97
656.379	6355.02
656.571	6273.1
656.763	6262.86
656.955	5990.48
657.148	5976.14
657.34	6019.15
657.532	6115.41
657.724	5970
657.916	5980.24
658.108	5890.13
658.3	5914.7
658.492	5802.07
658.684	5681.24
658.876	5767.25
659.068	5787.73
659.26	5607.51
659.452	5693.52
659.644	5677.14
659.836	5681.24
660.028	5498.97
660.22	5636.18
660.412	5638.23
660.604	5480.54
660.796	5488.73
660.988	5584.98
661.18	5410.9
661.372	5408.86
661.563	5460.06
661.755	5095.52
661.947	5163.1
662.139	5271.64
662.331	5347.42
662.522	5154.91
662.714	5169.24
662.906	5042.27
663.097	5060.7
663.289	5062.75
663.481	5226.59
663.673	4935.78
663.864	4831.33
664.056	5013.6
664.247	4956.26
664.439	4905.06
664.631	4880.48
664.822	4804.71
665.014	4747.36
665.205	4730.98
665.397	4874.34
665.588	4706.4
665.78	4853.86
665.971	4665.44
666.163	4765.79
666.354	4595.81
666.546	4679.78
666.737	4493.41
666.929	4583.52
667.12	4513.89
667.311	4591.72
667.503	4425.83
667.694	4530.28
667.885	4517.99
668.077	4489.32
668.268	4446.31
668.459	4464.74
668.651	4309.1
668.842	4167.79
669.033	4343.91
669.224	4255.85
669.416	4329.58
669.607	4223.08
669.798	4214.89
669.989	4214.89
670.18	4259.95
670.371	4114.54
670.563	3999.85
670.754	4202.6
670.945	4038.77
671.136	4038.77
671.327	4030.57
671.518	3926.13
671.709	3948.65
671.9	4049
672.091	4061.29
672.282	4010.09
672.473	3883.12
672.664	3883.12
672.855	3885.17
673.046	3780.72
673.237	4032.62
673.428	3899.5
673.619	3842.16
673.809	3819.63
674	3788.91
674.191	3891.31
674.382	3762.29
674.573	3803.25
674.764	3666.03
674.954	3879.02
675.145	3661.94
675.336	3651.7
675.527	3612.79
675.717	3756.15
675.908	3686.51
676.099	3567.73
676.289	3453.05
676.48	3661.94
676.671	3498.1
676.861	3481.72
677.052	3518.58
677.243	3512.44
677.433	3588.21
677.624	3623.03
677.814	3526.77
678.005	3420.28
678.195	3485.81
678.386	3430.52
678.576	3410.04
678.767	3528.82
678.957	3334.26
679.148	3346.55
679.338	3494.01
679.529	3387.51
679.719	3500.15
679.909	3494.01
680.1	3475.57
680.29	3287.16
680.481	3383.42
680.671	3332.22
680.861	3238.01
681.052	3367.03
681.242	3281.02
681.432	3338.36
681.622	3326.07
681.813	3262.58
682.003	3246.2
682.193	3418.23
682.383	3246.2
682.573	3186.81
682.764	3240.06
682.954	3276.92
683.144	3293.3
683.334	3225.72
683.524	3170.43
683.714	3145.85
683.904	3274.87
684.094	3192.95
684.284	3059.84
684.474	3029.12
684.664	3147.9
684.854	3141.75
685.044	3123.32
685.234	2977.92
685.424	3096.7
685.614	3135.61
685.804	3072.12
685.994	3135.61
686.184	2953.34
686.374	2986.11
686.564	3025.02
686.753	3104.89
686.943	2973.82
687.133	3031.16
687.323	2973.82
687.513	2918.53
687.702	2957.44
687.892	2818.18
688.082	2941.05
688.272	2900.09
688.461	2896
688.651	2844.8
688.841	2924.67
689.03	3006.59
689.22	2793.6
689.41	2949.25
689.599	2732.16
689.789	2830.46
689.979	2867.33
690.168	2781.31
690.358	2728.07
690.547	2654.34
690.737	2793.6
690.926	2773.12
691.116	2689.15
691.305	2719.87
691.495	2719.87
691.684	2592.9
691.874	2613.38
692.063	2713.73
692.252	2656.39
692.442	2650.24
692.631	2656.39
692.82	2658.43
693.01	2699.39
693.199	2678.91
693.388	2525.32
693.578	2566.28
693.767	2588.8
693.956	2609.28
694.146	2482.31
694.335	2539.65
694.524	2588.8
694.713	2568.32
694.902	2549.89
695.092	2437.25
695.281	2492.55
695.47	2545.8
695.659	2490.5
695.848	2465.93
696.037	2437.25
696.226	2523.27
696.415	2412.68
696.604	2314.38
696.793	2336.9
696.982	2424.97
697.171	2408.58
697.36	2474.12
697.549	2330.76
697.738	2351.24
697.927	2396.29
698.116	2332.81
698.305	2447.49
698.494	2408.58
698.683	2351.24
698.872	2427.01
699.061	2310.28
699.25	2306.18
699.438	2330.76
699.627	2453.64
699.816	2302.09
700.005	2265.22
700.193	2326.66
700.382	2293.9
700.571	2326.66
700.76	2183.31
700.948	2207.88
701.137	2328.71
701.326	2451.59
701.514	2171.02
701.703	2187.4
701.892	2162.83
702.08	2285.7
702.269	2216.07
702.457	2138.25
702.646	2222.22
702.834	2263.18
703.023	2230.41
703.212	2285.7
703.4	2222.22
703.589	2156.68
703.777	2246.79
703.965	2076.81
704.154	2132.11
704.342	2193.55
704.531	2064.52
704.719	2283.66
704.907	2254.98
705.096	2236.55
705.284	2209.93
705.472	2216.07
705.661	2222.22
705.849	2257.03
706.037	2203.79
706.226	2146.44
706.414	2148.49
706.602	2125.96
706.79	2246.79
706.979	2183.31
707.167	2056.33
707.355	2072.72
707.543	2132.11
707.731	2228.36
707.919	2115.72
708.107	2173.07
708.296	2042
708.484	2105.48
708.672	2195.59
708.86	2093.19
709.048	2132.11
709.236	2132.11
709.424	2164.87
709.612	2091.15
709.8	2156.68
709.988	2080.91
710.176	2023.56
710.364	2097.29
710.551	2021.52
710.739	2125.96
710.927	2033.8
711.115	2068.62
711.303	2033.8
711.491	2050.19
711.679	1970.32
711.866	1978.51
712.054	1941.65
712.242	2070.67
712.43	1976.46
712.617	2056.33
712.805	2082.95
712.993	1990.8
713.181	2058.38
713.368	2091.15
713.556	2035.85
713.744	1886.35
713.931	2064.52
714.119	1990.8
714.306	2078.86
714.494	2025.61
714.682	2017.42
714.869	1998.99
715.057	2089.1
715.244	2031.76
715.432	2013.32
715.619	1894.54
715.807	1949.84
715.994	2039.95
716.182	2074.76
716.369	2189.45
716.556	2015.37
716.744	1984.65
716.931	1976.46
717.119	1917.07
717.306	1951.88
717.493	1966.22
717.681	2085
717.868	1933.45
718.055	2037.9
718.242	1988.75
718.43	1962.12
718.617	1886.35
718.804	1986.7
718.991	2007.18
719.179	1933.45
719.366	2060.43
719.553	2035.85
719.74	1951.88
719.927	1892.49
720.114	1925.26
720.301	1921.17
720.488	1878.16
720.676	1970.32
720.863	1890.45
721.05	1888.4
721.237	1845.39
721.424	1933.45
721.611	2115.72
721.798	1884.3
721.985	1902.73
722.172	1890.45
722.358	1929.36
722.545	1867.92
722.732	1788.05
722.919	1986.7
723.106	1929.36
723.293	1937.55
723.48	1888.4
723.667	2001.04
723.853	1929.36
724.04	1908.88
724.227	1941.65
724.414	1943.69
724.6	1943.69
724.787	1960.08
724.974	1994.89
725.161	1937.55
725.347	1788.05
725.534	1894.54
725.72	1953.93
725.907	1878.16
726.094	1835.15
726.28	1892.49
726.467	1845.39
726.653	1798.29
726.84	1902.73
727.027	1917.07
727.213	1829.01
727.4	1855.63
727.586	1835.15
727.773	2015.37
727.959	1867.92
728.145	2017.42
728.332	1829.01
728.518	1820.81
728.705	1925.26
728.891	1763.47
729.077	1759.38
729.264	1939.6
729.45	1824.91
729.636	1892.49
729.823	1773.71
730.009	1843.34
730.195	1867.92
730.382	1831.05
730.568	1822.86
730.754	1876.11
730.94	1710.22
731.126	1814.67
731.313	1792.14
731.499	1796.24
731.685	1783.95
731.871	1781.9
732.057	1894.54
732.243	1755.28
732.429	1851.53
732.615	1837.2
732.801	1867.92
732.987	1851.53
733.173	1876.11
733.359	1728.66
733.545	1829.01
733.731	1720.46
733.917	1921.17
734.103	1818.77
734.289	1763.47
734.475	1753.23
734.661	1820.81
734.847	1734.8
735.033	1779.86
735.219	1747.09
735.404	1616.02
735.59	1740.94
735.776	1767.57
735.962	1771.66
736.148	1794.19
736.333	1865.87
736.519	1699.98
736.705	1648.79
736.89	1728.66
737.076	1769.62
737.262	1779.86
737.447	1724.56
737.633	1734.8
737.819	1712.27
738.004	1634.45
738.19	1687.7
738.375	1671.31
738.561	1720.46
738.747	1704.08
738.932	1716.37
739.118	1714.32
739.303	1786
739.489	1724.56
739.674	1679.51
739.859	1646.74
740.045	1611.92
740.23	1702.03
740.416	1630.35
740.601	1687.7
740.786	1620.11
740.972	1609.87
741.157	1478.8
741.342	1599.63
741.528	1525.91
741.713	1564.82
741.898	1616.02
742.084	1687.7
742.269	1706.13
742.454	1648.79
742.639	1663.12
742.824	1581.2
743.01	1601.68
743.195	1605.78
743.38	1620.11
743.565	1636.5
743.75	1544.34
743.935	1675.41
744.12	1464.47
744.305	1558.67
744.49	1613.97
744.675	1575.06
744.86	1593.49
745.045	1710.22
745.23	1530
745.415	1556.63
745.6	1497.24
745.785	1450.13
745.97	1499.28
746.155	1454.23
746.34	1429.65
746.525	1474.71
746.71	1509.52
746.895	1405.08
747.079	1392.79
747.264	1368.21
747.449	1423.51
747.634	1550.48
747.819	1487
748.003	1435.8
748.188	1388.69
748.373	1484.95
748.557	1407.13
748.742	1314.97
748.927	1378.45
749.111	1319.06
749.296	1237.14
749.481	1419.41
749.665	1362.07
749.85	1271.96
750.034	1364.12
750.219	1362.07
750.404	1237.14
750.588	1394.84
750.773	1269.91
750.957	1255.58
751.141	1216.66
751.326	1263.77
751.51	1263.77
751.695	1239.19
751.879	1196.18
752.064	1265.82
752.248	1169.56
752.432	1237.14
752.617	1200.28
752.801	1253.53
752.985	1179.8
753.17	1249.43
753.354	1194.14
753.538	1198.23
753.722	1065.11
753.907	1220.76
754.091	1179.8
754.275	1187.99
754.459	1190.04
754.643	1120.41
754.828	1122.46
755.012	1204.38
755.196	1116.31
755.38	1063.07
755.564	1120.41
755.748	1073.31
755.932	1087.64
756.116	946.33
756.3	1073.31
756.484	1065.11
756.668	1095.83
756.852	919.71
757.036	913.56
757.22	911.52
757.404	1058.97
757.588	946.33
757.772	1069.21
757.956	1003.68
758.14	938.14
758.323	1020.06
758.507	905.37
758.691	954.52
758.875	1028.25
759.059	999.58
759.242	966.81
759.426	968.86
759.61	919.71
759.794	975
759.977	895.13
760.161	901.28
760.345	985.24
760.528	952.48
760.712	854.17
760.895	925.85
761.079	821.41
761.263	872.61
761.446	782.49
761.63	860.32
761.813	882.85
761.997	825.5
762.18	870.56
762.364	911.52
762.547	821.41
762.731	870.56
762.914	778.4
763.098	938.14
763.281	913.56
763.464	934.04
763.648	870.56
763.831	852.13
764.015	753.82
764.198	827.55
764.381	893.09
764.564	829.6
764.748	780.45
764.931	946.33
765.114	835.74
765.297	852.13
765.481	759.97
765.664	827.55
765.847	852.13
766.03	805.02
766.213	680.1
766.397	727.2
766.58	737.44
766.763	762.02
766.946	819.36
767.129	780.45
767.312	788.64
767.495	876.7
767.678	780.45
767.861	702.62
768.044	762.02
768.227	725.15
768.41	706.72
768.593	798.88
768.776	721.06
768.959	618.66
769.142	768.16
769.324	721.06
769.507	655.52
769.69	770.21
769.873	729.25
770.056	782.49
770.239	770.21
770.421	759.97
770.604	692.38
770.787	739.49
770.97	719.01
771.152	731.3
771.335	676
771.518	692.38
771.7	823.45
771.883	704.67
772.066	618.66
772.248	700.58
772.431	659.62
772.613	698.53
772.796	725.15
772.978	684.19
773.161	751.78
773.343	635.04
773.526	632.99
773.708	592.03
773.891	618.66
774.073	655.52
774.256	585.89
774.438	659.62
774.621	573.6
774.803	647.33
774.985	600.23
775.168	501.92
775.35	592.03
775.532	647.33
775.715	630.95
775.897	594.08
776.079	571.55
776.261	626.85
776.444	565.41
776.626	583.84
776.808	700.58
776.99	565.41
777.173	516.26
777.355	540.83
777.537	557.22
777.719	542.88
777.901	559.27
778.083	516.26
778.265	528.55
778.447	510.11
778.629	524.45
778.811	565.41
778.993	532.64
779.175	499.88
779.357	428.2
779.539	532.64
779.721	426.15
779.903	583.84
780.085	454.82
780.267	487.59
780.449	616.61
780.631	534.69
780.812	426.15
780.994	463.01
781.176	460.96
781.358	483.49
781.54	428.2
781.721	491.68
781.903	473.25
782.085	422.05
782.267	526.5
782.448	436.39
782.63	467.11
782.812	405.67
782.993	471.2
783.175	430.24
783.357	454.82
783.538	487.59
783.72	393.38
783.901	413.86
784.083	518.31
784.264	420
784.446	389.28
784.627	372.9
784.809	409.76
784.99	450.72
785.172	401.57
785.353	381.09
785.535	374.95
785.716	387.24
785.897	434.34
786.079	426.15
786.26	389.28
786.441	420
786.623	338.09
786.804	346.28
786.985	372.9
787.167	315.56
787.348	393.38
787.529	327.85
787.71	352.42
787.891	368.81
788.073	368.81
788.254	321.7
788.435	426.15
788.616	436.39
788.797	274.6
788.978	340.13
789.159	254.12
789.34	336.04
789.522	321.7
789.703	276.65
789.884	352.42
790.065	280.74
790.246	360.61
790.427	340.13
790.607	311.46
790.788	319.65
790.969	284.84
791.15	327.85
791.331	250.02
791.512	295.08
791.693	317.61
791.874	282.79
792.054	311.46
792.235	284.84
792.416	209.06
792.597	297.13
792.778	303.27
792.958	354.47
793.139	295.08
793.32	256.17
793.5	229.54
793.681	305.32
793.862	262.31
794.042	317.61
794.223	231.59
794.404	321.7
794.584	192.68
794.765	266.41
794.945	164.01
795.126	319.65
795.306	282.79
795.487	286.89
795.667	213.16
795.848	180.39
796.028	213.16
796.209	250.02
796.389	303.27
796.57	276.65
796.75	196.78
796.93	262.31
797.111	196.78
797.291	264.36
797.471	313.51
797.652	295.08
797.832	204.97
798.012	315.56
798.192	133.29
798.373	252.07
798.553	237.74
798.733	176.3
798.913	172.2
799.093	233.64
799.274	198.82
799.454	282.79
799.634	243.88
799.814	229.54
799.994	168.1
800.174	204.97
800.354	190.63
800.534	250.02
800.714	241.83
800.894	188.58
801.074	151.72
801.254	221.35
801.434	204.97
801.614	295.08
801.794	170.15
801.974	723.1
802.154	217.26
802.334	204.97
802.514	155.82
802.693	114.86
802.873	192.68
803.053	209.06
803.233	280.74
803.413	170.15
803.592	164.01
803.772	196.78
803.952	161.96
804.131	180.39
804.311	213.16
804.491	135.34
804.67	147.62
804.85	125.1
805.03	164.01
805.209	213.16
805.389	118.95
805.568	180.39
805.748	102.57
805.928	174.25
806.107	204.97
806.287	153.77
806.466	180.39
806.646	110.76
806.825	223.4
807.004	219.3
807.184	143.53
807.363	188.58
807.543	131.24
807.722	127.14
807.901	223.4
808.081	149.67
808.26	118.95
808.439	139.43
808.619	254.12
808.798	198.82
808.977	77.99
809.156	188.58
809.336	147.62
809.515	188.58
809.694	157.86
809.873	86.19
810.052	133.29
810.231	110.76
810.411	131.24
810.59	155.82
810.769	133.29
810.948	145.58
811.127	125.1
811.306	139.43
811.485	135.34
811.664	247.97
811.843	153.77
812.022	116.9
812.201	157.86
812.38	151.72
812.559	170.15
812.737	182.44
812.916	49.32
813.095	84.14
813.274	123.05
813.453	112.81
813.632	41.13
813.811	143.53
813.989	86.19
814.168	135.34
814.347	92.33
814.526	131.24
814.704	147.62
814.883	172.2
815.062	164.01
815.24	192.68
815.419	24.75
815.598	161.96
815.776	75.95
815.955	125.1
816.133	43.18
816.312	161.96
816.49	88.23
816.669	114.86
816.847	51.37
817.026	106.67
817.204	90.28
817.383	176.3
817.561	116.9
817.74	164.01
817.918	106.67
818.097	133.29
818.275	24.75
818.453	61.61
818.632	90.28
818.81	98.47
818.988	43.18
819.167	123.05
819.345	116.9
819.523	112.81
819.701	108.71
819.879	77.99
820.058	123.05
820.236	106.67
820.414	41.13
820.592	100.52
820.77	139.43
820.948	65.71
821.127	57.51
821.305	172.2
821.483	65.71
821.661	114.86
821.839	4.27
822.017	65.71
822.195	100.52
822.373	104.62
822.551	84.14
822.729	-5.97
822.907	90.28
823.085	80.04
823.262	55.47
823.44	32.94
823.618	-22.36
823.796	174.25
823.974	43.18
824.152	80.04
824.329	90.28
824.507	22.7
824.685	82.09
824.863	139.43
825.04	41.13
825.218	139.43
825.396	90.28
825.574	106.67
825.751	80.04
825.929	98.47
826.107	59.56
826.284	41.13
826.462	51.37
826.639	100.52
826.817	43.18
826.994	84.14
827.172	67.75
827.349	75.95
827.527	98.47
827.704	16.55
827.882	98.47
828.059	65.71
828.237	55.47
828.414	112.81
828.591	16.55
828.769	63.66
828.946	80.04
829.124	41.13
829.301	88.23
829.478	69.8
829.655	131.24
829.833	110.76
830.01	57.51
830.187	75.95
830.364	90.28
830.542	92.33
830.719	94.38
830.896	131.24
831.073	45.23
831.25	26.79
831.427	133.29
831.604	63.66
831.782	61.61
831.959	45.23
832.136	168.1
832.313	84.14
832.49	18.6
832.667	49.32
832.844	53.42
833.021	24.75
833.198	-12.12
833.374	69.8
833.551	90.28
833.728	39.08
833.905	114.86
834.082	51.37
834.259	41.13
834.436	98.47
834.612	37.03
834.789	49.32
834.966	24.75
835.143	112.81
835.319	-8.02
835.496	127.14
835.673	106.67
835.85	110.76
836.026	18.6
836.203	90.28
836.38	63.66
836.556	77.99
836.733	-16.21
836.909	45.23
837.086	57.51
837.262	39.08
837.439	-22.36
837.616	2.22
837.792	49.32
837.968	94.38
838.145	10.41
838.321	37.03
838.498	-24.4
838.674	49.32
838.851	-30.55
839.027	34.99
839.203	32.94
839.38	37.03
839.556	16.55
839.732	41.13
839.909	106.67
840.085	34.99
840.261	26.79
840.437	12.46
840.614	41.13
840.79	131.24
840.966	73.9
841.142	82.09
841.318	108.71
841.494	55.47
841.671	67.75
841.847	43.18
842.023	26.79
842.199	90.28
842.375	-59.22
842.551	-5.97
842.727	14.51
842.903	57.51
843.079	47.27
843.255	-24.4
843.431	2.22
843.607	37.03
843.783	-81.75
843.959	114.86
844.134	47.27
844.31	32.94
844.486	-22.36
844.662	39.08
844.838	0.17
845.013	98.47
845.189	10.41
845.365	-26.45
845.541	-77.65
845.716	110.76
845.892	75.95
846.068	34.99
846.244	34.99
846.419	-46.93
846.595	-5.97
846.77	82.09
846.946	0.17
847.122	18.6
847.297	49.32
847.473	57.51
847.648	-5.97
847.824	8.36
847.999	30.89
848.175	77.99
848.35	39.08
848.526	30.89
848.701	37.03
848.876	16.55
849.052	16.55
849.227	24.75
849.403	86.19
849.578	0.17
849.753	2.22
849.929	41.13
850.104	65.71
850.279	24.75
850.454	20.65
850.63	32.94
850.805	8.36
850.98	90.28
851.155	-1.88
851.33	10.41
851.505	-3.93
851.681	20.65
851.856	24.75
852.031	51.37
852.206	8.36
852.381	-8.02
852.556	0.17
852.731	67.75
852.906	0.17
853.081	47.27
853.256	65.71
853.431	98.47
853.606	-26.45
853.781	-12.12
853.956	-44.88
854.131	-24.4
854.305	16.55
854.48	32.94
854.655	-36.69
854.83	-55.12
855.005	-12.12
855.18	18.6
855.354	-24.4
855.529	-32.6
855.704	73.9
855.879	20.65
856.053	-40.79
856.228	77.99
856.403	57.51
856.577	-14.17
856.752	-16.21
856.926	92.33
857.101	49.32
857.276	-10.07
857.45	0.17
857.625	-8.02
857.799	-5.97
857.974	16.55
858.148	-36.69
858.323	106.67
858.497	61.61
858.672	24.75
858.846	-24.4
859.02	98.47
859.195	18.6
859.369	6.31
859.543	34.99
859.718	77.99
859.892	6.31
860.066	32.94
860.241	10.41
860.415	8.36
860.589	-12.12
860.763	45.23
860.938	51.37
861.112	8.36
861.286	-30.55
861.46	24.75
861.634	73.9
861.808	69.8
861.982	-22.36
862.157	-61.27
862.331	16.55
862.505	-40.79
862.679	-12.12
862.853	26.79
863.027	59.56
863.201	86.19
863.375	-42.84
863.549	-14.17
863.722	24.75
863.896	-3.93
864.07	-32.6
864.244	2.22
864.418	-5.97
864.592	12.46
864.766	22.7
864.939	24.75
865.113	-14.17
865.287	28.84
865.461	2.22
865.634	32.94
865.808	-44.88
865.982	0.17
866.156	-63.32
866.329	-5.97
866.503	-10.07
866.676	16.55
866.85	61.61
867.024	-16.21
867.197	-5.97
867.371	-63.32
867.544	-46.93
867.718	-48.98
867.891	-36.69
868.065	22.7
868.238	24.75
868.412	-8.02
868.585	53.42
868.759	32.94
868.932	-44.88
869.105	37.03
869.279	32.94
869.452	-12.12
869.625	4.27
869.799	-16.21
869.972	6.31
870.145	-65.36
870.319	30.89
870.492	-40.79
870.665	-59.22
870.838	-3.93
871.011	-20.31
871.185	-26.45
871.358	-18.26
871.531	24.75
871.704	-87.89
871.877	0.17
872.05	77.99
872.223	-126.8
872.396	69.8
872.569	-8.02
872.742	24.75
872.915	20.65
873.088	0.17
873.261	-48.98
873.434	-28.5
873.607	14.51
873.78	-8.02
873.953	0.17
874.126	-28.5
874.299	-16.21
874.471	-3.93
874.644	59.56
874.817	34.99
874.99	26.79
875.163	20.65
875.335	-38.74
875.508	0.17
875.681	55.47
875.853	24.75
876.026	-8.02
876.199	-24.4
876.371	-30.55
876.544	-20.31
876.717	8.36
876.889	-65.36
877.062	-12.12
877.234	-8.02
877.407	-24.4
877.579	-24.4
877.752	-8.02
877.924	8.36
878.097	-32.6
878.269	12.46
878.442	-42.84
878.614	-40.79
878.786	32.94
878.959	0.17
879.131	28.84
879.303	-32.6
879.476	16.55
879.648	-48.98
879.82	22.7
879.993	75.95
880.165	16.55
880.337	-38.74
880.509	34.99
880.681	-139.09
880.854	-55.12
881.026	-14.17
881.198	6.31
881.37	14.51
881.542	16.55
881.714	-5.97
881.886	0.17
882.058	8.36
882.23	-61.27
882.402	12.46
882.574	-42.84
882.746	135.34
882.918	2.22
883.09	0.17
883.262	-65.36
883.434	-14.17
883.606	-38.74
883.778	53.42
883.95	2.22
884.122	-14.17
884.293	16.55
884.465	6.31
884.637	16.55
884.809	20.65
884.98	-40.79
885.152	-5.97
885.324	16.55
885.496	-73.56
885.667	41.13
885.839	43.18
886.011	14.51
886.182	20.65
886.354	-14.17
886.525	-38.74
886.697	51.37
886.869	-8.02
887.04	18.6
887.212	-32.6
887.383	-114.52
887.555	32.94
887.726	0.17
887.897	4.27
888.069	4.27
888.24	10.41
888.412	8.36
888.583	-73.56
888.754	24.75
888.926	-98.13
889.097	-16.21
889.268	10.41
889.44	37.03
889.611	-20.31
889.782	37.03
889.953	-20.31
890.125	45.23
890.296	-40.79
890.467	-24.4
890.638	0.17
890.809	-12.12
890.98	22.7
891.151	69.8
891.323	47.27
891.494	-5.97
891.665	34.99
891.836	16.55
892.007	0.17
892.178	-24.4
892.349	53.42
892.52	-44.88
892.691	-57.17
892.862	-14.17
893.032	-20.31
893.203	-18.26
893.374	-57.17
893.545	-40.79
893.716	-71.51
893.887	24.75
894.057	-12.12
894.228	-8.02
894.399	24.75
894.57	61.61
894.74	-65.36
894.911	12.46
895.082	-44.88
895.253	-8.02
895.423	0.17
895.594	-30.55
895.764	24.75
895.935	4.27
896.106	-22.36
896.276	88.23
896.447	-42.84
896.617	45.23
896.788	-36.69
896.958	16.55
897.129	-44.88
897.299	-16.21
897.47	-28.5
897.64	-20.31
897.81	-69.46
897.981	-12.12
898.151	-48.98
898.322	112.81
898.492	22.7
898.662	-38.74
898.832	0.17
899.003	30.89
899.173	53.42
899.343	-16.21
899.513	-30.55
