Data from USB4F104151__299__14-46-32-772.txt Node

Date: Thu Mar 13 14:46:32 EDT 2025
User: louis
Spectrometer: USB4F10415
Trigger mode: 4
Integration Time (sec): 2.000000E-2
Scans to average: 1
Electric dark correction enabled: true
Nonlinearity correction enabled: false
Boxcar width: 0
XAxis mode: Wavelengths
Number of Pixels in Spectrum: 3648
>>>>>Begin Spectral Data<<<<<
178.204	-159.57
178.424	-159.57
178.644	-159.57
178.864	-143.19
179.084	-126.8
179.304	37.03
179.524	-8.02
179.744	-40.79
179.964	-3.93
180.184	14.51
180.404	-44.88
180.624	41.13
180.844	28.84
181.064	-34.64
181.283	6.31
181.503	-16.21
181.723	20.65
181.943	-53.08
182.163	30.89
182.383	2.22
182.602	20.65
182.822	-67.41
183.042	16.55
183.262	-12.12
183.482	-44.88
183.701	75.95
183.921	28.84
184.141	71.85
184.361	65.71
184.58	-61.27
184.8	-36.69
185.02	-28.5
185.239	102.57
185.459	20.65
185.679	28.84
185.898	-42.84
186.118	20.65
186.338	26.79
186.557	102.57
186.777	37.03
186.997	-69.46
187.216	-3.93
187.436	94.38
187.655	34.99
187.875	-12.12
188.095	8.36
188.314	-28.5
188.534	20.65
188.753	-30.55
188.973	51.37
189.192	34.99
189.412	37.03
189.631	14.51
189.851	-3.93
190.07	8.36
190.29	-18.26
190.509	94.38
190.729	63.66
190.948	37.03
191.168	139.43
191.387	100.52
191.607	10.41
191.826	32.94
192.045	-28.5
192.265	73.9
192.484	-20.31
192.704	80.04
192.923	37.03
193.142	45.23
193.362	16.55
193.581	37.03
193.8	12.46
194.02	135.34
194.239	2.22
194.458	45.23
194.678	12.46
194.897	43.18
195.116	39.08
195.335	84.14
195.555	53.42
195.774	41.13
195.993	26.79
196.212	30.89
196.432	8.36
196.651	37.03
196.87	4.27
197.089	71.85
197.308	57.51
197.528	53.42
197.747	-44.88
197.966	-3.93
198.185	45.23
198.404	-30.55
198.623	65.71
198.842	82.09
199.062	14.51
199.281	63.66
199.5	20.65
199.719	-26.45
199.938	10.41
200.157	43.18
200.376	49.32
200.595	61.61
200.814	57.51
201.033	-3.93
201.252	22.7
201.471	16.55
201.69	32.94
201.909	-12.12
202.128	-14.17
202.347	-10.07
202.566	-30.55
202.785	24.75
203.004	37.03
203.223	61.61
203.442	84.14
203.661	41.13
203.879	137.38
204.098	45.23
204.317	-16.21
204.536	-61.27
204.755	75.95
204.974	67.75
205.193	53.42
205.411	94.38
205.63	32.94
205.849	45.23
206.068	71.85
206.287	-1.88
206.505	39.08
206.724	53.42
206.943	-16.21
207.162	-57.17
207.381	-67.41
207.599	-12.12
207.818	45.23
208.037	96.43
208.255	-32.6
208.474	37.03
208.693	-44.88
208.911	-79.7
209.13	67.75
209.349	92.33
209.567	37.03
209.786	71.85
210.005	-14.17
210.223	32.94
210.442	-34.64
210.661	4.27
210.879	-8.02
211.098	37.03
211.316	16.55
211.535	65.71
211.753	30.89
211.972	-26.45
212.191	-12.12
212.409	-28.5
212.628	61.61
212.846	0.17
213.065	20.65
213.283	116.9
213.502	45.23
213.72	-16.21
213.938	-14.17
214.157	20.65
214.375	37.03
214.594	-28.5
214.812	53.42
215.031	55.47
215.249	30.89
215.467	12.46
215.686	102.57
215.904	63.66
216.122	-12.12
216.341	69.8
216.559	28.84
216.778	100.52
216.996	53.42
217.214	4.27
217.432	-34.64
217.651	-53.08
217.869	30.89
218.087	102.57
218.306	-12.12
218.524	71.85
218.742	0.17
218.96	14.51
219.179	41.13
219.397	24.75
219.615	-8.02
219.833	71.85
220.051	41.13
220.27	30.89
220.488	49.32
220.706	118.95
220.924	4.27
221.142	57.51
221.36	69.8
221.578	47.27
221.796	20.65
222.015	39.08
222.233	-48.98
222.451	30.89
222.669	20.65
222.887	43.18
223.105	8.36
223.323	63.66
223.541	51.37
223.759	0.17
223.977	86.19
224.195	102.57
224.413	16.55
224.631	12.46
224.849	8.36
225.067	14.51
225.285	-40.79
225.503	-3.93
225.721	-3.93
225.939	32.94
226.157	20.65
226.375	96.43
226.592	0.17
226.81	4.27
227.028	28.84
227.246	63.66
227.464	37.03
227.682	45.23
227.9	-12.12
228.117	12.46
228.335	20.65
228.553	90.28
228.771	55.47
228.989	69.8
229.206	20.65
229.424	-26.45
229.642	32.94
229.86	6.31
230.077	45.23
230.295	28.84
230.513	20.65
230.731	-24.4
230.948	14.51
231.166	39.08
231.384	4.27
231.601	45.23
231.819	80.04
232.037	-12.12
232.254	-20.31
232.472	-40.79
232.689	2.22
232.907	90.28
233.125	-61.27
233.342	0.17
233.56	47.27
233.777	43.18
233.995	51.37
234.213	32.94
234.43	-3.93
234.648	55.47
234.865	2.22
235.083	4.27
235.3	-28.5
235.518	24.75
235.735	4.27
235.953	69.8
236.17	-40.79
236.388	106.67
236.605	-30.55
236.822	86.19
237.04	69.8
237.257	92.33
237.475	26.79
237.692	32.94
237.909	28.84
238.127	53.42
238.344	6.31
238.562	61.61
238.779	55.47
238.996	6.31
239.214	77.99
239.431	28.84
239.648	-10.07
239.865	20.65
240.083	30.89
240.3	80.04
240.517	-59.22
240.735	-1.88
240.952	65.71
241.169	55.47
241.386	-46.93
241.603	-3.93
241.821	-10.07
242.038	28.84
242.255	-12.12
242.472	-3.93
242.689	-12.12
242.907	102.57
243.124	32.94
243.341	-3.93
243.558	20.65
243.775	45.23
243.992	-44.88
244.209	55.47
244.426	110.76
244.643	39.08
244.86	12.46
245.078	47.27
245.295	69.8
245.512	10.41
245.729	-32.6
245.946	118.95
246.163	-36.69
246.38	71.85
246.597	37.03
246.814	8.36
247.031	22.7
247.248	20.65
247.464	4.27
247.681	4.27
247.898	41.13
248.115	45.23
248.332	-14.17
248.549	-8.02
248.766	57.51
248.983	28.84
249.2	14.51
249.417	41.13
249.633	4.27
249.85	39.08
250.067	28.84
250.284	12.46
250.501	57.51
250.717	-16.21
250.934	34.99
251.151	-5.97
251.368	-12.12
251.585	6.31
251.801	82.09
252.018	28.84
252.235	71.85
252.451	-73.56
252.668	71.85
252.885	20.65
253.102	-38.74
253.318	14.51
253.535	16.55
253.752	32.94
253.968	14.51
254.185	-51.03
254.401	55.47
254.618	-28.5
254.835	-65.36
255.051	80.04
255.268	24.75
255.484	63.66
255.701	-3.93
255.917	49.32
256.134	-16.21
256.351	32.94
256.567	14.51
256.784	61.61
257	14.51
257.217	47.27
257.433	55.47
257.65	45.23
257.866	59.56
258.082	63.66
258.299	14.51
258.515	39.08
258.732	39.08
258.948	0.17
259.165	45.23
259.381	69.8
259.597	-40.79
259.814	41.13
260.03	59.56
260.246	61.61
260.463	12.46
260.679	61.61
260.895	-8.02
261.112	-28.5
261.328	47.27
261.544	32.94
261.761	-3.93
261.977	-12.12
262.193	-100.18
262.409	16.55
262.626	86.19
262.842	20.65
263.058	-8.02
263.274	12.46
263.49	-20.31
263.707	55.47
263.923	-85.84
264.139	-36.69
264.355	47.27
264.571	77.99
264.787	73.9
265.004	16.55
265.22	12.46
265.436	94.38
265.652	12.46
265.868	30.89
266.084	84.14
266.3	22.7
266.516	-75.6
266.732	47.27
266.948	90.28
267.164	67.75
267.38	26.79
267.596	-16.21
267.812	37.03
268.028	-28.5
268.244	39.08
268.46	8.36
268.676	14.51
268.892	61.61
269.108	-36.69
269.324	59.56
269.54	20.65
269.756	63.66
269.972	53.42
270.188	-12.12
270.403	-28.5
270.619	14.51
270.835	39.08
271.051	4.27
271.267	-20.31
271.483	12.46
271.698	10.41
271.914	28.84
272.13	-12.12
272.346	10.41
272.562	-30.55
272.777	6.31
272.993	-40.79
273.209	-36.69
273.425	77.99
273.64	8.36
273.856	20.65
274.072	67.75
274.287	12.46
274.503	-32.6
274.719	6.31
274.934	-51.03
275.15	0.17
275.366	102.57
275.581	6.31
275.797	86.19
276.012	-18.26
276.228	4.27
276.444	-12.12
276.659	43.18
276.875	-28.5
277.09	61.61
277.306	4.27
277.521	4.27
277.737	-8.02
277.952	71.85
278.168	-3.93
278.383	49.32
278.599	-34.64
278.814	53.42
279.03	47.27
279.245	-34.64
279.461	41.13
279.676	30.89
279.892	-110.42
280.107	-26.45
280.322	41.13
280.538	2.22
280.753	-18.26
280.969	121
281.184	32.94
281.399	86.19
281.615	71.85
281.83	24.75
282.045	-1.88
282.26	63.66
282.476	-53.08
282.691	96.43
282.906	22.7
283.122	22.7
283.337	-77.65
283.552	8.36
283.767	28.84
283.983	65.71
284.198	20.65
284.413	69.8
284.628	0.17
284.843	32.94
285.058	39.08
285.274	77.99
285.489	8.36
285.704	32.94
285.919	41.13
286.134	37.03
286.349	57.51
286.564	24.75
286.779	39.08
286.995	45.23
287.21	-44.88
287.425	94.38
287.64	-3.93
287.855	39.08
288.07	57.51
288.285	32.94
288.5	53.42
288.715	96.43
288.93	73.9
289.145	20.65
289.36	28.84
289.575	-42.84
289.79	123.05
290.004	4.27
290.219	-34.64
290.434	39.08
290.649	-32.6
290.864	-3.93
291.079	16.55
291.294	0.17
291.509	16.55
291.724	4.27
291.938	69.8
292.153	-14.17
292.368	47.27
292.583	63.66
292.798	10.41
293.012	20.65
293.227	8.36
293.442	14.51
293.657	106.67
293.871	28.84
294.086	-3.93
294.301	98.47
294.516	0.17
294.73	16.55
294.945	-36.69
295.16	37.03
295.374	69.8
295.589	110.76
295.804	53.42
296.018	47.27
296.233	82.09
296.447	90.28
296.662	28.84
296.877	121
297.091	30.89
297.306	-22.36
297.52	8.36
297.735	69.8
297.949	30.89
298.164	61.61
298.378	8.36
298.593	41.13
298.807	-40.79
299.022	100.52
299.236	80.04
299.451	37.03
299.665	41.13
299.88	53.42
300.094	63.66
300.309	4.27
300.523	-28.5
300.737	14.51
300.952	-26.45
301.166	37.03
301.381	-22.36
301.595	2.22
301.809	32.94
302.024	24.75
302.238	-36.69
302.452	12.46
302.667	-59.22
302.881	73.9
303.095	-3.93
303.309	84.14
303.524	16.55
303.738	80.04
303.952	80.04
304.166	49.32
304.381	4.27
304.595	112.81
304.809	61.61
305.023	55.47
305.237	63.66
305.452	71.85
305.666	12.46
305.88	22.7
306.094	75.95
306.308	6.31
306.522	90.28
306.736	73.9
306.95	24.75
307.164	-8.02
307.379	-3.93
307.593	14.51
307.807	8.36
308.021	37.03
308.235	-44.88
308.449	20.65
308.663	22.7
308.877	63.66
309.091	80.04
309.305	57.51
309.519	-12.12
309.733	39.08
309.947	-51.03
310.161	30.89
310.374	22.7
310.588	61.61
310.802	14.51
311.016	14.51
311.23	41.13
311.444	-16.21
311.658	12.46
311.872	16.55
312.085	55.47
312.299	22.7
312.513	37.03
312.727	16.55
312.941	6.31
313.154	94.38
313.368	14.51
313.582	12.46
313.796	20.65
314.009	6.31
314.223	53.42
314.437	20.65
314.651	-1.88
314.864	12.46
315.078	-46.93
315.292	20.65
315.505	-36.69
315.719	47.27
315.933	61.61
316.146	14.51
316.36	-20.31
316.573	200.87
316.787	2.22
317.001	41.13
317.214	57.51
317.428	57.51
317.641	-14.17
317.855	39.08
318.068	4.27
318.282	28.84
318.495	55.47
318.709	2.22
318.922	14.51
319.136	77.99
319.349	24.75
319.563	73.9
319.776	6.31
319.99	-12.12
320.203	20.65
320.417	37.03
320.63	92.33
320.843	-28.5
321.057	41.13
321.27	28.84
321.483	20.65
321.697	39.08
321.91	94.38
322.124	-20.31
322.337	37.03
322.55	8.36
322.763	49.32
322.977	88.23
323.19	0.17
323.403	20.65
323.617	98.47
323.83	45.23
324.043	-20.31
324.256	-28.5
324.469	86.19
324.683	65.71
324.896	-3.93
325.109	80.04
325.322	-20.31
325.535	71.85
325.748	41.13
325.962	-53.08
326.175	73.9
326.388	53.42
326.601	24.75
326.814	37.03
327.027	6.31
327.24	41.13
327.453	-14.17
327.666	49.32
327.879	10.41
328.092	47.27
328.305	41.13
328.518	39.08
328.731	0.17
328.944	65.71
329.157	14.51
329.37	12.46
329.583	123.05
329.796	86.19
330.009	28.84
330.222	108.71
330.435	16.55
330.648	-44.88
330.861	102.57
331.073	39.08
331.286	-1.88
331.499	30.89
331.712	26.79
331.925	30.89
332.138	49.32
332.35	61.61
332.563	-75.6
332.776	55.47
332.989	71.85
333.202	-28.5
333.414	-28.5
333.627	2.22
333.84	-12.12
334.053	41.13
334.265	-8.02
334.478	41.13
334.691	61.61
334.903	53.42
335.116	20.65
335.329	67.75
335.541	24.75
335.754	57.51
335.966	-51.03
336.179	77.99
336.392	6.31
336.604	24.75
336.817	30.89
337.029	6.31
337.242	100.52
337.454	32.94
337.667	32.94
337.88	131.24
338.092	84.14
338.305	102.57
338.517	57.51
338.729	73.9
338.942	59.56
339.154	2.22
339.367	28.84
339.579	39.08
339.792	39.08
340.004	41.13
340.217	-24.4
340.429	28.84
340.641	28.84
340.854	0.17
341.066	90.28
341.278	18.6
341.491	108.71
341.703	37.03
341.915	20.65
342.128	53.42
342.34	-16.21
342.552	-10.07
342.764	94.38
342.977	-44.88
343.189	-53.08
343.401	67.75
343.613	61.61
343.826	39.08
344.038	4.27
344.25	-34.64
344.462	12.46
344.674	28.84
344.886	55.47
345.099	4.27
345.311	51.37
345.523	0.17
345.735	20.65
345.947	12.46
346.159	4.27
346.371	30.89
346.583	12.46
346.795	110.76
347.007	4.27
347.219	34.99
347.431	-44.88
347.643	90.28
347.855	-30.55
348.067	82.09
348.279	88.23
348.491	30.89
348.703	26.79
348.915	94.38
349.127	4.27
349.339	53.42
349.551	20.65
349.763	41.13
349.975	-8.02
350.187	30.89
350.399	22.7
350.61	-28.5
350.822	61.61
351.034	82.09
351.246	-44.88
351.458	24.75
351.669	-5.97
351.881	20.65
352.093	43.18
352.305	55.47
352.517	16.55
352.728	104.62
352.94	12.46
353.152	10.41
353.363	-3.93
353.575	39.08
353.787	49.32
353.999	24.75
354.21	104.62
354.422	39.08
354.633	61.61
354.845	47.27
355.057	39.08
355.268	59.56
355.48	-40.79
355.692	45.23
355.903	-1.88
356.115	69.8
356.326	-36.69
356.538	53.42
356.749	39.08
356.961	53.42
357.172	18.6
357.384	-16.21
357.595	82.09
357.807	-1.88
358.018	-3.93
358.23	49.32
358.441	47.27
358.653	10.41
358.864	61.61
359.075	37.03
359.287	-12.12
359.498	63.66
359.709	28.84
359.921	-8.02
360.132	28.84
360.344	0.17
360.555	12.46
360.766	39.08
360.977	-28.5
361.189	61.61
361.4	45.23
361.611	47.27
361.823	41.13
362.034	49.32
362.245	-65.36
362.456	49.32
362.667	63.66
362.879	22.7
363.09	0.17
363.301	73.9
363.512	-36.69
363.723	12.46
363.935	12.46
364.146	37.03
364.357	94.38
364.568	41.13
364.779	-3.93
364.99	45.23
365.201	47.27
365.412	2.22
365.623	-59.22
365.834	41.13
366.045	-77.65
366.256	61.61
366.467	59.56
366.678	-34.64
366.889	24.75
367.1	-12.12
367.311	28.84
367.522	47.27
367.733	45.23
367.944	49.32
368.155	-61.27
368.366	57.51
368.577	71.85
368.788	37.03
368.999	-3.93
369.209	63.66
369.42	104.62
369.631	170.15
369.842	69.8
370.053	77.99
370.264	41.13
370.474	12.46
370.685	-14.17
370.896	77.99
371.107	45.23
371.317	61.61
371.528	-22.36
371.739	77.99
371.95	86.19
372.16	47.27
372.371	28.84
372.582	6.31
372.792	143.53
373.003	6.31
373.214	45.23
373.424	30.89
373.635	-48.98
373.846	71.85
374.056	47.27
374.267	37.03
374.477	59.56
374.688	30.89
374.898	0.17
375.109	4.27
375.319	71.85
375.53	71.85
375.74	-34.64
375.951	-1.88
376.161	12.46
376.372	88.23
376.582	8.36
376.793	32.94
377.003	12.46
377.214	61.61
377.424	67.75
377.635	77.99
377.845	61.61
378.055	45.23
378.266	-81.75
378.476	22.7
378.686	59.56
378.897	55.47
379.107	55.47
379.317	45.23
379.528	41.13
379.738	69.8
379.948	71.85
380.158	6.31
380.369	30.89
380.579	71.85
380.789	-24.4
380.999	39.08
381.21	34.99
381.42	61.61
381.63	20.65
381.84	8.36
382.05	32.94
382.261	77.99
382.471	65.71
382.681	45.23
382.891	39.08
383.101	100.52
383.311	-24.4
383.521	10.41
383.731	92.33
383.941	-28.5
384.151	-20.31
384.361	16.55
384.571	37.03
384.781	-3.93
384.991	39.08
385.201	112.81
385.411	73.9
385.621	20.65
385.831	69.8
386.041	102.57
386.251	43.18
386.461	39.08
386.671	73.9
386.881	55.47
387.091	45.23
387.301	77.99
387.511	-20.31
387.72	73.9
387.93	84.14
388.14	8.36
388.35	73.9
388.56	71.85
388.769	39.08
388.979	47.27
389.189	12.46
389.399	14.51
389.609	77.99
389.818	26.79
390.028	20.65
390.238	20.65
390.447	6.31
390.657	57.51
390.867	16.55
391.076	37.03
391.286	80.04
391.496	-14.17
391.705	-34.64
391.915	80.04
392.125	100.52
392.334	12.46
392.544	61.61
392.753	47.27
392.963	28.84
393.172	77.99
393.382	26.79
393.591	61.61
393.801	26.79
394.01	88.23
394.22	37.03
394.429	41.13
394.639	16.55
394.848	137.38
395.058	24.75
395.267	77.99
395.477	61.61
395.686	8.36
395.895	94.38
396.105	141.48
396.314	28.84
396.524	96.43
396.733	51.37
396.942	26.79
397.152	45.23
397.361	47.27
397.57	88.23
397.78	63.66
397.989	22.7
398.198	45.23
398.407	-12.12
398.617	53.42
398.826	0.17
399.035	4.27
399.244	28.84
399.453	4.27
399.663	53.42
399.872	45.23
400.081	96.43
400.29	67.75
400.499	45.23
400.708	39.08
400.917	53.42
401.127	94.38
401.336	106.67
401.545	69.8
401.754	94.38
401.963	77.99
402.172	20.65
402.381	0.17
402.59	14.51
402.799	86.19
403.008	100.52
403.217	86.19
403.426	32.94
403.635	86.19
403.844	53.42
404.053	102.57
404.262	92.33
404.471	143.53
404.68	80.04
404.888	151.72
405.097	8.36
405.306	104.62
405.515	121
405.724	106.67
405.933	94.38
406.142	145.58
406.35	51.37
406.559	41.13
406.768	20.65
406.977	153.77
407.185	123.05
407.394	153.77
407.603	143.53
407.812	118.95
408.02	135.34
408.229	45.23
408.438	135.34
408.646	118.95
408.855	98.47
409.064	184.49
409.272	168.1
409.481	147.62
409.69	207.02
409.898	123.05
410.107	190.63
410.315	129.19
410.524	127.14
410.733	233.64
410.941	176.3
411.15	161.96
411.358	170.15
411.567	204.97
411.775	112.81
411.984	186.54
412.192	303.27
412.401	186.54
412.609	252.07
412.818	290.98
413.026	299.17
413.234	258.21
413.443	241.83
413.651	258.21
413.86	274.6
414.068	254.12
414.276	290.98
414.485	323.75
414.693	348.33
414.901	350.37
415.11	409.76
415.318	364.71
415.526	274.6
415.734	454.82
415.943	329.89
416.151	377
416.359	391.33
416.567	458.92
416.776	479.4
416.984	520.35
417.192	483.49
417.4	534.69
417.608	463.01
417.817	503.97
418.025	602.27
418.233	645.28
418.441	610.47
418.649	587.94
418.857	737.44
419.065	698.53
419.273	626.85
419.481	727.2
419.689	735.39
419.897	786.59
420.105	780.45
420.313	823.45
420.521	839.84
420.729	782.49
420.937	809.12
421.145	872.61
421.353	895.13
421.561	1003.68
421.769	968.86
421.977	1110.17
422.185	1044.63
422.393	1110.17
422.601	1177.75
422.809	1196.18
423.017	1216.66
423.224	1245.34
423.432	1228.95
423.64	1319.06
423.848	1368.21
424.056	1319.06
424.263	1431.7
424.471	1458.32
424.679	1587.35
424.887	1546.39
425.094	1702.03
425.302	1695.89
425.51	1585.3
425.718	1712.27
425.925	1747.09
426.133	1876.11
426.341	1822.86
426.548	2050.19
426.756	1972.36
426.964	2039.95
427.171	2062.48
427.379	2119.82
427.586	2236.55
427.794	2205.83
428.001	2404.49
428.209	2588.8
428.417	2556.04
428.624	2537.6
428.832	2510.98
429.039	2625.67
429.247	2627.71
429.454	2863.23
429.662	3027.07
429.869	2887.81
430.076	3147.9
430.284	3045.5
430.491	3072.12
430.699	3276.92
430.906	3203.19
431.114	3301.5
431.321	3479.67
431.528	3434.61
431.736	3846.26
431.943	3840.11
432.15	3807.34
432.358	3805.3
432.565	4028.53
432.772	3942.51
432.979	4118.64
433.187	4247.66
433.394	4249.71
433.601	4577.38
433.808	4642.92
434.016	4546.66
434.223	4870.24
434.43	5050.46
434.637	5034.08
434.844	5253.21
435.052	5337.18
435.259	5349.47
435.466	5451.86
435.673	5240.92
435.88	5703.76
436.087	5894.22
436.294	5918.8
436.501	5720.15
436.708	5935.18
436.915	6148.17
437.122	6291.53
437.329	6262.86
437.537	6533.19
437.743	6639.69
437.95	6664.26
438.157	7041.09
438.364	7401.53
438.571	7051.33
438.778	7272.51
438.985	8071.22
439.192	7573.56
439.399	7852.08
439.606	7622.71
439.813	8120.37
440.02	8601.64
440.227	8280.11
440.433	8347.69
440.64	8675.37
440.847	8552.49
441.054	8693.8
441.261	9275.42
441.467	9195.55
441.674	9447.45
441.881	9617.43
442.088	9758.74
442.294	9834.52
442.501	9990.16
442.708	10008.59
442.914	10319.89
443.121	10969.09
443.328	10549.26
443.534	11425.79
443.741	10948.61
443.948	10709
444.154	11644.92
444.361	11548.67
444.568	11687.93
444.774	11710.46
444.981	11972.6
445.187	12251.12
445.394	12543.98
445.6	12580.84
445.807	13715.42
446.013	13182.95
446.22	13463.52
446.426	13762.52
446.633	14217.17
446.839	14493.65
447.046	13633.5
447.252	14794.7
447.459	14686.15
447.665	14731.21
447.871	15128.52
448.078	15783.87
448.284	15298.5
448.491	15605.69
448.697	15916.98
448.903	16488.37
449.11	16510.89
449.316	16148.4
449.522	16371.63
449.728	17180.58
449.935	17002.41
450.141	17313.7
450.347	17436.58
450.553	16998.31
450.76	17338.27
450.966	17827.74
451.172	17774.49
451.378	18030.49
451.584	17887.13
451.791	18098.07
451.997	18182.04
452.203	18378.64
452.409	18272.15
452.615	18302.87
452.821	17741.72
453.027	17379.23
453.233	18411.41
453.44	17536.93
453.646	17973.14
453.852	18116.5
454.058	18263.96
454.264	17821.59
454.47	18407.31
454.676	18024.34
454.882	18528.14
455.088	16826.28
455.294	17276.84
455.5	17584.03
455.705	17813.4
455.911	16822.19
456.117	16461.74
456.323	16373.68
456.529	15628.22
456.735	16498.61
456.941	15767.48
457.147	15519.68
457.352	15060.93
457.558	15142.85
457.764	14876.62
457.97	14749.64
458.176	14579.66
458.381	14520.27
458.587	13854.68
458.793	13826.01
458.999	13176.8
459.204	14186.45
459.41	13604.83
459.616	12838.89
459.821	12754.92
460.027	12664.81
460.233	12519.4
460.438	11859.96
460.644	12081.14
460.85	11313.15
461.055	11096.07
461.261	11343.87
461.466	10418.19
461.672	10158.1
461.878	10731.53
462.083	9981.97
462.289	9719.83
462.494	9840.66
462.7	9502.75
462.905	9277.47
463.111	9566.23
463.316	9472.03
463.522	9343
463.727	9300
463.932	9469.98
464.138	9138.21
464.343	9283.61
464.549	8990.75
464.754	9293.85
464.959	9017.38
465.165	9138.21
465.37	8593.45
465.575	8413.23
465.781	9023.52
465.986	8876.07
466.191	8433.71
466.397	8214.57
466.602	7909.43
466.807	8380.46
467.012	8372.27
467.218	8192.05
467.423	7944.24
467.628	7991.34
467.833	8441.9
468.038	8124.46
468.244	7845.94
468.449	8220.72
468.654	8028.21
468.859	7921.71
469.064	7864.37
469.269	7417.91
469.474	7749.68
469.679	7675.96
469.885	7739.44
470.09	7671.86
470.295	7600.18
470.5	7467.06
470.705	7575.61
470.91	7274.56
471.115	7305.28
471.32	7444.54
471.525	7311.42
471.73	7133.25
471.935	7196.73
472.139	6901.83
472.344	6955.07
472.549	6891.59
472.754	6852.67
472.959	6656.07
473.164	6549.57
473.369	6533.19
473.574	6754.37
473.778	6676.55
473.983	6543.43
474.188	6623.3
474.393	6283.34
474.598	6293.58
474.802	6176.84
475.007	6312.01
475.212	6152.27
475.417	5967.95
475.621	5853.27
475.826	6029.39
476.031	5789.78
476.235	5818.45
476.44	5824.59
476.645	5816.4
476.849	5656.66
477.054	5748.82
477.259	5601.37
477.463	5673.04
477.668	5556.31
477.872	5464.15
478.077	5279.83
478.282	5318.75
478.486	5312.6
478.691	5267.55
478.895	5197.92
479.1	5279.83
479.304	5152.86
479.509	5040.22
479.713	5345.37
479.918	5013.6
480.122	4743.27
480.326	4956.26
480.531	4972.64
480.735	5132.38
480.94	4810.85
481.144	5075.04
481.348	4755.55
481.553	4857.95
481.757	4618.34
481.961	4892.77
482.166	4872.29
482.37	4898.91
482.574	4831.33
482.778	4884.58
482.983	4970.59
483.187	4751.46
483.391	4837.47
483.595	4771.94
483.8	4831.33
484.004	4802.66
484.208	4812.9
484.412	4743.27
484.616	4847.71
484.821	4804.71
485.025	4644.96
485.229	4681.83
485.433	4665.44
485.637	4831.33
485.841	4771.94
486.045	4759.65
486.249	4735.07
486.453	4526.18
486.657	4839.52
486.861	4700.26
487.065	4522.09
487.269	4700.26
487.473	4604
487.677	4730.98
487.881	4755.55
488.085	4804.71
488.289	4946.02
488.493	4812.9
488.697	4739.17
488.901	4753.51
489.105	4690.02
489.309	4808.8
489.512	4923.49
489.716	4749.41
489.92	4821.09
490.124	4876.38
490.328	4847.71
490.531	4905.06
490.735	4860
490.939	4870.24
491.143	4894.82
491.346	4880.48
491.55	4964.45
491.754	4964.45
491.958	4968.54
492.161	5023.84
492.365	5009.5
492.569	5019.74
492.772	5079.13
492.976	5234.78
493.18	5068.89
493.383	5097.56
493.587	5103.71
493.79	5023.84
493.994	5017.69
494.197	5087.33
494.401	5341.27
494.605	5214.3
494.808	5281.88
495.012	5361.75
495.215	5369.94
495.419	5353.56
495.622	5498.97
495.825	5531.73
496.029	5371.99
496.232	5501.01
496.436	5587.03
496.639	5625.94
496.843	5738.58
497.046	5830.74
497.249	5935.18
497.453	5922.9
497.656	5978.19
497.859	6180.94
498.063	6232.14
498.266	6123.6
498.469	6053.97
498.673	6258.76
498.876	6199.37
499.079	6336.59
499.282	6451.27
499.485	6379.59
499.689	6492.23
499.892	6697.03
500.095	6537.29
500.298	6768.71
500.501	6705.22
500.705	6961.22
500.908	6910.02
501.111	6903.87
501.314	7147.58
501.517	7065.66
501.72	7223.36
501.923	7262.27
502.126	7376.95
502.329	7643.19
502.532	7647.29
502.735	7673.91
502.938	7864.37
503.141	7764.02
503.344	7999.54
503.547	7997.49
503.75	8085.55
503.953	8187.95
504.156	8142.89
504.359	8345.64
504.562	8359.98
504.765	8536.1
504.968	8638.5
505.17	8704.04
505.373	8593.45
505.576	8822.82
505.779	9003.04
505.982	8966.18
506.185	9130.02
506.387	9484.31
506.59	9248.8
506.793	9555.99
506.996	9555.99
507.198	9805.85
507.401	9859.09
507.604	9846.8
507.807	10049.55
508.009	10104.85
508.212	10319.89
508.415	10295.31
508.617	10393.61
508.82	10698.76
509.022	10438.67
509.225	10801.16
509.428	10803.21
509.63	11055.11
509.833	10854.41
510.035	11339.77
510.238	11071.49
510.44	11368.45
510.643	11587.58
510.845	11565.05
511.048	11444.22
511.25	11728.89
511.453	11991.03
511.655	12431.34
511.858	12013.56
512.06	12148.72
512.262	12488.68
512.465	12455.92
512.667	13025.25
512.87	12693.48
513.072	12900.33
513.274	13457.37
513.477	13389.79
513.679	13586.4
513.881	13498.33
514.084	13711.32
514.286	14047.19
514.488	13952.98
514.69	14225.36
514.893	14278.61
515.095	14196.69
515.297	14604.24
515.499	14616.52
515.701	15075.27
515.904	14946.25
516.106	14972.87
516.308	15175.62
516.51	15495.1
516.712	15275.97
516.914	15556.54
517.116	16025.53
517.318	16132.02
517.52	16291.76
517.722	16093.11
517.925	16256.95
518.127	16752.56
518.329	16900.01
518.531	16576.43
518.733	17289.12
518.935	17311.65
519.136	17504.16
519.338	17633.18
519.54	17690.52
519.742	17780.64
519.944	17821.59
520.146	18057.11
520.348	18161.56
520.55	18311.06
520.752	18356.11
520.954	18825.1
521.155	18968.46
521.357	19111.82
521.559	19236.74
521.761	19625.86
521.963	19562.37
522.164	19541.89
522.366	19771.26
522.568	19955.58
522.77	20076.41
522.971	20232.05
523.173	20156.28
523.375	20547.44
523.576	20502.39
523.778	20426.61
523.98	20715.37
524.181	20897.64
524.383	21075.82
524.584	21270.37
524.786	21557.09
524.988	21313.38
525.189	21659.49
525.391	21909.34
525.592	21880.67
525.794	22107.99
525.995	22167.38
526.197	22161.24
526.398	22550.35
526.6	22411.09
526.801	22624.08
527.003	22988.62
527.204	22286.17
527.406	23226.18
527.607	22931.28
527.808	23097.16
528.01	22708.05
528.211	23050.06
528.412	23422.79
528.614	23420.74
528.815	23535.43
529.016	23504.71
529.218	23584.58
529.419	23625.54
529.62	23703.36
529.822	23478.08
530.023	23711.55
530.224	23895.87
530.425	23660.35
530.626	23836.48
530.828	23902.01
531.029	24414.01
531.23	23686.98
531.431	24336.18
531.632	23914.3
531.833	24471.35
532.035	24510.26
532.236	24428.34
532.437	24612.66
532.638	23902.01
532.839	24450.87
533.04	24375.09
533.241	24104.76
533.442	24719.15
533.643	24641.33
533.844	24631.09
534.045	24534.84
534.246	24586.04
534.447	24522.55
534.648	24626.99
534.849	24532.79
535.05	24901.42
535.251	25038.64
535.451	24350.52
535.652	24690.48
535.853	24708.91
536.054	24866.61
536.255	24651.57
536.456	24626.99
536.657	25083.69
536.857	24882.99
537.058	24829.74
537.259	25216.81
537.46	24672.05
537.66	24727.35
537.861	24962.86
538.062	24661.81
538.263	24780.59
538.463	24639.28
538.664	24741.68
538.865	25005.87
539.065	24848.18
539.266	24665.91
539.466	24911.66
539.667	24653.62
539.868	25214.76
540.068	24817.46
540.269	24915.76
540.469	24999.73
540.67	24909.61
540.87	24764.21
541.071	24870.7
541.271	24960.81
541.472	24827.7
541.672	24733.49
541.873	24829.74
542.073	24483.64
542.274	24923.95
542.474	24770.35
542.675	24618.8
542.875	24942.38
543.075	24964.91
543.276	24510.26
543.476	25134.89
543.676	24792.88
543.877	25087.79
544.077	24678.19
544.277	24788.78
544.478	24899.37
544.678	25038.64
544.878	24827.7
545.078	24915.76
545.279	24563.51
545.479	24532.79
545.679	24850.22
545.879	24604.47
546.079	24557.36
546.28	24803.12
546.48	24397.62
546.68	24833.84
546.88	24829.74
547.08	24950.57
547.28	24516.4
547.48	24473.4
547.68	24616.76
547.88	24506.16
548.081	24762.16
548.281	24676.15
548.481	24346.42
548.681	24715.06
548.881	24825.65
549.081	24424.25
549.28	24702.77
549.48	24794.93
549.68	24399.67
549.88	25067.31
550.08	24471.35
550.28	24588.08
550.48	24688.43
550.68	25005.87
550.88	24452.92
551.08	24704.82
551.279	24489.78
551.479	24559.41
551.679	24727.35
551.879	24686.39
552.079	24629.04
552.278	24571.7
552.478	24604.47
552.678	24301.37
552.878	24434.49
553.077	24747.83
553.277	24573.75
553.477	24661.81
553.676	24538.93
553.876	24469.3
554.076	24411.96
554.275	24211.26
554.475	24123.19
554.674	24848.18
554.874	24414.01
555.074	24209.21
555.273	24153.91
555.473	24215.35
555.672	24270.65
555.872	24168.25
556.071	23969.6
556.271	24573.75
556.47	24033.08
556.67	23969.6
556.869	24172.35
557.068	23973.69
557.268	24061.76
557.467	24299.32
557.667	24168.25
557.866	23973.69
558.065	23963.45
558.265	23902.01
558.464	23476.04
558.663	24059.71
558.863	23742.27
559.062	23920.45
559.261	23615.3
559.461	23789.38
559.66	23615.3
559.859	23912.25
560.058	23385.93
560.258	23674.69
560.457	23283.53
560.656	23502.66
560.855	23451.46
561.054	23330.63
561.253	23105.35
561.453	23406.41
561.652	23545.67
561.851	23490.37
562.05	23048.01
562.249	22914.89
562.448	23508.8
562.647	23150.41
562.846	23007.05
563.045	22986.57
563.244	22673.23
563.443	22935.37
563.642	22869.84
563.841	22654.8
564.04	22665.04
564.239	22839.12
564.438	22552.4
564.637	22589.27
564.836	22732.62
565.035	22388.57
565.234	22386.52
565.432	22507.35
565.631	22400.85
565.83	22474.58
566.029	22558.55
566.228	22056.79
566.427	22110.04
566.625	22077.27
566.824	21770.08
567.023	22083.42
567.222	21626.72
567.42	21821.28
567.619	21917.53
567.818	21659.49
568.016	21618.53
568.215	21749.6
568.414	21208.94
568.612	21669.73
568.811	21419.88
569.01	21090.15
569.208	21036.91
569.407	21440.36
569.605	21055.34
569.804	21034.86
570.002	21032.81
570.201	21065.58
570.4	20795.25
570.598	20733.81
570.797	20565.87
570.995	20434.8
571.193	20373.36
571.392	20715.37
571.59	20248.44
571.789	20582.26
571.987	20373.36
572.186	20342.64
572.384	20283.25
572.582	20387.7
572.781	20322.16
572.979	20043.64
573.177	20111.22
573.376	19965.82
573.574	20004.73
573.772	19750.78
573.971	19902.33
574.169	19754.88
574.367	19584.9
574.565	19550.08
574.763	19550.08
574.962	19621.76
575.16	19158.92
575.358	19668.86
575.556	19373.96
575.754	19548.03
575.952	18993.03
576.151	19365.76
576.349	18986.89
576.547	19029.9
576.745	19040.14
576.943	18812.81
577.141	18655.12
577.339	18874.25
577.537	18628.49
577.735	18478.99
577.933	18689.93
578.131	18603.92
578.329	18591.63
578.527	18380.69
578.725	18227.09
578.923	18614.16
579.121	18206.61
579.319	18159.51
579.516	18225.04
579.714	18206.61
579.912	18241.43
580.11	18161.56
580.308	18098.07
580.506	17727.39
580.704	17442.72
580.901	17962.9
581.099	18087.83
581.297	17530.78
581.495	17604.51
581.692	17643.42
581.89	17551.26
582.088	17627.04
582.285	17631.13
582.483	17272.74
582.681	17313.7
582.878	17014.7
583.076	17264.55
583.274	17301.41
583.471	17086.37
583.669	17336.23
583.866	16983.98
584.064	16848.81
584.262	16732.08
584.459	16871.34
584.657	16760.75
584.854	16801.71
585.052	16531.37
585.249	16678.83
585.447	16764.84
585.644	16789.42
585.841	16682.92
586.039	16662.44
586.236	16248.75
586.434	16306.1
586.631	16641.96
586.828	16299.95
587.026	16283.57
587.223	16162.74
587.42	16238.51
587.618	16123.83
587.815	15775.67
588.012	15964.09
588.21	15761.34
588.407	16248.75
588.604	15847.35
588.801	15468.48
588.999	15755.19
589.196	15826.87
589.393	15581.12
589.59	15605.69
589.787	15392.7
589.984	15501.25
590.182	15327.17
590.379	15513.53
590.576	15488.96
590.773	15171.52
590.97	15091.65
591.167	15323.07
591.364	15060.93
591.561	15204.29
591.758	14944.2
591.955	14913.48
592.152	15015.88
592.349	14684.11
592.546	14985.16
592.743	14954.44
592.94	14815.18
593.137	14960.58
593.334	14698.44
593.531	14651.34
593.727	14800.84
593.924	14612.43
594.121	14360.53
594.318	14667.72
594.515	14479.31
594.712	14829.51
594.908	14094.29
595.105	14483.41
595.302	14096.34
595.499	14403.53
595.696	14272.46
595.892	14034.9
596.089	14206.93
596.286	14092.24
596.482	14137.3
596.679	13787.1
596.876	14053.33
597.072	13907.93
597.269	13795.29
597.466	13883.35
597.662	13869.02
597.859	13674.46
598.055	13766.62
598.252	13598.68
598.448	13586.4
598.645	13393.89
598.841	13553.63
599.038	13559.77
599.234	13469.66
599.431	13479.9
599.627	13406.17
599.824	13651.93
600.02	13176.8
600.217	13273.06
600.413	13119.46
600.609	12912.61
600.806	13086.69
601.002	13193.19
601.198	13023.2
601.395	12775.4
601.591	13043.68
601.787	12939.24
601.984	12791.78
602.18	13031.4
602.376	12875.75
602.572	12599.27
602.769	12963.81
602.965	12599.27
603.161	12742.63
603.357	12423.15
603.553	12660.71
603.75	12611.56
603.946	12365.81
604.142	12503.02
604.338	12488.68
604.534	12320.75
604.73	12212.21
604.926	12210.16
605.122	12261.36
605.318	12335.09
605.514	12156.91
605.71	12253.17
605.906	11991.03
606.102	12056.56
606.298	11880.44
606.494	12050.42
606.69	12015.6
606.886	12058.61
607.082	11771.9
607.278	11991.03
607.474	11698.17
607.67	11597.82
607.866	11696.12
608.062	11870.2
608.257	11636.73
608.453	11710.46
608.649	11606.01
608.845	11448.32
609.041	11433.98
609.236	11542.52
609.432	11323.39
609.628	11485.18
609.824	11522.04
610.019	11341.82
610.215	11278.33
610.411	11548.67
610.606	11544.57
610.802	11335.68
610.998	11216.9
611.193	11274.24
611.389	11319.29
611.584	11210.75
611.78	11040.77
611.976	11241.47
612.171	11163.65
612.367	11081.73
612.562	11053.06
612.758	10883.08
612.953	10942.47
613.149	11368.45
613.344	10788.87
613.539	11018.24
613.735	10764.29
613.93	10926.08
614.126	10741.77
614.321	10997.76
614.517	10944.52
614.712	10860.55
614.907	10715.14
615.103	10727.43
615.298	10311.69
615.493	10762.25
615.688	10610.7
615.884	11014.15
616.079	10493.96
616.274	10563.59
616.47	10625.03
616.665	10727.43
616.86	10436.62
617.055	10442.76
617.25	10536.97
617.445	10522.63
617.641	10092.56
617.836	10328.08
618.031	10369.04
618.226	10375.18
618.421	10174.48
618.616	10194.96
618.811	10305.55
619.006	10244.11
619.201	9990.16
619.396	10121.23
619.591	9869.33
619.786	9969.68
619.981	9893.91
620.176	10037.27
620.371	9926.68
620.566	9957.39
620.761	9531.42
620.956	9924.63
621.151	9625.62
621.346	9746.45
621.541	9412.64
621.735	9642.01
621.93	9441.31
622.125	9449.5
622.32	9363.48
622.515	9400.35
622.709	9549.85
622.904	9252.89
623.099	9201.69
623.294	9256.99
623.488	9072.67
623.683	9060.38
623.878	9117.73
624.072	9338.91
624.267	8859.68
624.462	8802.34
624.656	8697.89
624.851	8788
625.046	8689.7
625.24	8699.94
625.435	8632.36
625.629	8570.92
625.824	8712.23
626.018	8575.02
626.213	8337.45
626.407	8509.48
626.602	8411.18
626.796	8245.29
626.991	8468.52
627.185	8210.48
627.38	8169.52
627.574	8206.38
627.768	8124.46
627.963	8073.26
628.157	8040.5
628.352	8087.6
628.546	8040.5
628.74	7991.34
628.935	7880.75
629.129	7776.31
629.323	7548.98
629.517	7819.32
629.712	7778.36
629.906	7589.94
630.1	7514.17
630.294	7540.79
630.489	7526.46
630.683	7585.85
630.877	7231.55
631.071	7405.63
631.265	7483.45
631.459	7344.19
631.653	7143.49
631.848	7288.89
632.042	7206.97
632.236	7268.41
632.43	7131.2
632.624	7106.62
632.818	7000.13
633.012	7067.71
633.206	7000.13
633.4	7073.85
633.594	7043.14
633.788	6811.71
633.982	6971.46
634.176	6828.1
634.369	6838.34
634.563	6694.98
634.757	6525
634.951	6836.29
635.145	6723.65
635.339	6692.93
635.533	6631.49
635.726	6621.25
635.92	6500.42
636.114	6674.5
636.308	6338.63
636.501	6385.74
636.695	6393.93
636.889	6307.91
637.083	6477.9
637.276	6314.06
637.47	6230.09
637.664	6174.8
637.857	6164.56
638.051	6168.65
638.244	6156.36
638.438	5992.53
638.632	6105.17
638.825	5787.73
639.019	5994.58
639.212	6000.72
639.406	5943.38
639.599	5869.65
639.793	5800.02
639.986	5865.55
640.18	5814.35
640.373	5838.93
640.567	5552.21
640.76	5662.8
640.954	5494.87
641.147	5623.89
641.34	5636.18
641.534	5613.65
641.727	5525.59
641.92	5429.34
642.114	5396.57
642.307	5447.77
642.5	5369.94
642.694	5320.79
642.887	5316.7
643.08	5204.06
643.273	5251.16
643.467	5247.07
643.66	5111.9
643.853	5087.33
644.046	5189.72
644.239	4888.67
644.432	4976.73
644.626	4995.17
644.819	4950.11
645.012	5021.79
645.205	5034.08
645.398	5009.5
645.591	4886.62
645.784	4870.24
645.977	4776.03
646.17	4690.02
646.363	4730.98
646.556	4673.64
646.749	4667.49
646.942	4857.95
647.135	4773.99
647.328	4509.8
647.521	4743.27
647.714	4509.8
647.907	4677.73
648.099	4591.72
648.292	4636.77
648.485	4503.65
648.678	4526.18
648.871	4309.1
649.064	4403.3
649.256	4358.25
649.449	4341.86
649.642	4311.14
649.835	4098.16
650.027	4345.96
650.22	4472.93
650.413	4186.22
650.605	4208.75
650.798	4317.29
650.991	4194.41
651.183	4259.95
651.376	4235.37
651.568	4178.03
651.761	4094.06
651.954	4053.1
652.146	4003.95
652.339	4006
652.531	4192.36
652.724	3870.83
652.916	3838.06
653.109	3944.56
653.301	3829.87
653.494	3870.83
653.686	3883.12
653.879	3922.03
654.071	3854.45
654.263	3776.63
654.456	3883.12
654.648	3872.88
654.84	3856.5
655.033	3700.85
655.225	3879.02
655.417	3702.9
655.61	3747.95
655.802	3731.57
655.994	3909.74
656.186	3623.03
656.379	3584.12
656.571	3733.62
656.763	3530.87
656.955	3604.6
657.148	3559.54
657.34	3596.4
657.532	3453.05
657.724	3494.01
657.916	3418.23
658.108	3485.81
658.3	3471.48
658.492	3379.32
658.684	3485.81
658.876	3350.65
659.068	3289.21
659.26	3364.98
659.452	3215.48
659.644	3258.49
659.836	3397.75
660.028	3324.02
660.22	3227.77
660.412	3197.05
660.604	3242.11
660.796	3176.57
660.988	3184.76
661.18	3121.28
661.372	3203.19
661.563	3262.58
661.755	3149.95
661.947	3182.71
662.139	3100.8
662.331	3111.04
662.522	3006.59
662.714	3029.12
662.906	2855.04
663.097	2934.91
663.289	2914.43
663.481	2904.19
663.673	3004.54
663.864	3006.59
664.056	3018.88
664.247	2846.85
664.439	2990.21
664.631	2961.53
664.822	2910.33
665.014	2812.03
665.205	2838.66
665.397	2783.36
665.588	2863.23
665.78	2781.31
665.971	2781.31
666.163	2900.09
666.354	2668.67
666.546	2732.16
666.737	2658.43
666.929	2896
667.12	2707.59
667.311	2513.03
667.503	2699.39
667.694	2717.83
667.885	2635.91
668.077	2635.91
668.268	2570.37
668.459	2551.94
668.651	2519.17
668.842	2486.4
669.033	2568.32
669.224	2576.52
669.416	2472.07
669.607	2531.46
669.798	2553.99
669.989	2642.05
670.18	2535.56
670.371	2527.36
670.563	2445.45
670.754	2521.22
670.945	2398.34
671.136	2521.22
671.327	2445.45
671.518	2371.72
671.709	2369.67
671.9	2388.1
672.091	2326.66
672.282	2316.42
672.473	2232.46
672.664	2361.48
672.855	2369.67
673.046	2488.45
673.237	2332.81
673.428	2314.38
673.619	2349.19
673.809	2361.48
674	2267.27
674.191	2396.29
674.382	2297.99
674.573	2248.84
674.764	2289.8
674.954	2214.02
675.145	2250.89
675.336	2224.26
675.527	2203.79
675.717	2197.64
675.908	2338.95
676.099	2101.39
676.289	2252.94
676.48	2216.07
676.671	2220.17
676.861	2267.27
677.052	2166.92
677.243	2148.49
677.433	2179.21
677.624	2240.65
677.814	2134.15
678.005	2144.39
678.195	2125.96
678.386	2082.95
678.576	2144.39
678.767	2039.95
678.957	2123.91
679.148	2119.82
679.338	2158.73
679.529	2117.77
679.719	2052.24
679.909	2062.48
680.1	2113.67
680.29	2089.1
680.481	2021.52
680.671	2269.32
680.861	2078.86
681.052	2101.39
681.242	1917.07
681.432	2107.53
681.622	2027.66
681.813	2054.28
682.003	2001.04
682.193	1939.6
682.383	2105.48
682.573	1953.93
682.764	1937.55
682.954	2117.77
683.144	1876.11
683.334	1917.07
683.524	1951.88
683.714	2035.85
683.904	2023.56
684.094	1955.98
684.284	1941.65
684.474	1945.74
684.664	2109.58
684.854	1972.36
685.044	1919.12
685.234	1966.22
685.424	1962.12
685.614	1917.07
685.804	2003.08
685.994	1915.02
686.184	1912.97
686.374	1896.59
686.564	1941.65
686.753	1804.43
686.943	1863.82
687.133	1927.31
687.323	1888.4
687.513	1882.25
687.702	1925.26
687.892	1865.87
688.082	1986.7
688.272	1822.86
688.461	1800.34
688.651	1814.67
688.841	1831.05
689.03	1814.67
689.22	1749.14
689.41	1869.97
689.599	1792.14
689.789	1790.1
689.979	1851.53
690.168	1798.29
690.358	1769.62
690.547	1802.38
690.737	1849.49
690.926	1757.33
691.116	1702.03
691.305	1722.51
691.495	1745.04
691.684	1818.77
691.874	1661.07
692.063	1761.42
692.252	1794.19
692.442	1824.91
692.631	1757.33
692.82	1798.29
693.01	1685.65
693.199	1759.38
693.388	1708.18
693.578	1794.19
693.767	1679.51
693.956	1708.18
694.146	1671.31
694.335	1646.74
694.524	1638.55
694.713	1716.37
694.902	1681.55
695.092	1769.62
695.281	1652.88
695.47	1663.12
695.659	1706.13
695.848	1710.22
696.037	1605.78
696.226	1706.13
696.415	1626.26
696.604	1667.22
696.793	1767.57
696.982	1691.79
697.171	1773.71
697.36	1702.03
697.549	1683.6
697.738	1634.45
697.927	1626.26
698.116	1757.33
698.305	1669.27
698.494	1613.97
698.683	1724.56
698.872	1656.98
699.061	1544.34
699.25	1652.88
699.438	1763.47
699.627	1726.61
699.816	1675.41
700.005	1595.54
700.193	1691.79
700.382	1667.22
700.571	1671.31
700.76	1763.47
700.948	1740.94
701.137	1648.79
701.326	1683.6
701.514	1585.3
701.703	1589.39
701.892	1702.03
702.08	1755.28
702.269	1687.7
702.457	1724.56
702.646	1693.84
702.834	1585.3
703.023	1659.03
703.212	1753.23
703.4	1605.78
703.589	1634.45
703.777	1745.04
703.965	1691.79
704.154	1636.5
704.342	1695.89
704.531	1708.18
704.719	1790.1
704.907	1714.32
705.096	1685.65
705.284	1732.75
705.472	1642.64
705.661	1675.41
705.849	1767.57
706.037	1710.22
706.226	1646.74
706.414	1742.99
706.602	1718.42
706.79	1712.27
706.979	1699.98
707.167	1847.44
707.355	1757.33
707.543	1708.18
707.731	1724.56
707.919	1749.14
708.107	1671.31
708.296	1585.3
708.484	1734.8
708.672	1718.42
708.86	1824.91
709.048	1755.28
709.236	1628.31
709.424	1740.94
709.612	1751.18
709.8	1683.6
709.988	1695.89
710.176	1794.19
710.364	1659.03
710.551	1759.38
710.739	1654.93
710.927	1622.16
711.115	1802.38
711.303	1714.32
711.491	1702.03
711.679	1585.3
711.866	1740.94
712.054	1734.8
712.242	1681.55
712.43	1695.89
712.617	1708.18
712.805	1781.9
712.993	1679.51
713.181	1630.35
713.368	1699.98
713.556	1783.95
713.744	1669.27
713.931	1890.45
714.119	1800.34
714.306	1687.7
714.494	1767.57
714.682	1749.14
714.869	1661.07
715.057	1822.86
715.244	1679.51
715.432	1634.45
715.619	1706.13
715.807	1777.81
715.994	1718.42
716.182	1855.63
716.369	1831.05
716.556	1814.67
716.744	1730.7
716.931	1732.75
717.119	1712.27
717.306	1738.9
717.493	1786
717.681	1824.91
717.868	1693.84
718.055	1622.16
718.242	1751.18
718.43	1736.85
718.617	1800.34
718.804	1699.98
718.991	1693.84
719.179	1718.42
719.366	1716.37
719.553	1704.08
719.74	1669.27
719.927	1751.18
720.114	1665.17
720.301	1570.96
720.488	1712.27
720.676	1714.32
720.863	1781.9
721.05	1745.04
721.237	1710.22
721.424	1751.18
721.611	1749.14
721.798	1777.81
721.985	1652.88
722.172	1669.27
722.358	1708.18
722.545	1769.62
722.732	1734.8
722.919	1730.7
723.106	1749.14
723.293	1716.37
723.48	1769.62
723.667	1679.51
723.853	1757.33
724.04	1759.38
724.227	1771.66
724.414	1786
724.6	1759.38
724.787	1683.6
724.974	1732.75
725.161	1716.37
725.347	1620.11
725.534	1740.94
725.72	1824.91
725.907	1736.85
726.094	1722.51
726.28	1695.89
726.467	1634.45
726.653	1659.03
726.84	1765.52
727.027	1810.58
727.213	1589.39
727.4	1812.62
727.586	1538.2
727.773	1730.7
727.959	1636.5
728.145	1732.75
728.332	1781.9
728.518	1583.25
728.705	1740.94
728.891	1659.03
729.077	1728.66
729.264	1765.52
729.45	1597.59
729.636	1652.88
729.823	1593.49
730.009	1675.41
730.195	1650.83
730.382	1740.94
730.568	1777.81
730.754	1683.6
730.94	1646.74
731.126	1663.12
731.313	1624.21
731.499	1667.22
731.685	1736.85
731.871	1724.56
732.057	1648.79
732.243	1632.4
732.429	1726.61
732.615	1697.94
732.801	1620.11
732.987	1675.41
733.173	1630.35
733.359	1638.55
733.545	1609.87
733.731	1570.96
733.917	1667.22
734.103	1538.2
734.289	1650.83
734.475	1634.45
734.661	1579.15
734.847	1579.15
735.033	1626.26
735.219	1560.72
735.404	1636.5
735.59	1706.13
735.776	1673.36
735.962	1648.79
736.148	1609.87
736.333	1570.96
736.519	1618.07
736.705	1755.28
736.89	1634.45
737.076	1620.11
737.262	1581.2
737.447	1712.27
737.633	1429.65
737.819	1560.72
738.004	1585.3
738.19	1540.24
738.375	1560.72
738.561	1620.11
738.747	1532.05
738.932	1482.9
739.118	1669.27
739.303	1622.16
739.489	1620.11
739.674	1511.57
739.859	1462.42
740.045	1509.52
740.23	1489.04
740.416	1499.28
740.601	1630.35
740.786	1513.62
740.972	1562.77
741.157	1464.47
741.342	1523.86
741.528	1454.23
741.713	1560.72
741.898	1452.18
742.084	1454.23
742.269	1544.34
742.454	1464.47
742.639	1511.57
742.824	1505.43
743.01	1462.42
743.195	1487
743.38	1472.66
743.565	1388.69
743.75	1474.71
743.935	1407.13
744.12	1507.48
744.305	1470.61
744.49	1341.59
744.675	1380.5
744.86	1429.65
745.045	1349.78
745.23	1357.97
745.415	1294.49
745.6	1421.46
745.785	1306.77
745.97	1323.16
746.155	1423.51
746.34	1372.31
746.525	1323.16
746.71	1302.68
746.895	1255.58
747.079	1323.16
747.264	1319.06
747.449	1298.58
747.634	1261.72
747.819	1306.77
748.003	1282.2
748.188	1228.95
748.373	1167.51
748.557	1202.33
748.742	1274.01
748.927	1208.47
749.111	1310.87
749.296	1171.61
749.481	1181.85
749.665	1136.79
749.85	1157.27
750.034	1151.13
750.219	1177.75
750.404	1198.23
750.588	1210.52
750.773	1134.75
750.957	1151.13
751.141	1071.26
751.326	1101.98
751.51	1175.7
751.695	1093.79
751.879	1091.74
752.064	1290.39
752.248	1028.25
752.432	1147.03
752.617	1058.97
752.801	1028.25
752.985	1040.54
753.17	1089.69
753.354	1099.93
753.538	1013.92
753.722	946.33
753.907	1044.63
754.091	913.56
754.275	946.33
754.459	966.81
754.643	989.34
754.828	1042.59
755.012	958.62
755.196	1003.68
755.38	905.37
755.564	925.85
755.748	989.34
755.932	1003.68
756.116	1011.87
756.3	1022.11
756.484	909.47
756.668	1048.73
756.852	915.61
757.036	823.45
757.22	987.29
757.404	927.9
757.588	862.37
757.772	843.93
757.956	913.56
758.14	913.56
758.323	905.37
758.507	946.33
758.691	888.99
758.875	899.23
759.059	944.28
759.242	903.32
759.426	823.45
759.61	821.41
759.794	954.52
759.977	823.45
760.161	888.99
760.345	770.21
760.528	917.66
760.712	747.68
760.895	850.08
761.079	856.22
761.263	825.5
761.446	784.54
761.63	770.21
761.813	782.49
761.997	915.61
762.18	800.93
762.364	784.54
762.547	774.3
762.731	774.3
762.914	753.82
763.098	692.38
763.281	678.05
763.464	774.3
763.648	759.97
763.831	745.63
764.015	678.05
764.198	798.88
764.381	762.02
764.564	786.59
764.748	700.58
764.931	696.48
765.114	719.01
765.297	729.25
765.481	714.91
765.664	700.58
765.847	745.63
766.03	745.63
766.213	698.53
766.397	716.96
766.58	698.53
766.763	757.92
766.946	698.53
767.129	755.87
767.312	606.37
767.495	733.34
767.678	700.58
767.861	639.14
768.044	643.23
768.227	637.09
768.41	653.47
768.593	618.66
768.776	673.95
768.959	565.41
769.142	630.95
769.324	669.86
769.507	645.28
769.69	688.29
769.873	569.51
770.056	708.77
770.239	702.62
770.421	585.89
770.604	606.37
770.787	659.62
770.97	594.08
771.152	653.47
771.335	612.51
771.518	594.08
771.7	579.75
771.883	620.71
772.066	577.7
772.248	565.41
772.431	561.31
772.613	635.04
772.796	592.03
772.978	575.65
773.161	624.8
773.343	522.4
773.526	606.37
773.708	569.51
773.891	544.93
774.073	565.41
774.256	587.94
774.438	637.09
774.621	530.59
774.803	614.56
774.985	438.44
775.168	637.09
775.35	577.7
775.532	483.49
775.715	573.6
775.897	516.26
776.079	553.12
776.261	512.16
776.444	430.24
776.626	481.44
776.808	479.4
776.99	479.4
777.173	544.93
777.355	471.2
777.537	538.79
777.719	452.77
777.901	407.72
778.083	497.83
778.265	479.4
778.447	444.58
778.629	467.11
778.811	528.55
778.993	422.05
779.175	522.4
779.357	483.49
779.539	401.57
779.721	467.11
779.903	348.33
780.085	438.44
780.267	534.69
780.449	401.57
780.631	446.63
780.812	454.82
780.994	411.81
781.176	407.72
781.358	409.76
781.54	458.92
781.721	465.06
781.903	372.9
782.085	403.62
782.267	340.13
782.448	329.89
782.63	456.87
782.812	368.81
782.993	391.33
783.175	364.71
783.357	307.37
783.538	385.19
783.72	383.14
783.901	374.95
784.083	356.52
784.264	356.52
784.446	315.56
784.627	368.81
784.809	323.75
784.99	315.56
785.172	368.81
785.353	350.37
785.535	393.38
785.716	295.08
785.897	360.61
786.079	329.89
786.26	270.5
786.441	336.04
786.623	307.37
786.804	260.26
786.985	344.23
787.167	426.15
787.348	290.98
787.529	323.75
787.71	290.98
787.891	305.32
788.073	284.84
788.254	247.97
788.435	381.09
788.616	276.65
788.797	315.56
788.978	307.37
789.159	241.83
789.34	346.28
789.522	258.21
789.703	268.45
789.884	342.18
790.065	290.98
790.246	338.09
790.427	333.99
790.607	348.33
790.788	290.98
790.969	286.89
791.15	217.26
791.331	235.69
791.512	182.44
791.693	135.34
791.874	270.5
792.054	309.41
792.235	338.09
792.416	245.93
792.597	258.21
792.778	293.03
792.958	209.06
793.139	282.79
793.32	219.3
793.5	260.26
793.681	340.13
793.862	184.49
794.042	209.06
794.223	180.39
794.404	213.16
794.584	164.01
794.765	260.26
794.945	252.07
795.126	276.65
795.306	225.45
795.487	243.88
795.667	219.3
795.848	219.3
796.028	209.06
796.209	164.01
796.389	258.21
796.57	235.69
796.75	207.02
796.93	258.21
797.111	159.91
797.291	176.3
797.471	200.87
797.652	217.26
797.832	139.43
798.012	290.98
798.192	227.5
798.373	266.41
798.553	211.11
798.733	190.63
798.913	202.92
799.093	250.02
799.274	161.96
799.454	204.97
799.634	168.1
799.814	209.06
799.994	194.73
800.174	176.3
800.354	153.77
800.534	125.1
800.714	110.76
800.894	139.43
801.074	184.49
801.254	198.82
801.434	219.3
801.614	147.62
801.794	178.34
801.974	807.07
802.154	159.91
802.334	102.57
802.514	104.62
802.693	204.97
802.873	139.43
803.053	227.5
803.233	118.95
803.413	194.73
803.592	168.1
803.772	145.58
803.952	112.81
804.131	106.67
804.311	155.82
804.491	164.01
804.67	114.86
804.85	127.14
805.03	147.62
805.209	192.68
805.389	168.1
805.568	88.23
805.748	98.47
805.928	145.58
806.107	137.38
806.287	155.82
806.466	137.38
806.646	127.14
806.825	147.62
807.004	96.43
807.184	213.16
807.363	164.01
807.543	151.72
807.722	106.67
807.901	170.15
808.081	161.96
808.26	77.99
808.439	155.82
808.619	141.48
808.798	116.9
808.977	161.96
809.156	141.48
809.336	92.33
809.515	176.3
809.694	98.47
809.873	108.71
810.052	112.81
810.231	166.06
810.411	143.53
810.59	143.53
810.769	143.53
810.948	196.78
811.127	22.7
811.306	102.57
811.485	104.62
811.664	188.58
811.843	94.38
812.022	118.95
812.201	159.91
812.38	170.15
812.559	98.47
812.737	170.15
812.916	37.03
813.095	80.04
813.274	88.23
813.453	112.81
813.632	159.91
813.811	96.43
813.989	73.9
814.168	135.34
814.347	47.27
814.526	116.9
814.704	118.95
814.883	100.52
815.062	57.51
815.24	30.89
815.419	102.57
815.598	125.1
815.776	49.32
815.955	112.81
816.133	61.61
816.312	157.86
816.49	37.03
816.669	137.38
816.847	98.47
817.026	127.14
817.204	94.38
817.383	77.99
817.561	116.9
817.74	161.96
817.918	102.57
818.097	139.43
818.275	57.51
818.453	131.24
818.632	61.61
818.81	73.9
818.988	14.51
819.167	53.42
819.345	118.95
819.523	82.09
819.701	147.62
819.879	110.76
820.058	129.19
820.236	86.19
820.414	69.8
820.592	69.8
820.77	102.57
820.948	51.37
821.127	94.38
821.305	37.03
821.483	88.23
821.661	82.09
821.839	61.61
822.017	37.03
822.195	71.85
822.373	102.57
822.551	118.95
822.729	102.57
822.907	90.28
823.085	65.71
823.262	127.14
823.44	4.27
823.618	94.38
823.796	20.65
823.974	69.8
824.152	0.17
824.329	53.42
824.507	77.99
824.685	57.51
824.863	170.15
825.04	37.03
825.218	131.24
825.396	16.55
825.574	96.43
825.751	0.17
825.929	118.95
826.107	86.19
826.284	114.86
826.462	20.65
826.639	12.46
826.817	55.47
826.994	47.27
827.172	49.32
827.349	200.87
827.527	24.75
827.704	37.03
827.882	92.33
828.059	71.85
828.237	63.66
828.414	53.42
828.591	-28.5
828.769	143.53
828.946	30.89
829.124	55.47
829.301	100.52
829.478	69.8
829.655	49.32
829.833	69.8
830.01	22.7
830.187	57.51
830.364	69.8
830.542	82.09
830.719	65.71
830.896	82.09
831.073	61.61
831.25	47.27
831.427	2.22
831.604	-69.46
831.782	26.79
831.959	88.23
832.136	34.99
832.313	43.18
832.49	-20.31
832.667	12.46
832.844	43.18
833.021	49.32
833.198	16.55
833.374	104.62
833.551	90.28
833.728	16.55
833.905	77.99
834.082	22.7
834.259	55.47
834.436	129.19
834.612	18.6
834.789	69.8
834.966	71.85
835.143	69.8
835.319	82.09
835.496	49.32
835.673	10.41
835.85	96.43
836.026	106.67
836.203	12.46
836.38	84.14
836.556	65.71
836.733	57.51
836.909	80.04
837.086	121
837.262	-12.12
837.439	-48.98
837.616	-8.02
837.792	20.65
837.968	55.47
838.145	-1.88
838.321	20.65
838.498	71.85
838.674	104.62
838.851	30.89
839.027	28.84
839.203	20.65
839.38	61.61
839.556	61.61
839.732	129.19
839.909	34.99
840.085	16.55
840.261	-16.21
840.437	41.13
840.614	61.61
840.79	-12.12
840.966	-1.88
841.142	123.05
841.318	37.03
841.494	73.9
841.671	82.09
841.847	18.6
842.023	12.46
842.199	77.99
842.375	45.23
842.551	12.46
842.727	-44.88
842.903	73.9
843.079	4.27
843.255	49.32
843.431	22.7
843.607	39.08
843.783	39.08
843.959	55.47
844.134	0.17
844.31	16.55
844.486	28.84
844.662	-28.5
844.838	32.94
845.013	4.27
845.189	-24.4
845.365	4.27
845.541	55.47
845.716	61.61
845.892	37.03
846.068	20.65
846.244	37.03
846.419	14.51
846.595	30.89
846.77	0.17
846.946	41.13
847.122	32.94
847.297	0.17
847.473	28.84
847.648	-18.26
847.824	-20.31
847.999	-51.03
848.175	73.9
848.35	8.36
848.526	14.51
848.701	41.13
848.876	-3.93
849.052	-28.5
849.227	47.27
849.403	45.23
849.578	77.99
849.753	-44.88
849.929	94.38
850.104	-57.17
850.279	39.08
850.454	45.23
850.63	77.99
850.805	61.61
850.98	12.46
851.155	45.23
851.33	37.03
851.505	-73.56
851.681	77.99
851.856	-67.41
852.031	118.95
852.206	-61.27
852.381	16.55
852.556	-48.98
852.731	61.61
852.906	-24.4
853.081	20.65
853.256	47.27
853.431	30.89
853.606	-3.93
853.781	24.75
853.956	-36.69
854.131	69.8
854.305	-3.93
854.48	-18.26
854.655	39.08
854.83	4.27
855.005	-71.51
855.18	30.89
855.354	-44.88
855.529	41.13
855.704	-40.79
855.879	55.47
856.053	41.13
856.228	32.94
856.403	30.89
856.577	-51.03
856.752	-71.51
856.926	20.65
857.101	-20.31
857.276	6.31
857.45	18.6
857.625	16.55
857.799	-53.08
857.974	47.27
858.148	8.36
858.323	-3.93
858.497	61.61
858.672	30.89
858.846	-16.21
859.02	14.51
859.195	-12.12
859.369	20.65
859.543	94.38
859.718	22.7
859.892	32.94
860.066	2.22
860.241	-36.69
860.415	41.13
860.589	14.51
860.763	-14.17
860.938	-44.88
861.112	30.89
861.286	-10.07
861.46	-28.5
861.634	0.17
861.808	30.89
861.982	-24.4
862.157	-20.31
862.331	-12.12
862.505	16.55
862.679	-65.36
862.853	-28.5
863.027	-12.12
863.201	71.85
863.375	43.18
863.549	14.51
863.722	53.42
863.896	80.04
864.07	-8.02
864.244	12.46
864.418	12.46
864.592	-1.88
864.766	4.27
864.939	55.47
865.113	-30.55
865.287	6.31
865.461	22.7
865.634	26.79
865.808	26.79
865.982	-26.45
866.156	2.22
866.329	-61.27
866.503	45.23
866.676	55.47
866.85	0.17
867.024	20.65
867.197	77.99
867.371	39.08
867.544	-53.08
867.718	47.27
867.891	45.23
868.065	14.51
868.238	-3.93
868.412	-26.45
868.585	-3.93
868.759	63.66
868.932	4.27
869.105	20.65
869.279	-32.6
869.452	0.17
869.625	-42.84
869.799	-53.08
869.972	-53.08
870.145	-44.88
870.319	16.55
870.492	-22.36
870.665	20.65
870.838	43.18
871.011	-18.26
871.185	61.61
871.358	-63.32
871.531	69.8
871.704	-18.26
871.877	55.47
872.05	16.55
872.223	43.18
872.396	94.38
872.569	12.46
872.742	-55.12
872.915	82.09
873.088	20.65
873.261	-26.45
873.434	-53.08
873.607	0.17
873.78	-14.17
873.953	71.85
874.126	-22.36
874.299	96.43
874.471	-30.55
874.644	71.85
874.817	-3.93
874.99	37.03
875.163	-57.17
875.335	22.7
875.508	45.23
875.681	0.17
875.853	-1.88
876.026	28.84
876.199	-34.64
876.371	-38.74
876.544	20.65
876.717	-42.84
876.889	-18.26
877.062	16.55
877.234	51.37
877.407	-12.12
877.579	-44.88
877.752	14.51
877.924	45.23
878.097	-24.4
878.269	51.37
878.442	22.7
878.614	32.94
878.786	63.66
878.959	55.47
879.131	-83.8
879.303	-69.46
879.476	-16.21
879.648	-26.45
879.82	86.19
879.993	26.79
880.165	-14.17
880.337	-10.07
880.509	-26.45
880.681	-3.93
880.854	30.89
881.026	30.89
881.198	96.43
881.37	16.55
881.542	8.36
881.714	53.42
881.886	-40.79
882.058	-48.98
882.23	2.22
882.402	41.13
882.574	39.08
882.746	65.71
882.918	14.51
883.09	-53.08
883.262	-3.93
883.434	12.46
883.606	-28.5
883.778	-10.07
883.95	6.31
884.122	4.27
884.293	22.7
884.465	53.42
884.637	69.8
884.809	57.51
884.98	22.7
885.152	-61.27
885.324	34.99
885.496	-20.31
885.667	37.03
885.839	-40.79
886.011	32.94
886.182	34.99
886.354	22.7
886.525	12.46
886.697	34.99
886.869	28.84
887.04	-48.98
887.212	39.08
887.383	108.71
887.555	37.03
887.726	20.65
887.897	-8.02
888.069	8.36
888.24	-14.17
888.412	-44.88
888.583	-3.93
888.754	28.84
888.926	-20.31
889.097	-3.93
889.268	-57.17
889.44	37.03
889.611	-18.26
889.782	-10.07
889.953	-46.93
890.125	98.47
890.296	-26.45
890.467	-46.93
890.638	-42.84
890.809	49.32
890.98	-59.22
891.151	47.27
891.323	-10.07
891.494	45.23
891.665	8.36
891.836	34.99
892.007	0.17
892.178	32.94
892.349	41.13
892.52	-32.6
892.691	-32.6
892.862	88.23
893.032	-24.4
893.203	45.23
893.374	4.27
893.545	37.03
893.716	41.13
893.887	22.7
894.057	-14.17
894.228	-59.22
894.399	-3.93
894.57	84.14
894.74	47.27
894.911	61.61
895.082	-32.6
895.253	-20.31
895.423	43.18
895.594	14.51
895.764	22.7
895.935	8.36
896.106	-12.12
896.276	28.84
896.447	39.08
896.617	-51.03
896.788	20.65
896.958	32.94
897.129	-18.26
897.299	-12.12
897.47	4.27
897.64	-3.93
897.81	-81.75
897.981	-3.93
898.151	-26.45
898.322	-3.93
898.492	-10.07
898.662	-28.5
898.832	37.03
899.003	55.47
899.173	30.89
899.343	0.17
899.513	-12.12
