Data from USB4F104151__284__14-46-22-955.txt Node

Date: Thu Mar 13 14:46:22 EDT 2025
User: louis
Spectrometer: USB4F10415
Trigger mode: 4
Integration Time (sec): 2.000000E-2
Scans to average: 1
Electric dark correction enabled: true
Nonlinearity correction enabled: false
Boxcar width: 0
XAxis mode: Wavelengths
Number of Pixels in Spectrum: 3648
>>>>>Begin Spectral Data<<<<<
178.204	-109.4
178.424	-109.4
178.644	-109.4
178.864	-144.21
179.084	-142.16
179.304	-15.19
179.524	5.29
179.744	-21.33
179.964	17.58
180.184	-23.38
180.404	5.29
180.624	-31.57
180.844	-39.76
181.064	38.06
181.283	13.48
181.503	-39.76
181.723	91.31
181.943	-35.67
182.163	134.31
182.383	-7
182.602	19.63
182.822	25.77
183.042	25.77
183.262	29.87
183.482	25.77
183.701	1.19
183.921	60.59
184.141	36.01
184.361	33.96
184.58	60.59
184.8	87.21
185.02	-47.96
185.239	62.63
185.459	54.44
185.679	40.11
185.898	-52.05
186.118	48.3
186.338	9.39
186.557	64.68
186.777	1.19
186.997	113.83
187.216	-25.43
187.436	107.69
187.655	23.72
187.875	64.68
188.095	21.67
188.314	91.31
188.534	44.2
188.753	-29.52
188.973	66.73
189.192	140.46
189.412	-39.76
189.631	76.97
189.851	9.39
190.07	107.69
190.29	19.63
190.509	-15.19
190.729	-35.67
190.948	132.26
191.168	130.22
191.387	101.55
191.607	-11.09
191.826	25.77
192.045	42.15
192.265	68.78
192.484	42.15
192.704	38.06
192.923	-7
193.142	60.59
193.362	68.78
193.581	99.5
193.8	-7
194.02	95.4
194.239	-11.09
194.458	83.11
194.678	33.96
194.897	36.01
195.116	83.11
195.335	40.11
195.555	50.35
195.774	19.63
195.993	119.98
196.212	83.11
196.432	50.35
196.651	36.01
196.87	17.58
197.089	79.02
197.308	109.74
197.528	76.97
197.747	-23.38
197.966	50.35
198.185	93.35
198.404	-60.24
198.623	109.74
198.842	85.16
199.062	70.83
199.281	9.39
199.5	-11.09
199.719	74.92
199.938	-37.72
200.157	25.77
200.376	72.87
200.595	56.49
200.814	38.06
201.033	-2.9
201.252	-17.24
201.471	-23.38
201.69	68.78
201.909	124.07
202.128	79.02
202.347	36.01
202.566	50.35
202.785	21.67
203.004	17.58
203.223	91.31
203.442	27.82
203.661	23.72
203.879	17.58
204.098	70.83
204.317	56.49
204.536	107.69
204.755	60.59
204.974	107.69
205.193	68.78
205.411	124.07
205.63	58.54
205.849	107.69
206.068	17.58
206.287	115.88
206.505	48.3
206.724	3.24
206.943	33.96
207.162	13.48
207.381	5.29
207.599	50.35
207.818	50.35
208.037	-4.95
208.255	76.97
208.474	25.77
208.693	58.54
208.911	29.87
209.13	66.73
209.349	27.82
209.567	-25.43
209.786	9.39
210.005	54.44
210.223	-54.1
210.442	21.67
210.661	-7
210.879	-4.95
211.098	-29.52
211.316	-13.14
211.535	9.39
211.753	17.58
211.972	66.73
212.191	52.39
212.409	66.73
212.628	38.06
212.846	-13.14
213.065	19.63
213.283	-4.95
213.502	17.58
213.72	9.39
213.938	93.35
214.157	11.43
214.375	40.11
214.594	9.39
214.812	50.35
215.031	11.43
215.249	58.54
215.467	140.46
215.686	25.77
215.904	21.67
216.122	66.73
216.341	5.29
216.559	-52.05
216.778	101.55
216.996	62.63
217.214	-2.9
217.432	-15.19
217.651	-4.95
217.869	1.19
218.087	74.92
218.306	-33.62
218.524	58.54
218.742	85.16
218.96	81.07
219.179	-15.19
219.397	66.73
219.615	140.46
219.833	-70.48
220.051	50.35
220.27	76.97
220.488	33.96
220.706	21.67
220.924	13.48
221.142	58.54
221.36	-23.38
221.578	25.77
221.796	60.59
222.015	54.44
222.233	52.39
222.451	160.94
222.669	-60.24
222.887	25.77
223.105	52.39
223.323	58.54
223.541	33.96
223.759	29.87
223.977	29.87
224.195	-9.05
224.413	27.82
224.631	25.77
224.849	54.44
225.067	101.55
225.285	25.77
225.503	76.97
225.721	-43.86
225.939	115.88
226.157	74.92
226.375	93.35
226.592	27.82
226.81	5.29
227.028	101.55
227.246	83.11
227.464	13.48
227.682	9.39
227.9	91.31
228.117	29.87
228.335	-31.57
228.553	109.74
228.771	-35.67
228.989	42.15
229.206	17.58
229.424	79.02
229.642	-23.38
229.86	5.29
230.077	64.68
230.295	-21.33
230.513	40.11
230.731	9.39
230.948	60.59
231.166	91.31
231.384	19.63
231.601	17.58
231.819	89.26
232.037	11.43
232.254	21.67
232.472	60.59
232.689	19.63
232.907	25.77
233.125	-72.53
233.342	68.78
233.56	25.77
233.777	-31.57
233.995	54.44
234.213	44.2
234.43	115.88
234.648	76.97
234.865	33.96
235.083	46.25
235.3	50.35
235.518	50.35
235.735	21.67
235.953	38.06
236.17	17.58
236.388	42.15
236.605	-29.52
236.822	81.07
237.04	27.82
237.257	42.15
237.475	66.73
237.692	27.82
237.909	9.39
238.127	60.59
238.344	11.43
238.562	52.39
238.779	-2.9
238.996	74.92
239.214	56.49
239.431	-11.09
239.648	17.58
239.865	52.39
240.083	27.82
240.3	64.68
240.517	11.43
240.735	-4.95
240.952	42.15
241.169	58.54
241.386	87.21
241.603	93.35
241.821	11.43
242.038	103.59
242.255	91.31
242.472	-35.67
242.689	36.01
242.907	66.73
243.124	40.11
243.341	11.43
243.558	-72.53
243.775	13.48
243.992	-47.96
244.209	7.34
244.426	95.4
244.643	44.2
244.86	60.59
245.078	-7
245.295	31.91
245.512	99.5
245.729	-84.82
245.946	60.59
246.163	38.06
246.38	68.78
246.597	-39.76
246.814	56.49
247.031	27.82
247.248	62.63
247.464	58.54
247.681	64.68
247.898	48.3
248.115	128.17
248.332	9.39
248.549	79.02
248.766	27.82
248.983	85.16
249.2	11.43
249.417	66.73
249.633	15.53
249.85	97.45
250.067	70.83
250.284	58.54
250.501	36.01
250.717	79.02
250.934	38.06
251.151	9.39
251.368	19.63
251.585	-2.9
251.801	17.58
252.018	9.39
252.235	-9.05
252.451	36.01
252.668	50.35
252.885	13.48
253.102	58.54
253.318	25.77
253.535	42.15
253.752	-56.15
253.968	1.19
254.185	44.2
254.401	79.02
254.618	50.35
254.835	21.67
255.051	46.25
255.268	42.15
255.484	31.91
255.701	1.19
255.917	44.2
256.134	11.43
256.351	29.87
256.567	-52.05
256.784	93.35
257	70.83
257.217	3.24
257.433	31.91
257.65	54.44
257.866	79.02
258.082	33.96
258.299	-23.38
258.515	19.63
258.732	-21.33
258.948	60.59
259.165	66.73
259.381	-47.96
259.597	13.48
259.814	9.39
260.03	-4.95
260.246	25.77
260.463	21.67
260.679	79.02
260.895	17.58
261.112	58.54
261.328	42.15
261.544	1.19
261.761	103.59
261.977	25.77
262.193	19.63
262.409	1.19
262.626	68.78
262.842	31.91
263.058	9.39
263.274	25.77
263.49	74.92
263.707	74.92
263.923	23.72
264.139	15.53
264.355	42.15
264.571	99.5
264.787	89.26
265.004	66.73
265.22	50.35
265.436	52.39
265.652	83.11
265.868	68.78
266.084	-27.48
266.3	36.01
266.516	9.39
266.732	66.73
266.948	17.58
267.164	74.92
267.38	66.73
267.596	56.49
267.812	58.54
268.028	107.69
268.244	7.34
268.46	17.58
268.676	93.35
268.892	33.96
269.108	7.34
269.324	5.29
269.54	3.24
269.756	42.15
269.972	76.97
270.188	70.83
270.403	42.15
270.619	31.91
270.835	101.55
271.051	-7
271.267	9.39
271.483	17.58
271.698	109.74
271.914	19.63
272.13	-7
272.346	-35.67
272.562	-23.38
272.777	58.54
272.993	3.24
273.209	1.19
273.425	-4.95
273.64	-9.05
273.856	70.83
274.072	33.96
274.287	9.39
274.503	3.24
274.719	50.35
274.934	54.44
275.15	-15.19
275.366	99.5
275.581	5.29
275.797	-13.14
276.012	54.44
276.228	167.08
276.444	119.98
276.659	107.69
276.875	25.77
277.09	38.06
277.306	-43.86
277.521	58.54
277.737	21.67
277.952	-31.57
278.168	52.39
278.383	-4.95
278.599	36.01
278.814	58.54
279.03	42.15
279.245	101.55
279.461	58.54
279.676	17.58
279.892	19.63
280.107	46.25
280.322	-97.11
280.538	29.87
280.753	40.11
280.969	44.2
281.184	-2.9
281.399	44.2
281.615	54.44
281.83	46.25
282.045	1.19
282.26	25.77
282.476	52.39
282.691	99.5
282.906	36.01
283.122	13.48
283.337	-13.14
283.552	25.77
283.767	33.96
283.983	-35.67
284.198	25.77
284.413	66.73
284.628	33.96
284.843	58.54
285.058	74.92
285.274	50.35
285.489	70.83
285.704	93.35
285.919	33.96
286.134	52.39
286.349	36.01
286.564	50.35
286.779	83.11
286.995	25.77
287.21	17.58
287.425	46.25
287.64	79.02
287.855	-31.57
288.07	74.92
288.285	70.83
288.5	-15.19
288.715	46.25
288.93	27.82
289.145	19.63
289.36	79.02
289.575	-37.72
289.79	36.01
290.004	-7
290.219	68.78
290.434	9.39
290.649	17.58
290.864	44.2
291.079	99.5
291.294	52.39
291.509	70.83
291.724	5.29
291.938	68.78
292.153	9.39
292.368	-35.67
292.583	-23.38
292.798	46.25
293.012	87.21
293.227	66.73
293.442	91.31
293.657	17.58
293.871	136.36
294.086	11.43
294.301	111.78
294.516	11.43
294.73	85.16
294.945	-7
295.16	-54.1
295.374	23.72
295.589	21.67
295.804	11.43
296.018	42.15
296.233	134.31
296.447	38.06
296.662	38.06
296.877	27.82
297.091	44.2
297.306	36.01
297.52	58.54
297.735	42.15
297.949	44.2
298.164	66.73
298.378	9.39
298.593	52.39
298.807	64.68
299.022	7.34
299.236	54.44
299.451	87.21
299.665	52.39
299.88	-17.24
300.094	66.73
300.309	-2.9
300.523	74.92
300.737	85.16
300.952	27.82
301.166	62.63
301.381	105.64
301.595	36.01
301.809	-66.39
302.024	42.15
302.238	-21.33
302.452	15.53
302.667	-15.19
302.881	87.21
303.095	97.45
303.309	36.01
303.524	27.82
303.738	99.5
303.952	23.72
304.166	52.39
304.381	56.49
304.595	109.74
304.809	-47.96
305.023	48.3
305.237	3.24
305.452	46.25
305.666	36.01
305.88	9.39
306.094	-4.95
306.308	25.77
306.522	50.35
306.736	89.26
306.95	44.2
307.164	7.34
307.379	52.39
307.593	140.46
307.807	95.4
308.021	25.77
308.235	-4.95
308.449	5.29
308.663	93.35
308.877	101.55
309.091	38.06
309.305	17.58
309.519	-23.38
309.733	25.77
309.947	-56.15
310.161	66.73
310.374	5.29
310.588	56.49
310.802	36.01
311.016	60.59
311.23	42.15
311.444	27.82
311.658	101.55
311.872	70.83
312.085	23.72
312.299	68.78
312.513	119.98
312.727	42.15
312.941	83.11
313.154	5.29
313.368	50.35
313.582	66.73
313.796	156.84
314.009	58.54
314.223	76.97
314.437	60.59
314.651	87.21
314.864	50.35
315.078	11.43
315.292	60.59
315.505	31.91
315.719	95.4
315.933	42.15
316.146	-25.43
316.36	40.11
316.573	58.54
316.787	81.07
317.001	27.82
317.214	-7
317.428	95.4
317.641	66.73
317.855	72.87
318.068	66.73
318.282	25.77
318.495	50.35
318.709	62.63
318.922	1.19
319.136	58.54
319.349	42.15
319.563	56.49
319.776	25.77
319.99	81.07
320.203	5.29
320.417	52.39
320.63	27.82
320.843	109.74
321.057	46.25
321.27	74.92
321.483	9.39
321.697	68.78
321.91	36.01
322.124	40.11
322.337	27.82
322.55	36.01
322.763	74.92
322.977	66.73
323.19	1.19
323.403	5.29
323.617	-56.15
323.83	50.35
324.043	-15.19
324.256	79.02
324.469	-13.14
324.683	58.54
324.896	25.77
325.109	29.87
325.322	-23.38
325.535	38.06
325.748	99.5
325.962	115.88
326.175	-21.33
326.388	42.15
326.601	87.21
326.814	93.35
327.027	107.69
327.24	3.24
327.453	25.77
327.666	62.63
327.879	48.3
328.092	66.73
328.305	27.82
328.518	50.35
328.731	9.39
328.944	-19.29
329.157	107.69
329.37	-7
329.583	124.07
329.796	62.63
330.009	-15.19
330.222	42.15
330.435	52.39
330.648	66.73
330.861	11.43
331.073	36.01
331.286	19.63
331.499	42.15
331.712	-2.9
331.925	42.15
332.138	1.19
332.35	158.89
332.563	70.83
332.776	44.2
332.989	-7
333.202	29.87
333.414	83.11
333.627	19.63
333.84	13.48
334.053	46.25
334.265	38.06
334.478	-0.85
334.691	52.39
334.903	101.55
335.116	-23.38
335.329	9.39
335.541	64.68
335.754	128.17
335.966	13.48
336.179	72.87
336.392	36.01
336.604	66.73
336.817	38.06
337.029	25.77
337.242	124.07
337.454	42.15
337.667	-4.95
337.88	58.54
338.092	9.39
338.305	91.31
338.517	62.63
338.729	87.21
338.942	76.97
339.154	3.24
339.367	29.87
339.579	93.35
339.792	17.58
340.004	58.54
340.217	66.73
340.429	36.01
340.641	-80.72
340.854	1.19
341.066	60.59
341.278	1.19
341.491	79.02
341.703	85.16
341.915	70.83
342.128	76.97
342.34	124.07
342.552	5.29
342.764	52.39
342.977	81.07
343.189	85.16
343.401	93.35
343.613	-7
343.826	91.31
344.038	52.39
344.25	66.73
344.462	68.78
344.674	87.21
344.886	33.96
345.099	113.83
345.311	85.16
345.523	48.3
345.735	5.29
345.947	66.73
346.159	27.82
346.371	87.21
346.583	25.77
346.795	128.17
347.007	33.96
347.219	-2.9
347.431	1.19
347.643	117.93
347.855	19.63
348.067	101.55
348.279	1.19
348.491	58.54
348.703	79.02
348.915	31.91
349.127	-7
349.339	54.44
349.551	33.96
349.763	46.25
349.975	83.11
350.187	72.87
350.399	66.73
350.61	99.5
350.822	40.11
351.034	17.58
351.246	29.87
351.458	29.87
351.669	58.54
351.881	130.22
352.093	95.4
352.305	60.59
352.517	29.87
352.728	79.02
352.94	-45.91
353.152	33.96
353.363	79.02
353.575	44.2
353.787	50.35
353.999	36.01
354.21	124.07
354.422	62.63
354.633	38.06
354.845	42.15
355.057	-9.05
355.268	9.39
355.48	66.73
355.692	58.54
355.903	70.83
356.115	56.49
356.326	-31.57
356.538	99.5
356.749	58.54
356.961	50.35
357.172	68.78
357.384	33.96
357.595	46.25
357.807	1.19
358.018	-23.38
358.23	15.53
358.441	101.55
358.653	50.35
358.864	44.2
359.075	101.55
359.287	-4.95
359.498	103.59
359.709	124.07
359.921	38.06
360.132	9.39
360.344	54.44
360.555	58.54
360.766	19.63
360.977	95.4
361.189	91.31
361.4	54.44
361.611	70.83
361.823	46.25
362.034	15.53
362.245	9.39
362.456	52.39
362.667	74.92
362.879	115.88
363.09	83.11
363.301	99.5
363.512	85.16
363.723	52.39
363.935	60.59
364.146	60.59
364.357	-7
364.568	44.2
364.779	19.63
364.99	107.69
365.201	46.25
365.412	99.5
365.623	-31.57
365.834	148.65
366.045	-2.9
366.256	66.73
366.467	126.12
366.678	29.87
366.889	27.82
367.1	38.06
367.311	97.45
367.522	5.29
367.733	107.69
367.944	144.55
368.155	17.58
368.366	111.78
368.577	58.54
368.788	134.31
368.999	9.39
369.209	27.82
369.42	115.88
369.631	58.54
369.842	46.25
370.053	36.01
370.264	83.11
370.474	1.19
370.685	93.35
370.896	74.92
371.107	83.11
371.317	115.88
371.528	62.63
371.739	58.54
371.95	42.15
372.16	117.93
372.371	-29.52
372.582	99.5
372.792	36.01
373.003	48.3
373.214	62.63
373.424	93.35
373.635	-13.14
373.846	74.92
374.056	42.15
374.267	66.73
374.477	62.63
374.688	17.58
374.898	83.11
375.109	109.74
375.319	50.35
375.53	134.31
375.74	117.93
375.951	19.63
376.161	124.07
376.372	134.31
376.582	-4.95
376.793	50.35
377.003	19.63
377.214	91.31
377.424	21.67
377.635	99.5
377.845	1.19
378.055	21.67
378.266	-27.48
378.476	76.97
378.686	91.31
378.897	66.73
379.107	33.96
379.317	165.03
379.528	66.73
379.738	44.2
379.948	-2.9
380.158	74.92
380.369	136.36
380.579	42.15
380.789	74.92
380.999	81.07
381.21	167.08
381.42	115.88
381.63	109.74
381.84	66.73
382.05	85.16
382.261	79.02
382.471	-62.29
382.681	79.02
382.891	117.93
383.101	66.73
383.311	44.2
383.521	79.02
383.731	58.54
383.941	124.07
384.151	29.87
384.361	95.4
384.571	19.63
384.781	107.69
384.991	109.74
385.201	93.35
385.411	117.93
385.621	83.11
385.831	68.78
386.041	140.46
386.251	85.16
386.461	74.92
386.671	-11.09
386.881	91.31
387.091	68.78
387.301	115.88
387.511	117.93
387.72	52.39
387.93	60.59
388.14	44.2
388.35	21.67
388.56	138.41
388.769	79.02
388.979	81.07
389.189	54.44
389.399	124.07
389.609	148.65
389.818	60.59
390.028	17.58
390.238	36.01
390.447	27.82
390.657	44.2
390.867	56.49
391.076	-13.14
391.286	33.96
391.496	99.5
391.705	-4.95
391.915	97.45
392.125	95.4
392.334	50.35
392.544	93.35
392.753	17.58
392.963	-7
393.172	76.97
393.382	44.2
393.591	101.55
393.801	119.98
394.01	124.07
394.22	70.83
394.429	66.73
394.639	68.78
394.848	70.83
395.058	76.97
395.267	54.44
395.477	76.97
395.686	87.21
395.895	115.88
396.105	117.93
396.314	72.87
396.524	33.96
396.733	9.39
396.942	148.65
397.152	124.07
397.361	99.5
397.57	150.7
397.78	44.2
397.989	136.36
398.198	115.88
398.407	50.35
398.617	91.31
398.826	46.25
399.035	107.69
399.244	56.49
399.453	52.39
399.663	175.27
399.872	93.35
400.081	83.11
400.29	60.59
400.499	128.17
400.708	144.55
400.917	66.73
401.127	101.55
401.336	95.4
401.545	136.36
401.754	144.55
401.963	181.42
402.172	148.65
402.381	68.78
402.59	109.74
402.799	99.5
403.008	124.07
403.217	101.55
403.426	126.12
403.635	109.74
403.844	150.7
404.053	74.92
404.262	109.74
404.471	158.89
404.68	191.66
404.888	140.46
405.097	146.6
405.306	101.55
405.515	214.18
405.724	103.59
405.933	255.14
406.142	124.07
406.35	93.35
406.559	148.65
406.768	222.38
406.977	226.47
407.185	201.9
407.394	156.84
407.603	167.08
407.812	165.03
408.02	271.53
408.229	240.81
408.438	238.76
408.646	234.66
408.855	244.9
409.064	195.75
409.272	253.09
409.481	263.33
409.69	261.29
409.898	269.48
410.107	273.57
410.315	320.68
410.524	324.77
410.733	277.67
410.941	300.2
411.15	308.39
411.358	279.72
411.567	279.72
411.775	312.49
411.984	384.16
412.192	310.44
412.401	257.19
412.609	445.6
412.818	488.61
413.026	445.6
413.234	429.22
413.443	468.13
413.651	439.46
413.86	513.19
414.068	476.32
414.276	607.39
414.485	541.86
414.693	603.3
414.901	550.05
415.11	500.9
415.318	621.73
415.526	650.4
415.734	683.17
415.943	664.74
416.151	767.13
416.359	697.5
416.567	763.04
416.776	865.44
416.984	939.16
417.192	869.53
417.4	812.19
417.608	816.29
417.817	877.73
418.025	935.07
418.233	998.56
418.441	1002.65
418.649	984.22
418.857	1107.1
419.065	1154.2
419.273	1021.08
419.481	1148.06
419.689	1197.21
419.897	1313.94
420.105	1309.85
420.313	1305.75
420.521	1369.24
420.729	1365.14
420.937	1440.92
421.145	1492.12
421.353	1533.08
421.561	1744.02
421.769	1651.86
421.977	1721.49
422.185	1707.15
422.393	1721.49
422.601	1944.72
422.809	1975.44
423.017	1987.72
423.224	2075.79
423.432	2110.6
423.64	2155.66
423.848	2258.06
424.056	2200.71
424.263	2413.7
424.471	2458.76
424.679	2440.33
424.887	2575.49
425.094	2706.56
425.302	2702.47
425.51	2745.47
425.718	2870.4
425.925	2880.64
426.133	3064.96
426.341	3191.93
426.548	3210.36
426.756	3239.03
426.964	3357.82
427.171	3501.17
427.379	3624.05
427.586	3703.92
427.794	3878
428.001	4047.98
428.209	4144.24
428.417	4129.9
428.624	4535.4
428.832	4346.98
429.039	4303.98
429.247	4308.07
429.454	4660.32
429.662	5223.51
429.869	4809.83
430.076	5155.93
430.284	4910.18
430.491	5237.85
430.699	5506.13
430.906	5411.93
431.114	5522.52
431.321	5596.25
431.528	5954.64
431.736	6116.43
431.943	6392.91
432.15	6456.39
432.358	6319.18
432.565	6640.71
432.772	6710.34
432.979	6964.29
433.187	7042.11
433.394	7232.57
433.601	7654.45
433.808	7662.65
434.016	7566.39
434.223	8080.43
434.43	8635.43
434.637	8098.86
434.844	8803.36
435.052	8881.19
435.259	8909.86
435.466	8997.92
435.673	8971.3
435.88	9417.75
436.087	10046.48
436.294	10015.76
436.501	9665.56
436.708	10159.12
436.915	10361.87
437.122	10773.51
437.329	10675.21
437.537	11037.7
437.743	11215.87
437.95	11174.91
438.157	11580.41
438.364	12051.44
438.571	12106.74
438.778	12239.86
438.985	13241.31
439.192	12829.67
439.399	13253.6
439.606	12905.45
439.813	13542.36
440.02	14451.66
440.227	14123.99
440.433	14058.45
440.64	14355.41
440.847	14789.58
441.054	14916.55
441.261	16004.02
441.467	15582.14
441.674	16020.41
441.881	16542.64
442.088	16384.94
442.294	16243.63
442.501	16946.09
442.708	17152.93
442.914	17638.3
443.121	18676.62
443.328	18019.22
443.534	19278.72
443.741	18727.82
443.948	18398.1
444.154	19606.4
444.361	19803
444.568	19604.35
444.774	19841.92
444.981	20065.14
445.187	20755.31
445.394	21695.33
445.6	21357.41
445.807	23511.88
446.013	22375.25
446.22	22684.5
446.426	23690.05
446.633	23804.74
446.839	24775.47
447.046	23489.35
447.252	25117.48
447.459	25004.85
447.665	24959.79
447.871	25908
448.078	27298.57
448.284	26047.26
448.491	26725.14
448.697	28007.17
448.903	28173.05
449.11	28351.23
449.316	27912.96
449.522	28390.14
449.728	29344.49
449.935	29623.01
450.141	29317.87
450.347	29772.52
450.553	29362.92
450.76	29557.48
450.966	30653.14
451.172	30524.12
451.378	30925.52
451.584	30388.95
451.791	31167.18
451.997	31388.36
452.203	31531.72
452.409	31752.9
452.615	31875.78
452.821	30399.19
453.027	30147.29
453.233	32150.21
453.44	30726.87
453.646	31238.86
453.852	30905.04
454.058	31748.81
454.264	30714.58
454.47	31615.69
454.676	30900.95
454.882	31857.35
455.088	29313.77
455.294	29465.32
455.5	30092
455.705	30755.54
455.911	28877.55
456.117	28836.59
456.323	28271.36
456.529	26569.49
456.735	28089.09
456.941	27656.96
457.147	26768.15
457.352	26110.75
457.558	26014.49
457.764	26073.88
457.97	25596.71
458.176	24996.65
458.381	25191.21
458.587	23620.42
458.793	23909.18
458.999	22444.88
459.204	24445.75
459.41	23548.74
459.616	21965.66
459.821	22139.74
460.027	22068.06
460.233	21594.98
460.438	20581.23
460.644	20550.51
460.85	19809.15
461.055	19366.79
461.261	19669.89
461.466	18066.33
461.672	17550.24
461.878	18803.6
462.083	17462.18
462.289	16960.42
462.494	17140.65
462.7	16278.45
462.905	15782.84
463.111	16434.1
463.316	16679.85
463.522	16270.26
463.727	16241.59
463.932	16110.52
464.138	15926.2
464.343	16167.86
464.549	15614.91
464.754	15981.49
464.959	15811.51
465.165	15748.03
465.37	15297.47
465.575	14789.58
465.781	15317.95
465.986	15422.4
466.191	14934.98
466.397	14664.65
466.602	13882.33
466.807	14363.6
467.012	14781.39
467.218	14427.09
467.423	14035.92
467.628	14293.97
467.833	14721.99
468.038	14545.87
468.244	13990.87
468.449	14656.46
468.654	13863.9
468.859	13964.25
469.064	13982.68
469.269	13353.95
469.474	13718.49
469.679	13855.7
469.885	13632.47
470.09	13716.44
470.295	13722.59
470.5	13018.08
470.705	13165.54
470.91	13050.85
471.115	12858.34
471.32	13161.44
471.525	12862.44
471.73	12708.84
471.935	12485.61
472.139	12274.67
472.344	12467.18
472.549	12213.23
472.754	12096.5
472.959	12026.87
473.164	11631.61
473.369	11248.64
473.574	11957.24
473.778	11809.78
473.983	11686.9
474.188	11750.39
474.393	11176.96
474.598	11318.27
474.802	10953.73
475.007	10951.68
475.212	11219.97
475.417	10744.84
475.621	10652.68
475.826	10810.37
476.031	10464.27
476.235	10431.5
476.44	10535.95
476.645	10109.97
476.849	10437.64
477.054	10013.71
477.259	9925.65
477.463	9880.6
477.668	9829.4
477.872	9931.8
478.077	9655.32
478.282	9466.91
478.486	9434.14
478.691	9376.8
478.895	9176.09
479.1	9149.47
479.304	9208.86
479.509	9032.74
479.713	9198.62
479.918	8950.82
480.122	8848.42
480.326	8924.19
480.531	8918.05
480.735	8795.17
480.94	8789.03
481.144	9202.72
481.348	8619.05
481.553	8678.44
481.757	8696.87
481.961	8590.38
482.166	8717.35
482.37	8774.69
482.574	8590.38
482.778	8559.66
482.983	8670.25
483.187	8743.97
483.391	8604.71
483.595	8569.9
483.8	8563.75
484.004	8512.55
484.208	8733.73
484.412	8578.09
484.616	8645.67
484.821	8660.01
485.025	8467.5
485.229	8627.24
485.433	8530.98
485.637	8600.62
485.841	8672.29
486.045	8563.75
486.249	8725.54
486.453	8606.76
486.657	8848.42
486.861	8356.91
487.065	8313.9
487.269	8754.21
487.473	8352.81
487.677	8539.18
487.881	8840.23
488.085	8641.57
488.289	8549.42
488.493	8492.07
488.697	8660.01
488.901	8803.36
489.105	8660.01
489.309	8703.01
489.512	8692.77
489.716	8875.04
489.92	8729.64
490.124	8635.43
490.328	8987.68
490.531	8875.04
490.735	8881.19
490.939	8979.49
491.143	8776.74
491.346	8768.55
491.55	9143.33
491.754	9006.11
491.958	9094.18
492.161	9284.64
492.365	9126.94
492.569	9094.18
492.772	9114.66
492.976	9253.92
493.18	9352.22
493.383	9514.01
493.587	9540.63
493.79	9671.7
493.994	9661.46
494.197	9706.52
494.401	9720.85
494.605	9692.18
494.808	9958.42
495.012	9999.38
495.215	9995.28
495.419	10030.1
495.622	10007.57
495.825	10253.33
496.029	10282
496.232	10390.54
496.436	10288.14
496.639	10785.8
496.843	10691.59
497.046	10753.03
497.249	11117.57
497.453	11035.65
497.656	11160.58
497.859	11201.54
498.063	11262.97
498.266	11711.48
498.469	11715.58
498.673	11531.26
498.876	11746.3
499.079	12073.97
499.282	11912.18
499.485	12428.27
499.689	12305.39
499.892	12594.15
500.095	12690.41
500.298	12856.29
500.501	12749.8
500.705	13057
500.908	13274.08
501.111	13566.94
501.314	13470.69
501.517	13892.57
501.72	13902.81
501.923	13861.85
502.126	14470.09
502.329	14365.65
502.532	14607.31
502.735	14519.25
502.938	14719.95
503.141	15090.63
503.344	15125.44
503.547	15281.09
503.75	15956.92
503.953	15836.09
504.156	15764.41
504.359	15641.53
504.562	16104.37
504.765	16432.05
504.968	16686
505.17	17025.96
505.373	16917.42
505.576	17253.28
505.779	17531.81
505.982	17394.59
506.185	18011.03
506.387	18105.24
506.59	18084.76
506.793	18555.79
506.996	18375.57
507.198	19123.08
507.401	18908.04
507.604	19405.7
507.807	19561.34
508.009	19903.35
508.212	20018.04
508.415	20165.49
508.617	20474.74
508.82	20536.18
509.022	20628.34
509.225	21013.35
509.428	21373.8
509.63	21277.54
509.833	21570.4
510.035	22201.18
510.238	22006.62
510.44	22332.25
510.643	22774.61
510.845	23069.51
511.048	22965.07
511.25	23253.83
511.453	23702.34
511.655	24298.3
511.858	24138.55
512.06	24101.69
512.262	24642.35
512.465	24654.64
512.667	25219.88
512.87	25314.09
513.072	25471.78
513.274	25963.29
513.477	26354.46
513.679	26430.23
513.881	26727.19
514.084	26899.22
514.286	27058.96
514.488	27480.84
514.69	28007.17
514.893	27927.3
515.095	28191.48
515.297	28406.52
515.499	28644.09
515.701	29344.49
515.904	29029.1
516.106	29332.2
516.308	29919.97
516.51	30001.89
516.712	30165.73
516.914	30556.89
517.116	31146.7
517.318	30970.58
517.52	31437.51
517.722	31427.28
517.925	31904.45
518.127	32522.94
518.329	32543.42
518.531	32508.6
518.733	33331.89
518.935	33585.83
519.136	33444.52
519.338	34110.11
519.54	34398.88
519.742	34730.65
519.944	34558.62
520.146	35390.09
520.348	35220.11
520.55	35648.14
520.752	36004.49
520.954	36360.83
521.155	36123.27
521.357	36751.99
521.559	36766.33
521.761	36901.5
521.963	37444.21
522.164	37659.24
522.366	37704.3
522.568	38087.27
522.77	38480.48
522.971	39012.95
523.173	38824.54
523.375	38900.31
523.576	39158.36
523.778	39217.75
523.98	39877.19
524.181	39993.93
524.383	40188.49
524.584	40352.32
524.786	40299.08
524.988	40573.5
525.189	41052.73
525.391	41228.85
525.592	41521.71
525.794	41646.64
525.995	41718.32
526.197	41787.95
526.398	41828.91
526.6	42422.82
526.801	42338.85
527.003	42594.85
527.204	42545.7
527.406	42914.33
527.607	42576.42
527.808	43008.54
528.01	42783.26
528.211	43078.17
528.412	43682.32
528.614	43276.82
528.815	43966.99
529.016	44231.18
529.218	43579.92
529.419	43704.85
529.62	44184.07
529.822	44309
530.023	44292.61
530.224	44425.73
530.425	44073.48
530.626	44136.97
530.828	44214.79
531.029	44943.87
531.23	44431.88
531.431	44235.27
531.632	44671.49
531.833	44978.68
532.035	44769.79
532.236	44913.15
532.437	44831.23
532.638	44548.61
532.839	44900.86
533.04	44939.77
533.241	44777.98
533.442	45543.92
533.643	44851.71
533.844	44681.73
534.045	44976.64
534.246	44831.23
534.447	44943.87
534.648	44941.82
534.849	45119.99
535.05	44898.81
535.251	45240.82
535.451	45238.78
535.652	45410.81
535.853	45486.58
536.054	45648.37
536.255	45640.18
536.456	45150.71
536.657	45756.91
536.857	45273.59
537.058	44976.64
537.259	45875.69
537.46	45636.08
537.66	44952.06
537.861	45402.61
538.062	45126.14
538.263	45638.13
538.463	45369.85
538.664	45099.51
538.865	45396.47
539.065	45677.04
539.266	45353.46
539.466	45451.77
539.667	44866.05
539.868	45816.3
540.068	45453.81
540.269	45093.37
540.469	45857.26
540.67	45404.66
540.87	45128.19
541.071	45423.09
541.271	45720.05
541.472	45259.26
541.672	45249.02
541.873	45324.79
542.073	45007.36
542.274	45718
542.474	45423.09
542.675	44835.33
542.875	45797.87
543.075	45527.54
543.276	44620.29
543.476	45822.45
543.676	45218.3
543.877	45652.47
544.077	45359.61
544.277	45447.67
544.478	45298.17
544.678	45134.33
544.878	45009.4
545.078	45109.75
545.279	44784.13
545.479	45083.13
545.679	45017.6
545.879	45079.03
546.079	45072.89
546.28	45206.01
546.48	44921.34
546.68	44921.34
546.88	44708.35
547.08	45474.29
547.28	44825.09
547.48	44366.34
547.68	45341.17
547.88	44595.71
548.081	45332.98
548.281	44988.92
548.481	45232.63
548.681	45253.11
548.881	45234.68
549.081	44880.38
549.28	44777.98
549.48	45160.95
549.68	44661.25
549.88	45300.22
550.08	44898.81
550.28	45005.31
550.48	44929.53
550.68	45003.26
550.88	44849.66
551.08	44737.02
551.279	44933.63
551.479	44780.03
551.679	44597.76
551.879	44612.1
552.079	45011.45
552.278	44583.43
552.478	44927.49
552.678	44712.45
552.878	45226.49
553.077	45048.32
553.277	44354.05
553.477	45300.22
553.676	44528.13
553.876	44499.46
554.076	44638.72
554.275	44728.83
554.475	44304.9
554.674	44950.01
554.874	44773.89
555.074	44341.77
555.273	44585.47
555.473	44675.58
555.672	44038.67
555.872	44395.01
556.071	44188.17
556.271	44012.04
556.47	44012.04
556.67	43627.02
556.869	44134.92
557.068	43958.8
557.268	43518.48
557.467	44292.61
557.667	43850.25
557.866	43772.43
558.065	43688.46
558.265	43602.45
558.464	43504.15
558.663	43915.79
558.863	43405.84
559.062	44231.18
559.261	43411.99
559.461	44104.2
559.66	43196.95
559.859	43776.53
560.058	43182.62
560.258	43301.4
560.457	42938.91
560.656	43665.94
560.855	43004.44
561.054	43153.94
561.253	43125.27
561.453	43307.54
561.652	43104.79
561.851	43203.1
562.05	42727.97
562.249	42742.3
562.448	43145.75
562.647	42670.62
562.846	42564.13
563.045	42605.09
563.244	42277.41
563.443	42971.67
563.642	42119.72
563.841	42172.97
564.04	42207.78
564.239	42871.32
564.438	41769.52
564.637	42062.38
564.836	42119.72
565.035	41742.89
565.234	42013.23
565.432	41579.06
565.631	42095.14
565.83	42142.25
566.029	41998.89
566.228	41701.93
566.427	41570.86
566.625	41679.41
566.824	41228.85
567.023	41753.13
567.222	40602.18
567.42	41460.27
567.619	41065.02
567.818	40860.22
568.016	41146.93
568.215	41333.3
568.414	40991.29
568.612	40989.24
568.811	40385.09
569.01	40946.23
569.208	40133.19
569.407	40829.5
569.605	40444.48
569.804	40641.09
570.002	40168.01
570.201	40532.54
570.4	40088.13
570.598	40030.79
570.797	39381.59
570.995	40061.51
571.193	39668.3
571.392	40204.87
571.59	39621.2
571.789	39373.39
571.987	39320.15
572.186	39436.88
572.384	38922.84
572.582	39082.58
572.781	39098.97
572.979	38840.92
573.177	38773.34
573.376	39256.66
573.574	38369.89
573.772	38693.47
573.971	38431.33
574.169	38138.47
574.367	38029.93
574.565	38419.04
574.763	37878.38
574.962	37722.73
575.16	37364.34
575.358	37587.57
575.556	37411.44
575.754	37812.84
575.952	37778.03
576.151	37915.24
576.349	37081.72
576.547	37472.88
576.745	37532.27
576.943	37433.97
577.141	37034.61
577.339	37417.58
577.537	37288.56
577.735	37014.13
577.933	36369.02
578.131	37073.52
578.329	36496
578.527	36291.2
578.725	36022.92
578.923	36563.58
579.121	36258.43
579.319	36379.26
579.516	36446.85
579.714	36334.21
579.912	36158.08
580.11	35687.05
580.308	35549.84
580.506	35676.81
580.704	35230.35
580.901	35211.92
581.099	35598.99
581.297	34812.57
581.495	34714.26
581.692	35244.69
581.89	34910.87
582.088	35099.28
582.285	34912.92
582.483	34687.64
582.681	34894.49
582.878	34575
583.076	34110.11
583.274	34738.84
583.471	34022.05
583.669	34087.59
583.866	33843.88
584.064	34202.27
584.262	34120.35
584.459	34394.78
584.657	33520.3
584.854	34161.31
585.052	33192.62
585.249	33667.75
585.447	33675.94
585.644	33010.35
585.841	33385.13
586.039	33415.85
586.236	32924.34
586.434	32828.09
586.631	32830.13
586.828	32854.71
587.026	32924.34
587.223	32576.19
587.42	32275.13
587.618	32508.6
587.815	32225.98
588.012	32113.34
588.21	32391.87
588.407	32332.48
588.604	32047.81
588.801	31591.11
588.999	31675.08
589.196	31599.3
589.393	32068.29
589.59	31589.06
589.787	31570.63
589.984	30958.29
590.182	30999.25
590.379	31292.11
590.576	31234.77
590.773	31019.73
590.97	30948.05
591.167	31111.89
591.364	30610.14
591.561	30718.68
591.758	30368.48
591.955	30300.89
592.152	30276.32
592.349	30409.43
592.546	30249.69
592.743	30110.43
592.94	29969.12
593.137	29926.11
593.334	30190.3
593.531	29565.67
593.727	29403.88
593.924	29717.22
594.121	29360.87
594.318	29666.02
594.515	28941.04
594.712	29629.16
594.908	29213.42
595.105	29276.91
595.302	29106.93
595.499	29139.69
595.696	29029.1
595.892	28728.05
596.089	28891.89
596.286	28623.61
596.482	28381.95
596.679	28533.5
596.876	28609.27
597.072	27947.78
597.269	28261.12
597.466	28207.87
597.662	28052.22
597.859	28109.57
598.055	28111.61
598.252	27720.45
598.448	27955.97
598.645	27818.75
598.841	27521.8
599.038	27726.6
599.234	27427.59
599.431	27026.19
599.627	27312.91
599.824	27429.64
600.02	27118.35
600.217	26995.47
600.413	26868.5
600.609	26733.33
600.806	26630.93
601.002	27044.62
601.198	26522.39
601.395	26485.53
601.591	26360.6
601.787	26207
601.984	26088.22
602.18	26458.9
602.376	26282.78
602.572	25537.32
602.769	26063.64
602.965	25420.58
603.161	25903.9
603.357	25899.81
603.553	25598.76
603.75	25678.63
603.946	25416.49
604.142	25565.99
604.338	25062.19
604.534	25054
604.73	24996.65
604.926	25019.18
605.122	25260.84
605.318	24705.84
605.514	24693.55
605.71	24941.36
605.906	24957.74
606.102	24601.4
606.298	24656.69
606.494	24886.06
606.69	24443.7
606.886	24410.93
607.082	24089.4
607.278	24380.21
607.474	23939.9
607.67	24163.13
607.866	23876.41
608.062	23798.59
608.257	24036.16
608.453	23952.19
608.649	24021.82
608.845	23436.1
609.041	23739.2
609.236	23577.41
609.432	23593.79
609.628	23243.59
609.824	23200.58
610.019	23407.43
610.215	23530.31
610.411	23274.31
610.606	23188.3
610.802	23511.88
610.998	23229.26
611.193	23307.08
611.389	22862.67
611.584	22926.16
611.78	22854.48
611.976	22754.13
612.171	22809.42
612.367	22973.26
612.562	22668.11
612.758	22678.35
612.953	22578
613.149	22414.16
613.344	22537.04
613.539	22549.33
613.735	22682.45
613.93	22393.68
614.126	22496.08
614.321	22709.07
614.517	22324.05
614.712	22227.8
614.907	22129.5
615.103	22295.38
615.298	22053.72
615.493	22272.85
615.688	21748.57
615.884	22018.91
616.079	21738.33
616.274	21685.09
616.47	21482.34
616.665	21599.07
616.86	21416.8
617.055	21482.34
617.25	21459.81
617.445	21709.66
617.641	21289.83
617.836	21252.97
618.031	21093.22
618.226	21289.83
618.421	21056.36
618.616	21277.54
618.811	21005.16
619.006	21042.03
619.201	20431.73
619.396	20974.44
619.591	20398.96
619.786	20679.54
619.981	20300.66
620.176	20616.05
620.371	20194.17
620.566	20441.97
620.761	20059
620.956	20312.95
621.151	20095.86
621.346	19977.08
621.541	19776.38
621.735	19895.16
621.93	19475.33
622.125	19796.86
622.32	19223.43
622.515	19231.62
622.709	19430.27
622.904	19288.96
623.099	19030.92
623.294	18953.1
623.488	18731.92
623.683	19153.8
623.878	18477.97
624.072	18787.21
624.267	18537.36
624.462	18471.82
624.656	18217.88
624.851	18019.22
625.046	18115.48
625.24	18051.99
625.435	17972.12
625.629	17585.05
625.824	17515.42
626.018	17263.52
626.213	17267.62
626.407	17288.1
626.602	17085.35
626.796	17370.02
626.991	17251.24
627.185	17085.35
627.38	17046.44
627.574	16909.22
627.768	16720.81
627.963	16495.53
628.157	16405.42
628.352	16493.49
628.546	16331.7
628.74	16417.71
628.935	16096.18
629.129	16403.38
629.323	15754.17
629.517	15987.64
629.712	15664.06
629.906	15920.06
630.1	15557.57
630.294	15576
630.489	15397.82
630.683	15512.51
630.877	15270.85
631.071	15195.07
631.265	15502.27
631.459	15152.07
631.653	15207.36
631.848	15113.16
632.042	14756.81
632.236	14887.88
632.43	14558.16
632.624	14943.17
632.818	14713.8
633.012	14547.92
633.206	14658.51
633.4	14312.4
633.594	14283.73
633.788	14160.85
633.982	14058.45
634.176	14029.78
634.369	13915.09
634.563	14064.6
634.757	13861.85
634.951	13820.89
635.145	13689.82
635.339	13747.16
635.533	13642.71
635.726	13503.45
635.92	13249.5
636.114	13476.83
636.308	13331.42
636.501	13341.66
636.695	13163.49
636.889	13294.56
637.083	12960.74
637.276	12835.81
637.47	12583.91
637.664	12760.04
637.857	12757.99
638.051	12714.98
638.244	12448.75
638.438	12786.66
638.632	12436.46
638.825	12286.96
639.019	12471.28
639.212	12094.45
639.406	11947
639.599	12108.79
639.793	12125.17
639.986	11625.47
640.18	11947
640.373	11865.08
640.567	11912.18
640.76	11709.43
640.954	11547.64
641.147	11578.36
641.34	11539.45
641.534	11521.02
641.727	11459.58
641.92	11338.75
642.114	11355.13
642.307	11088.9
642.5	11068.42
642.694	10830.85
642.887	10839.05
643.08	10980.36
643.273	10970.12
643.467	10791.94
643.66	10753.03
643.853	10699.78
644.046	10406.92
644.239	10462.22
644.432	10568.71
644.626	10609.67
644.819	10288.14
645.012	10322.96
645.205	10349.58
645.398	10390.54
645.591	10134.54
645.784	10144.78
645.977	10093.58
646.17	10130.45
646.363	10046.48
646.556	9538.59
646.749	9905.17
646.942	9847.83
647.135	9757.72
647.328	9544.73
647.521	9696.28
647.714	9290.78
647.907	9405.47
648.099	9364.51
648.292	9483.29
648.485	9292.83
648.678	9237.53
648.871	9120.8
649.064	9036.83
649.256	9180.19
649.449	9040.93
649.642	9204.77
649.835	8897.57
650.027	8762.4
650.22	8711.21
650.413	8875.04
650.605	8784.93
650.798	8600.62
650.991	8504.36
651.183	8645.67
651.376	8414.25
651.568	8404.01
651.761	8537.13
651.954	8184.88
652.146	8283.18
652.339	8487.98
652.531	8266.8
652.724	8358.96
652.916	8045.62
653.109	7930.93
653.301	8115.25
653.494	8043.57
653.686	7873.59
653.879	8037.42
654.071	7791.67
654.263	7889.97
654.456	7896.11
654.648	7763
654.84	7640.12
655.033	7615.54
655.225	7672.89
655.417	7308.35
655.61	7427.13
655.802	7224.38
655.994	7447.61
656.186	7398.46
656.379	7416.89
656.571	7474.23
656.763	7289.92
656.955	7111.74
657.148	7193.66
657.34	7099.45
657.532	7070.78
657.724	7007.3
657.916	7064.64
658.108	7087.17
658.3	6857.79
658.492	6769.73
658.684	6808.64
658.876	6876.23
659.068	6710.34
659.26	6620.23
659.452	6700.1
659.644	6538.31
659.836	6521.93
660.028	6755.4
660.22	6382.67
660.412	6442.06
660.604	6351.95
660.796	6464.58
660.988	6290.51
661.18	6194.25
661.372	6122.57
661.563	6157.39
661.755	5968.98
661.947	6274.12
662.139	6016.08
662.331	6081.61
662.522	6059.09
662.714	5923.92
662.906	5952.59
663.097	5925.97
663.289	5864.53
663.481	5846.1
663.673	5907.54
663.864	5844.05
664.056	5733.46
664.247	5588.05
664.439	5620.82
664.631	5827.67
664.822	5616.72
665.014	5626.96
665.205	5602.39
665.397	5563.48
665.588	5516.37
665.78	5303.39
665.971	5424.22
666.163	5344.35
666.354	5194.84
666.546	5293.15
666.737	5293.15
666.929	5205.08
667.12	5258.33
667.311	5178.46
667.503	5305.43
667.694	5024.86
667.885	5121.12
668.077	5076.06
668.268	5078.11
668.459	5094.49
668.651	4861.02
668.842	4981.85
669.033	4908.13
669.224	4709.47
669.416	5063.77
669.607	4867.17
669.798	4744.29
669.989	4918.37
670.18	4656.23
670.371	4662.37
670.563	4623.46
670.754	4734.05
670.945	4719.71
671.136	4799.59
671.327	4537.45
671.518	4656.23
671.709	4637.8
671.9	4570.21
672.091	4545.64
672.282	4394.09
672.473	4453.48
672.664	4478.05
672.855	4457.57
673.046	4467.81
673.237	4359.27
673.428	4490.34
673.619	4568.16
673.809	4383.85
674	4346.98
674.191	4342.89
674.382	4246.63
674.573	4437.09
674.764	4293.74
674.954	4263.02
675.145	4164.72
675.336	4148.33
675.527	4131.95
675.717	4078.7
675.908	4170.86
676.099	4134
676.289	4045.93
676.48	4099.18
676.671	4146.28
676.861	4099.18
677.052	4060.27
677.243	3945.58
677.433	3916.91
677.624	4045.93
677.814	3990.64
678.005	4099.18
678.195	4023.41
678.386	4043.88
678.576	3830.9
678.767	3798.13
678.957	4027.5
679.148	3957.87
679.338	3927.15
679.529	3945.58
679.719	3773.55
679.909	3855.47
680.1	3892.34
680.29	3724.4
680.481	3851.38
680.671	3927.15
680.861	3693.68
681.052	3671.15
681.242	3748.98
681.432	3798.13
681.622	3730.55
681.813	3654.77
682.003	3736.69
682.193	3746.93
682.383	3810.42
682.573	3880.05
682.764	3665.01
682.954	3767.41
683.144	3714.16
683.334	3728.5
683.524	3761.27
683.714	3675.25
683.904	3646.58
684.094	3744.88
684.284	3720.31
684.474	3777.65
684.664	3630.2
684.854	3607.67
685.044	3691.63
685.234	3650.67
685.424	3632.24
685.614	3488.89
685.804	3638.39
685.994	3486.84
686.184	3564.66
686.374	3495.03
686.564	3482.74
686.753	3535.99
686.943	3507.32
687.133	3523.7
687.323	3495.03
687.513	3581.04
687.702	3546.23
687.892	3581.04
688.082	3378.3
688.272	3576.95
688.461	3404.92
688.651	3499.13
688.841	3445.88
689.03	3521.65
689.22	3282.04
689.41	3376.25
689.599	3290.23
689.789	3449.97
689.979	3306.62
690.168	3347.58
690.358	3374.2
690.547	3286.14
690.737	3294.33
690.926	3318.9
691.116	3302.52
691.305	3380.34
691.495	3351.67
691.684	3255.42
691.874	3304.57
692.063	3288.18
692.252	3261.56
692.442	3269.75
692.631	3294.33
692.82	3245.18
693.01	3146.87
693.199	3220.6
693.388	3097.72
693.578	3232.89
693.767	3204.22
693.956	3048.57
694.146	3126.39
694.335	3155.07
694.524	3138.68
694.713	3118.2
694.902	3171.45
695.092	3144.83
695.281	3212.41
695.47	3159.16
695.659	3083.39
695.848	3138.68
696.037	2974.85
696.226	3015.8
696.415	3085.44
696.604	3034.24
696.793	3087.48
696.982	3116.16
697.171	3081.34
697.36	3110.01
697.549	3073.15
697.738	2942.08
697.927	2942.08
698.116	2978.94
698.305	2966.65
698.494	2989.18
698.683	3032.19
698.872	2925.69
699.061	2952.32
699.25	2925.69
699.438	3009.66
699.627	2903.17
699.816	2952.32
700.005	2923.65
700.193	2876.54
700.382	2894.97
700.571	2876.54
700.76	2933.89
700.948	2950.27
701.137	2862.21
701.326	2876.54
701.514	2919.55
701.703	2790.53
701.892	2862.21
702.08	2829.44
702.269	2907.26
702.457	2876.54
702.646	2675.84
702.834	2755.71
703.023	2823.3
703.212	2827.39
703.4	2786.43
703.589	2741.38
703.777	2847.87
703.965	2729.09
704.154	2716.8
704.342	2724.99
704.531	2802.82
704.719	2780.29
704.907	2735.23
705.096	2651.27
705.284	2643.07
705.472	2548.87
705.661	2704.51
705.849	2747.52
706.037	2686.08
706.226	2733.18
706.414	2681.99
706.602	2585.73
706.79	2665.6
706.979	2618.5
707.167	2622.59
707.355	2600.07
707.543	2526.34
707.731	2598.02
707.919	2624.64
708.107	2628.74
708.296	2712.71
708.484	2618.5
708.672	2573.44
708.86	2548.87
709.048	2477.19
709.236	2491.52
709.424	2565.25
709.612	2477.19
709.8	2577.54
709.988	2536.58
710.176	2475.14
710.364	2524.29
710.551	2579.59
710.739	2479.24
710.927	2567.3
711.115	2548.87
711.303	2509.96
711.491	2563.2
711.679	2483.33
711.866	2569.35
712.054	2497.67
712.242	2462.85
712.43	2608.26
712.617	2483.33
712.805	2458.76
712.993	2425.99
713.181	2425.99
713.368	2360.45
713.556	2499.72
713.744	2417.8
713.931	2444.42
714.119	2438.28
714.306	2303.11
714.494	2368.65
714.682	2419.85
714.869	2204.81
715.057	2366.6
715.244	2237.58
715.432	2385.03
715.619	2323.59
715.807	2403.46
715.994	2329.74
716.182	2409.61
716.369	2329.74
716.556	2290.82
716.744	2376.84
716.931	2442.37
717.119	2344.07
717.306	2307.21
717.493	2327.69
717.681	2217.1
717.868	2241.67
718.055	2296.97
718.242	2225.29
718.43	2184.33
718.617	2270.34
718.804	2217.1
718.991	2180.23
719.179	2258.06
719.366	2311.3
719.553	2311.3
719.74	2161.8
719.927	2253.96
720.114	2245.77
720.301	2172.04
720.488	2258.06
720.676	2098.31
720.863	2264.2
721.05	2221.19
721.237	2196.62
721.424	2147.47
721.611	2233.48
721.798	2124.94
721.985	2184.33
722.172	2167.95
722.358	2163.85
722.545	2126.99
722.732	2081.93
722.919	2182.28
723.106	2077.83
723.293	2067.6
723.48	2129.03
723.667	2071.69
723.853	2153.61
724.04	2094.22
724.227	2051.21
724.414	2055.31
724.6	2139.27
724.787	2102.41
724.974	2172.04
725.161	1981.58
725.347	2000.01
725.534	2102.41
725.72	1922.19
725.907	2034.83
726.094	1985.68
726.28	2014.35
726.467	1924.24
726.653	2020.49
726.84	2034.83
727.027	2008.2
727.213	1885.33
727.4	2028.68
727.586	2057.36
727.773	1950.86
727.959	1971.34
728.145	2018.44
728.332	1952.91
728.518	2000.01
728.705	1946.76
728.891	1930.38
729.077	1952.91
729.264	2022.54
729.45	1979.53
729.636	1971.34
729.823	1911.95
730.009	1997.96
730.195	1983.63
730.382	1926.29
730.568	1969.29
730.754	1973.39
730.94	1909.9
731.126	1918.09
731.313	1879.18
731.499	1936.53
731.685	1924.24
731.871	1979.53
732.057	1838.22
732.243	1954.96
732.429	1870.99
732.615	1889.42
732.801	1852.56
732.987	1909.9
733.173	1791.12
733.359	1799.31
733.545	1918.09
733.731	1879.18
733.917	1885.33
734.103	1797.26
734.289	1950.86
734.475	1764.5
734.661	1877.13
734.847	1827.98
735.033	1832.08
735.219	1848.46
735.404	1787.02
735.59	1778.83
735.776	1713.3
735.962	1850.51
736.148	1789.07
736.333	1739.92
736.519	1741.97
736.705	1756.3
736.89	1764.5
737.076	1764.5
737.262	1797.26
737.447	1741.97
737.633	1688.72
737.819	1680.53
738.004	1758.35
738.19	1793.17
738.375	1754.26
738.561	1782.93
738.747	1684.62
738.932	1641.62
739.118	1680.53
739.303	1719.44
739.489	1660.05
739.674	1647.76
739.859	1688.72
740.045	1602.71
740.23	1627.28
740.416	1631.38
740.601	1610.9
740.786	1641.62
740.972	1643.67
741.157	1592.47
741.342	1741.97
741.528	1631.38
741.713	1561.75
741.898	1557.65
742.084	1655.95
742.269	1522.84
742.454	1584.27
742.639	1658
742.824	1565.84
743.01	1592.47
743.195	1617.04
743.38	1565.84
743.565	1533.08
743.75	1565.84
743.935	1500.31
744.12	1459.35
744.305	1496.21
744.49	1479.83
744.675	1424.53
744.86	1453.2
745.045	1590.42
745.23	1467.54
745.415	1418.39
745.6	1549.46
745.785	1322.13
745.97	1469.59
746.155	1424.53
746.34	1469.59
746.525	1426.58
746.71	1418.39
746.895	1295.51
747.079	1303.7
747.264	1389.72
747.449	1340.57
747.634	1389.72
747.819	1320.09
748.003	1275.03
748.188	1373.33
748.373	1336.47
748.557	1344.66
748.742	1352.85
748.927	1307.8
749.111	1318.04
749.296	1275.03
749.481	1350.81
749.665	1303.7
749.85	1322.13
750.034	1254.55
750.219	1258.65
750.404	1221.78
750.588	1336.47
750.773	1176.73
750.957	1270.94
751.141	1219.74
751.326	1223.83
751.51	1109.15
751.695	1189.02
751.879	1191.06
752.064	1199.26
752.248	1201.3
752.432	1168.54
752.617	1215.64
752.801	1223.83
752.985	1127.58
753.17	1254.55
753.354	1096.86
753.538	1166.49
753.722	1062.04
753.907	1092.76
754.091	1076.38
754.275	1109.15
754.459	1078.43
754.643	1053.85
754.828	1051.8
755.012	1057.95
755.196	1105.05
755.38	990.36
755.564	1000.6
755.748	953.5
755.932	1076.38
756.116	976.03
756.3	1076.38
756.484	1000.6
756.668	1025.18
756.852	935.07
757.036	928.92
757.22	1000.6
757.404	945.31
757.588	1002.65
757.772	943.26
757.956	978.08
758.14	918.68
758.323	918.68
758.507	971.93
758.691	912.54
758.875	978.08
759.059	951.45
759.242	844.96
759.426	844.96
759.61	994.46
759.794	881.82
759.977	939.16
760.161	871.58
760.345	789.66
760.528	906.4
760.712	928.92
760.895	900.25
761.079	885.92
761.263	728.22
761.446	844.96
761.63	797.85
761.813	916.64
761.997	861.34
762.18	871.58
762.364	828.57
762.547	791.71
762.731	861.34
762.914	793.76
763.098	806.05
763.281	822.43
763.464	789.66
763.648	769.18
763.831	750.75
764.015	769.18
764.198	828.57
764.381	691.36
764.564	779.42
764.748	722.08
764.931	771.23
765.114	799.9
765.297	793.76
765.481	681.12
765.664	701.6
765.847	720.03
766.03	824.48
766.213	740.51
766.397	640.16
766.58	746.66
766.763	773.28
766.946	625.83
767.129	738.46
767.312	744.61
767.495	732.32
767.678	765.09
767.861	748.7
768.044	806.05
768.227	750.75
768.41	754.85
768.593	734.37
768.776	763.04
768.959	763.04
769.142	699.55
769.324	697.5
769.507	705.7
769.69	838.81
769.873	666.78
770.056	787.61
770.239	636.06
770.421	763.04
770.604	693.41
770.787	779.42
770.97	642.21
771.152	726.18
771.335	689.31
771.518	672.93
771.7	601.25
771.883	660.64
772.066	603.3
772.248	658.59
772.431	681.12
772.613	713.89
772.796	648.35
772.978	578.72
773.161	636.06
773.343	593.06
773.526	668.83
773.708	640.16
773.891	562.34
774.073	576.67
774.256	578.72
774.438	713.89
774.621	566.43
774.803	631.97
774.985	591.01
775.168	629.92
775.35	570.53
775.532	502.95
775.715	552.1
775.897	560.29
776.079	541.86
776.261	566.43
776.444	584.87
776.626	474.28
776.808	543.91
776.99	550.05
777.173	535.71
777.355	588.96
777.537	582.82
777.719	568.48
777.901	529.57
778.083	537.76
778.265	457.89
778.447	484.52
778.629	496.8
778.811	541.86
778.993	578.72
779.175	558.24
779.357	496.8
779.539	527.52
779.721	476.32
779.903	554.15
780.085	478.37
780.267	509.09
780.449	525.47
780.631	550.05
780.812	504.99
780.994	447.65
781.176	486.56
781.358	416.93
781.54	541.86
781.721	496.8
781.903	464.04
782.085	421.03
782.267	429.22
782.448	500.9
782.63	406.69
782.812	445.6
782.993	380.07
783.175	390.31
783.357	478.37
783.538	466.08
783.72	314.53
783.901	353.45
784.083	378.02
784.264	406.69
784.446	404.64
784.627	296.1
784.809	386.21
784.99	341.16
785.172	443.56
785.353	396.45
785.535	425.12
785.716	394.4
785.897	339.11
786.079	410.79
786.26	335.01
786.441	466.08
786.623	375.97
786.804	314.53
786.985	378.02
787.167	292.01
787.348	296.1
787.529	345.25
787.71	386.21
787.891	418.98
788.073	337.06
788.254	330.92
788.435	369.83
788.616	300.2
788.797	347.3
788.978	398.5
789.159	339.11
789.34	339.11
789.522	353.45
789.703	253.09
789.884	222.38
790.065	312.49
790.246	289.96
790.427	304.29
790.607	322.73
790.788	363.69
790.969	244.9
791.15	240.81
791.331	212.14
791.512	330.92
791.693	183.46
791.874	255.14
792.054	332.97
792.235	287.91
792.416	294.05
792.597	326.82
792.778	269.48
792.958	255.14
793.139	314.53
793.32	292.01
793.5	296.1
793.681	324.77
793.862	345.25
794.042	240.81
794.223	257.19
794.404	226.47
794.584	214.18
794.765	259.24
794.945	240.81
795.126	275.62
795.306	249
795.487	312.49
795.667	208.04
795.848	208.04
796.028	210.09
796.209	289.96
796.389	179.37
796.57	214.18
796.75	226.47
796.93	279.72
797.111	238.76
797.291	287.91
797.471	185.51
797.652	212.14
797.832	332.97
798.012	238.76
798.192	208.04
798.373	249
798.553	132.26
798.733	246.95
798.913	218.28
799.093	238.76
799.274	238.76
799.454	240.81
799.634	222.38
799.814	238.76
799.994	230.57
800.174	230.57
800.354	234.66
800.534	214.18
800.714	156.84
800.894	158.89
801.074	158.89
801.254	222.38
801.434	271.53
801.614	197.8
801.794	142.5
801.974	812.19
802.154	183.46
802.334	222.38
802.514	160.94
802.693	222.38
802.873	169.13
803.053	263.33
803.233	218.28
803.413	193.7
803.592	191.66
803.772	179.37
803.952	193.7
804.131	128.17
804.311	242.85
804.491	285.86
804.67	199.85
804.85	251.05
805.03	193.7
805.209	197.8
805.389	183.46
805.568	142.5
805.748	142.5
805.928	255.14
806.107	226.47
806.287	160.94
806.466	181.42
806.646	83.11
806.825	101.55
807.004	83.11
807.184	183.46
807.363	154.79
807.543	189.61
807.722	140.46
807.901	183.46
808.081	165.03
808.26	83.11
808.439	103.59
808.619	171.18
808.798	115.88
808.977	199.85
809.156	165.03
809.336	124.07
809.515	228.52
809.694	181.42
809.873	144.55
810.052	165.03
810.231	134.31
810.411	134.31
810.59	251.05
810.769	189.61
810.948	193.7
811.127	103.59
811.306	117.93
811.485	193.7
811.664	162.98
811.843	126.12
812.022	132.26
812.201	76.97
812.38	117.93
812.559	126.12
812.737	263.33
812.916	89.26
813.095	124.07
813.274	119.98
813.453	83.11
813.632	201.9
813.811	91.31
813.989	109.74
814.168	113.83
814.347	111.78
814.526	165.03
814.704	76.97
814.883	181.42
815.062	146.6
815.24	195.75
815.419	83.11
815.598	91.31
815.776	119.98
815.955	134.31
816.133	126.12
816.312	128.17
816.49	132.26
816.669	134.31
816.847	85.16
817.026	173.22
817.204	165.03
817.383	117.93
817.561	58.54
817.74	148.65
817.918	193.7
818.097	93.35
818.275	130.22
818.453	156.84
818.632	156.84
818.81	74.92
818.988	60.59
819.167	224.42
819.345	154.79
819.523	42.15
819.701	142.5
819.879	74.92
820.058	126.12
820.236	119.98
820.414	93.35
820.592	70.83
820.77	76.97
820.948	91.31
821.127	101.55
821.305	99.5
821.483	36.01
821.661	167.08
821.839	124.07
822.017	109.74
822.195	60.59
822.373	169.13
822.551	93.35
822.729	99.5
822.907	93.35
823.085	140.46
823.262	25.77
823.44	165.03
823.618	103.59
823.796	76.97
823.974	66.73
824.152	152.74
824.329	-82.77
824.507	83.11
824.685	79.02
824.863	107.69
825.04	42.15
825.218	140.46
825.396	117.93
825.574	38.06
825.751	169.13
825.929	144.55
826.107	76.97
826.284	144.55
826.462	83.11
826.639	44.2
826.817	48.3
826.994	148.65
827.172	97.45
827.349	107.69
827.527	132.26
827.704	101.55
827.882	95.4
828.059	146.6
828.237	27.82
828.414	115.88
828.591	15.53
828.769	50.35
828.946	46.25
829.124	167.08
829.301	76.97
829.478	83.11
829.655	79.02
829.833	107.69
830.01	66.73
830.187	68.78
830.364	132.26
830.542	29.87
830.719	66.73
830.896	76.97
831.073	33.96
831.25	101.55
831.427	117.93
831.604	85.16
831.782	-17.24
831.959	60.59
832.136	156.84
832.313	91.31
832.49	91.31
832.667	101.55
832.844	119.98
833.021	101.55
833.198	81.07
833.374	95.4
833.551	70.83
833.728	17.58
833.905	87.21
834.082	72.87
834.259	36.01
834.436	95.4
834.612	79.02
834.789	36.01
834.966	-19.29
835.143	66.73
835.319	74.92
835.496	119.98
835.673	124.07
835.85	95.4
836.026	103.59
836.203	42.15
836.38	66.73
836.556	101.55
836.733	109.74
836.909	140.46
837.086	76.97
837.262	44.2
837.439	27.82
837.616	115.88
837.792	46.25
837.968	83.11
838.145	68.78
838.321	-13.14
838.498	74.92
838.674	25.77
838.851	58.54
839.027	146.6
839.203	13.48
839.38	-15.19
839.556	113.83
839.732	40.11
839.909	-23.38
840.085	85.16
840.261	9.39
840.437	9.39
840.614	25.77
840.79	124.07
840.966	27.82
841.142	-31.57
841.318	60.59
841.494	60.59
841.671	54.44
841.847	42.15
842.023	5.29
842.199	101.55
842.375	56.49
842.551	27.82
842.727	-15.19
842.903	50.35
843.079	50.35
843.255	60.59
843.431	3.24
843.607	66.73
843.783	29.87
843.959	105.64
844.134	7.34
844.31	117.93
844.486	60.59
844.662	1.19
844.838	17.58
845.013	-15.19
845.189	-7
845.365	81.07
845.541	54.44
845.716	54.44
845.892	44.2
846.068	-11.09
846.244	9.39
846.419	21.67
846.595	-2.9
846.77	91.31
846.946	36.01
847.122	-4.95
847.297	3.24
847.473	66.73
847.648	21.67
847.824	101.55
847.999	17.58
848.175	74.92
848.35	-25.43
848.526	44.2
848.701	29.87
848.876	66.73
849.052	91.31
849.227	33.96
849.403	42.15
849.578	60.59
849.753	91.31
849.929	109.74
850.104	-19.29
850.279	64.68
850.454	95.4
850.63	68.78
850.805	74.92
850.98	124.07
851.155	15.53
851.33	109.74
851.505	23.72
851.681	113.83
851.856	-15.19
852.031	1.19
852.206	38.06
852.381	25.77
852.556	-2.9
852.731	117.93
852.906	17.58
853.081	66.73
853.256	50.35
853.431	17.58
853.606	33.96
853.781	-25.43
853.956	9.39
854.131	11.43
854.305	44.2
854.48	-2.9
854.655	-15.19
854.83	-27.48
855.005	50.35
855.18	83.11
855.354	25.77
855.529	83.11
855.704	64.68
855.879	21.67
856.053	-78.68
856.228	-64.34
856.403	-9.05
856.577	44.2
856.752	60.59
856.926	58.54
857.101	25.77
857.276	91.31
857.45	107.69
857.625	27.82
857.799	62.63
857.974	9.39
858.148	-88.92
858.323	42.15
858.497	58.54
858.672	36.01
858.846	23.72
859.02	74.92
859.195	23.72
859.369	70.83
859.543	128.17
859.718	17.58
859.892	56.49
860.066	109.74
860.241	9.39
860.415	-47.96
860.589	-31.57
860.763	11.43
860.938	-7
861.112	-31.57
861.286	9.39
861.46	103.59
861.634	-11.09
861.808	87.21
861.982	-35.67
862.157	-7
862.331	11.43
862.505	19.63
862.679	19.63
862.853	13.48
863.027	-21.33
863.201	42.15
863.375	21.67
863.549	-47.96
863.722	72.87
863.896	25.77
864.07	15.53
864.244	13.48
864.418	1.19
864.592	42.15
864.766	-0.85
864.939	29.87
865.113	33.96
865.287	27.82
865.461	1.19
865.634	76.97
865.808	38.06
865.982	-11.09
866.156	50.35
866.329	66.73
866.503	-70.48
866.676	68.78
866.85	7.34
867.024	42.15
867.197	107.69
867.371	-15.19
867.544	29.87
867.718	9.39
867.891	13.48
868.065	-13.14
868.238	5.29
868.412	107.69
868.585	50.35
868.759	9.39
868.932	27.82
869.105	-21.33
869.279	17.58
869.452	33.96
869.625	27.82
869.799	46.25
869.972	33.96
870.145	17.58
870.319	66.73
870.492	58.54
870.665	107.69
870.838	-19.29
871.011	-109.4
871.185	1.19
871.358	1.19
871.531	19.63
871.704	1.19
871.877	68.78
872.05	17.58
872.223	-35.67
872.396	-27.48
872.569	-29.52
872.742	21.67
872.915	3.24
873.088	3.24
873.261	3.24
873.434	-29.52
873.607	-86.87
873.78	-2.9
873.953	-37.72
874.126	46.25
874.299	38.06
874.471	21.67
874.644	38.06
874.817	-56.15
874.99	83.11
875.163	56.49
875.335	58.54
875.508	25.77
875.681	9.39
875.853	25.77
876.026	13.48
876.199	-19.29
876.371	-13.14
876.544	-25.43
876.717	56.49
876.889	66.73
877.062	50.35
877.234	64.68
877.407	17.58
877.579	-60.24
877.752	33.96
877.924	13.48
878.097	19.63
878.269	25.77
878.442	19.63
878.614	44.2
878.786	-15.19
878.959	29.87
879.131	52.39
879.303	-31.57
879.476	33.96
879.648	36.01
879.82	50.35
879.993	46.25
880.165	25.77
880.337	-7
880.509	-31.57
880.681	-60.24
880.854	17.58
881.026	66.73
881.198	60.59
881.37	-13.14
881.542	52.39
881.714	5.29
881.886	33.96
882.058	-31.57
882.23	-11.09
882.402	27.82
882.574	-41.81
882.746	-37.72
882.918	91.31
883.09	36.01
883.262	-37.72
883.434	-19.29
883.606	-88.92
883.778	-23.38
883.95	5.29
884.122	-15.19
884.293	29.87
884.465	-15.19
884.637	85.16
884.809	-23.38
884.98	5.29
885.152	31.91
885.324	-47.96
885.496	-93.01
885.667	25.77
885.839	54.44
886.011	15.53
886.182	70.83
886.354	-27.48
886.525	36.01
886.697	99.5
886.869	31.91
887.04	9.39
887.212	70.83
887.383	62.63
887.555	21.67
887.726	38.06
887.897	-11.09
888.069	5.29
888.24	-2.9
888.412	29.87
888.583	-13.14
888.754	-4.95
888.926	-7
889.097	3.24
889.268	-70.48
889.44	-84.82
889.611	-15.19
889.782	-11.09
889.953	27.82
890.125	79.02
890.296	36.01
890.467	-39.76
890.638	15.53
890.809	36.01
890.98	52.39
891.151	-13.14
891.323	-23.38
891.494	-35.67
891.665	-7
891.836	-13.14
892.007	1.19
892.178	29.87
892.349	-23.38
892.52	19.63
892.691	17.58
892.862	33.96
893.032	5.29
893.203	9.39
893.374	-25.43
893.545	29.87
893.716	46.25
893.887	3.24
894.057	-11.09
894.228	56.49
894.399	-35.67
894.57	13.48
894.74	33.96
894.911	38.06
895.082	9.39
895.253	46.25
895.423	58.54
895.594	9.39
895.764	17.58
895.935	-60.24
896.106	54.44
896.276	36.01
896.447	87.21
896.617	-11.09
896.788	-52.05
896.958	-4.95
897.129	25.77
897.299	11.43
897.47	60.59
897.64	-11.09
897.81	-21.33
897.981	-15.19
898.151	17.58
898.322	13.48
898.492	42.15
898.662	-52.05
898.832	58.54
899.003	27.82
899.173	33.96
899.343	36.01
899.513	25.77
