Data from USB4F104151__21__14-42-42-607.txt Node

Date: Thu Mar 13 14:42:42 EDT 2025
User: louis
Spectrometer: USB4F10415
Trigger mode: 4
Integration Time (sec): 2.000000E-2
Scans to average: 1
Electric dark correction enabled: true
Nonlinearity correction enabled: false
Boxcar width: 0
XAxis mode: Wavelengths
Number of Pixels in Spectrum: 3648
>>>>>Begin Spectral Data<<<<<
178.204	-34.3
178.424	-34.3
178.644	-34.3
178.864	-153.09
179.084	-93.69
179.304	-52.74
179.524	23.04
179.744	25.09
179.964	16.9
180.184	12.8
180.404	31.23
180.624	-22.02
180.844	33.28
181.064	-28.16
181.283	8.7
181.503	-60.93
181.723	12.8
181.943	-108.03
182.163	45.57
182.383	61.95
182.602	16.9
182.822	12.8
183.042	37.38
183.262	-19.97
183.482	12.8
183.701	64
183.921	-40.45
184.141	6.66
184.361	61.95
184.58	33.28
184.8	47.62
185.02	2.56
185.239	29.18
185.459	64
185.679	86.53
185.898	-13.82
186.118	37.38
186.338	53.76
186.557	12.8
186.777	96.77
186.997	35.33
187.216	23.04
187.436	107.01
187.655	33.28
187.875	51.71
188.095	55.81
188.314	88.57
188.534	-15.87
188.753	20.99
188.973	88.57
189.192	31.23
189.412	20.99
189.631	-17.92
189.851	-60.93
190.07	45.57
190.29	25.09
190.509	8.7
190.729	33.28
190.948	74.24
191.168	180.73
191.387	29.18
191.607	-3.58
191.826	23.04
192.045	12.8
192.265	-15.87
192.484	0.51
192.704	66.05
192.923	27.14
193.142	39.42
193.362	-11.78
193.581	94.72
193.8	74.24
194.02	64
194.239	-28.16
194.458	64
194.678	0.51
194.897	94.72
195.116	29.18
195.335	61.95
195.555	29.18
195.774	70.14
195.993	41.47
196.212	53.76
196.432	82.43
196.651	131.58
196.87	39.42
197.089	29.18
197.308	12.8
197.528	37.38
197.747	-34.3
197.966	4.61
198.185	37.38
198.404	-7.68
198.623	70.14
198.842	70.14
199.062	49.66
199.281	104.96
199.5	23.04
199.719	25.09
199.938	72.19
200.157	70.14
200.376	-19.97
200.595	53.76
200.814	121.34
201.033	53.76
201.252	29.18
201.471	-7.68
201.69	-5.63
201.909	-32.26
202.128	109.05
202.347	-22.02
202.566	74.24
202.785	12.8
203.004	20.99
203.223	164.35
203.442	25.09
203.661	-24.06
203.879	72.19
204.098	39.42
204.317	70.14
204.536	29.18
204.755	86.53
204.974	152.06
205.193	70.14
205.411	152.06
205.63	78.33
205.849	25.09
206.068	-24.06
206.287	4.61
206.505	78.33
206.724	14.85
206.943	-36.35
207.162	4.61
207.381	49.66
207.599	-1.54
207.818	10.75
208.037	23.04
208.255	29.18
208.474	45.57
208.693	29.18
208.911	78.33
209.13	-40.45
209.349	23.04
209.567	35.33
209.786	64
210.005	12.8
210.223	53.76
210.442	-77.31
210.661	45.57
210.879	29.18
211.098	39.42
211.316	16.9
211.535	37.38
211.753	12.8
211.972	45.57
212.191	-75.26
212.409	-22.02
212.628	49.66
212.846	-44.54
213.065	66.05
213.283	61.95
213.502	0.51
213.72	23.04
213.938	-7.68
214.157	61.95
214.375	51.71
214.594	47.62
214.812	33.28
215.031	70.14
215.249	12.8
215.467	53.76
215.686	29.18
215.904	45.57
216.122	-13.82
216.341	47.62
216.559	70.14
216.778	64
216.996	68.09
217.214	-42.5
217.432	33.28
217.651	-36.35
217.869	20.99
218.087	86.53
218.306	41.47
218.524	70.14
218.742	10.75
218.96	88.57
219.179	57.86
219.397	4.61
219.615	12.8
219.833	45.57
220.051	41.47
220.27	20.99
220.488	72.19
220.706	-17.92
220.924	12.8
221.142	57.86
221.36	-9.73
221.578	96.77
221.796	57.86
222.015	64
222.233	115.2
222.451	66.05
222.669	-17.92
222.887	18.94
223.105	51.71
223.323	45.57
223.541	6.66
223.759	-1.54
223.977	-48.64
224.195	80.38
224.413	92.67
224.631	31.23
224.849	61.95
225.067	25.09
225.285	45.57
225.503	-15.87
225.721	-7.68
225.939	-24.06
226.157	-50.69
226.375	127.49
226.592	43.52
226.81	37.38
227.028	45.57
227.246	94.72
227.464	-3.58
227.682	59.9
227.9	72.19
228.117	27.14
228.335	-19.97
228.553	-15.87
228.771	78.33
228.989	41.47
229.206	-36.35
229.424	53.76
229.642	37.38
229.86	12.8
230.077	43.52
230.295	64
230.513	-19.97
230.731	104.96
230.948	55.81
231.166	33.28
231.384	27.14
231.601	-24.06
231.819	61.95
232.037	16.9
232.254	-11.78
232.472	10.75
232.689	20.99
232.907	139.77
233.125	88.57
233.342	78.33
233.56	51.71
233.777	37.38
233.995	41.47
234.213	66.05
234.43	29.18
234.648	115.2
234.865	31.23
235.083	6.66
235.3	4.61
235.518	104.96
235.735	55.81
235.953	70.14
236.17	61.95
236.388	20.99
236.605	-11.78
236.822	23.04
237.04	53.76
237.257	39.42
237.475	-77.31
237.692	27.14
237.909	102.91
238.127	-30.21
238.344	131.58
238.562	10.75
238.779	-32.26
238.996	-44.54
239.214	25.09
239.431	94.72
239.648	90.62
239.865	86.53
240.083	82.43
240.3	4.61
240.517	0.51
240.735	20.99
240.952	72.19
241.169	27.14
241.386	14.85
241.603	43.52
241.821	45.57
242.038	43.52
242.255	78.33
242.472	4.61
242.689	107.01
242.907	29.18
243.124	45.57
243.341	104.96
243.558	-9.73
243.775	-58.88
243.992	-1.54
244.209	41.47
244.426	147.97
244.643	66.05
244.86	43.52
245.078	64
245.295	66.05
245.512	14.85
245.729	4.61
245.946	29.18
246.163	57.86
246.38	29.18
246.597	35.33
246.814	6.66
247.031	23.04
247.248	20.99
247.464	64
247.681	6.66
247.898	35.33
248.115	-34.3
248.332	-26.11
248.549	6.66
248.766	131.58
248.983	-24.06
249.2	20.99
249.417	0.51
249.633	-36.35
249.85	102.91
250.067	33.28
250.284	70.14
250.501	61.95
250.717	98.81
250.934	41.47
251.151	-9.73
251.368	-11.78
251.585	53.76
251.801	12.8
252.018	33.28
252.235	78.33
252.451	80.38
252.668	39.42
252.885	6.66
253.102	37.38
253.318	23.04
253.535	25.09
253.752	84.48
253.968	-24.06
254.185	-58.88
254.401	-67.07
254.618	23.04
254.835	-24.06
255.051	16.9
255.268	37.38
255.484	29.18
255.701	-30.21
255.917	82.43
256.134	4.61
256.351	-9.73
256.567	39.42
256.784	37.38
257	-44.54
257.217	39.42
257.433	66.05
257.65	-3.58
257.866	20.99
258.082	-46.59
258.299	14.85
258.515	10.75
258.732	70.14
258.948	12.8
259.165	-28.16
259.381	-5.63
259.597	12.8
259.814	-44.54
260.03	41.47
260.246	47.62
260.463	57.86
260.679	80.38
260.895	-17.92
261.112	23.04
261.328	-60.93
261.544	55.81
261.761	72.19
261.977	12.8
262.193	25.09
262.409	31.23
262.626	18.94
262.842	180.73
263.058	-7.68
263.274	45.57
263.49	29.18
263.707	74.24
263.923	53.76
264.139	29.18
264.355	-9.73
264.571	70.14
264.787	88.57
265.004	4.61
265.22	88.57
265.436	49.66
265.652	20.99
265.868	29.18
266.084	68.09
266.3	29.18
266.516	39.42
266.732	-19.97
266.948	-24.06
267.164	78.33
267.38	31.23
267.596	90.62
267.812	59.9
268.028	16.9
268.244	33.28
268.46	-11.78
268.676	-11.78
268.892	-3.58
269.108	43.52
269.324	49.66
269.54	102.91
269.756	-52.74
269.972	-3.58
270.188	12.8
270.403	33.28
270.619	25.09
270.835	70.14
271.051	47.62
271.267	-30.21
271.483	37.38
271.698	70.14
271.914	33.28
272.13	41.47
272.346	96.77
272.562	37.38
272.777	45.57
272.993	-26.11
273.209	70.14
273.425	127.49
273.64	-3.58
273.856	86.53
274.072	-1.54
274.287	12.8
274.503	45.57
274.719	29.18
274.934	49.66
275.15	2.56
275.366	53.76
275.581	12.8
275.797	107.01
276.012	64
276.228	6.66
276.444	55.81
276.659	117.25
276.875	-44.54
277.09	6.66
277.306	72.19
277.521	41.47
277.737	64
277.952	61.95
278.168	78.33
278.383	-15.87
278.599	57.86
278.814	37.38
279.03	88.57
279.245	66.05
279.461	78.33
279.676	12.8
279.892	4.61
280.107	6.66
280.322	-32.26
280.538	29.18
280.753	-34.3
280.969	55.81
281.184	18.94
281.399	70.14
281.615	-34.3
281.83	49.66
282.045	39.42
282.26	-11.78
282.476	-58.88
282.691	41.47
282.906	45.57
283.122	61.95
283.337	-19.97
283.552	72.19
283.767	10.75
283.983	12.8
284.198	8.7
284.413	61.95
284.628	-3.58
284.843	111.1
285.058	4.61
285.274	47.62
285.489	98.81
285.704	23.04
285.919	-40.45
286.134	47.62
286.349	47.62
286.564	-44.54
286.779	39.42
286.995	70.14
287.21	25.09
287.425	-17.92
287.64	37.38
287.855	53.76
288.07	53.76
288.285	94.72
288.5	39.42
288.715	35.33
288.93	-38.4
289.145	20.99
289.36	104.96
289.575	37.38
289.79	39.42
290.004	0.51
290.219	94.72
290.434	45.57
290.649	61.95
290.864	55.81
291.079	14.85
291.294	47.62
291.509	29.18
291.724	4.61
291.938	-7.68
292.153	-1.54
292.368	12.8
292.583	51.71
292.798	80.38
293.012	53.76
293.227	-1.54
293.442	-50.69
293.657	35.33
293.871	72.19
294.086	-28.16
294.301	92.67
294.516	41.47
294.73	57.86
294.945	29.18
295.16	6.66
295.374	0.51
295.589	41.47
295.804	45.57
296.018	-11.78
296.233	94.72
296.447	45.57
296.662	33.28
296.877	45.57
297.091	57.86
297.306	31.23
297.52	-52.74
297.735	78.33
297.949	31.23
298.164	72.19
298.378	20.99
298.593	4.61
298.807	80.38
299.022	45.57
299.236	-7.68
299.451	-28.16
299.665	-19.97
299.88	-11.78
300.094	66.05
300.309	-3.58
300.523	-13.82
300.737	20.99
300.952	49.66
301.166	14.85
301.381	70.14
301.595	31.23
301.809	74.24
302.024	45.57
302.238	-30.21
302.452	86.53
302.667	20.99
302.881	49.66
303.095	37.38
303.309	18.94
303.524	23.04
303.738	129.53
303.952	8.7
304.166	127.49
304.381	20.99
304.595	70.14
304.809	4.61
305.023	-1.54
305.237	72.19
305.452	20.99
305.666	20.99
305.88	33.28
306.094	61.95
306.308	37.38
306.522	90.62
306.736	70.14
306.95	68.09
307.164	64
307.379	25.09
307.593	98.81
307.807	47.62
308.021	45.57
308.235	61.95
308.449	-9.73
308.663	127.49
308.877	127.49
309.091	-17.92
309.305	31.23
309.519	-46.59
309.733	37.38
309.947	6.66
310.161	39.42
310.374	35.33
310.588	39.42
310.802	31.23
311.016	59.9
311.23	37.38
311.444	-13.82
311.658	80.38
311.872	39.42
312.085	-17.92
312.299	107.01
312.513	37.38
312.727	12.8
312.941	53.76
313.154	61.95
313.368	119.29
313.582	61.95
313.796	66.05
314.009	-48.64
314.223	-17.92
314.437	33.28
314.651	20.99
314.864	33.28
315.078	61.95
315.292	12.8
315.505	-24.06
315.719	113.15
315.933	57.86
316.146	78.33
316.36	23.04
316.573	20.99
316.787	66.05
317.001	43.52
317.214	0.51
317.428	53.76
317.641	29.18
317.855	16.9
318.068	57.86
318.282	-48.64
318.495	203.26
318.709	94.72
318.922	53.76
319.136	111.1
319.349	12.8
319.563	37.38
319.776	39.42
319.99	-11.78
320.203	-24.06
320.417	8.7
320.63	53.76
320.843	66.05
321.057	10.75
321.27	14.85
321.483	92.67
321.697	12.8
321.91	61.95
322.124	45.57
322.337	-13.82
322.55	49.66
322.763	70.14
322.977	49.66
323.19	14.85
323.403	-17.92
323.617	53.76
323.83	66.05
324.043	25.09
324.256	61.95
324.469	23.04
324.683	74.24
324.896	23.04
325.109	90.62
325.322	14.85
325.535	55.81
325.748	45.57
325.962	12.8
326.175	43.52
326.388	61.95
326.601	68.09
326.814	29.18
327.027	23.04
327.24	76.29
327.453	12.8
327.666	29.18
327.879	72.19
328.092	6.66
328.305	14.85
328.518	14.85
328.731	25.09
328.944	82.43
329.157	53.76
329.37	127.49
329.583	-11.78
329.796	78.33
330.009	-7.68
330.222	57.86
330.435	8.7
330.648	61.95
330.861	43.52
331.073	20.99
331.286	102.91
331.499	100.86
331.712	12.8
331.925	-3.58
332.138	82.43
332.35	37.38
332.563	-15.87
332.776	-3.58
332.989	115.2
333.202	53.76
333.414	29.18
333.627	61.95
333.84	27.14
334.053	-5.63
334.265	0.51
334.478	12.8
334.691	14.85
334.903	61.95
335.116	18.94
335.329	18.94
335.541	41.47
335.754	80.38
335.966	27.14
336.179	119.29
336.392	33.28
336.604	33.28
336.817	43.52
337.029	86.53
337.242	37.38
337.454	25.09
337.667	57.86
337.88	47.62
338.092	94.72
338.305	45.57
338.517	55.81
338.729	4.61
338.942	-11.78
339.154	16.9
339.367	45.57
339.579	57.86
339.792	29.18
340.004	55.81
340.217	14.85
340.429	37.38
340.641	-17.92
340.854	55.81
341.066	61.95
341.278	111.1
341.491	80.38
341.703	8.7
341.915	6.66
342.128	14.85
342.34	8.7
342.552	104.96
342.764	25.09
342.977	61.95
343.189	70.14
343.401	12.8
343.613	-19.97
343.826	12.8
344.038	20.99
344.25	168.45
344.462	-3.58
344.674	39.42
344.886	-28.16
345.099	70.14
345.311	70.14
345.523	0.51
345.735	-28.16
345.947	53.76
346.159	39.42
346.371	23.04
346.583	45.57
346.795	152.06
347.007	-9.73
347.219	16.9
347.431	84.48
347.643	137.73
347.855	37.38
348.067	-3.58
348.279	-36.35
348.491	72.19
348.703	49.66
348.915	45.57
349.127	39.42
349.339	53.76
349.551	-3.58
349.763	113.15
349.975	-34.3
350.187	168.45
350.399	137.73
350.61	47.62
350.822	-3.58
351.034	4.61
351.246	-1.54
351.458	-44.54
351.669	66.05
351.881	152.06
352.093	88.57
352.305	188.93
352.517	94.72
352.728	33.28
352.94	-52.74
353.152	88.57
353.363	-17.92
353.575	53.76
353.787	53.76
353.999	78.33
354.21	115.2
354.422	45.57
354.633	-5.63
354.845	0.51
355.057	47.62
355.268	23.04
355.48	18.94
355.692	-52.74
355.903	-7.68
356.115	18.94
356.326	-15.87
356.538	70.14
356.749	61.95
356.961	37.38
357.172	53.76
357.384	49.66
357.595	-11.78
357.807	61.95
358.018	18.94
358.23	53.76
358.441	82.43
358.653	8.7
358.864	41.47
359.075	29.18
359.287	-11.78
359.498	94.72
359.709	61.95
359.921	-65.02
360.132	84.48
360.344	14.85
360.555	2.56
360.766	119.29
360.977	-5.63
361.189	88.57
361.4	88.57
361.611	4.61
361.823	33.28
362.034	-1.54
362.245	-15.87
362.456	14.85
362.667	41.47
362.879	-11.78
363.09	33.28
363.301	96.77
363.512	45.57
363.723	29.18
363.935	12.8
364.146	94.72
364.357	-28.16
364.568	4.61
364.779	74.24
364.99	23.04
365.201	8.7
365.412	135.68
365.623	23.04
365.834	61.95
366.045	18.94
366.256	51.71
366.467	100.86
366.678	53.76
366.889	20.99
367.1	80.38
367.311	170.49
367.522	59.9
367.733	61.95
367.944	70.14
368.155	70.14
368.366	4.61
368.577	133.63
368.788	49.66
368.999	70.14
369.209	66.05
369.42	-1.54
369.631	35.33
369.842	14.85
370.053	61.95
370.264	23.04
370.474	66.05
370.685	86.53
370.896	29.18
371.107	74.24
371.317	45.57
371.528	55.81
371.739	41.47
371.95	-36.35
372.16	55.81
372.371	41.47
372.582	78.33
372.792	80.38
373.003	37.38
373.214	57.86
373.424	61.95
373.635	-32.26
373.846	113.15
374.056	-7.68
374.267	78.33
374.477	84.48
374.688	0.51
374.898	47.62
375.109	20.99
375.319	61.95
375.53	111.1
375.74	8.7
375.951	64
376.161	33.28
376.372	94.72
376.582	39.42
376.793	49.66
377.003	4.61
377.214	92.67
377.424	86.53
377.635	76.29
377.845	25.09
378.055	113.15
378.266	-67.07
378.476	47.62
378.686	14.85
378.897	104.96
379.107	39.42
379.317	-19.97
379.528	66.05
379.738	20.99
379.948	-34.3
380.158	131.58
380.369	23.04
380.579	41.47
380.789	20.99
380.999	55.81
381.21	72.19
381.42	119.29
381.63	16.9
381.84	127.49
382.05	111.1
382.261	35.33
382.471	53.76
382.681	25.09
382.891	94.72
383.101	64
383.311	0.51
383.521	113.15
383.731	78.33
383.941	102.91
384.151	45.57
384.361	61.95
384.571	70.14
384.781	61.95
384.991	78.33
385.201	61.95
385.411	72.19
385.621	127.49
385.831	53.76
386.041	53.76
386.251	-17.92
386.461	137.73
386.671	25.09
386.881	45.57
387.091	96.77
387.301	70.14
387.511	-5.63
387.72	80.38
387.93	107.01
388.14	-34.3
388.35	43.52
388.56	64
388.769	12.8
388.979	94.72
389.189	-26.11
389.399	33.28
389.609	86.53
389.818	74.24
390.028	41.47
390.238	55.81
390.447	137.73
390.657	113.15
390.867	8.7
391.076	53.76
391.286	98.81
391.496	53.76
391.705	61.95
391.915	109.05
392.125	117.25
392.334	-42.5
392.544	47.62
392.753	72.19
392.963	-7.68
393.172	94.72
393.382	53.76
393.591	80.38
393.801	78.33
394.01	86.53
394.22	45.57
394.429	90.62
394.639	90.62
394.848	96.77
395.058	37.38
395.267	70.14
395.477	107.01
395.686	4.61
395.895	109.05
396.105	121.34
396.314	61.95
396.524	49.66
396.733	14.85
396.942	158.21
397.152	96.77
397.361	96.77
397.57	119.29
397.78	74.24
397.989	145.92
398.198	201.21
398.407	64
398.617	82.43
398.826	74.24
399.035	78.33
399.244	64
399.453	29.18
399.663	92.67
399.872	143.87
400.081	72.19
400.29	145.92
400.499	53.76
400.708	49.66
400.917	78.33
401.127	53.76
401.336	176.64
401.545	133.63
401.754	119.29
401.963	80.38
402.172	45.57
402.381	61.95
402.59	104.96
402.799	82.43
403.008	127.49
403.217	82.43
403.426	55.81
403.635	111.1
403.844	168.45
404.053	64
404.262	64
404.471	223.74
404.68	76.29
404.888	49.66
405.097	29.18
405.306	80.38
405.515	127.49
405.724	135.68
405.933	61.95
406.142	182.78
406.35	119.29
406.559	107.01
406.768	104.96
406.977	174.59
407.185	172.54
407.394	94.72
407.603	86.53
407.812	121.34
408.02	254.46
408.229	219.64
408.438	178.69
408.646	127.49
408.855	104.96
409.064	242.17
409.272	170.49
409.481	201.21
409.69	147.97
409.898	178.69
410.107	158.21
410.315	242.17
410.524	217.6
410.733	274.94
410.941	266.75
411.15	217.6
411.358	276.99
411.567	258.56
411.775	227.84
411.984	279.04
412.192	301.56
412.401	262.65
412.609	336.38
412.818	336.38
413.026	242.17
413.234	344.57
413.443	375.29
413.651	356.86
413.86	410.11
414.068	432.63
414.276	358.91
414.485	375.29
414.693	471.54
414.901	508.41
415.11	489.98
415.318	459.26
415.526	504.31
415.734	440.83
415.943	522.74
416.151	375.29
416.359	526.84
416.567	557.56
416.776	625.14
416.984	602.61
417.192	629.24
417.4	647.67
417.608	625.14
417.817	692.73
418.025	702.97
418.233	739.83
418.441	651.77
418.649	750.07
418.857	848.37
419.065	784.88
419.273	836.08
419.481	891.38
419.689	827.89
419.897	899.57
420.105	952.82
420.313	922.1
420.521	997.87
420.729	987.63
420.937	1079.79
421.145	1110.51
421.353	1092.08
421.561	1260.01
421.769	1212.91
421.977	1284.59
422.185	1288.68
422.393	1315.31
422.601	1491.43
422.809	1405.42
423.017	1364.46
423.224	1554.92
423.432	1538.54
423.64	1597.93
423.848	1780.2
424.056	1548.78
424.263	1774.05
424.471	1888.74
424.679	1815.01
424.887	1810.92
425.094	2003.43
425.302	2062.82
425.51	1991.14
425.718	2169.31
425.925	2150.88
426.133	2111.97
426.341	2437.59
426.548	2431.45
426.756	2404.83
426.964	2445.79
427.171	2570.71
427.379	2679.26
427.586	2662.87
427.794	2683.35
428.001	2920.92
428.209	2990.55
428.417	3056.08
428.624	3191.25
428.832	3267.02
429.039	3166.67
429.247	3178.96
429.454	3404.24
429.662	3674.57
429.869	3453.39
430.076	3719.62
430.284	3592.65
430.491	3748.29
430.699	3936.71
430.906	4039.11
431.114	3924.42
431.321	4090.31
431.528	4116.93
431.736	4522.43
431.943	4676.02
432.15	4481.47
432.358	4612.54
432.565	4837.81
432.772	4839.86
432.979	5075.38
433.187	5243.31
433.394	5190.06
433.601	5591.47
433.808	5570.99
434.016	5577.13
434.223	5652.91
434.43	6019.49
434.637	5953.96
434.844	6373.79
435.052	6543.77
435.259	6351.26
435.466	6441.37
435.673	6449.57
435.88	6863.26
436.087	7115.16
436.294	7299.47
436.501	7088.53
436.708	7246.23
436.915	7346.58
437.122	7795.08
437.329	7864.71
437.537	7879.05
437.743	7995.78
437.95	8243.59
438.157	8554.88
438.364	8737.15
438.571	8706.43
438.778	8823.16
438.985	9601.39
439.192	9210.23
439.399	9386.35
439.606	9286
439.813	9695.6
440.02	10479.97
440.227	10484.06
440.433	10137.96
440.64	10639.71
440.847	10326.37
441.054	10686.81
441.261	11417.94
441.467	11202.9
441.674	11571.54
441.881	11911.5
442.088	11583.82
442.294	11866.44
442.501	12011.85
442.708	12458.31
442.914	12722.49
443.121	13373.75
443.328	13044.02
443.534	13971.75
443.741	13396.28
443.948	13490.48
444.154	14418.21
444.361	14346.53
444.568	14393.64
444.774	14563.62
444.981	14455.08
445.187	15128.86
445.394	15485.2
445.6	15368.47
445.807	17015.04
446.013	16187.66
446.22	16445.7
446.426	17195.26
446.633	17330.42
446.839	18243.82
447.046	17060.09
447.252	18223.34
447.459	18043.12
447.665	18051.31
447.871	18917.6
448.078	19724.5
448.284	18923.74
448.491	19548.37
448.697	20203.72
448.903	20654.28
449.11	20799.68
449.316	20347.08
449.522	20598.98
449.728	21182.65
449.935	21577.91
450.141	21487.8
450.347	21926.07
450.553	21323.96
450.76	21645.49
450.966	22511.78
451.172	22212.78
451.378	22573.22
451.584	22124.72
451.791	22937.76
451.997	22878.37
452.203	23011.49
452.409	23144.61
452.615	23099.55
452.821	21956.78
453.027	21962.93
453.233	23224.48
453.44	22180.01
453.646	22773.92
453.852	22911.14
454.058	23042.21
454.264	22458.54
454.47	22888.61
454.676	22016.18
454.882	23240.86
455.088	21199.04
455.294	21627.06
455.5	21723.32
455.705	21901.49
455.911	20981.95
456.117	20762.82
456.323	20578.5
456.529	19603.67
456.735	20197.58
456.941	19806.42
457.147	19912.91
457.352	19005.66
457.558	18690.27
457.764	18741.47
457.97	18634.98
458.176	18079.98
458.381	18317.54
458.587	17236.22
458.793	16914.69
458.999	16353.54
459.204	17608.95
459.41	17088.76
459.616	15765.78
459.821	16038.16
460.027	15999.24
460.233	15622.42
460.438	14856.48
460.644	14821.66
460.85	14209.32
461.055	13992.23
461.261	13981.99
461.466	12941.63
461.672	12706.11
461.878	13470
462.083	12628.29
462.289	12505.41
462.494	12400.96
462.7	11874.63
462.905	11383.12
463.111	11845.96
463.316	12083.53
463.522	11520.34
463.727	11551.06
463.932	11594.06
464.138	11557.2
464.343	11762
464.549	11262.29
464.754	11563.34
464.959	11536.72
465.165	11503.95
465.37	11204.95
465.575	10803.55
465.781	11034.97
465.986	11309.4
466.191	10711.39
466.397	10615.13
466.602	10068.33
466.807	10684.76
467.012	10522.98
467.218	10551.65
467.423	10168.68
467.628	10504.54
467.833	10840.41
468.038	10318.18
468.244	10211.68
468.449	10684.76
468.654	10203.49
468.859	10269.03
469.064	9963.88
469.269	9611.63
469.474	9824.62
469.679	10107.24
469.885	9607.53
470.09	9662.83
470.295	9773.42
470.5	9486.7
470.705	9752.94
470.91	9318.77
471.115	9089.4
471.32	9294.19
471.525	9400.69
471.73	9050.49
471.935	9154.93
472.139	8923.51
472.344	8862.07
472.549	8837.5
472.754	8847.74
472.959	8563.07
473.164	8294.79
473.369	8391.04
473.574	8470.91
473.778	8466.81
473.983	8472.96
474.188	8632.7
474.393	8024.45
474.598	8329.6
474.802	8075.65
475.007	8124.8
475.212	8044.93
475.417	7700.87
475.621	7782.79
475.826	7664.01
476.031	7365.01
476.235	7494.03
476.44	7633.29
476.645	7477.65
476.849	7508.37
477.054	7246.23
477.259	7135.64
477.463	7111.06
477.668	7100.82
477.872	7043.48
478.077	6896.02
478.282	6754.71
478.486	6605.21
478.691	6738.33
478.895	6775.19
479.1	6760.86
479.304	6767
479.509	6558.11
479.713	6697.37
479.918	6537.63
480.122	6312.35
480.326	6533.53
480.531	6498.72
480.735	6373.79
480.94	6308.26
481.144	6488.48
481.348	6164.9
481.553	6551.96
481.757	6185.38
481.961	6381.98
482.166	6295.97
482.37	6277.54
482.574	6214.05
482.778	6156.71
482.983	6205.86
483.187	6259.1
483.391	6150.56
483.595	6185.38
483.8	6140.32
484.004	6324.64
484.208	6263.2
484.412	6156.71
484.616	6164.9
484.821	6318.5
485.025	6048.16
485.229	6394.27
485.433	6142.37
485.637	6142.37
485.841	6252.96
486.045	6275.49
486.249	6394.27
486.453	6168.99
486.657	6400.41
486.861	6097.31
487.065	6255.01
487.269	6068.64
487.473	6158.75
487.677	6279.58
487.881	6285.73
488.085	6160.8
488.289	6257.06
488.493	6230.43
488.697	6287.78
488.901	6365.6
489.105	6291.87
489.309	6369.69
489.512	6375.84
489.716	6336.93
489.92	6410.65
490.124	6314.4
490.328	6511
490.531	6500.76
490.735	6635.93
490.939	6664.6
491.143	6605.21
491.346	6377.89
491.55	6648.22
491.754	6517.15
491.958	6662.55
492.161	6668.7
492.365	6730.14
492.569	6648.22
492.772	6775.19
492.976	6660.51
493.18	6910.36
493.383	6885.78
493.587	6871.45
493.79	7074.2
493.994	6781.34
494.197	7096.72
494.401	7129.49
494.605	7104.92
494.808	7340.43
495.012	7567.76
495.215	7264.66
495.419	7332.24
495.622	7264.66
495.825	7526.8
496.029	7481.74
496.232	7750.03
496.436	7639.44
496.639	7879.05
496.843	7649.68
497.046	8196.48
497.249	8036.74
497.453	7913.86
497.656	7956.87
497.859	8036.74
498.063	8294.79
498.266	8411.52
498.469	8411.52
498.673	8679.8
498.876	8767.87
499.079	8958.33
499.282	8640.89
499.485	9091.45
499.689	9265.52
499.892	9189.75
500.095	9382.26
500.298	9519.47
500.501	9449.84
500.705	9544.05
500.908	9767.27
501.111	9861.48
501.314	10076.52
501.517	10185.06
501.72	10064.23
501.923	10131.81
502.126	10658.14
502.329	10760.54
502.532	10752.35
502.735	10596.7
502.938	11088.21
503.141	10973.53
503.344	11262.29
503.547	11293.01
503.75	11569.49
503.953	11696.46
504.156	11823.44
504.359	11997.51
504.562	11950.41
504.765	12177.73
504.968	12515.65
505.17	12431.68
505.373	12689.73
505.576	12806.46
505.779	13015.35
505.982	13087.03
506.185	13300.02
506.387	13181.24
506.59	13654.32
506.793	14086.44
506.996	13850.92
507.198	14231.85
507.401	14065.96
507.604	14528.8
507.807	14719.26
508.009	14762.27
508.212	15053.08
508.415	15026.46
508.617	15311.13
508.82	15343.89
509.022	15423.76
509.225	15718.67
509.428	15905.04
509.63	15798.54
509.833	16263.43
510.035	16421.13
510.238	16527.62
510.44	16779.52
510.643	17078.52
510.845	17162.49
511.048	16736.51
511.25	17342.71
511.453	17414.39
511.655	18385.13
511.858	17889.52
512.06	18276.59
512.262	18290.92
512.465	18485.48
512.667	18815.2
512.87	19134.68
513.072	18995.42
513.274	19321.05
513.477	19624.15
513.679	19808.47
513.881	19753.17
514.084	20173
514.286	20259.02
514.488	20431.05
514.69	21061.82
514.893	20955.33
515.095	21299.39
515.297	21418.17
515.499	21559.48
515.701	22032.56
515.904	22397.1
516.106	22212.78
516.308	22057.14
516.51	22671.53
516.712	22737.06
516.914	23031.97
517.116	23429.27
517.318	23789.72
517.52	23640.22
517.722	23738.52
517.925	24223.89
518.127	24668.3
518.329	24447.11
518.531	24348.81
518.733	24952.96
518.935	25284.73
519.136	25311.36
519.338	25927.8
519.54	25811.06
519.742	26060.91
519.944	26146.93
520.146	26587.24
520.348	26642.54
520.55	26675.3
520.752	26949.73
520.954	27568.22
521.155	27500.64
521.357	27820.12
521.559	27619.42
521.761	28231.76
521.963	28352.59
522.164	28534.86
522.366	28713.03
522.568	28692.55
522.77	29276.23
522.971	29587.52
523.173	29374.53
523.375	29587.52
523.576	29528.13
523.778	29694.01
523.98	30457.9
524.181	30150.71
524.383	30265.39
524.584	30810.15
524.786	30910.5
524.988	30722.09
525.189	31268.9
525.391	31350.82
525.592	31520.8
525.794	31623.2
525.995	31639.58
526.197	31758.36
526.398	31762.46
526.6	32438.29
526.801	32157.72
527.003	32235.54
527.204	32372.75
527.406	32702.48
527.607	32647.18
527.808	32913.42
528.01	32415.76
528.211	32811.02
528.412	33423.36
528.614	33337.35
528.815	33257.48
529.016	33667.07
529.218	33230.85
529.419	33439.75
529.62	34004.99
529.822	33585.15
530.023	33769.47
530.224	33558.53
530.425	33943.55
530.626	33449.99
530.828	33644.54
531.029	34162.68
531.23	34025.46
531.431	33675.26
531.632	34437.11
531.833	34150.39
532.035	34609.14
532.236	34564.08
532.437	35082.22
532.638	34293.75
532.839	34746.35
533.04	34648.05
533.241	34328.56
533.442	35241.96
533.643	34699.25
533.844	34553.84
534.045	34449.39
534.246	34416.63
534.447	34844.65
534.648	34525.17
534.849	34596.85
535.05	34209.78
535.251	34625.52
535.451	34525.17
535.652	35094.5
535.853	34559.98
536.054	35086.31
536.255	34785.26
536.456	34213.88
536.657	35430.37
536.857	34545.65
537.058	34746.35
537.259	34793.45
537.46	35094.5
537.66	34684.91
537.861	34863.08
538.062	34840.56
538.263	35053.55
538.463	34775.02
538.664	34588.66
538.865	35080.17
539.065	35067.88
539.266	34703.34
539.466	35166.18
539.667	34303.99
539.868	34873.32
540.068	34807.79
540.269	34988.01
540.469	35280.87
540.67	35055.59
540.87	35346.4
541.071	34713.58
541.271	35026.92
541.472	34961.39
541.672	34594.8
541.873	34746.35
542.073	34357.24
542.274	35088.36
542.474	34713.58
542.675	35026.92
542.875	35282.92
543.075	34721.77
543.276	34441.2
543.476	35082.22
543.676	34570.22
543.877	34947.05
544.077	34756.59
544.277	34848.75
544.478	34584.56
544.678	35045.35
544.878	34902
545.078	34654.19
545.279	34553.84
545.479	34799.6
545.679	34678.77
545.879	34635.76
546.079	34744.3
546.28	34734.06
546.48	34461.68
546.68	34803.69
546.88	34637.81
547.08	34830.32
547.28	34693.1
547.48	34217.97
547.68	34527.22
547.88	34318.32
548.081	34639.86
548.281	34742.25
548.481	34557.94
548.681	34969.58
548.881	34572.27
549.081	34512.88
549.28	34326.52
549.48	34846.7
549.68	34461.68
549.88	34963.43
550.08	34424.82
550.28	34725.87
550.48	34363.38
550.68	34652.14
550.88	34129.91
551.08	34762.73
551.279	34519.03
551.479	33986.55
551.679	34801.64
551.879	34412.53
552.079	34756.59
552.278	34729.97
552.478	34760.69
552.678	34486.26
552.878	34379.76
553.077	34385.91
553.277	34076.66
553.477	34756.59
553.676	34465.78
553.876	33978.36
554.076	34367.48
554.275	33906.68
554.475	34041.85
554.674	34359.28
554.874	34439.15
555.074	34103.29
555.273	34392.05
555.473	34179.06
555.672	34068.47
555.872	34004.99
556.071	34160.63
556.271	34189.3
556.47	33722.37
556.67	33591.3
556.869	33628.16
557.068	33798.14
557.268	33658.88
557.467	33974.27
557.667	33703.93
557.866	33980.41
558.065	33636.35
558.265	33581.06
558.464	33263.62
558.663	33437.7
558.863	33069.06
559.062	34119.67
559.261	33198.09
559.461	33751.04
559.66	33245.19
559.859	33054.73
560.058	33099.78
560.258	33314.82
560.457	32731.15
560.656	33316.87
560.855	33277.96
561.054	32960.52
561.253	33048.58
561.453	33110.02
561.652	33187.85
561.851	33316.87
562.05	33171.46
562.249	32581.65
562.448	33097.73
562.647	32802.83
562.846	32655.37
563.045	32684.05
563.244	32321.55
563.443	32751.63
563.642	32026.65
563.841	32245.78
564.04	32198.68
564.239	32774.16
564.438	31965.21
564.637	32481.3
564.836	32131.09
565.035	32106.52
565.234	32026.65
565.432	32032.79
565.631	31866.91
565.83	31914.01
566.029	31639.58
566.228	31705.12
566.427	31858.71
566.625	31641.63
566.824	31096.87
567.023	31549.47
567.222	31178.79
567.42	31543.33
567.619	31594.53
567.818	31045.67
568.016	31137.83
568.215	31629.34
568.414	30906.41
568.612	31084.58
568.811	31014.95
569.01	31133.73
569.208	30371.89
569.407	31117.35
569.605	30697.52
569.804	30969.9
570.002	30351.41
570.201	30998.57
570.4	30398.51
570.598	30298.16
570.797	29958.2
570.995	30464.05
571.193	29909.05
571.392	30521.39
571.59	29999.16
571.789	30023.73
571.987	30263.35
572.186	29771.83
572.384	29597.76
572.582	29972.53
572.781	29976.63
572.979	29110.34
573.177	29622.33
573.376	29575.23
573.574	29397.06
573.772	29499.45
573.971	29429.82
574.169	28889.16
574.367	28975.17
574.565	28749.9
574.763	28493.9
574.962	29050.95
575.16	28471.37
575.358	28940.36
575.556	28442.7
575.754	28858.44
575.952	28248.14
576.151	28147.79
576.349	28418.13
576.547	28006.48
576.745	27981.91
576.943	27924.57
577.141	27691.1
577.339	27912.28
577.537	27983.96
577.735	28018.77
577.933	27508.83
578.131	27826.26
578.329	27643.99
578.527	27514.97
578.725	27336.8
578.923	27517.02
579.121	27510.88
579.319	27269.22
579.516	27218.02
579.714	27265.12
579.912	27220.06
580.11	26964.07
580.308	27072.61
580.506	27045.99
580.704	26513.52
580.901	26570.86
581.099	26769.51
581.297	26382.45
581.495	26318.96
581.692	26617.96
581.89	26441.84
582.088	26699.88
582.285	26001.52
582.483	26476.65
582.681	26140.79
582.878	26118.26
583.076	25723
583.274	26136.69
583.471	25530.49
583.669	25845.88
583.866	25292.93
584.064	25968.76
584.262	25208.96
584.459	25784.44
584.657	25096.32
584.854	25249.92
585.052	25084.03
585.249	25251.97
585.447	25264.25
585.644	24877.19
585.841	25061.51
586.039	25206.91
586.236	24557.71
586.434	24610.95
586.631	24795.27
586.828	24768.65
587.026	24391.82
587.223	24371.34
587.42	24760.45
587.618	24537.23
587.815	24264.85
588.012	24111.25
588.21	24154.26
588.407	24227.98
588.604	23998.61
588.801	23683.22
588.999	23740.57
589.196	23969.94
589.393	23931.03
589.59	23826.58
589.787	23312.54
589.984	23638.17
590.182	23466.14
590.379	23662.74
590.576	23201.95
590.773	23103.65
590.97	23302.3
591.167	23275.68
591.364	22890.66
591.561	23310.49
591.758	22884.51
591.955	22968.48
592.152	22927.52
592.349	22728.87
592.546	22823.08
592.743	22698.15
592.94	22214.83
593.137	22476.97
593.334	22495.4
593.531	22284.46
593.727	22460.59
593.924	22304.94
594.121	21938.35
594.318	22157.49
594.515	21819.57
594.712	22251.69
594.908	21891.25
595.105	21899.44
595.302	21801.14
595.499	21754.04
595.696	21715.12
595.892	21518.52
596.089	21631.16
596.286	21330.11
596.482	21553.34
596.679	21180.6
596.876	21434.55
597.072	21129.41
597.269	21217.47
597.466	21143.74
597.662	21190.84
597.859	20953.28
598.055	20678.85
598.252	20809.92
598.448	20771.01
598.645	20947.14
598.841	20541.64
599.038	20529.35
599.234	20811.97
599.431	20248.78
599.627	20492.49
599.824	20687.04
600.02	20299.98
600.217	20402.38
600.413	20232.4
600.609	20183.24
600.806	20025.55
601.002	20412.62
601.198	19869.9
601.395	19835.09
601.591	20039.89
601.787	19728.59
601.984	19644.63
602.18	19734.74
602.376	19431.64
602.572	19710.16
602.769	19239.13
602.965	19341.53
603.161	19536.09
603.357	19146.97
603.553	19376.34
603.75	19312.86
603.946	19235.03
604.142	19312.86
604.338	18999.52
604.534	19011.81
604.73	18850.02
604.926	18798.82
605.122	18741.47
605.318	18702.56
605.514	18495.72
605.71	18266.35
605.906	18362.6
606.102	18692.32
606.298	18503.91
606.494	18335.98
606.69	18249.96
606.886	18456.81
607.082	18098.41
607.278	18313.45
607.474	18032.88
607.67	18301.16
607.866	17963.25
608.062	18004.21
608.257	17592.56
608.453	17688.82
608.649	17957.1
608.845	17770.74
609.041	17838.32
609.236	17692.91
609.432	17715.44
609.628	17649.91
609.824	17572.08
610.019	17406.2
610.215	17725.68
610.411	17494.26
610.606	17355
610.802	17527.03
610.998	17496.31
611.193	17416.44
611.389	17264.89
611.584	17148.15
611.78	17123.58
611.976	17340.66
612.171	17498.36
612.367	17049.85
612.562	16920.83
612.758	16824.58
612.953	16904.45
613.149	16943.36
613.344	16924.93
613.539	16957.69
613.735	16720.13
613.93	17019.13
614.126	16668.93
614.321	16769.28
614.517	16711.94
614.712	16675.07
614.907	16406.79
615.103	16488.71
615.298	16347.4
615.493	16675.07
615.688	16414.98
615.884	16697.6
616.079	16154.89
616.274	16658.69
616.47	16259.34
616.665	16300.3
616.86	16216.33
617.055	15972.62
617.25	16208.14
617.445	16158.99
617.641	15921.42
617.836	16060.68
618.031	15823.12
618.226	15982.86
618.421	15710.48
618.616	15816.97
618.811	15687.95
619.006	15524.12
619.201	15278.36
619.396	15487.25
619.591	15280.41
619.786	15501.59
619.981	15204.63
620.176	15497.49
620.371	15122.71
620.566	15446.29
620.761	14881.05
620.956	15192.34
621.151	14809.37
621.346	14846.24
621.541	14610.72
621.735	14741.79
621.93	14426.4
622.125	14553.38
622.32	14463.27
622.515	14496.03
622.709	14199.08
622.904	14291.24
623.099	14098.73
623.294	14219.56
623.488	14027.05
623.683	13826.35
623.878	13787.44
624.072	13850.92
624.267	13803.82
624.462	13668.66
624.656	13676.85
624.851	13629.74
625.046	13523.25
625.24	13560.11
625.435	13308.21
625.629	13345.08
625.824	13431.09
626.018	13205.81
626.213	12822.84
626.407	13007.16
626.602	12634.43
626.796	12751.17
626.991	12976.44
627.185	12788.03
627.38	12540.22
627.574	12292.42
627.768	12267.84
627.963	12398.91
628.157	12224.84
628.352	12230.98
628.546	12065.1
628.74	11985.23
628.935	12077.38
629.129	11911.5
629.323	11759.95
629.517	11850.06
629.712	11718.99
629.906	11657.55
630.1	11649.36
630.294	11718.99
630.489	11665.74
630.683	11852.11
630.877	11153.75
631.071	11274.58
631.265	11503.95
631.459	11366.74
631.653	11006.3
631.848	11145.56
632.042	11104.6
632.236	10957.14
632.43	11014.49
632.624	10957.14
632.818	10994.01
633.012	10887.51
633.206	10654.05
633.4	10623.33
633.594	10594.65
633.788	10629.47
633.982	10621.28
634.176	10602.85
634.369	10522.98
634.563	10547.55
634.757	10482.02
634.951	10396
635.145	10264.93
635.339	9939.3
635.533	10039.65
635.726	10064.23
635.92	10088.81
636.114	9951.59
636.308	9836.91
636.501	9836.91
636.695	9957.74
636.889	9527.66
637.083	9556.33
637.276	9681.26
637.47	9707.88
637.664	9644.4
637.857	9580.91
638.051	9398.64
638.244	9412.98
638.438	9204.08
638.632	9142.64
638.825	9111.92
639.019	9286
639.212	9083.25
639.406	8923.51
639.599	9011.57
639.793	8782.2
639.986	8913.27
640.18	9023.86
640.373	8931.7
640.567	8640.89
640.76	8839.55
640.954	8565.12
641.147	8573.31
641.34	8475.01
641.534	8452.48
641.727	8528.25
641.92	8608.12
642.114	8384.9
642.307	8372.61
642.5	8380.8
642.694	8100.23
642.887	8112.52
643.08	8190.34
643.273	7995.78
643.467	7897.48
643.66	7960.97
643.853	7864.71
644.046	7762.31
644.239	7885.19
644.432	7807.37
644.626	7942.53
644.819	7762.31
645.012	7725.45
645.205	7754.12
645.398	7684.49
645.591	7600.52
645.784	7455.12
645.977	7424.4
646.17	7401.87
646.363	7246.23
646.556	7246.23
646.749	7217.55
646.942	7256.47
647.135	7246.23
647.328	7127.44
647.521	7106.96
647.714	7121.3
647.907	7027.09
648.099	6984.09
648.292	6908.31
648.485	6896.02
648.678	6820.25
648.871	6695.32
649.064	6902.17
649.256	6836.63
649.449	6840.73
649.642	6601.12
649.835	6451.61
650.027	6519.2
650.22	6500.76
650.413	6498.72
650.605	6482.33
650.798	6398.37
650.991	6285.73
651.183	6271.39
651.376	6500.76
651.568	6154.66
651.761	6255.01
651.954	6281.63
652.146	6154.66
652.339	6232.48
652.531	6205.86
652.724	6050.21
652.916	5960.1
653.109	5863.85
653.301	6087.08
653.494	6105.51
653.686	5794.22
653.879	5763.5
654.071	5880.23
654.263	5835.17
654.456	5702.06
654.648	5949.86
654.84	5624.23
655.033	5634.47
655.225	5642.67
655.417	5484.97
655.61	5714.34
655.802	5667.24
655.994	5566.89
656.186	5517.74
656.379	5595.56
656.571	5493.16
656.763	5403.05
656.955	5501.36
657.148	5501.36
657.34	5163.44
657.532	5245.36
657.724	5271.98
657.916	5296.56
658.108	5222.83
658.3	5091.76
658.492	5124.53
658.684	5005.75
658.876	5028.28
659.068	4981.17
659.26	5095.86
659.452	4889.01
659.644	4915.64
659.836	4850.1
660.028	4878.77
660.22	4878.77
660.412	4741.56
660.604	4649.4
660.796	4833.72
660.988	4706.74
661.18	4641.21
661.372	4667.83
661.563	4633.02
661.755	4612.54
661.947	4475.32
662.139	4456.89
662.331	4493.76
662.522	4411.84
662.714	4446.65
662.906	4420.03
663.097	4467.13
663.289	4315.58
663.481	4211.14
663.673	4268.48
663.864	4116.93
664.056	4200.9
664.247	4067.78
664.439	4237.76
664.631	4092.35
664.822	4178.37
665.014	4000.19
665.205	4010.43
665.397	4078.02
665.588	4037.06
665.78	3936.71
665.971	4047.3
666.163	3946.95
666.354	3842.5
666.546	3801.54
666.737	3733.96
666.929	3936.71
667.12	3776.97
667.311	3930.56
667.503	3781.06
667.694	3715.53
667.885	3783.11
668.077	3791.3
668.268	3629.51
668.459	3629.51
668.651	3606.98
668.842	3652.04
669.033	3736.01
669.224	3582.41
669.416	3738.05
669.607	3615.18
669.798	3609.03
669.989	3580.36
670.18	3555.79
670.371	3551.69
670.563	3496.39
670.754	3512.78
670.945	3363.28
671.136	3449.29
671.327	3416.52
671.518	3539.4
671.709	3465.68
671.9	3406.28
672.091	3498.44
672.282	3457.48
672.473	3406.28
672.664	3224.01
672.855	3338.7
673.046	3326.41
673.237	3305.93
673.428	3281.36
673.619	3281.36
673.809	3318.22
674	3142.1
674.191	3246.54
674.382	3135.95
674.573	3363.28
674.764	3090.9
674.954	3181.01
675.145	3174.86
675.336	3074.51
675.527	3127.76
675.717	3146.19
675.908	3109.33
676.099	3176.91
676.289	3119.57
676.48	3013.07
676.671	2970.07
676.861	3029.46
677.052	2922.96
677.243	2994.64
677.433	2947.54
677.624	2939.35
677.814	2945.49
678.005	2863.57
678.195	3021.27
678.386	2943.44
678.576	2888.15
678.767	2988.5
678.957	2890.2
679.148	2920.92
679.338	2965.97
679.529	2849.24
679.719	2935.25
679.909	2906.58
680.1	2845.14
680.29	2978.26
680.481	2925.01
680.671	2896.34
680.861	2970.07
681.052	2830.8
681.242	2740.69
681.432	2873.81
681.622	2845.14
681.813	2879.96
682.003	2814.42
682.193	2853.33
682.383	2898.39
682.573	2755.03
682.764	2795.99
682.954	2834.9
683.144	2855.38
683.334	2752.98
683.524	2699.73
683.714	2867.67
683.904	2793.94
684.094	2877.91
684.284	2867.67
684.474	2763.22
684.664	2818.52
684.854	2595.29
685.044	2798.04
685.234	2800.09
685.424	2656.73
685.614	2726.36
685.804	2699.73
685.994	2709.97
686.184	2808.28
686.374	2769.37
686.564	2769.37
686.753	2740.69
686.943	2619.86
687.133	2654.68
687.323	2654.68
687.513	2752.98
687.702	2675.16
687.892	2529.75
688.082	2759.13
688.272	2656.73
688.461	2685.4
688.651	2648.54
688.841	2556.38
689.03	2603.48
689.22	2453.98
689.41	2650.58
689.599	2675.16
689.789	2499.03
689.979	2595.29
690.168	2683.35
690.358	2568.66
690.547	2539.99
690.737	2488.79
690.926	2576.86
691.116	2513.37
691.305	2507.23
691.495	2486.75
691.684	2535.9
691.874	2570.71
692.063	2478.55
692.252	2441.69
692.442	2537.95
692.631	2529.75
692.82	2535.9
693.01	2439.64
693.199	2531.8
693.388	2535.9
693.578	2413.02
693.767	2464.22
693.956	2468.31
694.146	2488.79
694.335	2494.94
694.524	2458.07
694.713	2310.62
694.902	2339.29
695.092	2451.93
695.281	2447.83
695.47	2380.25
695.659	2372.06
695.848	2331.1
696.037	2410.97
696.226	2349.53
696.415	2398.68
696.604	2398.68
696.793	2318.81
696.982	2273.76
697.171	2382.3
697.36	2185.69
697.549	2306.52
697.738	2343.39
697.927	2355.68
698.116	2322.91
698.305	2302.43
698.494	2439.64
698.683	2339.29
698.872	2501.08
699.061	2302.43
699.25	2251.23
699.438	2208.22
699.627	2322.91
699.816	2247.13
700.005	2238.94
700.193	2292.19
700.382	2306.52
700.571	2267.61
700.76	2167.26
700.948	2185.69
701.137	2220.51
701.326	2388.44
701.514	2286.05
701.703	2331.1
701.892	2322.91
702.08	2388.44
702.269	2265.57
702.457	2214.37
702.646	2144.74
702.834	2204.13
703.023	2126.3
703.212	2218.46
703.4	2288.09
703.589	2185.69
703.777	2234.85
703.965	2087.39
704.154	2286.05
704.342	2265.57
704.531	2177.5
704.719	2159.07
704.907	2269.66
705.096	2109.92
705.284	2193.89
705.472	2200.03
705.661	2150.88
705.849	2175.45
706.037	2193.89
706.226	2019.81
706.414	2183.65
706.602	2103.78
706.79	2177.5
706.979	2134.5
707.167	1995.23
707.355	2140.64
707.543	2095.58
707.731	2191.84
707.919	2050.53
708.107	2132.45
708.296	2081.25
708.484	2036.19
708.672	2091.49
708.86	2054.62
709.048	2011.62
709.236	2138.59
709.424	2103.78
709.612	2036.19
709.8	2099.68
709.988	2109.92
710.176	2023.91
710.364	2089.44
710.551	1954.27
710.739	1997.28
710.927	1982.95
711.115	2032.1
711.303	2079.2
711.491	1968.61
711.679	2066.91
711.866	2011.62
712.054	2068.96
712.242	2062.82
712.43	2036.19
712.617	2060.77
712.805	2036.19
712.993	1901.03
713.181	2048.48
713.368	2005.47
713.556	2011.62
713.744	1905.12
713.931	2087.39
714.119	1964.51
714.306	1960.42
714.494	2019.81
714.682	2075.1
714.869	1946.08
715.057	1898.98
715.244	1925.6
715.432	1991.14
715.619	1831.4
715.807	1874.4
715.994	1968.61
716.182	2068.96
716.369	2052.58
716.556	2030.05
716.744	1896.93
716.931	1894.88
717.119	1860.07
717.306	1993.19
717.493	1794.53
717.681	1878.5
717.868	1999.33
718.055	1870.31
718.242	2011.62
718.43	1970.66
718.617	1898.98
718.804	1915.36
718.991	1948.13
719.179	1868.26
719.366	1819.11
719.553	1841.64
719.74	1958.37
719.927	1790.44
720.114	1888.74
720.301	1798.63
720.488	1880.55
720.676	1794.53
720.863	1864.16
721.05	1905.12
721.237	1964.51
721.424	1987.04
721.611	1870.31
721.798	1815.01
721.985	1792.48
722.172	1776.1
722.358	1890.79
722.545	1978.85
722.732	1851.88
722.919	1892.84
723.106	1855.97
723.293	1886.69
723.48	1841.64
723.667	1741.29
723.853	1862.12
724.04	1933.79
724.227	1868.26
724.414	1794.53
724.6	1790.44
724.787	1833.44
724.974	1845.73
725.161	1827.3
725.347	1794.53
725.534	1735.14
725.72	1841.64
725.907	1806.82
726.094	1798.63
726.28	1720.81
726.467	1812.96
726.653	1790.44
726.84	1831.4
727.027	1905.12
727.213	1667.56
727.4	1720.81
727.586	1722.85
727.773	1661.41
727.959	1673.7
728.145	1735.14
728.332	1612.26
728.518	1901.03
728.705	1792.48
728.891	1808.87
729.077	1708.52
729.264	1720.81
729.45	1741.29
729.636	1749.48
729.823	1735.14
730.009	1745.38
730.195	1737.19
730.382	1698.28
730.568	1694.18
730.754	1718.76
730.94	1729
731.126	1751.53
731.313	1720.81
731.499	1790.44
731.685	1743.33
731.871	1749.48
732.057	1792.48
732.243	1671.65
732.429	1702.37
732.615	1628.65
732.801	1769.96
732.987	1675.75
733.173	1702.37
733.359	1683.94
733.545	1718.76
733.731	1667.56
733.917	1782.24
734.103	1724.9
734.289	1739.24
734.475	1683.94
734.661	1649.13
734.847	1720.81
735.033	1589.74
735.219	1634.79
735.404	1663.46
735.59	1618.41
735.776	1546.73
735.962	1683.94
736.148	1612.26
736.333	1618.41
736.519	1595.88
736.705	1716.71
736.89	1634.79
737.076	1546.73
737.262	1610.22
737.447	1610.22
737.633	1561.06
737.819	1561.06
738.004	1661.41
738.19	1628.65
738.375	1550.82
738.561	1630.7
738.747	1511.91
738.932	1507.82
739.118	1593.83
739.303	1548.78
739.489	1659.37
739.674	1587.69
739.859	1544.68
740.045	1561.06
740.23	1499.63
740.416	1516.01
740.601	1602.02
740.786	1565.16
740.972	1561.06
741.157	1561.06
741.342	1675.75
741.528	1538.54
741.713	1634.79
741.898	1462.76
742.084	1520.1
742.269	1489.39
742.454	1446.38
742.639	1530.34
742.824	1442.28
743.01	1429.99
743.195	1386.99
743.38	1429.99
743.565	1509.86
743.75	1477.1
743.935	1382.89
744.12	1415.66
744.305	1341.93
744.49	1442.28
744.675	1415.66
744.86	1425.9
745.045	1425.9
745.23	1425.9
745.415	1438.19
745.6	1407.47
745.785	1376.75
745.97	1446.38
746.155	1257.96
746.34	1329.64
746.525	1391.08
746.71	1274.35
746.895	1337.84
747.079	1200.62
747.264	1389.03
747.449	1354.22
747.634	1290.73
747.819	1282.54
748.003	1237.49
748.188	1245.68
748.373	1309.16
748.557	1198.57
748.742	1257.96
748.927	1251.82
749.111	1237.49
749.296	1212.91
749.481	1178.09
749.665	1274.35
749.85	1188.33
750.034	1225.2
750.219	1163.76
750.404	1151.47
750.588	1192.43
750.773	1165.81
750.957	1137.13
751.141	1176.05
751.326	1155.57
751.51	1141.23
751.695	1102.32
751.879	1092.08
752.064	1081.84
752.248	1180.14
752.432	1094.13
752.617	1184.24
752.801	1104.37
752.985	1094.13
753.17	1020.4
753.354	1092.08
753.538	1032.69
753.722	1030.64
753.907	997.87
754.091	1061.36
754.275	1090.03
754.459	1073.65
754.643	1049.07
754.828	995.82
755.012	989.68
755.196	1024.5
755.38	993.78
755.564	897.52
755.748	938.48
755.932	1042.93
756.116	932.34
756.3	887.28
756.484	1020.4
756.668	844.28
756.852	903.67
757.036	971.25
757.22	889.33
757.404	926.19
757.588	889.33
757.772	950.77
757.956	948.72
758.14	999.92
758.323	774.64
758.507	793.08
758.691	823.8
758.875	881.14
759.059	809.46
759.242	924.15
759.426	862.71
759.61	836.08
759.794	815.6
759.977	885.23
760.161	852.47
760.345	815.6
760.528	782.84
760.712	848.37
760.895	778.74
761.079	795.12
761.263	825.84
761.446	799.22
761.63	825.84
761.813	834.04
761.997	774.64
762.18	848.37
762.364	799.22
762.547	662.01
762.731	803.32
762.914	834.04
763.098	741.88
763.281	692.73
763.464	774.64
763.648	717.3
763.831	782.84
764.015	741.88
764.198	799.22
764.381	680.44
764.564	778.74
764.748	725.49
764.931	700.92
765.114	731.64
765.297	762.36
765.481	678.39
765.664	842.23
765.847	719.35
766.03	784.88
766.213	719.35
766.397	766.45
766.58	668.15
766.763	741.88
766.946	692.73
767.129	825.84
767.312	676.34
767.495	729.59
767.678	743.92
767.861	647.67
768.044	655.86
768.227	676.34
768.41	694.77
768.593	686.58
768.776	631.29
768.959	700.92
769.142	643.57
769.324	635.38
769.507	700.92
769.69	623.09
769.873	569.85
770.056	684.53
770.239	758.26
770.421	680.44
770.604	657.91
770.787	659.96
770.97	619
771.152	610.81
771.335	629.24
771.518	637.43
771.7	559.61
771.883	619
772.066	664.05
772.248	694.77
772.431	643.57
772.613	561.66
772.796	571.9
772.978	631.29
773.161	637.43
773.343	612.85
773.526	578.04
773.708	602.61
773.891	602.61
774.073	639.48
774.256	508.41
774.438	621.05
774.621	578.04
774.803	545.27
774.985	565.75
775.168	643.57
775.35	545.27
775.532	463.35
775.715	557.56
775.897	571.9
776.079	520.7
776.261	520.7
776.444	569.85
776.626	575.99
776.808	469.5
776.99	520.7
777.173	449.02
777.355	487.93
777.537	530.94
777.719	530.94
777.901	487.93
778.083	487.93
778.265	416.25
778.447	530.94
778.629	463.35
778.811	489.98
778.993	477.69
779.175	510.46
779.357	446.97
779.539	481.78
779.721	438.78
779.903	504.31
780.085	432.63
780.267	410.11
780.449	420.35
780.631	475.64
780.812	455.16
780.994	494.07
781.176	522.74
781.358	432.63
781.54	418.3
781.721	508.41
781.903	483.83
782.085	350.71
782.267	453.11
782.448	414.2
782.63	377.34
782.812	424.44
782.993	363
783.175	471.54
783.357	317.95
783.538	383.48
783.72	399.87
783.901	414.2
784.083	385.53
784.264	326.14
784.446	379.39
784.627	414.2
784.809	434.68
784.99	434.68
785.172	389.63
785.353	408.06
785.535	293.37
785.716	397.82
785.897	326.14
786.079	408.06
786.26	381.43
786.441	324.09
786.623	266.75
786.804	332.28
786.985	426.49
787.167	307.71
787.348	344.57
787.529	293.37
787.71	373.24
787.891	291.32
788.073	297.47
788.254	285.18
788.435	285.18
788.616	340.47
788.797	244.22
788.978	285.18
789.159	348.67
789.34	250.36
789.522	348.67
789.703	268.8
789.884	332.28
790.065	295.42
790.246	295.42
790.427	279.04
790.607	287.23
790.788	334.33
790.969	260.6
791.15	209.4
791.331	260.6
791.512	233.98
791.693	242.17
791.874	295.42
792.054	336.38
792.235	295.42
792.416	190.97
792.597	250.36
792.778	301.56
792.958	244.22
793.139	229.88
793.32	299.52
793.5	207.36
793.681	299.52
793.862	203.26
794.042	227.84
794.223	176.64
794.404	274.94
794.584	152.06
794.765	227.84
794.945	225.79
795.126	252.41
795.306	274.94
795.487	254.46
795.667	279.04
795.848	283.13
796.028	164.35
796.209	256.51
796.389	236.03
796.57	217.6
796.75	154.11
796.93	225.79
797.111	221.69
797.291	227.84
797.471	225.79
797.652	231.93
797.832	188.93
798.012	313.85
798.192	180.73
798.373	180.73
798.553	285.18
798.733	240.12
798.913	178.69
799.093	244.22
799.274	98.81
799.454	221.69
799.634	262.65
799.814	258.56
799.994	238.08
800.174	197.12
800.354	162.3
800.534	233.98
800.714	209.4
800.894	178.69
801.074	184.83
801.254	152.06
801.434	266.75
801.614	125.44
801.794	145.92
801.974	737.78
802.154	119.29
802.334	172.54
802.514	154.11
802.693	176.64
802.873	127.49
803.053	238.08
803.233	229.88
803.413	160.25
803.592	152.06
803.772	184.83
803.952	199.16
804.131	96.77
804.311	213.5
804.491	217.6
804.67	154.11
804.85	211.45
805.03	141.82
805.209	176.64
805.389	135.68
805.568	180.73
805.748	80.38
805.928	195.07
806.107	211.45
806.287	207.36
806.466	127.49
806.646	176.64
806.825	166.4
807.004	162.3
807.184	156.16
807.363	154.11
807.543	176.64
807.722	143.87
807.901	162.3
808.081	193.02
808.26	88.57
808.439	201.21
808.619	127.49
808.798	100.86
808.977	143.87
809.156	154.11
809.336	135.68
809.515	135.68
809.694	104.96
809.873	162.3
810.052	121.34
810.231	186.88
810.411	170.49
810.59	127.49
810.769	162.3
810.948	188.93
811.127	84.48
811.306	119.29
811.485	143.87
811.664	150.01
811.843	70.14
812.022	115.2
812.201	102.91
812.38	145.92
812.559	61.95
812.737	74.24
812.916	82.43
813.095	121.34
813.274	170.49
813.453	100.86
813.632	131.58
813.811	211.45
813.989	53.76
814.168	119.29
814.347	84.48
814.526	131.58
814.704	283.13
814.883	217.6
815.062	94.72
815.24	90.62
815.419	127.49
815.598	113.15
815.776	170.49
815.955	119.29
816.133	139.77
816.312	219.64
816.49	76.29
816.669	152.06
816.847	96.77
817.026	135.68
817.204	72.19
817.383	84.48
817.561	104.96
817.74	61.95
817.918	143.87
818.097	84.48
818.275	139.77
818.453	14.85
818.632	137.73
818.81	147.97
818.988	82.43
819.167	74.24
819.345	94.72
819.523	156.16
819.701	139.77
819.879	156.16
820.058	47.62
820.236	111.1
820.414	127.49
820.592	78.33
820.77	113.15
820.948	143.87
821.127	39.42
821.305	41.47
821.483	115.2
821.661	119.29
821.839	113.15
822.017	115.2
822.195	-7.68
822.373	117.25
822.551	43.52
822.729	113.15
822.907	88.57
823.085	123.39
823.262	115.2
823.44	4.61
823.618	104.96
823.796	113.15
823.974	82.43
824.152	102.91
824.329	131.58
824.507	61.95
824.685	33.28
824.863	37.38
825.04	94.72
825.218	16.9
825.396	94.72
825.574	94.72
825.751	92.67
825.929	127.49
826.107	-9.73
826.284	94.72
826.462	111.1
826.639	-19.97
826.817	74.24
826.994	133.63
827.172	70.14
827.349	119.29
827.527	49.66
827.704	66.05
827.882	88.57
828.059	4.61
828.237	33.28
828.414	88.57
828.591	-11.78
828.769	70.14
828.946	27.14
829.124	12.8
829.301	61.95
829.478	49.66
829.655	127.49
829.833	27.14
830.01	53.76
830.187	135.68
830.364	33.28
830.542	68.09
830.719	90.62
830.896	121.34
831.073	4.61
831.25	41.47
831.427	39.42
831.604	59.9
831.782	111.1
831.959	86.53
832.136	6.66
832.313	82.43
832.49	57.86
832.667	72.19
832.844	70.14
833.021	80.38
833.198	53.76
833.374	18.94
833.551	33.28
833.728	45.57
833.905	-17.92
834.082	16.9
834.259	12.8
834.436	94.72
834.612	152.06
834.789	84.48
834.966	100.86
835.143	29.18
835.319	33.28
835.496	127.49
835.673	82.43
835.85	111.1
836.026	47.62
836.203	135.68
836.38	20.99
836.556	51.71
836.733	107.01
836.909	70.14
837.086	2.56
837.262	-3.58
837.439	-34.3
837.616	86.53
837.792	51.71
837.968	107.01
838.145	-36.35
838.321	55.81
838.498	59.9
838.674	86.53
838.851	86.53
839.027	37.38
839.203	78.33
839.38	-3.58
839.556	14.85
839.732	160.25
839.909	90.62
840.085	102.91
840.261	104.96
840.437	72.19
840.614	64
840.79	129.53
840.966	4.61
841.142	78.33
841.318	135.68
841.494	33.28
841.671	6.66
841.847	53.76
842.023	37.38
842.199	61.95
842.375	39.42
842.551	-34.3
842.727	-17.92
842.903	59.9
843.079	57.86
843.255	61.95
843.431	55.81
843.607	115.2
843.783	-28.16
843.959	96.77
844.134	14.85
844.31	14.85
844.486	8.7
844.662	-1.54
844.838	51.71
845.013	102.91
845.189	33.28
845.365	-26.11
845.541	84.48
845.716	-11.78
845.892	53.76
846.068	-24.06
846.244	119.29
846.419	47.62
846.595	-17.92
846.77	-1.54
846.946	82.43
847.122	45.57
847.297	29.18
847.473	61.95
847.648	29.18
847.824	-40.45
847.999	-42.5
848.175	78.33
848.35	-15.87
848.526	66.05
848.701	39.42
848.876	78.33
849.052	57.86
849.227	66.05
849.403	16.9
849.578	23.04
849.753	4.61
849.929	152.06
850.104	20.99
850.279	29.18
850.454	35.33
850.63	111.1
850.805	119.29
850.98	55.81
851.155	86.53
851.33	-15.87
851.505	-7.68
851.681	102.91
851.856	2.56
852.031	12.8
852.206	39.42
852.381	72.19
852.556	29.18
852.731	51.71
852.906	29.18
853.081	-5.63
853.256	133.63
853.431	55.81
853.606	96.77
853.781	14.85
853.956	78.33
854.131	27.14
854.305	4.61
854.48	-1.54
854.655	-101.89
854.83	14.85
855.005	-7.68
855.18	10.75
855.354	-7.68
855.529	70.14
855.704	-1.54
855.879	80.38
856.053	-11.78
856.228	47.62
856.403	14.85
856.577	131.58
856.752	31.23
856.926	53.76
857.101	-26.11
857.276	39.42
857.45	23.04
857.625	47.62
857.799	6.66
857.974	-11.78
858.148	-15.87
858.323	31.23
858.497	39.42
858.672	-24.06
858.846	82.43
859.02	4.61
859.195	12.8
859.369	45.57
859.543	20.99
859.718	45.57
859.892	57.86
860.066	47.62
860.241	-36.35
860.415	41.47
860.589	53.76
860.763	82.43
860.938	-11.78
861.112	37.38
861.286	-32.26
861.46	39.42
861.634	-19.97
861.808	-1.54
861.982	61.95
862.157	92.67
862.331	-26.11
862.505	23.04
862.679	16.9
862.853	29.18
863.027	-77.31
863.201	-3.58
863.375	12.8
863.549	12.8
863.722	27.14
863.896	41.47
864.07	-34.3
864.244	16.9
864.418	-19.97
864.592	74.24
864.766	6.66
864.939	-34.3
865.113	-22.02
865.287	64
865.461	-34.3
865.634	59.9
865.808	-44.54
865.982	14.85
866.156	12.8
866.329	-13.82
866.503	-32.26
866.676	-17.92
866.85	16.9
867.024	-19.97
867.197	16.9
867.371	70.14
867.544	88.57
867.718	-11.78
867.891	-11.78
868.065	47.62
868.238	55.81
868.412	82.43
868.585	33.28
868.759	8.7
868.932	29.18
869.105	94.72
869.279	-3.58
869.452	23.04
869.625	4.61
869.799	86.53
869.972	8.7
870.145	49.66
870.319	72.19
870.492	29.18
870.665	-19.97
870.838	53.76
871.011	-32.26
871.185	-30.21
871.358	-9.73
871.531	72.19
871.704	12.8
871.877	35.33
872.05	-9.73
872.223	66.05
872.396	-28.16
872.569	64
872.742	-65.02
872.915	2.56
873.088	45.57
873.261	29.18
873.434	45.57
873.607	12.8
873.78	33.28
873.953	-11.78
874.126	61.95
874.299	14.85
874.471	70.14
874.644	20.99
874.817	29.18
874.99	94.72
875.163	61.95
875.335	0.51
875.508	-11.78
875.681	47.62
875.853	47.62
876.026	-28.16
876.199	6.66
876.371	6.66
876.544	-1.54
876.717	64
876.889	49.66
877.062	41.47
877.234	-50.69
877.407	31.23
877.579	18.94
877.752	66.05
877.924	-7.68
878.097	68.09
878.269	82.43
878.442	-28.16
878.614	80.38
878.786	0.51
878.959	49.66
879.131	76.29
879.303	29.18
879.476	-26.11
879.648	55.81
879.82	16.9
879.993	78.33
880.165	37.38
880.337	-67.07
880.509	90.62
880.681	55.81
880.854	41.47
881.026	-13.82
881.198	47.62
881.37	25.09
881.542	-36.35
881.714	37.38
881.886	10.75
882.058	12.8
882.23	29.18
882.402	-9.73
882.574	96.77
882.746	45.57
882.918	-11.78
883.09	37.38
883.262	76.29
883.434	57.86
883.606	4.61
883.778	31.23
883.95	104.96
884.122	8.7
884.293	29.18
884.465	55.81
884.637	6.66
884.809	90.62
884.98	8.7
885.152	-50.69
885.324	70.14
885.496	-24.06
885.667	23.04
885.839	51.71
886.011	45.57
886.182	-19.97
886.354	-26.11
886.525	37.38
886.697	6.66
886.869	37.38
887.04	23.04
887.212	8.7
887.383	12.8
887.555	31.23
887.726	39.42
887.897	-28.16
888.069	-7.68
888.24	94.72
888.412	29.18
888.583	49.66
888.754	-24.06
888.926	-52.74
889.097	-101.89
889.268	0.51
889.44	-11.78
889.611	4.61
889.782	29.18
889.953	-22.02
890.125	70.14
890.296	-11.78
890.467	68.09
890.638	-44.54
890.809	39.42
890.98	35.33
891.151	20.99
891.323	29.18
891.494	12.8
891.665	23.04
891.836	96.77
892.007	0.51
892.178	72.19
892.349	29.18
892.52	-17.92
892.691	55.81
892.862	-17.92
893.032	-44.54
893.203	47.62
893.374	-11.78
893.545	33.28
893.716	20.99
893.887	-36.35
894.057	-11.78
894.228	45.57
894.399	-1.54
894.57	-11.78
894.74	51.71
894.911	53.76
895.082	-13.82
895.253	8.7
895.423	-58.88
895.594	86.53
895.764	-112.13
895.935	78.33
896.106	61.95
896.276	29.18
896.447	-3.58
896.617	20.99
896.788	39.42
896.958	-75.26
897.129	14.85
897.299	-44.54
897.47	61.95
897.64	100.86
897.81	29.18
897.981	-77.31
898.151	8.7
898.322	16.9
898.492	-13.82
898.662	10.75
898.832	-7.68
899.003	20.99
899.173	-24.06
899.343	55.81
899.513	27.14
