Data from USB4F104151__296__14-46-31-833.txt Node

Date: Thu Mar 13 14:46:31 EDT 2025
User: louis
Spectrometer: USB4F10415
Trigger mode: 4
Integration Time (sec): 2.000000E-2
Scans to average: 1
Electric dark correction enabled: true
Nonlinearity correction enabled: false
Boxcar width: 0
XAxis mode: Wavelengths
Number of Pixels in Spectrum: 3648
>>>>>Begin Spectral Data<<<<<
178.204	-71.68
178.424	-71.68
178.644	-71.68
178.864	-106.49
179.084	-100.35
179.304	4.1
179.524	34.82
179.744	-63.49
179.964	30.72
180.184	-20.48
180.404	40.96
180.624	10.24
180.844	14.34
181.064	0
181.283	-55.3
181.503	-18.43
181.723	22.53
181.943	-16.38
182.163	71.68
182.383	2.05
182.602	47.1
182.822	55.3
183.042	22.53
183.262	2.05
183.482	-2.05
183.701	-63.49
183.921	-22.53
184.141	75.77
184.361	55.3
184.58	40.96
184.8	-59.39
185.02	10.24
185.239	6.14
185.459	22.53
185.679	75.77
185.898	40.96
186.118	61.44
186.338	38.91
186.557	55.3
186.777	-14.34
186.997	-32.77
187.216	-38.91
187.436	106.49
187.655	45.06
187.875	90.11
188.095	-67.58
188.314	63.49
188.534	22.53
188.753	26.62
188.973	53.25
189.192	73.73
189.412	53.25
189.631	75.77
189.851	-16.38
190.07	51.2
190.29	6.14
190.509	6.14
190.729	6.14
190.948	-2.05
191.168	147.45
191.387	65.53
191.607	73.73
191.826	22.53
192.045	77.82
192.265	71.68
192.484	79.87
192.704	26.62
192.923	-47.1
193.142	75.77
193.362	79.87
193.581	24.58
193.8	49.15
194.02	-2.05
194.239	98.3
194.458	-55.3
194.678	-2.05
194.897	16.38
195.116	73.73
195.335	30.72
195.555	16.38
195.774	-12.29
195.993	-28.67
196.212	32.77
196.432	14.34
196.651	30.72
196.87	-26.62
197.089	143.36
197.308	14.34
197.528	55.3
197.747	26.62
197.966	-2.05
198.185	110.59
198.404	30.72
198.623	16.38
198.842	51.2
199.062	12.29
199.281	75.77
199.5	14.34
199.719	63.49
199.938	8.19
200.157	114.69
200.376	124.93
200.595	40.96
200.814	51.2
201.033	2.05
201.252	88.06
201.471	6.14
201.69	6.14
201.909	34.82
202.128	14.34
202.347	10.24
202.566	49.15
202.785	2.05
203.004	-10.24
203.223	63.49
203.442	0
203.661	-34.82
203.879	30.72
204.098	96.25
204.317	59.39
204.536	38.91
204.755	51.2
204.974	63.49
205.193	26.62
205.411	67.58
205.63	-12.29
205.849	16.38
206.068	34.82
206.287	26.62
206.505	57.34
206.724	2.05
206.943	-26.62
207.162	43.01
207.381	14.34
207.599	-57.34
207.818	10.24
208.037	86.01
208.255	-26.62
208.474	-16.38
208.693	32.77
208.911	34.82
209.13	-10.24
209.349	43.01
209.567	81.92
209.786	83.97
210.005	0
210.223	-10.24
210.442	-6.14
210.661	-59.39
210.879	10.24
211.098	-22.53
211.316	14.34
211.535	71.68
211.753	16.38
211.972	40.96
212.191	24.58
212.409	22.53
212.628	26.62
212.846	28.67
213.065	-8.19
213.283	-6.14
213.502	-14.34
213.72	22.53
213.938	22.53
214.157	38.91
214.375	-18.43
214.594	14.34
214.812	92.16
215.031	34.82
215.249	-38.91
215.467	6.14
215.686	96.25
215.904	24.58
216.122	45.06
216.341	14.34
216.559	49.15
216.778	55.3
216.996	81.92
217.214	36.86
217.432	-8.19
217.651	22.53
217.869	55.3
218.087	18.43
218.306	6.14
218.524	-32.77
218.742	6.14
218.96	71.68
219.179	30.72
219.397	-43.01
219.615	88.06
219.833	69.63
220.051	55.3
220.27	43.01
220.488	30.72
220.706	79.87
220.924	-6.14
221.142	-10.24
221.36	8.19
221.578	63.49
221.796	81.92
222.015	63.49
222.233	20.48
222.451	147.45
222.669	-4.1
222.887	40.96
223.105	10.24
223.323	8.19
223.541	67.58
223.759	51.2
223.977	6.14
224.195	10.24
224.413	43.01
224.631	22.53
224.849	34.82
225.067	86.01
225.285	55.3
225.503	14.34
225.721	-49.15
225.939	14.34
226.157	51.2
226.375	49.15
226.592	2.05
226.81	-10.24
227.028	-30.72
227.246	110.59
227.464	-26.62
227.682	2.05
227.9	-8.19
228.117	2.05
228.335	55.3
228.553	-20.48
228.771	-40.96
228.989	32.77
229.206	6.14
229.424	40.96
229.642	90.11
229.86	-2.05
230.077	71.68
230.295	28.67
230.513	51.2
230.731	71.68
230.948	59.39
231.166	22.53
231.384	90.11
231.601	-28.67
231.819	90.11
232.037	73.73
232.254	-49.15
232.472	22.53
232.689	43.01
232.907	-49.15
233.125	14.34
233.342	30.72
233.56	-16.38
233.777	10.24
233.995	-24.58
234.213	88.06
234.43	-18.43
234.648	24.58
234.865	-51.2
235.083	30.72
235.3	38.91
235.518	40.96
235.735	92.16
235.953	106.49
236.17	57.34
236.388	-24.58
236.605	43.01
236.822	-10.24
237.04	10.24
237.257	79.87
237.475	14.34
237.692	55.3
237.909	16.38
238.127	16.38
238.344	16.38
238.562	26.62
238.779	-67.58
238.996	-6.14
239.214	63.49
239.431	167.93
239.648	-67.58
239.865	34.82
240.083	55.3
240.3	38.91
240.517	43.01
240.735	-26.62
240.952	88.06
241.169	63.49
241.386	28.67
241.603	-18.43
241.821	55.3
242.038	40.96
242.255	2.05
242.472	57.34
242.689	49.15
242.907	83.97
243.124	-24.58
243.341	14.34
243.558	-10.24
243.775	-49.15
243.992	-34.82
244.209	57.34
244.426	63.49
244.643	20.48
244.86	-47.1
245.078	57.34
245.295	49.15
245.512	22.53
245.729	-6.14
245.946	32.77
246.163	18.43
246.38	8.19
246.597	51.2
246.814	-43.01
247.031	38.91
247.248	71.68
247.464	6.14
247.681	2.05
247.898	43.01
248.115	30.72
248.332	-24.58
248.549	55.3
248.766	65.53
248.983	96.25
249.2	0
249.417	12.29
249.633	8.19
249.85	65.53
250.067	-2.05
250.284	30.72
250.501	38.91
250.717	57.34
250.934	-38.91
251.151	26.62
251.368	-4.1
251.585	59.39
251.801	8.19
252.018	-61.44
252.235	24.58
252.451	8.19
252.668	-16.38
252.885	45.06
253.102	22.53
253.318	59.39
253.535	30.72
253.752	49.15
253.968	-63.49
254.185	47.1
254.401	28.67
254.618	69.63
254.835	-32.77
255.051	28.67
255.268	-26.62
255.484	100.35
255.701	14.34
255.917	47.1
256.134	36.86
256.351	100.35
256.567	43.01
256.784	-2.05
257	79.87
257.217	75.77
257.433	26.62
257.65	32.77
257.866	47.1
258.082	-59.39
258.299	24.58
258.515	-10.24
258.732	51.2
258.948	-67.58
259.165	96.25
259.381	-43.01
259.597	38.91
259.814	34.82
260.03	20.48
260.246	26.62
260.463	34.82
260.679	32.77
260.895	47.1
261.112	106.49
261.328	14.34
261.544	71.68
261.761	116.73
261.977	49.15
262.193	-20.48
262.409	40.96
262.626	-14.34
262.842	22.53
263.058	49.15
263.274	32.77
263.49	-43.01
263.707	59.39
263.923	30.72
264.139	-32.77
264.355	79.87
264.571	67.58
264.787	-43.01
265.004	18.43
265.22	-12.29
265.436	38.91
265.652	22.53
265.868	26.62
266.084	34.82
266.3	32.77
266.516	81.92
266.732	38.91
266.948	32.77
267.164	104.45
267.38	4.1
267.596	51.2
267.812	71.68
268.028	-26.62
268.244	-32.77
268.46	90.11
268.676	-12.29
268.892	153.6
269.108	34.82
269.324	2.05
269.54	-10.24
269.756	96.25
269.972	-55.3
270.188	36.86
270.403	-18.43
270.619	71.68
270.835	-49.15
271.051	53.25
271.267	30.72
271.483	6.14
271.698	45.06
271.914	14.34
272.13	75.77
272.346	6.14
272.562	38.91
272.777	120.83
272.993	10.24
273.209	6.14
273.425	28.67
273.64	51.2
273.856	88.06
274.072	32.77
274.287	-18.43
274.503	63.49
274.719	43.01
274.934	-36.86
275.15	-32.77
275.366	69.63
275.581	-10.24
275.797	120.83
276.012	55.3
276.228	2.05
276.444	-20.48
276.659	26.62
276.875	-8.19
277.09	6.14
277.306	-10.24
277.521	-2.05
277.737	30.72
277.952	16.38
278.168	63.49
278.383	36.86
278.599	-2.05
278.814	14.34
279.03	-43.01
279.245	88.06
279.461	22.53
279.676	22.53
279.892	32.77
280.107	24.58
280.322	79.87
280.538	34.82
280.753	28.67
280.969	67.58
281.184	-71.68
281.399	122.88
281.615	88.06
281.83	49.15
282.045	40.96
282.26	40.96
282.476	-49.15
282.691	22.53
282.906	32.77
283.122	65.53
283.337	61.44
283.552	65.53
283.767	43.01
283.983	120.83
284.198	-22.53
284.413	100.35
284.628	-10.24
284.843	43.01
285.058	32.77
285.274	49.15
285.489	49.15
285.704	63.49
285.919	-43.01
286.134	16.38
286.349	47.1
286.564	10.24
286.779	81.92
286.995	67.58
287.21	-6.14
287.425	75.77
287.64	2.05
287.855	88.06
288.07	-65.54
288.285	38.91
288.5	-30.72
288.715	-6.14
288.93	30.72
289.145	-14.34
289.36	120.83
289.575	65.53
289.79	-14.34
290.004	47.1
290.219	38.91
290.434	47.1
290.649	-59.39
290.864	-14.34
291.079	-14.34
291.294	36.86
291.509	-8.19
291.724	34.82
291.938	-4.1
292.153	30.72
292.368	-4.1
292.583	73.73
292.798	55.3
293.012	-2.05
293.227	-22.53
293.442	108.54
293.657	-32.77
293.871	88.06
294.086	24.58
294.301	63.49
294.516	22.53
294.73	55.3
294.945	-59.39
295.16	61.44
295.374	90.11
295.589	92.16
295.804	47.1
296.018	71.68
296.233	81.92
296.447	51.2
296.662	34.82
296.877	90.11
297.091	10.24
297.306	-6.14
297.52	-22.53
297.735	79.87
297.949	-2.05
298.164	67.58
298.378	47.1
298.593	-2.05
298.807	14.34
299.022	6.14
299.236	71.68
299.451	-4.1
299.665	-51.2
299.88	-16.38
300.094	38.91
300.309	22.53
300.523	-10.24
300.737	96.25
300.952	14.34
301.166	49.15
301.381	14.34
301.595	-2.05
301.809	0
302.024	55.3
302.238	30.72
302.452	63.49
302.667	16.38
302.881	10.24
303.095	71.68
303.309	155.65
303.524	-24.58
303.738	-2.05
303.952	-26.62
304.166	8.19
304.381	-22.53
304.595	-40.96
304.809	16.38
305.023	30.72
305.237	57.34
305.452	-4.1
305.666	-22.53
305.88	16.38
306.094	-26.62
306.308	14.34
306.522	10.24
306.736	22.53
306.95	51.2
307.164	22.53
307.379	83.97
307.593	63.49
307.807	73.73
308.021	51.2
308.235	55.3
308.449	6.14
308.663	-40.96
308.877	55.3
309.091	16.38
309.305	49.15
309.519	12.29
309.733	55.3
309.947	12.29
310.161	63.49
310.374	38.91
310.588	92.16
310.802	20.48
311.016	30.72
311.23	6.14
311.444	-18.43
311.658	2.05
311.872	-6.14
312.085	55.3
312.299	-8.19
312.513	12.29
312.727	-51.2
312.941	51.2
313.154	88.06
313.368	131.07
313.582	90.11
313.796	20.48
314.009	0
314.223	49.15
314.437	40.96
314.651	14.34
314.864	47.1
315.078	-43.01
315.292	18.43
315.505	-26.62
315.719	59.39
315.933	75.77
316.146	-24.58
316.36	57.34
316.573	47.1
316.787	55.3
317.001	6.14
317.214	34.82
317.428	100.35
317.641	-22.53
317.855	43.01
318.068	90.11
318.282	-30.72
318.495	137.21
318.709	47.1
318.922	59.39
319.136	30.72
319.349	104.45
319.563	47.1
319.776	10.24
319.99	-38.91
320.203	28.67
320.417	88.06
320.63	94.21
320.843	96.25
321.057	18.43
321.27	57.34
321.483	83.97
321.697	98.3
321.91	-10.24
322.124	116.73
322.337	6.14
322.55	55.3
322.763	-30.72
322.977	22.53
323.19	-10.24
323.403	75.77
323.617	-34.82
323.83	22.53
324.043	18.43
324.256	6.14
324.469	16.38
324.683	55.3
324.896	22.53
325.109	16.38
325.322	-2.05
325.535	38.91
325.748	22.53
325.962	-12.29
326.175	59.39
326.388	18.43
326.601	4.1
326.814	-14.34
327.027	47.1
327.24	67.58
327.453	-2.05
327.666	-90.11
327.879	38.91
328.092	55.3
328.305	32.77
328.518	0
328.731	-26.62
328.944	90.11
329.157	57.34
329.37	6.14
329.583	51.2
329.796	114.69
330.009	8.19
330.222	-24.58
330.435	28.67
330.648	49.15
330.861	-49.15
331.073	-24.58
331.286	51.2
331.499	-18.43
331.712	-47.1
331.925	63.49
332.138	2.05
332.35	0
332.563	18.43
332.776	88.06
332.989	32.77
333.202	55.3
333.414	55.3
333.627	92.16
333.84	-16.38
334.053	88.06
334.265	32.77
334.478	28.67
334.691	51.2
334.903	88.06
335.116	59.39
335.329	-16.38
335.541	71.68
335.754	112.64
335.966	6.14
336.179	38.91
336.392	63.49
336.604	59.39
336.817	-55.3
337.029	14.34
337.242	40.96
337.454	161.79
337.667	59.39
337.88	26.62
338.092	-57.34
338.305	-2.05
338.517	-22.53
338.729	47.1
338.942	73.73
339.154	-32.77
339.367	16.38
339.579	18.43
339.792	45.06
340.004	118.78
340.217	10.24
340.429	2.05
340.641	75.77
340.854	-4.1
341.066	71.68
341.278	65.53
341.491	61.44
341.703	6.14
341.915	12.29
342.128	98.3
342.34	-16.38
342.552	26.62
342.764	24.58
342.977	102.4
343.189	-59.39
343.401	-32.77
343.613	-6.14
343.826	-8.19
344.038	63.49
344.25	-20.48
344.462	36.86
344.674	-63.49
344.886	65.53
345.099	81.92
345.311	55.3
345.523	10.24
345.735	-32.77
345.947	98.3
346.159	6.14
346.371	16.38
346.583	79.87
346.795	161.79
347.007	-14.34
347.219	-34.82
347.431	-10.24
347.643	55.3
347.855	108.54
348.067	81.92
348.279	-28.67
348.491	22.53
348.703	61.44
348.915	12.29
349.127	2.05
349.339	32.77
349.551	4.1
349.763	40.96
349.975	16.38
350.187	126.97
350.399	88.06
350.61	20.48
350.822	-51.2
351.034	-26.62
351.246	-14.34
351.458	63.49
351.669	18.43
351.881	40.96
352.093	47.1
352.305	32.77
352.517	4.1
352.728	126.97
352.94	45.06
353.152	67.58
353.363	26.62
353.575	24.58
353.787	40.96
353.999	98.3
354.21	112.64
354.422	30.72
354.633	90.11
354.845	22.53
355.057	55.3
355.268	-16.38
355.48	71.68
355.692	-43.01
355.903	92.16
356.115	0
356.326	-18.43
356.538	81.92
356.749	30.72
356.961	-4.1
357.172	-63.49
357.384	28.67
357.595	43.01
357.807	22.53
358.018	51.2
358.23	69.63
358.441	67.58
358.653	12.29
358.864	-24.58
359.075	18.43
359.287	24.58
359.498	57.34
359.709	49.15
359.921	55.3
360.132	32.77
360.344	14.34
360.555	-4.1
360.766	45.06
360.977	8.19
361.189	-14.34
361.4	-2.05
361.611	55.3
361.823	90.11
362.034	-22.53
362.245	-43.01
362.456	47.1
362.667	8.19
362.879	-45.06
363.09	63.49
363.301	24.58
363.512	102.4
363.723	-14.34
363.935	45.06
364.146	55.3
364.357	-6.14
364.568	4.1
364.779	2.05
364.99	-10.24
365.201	88.06
365.412	14.34
365.623	57.34
365.834	-43.01
366.045	47.1
366.256	73.73
366.467	-28.67
366.678	-47.1
366.889	-57.34
367.1	38.91
367.311	71.68
367.522	-73.73
367.733	98.3
367.944	112.64
368.155	2.05
368.366	57.34
368.577	96.25
368.788	57.34
368.999	-4.1
369.209	22.53
369.42	24.58
369.631	88.06
369.842	-53.25
370.053	-2.05
370.264	79.87
370.474	-2.05
370.685	-6.14
370.896	65.53
371.107	79.87
371.317	-49.15
371.528	18.43
371.739	65.53
371.95	12.29
372.16	55.3
372.371	18.43
372.582	-10.24
372.792	90.11
373.003	14.34
373.214	20.48
373.424	114.69
373.635	49.15
373.846	38.91
374.056	59.39
374.267	71.68
374.477	-10.24
374.688	129.02
374.898	67.58
375.109	24.58
375.319	38.91
375.53	63.49
375.74	-10.24
375.951	18.43
376.161	10.24
376.372	65.53
376.582	-32.77
376.793	-18.43
377.003	79.87
377.214	26.62
377.424	47.1
377.635	20.48
377.845	16.38
378.055	14.34
378.266	24.58
378.476	75.77
378.686	-22.53
378.897	77.82
379.107	47.1
379.317	71.68
379.528	49.15
379.738	51.2
379.948	-65.54
380.158	63.49
380.369	49.15
380.579	22.53
380.789	26.62
380.999	96.25
381.21	24.58
381.42	129.02
381.63	-24.58
381.84	34.82
382.05	36.86
382.261	65.53
382.471	69.63
382.681	79.87
382.891	73.73
383.101	-16.38
383.311	40.96
383.521	-14.34
383.731	26.62
383.941	75.77
384.151	55.3
384.361	63.49
384.571	10.24
384.781	36.86
384.991	86.01
385.201	0
385.411	10.24
385.621	90.11
385.831	-6.14
386.041	-18.43
386.251	12.29
386.461	47.1
386.671	20.48
386.881	67.58
387.091	-10.24
387.301	114.69
387.511	49.15
387.72	-10.24
387.93	40.96
388.14	88.06
388.35	83.97
388.56	45.06
388.769	12.29
388.979	26.62
389.189	-34.82
389.399	114.69
389.609	-8.19
389.818	96.25
390.028	63.49
390.238	22.53
390.447	67.58
390.657	16.38
390.867	47.1
391.076	63.49
391.286	67.58
391.496	40.96
391.705	47.1
391.915	57.34
392.125	55.3
392.334	71.68
392.544	55.3
392.753	38.91
392.963	30.72
393.172	-30.72
393.382	55.3
393.591	71.68
393.801	24.58
394.01	96.25
394.22	141.31
394.429	73.73
394.639	-61.44
394.848	14.34
395.058	86.01
395.267	30.72
395.477	8.19
395.686	79.87
395.895	110.59
396.105	153.6
396.314	73.73
396.524	129.02
396.733	92.16
396.942	38.91
397.152	81.92
397.361	57.34
397.57	65.53
397.78	63.49
397.989	-22.53
398.198	96.25
398.407	-43.01
398.617	49.15
398.826	32.77
399.035	55.3
399.244	92.16
399.453	14.34
399.663	55.3
399.872	104.45
400.081	55.3
400.29	88.06
400.499	38.91
400.708	69.63
400.917	4.1
401.127	24.58
401.336	38.91
401.545	51.2
401.754	67.58
401.963	-2.05
402.172	22.53
402.381	-10.24
402.59	55.3
402.799	38.91
403.008	96.25
403.217	63.49
403.426	96.25
403.635	92.16
403.844	71.68
404.053	86.01
404.262	-8.19
404.471	155.65
404.68	129.02
404.888	12.29
405.097	14.34
405.306	114.69
405.515	81.92
405.724	129.02
405.933	32.77
406.142	145.41
406.35	141.31
406.559	163.84
406.768	53.25
406.977	137.21
407.185	120.83
407.394	90.11
407.603	116.73
407.812	104.45
408.02	163.84
408.229	139.26
408.438	57.34
408.646	116.73
408.855	96.25
409.064	129.02
409.272	106.49
409.481	135.17
409.69	137.21
409.898	71.68
410.107	192.51
410.315	178.17
410.524	182.27
410.733	196.61
410.941	161.79
411.15	225.28
411.358	147.45
411.567	231.42
411.775	280.57
411.984	260.09
412.192	210.94
412.401	176.13
412.609	264.19
412.818	325.63
413.026	225.28
413.234	266.24
413.443	360.44
413.651	241.66
413.86	268.28
414.068	317.44
414.276	294.91
414.485	262.14
414.693	370.68
414.901	391.16
415.11	407.55
415.318	301.05
415.526	440.31
415.734	438.27
415.943	450.55
416.151	333.82
416.359	454.65
416.567	514.04
416.776	473.08
416.984	563.19
417.192	475.13
417.4	497.66
417.608	468.98
417.817	522.23
418.025	507.9
418.233	638.97
418.441	636.92
418.649	673.78
418.857	675.83
419.065	661.49
419.273	595.96
419.481	694.26
419.689	716.79
419.897	811
420.105	733.17
420.313	751.6
420.521	901.11
420.729	811
420.937	874.48
421.145	874.48
421.353	950.26
421.561	1030.13
421.769	1007.6
421.977	1015.79
422.185	997.36
422.393	1169.39
422.601	1161.2
422.809	1193.97
423.017	1193.97
423.224	1210.35
423.432	1263.6
423.64	1224.69
423.848	1423.34
424.056	1390.57
424.263	1454.06
424.471	1382.38
424.679	1529.83
424.887	1523.69
425.094	1578.98
425.302	1722.34
425.51	1677.29
425.718	1820.64
425.925	1806.31
426.133	1808.36
426.341	1812.45
426.548	2004.96
426.756	1845.22
426.964	1882.08
427.171	2086.88
427.379	2002.91
427.586	2119.65
427.794	2211.81
428.001	2260.96
428.209	2432.99
428.417	2557.91
428.624	2672.6
428.832	2594.78
429.039	2574.3
429.247	2496.47
429.454	2891.73
429.662	3127.25
429.869	2768.85
430.076	2959.31
430.284	2996.18
430.491	3078.1
430.699	3258.32
430.906	3282.89
431.114	3282.89
431.321	3491.79
431.528	3520.46
431.736	3624.9
431.943	3674.06
432.15	3815.37
432.358	3776.45
432.565	4024.26
432.772	3913.67
432.979	4155.33
433.187	4118.47
433.394	4270.01
433.601	4466.62
433.808	4548.54
434.016	4390.85
434.223	4675.51
434.43	4999.09
434.637	4732.86
434.844	5210.03
435.052	5283.76
435.259	5388.21
435.466	5367.73
435.673	5392.3
435.88	5529.52
436.087	5896.1
436.294	5961.64
436.501	5732.26
436.708	5918.63
436.915	6084.52
437.122	6346.66
437.329	6356.89
437.537	6637.47
437.743	6641.56
437.95	6565.79
438.157	6872.98
438.364	7214.99
438.571	7010.2
438.778	7151.51
438.985	7935.88
439.192	7466.89
439.399	7671.69
439.606	7673.74
439.813	8036.23
440.02	8677.24
440.227	8419.2
440.433	8238.98
440.64	8486.78
440.847	8513.41
441.054	8517.5
441.261	9226.1
441.467	9140.08
441.674	9318.26
441.881	9664.36
442.088	9566.06
442.294	9475.95
442.501	9777
442.708	9938.79
442.914	10256.23
443.121	10862.43
443.328	10487.65
443.534	11310.93
443.741	10895.19
443.948	10852.19
444.154	11409.23
444.361	11450.19
444.568	11550.54
444.774	11599.69
444.981	11751.24
445.187	12287.81
445.394	12658.49
445.6	12265.28
445.807	13532.98
446.013	13037.37
446.22	13160.25
446.426	13752.11
446.633	13711.15
446.839	14591.78
447.046	13655.86
447.252	14645.02
447.459	14546.72
447.665	14520.1
447.871	14937.88
448.078	15730.45
448.284	14995.23
448.491	15626
448.697	16152.33
448.903	16264.97
449.11	16342.79
449.316	15988.49
449.522	16410.37
449.728	16795.39
449.935	16899.84
450.141	16858.88
450.347	17469.17
450.553	16834.3
450.76	17145.59
450.966	17643.25
451.172	17305.34
451.378	18007.79
451.584	17819.38
451.791	18042.6
451.997	18052.84
452.203	18454.25
452.409	18185.96
452.615	18349.8
452.821	17567.48
453.027	17456.89
453.233	18323.18
453.44	18013.93
453.646	17993.45
453.852	18142.96
454.058	18403.05
454.264	17723.12
454.47	18120.43
454.676	17604.34
454.882	18480.87
455.088	16764.67
455.294	17022.72
455.5	17149.69
455.705	17247.99
455.911	16574.21
456.117	16471.81
456.323	16475.91
456.529	15578.9
456.735	16176.91
456.941	15767.31
457.147	15755.02
457.352	15058.71
457.558	14888.73
457.764	15071
457.97	14743.33
458.176	14403.36
458.381	14104.36
458.587	13438.77
458.793	13379.38
458.999	13014.84
459.204	14026.54
459.41	13600.56
459.616	12511.04
459.821	12539.71
460.027	12664.64
460.233	12552
460.438	11845.45
460.644	12056.39
460.85	11454.29
461.055	11163.48
461.261	11177.81
461.466	10360.67
461.672	9992.04
461.878	10731.36
462.083	10143.59
462.289	10049.38
462.494	9746.28
462.7	9428.85
462.905	9084.79
463.111	9326.45
463.316	9512.81
463.522	9322.35
463.727	9215.86
463.932	9293.68
464.138	9090.93
464.343	9090.93
464.549	8970.1
464.754	9021.3
464.959	9015.16
465.165	8927.1
465.37	8853.37
465.575	8406.91
465.781	8583.04
465.986	8722.3
466.191	8591.23
466.397	8304.51
466.602	7913.35
466.807	8163.2
467.012	7870.34
467.218	8226.69
467.423	8138.63
467.628	8021.89
467.833	8415.1
468.038	7882.63
468.244	7866.25
468.449	8238.98
468.654	7798.66
468.859	7964.55
469.064	7853.96
469.269	7430.03
469.474	7569.29
469.679	7724.94
469.885	7403.41
470.09	7544.72
470.295	7636.88
470.5	7137.17
470.705	7511.95
470.91	7460.75
471.115	7321.49
471.32	7194.51
471.525	7301.01
471.73	7083.92
471.935	7028.63
472.139	6608.8
472.344	6823.83
472.549	6778.78
472.754	6690.71
472.959	6735.77
473.164	6391.71
473.369	6397.85
473.574	6731.67
473.778	6578.08
473.983	6520.73
474.188	6375.33
474.393	6264.74
474.598	6223.78
474.802	6270.88
475.007	6201.25
475.212	6256.54
475.417	5916.58
475.621	6021.03
475.826	5863.33
476.031	5818.28
476.235	5820.33
476.44	5945.25
476.645	5691.31
476.849	5775.27
477.054	5586.86
477.259	5484.46
477.463	5570.47
477.668	5486.51
477.872	5715.88
478.077	5265.33
478.282	5283.76
478.486	5220.27
478.691	5347.25
478.895	5117.87
479.1	5136.31
479.304	5226.42
479.509	5060.53
479.713	5050.29
479.918	5101.49
480.122	4863.93
480.326	5136.31
480.531	5068.72
480.735	4827.06
480.94	4771.77
481.144	5105.59
481.348	4859.83
481.553	4966.32
481.757	4765.62
481.961	4732.86
482.166	4769.72
482.37	4892.6
482.574	4644.79
482.778	4769.72
482.983	4872.12
483.187	4698.04
483.391	4726.71
483.595	4683.7
483.8	4642.75
484.004	4849.59
484.208	4659.13
484.412	4687.8
484.616	4868.02
484.821	4724.66
485.025	4691.9
485.229	4675.51
485.433	4806.58
485.637	4710.33
485.841	4853.69
486.045	4728.76
486.249	4759.48
486.453	4763.58
486.657	4724.66
486.861	4732.86
487.065	4765.62
487.269	4685.75
487.473	4569.02
487.677	4736.95
487.881	4790.2
488.085	4667.32
488.289	4954.04
488.493	4609.98
488.697	4652.98
488.901	4642.75
489.105	4808.63
489.309	4759.48
489.512	4818.87
489.716	4806.58
489.92	4849.59
490.124	4782.01
490.328	4958.13
490.531	4951.99
490.735	4917.17
490.939	4962.23
491.143	4904.89
491.346	4865.97
491.55	4896.69
491.754	4933.56
491.958	5029.81
492.161	5171.12
492.365	4851.64
492.569	4908.98
492.772	5011.38
492.976	5164.98
493.18	5121.97
493.383	5054.39
493.587	5130.16
493.79	5158.83
493.994	5064.63
494.197	5281.71
494.401	5326.77
494.605	5203.89
494.808	5312.43
495.012	5314.48
495.215	5363.63
495.419	5250.99
495.622	5402.54
495.825	5529.52
496.029	5406.64
496.232	5644.2
496.436	5576.62
496.639	5707.69
496.843	5658.54
497.046	5912.49
497.249	5875.62
497.453	5871.53
497.656	5865.38
497.859	6031.27
498.063	6045.6
498.266	6143.91
498.469	6143.91
498.673	6135.71
498.876	6184.87
499.079	6391.71
499.282	6340.51
499.485	6502.3
499.689	6461.34
499.892	6555.55
500.095	6647.71
500.298	6739.87
500.501	6760.34
500.705	6848.41
500.908	7034.77
501.111	7016.34
501.314	7042.96
501.517	7180.18
501.72	7276.43
501.923	7219.09
502.126	7450.51
502.329	7530.38
502.532	7321.49
502.735	7538.57
502.938	7702.41
503.141	7862.15
503.344	7864.2
503.547	7729.03
503.75	8175.49
503.953	8187.78
504.156	8214.4
504.359	8206.21
504.562	8316.8
504.765	8558.46
504.968	8644.48
505.17	8664.96
505.373	8679.29
505.576	8929.14
505.779	8851.32
505.982	8886.14
506.185	9129.84
506.387	9213.81
506.59	9455.47
506.793	9541.49
506.996	9482.1
507.198	9709.42
507.401	9635.69
507.604	9760.62
507.807	9963.37
508.009	10307.43
508.212	10028.9
508.415	10221.41
508.617	10506.08
508.82	10309.47
509.022	10567.52
509.225	10743.64
509.428	11122.52
509.63	10934.11
509.833	11059.03
510.035	11171.67
510.238	11179.86
510.44	11372.37
510.643	11435.86
510.845	11644.75
511.048	11597.65
511.25	11753.29
511.453	11728.72
511.655	12238.66
511.858	12015.43
512.06	12142.41
512.262	12552
512.465	12373.83
512.667	12740.41
512.87	12894.01
513.072	12803.9
513.274	13051.7
513.477	13158.2
513.679	13434.67
513.881	13307.7
514.084	13727.53
514.286	13858.6
514.488	13762.35
514.69	14237.48
514.893	14260.01
515.095	14057.26
515.297	14362.4
515.499	14415.65
515.701	15019.8
515.904	14739.23
516.106	14927.64
516.308	15327
516.51	15320.85
516.712	15099.67
516.914	15394.58
517.116	15730.45
517.318	15974.16
517.52	16060.17
517.722	15996.68
517.925	16017.16
518.127	16322.31
518.329	16824.06
518.531	16563.97
518.733	16779.01
518.935	17231.61
519.136	17143.55
519.338	17454.84
519.54	17420.02
519.742	17512.18
519.944	17825.52
520.146	18149.1
520.348	18075.37
520.55	18376.42
520.752	18331.37
520.954	18673.38
521.155	18659.04
521.357	18753.25
521.559	19259.1
521.761	19334.87
521.963	19228.38
522.164	19549.91
522.366	19502.81
522.568	19738.32
522.77	19789.52
522.971	20307.66
523.173	20086.48
523.375	20496.07
523.576	20293.32
523.778	20483.78
523.98	20862.66
524.181	20836.03
524.383	21014.21
524.584	21264.06
524.786	21110.46
524.988	21198.52
525.189	21556.92
525.391	21632.69
525.592	21683.89
525.794	21788.34
525.995	21964.46
526.197	22189.74
526.398	22132.4
526.6	22404.78
526.801	22402.73
527.003	22400.68
527.204	22574.76
527.406	22789.8
527.607	22617.77
527.808	23084.7
528.01	22613.67
528.211	22787.75
528.412	23031.46
528.614	23316.12
528.815	23461.53
529.016	23574.17
529.218	23021.22
529.419	23234.21
529.62	23748.25
529.822	23516.83
530.023	23832.21
530.224	23469.72
530.425	23654.04
530.626	23615.13
530.828	23758.49
531.029	24094.35
531.23	23918.23
531.431	23692.95
531.632	24204.94
531.833	24149.65
532.035	24274.57
532.236	24176.27
532.437	24346.25
532.638	24364.68
532.839	24575.62
533.04	24129.17
533.241	24014.48
533.442	24612.49
533.643	24340.11
533.844	24352.4
534.045	24436.36
534.246	24336.01
534.447	24632.97
534.648	24354.44
534.849	24477.32
535.05	24495.75
535.251	24776.33
535.451	24643.21
535.652	24659.59
535.853	24446.6
536.054	24522.38
536.255	24680.07
536.456	24807.05
536.657	24821.38
536.857	24718.98
537.058	24338.06
537.259	24802.95
537.46	24630.92
537.66	24778.37
537.861	24776.33
538.062	24567.43
538.263	24692.36
538.463	24723.08
538.664	24864.39
538.865	24622.73
539.065	24798.85
539.266	24712.84
539.466	24888.96
539.667	24381.07
539.868	24839.81
540.068	24254.09
540.269	24430.22
540.469	24936.07
540.67	24759.94
540.87	24546.95
541.071	24587.91
541.271	24819.33
541.472	24845.96
541.672	24837.76
541.873	24483.47
542.073	24438.41
542.274	24827.53
542.474	24583.82
542.675	24465.03
542.875	24632.97
543.075	24596.1
543.276	24397.45
543.476	24962.69
543.676	24385.16
543.877	24974.98
544.077	24592.01
544.277	24819.33
544.478	24583.82
544.678	24899.2
544.878	24669.83
545.078	24395.4
545.279	24368.78
545.479	24491.66
545.679	24542.86
545.879	24598.15
546.079	24663.69
546.28	24268.43
546.48	24499.85
546.68	24579.72
546.88	24534.67
547.08	24630.92
547.28	24516.23
547.48	24252.05
547.68	24739.46
547.88	24419.98
548.081	24448.65
548.281	24571.53
548.481	24360.59
548.681	24508.04
548.881	24393.36
549.081	24376.97
549.28	24653.45
549.48	24749.7
549.68	24571.53
549.88	24940.16
550.08	24528.52
550.28	24680.07
550.48	24456.84
550.68	24649.35
550.88	24465.03
551.08	24407.69
551.279	24579.72
551.479	24430.22
551.679	24759.94
551.879	24188.56
552.079	24686.22
552.278	24563.34
552.478	24460.94
552.678	24565.39
552.878	24303.25
553.077	24286.86
553.277	24350.35
553.477	24602.25
553.676	24225.42
553.876	24245.9
554.076	24235.66
554.275	24104.59
554.475	24135.31
554.674	24323.72
554.874	24180.37
555.074	24032.91
555.273	24182.42
555.473	24004.24
555.672	24186.51
555.872	24288.91
556.071	24133.26
556.271	24061.58
556.47	23758.49
556.67	23963.28
556.869	24118.93
557.068	24094.35
557.268	23828.12
557.467	23881.36
557.667	24020.63
557.866	23819.92
558.065	23748.25
558.265	23701.14
558.464	23819.92
558.663	23826.07
558.863	23817.88
559.062	23703.19
559.261	23395.99
559.461	24049.3
559.66	23391.9
559.859	23455.39
560.058	23475.87
560.258	23451.29
560.457	23529.11
560.656	23576.22
560.855	22912.67
561.054	23539.35
561.253	23301.79
561.453	23056.03
561.652	23467.67
561.851	23254.69
562.05	22904.48
562.249	22693.54
562.448	23250.59
562.647	22775.46
562.846	23062.18
563.045	23078.56
563.244	22871.72
563.443	23207.58
563.642	22478.51
563.841	22740.65
564.04	22808.23
564.239	22496.94
564.438	22472.36
564.637	22720.17
564.836	22558.38
565.035	22374.06
565.234	22306.48
565.432	22265.52
565.631	22212.27
565.83	22277.8
566.029	21960.37
566.228	21989.04
566.427	21763.76
566.625	21661.37
566.824	21610.17
567.023	21970.61
567.222	21540.54
567.42	21460.66
567.619	21509.82
567.818	21644.98
568.016	21444.28
568.215	21374.65
568.414	21276.35
568.612	21587.64
568.811	21135.04
569.01	21153.47
569.208	21042.88
569.407	21243.58
569.605	20989.63
569.804	21233.34
570.002	21106.37
570.201	21118.65
570.4	20373.19
570.598	20707.01
570.797	20338.38
570.995	20717.25
571.193	20442.82
571.392	20616.9
571.59	20311.75
571.789	20635.33
571.987	20285.13
572.186	20195.02
572.384	20293.32
572.582	20219.6
572.781	19945.17
572.979	19803.86
573.177	19683.03
573.376	20123.34
573.574	19785.43
573.772	19812.05
573.971	19734.23
574.169	19556.05
574.367	19392.22
574.565	19408.6
574.763	19574.49
574.962	19371.74
575.16	19089.12
575.358	19314.39
575.556	19076.83
575.754	19273.43
575.952	18953.95
576.151	19136.22
576.349	18953.95
576.547	18847.46
576.745	18818.78
576.943	19121.88
577.141	18583.27
577.339	18700
577.537	18478.82
577.735	18419.43
577.933	18364.14
578.131	18589.41
578.329	18282.22
578.527	18286.31
578.725	18271.98
578.923	18439.91
579.121	18224.87
579.319	18114.28
579.516	17919.73
579.714	18165.48
579.912	17823.47
580.11	17940.21
580.308	17905.39
580.506	18145
580.704	17420.02
580.901	17686.26
581.099	17696.5
581.297	17342.2
581.495	17827.57
581.692	17356.54
581.89	17643.25
582.088	17602.29
582.285	17329.91
582.483	17291
582.681	17215.23
582.878	17153.79
583.076	17309.43
583.274	17286.9
583.471	16647.94
583.669	17067.77
583.866	16883.45
584.064	17213.18
584.262	16899.84
584.459	16893.69
584.657	16678.66
584.854	16772.86
585.052	16422.66
585.249	16740.1
585.447	16557.83
585.644	16508.68
585.841	16623.36
586.039	16617.22
586.236	16267.02
586.434	16400.13
586.631	16305.93
586.828	16416.52
587.026	16209.67
587.223	16320.26
587.42	16031.5
587.618	16066.31
587.815	15886.09
588.012	15877.9
588.21	15652.63
588.407	16029.45
588.604	15736.59
588.801	15621.91
588.999	16029.45
589.196	15542.03
589.393	15648.53
589.59	15613.71
589.787	15306.52
589.984	15421.2
590.182	15376.15
590.379	15570.71
590.576	15308.57
590.773	15251.22
590.97	15228.7
591.167	15349.53
591.364	15286.04
591.561	15111.96
591.758	14868.25
591.955	15046.43
592.152	15081.24
592.349	14671.65
592.546	14776.09
592.743	14909.21
592.94	14599.97
593.137	14712.61
593.334	14954.27
593.531	14556.96
593.727	14714.66
593.924	14348.07
594.121	14376.74
594.318	14403.36
594.515	14309.16
594.712	14362.4
594.908	14188.33
595.105	14147.37
595.302	14165.8
595.499	14176.04
595.696	14217
595.892	13893.42
596.089	14057.26
596.286	14096.17
596.482	13991.72
596.679	14130.98
596.876	14042.92
597.072	13741.87
597.269	13834.03
597.466	13731.63
597.662	13508.4
597.859	13729.58
598.055	13717.29
598.252	13358.9
598.448	13375.28
598.645	13614.9
598.841	13352.76
599.038	13473.59
599.234	13489.97
599.431	13457.2
599.627	13315.89
599.824	13332.28
600.02	13182.77
600.217	13127.48
600.413	12789.56
600.609	13051.7
600.806	13096.76
601.002	12965.69
601.198	12826.43
601.395	12928.83
601.591	12875.58
601.787	12699.45
601.984	12732.22
602.18	12787.52
602.376	12748.61
602.572	12730.17
602.769	12699.45
602.965	12515.14
603.161	12431.17
603.357	12635.97
603.553	12525.38
603.75	12535.62
603.946	12134.21
604.142	12232.52
604.338	12099.4
604.534	12154.69
604.73	12117.83
604.926	12140.36
605.122	12392.26
605.318	12185.41
605.514	12146.5
605.71	12066.63
605.906	11947.85
606.102	12044.1
606.298	11958.09
606.494	11906.89
606.69	11927.37
606.886	11876.17
607.082	11736.91
607.278	11706.19
607.474	11528.02
607.67	11751.24
607.866	11611.98
608.062	11736.91
608.257	11771.72
608.453	11736.91
608.649	11845.45
608.845	11515.73
609.041	11204.44
609.236	11581.26
609.432	11417.43
609.628	11296.6
609.824	11439.95
610.019	11239.25
610.215	11427.67
610.411	11413.33
610.606	11177.81
610.802	11278.16
610.998	11048.79
611.193	11198.29
611.389	11220.82
611.584	11255.64
611.78	11028.31
611.976	11159.38
612.171	11249.49
612.367	11091.8
612.562	11149.14
612.758	10862.43
612.953	10843.99
613.149	10901.34
613.344	10721.12
613.539	11081.56
613.735	10626.91
613.93	10938.2
614.126	10778.46
614.321	10903.39
614.517	10704.73
614.712	10678.11
614.907	10725.21
615.103	10692.44
615.298	10450.78
615.493	10676.06
615.688	10575.71
615.884	10708.83
616.079	10657.63
616.274	10575.71
616.47	10557.28
616.665	10493.79
616.86	10458.98
617.055	10532.7
617.25	10358.63
617.445	10579.81
617.641	10131.3
617.836	10264.42
618.031	10309.47
618.226	10344.29
618.421	10237.8
618.616	10352.48
618.811	10028.9
619.006	10153.83
619.201	9836.39
619.396	10235.75
619.591	9959.27
619.786	10196.84
619.981	9756.52
620.176	9858.92
620.371	9680.75
620.566	9754.48
620.761	9721.71
620.956	9641.84
621.151	9666.41
621.346	9813.87
621.541	9447.28
621.735	9701.23
621.93	9418.61
622.125	9465.71
622.32	9203.57
622.515	9123.7
622.709	9359.22
622.904	9013.11
623.099	9062.26
623.294	9103.22
623.488	9070.45
623.683	9168.76
623.878	8781.69
624.072	8961.91
624.267	8998.77
624.462	8927.1
624.656	8834.94
624.851	8812.41
625.046	8906.62
625.24	8677.24
625.435	8368
625.629	8697.72
625.824	8619.9
626.018	8576.89
626.213	8421.25
626.407	8423.3
626.602	8132.48
626.796	8464.25
626.991	8341.38
627.185	8349.57
627.38	8198.02
627.574	8036.23
627.768	8079.24
627.963	7987.08
628.157	7952.26
628.352	8093.57
628.546	7929.73
628.74	7870.34
628.935	7835.53
629.129	7831.43
629.323	7677.83
629.517	7681.93
629.712	7710.6
629.906	7380.88
630.1	7382.93
630.294	7546.76
630.489	7468.94
630.683	7589.77
630.877	7329.68
631.071	7325.58
631.265	7315.34
631.459	7323.54
631.653	7260.05
631.848	7206.8
632.042	7182.23
632.236	7108.5
632.43	7085.97
632.624	7190.42
632.818	6977.43
633.012	7151.51
633.206	6973.33
633.4	6891.41
633.594	6971.29
633.788	6995.86
633.982	6766.49
634.176	6850.46
634.369	6774.68
634.563	6686.62
634.757	6543.26
634.951	6836.12
635.145	6662.04
635.339	6608.8
635.533	6537.12
635.726	6537.12
635.92	6455.2
636.114	6309.79
636.308	6504.35
636.501	6348.7
636.695	6262.69
636.889	6195.11
637.083	6227.87
637.276	6018.98
637.47	6109.09
637.664	6027.17
637.857	6168.48
638.051	6064.04
638.244	6102.95
638.438	6086.56
638.632	6023.08
638.825	5945.25
639.019	5898.15
639.212	5912.49
639.406	5924.77
639.599	5773.22
639.793	5867.43
639.986	5732.26
640.18	5986.21
640.373	5789.61
640.567	5625.77
640.76	5674.92
640.954	5576.62
641.147	5570.47
641.34	5365.68
641.534	5560.24
641.727	5562.28
641.92	5517.23
642.114	5439.4
642.307	5337.01
642.5	5339.05
642.694	5128.11
642.887	5224.37
643.08	5259.18
643.273	5459.88
643.467	5142.45
643.66	5207.98
643.853	5119.92
644.046	5087.15
644.239	5021.62
644.432	5040.05
644.626	4888.5
644.819	5011.38
645.012	4921.27
645.205	5003.19
645.398	4921.27
645.591	4933.56
645.784	4685.75
645.977	4734.9
646.17	4732.86
646.363	4773.82
646.556	4587.45
646.749	4808.63
646.942	4718.52
647.135	4601.79
647.328	4579.26
647.521	4609.98
647.714	4667.32
647.907	4581.31
648.099	4626.36
648.292	4609.98
648.485	4528.06
648.678	4489.15
648.871	4360.13
649.064	4423.61
649.256	4374.46
649.449	4382.65
649.642	4247.49
649.835	4306.88
650.027	4155.33
650.22	4292.54
650.413	4292.54
650.605	4159.42
650.798	4153.28
650.991	4282.3
651.183	4130.75
651.376	4145.09
651.568	4153.28
651.761	4059.07
651.954	4087.75
652.146	4071.36
652.339	4020.16
652.531	4020.16
652.724	3876.8
652.916	3852.23
653.109	3954.63
653.301	3966.92
653.494	3780.55
653.686	3893.19
653.879	3915.72
654.071	3897.28
654.263	3807.17
654.456	3723.21
654.648	3821.51
654.84	3770.31
655.033	3614.66
655.225	3829.7
655.417	3545.03
655.61	3696.58
655.802	3596.23
655.994	3581.9
656.186	3575.75
656.379	3649.48
656.571	3594.19
656.763	3592.14
656.955	3499.98
657.148	3594.19
657.34	3512.27
657.532	3459.02
657.724	3373
657.916	3540.94
658.108	3356.62
658.3	3446.73
658.492	3508.17
658.684	3301.33
658.876	3342.28
659.068	3430.35
659.26	3377.1
659.452	3295.18
659.644	3258.32
659.836	3295.18
660.028	3284.94
660.22	3213.26
660.412	3129.3
660.604	3321.81
660.796	3209.17
660.988	3155.92
661.18	3192.78
661.372	3127.25
661.563	3078.1
661.755	3008.47
661.947	3061.71
662.139	3061.71
662.331	2981.84
662.522	3026.9
662.714	3004.37
662.906	2992.08
663.097	3090.38
663.289	2947.03
663.481	2994.13
663.673	2840.53
663.864	2848.72
664.056	2934.74
664.247	2932.69
664.439	2861.01
664.631	2918.36
664.822	2742.23
665.014	3000.27
665.205	2693.08
665.397	2861.01
665.588	2799.57
665.78	2684.89
665.971	2754.52
666.163	2818.01
666.354	2750.42
666.546	2707.41
666.737	2815.96
666.929	2738.13
667.12	2695.13
667.311	2693.08
667.503	2688.98
667.694	2572.25
667.885	2594.78
668.077	2564.06
668.268	2648.02
668.459	2467.8
668.651	2537.43
668.842	2625.5
669.033	2553.82
669.224	2525.15
669.416	2664.41
669.607	2471.9
669.798	2539.48
669.989	2596.82
670.18	2408.41
670.371	2449.37
670.563	2521.05
670.754	2482.14
670.945	2465.75
671.136	2461.66
671.327	2514.91
671.518	2527.19
671.709	2494.43
671.9	2400.22
672.091	2336.73
672.282	2344.92
672.473	2457.56
672.664	2373.6
672.855	2340.83
673.046	2363.36
673.237	2437.08
673.428	2310.11
673.619	2379.74
673.809	2217.95
674	2353.12
674.191	2334.68
674.382	2281.44
674.573	2269.15
674.764	2189.28
674.954	2310.11
675.145	2170.85
675.336	2236.38
675.527	2289.63
675.717	2176.99
675.908	2295.77
676.099	2224.09
676.289	2250.72
676.48	2193.37
676.671	2152.42
676.861	2078.69
677.052	2213.85
677.243	2176.99
677.433	2140.13
677.624	2275.29
677.814	2148.32
678.005	2187.23
678.195	2148.32
678.386	2109.41
678.576	2080.74
678.767	2146.27
678.957	2074.59
679.148	2107.36
679.338	2136.03
679.529	2119.65
679.719	2148.32
679.909	2211.81
680.1	2056.16
680.29	2054.11
680.481	2045.92
680.671	2009.06
680.861	1974.24
681.052	1992.67
681.242	2064.35
681.432	2013.15
681.622	1980.39
681.813	1890.28
682.003	1980.39
682.193	1986.53
682.383	1984.48
682.573	1923.04
682.764	2123.74
682.954	2007.01
683.144	2080.74
683.334	1955.81
683.524	2072.54
683.714	2007.01
683.904	1980.39
684.094	1964
684.284	1939.43
684.474	1988.58
684.664	1923.04
684.854	1929.19
685.044	1939.43
685.234	1808.36
685.424	1841.12
685.614	1902.56
685.804	1933.28
685.994	1957.86
686.184	1955.81
686.374	1955.81
686.564	1929.19
686.753	1839.08
686.943	1736.68
687.133	1724.39
687.323	1875.94
687.513	1871.84
687.702	1798.12
687.892	1968.1
688.082	1832.93
688.272	1920.99
688.461	1761.25
688.651	1824.74
688.841	1853.41
689.03	1810.4
689.22	1828.84
689.41	1783.78
689.599	1751.01
689.789	1751.01
689.979	1890.28
690.168	1806.31
690.358	1746.92
690.547	1761.25
690.737	1753.06
690.926	1851.36
691.116	1628.14
691.305	1882.08
691.495	1646.57
691.684	1701.86
691.874	1656.81
692.063	1662.95
692.252	1728.49
692.442	1775.59
692.631	1818.6
692.82	1689.57
693.01	1603.56
693.199	1775.59
693.388	1652.71
693.578	1644.52
693.767	1648.61
693.956	1632.23
694.146	1636.33
694.335	1638.37
694.524	1677.29
694.713	1654.76
694.902	1646.57
695.092	1589.22
695.281	1738.73
695.47	1615.85
695.659	1665
695.848	1677.29
696.037	1665
696.226	1640.42
696.415	1615.85
696.604	1652.71
696.793	1644.52
696.982	1779.68
697.171	1648.61
697.36	1714.15
697.549	1628.14
697.738	1517.54
697.927	1597.42
698.116	1736.68
698.305	1669.09
698.494	1656.81
698.683	1693.67
698.872	1759.21
699.061	1636.33
699.25	1710.05
699.438	1619.94
699.627	1595.37
699.816	1671.14
700.005	1714.15
700.193	1650.66
700.382	1689.57
700.571	1660.9
700.76	1566.7
700.948	1751.01
701.137	1660.9
701.326	1681.38
701.514	1542.12
701.703	1583.08
701.892	1578.98
702.08	1621.99
702.269	1714.15
702.457	1769.44
702.646	1695.72
702.834	1603.56
703.023	1671.14
703.212	1677.29
703.4	1611.75
703.589	1687.53
703.777	1679.33
703.965	1650.66
704.154	1542.12
704.342	1701.86
704.531	1632.23
704.719	1628.14
704.907	1673.19
705.096	1642.47
705.284	1654.76
705.472	1712.1
705.661	1726.44
705.849	1734.63
706.037	1712.1
706.226	1730.53
706.414	1714.15
706.602	1660.9
706.79	1683.43
706.979	1710.05
707.167	1624.04
707.355	1746.92
707.543	1726.44
707.731	1712.1
707.919	1738.73
708.107	1691.62
708.296	1755.11
708.484	1665
708.672	1701.86
708.86	1724.39
709.048	1734.63
709.236	1703.91
709.424	1621.99
709.612	1673.19
709.8	1669.09
709.988	1638.37
710.176	1761.25
710.364	1693.67
710.551	1699.81
710.739	1615.85
710.927	1619.94
711.115	1705.96
711.303	1683.43
711.491	1736.68
711.679	1650.66
711.866	1644.52
712.054	1671.14
712.242	1794.02
712.43	1791.97
712.617	1738.73
712.805	1810.4
712.993	1703.91
713.181	1646.57
713.368	1767.4
713.556	1703.91
713.744	1722.34
713.931	1785.83
714.119	1648.61
714.306	1818.6
714.494	1746.92
714.682	1687.53
714.869	1759.21
715.057	1677.29
715.244	1683.43
715.432	1650.66
715.619	1746.92
715.807	1697.77
715.994	1673.19
716.182	1716.2
716.369	1759.21
716.556	1742.82
716.744	1599.46
716.931	1671.14
717.119	1611.75
717.306	1656.81
717.493	1744.87
717.681	1847.27
717.868	1701.86
718.055	1681.38
718.242	1652.71
718.43	1765.35
718.617	1652.71
718.804	1736.68
718.991	1691.62
719.179	1701.86
719.366	1777.64
719.553	1687.53
719.74	1679.33
719.927	1660.9
720.114	1638.37
720.301	1714.15
720.488	1669.09
720.676	1646.57
720.863	1648.61
721.05	1785.83
721.237	1697.77
721.424	1695.72
721.611	1769.44
721.798	1714.15
721.985	1753.06
722.172	1701.86
722.358	1683.43
722.545	1734.63
722.732	1669.09
722.919	1761.25
723.106	1677.29
723.293	1740.77
723.48	1726.44
723.667	1753.06
723.853	1646.57
724.04	1646.57
724.227	1587.18
724.414	1642.47
724.6	1832.93
724.787	1699.81
724.974	1660.9
725.161	1681.38
725.347	1538.02
725.534	1736.68
725.72	1685.48
725.907	1652.71
726.094	1791.97
726.28	1648.61
726.467	1701.86
726.653	1609.7
726.84	1697.77
727.027	1710.05
727.213	1695.72
727.4	1691.62
727.586	1755.11
727.773	1691.62
727.959	1742.82
728.145	1591.27
728.332	1671.14
728.518	1699.81
728.705	1607.66
728.891	1755.11
729.077	1689.57
729.264	1677.29
729.45	1652.71
729.636	1708.01
729.823	1550.31
730.009	1617.9
730.195	1695.72
730.382	1660.9
730.568	1648.61
730.754	1734.63
730.94	1671.14
731.126	1595.37
731.313	1712.1
731.499	1628.14
731.685	1693.67
731.871	1609.7
732.057	1660.9
732.243	1609.7
732.429	1613.8
732.615	1742.82
732.801	1646.57
732.987	1632.23
733.173	1619.94
733.359	1689.57
733.545	1566.7
733.731	1538.02
733.917	1619.94
734.103	1673.19
734.289	1638.37
734.475	1609.7
734.661	1583.08
734.847	1609.7
735.033	1669.09
735.219	1595.37
735.404	1677.29
735.59	1542.12
735.776	1587.18
735.962	1566.7
736.148	1630.18
736.333	1628.14
736.519	1509.35
736.705	1628.14
736.89	1628.14
737.076	1531.88
737.262	1570.79
737.447	1531.88
737.633	1439.72
737.819	1572.84
738.004	1599.46
738.19	1550.31
738.375	1544.17
738.561	1511.4
738.747	1497.07
738.932	1480.68
739.118	1529.83
739.303	1509.35
739.489	1538.02
739.674	1546.22
739.859	1538.02
740.045	1517.54
740.23	1497.07
740.416	1474.54
740.601	1529.83
740.786	1478.63
740.972	1546.22
741.157	1466.35
741.342	1392.62
741.528	1433.58
741.713	1499.11
741.898	1484.78
742.084	1509.35
742.269	1449.96
742.454	1503.21
742.639	1501.16
742.824	1413.1
743.01	1427.43
743.195	1484.78
743.38	1445.87
743.565	1386.47
743.75	1488.87
743.935	1398.76
744.12	1464.3
744.305	1390.57
744.49	1361.9
744.675	1417.19
744.86	1349.61
745.045	1312.75
745.23	1400.81
745.415	1439.72
745.6	1398.76
745.785	1310.7
745.97	1363.95
746.155	1349.61
746.34	1341.42
746.525	1284.08
746.71	1325.04
746.895	1220.59
747.079	1284.08
747.264	1310.7
747.449	1269.74
747.634	1282.03
747.819	1316.84
748.003	1226.73
748.188	1193.97
748.373	1232.88
748.557	1327.08
748.742	1222.64
748.927	1263.6
749.111	1126.38
749.296	1259.5
749.481	1243.12
749.665	1353.71
749.85	1202.16
750.034	1253.36
750.219	1089.52
750.404	1107.95
750.588	1200.11
750.773	1116.14
750.957	1153.01
751.141	1136.62
751.326	1177.58
751.51	1120.24
751.695	1153.01
751.879	1097.71
752.064	1161.2
752.248	1138.67
752.432	1140.72
752.617	1064.94
752.801	1071.09
752.985	1064.94
753.17	1038.32
753.354	1054.7
753.538	1066.99
753.722	1097.71
753.907	1095.66
754.091	948.21
754.275	1048.56
754.459	983.02
754.643	972.79
754.828	1112.05
755.012	948.21
755.196	968.69
755.38	956.4
755.564	1062.9
755.748	925.68
755.932	1052.66
756.116	1001.46
756.3	866.29
756.484	935.92
756.668	929.78
756.852	915.44
757.036	968.69
757.22	980.98
757.404	886.77
757.588	909.3
757.772	882.67
757.956	835.57
758.14	845.81
758.323	821.24
758.507	841.72
758.691	864.24
758.875	903.15
759.059	942.07
759.242	808.95
759.426	921.59
759.61	849.91
759.794	862.19
759.977	950.26
760.161	786.42
760.345	804.85
760.528	800.76
760.712	765.94
760.895	849.91
761.079	751.6
761.263	776.18
761.446	780.28
761.63	784.37
761.813	714.74
761.997	727.03
762.18	792.56
762.364	751.6
762.547	641.01
762.731	759.8
762.914	829.43
763.098	815.09
763.281	735.22
763.464	821.24
763.648	737.27
763.831	792.56
764.015	745.46
764.198	792.56
764.381	780.28
764.564	784.37
764.748	751.6
764.931	808.95
765.114	694.26
765.297	645.11
765.481	714.74
765.664	704.5
765.847	733.17
766.03	751.6
766.213	673.78
766.397	638.97
766.58	624.63
766.763	735.22
766.946	749.56
767.129	624.63
767.312	608.25
767.495	690.17
767.678	620.53
767.861	722.93
768.044	718.84
768.227	710.65
768.41	589.81
768.593	636.92
768.776	692.21
768.959	632.82
769.142	657.4
769.324	690.17
769.507	655.35
769.69	632.82
769.873	595.96
770.056	677.88
770.239	622.58
770.421	645.11
770.604	604.15
770.787	612.34
770.97	505.85
771.152	571.38
771.335	686.07
771.518	546.81
771.7	573.43
771.883	559.1
772.066	608.25
772.248	587.77
772.431	557.05
772.613	581.62
772.796	589.81
772.978	540.66
773.161	583.67
773.343	516.09
773.526	507.9
773.708	563.19
773.891	573.43
774.073	555
774.256	557.05
774.438	479.22
774.621	546.81
774.803	528.38
774.985	530.42
775.168	499.7
775.35	450.55
775.532	604.15
775.715	489.46
775.897	573.43
776.079	481.27
776.261	491.51
776.444	602.1
776.626	620.53
776.808	483.32
776.99	505.85
777.173	522.23
777.355	538.62
777.537	477.18
777.719	505.85
777.901	481.27
778.083	507.9
778.265	464.89
778.447	432.12
778.629	460.79
778.811	456.7
778.993	378.87
779.175	548.86
779.357	434.17
779.539	464.89
779.721	448.51
779.903	507.9
780.085	444.41
780.267	468.98
780.449	407.55
780.631	382.97
780.812	497.66
780.994	407.55
781.176	382.97
781.358	399.35
781.54	399.35
781.721	491.51
781.903	464.89
782.085	372.73
782.267	444.41
782.448	407.55
782.63	354.3
782.812	382.97
782.993	391.16
783.175	401.4
783.357	397.31
783.538	409.59
783.72	389.11
783.901	366.59
784.083	401.4
784.264	378.87
784.446	352.25
784.627	397.31
784.809	342.01
784.99	366.59
785.172	376.83
785.353	258.04
785.535	366.59
785.716	290.81
785.897	311.29
786.079	325.63
786.26	321.53
786.441	346.11
786.623	286.72
786.804	292.86
786.985	376.83
787.167	376.83
787.348	360.44
787.529	307.2
787.71	294.91
787.891	264.19
788.073	288.76
788.254	194.56
788.435	270.33
788.616	270.33
788.797	270.33
788.978	333.82
789.159	301.05
789.34	317.44
789.522	227.32
789.703	221.18
789.884	307.2
790.065	210.94
790.246	280.57
790.427	268.28
790.607	305.15
790.788	264.19
790.969	215.04
791.15	247.8
791.331	253.95
791.512	251.9
791.693	268.28
791.874	266.24
792.054	337.91
792.235	241.66
792.416	284.67
792.597	210.94
792.778	227.32
792.958	270.33
793.139	237.56
793.32	311.29
793.5	190.46
793.681	212.99
793.862	212.99
794.042	208.89
794.223	202.75
794.404	280.57
794.584	182.27
794.765	202.75
794.945	249.85
795.126	262.14
795.306	278.52
795.487	153.6
795.667	210.94
795.848	198.65
796.028	225.28
796.209	251.9
796.389	206.84
796.57	172.03
796.75	200.7
796.93	178.17
797.111	137.21
797.291	196.61
797.471	247.8
797.652	243.71
797.832	184.32
798.012	184.32
798.192	190.46
798.373	223.23
798.553	163.84
798.733	243.71
798.913	143.36
799.093	155.65
799.274	272.38
799.454	210.94
799.634	198.65
799.814	163.84
799.994	178.17
800.174	233.47
800.354	139.26
800.534	155.65
800.714	237.56
800.894	151.55
801.074	131.07
801.254	200.7
801.434	182.27
801.614	133.12
801.794	159.74
801.974	788.47
802.154	161.79
802.334	147.45
802.514	141.31
802.693	172.03
802.873	184.32
803.053	169.98
803.233	124.93
803.413	172.03
803.592	165.89
803.772	192.51
803.952	151.55
804.131	131.07
804.311	182.27
804.491	212.99
804.67	155.65
804.85	153.6
805.03	145.41
805.209	178.17
805.389	178.17
805.568	178.17
805.748	178.17
805.928	88.06
806.107	114.69
806.287	186.37
806.466	194.56
806.646	98.3
806.825	149.5
807.004	145.41
807.184	110.59
807.363	172.03
807.543	88.06
807.722	120.83
807.901	122.88
808.081	131.07
808.26	22.53
808.439	196.61
808.619	210.94
808.798	116.73
808.977	98.3
809.156	131.07
809.336	120.83
809.515	161.79
809.694	135.17
809.873	100.35
810.052	147.45
810.231	145.41
810.411	32.77
810.59	153.6
810.769	157.69
810.948	114.69
811.127	63.49
811.306	116.73
811.485	131.07
811.664	157.69
811.843	186.37
812.022	120.83
812.201	112.64
812.38	65.53
812.559	139.26
812.737	114.69
812.916	118.78
813.095	98.3
813.274	139.26
813.453	120.83
813.632	114.69
813.811	96.25
813.989	38.91
814.168	206.84
814.347	151.55
814.526	174.08
814.704	141.31
814.883	73.73
815.062	104.45
815.24	153.6
815.419	112.64
815.598	104.45
815.776	55.3
815.955	88.06
816.133	129.02
816.312	104.45
816.49	120.83
816.669	122.88
816.847	79.87
817.026	131.07
817.204	90.11
817.383	98.3
817.561	51.2
817.74	145.41
817.918	96.25
818.097	22.53
818.275	108.54
818.453	153.6
818.632	108.54
818.81	22.53
818.988	38.91
819.167	81.92
819.345	122.88
819.523	88.06
819.701	118.78
819.879	147.45
820.058	81.92
820.236	43.01
820.414	40.96
820.592	63.49
820.77	90.11
820.948	-26.62
821.127	120.83
821.305	90.11
821.483	8.19
821.661	122.88
821.839	61.44
822.017	57.34
822.195	104.45
822.373	73.73
822.551	73.73
822.729	90.11
822.907	43.01
823.085	114.69
823.262	14.34
823.44	59.39
823.618	10.24
823.796	69.63
823.974	114.69
824.152	67.58
824.329	43.01
824.507	63.49
824.685	98.3
824.863	71.68
825.04	92.16
825.218	157.69
825.396	73.73
825.574	79.87
825.751	71.68
825.929	90.11
826.107	-22.53
826.284	63.49
826.462	169.98
826.639	30.72
826.817	-6.14
826.994	47.1
827.172	40.96
827.349	182.27
827.527	110.59
827.704	53.25
827.882	57.34
828.059	79.87
828.237	8.19
828.414	40.96
828.591	-14.34
828.769	79.87
828.946	73.73
829.124	-2.05
829.301	116.73
829.478	2.05
829.655	129.02
829.833	96.25
830.01	26.62
830.187	65.53
830.364	79.87
830.542	26.62
830.719	141.31
830.896	98.3
831.073	43.01
831.25	94.21
831.427	88.06
831.604	63.49
831.782	-59.39
831.959	81.92
832.136	40.96
832.313	86.01
832.49	57.34
832.667	112.64
832.844	20.48
833.021	22.53
833.198	24.58
833.374	59.39
833.551	100.35
833.728	-8.19
833.905	100.35
834.082	18.43
834.259	34.82
834.436	131.07
834.612	-10.24
834.789	79.87
834.966	30.72
835.143	40.96
835.319	24.58
835.496	104.45
835.673	22.53
835.85	55.3
836.026	30.72
836.203	55.3
836.38	-14.34
836.556	65.53
836.733	81.92
836.909	57.34
837.086	34.82
837.262	16.38
837.439	51.2
837.616	20.48
837.792	-14.34
837.968	40.96
838.145	18.43
838.321	40.96
838.498	133.12
838.674	65.53
838.851	65.53
839.027	-6.14
839.203	71.68
839.38	63.49
839.556	32.77
839.732	147.45
839.909	55.3
840.085	20.48
840.261	79.87
840.437	79.87
840.614	18.43
840.79	96.25
840.966	69.63
841.142	-4.1
841.318	22.53
841.494	-4.1
841.671	45.06
841.847	55.3
842.023	-10.24
842.199	10.24
842.375	112.64
842.551	-30.72
842.727	53.25
842.903	92.16
843.079	22.53
843.255	112.64
843.431	-6.14
843.607	124.93
843.783	-34.82
843.959	6.14
844.134	55.3
844.31	96.25
844.486	47.1
844.662	2.05
844.838	12.29
845.013	40.96
845.189	69.63
845.365	49.15
845.541	38.91
845.716	79.87
845.892	22.53
846.068	47.1
846.244	8.19
846.419	98.3
846.595	-30.72
846.77	8.19
846.946	57.34
847.122	30.72
847.297	49.15
847.473	53.25
847.648	38.91
847.824	57.34
847.999	6.14
848.175	47.1
848.35	14.34
848.526	96.25
848.701	18.43
848.876	116.73
849.052	0
849.227	-71.68
849.403	-6.14
849.578	6.14
849.753	55.3
849.929	79.87
850.104	16.38
850.279	69.63
850.454	10.24
850.63	88.06
850.805	24.58
850.98	6.14
851.155	-10.24
851.33	71.68
851.505	-18.43
851.681	75.77
851.856	6.14
852.031	63.49
852.206	-30.72
852.381	45.06
852.556	12.29
852.731	-10.24
852.906	71.68
853.081	-8.19
853.256	53.25
853.431	18.43
853.606	12.29
853.781	55.3
853.956	-55.3
854.131	45.06
854.305	-12.29
854.48	81.92
854.655	14.34
854.83	16.38
855.005	59.39
855.18	14.34
855.354	32.77
855.529	-20.48
855.704	-16.38
855.879	26.62
856.053	14.34
856.228	92.16
856.403	-26.62
856.577	94.21
856.752	-81.92
856.926	8.19
857.101	30.72
857.276	-14.34
857.45	14.34
857.625	18.43
857.799	47.1
857.974	10.24
858.148	-40.96
858.323	83.97
858.497	47.1
858.672	59.39
858.846	2.05
859.02	77.82
859.195	-36.86
859.369	-16.38
859.543	47.1
859.718	-10.24
859.892	61.44
860.066	22.53
860.241	-43.01
860.415	-47.1
860.589	-59.39
860.763	43.01
860.938	40.96
861.112	-16.38
861.286	-2.05
861.46	79.87
861.634	55.3
861.808	16.38
861.982	-10.24
862.157	22.53
862.331	-10.24
862.505	-18.43
862.679	-59.39
862.853	51.2
863.027	-34.82
863.201	83.97
863.375	-40.96
863.549	-14.34
863.722	16.38
863.896	38.91
864.07	14.34
864.244	30.72
864.418	51.2
864.592	96.25
864.766	43.01
864.939	53.25
865.113	-43.01
865.287	65.53
865.461	18.43
865.634	10.24
865.808	-30.72
865.982	26.62
866.156	96.25
866.329	2.05
866.503	6.14
866.676	49.15
866.85	0
867.024	-10.24
867.197	81.92
867.371	43.01
867.544	2.05
867.718	-92.16
867.891	8.19
868.065	-26.62
868.238	-10.24
868.412	-18.43
868.585	49.15
868.759	-67.58
868.932	14.34
869.105	22.53
869.279	-18.43
869.452	-10.24
869.625	38.91
869.799	-40.96
869.972	2.05
870.145	22.53
870.319	22.53
870.492	47.1
870.665	-6.14
870.838	22.53
871.011	-8.19
871.185	-10.24
871.358	4.1
871.531	59.39
871.704	-20.48
871.877	90.11
872.05	-4.1
872.223	6.14
872.396	6.14
872.569	-2.05
872.742	55.3
872.915	-4.1
873.088	14.34
873.261	65.53
873.434	32.77
873.607	-30.72
873.78	55.3
873.953	-10.24
874.126	10.24
874.299	14.34
874.471	8.19
874.644	16.38
874.817	-4.1
874.99	57.34
875.163	0
875.335	8.19
875.508	51.2
875.681	10.24
875.853	-10.24
876.026	49.15
876.199	65.53
876.371	24.58
876.544	-55.3
876.717	28.67
876.889	16.38
877.062	34.82
877.234	-40.96
877.407	6.14
877.579	-18.43
877.752	96.25
877.924	71.68
878.097	65.53
878.269	-40.96
878.442	51.2
878.614	59.39
878.786	-10.24
878.959	14.34
879.131	81.92
879.303	-30.72
879.476	26.62
879.648	-30.72
879.82	43.01
879.993	-18.43
880.165	14.34
880.337	-34.82
880.509	30.72
880.681	10.24
880.854	-40.96
881.026	38.91
881.198	81.92
881.37	81.92
881.542	-38.91
881.714	-81.92
881.886	0
882.058	59.39
882.23	24.58
882.402	-30.72
882.574	88.06
882.746	49.15
882.918	133.12
883.09	49.15
883.262	-12.29
883.434	-20.48
883.606	-22.53
883.778	-18.43
883.95	24.58
884.122	-6.14
884.293	73.73
884.465	38.91
884.637	40.96
884.809	-49.15
884.98	38.91
885.152	2.05
885.324	-16.38
885.496	10.24
885.667	47.1
885.839	2.05
886.011	45.06
886.182	43.01
886.354	-10.24
886.525	-16.38
886.697	49.15
886.869	8.19
887.04	-24.58
887.212	-12.29
887.383	22.53
887.555	49.15
887.726	16.38
887.897	-79.87
888.069	0
888.24	-6.14
888.412	8.19
888.583	-51.2
888.754	53.25
888.926	6.14
889.097	6.14
889.268	-38.91
889.44	38.91
889.611	-43.01
889.782	30.72
889.953	-4.1
890.125	-2.05
890.296	-34.82
890.467	-10.24
890.638	-4.1
890.809	14.34
890.98	-32.77
891.151	-20.48
891.323	69.63
891.494	6.14
891.665	94.21
891.836	-12.29
892.007	55.3
892.178	43.01
892.349	2.05
892.52	49.15
892.691	55.3
892.862	-22.53
893.032	-88.06
893.203	10.24
893.374	40.96
893.545	-36.86
893.716	-88.06
893.887	-26.62
894.057	75.77
894.228	79.87
894.399	-51.2
894.57	16.38
894.74	-2.05
894.911	-43.01
895.082	-83.97
895.253	26.62
895.423	22.53
895.594	2.05
895.764	34.82
895.935	-65.54
896.106	-14.34
896.276	-45.06
896.447	96.25
896.617	-6.14
896.788	-18.43
896.958	-18.43
897.129	36.86
897.299	14.34
897.47	16.38
897.64	-20.48
897.81	-2.05
897.981	16.38
898.151	26.62
898.322	-32.77
898.492	-22.53
898.662	-32.77
898.832	-34.82
899.003	-12.29
899.173	88.06
899.343	16.38
899.513	-94.21
