Data from USB4F104151__219__14-45-30-667.txt Node

Date: Thu Mar 13 14:45:30 EDT 2025
User: louis
Spectrometer: USB4F10415
Trigger mode: 4
Integration Time (sec): 2.000000E-2
Scans to average: 1
Electric dark correction enabled: true
Nonlinearity correction enabled: false
Boxcar width: 0
XAxis mode: Wavelengths
Number of Pixels in Spectrum: 3648
>>>>>Begin Spectral Data<<<<<
178.204	-72.53
178.424	-72.53
178.644	-72.53
178.864	-90.96
179.084	-183.12
179.304	52.39
179.524	-62.29
179.744	36.01
179.964	1.19
180.184	-0.85
180.404	-50
180.624	-66.39
180.844	33.96
181.064	25.77
181.283	-19.29
181.503	50.35
181.723	-0.85
181.943	60.59
182.163	95.4
182.383	-27.48
182.602	119.98
182.822	33.96
183.042	48.3
183.262	-0.85
183.482	-56.15
183.701	33.96
183.921	19.63
184.141	-29.52
184.361	76.97
184.58	-0.85
184.8	58.54
185.02	-17.24
185.239	23.72
185.459	15.53
185.679	103.59
185.898	-27.48
186.118	17.58
186.338	13.48
186.557	83.11
186.777	-37.72
186.997	-29.52
187.216	58.54
187.436	13.48
187.655	58.54
187.875	81.07
188.095	5.29
188.314	107.69
188.534	60.59
188.753	-13.14
188.973	91.31
189.192	68.78
189.412	68.78
189.631	-7
189.851	33.96
190.07	44.2
190.29	29.87
190.509	44.2
190.729	-31.57
190.948	36.01
191.168	68.78
191.387	74.92
191.607	-17.24
191.826	33.96
192.045	-2.9
192.265	-15.19
192.484	68.78
192.704	50.35
192.923	-43.86
193.142	66.73
193.362	44.2
193.581	58.54
193.8	113.83
194.02	74.92
194.239	93.35
194.458	-9.05
194.678	-7
194.897	52.39
195.116	93.35
195.335	70.83
195.555	60.59
195.774	60.59
195.993	-35.67
196.212	66.73
196.432	70.83
196.651	42.15
196.87	1.19
197.089	89.26
197.308	1.19
197.528	3.24
197.747	-7
197.966	42.15
198.185	27.82
198.404	-13.14
198.623	17.58
198.842	101.55
199.062	-37.72
199.281	87.21
199.5	-13.14
199.719	42.15
199.938	25.77
200.157	103.59
200.376	38.06
200.595	40.11
200.814	79.02
201.033	52.39
201.252	38.06
201.471	38.06
201.69	119.98
201.909	-47.96
202.128	74.92
202.347	27.82
202.566	-27.48
202.785	11.43
203.004	-64.34
203.223	76.97
203.442	66.73
203.661	50.35
203.879	36.01
204.098	-19.29
204.317	5.29
204.536	115.88
204.755	66.73
204.974	33.96
205.193	9.39
205.411	99.5
205.63	134.31
205.849	83.11
206.068	56.49
206.287	79.02
206.505	107.69
206.724	33.96
206.943	44.2
207.162	-21.33
207.381	-17.24
207.599	21.67
207.818	3.24
208.037	50.35
208.255	42.15
208.474	52.39
208.693	9.39
208.911	66.73
209.13	66.73
209.349	-7
209.567	33.96
209.786	15.53
210.005	-4.95
210.223	93.35
210.442	52.39
210.661	-7
210.879	79.02
211.098	-23.38
211.316	1.19
211.535	101.55
211.753	-47.96
211.972	68.78
212.191	17.58
212.409	25.77
212.628	50.35
212.846	1.19
213.065	25.77
213.283	9.39
213.502	38.06
213.72	3.24
213.938	19.63
214.157	29.87
214.375	23.72
214.594	13.48
214.812	60.59
215.031	33.96
215.249	13.48
215.467	29.87
215.686	11.43
215.904	58.54
216.122	46.25
216.341	79.02
216.559	50.35
216.778	52.39
216.996	44.2
217.214	36.01
217.432	-19.29
217.651	25.77
217.869	79.02
218.087	87.21
218.306	17.58
218.524	40.11
218.742	56.49
218.96	91.31
219.179	3.24
219.397	42.15
219.615	72.87
219.833	42.15
220.051	-4.95
220.27	36.01
220.488	-2.9
220.706	50.35
220.924	-13.14
221.142	-37.72
221.36	17.58
221.578	-0.85
221.796	36.01
222.015	42.15
222.233	19.63
222.451	83.11
222.669	23.72
222.887	101.55
223.105	-72.53
223.323	38.06
223.541	36.01
223.759	119.98
223.977	-27.48
224.195	93.35
224.413	64.68
224.631	113.83
224.849	-31.57
225.067	46.25
225.285	-47.96
225.503	33.96
225.721	-0.85
225.939	21.67
226.157	36.01
226.375	95.4
226.592	9.39
226.81	58.54
227.028	19.63
227.246	140.46
227.464	-4.95
227.682	-7
227.9	60.59
228.117	-15.19
228.335	25.77
228.553	50.35
228.771	44.2
228.989	36.01
229.206	60.59
229.424	1.19
229.642	42.15
229.86	103.59
230.077	31.91
230.295	101.55
230.513	93.35
230.731	-4.95
230.948	7.34
231.166	33.96
231.384	-43.86
231.601	50.35
231.819	52.39
232.037	25.77
232.254	91.31
232.472	33.96
232.689	19.63
232.907	21.67
233.125	52.39
233.342	54.44
233.56	-0.85
233.777	5.29
233.995	17.58
234.213	42.15
234.43	83.11
234.648	-13.14
234.865	38.06
235.083	54.44
235.3	-0.85
235.518	83.11
235.735	74.92
235.953	99.5
236.17	33.96
236.388	-2.9
236.605	58.54
236.822	42.15
237.04	81.07
237.257	1.19
237.475	-21.33
237.692	134.31
237.909	5.29
238.127	-7
238.344	134.31
238.562	62.63
238.779	50.35
238.996	-23.38
239.214	74.92
239.431	-37.72
239.648	11.43
239.865	83.11
240.083	107.69
240.3	17.58
240.517	1.19
240.735	19.63
240.952	68.78
241.169	68.78
241.386	83.11
241.603	9.39
241.821	-35.67
242.038	5.29
242.255	-37.72
242.472	-17.24
242.689	54.44
242.907	76.97
243.124	44.2
243.341	54.44
243.558	91.31
243.775	1.19
243.992	46.25
244.209	115.88
244.426	17.58
244.643	91.31
244.86	-7
245.078	52.39
245.295	99.5
245.512	54.44
245.729	44.2
245.946	74.92
246.163	52.39
246.38	115.88
246.597	-7
246.814	54.44
247.031	-70.48
247.248	50.35
247.464	66.73
247.681	50.35
247.898	50.35
248.115	44.2
248.332	-70.48
248.549	160.94
248.766	72.87
248.983	38.06
249.2	33.96
249.417	25.77
249.633	38.06
249.85	74.92
250.067	52.39
250.284	79.02
250.501	46.25
250.717	117.93
250.934	17.58
251.151	29.87
251.368	50.35
251.585	3.24
251.801	17.58
252.018	42.15
252.235	171.18
252.451	11.43
252.668	9.39
252.885	97.45
253.102	107.69
253.318	48.3
253.535	52.39
253.752	81.07
253.968	17.58
254.185	-37.72
254.401	44.2
254.618	19.63
254.835	-2.9
255.051	25.77
255.268	1.19
255.484	70.83
255.701	-29.52
255.917	74.92
256.134	60.59
256.351	36.01
256.567	-33.62
256.784	-33.62
257	66.73
257.217	70.83
257.433	74.92
257.65	3.24
257.866	91.31
258.082	-29.52
258.299	33.96
258.515	15.53
258.732	17.58
258.948	52.39
259.165	58.54
259.381	33.96
259.597	99.5
259.814	-93.01
260.03	9.39
260.246	117.93
260.463	48.3
260.679	107.69
260.895	66.73
261.112	62.63
261.328	68.78
261.544	70.83
261.761	156.84
261.977	74.92
262.193	38.06
262.409	87.21
262.626	1.19
262.842	25.77
263.058	-15.19
263.274	44.2
263.49	56.49
263.707	93.35
263.923	56.49
264.139	46.25
264.355	93.35
264.571	46.25
264.787	52.39
265.004	128.17
265.22	91.31
265.436	42.15
265.652	15.53
265.868	29.87
266.084	11.43
266.3	19.63
266.516	3.24
266.732	85.16
266.948	101.55
267.164	27.82
267.38	44.2
267.596	62.63
267.812	42.15
268.028	15.53
268.244	17.58
268.46	68.78
268.676	-31.57
268.892	66.73
269.108	7.34
269.324	36.01
269.54	25.77
269.756	99.5
269.972	58.54
270.188	-39.76
270.403	44.2
270.619	-33.62
270.835	31.91
271.051	83.11
271.267	27.82
271.483	21.67
271.698	44.2
271.914	38.06
272.13	21.67
272.346	25.77
272.562	-39.76
272.777	83.11
272.993	50.35
273.209	62.63
273.425	42.15
273.64	70.83
273.856	99.5
274.072	85.16
274.287	66.73
274.503	107.69
274.719	-4.95
274.934	-11.09
275.15	-45.91
275.366	19.63
275.581	111.78
275.797	42.15
276.012	5.29
276.228	-47.96
276.444	31.91
276.659	79.02
276.875	-37.72
277.09	68.78
277.306	50.35
277.521	42.15
277.737	25.77
277.952	44.2
278.168	58.54
278.383	15.53
278.599	19.63
278.814	-9.05
279.03	-7
279.245	31.91
279.461	33.96
279.676	3.24
279.892	-31.57
280.107	91.31
280.322	1.19
280.538	50.35
280.753	13.48
280.969	126.12
281.184	54.44
281.399	74.92
281.615	52.39
281.83	33.96
282.045	52.39
282.26	5.29
282.476	79.02
282.691	93.35
282.906	79.02
283.122	44.2
283.337	-58.2
283.552	50.35
283.767	74.92
283.983	38.06
284.198	-4.95
284.413	60.59
284.628	-9.05
284.843	101.55
285.058	124.07
285.274	33.96
285.489	29.87
285.704	36.01
285.919	-31.57
286.134	-23.38
286.349	21.67
286.564	64.68
286.779	103.59
286.995	11.43
287.21	5.29
287.425	5.29
287.64	21.67
287.855	13.48
288.07	9.39
288.285	17.58
288.5	52.39
288.715	21.67
288.93	52.39
289.145	31.91
289.36	89.26
289.575	79.02
289.79	23.72
290.004	27.82
290.219	46.25
290.434	56.49
290.649	50.35
290.864	50.35
291.079	62.63
291.294	42.15
291.509	36.01
291.724	58.54
291.938	36.01
292.153	99.5
292.368	42.15
292.583	36.01
292.798	38.06
293.012	74.92
293.227	-27.48
293.442	40.11
293.657	74.92
293.871	9.39
294.086	44.2
294.301	29.87
294.516	87.21
294.73	36.01
294.945	-15.19
295.16	-68.44
295.374	81.07
295.589	17.58
295.804	36.01
296.018	74.92
296.233	115.88
296.447	3.24
296.662	-21.33
296.877	60.59
297.091	66.73
297.306	19.63
297.52	9.39
297.735	66.73
297.949	83.11
298.164	5.29
298.378	60.59
298.593	11.43
298.807	42.15
299.022	11.43
299.236	68.78
299.451	95.4
299.665	54.44
299.88	42.15
300.094	9.39
300.309	66.73
300.523	-0.85
300.737	31.91
300.952	13.48
301.166	19.63
301.381	31.91
301.595	42.15
301.809	11.43
302.024	-21.33
302.238	54.44
302.452	33.96
302.667	7.34
302.881	105.64
303.095	70.83
303.309	58.54
303.524	42.15
303.738	-19.29
303.952	33.96
304.166	42.15
304.381	11.43
304.595	99.5
304.809	17.58
305.023	25.77
305.237	38.06
305.452	105.64
305.666	83.11
305.88	64.68
306.094	72.87
306.308	50.35
306.522	17.58
306.736	93.35
306.95	70.83
307.164	11.43
307.379	62.63
307.593	85.16
307.807	87.21
308.021	97.45
308.235	124.07
308.449	91.31
308.663	52.39
308.877	50.35
309.091	40.11
309.305	11.43
309.519	11.43
309.733	60.59
309.947	50.35
310.161	-33.62
310.374	62.63
310.588	66.73
310.802	25.77
311.016	83.11
311.23	68.78
311.444	58.54
311.658	68.78
311.872	152.74
312.085	44.2
312.299	109.74
312.513	189.61
312.727	76.97
312.941	9.39
313.154	95.4
313.368	-70.48
313.582	60.59
313.796	56.49
314.009	-4.95
314.223	148.65
314.437	42.15
314.651	58.54
314.864	58.54
315.078	42.15
315.292	38.06
315.505	40.11
315.719	134.31
315.933	19.63
316.146	93.35
316.36	3.24
316.573	111.78
316.787	56.49
317.001	38.06
317.214	-23.38
317.428	7.34
317.641	1.19
317.855	11.43
318.068	52.39
318.282	31.91
318.495	70.83
318.709	19.63
318.922	38.06
319.136	83.11
319.349	-21.33
319.563	3.24
319.776	-80.72
319.99	-29.52
320.203	70.83
320.417	66.73
320.63	140.46
320.843	109.74
321.057	70.83
321.27	74.92
321.483	68.78
321.697	74.92
321.91	60.59
322.124	17.58
322.337	-23.38
322.55	-15.19
322.763	-29.52
322.977	-31.57
323.19	33.96
323.403	66.73
323.617	44.2
323.83	-23.38
324.043	5.29
324.256	66.73
324.469	-13.14
324.683	115.88
324.896	-29.52
325.109	52.39
325.322	52.39
325.535	83.11
325.748	134.31
325.962	62.63
326.175	-15.19
326.388	19.63
326.601	54.44
326.814	76.97
327.027	1.19
327.24	132.26
327.453	31.91
327.666	29.87
327.879	3.24
328.092	42.15
328.305	38.06
328.518	25.77
328.731	60.59
328.944	52.39
329.157	-13.14
329.37	70.83
329.583	87.21
329.796	107.69
330.009	40.11
330.222	109.74
330.435	29.87
330.648	1.19
330.861	58.54
331.073	5.29
331.286	-23.38
331.499	95.4
331.712	1.19
331.925	27.82
332.138	23.72
332.35	62.63
332.563	70.83
332.776	79.02
332.989	81.07
333.202	44.2
333.414	27.82
333.627	-45.91
333.84	50.35
334.053	119.98
334.265	-4.95
334.478	91.31
334.691	17.58
334.903	42.15
335.116	40.11
335.329	21.67
335.541	97.45
335.754	17.58
335.966	70.83
336.179	25.77
336.392	50.35
336.604	-23.38
336.817	101.55
337.029	50.35
337.242	44.2
337.454	13.48
337.667	9.39
337.88	124.07
338.092	111.78
338.305	27.82
338.517	83.11
338.729	107.69
338.942	74.92
339.154	1.19
339.367	3.24
339.579	105.64
339.792	-31.57
340.004	124.07
340.217	58.54
340.429	138.41
340.641	-39.76
340.854	5.29
341.066	85.16
341.278	58.54
341.491	72.87
341.703	17.58
341.915	38.06
342.128	111.78
342.34	46.25
342.552	42.15
342.764	66.73
342.977	74.92
343.189	5.29
343.401	95.4
343.613	-60.24
343.826	74.92
344.038	17.58
344.25	128.17
344.462	128.17
344.674	44.2
344.886	128.17
345.099	85.16
345.311	68.78
345.523	66.73
345.735	-17.24
345.947	36.01
346.159	52.39
346.371	3.24
346.583	46.25
346.795	60.59
347.007	-17.24
347.219	91.31
347.431	-15.19
347.643	40.11
347.855	9.39
348.067	83.11
348.279	3.24
348.491	62.63
348.703	74.92
348.915	-4.95
349.127	50.35
349.339	72.87
349.551	7.34
349.763	107.69
349.975	-0.85
350.187	93.35
350.399	66.73
350.61	40.11
350.822	5.29
351.034	70.83
351.246	5.29
351.458	19.63
351.669	76.97
351.881	122.02
352.093	107.69
352.305	62.63
352.517	93.35
352.728	109.74
352.94	107.69
353.152	91.31
353.363	81.07
353.575	87.21
353.787	91.31
353.999	29.87
354.21	-15.19
354.422	-35.67
354.633	-4.95
354.845	42.15
355.057	66.73
355.268	58.54
355.48	87.21
355.692	19.63
355.903	27.82
356.115	62.63
356.326	3.24
356.538	175.27
356.749	91.31
356.961	74.92
357.172	25.77
357.384	46.25
357.595	99.5
357.807	66.73
358.018	46.25
358.23	38.06
358.441	150.7
358.653	60.59
358.864	9.39
359.075	-29.52
359.287	17.58
359.498	95.4
359.709	31.91
359.921	60.59
360.132	62.63
360.344	101.55
360.555	72.87
360.766	70.83
360.977	91.31
361.189	95.4
361.4	-23.38
361.611	60.59
361.823	25.77
362.034	40.11
362.245	44.2
362.456	33.96
362.667	87.21
362.879	13.48
363.09	-21.33
363.301	107.69
363.512	60.59
363.723	46.25
363.935	42.15
364.146	111.78
364.357	-62.29
364.568	1.19
364.779	93.35
364.99	74.92
365.201	-21.33
365.412	136.36
365.623	17.58
365.834	132.26
366.045	25.77
366.256	60.59
366.467	62.63
366.678	5.29
366.889	38.06
367.1	-31.57
367.311	83.11
367.522	79.02
367.733	46.25
367.944	62.63
368.155	68.78
368.366	83.11
368.577	128.17
368.788	-7
368.999	46.25
369.209	72.87
369.42	124.07
369.631	148.65
369.842	33.96
370.053	-15.19
370.264	119.98
370.474	-23.38
370.685	25.77
370.896	48.3
371.107	27.82
371.317	52.39
371.528	58.54
371.739	132.26
371.95	66.73
372.16	109.74
372.371	1.19
372.582	9.39
372.792	33.96
373.003	33.96
373.214	11.43
373.424	60.59
373.635	3.24
373.846	83.11
374.056	46.25
374.267	91.31
374.477	136.36
374.688	19.63
374.898	52.39
375.109	48.3
375.319	66.73
375.53	91.31
375.74	79.02
375.951	97.45
376.161	87.21
376.372	83.11
376.582	52.39
376.793	3.24
377.003	52.39
377.214	9.39
377.424	1.19
377.635	89.26
377.845	17.58
378.055	101.55
378.266	83.11
378.476	54.44
378.686	-2.9
378.897	60.59
379.107	148.65
379.317	128.17
379.528	85.16
379.738	76.97
379.948	33.96
380.158	99.5
380.369	58.54
380.579	99.5
380.789	83.11
380.999	-4.95
381.21	68.78
381.42	138.41
381.63	52.39
381.84	152.74
382.05	29.87
382.261	42.15
382.471	132.26
382.681	83.11
382.891	132.26
383.101	50.35
383.311	42.15
383.521	9.39
383.731	58.54
383.941	52.39
384.151	13.48
384.361	50.35
384.571	103.59
384.781	140.46
384.991	117.93
385.201	122.02
385.411	76.97
385.621	36.01
385.831	105.64
386.041	31.91
386.251	91.31
386.461	50.35
386.671	27.82
386.881	17.58
387.091	101.55
387.301	83.11
387.511	52.39
387.72	-13.14
387.93	119.98
388.14	52.39
388.35	9.39
388.56	119.98
388.769	83.11
388.979	38.06
389.189	66.73
389.399	79.02
389.609	146.6
389.818	79.02
390.028	99.5
390.238	83.11
390.447	27.82
390.657	83.11
390.867	44.2
391.076	3.24
391.286	-4.95
391.496	99.5
391.705	44.2
391.915	60.59
392.125	146.6
392.334	33.96
392.544	66.73
392.753	19.63
392.963	-7
393.172	42.15
393.382	74.92
393.591	165.03
393.801	70.83
394.01	91.31
394.22	58.54
394.429	83.11
394.639	83.11
394.848	103.59
395.058	119.98
395.267	107.69
395.477	99.5
395.686	156.84
395.895	115.88
396.105	181.42
396.314	23.72
396.524	93.35
396.733	76.97
396.942	136.36
397.152	107.69
397.361	115.88
397.57	140.46
397.78	87.21
397.989	50.35
398.198	93.35
398.407	138.41
398.617	128.17
398.826	13.48
399.035	148.65
399.244	142.5
399.453	44.2
399.663	113.83
399.872	181.42
400.081	-7
400.29	119.98
400.499	115.88
400.708	93.35
400.917	60.59
401.127	40.11
401.336	85.16
401.545	181.42
401.754	142.5
401.963	148.65
402.172	93.35
402.381	115.88
402.59	126.12
402.799	119.98
403.008	111.78
403.217	111.78
403.426	93.35
403.635	52.39
403.844	140.46
404.053	99.5
404.262	79.02
404.471	218.28
404.68	85.16
404.888	191.66
405.097	140.46
405.306	124.07
405.515	128.17
405.724	130.22
405.933	177.32
406.142	85.16
406.35	197.8
406.559	140.46
406.768	111.78
406.977	189.61
407.185	175.27
407.394	134.31
407.603	156.84
407.812	263.33
408.02	191.66
408.229	257.19
408.438	208.04
408.646	95.4
408.855	246.95
409.064	242.85
409.272	287.91
409.481	244.9
409.69	234.66
409.898	273.57
410.107	271.53
410.315	304.29
410.524	230.57
410.733	375.97
410.941	304.29
411.15	357.54
411.358	330.92
411.567	304.29
411.775	306.34
411.984	386.21
412.192	386.21
412.401	414.88
412.609	404.64
412.818	494.76
413.026	451.75
413.234	378.02
413.443	435.36
413.651	439.46
413.86	439.46
414.068	494.76
414.276	568.48
414.485	461.99
414.693	552.1
414.901	601.25
415.11	631.97
415.318	586.91
415.526	685.22
415.734	562.34
415.943	709.79
416.151	668.83
416.359	701.6
416.567	664.74
416.776	818.33
416.984	904.35
417.192	869.53
417.4	771.23
417.608	787.61
417.817	980.12
418.025	937.12
418.233	1008.8
418.441	1023.13
418.649	953.5
418.857	1076.38
419.065	1115.29
419.273	1107.1
419.481	1129.63
419.689	1139.87
419.897	1270.94
420.105	1285.27
420.313	1377.43
420.521	1434.77
420.729	1352.85
420.937	1352.85
421.145	1557.65
421.353	1604.75
421.561	1584.27
421.769	1635.47
421.977	1737.87
422.185	1637.52
422.393	1789.07
422.601	1801.36
422.809	1893.52
423.017	1987.72
423.224	2024.59
423.432	2145.42
423.64	2163.85
423.848	2368.65
424.056	2112.65
424.263	2245.77
424.471	2321.54
424.679	2516.1
424.887	2555.01
425.094	2577.54
425.302	2677.89
425.51	2692.23
425.718	2811.01
425.925	2942.08
426.133	3083.39
426.341	3124.35
426.548	3269.75
426.756	3316.86
426.964	3296.38
427.171	3388.53
427.379	3523.7
427.586	3675.25
427.794	3748.98
428.001	3839.09
428.209	4007.02
428.417	3884.14
428.624	4215.91
428.832	4297.83
429.039	4088.94
429.247	4228.2
429.454	4648.04
429.662	4990.05
429.869	4588.64
430.076	4932.7
430.284	4854.88
430.491	5069.92
430.699	5354.58
430.906	5348.44
431.114	5432.41
431.321	5612.63
431.528	5811.28
431.736	6108.24
431.943	6313.03
432.15	6120.53
432.358	6267.98
432.565	6753.35
432.772	6550.6
432.979	6868.03
433.187	6974.53
433.394	6956.1
433.601	7484.47
433.808	7603.25
434.016	7554.1
434.223	7754.8
434.43	8086.58
434.637	7955.51
434.844	8733.73
435.052	8795.17
435.259	8760.36
435.466	8737.83
435.673	8735.78
435.88	9333.79
436.087	9810.96
436.294	9778.2
436.501	9552.92
436.708	9743.38
436.915	10130.45
437.122	10568.71
437.329	10480.65
437.537	10742.79
437.743	11103.23
437.95	10892.29
438.157	11619.32
438.364	11727.86
438.571	11822.07
438.778	11975.67
438.985	13040.61
439.192	12444.65
439.399	12942.31
439.606	12790.76
439.813	13550.56
440.02	14078.93
440.227	13861.85
440.433	13786.07
440.64	14382.03
440.847	14011.35
441.054	14457.81
441.261	14975.94
441.467	15281.09
441.674	15633.34
441.881	16141.24
442.088	15907.77
442.294	15836.09
442.501	16100.28
442.708	16483.25
442.914	17077.16
443.121	18101.14
443.328	17523.62
443.534	18824.08
443.741	18211.73
443.948	17777.56
444.154	19344.26
444.361	19088.26
444.568	19012.49
444.774	19166.09
444.981	19491.71
445.187	20136.82
445.394	20620.14
445.6	20577.14
445.807	22491.99
446.013	21334.89
446.22	21713.76
446.426	22512.47
446.633	22973.26
446.839	23614.27
447.046	22817.61
447.252	24032.06
447.459	23978.81
447.665	23757.63
447.871	24867.63
448.078	26311.45
448.284	24783.66
448.491	25391.91
448.697	26329.88
448.903	27122.44
449.11	27077.39
449.316	26637.08
449.522	27085.58
449.728	27865.86
449.935	28148.48
450.141	27835.14
450.347	28758.77
450.553	27785.99
450.76	28224.25
450.966	28953.33
451.172	28703.48
451.378	29580.01
451.584	28963.57
451.791	29868.77
451.997	29360.87
452.203	30173.92
452.409	30114.53
452.615	29684.45
452.821	28797.68
453.027	28474.1
453.233	30100.19
453.44	29125.36
453.646	29403.88
453.852	29500.14
454.058	30196.45
454.264	29027.06
454.47	29885.15
454.676	29065.97
454.882	29975.27
455.088	27253.51
455.294	27890.43
455.5	28408.57
455.705	28627.7
455.911	27427.59
456.117	27054.86
456.323	26592.02
456.529	25541.41
456.735	26311.45
456.941	25660.2
457.147	25006.89
457.352	24642.35
457.558	24343.35
457.764	24417.08
457.97	23874.37
458.176	23530.31
458.381	23237.45
458.587	22160.22
458.793	22616.91
458.999	21052.27
459.204	23038.8
459.41	22088.54
459.616	20849.52
459.821	20728.69
460.027	20593.52
460.233	19909.5
460.438	19219.33
460.644	19366.79
460.85	18563.98
461.055	18281.36
461.261	18248.6
461.466	16569.26
461.672	16057.27
461.878	17263.52
462.083	16409.52
462.289	16069.56
462.494	15616.96
462.7	15025.09
462.905	14820.3
463.111	15320
463.316	15289.28
463.522	14961.61
463.727	14955.46
463.932	14822.34
464.138	14801.86
464.343	15100.87
464.549	14414.8
464.754	14844.87
464.959	14666.7
465.165	14386.13
465.37	13865.94
465.575	13650.91
465.781	14089.17
465.986	14058.45
466.191	13691.87
466.397	13448.16
466.602	12792.81
466.807	13304.8
467.012	13542.36
467.218	13175.78
467.423	13108.19
467.628	13050.85
467.833	13734.87
468.038	13120.48
468.244	12829.67
468.449	13413.34
468.654	12887.01
468.859	12966.88
469.064	12534.76
469.269	12370.93
469.474	12303.34
469.679	12692.46
469.885	12450.8
470.09	12350.45
470.295	12141.55
470.5	12037.11
470.705	12174.32
470.91	11797.49
471.115	11774.97
471.32	11807.73
471.525	11713.53
471.73	11600.89
471.935	11381.76
472.139	11308.03
472.344	11510.78
472.549	11275.26
472.754	11002.88
472.959	10667.02
473.164	10607.62
473.369	10529.8
473.574	10963.97
473.778	10773.51
473.983	10486.79
474.188	10664.97
474.393	10343.44
474.598	10185.74
474.802	9952.27
475.007	10046.48
475.212	10193.94
475.417	9729.05
475.621	9692.18
475.826	9675.8
476.031	9589.78
476.235	9315.36
476.44	9401.37
476.645	9323.55
476.849	9311.26
477.054	9319.45
477.259	8985.63
477.463	9045.02
477.668	8868.9
477.872	9096.22
478.077	8795.17
478.282	8748.07
478.486	8408.11
478.691	8492.07
478.895	8406.06
479.1	8352.81
479.304	8326.19
479.509	7978.03
479.713	8279.08
479.918	8143.92
480.122	8049.71
480.326	8096.82
480.531	8287.28
480.735	8152.11
480.94	8012.85
481.144	8035.38
481.348	7873.59
481.553	7892.02
481.757	7697.46
481.961	7654.45
482.166	7851.06
482.37	7816.24
482.574	7713.84
482.778	7910.45
482.983	8047.66
483.187	7726.13
483.391	7613.49
483.595	7875.63
483.8	7615.54
484.004	7709.75
484.208	7801.91
484.412	7787.57
484.616	7783.48
484.821	7715.89
485.025	7670.84
485.229	7576.63
485.433	7797.81
485.637	7644.21
485.841	7670.84
486.045	7654.45
486.249	7791.67
486.453	7812.15
486.657	7578.68
486.861	7709.75
487.065	7423.03
487.269	7580.73
487.473	7576.63
487.677	7760.95
487.881	7664.69
488.085	7713.84
488.289	7908.4
488.493	7814.2
488.697	7693.37
488.901	7529.53
489.105	7760.95
489.309	7648.31
489.512	7812.15
489.716	7832.63
489.92	7824.44
490.124	7826.48
490.328	7930.93
490.531	7685.17
490.735	7908.4
490.939	7877.68
491.143	7744.56
491.346	7801.91
491.55	8049.71
491.754	7945.27
491.958	8078.38
492.161	7945.27
492.365	8197.17
492.569	8029.23
492.772	7988.27
492.976	8195.12
493.18	8250.41
493.383	8361
493.587	8283.18
493.79	8418.35
493.994	8408.11
494.197	8299.56
494.401	8557.61
494.605	8549.42
494.808	8492.07
495.012	8399.91
495.215	8660.01
495.419	8967.2
495.622	8774.69
495.825	8864.8
496.029	9040.93
496.232	9104.42
496.436	9145.38
496.639	9397.28
496.843	9172
497.046	9405.47
497.249	9518.11
497.453	9520.15
497.656	9489.43
497.859	9634.84
498.063	9679.89
498.266	9993.23
498.469	9987.09
498.673	9921.56
498.876	10165.26
499.079	10169.36
499.282	10259.47
499.485	10451.98
499.689	10546.19
499.892	10585.1
500.095	10732.55
500.298	10978.31
500.501	10916.87
500.705	11144.19
500.908	11385.85
501.111	11441.15
501.314	11508.73
501.517	11516.92
501.72	11674.62
501.923	11807.73
502.126	12033.01
502.329	12215.28
502.532	12280.82
502.735	12307.44
502.938	12452.84
503.141	12620.78
503.344	12825.57
503.547	12868.58
503.75	13280.22
503.953	13325.28
504.156	13384.67
504.359	13487.07
504.562	13476.83
504.765	13956.05
504.968	14070.74
505.17	14248.91
505.373	14003.16
505.576	14394.32
505.779	14470.09
505.982	14635.98
506.185	14937.03
506.387	14906.31
506.59	15107.01
506.793	15608.76
506.996	15332.29
507.198	15653.82
507.401	15594.43
507.604	15727.55
507.807	16098.23
508.009	16081.85
508.212	16409.52
508.415	16640.94
508.617	16688.04
508.82	17021.86
509.022	16581.55
509.225	17267.62
509.428	17490.85
509.63	17464.22
509.833	17712.03
510.035	18254.74
510.238	17779.61
510.44	18035.61
510.643	18391.95
510.845	18414.48
511.048	18373.52
511.25	18875.27
511.453	18951.05
511.655	19573.63
511.858	19356.55
512.06	19657.6
512.262	19665.79
512.465	19991.42
512.667	20099.96
512.87	20462.45
513.072	20327.28
513.274	21136.23
513.477	20790.13
513.679	21123.94
513.881	21437.28
514.084	21445.48
514.286	21140.33
514.488	21875.55
514.69	22322.01
514.893	22311.77
515.095	22401.88
515.297	22801.23
515.499	23118.67
515.701	23046.99
515.904	23489.35
516.106	23094.09
516.308	23362.37
516.51	23524.16
516.712	23896.89
516.914	24384.31
517.116	24535.86
517.318	24703.79
517.52	24611.64
517.722	24798
517.925	25518.89
518.127	25621.28
518.329	25445.16
518.531	25629.48
518.733	26088.22
518.935	26108.7
519.136	26184.48
519.338	26669.84
519.54	26991.37
519.742	26796.82
519.944	26925.84
520.146	27493.13
520.348	27648.77
520.55	27855.62
520.752	28093.18
520.954	28584.69
521.155	28214.01
521.357	28863.22
521.559	28705.52
521.761	29127.41
521.963	28984.05
522.164	29373.16
522.366	29289.2
522.568	29680.36
522.77	29903.59
522.971	30290.65
523.173	29958.88
523.375	30536.41
523.576	30595.8
523.778	30786.26
523.98	31152.85
524.181	31281.87
524.383	31029.97
524.584	31355.6
524.786	31480.52
524.988	31292.11
525.189	31664.84
525.391	32346.81
525.592	32088.77
525.794	32246.46
525.995	32500.41
526.197	32082.63
526.398	32547.51
526.6	32658.1
526.801	32785.08
527.003	32987.83
527.204	32903.86
527.406	33374.89
527.607	33174.19
527.808	33723.05
528.01	33303.21
528.211	33409.71
528.412	34165.41
528.614	33749.67
528.815	33899.17
529.016	34134.69
529.218	33925.8
529.419	34155.17
529.62	33809.06
529.822	34202.27
530.023	33983.14
530.224	34298.53
530.425	34253.47
530.626	33972.9
530.828	33936.04
531.029	35095.19
531.23	34423.45
531.431	34525.85
531.632	34710.17
531.833	34658.97
532.035	34562.72
532.236	34486.94
532.437	34462.36
532.638	34575
532.839	34828.95
533.04	34775.7
533.241	34280.1
533.442	34992.79
533.643	34865.81
533.844	34847.38
534.045	34865.81
534.246	34527.9
534.447	35007.12
534.648	34863.77
534.849	35381.9
535.05	34726.55
535.251	35273.36
535.451	34665.11
535.652	35191.44
535.853	34755.22
536.054	34751.13
536.255	35132.05
536.456	34937.49
536.657	35476.11
536.857	34867.86
537.058	34593.43
537.259	34974.36
537.46	34912.92
537.66	34732.7
537.861	34884.25
538.062	34955.93
538.263	35211.92
538.463	34867.86
538.664	34816.66
538.865	35312.27
539.065	35199.63
539.266	34816.66
539.466	35377.81
539.667	34488.99
539.868	35287.7
540.068	35105.43
540.269	35130
540.469	35480.21
540.67	34837.14
540.87	34937.49
541.071	34726.55
541.271	35054.23
541.472	34888.34
541.672	34773.66
541.873	34740.89
542.073	34554.52
542.274	35015.32
542.474	34966.17
542.675	34472.6
542.875	35332.75
543.075	34685.59
543.276	34261.66
543.476	35136.15
543.676	34699.93
543.877	34888.34
544.077	34730.65
544.277	34951.83
544.478	34544.28
544.678	34986.64
544.878	34589.34
545.078	34980.5
545.279	34433.69
545.479	34423.45
545.679	34792.09
545.879	34736.79
546.079	34390.69
546.28	34566.81
546.48	34200.22
546.68	34673.31
546.88	34658.97
547.08	34525.85
547.28	34650.78
547.48	34226.85
547.68	34419.36
547.88	34445.98
548.081	34724.5
548.281	34503.32
548.481	34321.05
548.681	34757.27
548.881	34626.2
549.081	34300.58
549.28	34712.22
549.48	34511.52
549.68	34007.72
549.88	34804.38
550.08	34165.41
550.28	34470.56
550.48	34187.94
550.68	34478.75
550.88	34347.68
551.08	34255.52
551.279	34480.8
551.479	34304.67
551.679	34470.56
551.879	33966.76
552.079	34445.98
552.278	34634.39
552.478	34071.2
552.678	34224.8
552.878	34245.28
553.077	34040.48
553.277	33870.5
553.477	34732.7
553.676	34341.53
553.876	33811.11
554.076	33731.24
554.275	33936.04
554.475	33725.1
554.674	33766.06
554.874	34169.51
555.074	33841.83
555.273	33952.42
555.473	34382.49
555.672	33618.6
555.872	33643.18
556.071	33854.12
556.271	33952.42
556.47	33766.06
556.67	33458.86
556.869	33663.66
557.068	33594.03
557.268	33436.33
557.467	33362.61
557.667	33594.03
557.866	33563.31
558.065	33501.87
558.265	33430.19
558.464	33147.57
558.663	33477.29
558.863	33200.82
559.062	33487.53
559.261	32828.09
559.461	33354.41
559.66	32762.55
559.859	33323.69
560.058	32891.57
560.258	32993.97
560.457	32635.58
560.656	33125.04
560.855	32645.82
561.054	33172.14
561.253	32633.53
561.453	32780.98
561.652	32686.78
561.851	32580.28
562.05	32348.86
562.249	32428.73
562.448	32664.25
562.647	32309.95
562.846	32275.13
563.045	32537.27
563.244	32060.1
563.443	32625.34
563.642	31830.72
563.841	31871.68
564.04	31935.17
564.239	32322.24
564.438	31875.78
564.637	31877.83
564.836	32205.5
565.035	31771.33
565.234	31761.09
565.432	31771.33
565.631	31615.69
565.83	31933.12
566.029	31343.31
566.228	31408.84
566.427	31255.25
566.625	30898.9
566.824	30814.93
567.023	31308.49
567.222	30763.73
567.42	31177.42
567.619	31316.68
567.818	30755.54
568.016	30972.63
568.215	30952.15
568.414	30915.28
568.612	30993.11
568.811	30647
569.01	30786.26
569.208	30419.67
569.407	31142.61
569.605	30022.37
569.804	30749.4
570.002	30001.89
570.201	30296.8
570.4	30268.12
570.598	30042.85
570.797	29958.88
570.995	30231.26
571.193	29432.55
571.392	30018.27
571.59	29455.08
571.789	29760.23
571.987	29680.36
572.186	29526.76
572.384	29524.71
572.582	29223.66
572.781	29555.43
572.979	29070.06
573.177	29002.48
573.376	29328.11
573.574	28893.94
573.772	29252.33
573.971	29111.02
574.169	28715.76
574.367	28736.24
574.565	28590.84
574.763	28463.86
574.962	28957.42
575.16	28322.55
575.358	28379.9
575.556	28128
575.754	28349.18
575.952	27917.06
576.151	28388.09
576.349	27798.27
576.547	27747.08
576.745	28201.72
576.943	27886.34
577.141	27923.2
577.339	28304.12
577.537	27876.1
577.735	27794.18
577.933	27458.31
578.131	27632.39
578.329	27347.72
578.527	27237.13
578.725	27089.68
578.923	27546.37
579.121	26909.46
579.319	27163.4
579.516	27138.83
579.714	27083.53
579.912	26794.77
580.11	26856.21
580.308	26802.96
580.506	26716.95
580.704	26581.78
580.901	26694.42
581.099	26594.07
581.297	26405.66
581.495	26137.37
581.692	26376.98
581.89	26063.64
582.088	26379.03
582.285	26010.4
582.483	26153.76
582.681	26000.16
582.878	25914.14
583.076	25506.6
583.274	25869.09
583.471	25621.28
583.669	25492.26
583.866	25432.87
584.064	25699.11
584.262	25131.82
584.459	25205.55
584.657	25412.39
584.854	25568.04
585.052	24662.83
585.249	25203.5
585.447	24972.08
585.644	24458.04
585.841	24771.38
586.039	25189.16
586.236	24570.68
586.434	24863.54
586.631	24431.41
586.828	24300.34
587.026	24466.23
587.223	24507.19
587.42	24161.08
587.618	24308.54
587.815	24187.71
588.012	24257.34
588.21	24079.16
588.407	24386.36
588.604	23896.89
588.801	23728.96
588.999	23675.71
589.196	23890.75
589.393	23712.58
589.59	23456.58
589.787	23477.06
589.984	23601.99
590.182	23202.63
590.379	23515.97
590.576	23327.56
590.773	23126.86
590.97	23159.63
591.167	23067.47
591.364	22729.55
591.561	23151.43
591.758	22842.19
591.955	22725.46
592.152	22569.81
592.349	22750.03
592.546	22586.19
592.743	22684.5
592.94	22608.72
593.137	22498.13
593.334	22602.58
593.531	22117.21
593.727	22192.98
593.924	22428.5
594.121	21914.46
594.318	22145.88
594.515	22012.76
594.712	21939.04
594.908	21801.82
595.105	21547.87
595.302	21644.13
595.499	21631.84
595.696	21683.04
595.892	21519.2
596.089	21750.62
596.286	21842.78
596.482	21353.32
596.679	21166.95
596.876	21410.66
597.072	21236.58
597.269	21207.91
597.466	21222.25
597.662	20886.38
597.859	20923.24
598.055	20732.78
598.252	20665.2
598.448	20831.08
598.645	21021.55
598.841	20405.11
599.038	20487.03
599.234	20484.98
599.431	20499.31
599.627	20433.78
599.824	20634.48
600.02	20437.87
600.217	20487.03
600.413	20034.42
600.609	19893.12
600.806	20194.17
601.002	20015.99
601.198	19706.75
601.395	19807.1
601.591	19747.71
601.787	19641.21
601.984	19622.78
602.18	19751.81
602.376	19696.51
602.572	19286.92
602.769	19452.8
602.965	19348.36
603.161	19637.12
603.357	19200.9
603.553	19116.93
603.75	19161.99
603.946	18957.19
604.142	19221.38
604.338	18688.91
604.534	18903.95
604.73	18844.56
604.926	18650
605.122	18752.4
605.318	18672.53
605.514	18748.3
605.71	18369.43
605.906	18549.65
606.102	18252.69
606.298	18680.72
606.494	18150.29
606.69	18414.48
606.886	18480.02
607.082	17988.5
607.278	18340.75
607.474	17976.22
607.67	18209.68
607.866	17978.26
608.062	18092.95
608.257	17974.17
608.453	18092.95
608.649	18031.51
608.845	17705.88
609.041	17793.95
609.236	17658.78
609.432	17689.5
609.628	17730.46
609.824	17853.34
610.019	17542.05
610.215	17744.8
610.411	17593.25
610.606	17202.08
610.802	17421.22
610.998	17630.11
611.193	17355.68
611.389	17345.44
611.584	17281.95
611.78	17279.91
611.976	17009.58
612.171	17443.74
612.367	17212.32
612.562	17226.66
612.758	16735.15
612.953	17013.67
613.149	17122.21
613.344	16804.78
613.539	17400.74
613.735	16921.51
613.93	17040.29
614.126	16782.25
614.321	17111.97
614.517	16790.44
614.712	16812.97
614.907	16802.73
615.103	16970.66
615.298	16591.79
615.493	16993.19
615.688	16337.84
615.884	17036.2
616.079	16499.63
616.274	16642.99
616.47	16421.81
616.665	16442.29
616.86	16577.45
617.055	16323.51
617.25	16204.72
617.445	16384.94
617.641	16292.79
617.836	16262.07
618.031	15801.27
618.226	16360.37
618.421	16102.32
618.616	16356.27
618.811	15817.66
619.006	15893.43
619.201	15401.92
619.396	15797.18
619.591	15797.18
619.786	15745.98
619.981	15446.97
620.176	15862.71
620.371	15463.36
620.566	15354.82
620.761	15213.51
620.956	15256.51
621.151	15098.82
621.346	15096.77
621.541	14922.69
621.735	15123.4
621.93	14721.99
622.125	14773.19
622.32	14476.24
622.515	14857.16
622.709	14664.65
622.904	14652.36
623.099	14588.88
623.294	14584.78
623.488	14330.83
623.683	14138.32
623.878	14101.46
624.072	14164.95
624.267	14128.08
624.462	13894.61
624.656	13917.14
624.851	13872.09
625.046	13704.15
625.24	13775.83
625.435	13587.42
625.629	13546.46
625.824	13579.23
626.018	13554.65
626.213	13374.43
626.407	13130.72
626.602	13116.39
626.796	13261.79
626.991	13085.67
627.185	12815.34
627.38	12973.03
627.574	13052.9
627.768	12819.43
627.963	12813.29
628.157	12588.01
628.352	12676.07
628.546	12372.97
628.74	12479.47
628.935	12391.41
629.129	12372.97
629.323	12033.01
629.517	12207.09
629.712	12170.22
629.906	11930.61
630.1	12096.5
630.294	12033.01
630.489	11645.94
630.683	12043.25
630.877	11785.21
631.071	11588.6
631.265	11457.53
631.459	11482.11
631.653	11392
631.848	11449.34
632.042	11166.72
632.236	11244.54
632.43	11191.3
632.624	11170.82
632.818	11062.27
633.012	11002.88
633.206	11191.3
633.4	11195.39
633.594	10839.05
633.788	10900.48
633.982	10914.82
634.176	10685.45
634.369	10642.44
634.563	10650.63
634.757	10658.82
634.951	10382.35
635.145	10560.52
635.339	10458.12
635.533	10365.96
635.726	10191.89
635.92	10073.1
636.114	10257.42
636.308	10155.02
636.501	10210.32
636.695	10028.05
636.889	10089.49
637.083	9892.88
637.276	9653.27
637.47	9739.29
637.664	9614.36
637.857	9810.96
638.051	9653.27
638.244	9692.18
638.438	9663.51
638.632	9380.89
638.825	9423.9
639.019	9407.52
639.212	9434.14
639.406	9405.47
639.599	9266.21
639.793	9309.21
639.986	9057.31
640.18	9206.81
640.373	9065.5
640.567	8840.23
640.76	9045.02
640.954	9016.35
641.147	8791.08
641.34	8772.64
641.534	8999.97
641.727	8719.4
641.92	8684.58
642.114	8619.05
642.307	8676.39
642.5	8561.7
642.694	8387.63
642.887	8406.06
643.08	8487.98
643.273	8471.59
643.467	8262.7
643.66	8320.04
643.853	8191.02
644.046	8148.01
644.239	8195.12
644.432	7957.55
644.626	7928.88
644.819	8217.65
645.012	8127.53
645.205	8027.18
645.398	8018.99
645.591	7826.48
645.784	7967.79
645.977	7808.05
646.17	7799.86
646.363	7533.62
646.556	7660.6
646.749	7648.31
646.942	7566.39
647.135	7472.18
647.328	7339.07
647.521	7603.25
647.714	7427.13
647.907	7343.16
648.099	7310.4
648.292	7361.59
648.485	7367.74
648.678	7177.28
648.871	7107.65
649.064	7246.91
649.256	7046.21
649.449	7234.62
649.642	7101.5
649.835	6925.38
650.027	6992.96
650.22	6859.84
650.413	6974.53
650.605	6812.74
650.798	6800.45
650.991	6673.48
651.183	6800.45
651.376	6835.27
651.568	6583.37
651.761	6517.83
651.954	6472.78
652.146	6483.02
652.339	6585.41
652.531	6499.4
652.724	6521.93
652.916	6380.62
653.109	6442.06
653.301	6392.91
653.494	6370.38
653.686	6231.12
653.879	6278.22
654.071	6251.6
654.263	6122.57
654.456	6446.15
654.648	6263.88
654.84	6206.54
655.033	6122.57
655.225	5956.69
655.417	6136.91
655.61	6054.99
655.802	6130.77
655.994	5829.71
656.186	5925.97
656.379	5878.86
656.571	5815.38
656.763	5712.98
656.955	5749.84
657.148	5760.08
657.34	5633.11
657.532	5692.5
657.724	5602.39
657.916	5559.38
658.108	5637.2
658.3	5456.98
658.492	5616.72
658.684	5481.56
658.876	5506.13
659.068	5493.85
659.26	5235.8
659.452	5459.03
659.644	5481.56
659.836	5229.66
660.028	5411.93
660.22	5031.01
660.412	5059.68
660.604	5262.43
660.796	5344.35
660.988	5278.81
661.18	5047.39
661.372	5008.48
661.563	5121.12
661.755	4875.36
661.947	4932.7
662.139	4887.65
662.331	4961.37
662.522	4975.71
662.714	4920.42
662.906	4811.87
663.097	4695.14
663.289	4975.71
663.481	4811.87
663.673	4715.62
663.864	4807.78
664.056	4738.15
664.247	4824.16
664.439	4713.57
664.631	4609.12
664.822	4711.52
665.014	4562.02
665.205	4549.73
665.397	4521.06
665.588	4519.01
665.78	4619.36
665.971	4449.38
666.163	4473.96
666.354	4420.71
666.546	4361.32
666.737	4224.11
666.929	4351.08
667.12	4408.42
667.311	4314.22
667.503	4351.08
667.694	4228.2
667.885	4332.65
668.077	4457.57
668.268	4310.12
668.459	4346.98
668.651	4263.02
668.842	4158.57
669.033	4207.72
669.224	4109.42
669.416	4191.34
669.607	4066.41
669.798	4082.8
669.989	4074.6
670.18	3978.35
670.371	4105.32
670.563	3984.49
670.754	4070.51
670.945	3908.72
671.136	4056.17
671.327	3968.11
671.518	3978.35
671.709	4058.22
671.9	3921.01
672.091	3957.87
672.282	3951.73
672.473	3830.9
672.664	3830.9
672.855	3820.66
673.046	3834.99
673.237	3785.84
673.428	3730.55
673.619	3837.04
673.809	3642.48
674	3794.03
674.191	3732.59
674.382	3626.1
674.573	3581.04
674.764	3656.82
674.954	3650.67
675.145	3671.15
675.336	3554.42
675.527	3458.17
675.717	3591.28
675.908	3579
676.099	3552.37
676.289	3509.37
676.48	3466.36
676.671	3515.51
676.861	3609.72
677.052	3515.51
677.243	3439.73
677.433	3482.74
677.624	3589.24
677.814	3413.11
678.005	3613.81
678.195	3654.77
678.386	3386.49
678.576	3359.86
678.767	3419.25
678.957	3409.01
679.148	3366.01
679.338	3372.15
679.529	3433.59
679.719	3357.82
679.909	3431.54
680.1	3245.18
680.29	3343.48
680.481	3259.51
680.671	3236.99
680.861	3282.04
681.052	3310.71
681.242	3224.7
681.432	3306.62
681.622	3269.75
681.813	3228.79
682.003	3236.99
682.193	3310.71
682.383	3196.03
682.573	3253.37
682.764	3204.22
682.954	3257.46
683.144	3304.57
683.334	3105.92
683.524	3130.49
683.714	3085.44
683.904	3048.57
684.094	3101.82
684.284	3073.15
684.474	3181.69
684.664	3026.04
684.854	3134.59
685.044	3097.72
685.234	2909.31
685.424	3001.47
685.614	3064.96
685.804	3005.56
685.994	3044.48
686.184	2999.42
686.374	2925.69
686.564	3026.04
686.753	2974.85
686.943	2985.09
687.133	2870.4
687.323	2839.68
687.513	2894.97
687.702	2862.21
687.892	2884.73
688.082	2860.16
688.272	2995.32
688.461	2774.14
688.651	2913.41
688.841	2815.1
689.03	2743.42
689.22	2753.66
689.41	2827.39
689.599	2720.9
689.789	2604.16
689.979	2919.55
690.168	2606.21
690.358	2802.82
690.547	2747.52
690.737	2673.79
690.926	2634.88
691.116	2700.42
691.305	2741.38
691.495	2579.59
691.684	2583.68
691.874	2649.22
692.063	2616.45
692.252	2643.07
692.442	2641.03
692.631	2466.95
692.82	2524.29
693.01	2493.57
693.199	2550.92
693.388	2499.72
693.578	2464.9
693.767	2532.48
693.956	2493.57
694.146	2522.24
694.335	2438.28
694.524	2526.34
694.713	2473.09
694.902	2469
695.092	2309.26
695.281	2397.32
695.47	2440.33
695.659	2389.13
695.848	2296.97
696.037	2335.88
696.226	2395.27
696.415	2358.41
696.604	2393.22
696.793	2395.27
696.982	2397.32
697.171	2399.37
697.36	2344.07
697.549	2407.56
697.738	2280.58
697.927	2278.54
698.116	2323.59
698.305	2380.93
698.494	2319.5
698.683	2278.54
698.872	2313.35
699.061	2286.73
699.25	2321.54
699.438	2366.6
699.627	2217.1
699.816	2231.43
700.005	2251.91
700.193	2239.62
700.382	2184.33
700.571	2282.63
700.76	2217.1
700.948	2229.38
701.137	2217.1
701.326	2196.62
701.514	2155.66
701.703	2233.48
701.892	2235.53
702.08	2188.43
702.269	2174.09
702.457	2368.65
702.646	2196.62
702.834	2180.23
703.023	2122.89
703.212	2131.08
703.4	2135.18
703.589	2036.88
703.777	2098.31
703.965	2172.04
704.154	2129.03
704.342	2161.8
704.531	2204.81
704.719	2122.89
704.907	2258.06
705.096	2151.56
705.284	2122.89
705.472	2239.62
705.661	2075.79
705.849	2147.47
706.037	2094.22
706.226	2215.05
706.414	2262.15
706.602	2051.21
706.79	2149.51
706.979	2055.31
707.167	2065.55
707.355	2081.93
707.543	2204.81
707.731	2053.26
707.919	2114.7
708.107	2086.03
708.296	2067.6
708.484	2067.6
708.672	2116.75
708.86	2081.93
709.048	2184.33
709.236	2198.67
709.424	2159.75
709.612	2010.25
709.8	2020.49
709.988	2126.99
710.176	2137.23
710.364	2126.99
710.551	2012.3
710.739	2034.83
710.927	2024.59
711.115	2038.92
711.303	2028.68
711.491	2069.64
711.679	2075.79
711.866	2139.27
712.054	2098.31
712.242	2063.5
712.43	2110.6
712.617	2100.36
712.805	2206.86
712.993	2106.51
713.181	2153.61
713.368	2073.74
713.556	2126.99
713.744	2008.2
713.931	2069.64
714.119	2057.36
714.306	2143.37
714.494	2083.98
714.682	2002.06
714.869	2020.49
715.057	1959.05
715.244	2063.5
715.432	2016.4
715.619	2096.27
715.807	2131.08
715.994	2040.97
716.182	2147.47
716.369	2102.41
716.556	2075.79
716.744	1995.92
716.931	2092.17
717.119	2059.4
717.306	2114.7
717.493	2190.47
717.681	2073.74
717.868	2157.71
718.055	1987.72
718.242	2098.31
718.43	2024.59
718.617	2049.16
718.804	2024.59
718.991	2126.99
719.179	2065.55
719.366	2028.68
719.553	2057.36
719.74	2053.26
719.927	2026.64
720.114	2040.97
720.301	2081.93
720.488	2086.03
720.676	2028.68
720.863	2139.27
721.05	2083.98
721.237	2073.74
721.424	2059.4
721.611	2122.89
721.798	1950.86
721.985	2114.7
722.172	2106.51
722.358	2081.93
722.545	2077.83
722.732	1918.09
722.919	2108.55
723.106	2131.08
723.293	2036.88
723.48	2196.62
723.667	2020.49
723.853	2063.5
724.04	2100.36
724.227	2008.2
724.414	2038.92
724.6	2053.26
724.787	2045.07
724.974	2075.79
725.161	2000.01
725.347	2100.36
725.534	2090.12
725.72	2049.16
725.907	2135.18
726.094	2081.93
726.28	1987.72
726.467	2131.08
726.653	2022.54
726.84	2096.27
727.027	2094.22
727.213	2071.69
727.4	2180.23
727.586	2010.25
727.773	1952.91
727.959	2086.03
728.145	2059.4
728.332	2024.59
728.518	1942.67
728.705	2073.74
728.891	2043.02
729.077	2135.18
729.264	2104.46
729.45	2094.22
729.636	2073.74
729.823	1979.53
730.009	1983.63
730.195	2010.25
730.382	2067.6
730.568	2061.45
730.754	1926.29
730.94	2124.94
731.126	2114.7
731.313	2010.25
731.499	2098.31
731.685	2024.59
731.871	2045.07
732.057	2032.78
732.243	2010.25
732.429	2016.4
732.615	2151.56
732.801	2012.3
732.987	2108.55
733.173	2098.31
733.359	2057.36
733.545	2069.64
733.731	2004.11
733.917	2065.55
734.103	2102.41
734.289	2090.12
734.475	2006.16
734.661	2083.98
734.847	2028.68
735.033	2081.93
735.219	2073.74
735.404	1969.29
735.59	2075.79
735.776	2045.07
735.962	2053.26
736.148	2165.9
736.333	2032.78
736.519	2106.51
736.705	2073.74
736.89	1920.14
737.076	2000.01
737.262	2016.4
737.447	1979.53
737.633	2129.03
737.819	1881.23
738.004	1957
738.19	1969.29
738.375	1987.72
738.561	2018.44
738.747	1840.27
738.932	1895.57
739.118	2000.01
739.303	1954.96
739.489	1961.1
739.674	1969.29
739.859	2065.55
740.045	1991.82
740.23	1942.67
740.416	1877.13
740.601	2049.16
740.786	2047.12
740.972	1961.1
741.157	1918.09
741.342	1875.09
741.528	1889.42
741.713	1916.05
741.898	1914
742.084	1926.29
742.269	1838.22
742.454	1805.46
742.639	1987.72
742.824	1864.85
743.01	1946.76
743.195	1985.68
743.38	1856.65
743.565	1784.98
743.75	1787.02
743.935	1819.79
744.12	1799.31
744.305	1762.45
744.49	1787.02
744.675	1827.98
744.86	1758.35
745.045	1754.26
745.23	1770.64
745.415	1770.64
745.6	1787.02
745.785	1795.22
745.97	1883.28
746.155	1778.83
746.34	1717.39
746.525	1780.88
746.71	1678.48
746.895	1707.15
747.079	1713.3
747.264	1754.26
747.449	1750.16
747.634	1684.62
747.819	1627.28
748.003	1664.15
748.188	1621.14
748.373	1649.81
748.557	1576.08
748.742	1588.37
748.927	1582.23
749.111	1606.8
749.296	1602.71
749.481	1645.71
749.665	1559.7
749.85	1563.79
750.034	1582.23
750.219	1606.8
750.404	1524.88
750.588	1559.7
750.773	1549.46
750.957	1590.42
751.141	1508.5
751.326	1488.02
751.51	1395.86
751.695	1352.85
751.879	1557.65
752.064	1543.32
752.248	1553.55
752.432	1524.88
752.617	1377.43
752.801	1528.98
752.985	1410.2
753.17	1473.68
753.354	1475.73
753.538	1422.48
753.722	1301.65
753.907	1262.74
754.091	1430.68
754.275	1338.52
754.459	1320.09
754.643	1303.7
754.828	1303.7
755.012	1229.98
755.196	1414.29
755.38	1354.9
755.564	1238.17
755.748	1275.03
755.932	1320.09
756.116	1281.18
756.3	1252.5
756.484	1285.27
756.668	1315.99
756.852	1209.5
757.036	1264.79
757.22	1176.73
757.404	1248.41
757.588	1217.69
757.772	1205.4
757.956	1242.26
758.14	1127.58
758.323	1246.36
758.507	1254.55
758.691	1174.68
758.875	1193.11
759.059	1281.18
759.242	1250.46
759.426	1143.96
759.61	1115.29
759.794	1123.48
759.977	1131.67
760.161	1082.52
760.345	1074.33
760.528	1137.82
760.712	1098.91
760.895	1090.71
761.079	1156.25
761.263	1098.91
761.446	1035.42
761.63	1152.15
761.813	1000.6
761.997	1041.56
762.18	1016.99
762.364	1045.66
762.547	904.35
762.731	1033.37
762.914	1057.95
763.098	971.93
763.281	971.93
763.464	1076.38
763.648	1035.42
763.831	1064.09
764.015	1016.99
764.198	955.55
764.381	1037.47
764.564	1039.51
764.748	1029.27
764.931	955.55
765.114	945.31
765.297	1047.71
765.481	937.12
765.664	937.12
765.847	951.45
766.03	955.55
766.213	898.2
766.397	908.44
766.58	973.98
766.763	928.92
766.946	828.57
767.129	914.59
767.312	875.68
767.495	814.24
767.678	885.92
767.861	945.31
768.044	994.46
768.227	890.01
768.41	859.29
768.593	910.49
768.776	926.88
768.959	926.88
769.142	951.45
769.324	910.49
769.507	838.81
769.69	795.81
769.873	816.29
770.056	988.32
770.239	894.11
770.421	879.77
770.604	873.63
770.787	824.48
770.97	969.88
771.152	808.09
771.335	834.72
771.518	847.01
771.7	830.62
771.883	908.44
772.066	769.18
772.248	746.66
772.431	865.44
772.613	844.96
772.796	773.28
772.978	777.37
773.161	861.34
773.343	865.44
773.526	697.5
773.708	853.15
773.891	703.65
774.073	746.66
774.256	783.52
774.438	797.85
774.621	756.9
774.803	722.08
774.985	615.59
775.168	660.64
775.35	740.51
775.532	822.43
775.715	722.08
775.897	756.9
776.079	722.08
776.261	689.31
776.444	740.51
776.626	826.53
776.808	644.26
776.99	625.83
777.173	699.55
777.355	646.3
777.537	779.42
777.719	681.12
777.901	677.02
778.083	652.45
778.265	593.06
778.447	693.41
778.629	672.93
778.811	666.78
778.993	660.64
779.175	607.39
779.357	660.64
779.539	543.91
779.721	607.39
779.903	623.78
780.085	586.91
780.267	548
780.449	625.83
780.631	595.11
780.812	644.26
780.994	627.87
781.176	574.63
781.358	535.71
781.54	548
781.721	629.92
781.903	574.63
782.085	566.43
782.267	533.67
782.448	523.43
782.63	584.87
782.812	566.43
782.993	550.05
783.175	513.19
783.357	529.57
783.538	445.6
783.72	507.04
783.901	552.1
784.083	550.05
784.264	476.32
784.446	523.43
784.627	480.42
784.809	582.82
784.99	402.6
785.172	461.99
785.353	484.52
785.535	496.8
785.716	412.84
785.897	404.64
786.079	433.32
786.26	443.56
786.441	443.56
786.623	457.89
786.804	427.17
786.985	418.98
787.167	457.89
787.348	455.84
787.529	394.4
787.71	457.89
787.891	418.98
788.073	371.88
788.254	314.53
788.435	449.7
788.616	484.52
788.797	396.45
788.978	496.8
789.159	394.4
789.34	461.99
789.522	423.08
789.703	410.79
789.884	392.36
790.065	349.35
790.246	314.53
790.427	363.69
790.607	427.17
790.788	398.5
790.969	412.84
791.15	345.25
791.331	380.07
791.512	328.87
791.693	322.73
791.874	410.79
792.054	328.87
792.235	402.6
792.416	396.45
792.597	308.39
792.778	283.81
792.958	394.4
793.139	328.87
793.32	328.87
793.5	304.29
793.681	429.22
793.862	312.49
794.042	267.43
794.223	277.67
794.404	339.11
794.584	279.72
794.765	306.34
794.945	261.29
795.126	302.25
795.306	347.3
795.487	363.69
795.667	255.14
795.848	312.49
796.028	304.29
796.209	296.1
796.389	242.85
796.57	275.62
796.75	312.49
796.93	281.77
797.111	173.22
797.291	255.14
797.471	238.76
797.652	279.72
797.832	285.86
798.012	298.15
798.192	199.85
798.373	253.09
798.553	226.47
798.733	281.77
798.913	230.57
799.093	208.04
799.274	267.43
799.454	298.15
799.634	228.52
799.814	296.1
799.994	255.14
800.174	283.81
800.354	279.72
800.534	197.8
800.714	267.43
800.894	287.91
801.074	277.67
801.254	224.42
801.434	263.33
801.614	279.72
801.794	230.57
801.974	865.44
802.154	283.81
802.334	214.18
802.514	173.22
802.693	257.19
802.873	236.71
803.053	279.72
803.233	279.72
803.413	189.61
803.592	189.61
803.772	275.62
803.952	306.34
804.131	165.03
804.311	255.14
804.491	246.95
804.67	224.42
804.85	189.61
805.03	214.18
805.209	283.81
805.389	197.8
805.568	210.09
805.748	181.42
805.928	226.47
806.107	234.66
806.287	208.04
806.466	210.09
806.646	212.14
806.825	244.9
807.004	167.08
807.184	251.05
807.363	277.67
807.543	216.23
807.722	136.36
807.901	179.37
808.081	173.22
808.26	160.94
808.439	224.42
808.619	255.14
808.798	142.5
808.977	173.22
809.156	269.48
809.336	177.32
809.515	193.7
809.694	201.9
809.873	119.98
810.052	199.85
810.231	201.9
810.411	126.12
810.59	189.61
810.769	165.03
810.948	189.61
811.127	152.74
811.306	152.74
811.485	259.24
811.664	193.7
811.843	132.26
812.022	191.66
812.201	134.31
812.38	175.27
812.559	189.61
812.737	128.17
812.916	142.5
813.095	124.07
813.274	214.18
813.453	208.04
813.632	173.22
813.811	126.12
813.989	146.6
814.168	179.37
814.347	109.74
814.526	140.46
814.704	150.7
814.883	199.85
815.062	107.69
815.24	165.03
815.419	201.9
815.598	189.61
815.776	105.64
815.955	142.5
816.133	191.66
816.312	160.94
816.49	107.69
816.669	142.5
816.847	165.03
817.026	173.22
817.204	148.65
817.383	156.84
817.561	158.89
817.74	119.98
817.918	183.46
818.097	83.11
818.275	107.69
818.453	158.89
818.632	79.02
818.81	150.7
818.988	126.12
819.167	46.25
819.345	136.36
819.523	124.07
819.701	124.07
819.879	113.83
820.058	119.98
820.236	175.27
820.414	124.07
820.592	177.32
820.77	93.35
820.948	132.26
821.127	156.84
821.305	122.02
821.483	136.36
821.661	150.7
821.839	36.01
822.017	81.07
822.195	95.4
822.373	173.22
822.551	212.14
822.729	130.22
822.907	132.26
823.085	74.92
823.262	101.55
823.44	54.44
823.618	128.17
823.796	126.12
823.974	50.35
824.152	95.4
824.329	58.54
824.507	132.26
824.685	91.31
824.863	230.57
825.04	115.88
825.218	134.31
825.396	167.08
825.574	140.46
825.751	140.46
825.929	119.98
826.107	74.92
826.284	183.46
826.462	150.7
826.639	117.93
826.817	103.59
826.994	107.69
827.172	91.31
827.349	167.08
827.527	160.94
827.704	111.78
827.882	117.93
828.059	111.78
828.237	36.01
828.414	130.22
828.591	126.12
828.769	136.36
828.946	56.49
829.124	50.35
829.301	142.5
829.478	60.59
829.655	144.55
829.833	83.11
830.01	109.74
830.187	165.03
830.364	160.94
830.542	46.25
830.719	181.42
830.896	140.46
831.073	132.26
831.25	144.55
831.427	140.46
831.604	68.78
831.782	107.69
831.959	74.92
832.136	33.96
832.313	99.5
832.49	119.98
832.667	101.55
832.844	72.87
833.021	105.64
833.198	210.09
833.374	91.31
833.551	95.4
833.728	101.55
833.905	101.55
834.082	136.36
834.259	46.25
834.436	44.2
834.612	46.25
834.789	140.46
834.966	124.07
835.143	93.35
835.319	46.25
835.496	117.93
835.673	66.73
835.85	79.02
836.026	124.07
836.203	117.93
836.38	13.48
836.556	85.16
836.733	27.82
836.909	115.88
837.086	68.78
837.262	38.06
837.439	11.43
837.616	-62.29
837.792	62.63
837.968	74.92
838.145	36.01
838.321	25.77
838.498	156.84
838.674	93.35
838.851	62.63
839.027	11.43
839.203	-0.85
839.38	50.35
839.556	124.07
839.732	140.46
839.909	68.78
840.085	87.21
840.261	95.4
840.437	40.11
840.614	5.29
840.79	99.5
840.966	83.11
841.142	36.01
841.318	115.88
841.494	58.54
841.671	83.11
841.847	9.39
842.023	103.59
842.199	85.16
842.375	85.16
842.551	74.92
842.727	-7
842.903	111.78
843.079	140.46
843.255	27.82
843.431	91.31
843.607	48.3
843.783	40.11
843.959	93.35
844.134	79.02
844.31	183.46
844.486	31.91
844.662	9.39
844.838	99.5
845.013	46.25
845.189	48.3
845.365	124.07
845.541	74.92
845.716	27.82
845.892	74.92
846.068	-37.72
846.244	50.35
846.419	74.92
846.595	52.39
846.77	46.25
846.946	27.82
847.122	50.35
847.297	70.83
847.473	85.16
847.648	-19.29
847.824	11.43
847.999	33.96
848.175	50.35
848.35	128.17
848.526	101.55
848.701	54.44
848.876	9.39
849.052	99.5
849.227	91.31
849.403	25.77
849.578	31.91
849.753	50.35
849.929	48.3
850.104	42.15
850.279	25.77
850.454	-7
850.63	58.54
850.805	58.54
850.98	52.39
851.155	-7
851.33	58.54
851.505	-17.24
851.681	76.97
851.856	68.78
852.031	109.74
852.206	83.11
852.381	33.96
852.556	1.19
852.731	9.39
852.906	27.82
853.081	42.15
853.256	93.35
853.431	44.2
853.606	50.35
853.781	66.73
853.956	38.06
854.131	66.73
854.305	52.39
854.48	93.35
854.655	5.29
854.83	107.69
855.005	64.68
855.18	29.87
855.354	5.29
855.529	66.73
855.704	19.63
855.879	76.97
856.053	68.78
856.228	31.91
856.403	-35.67
856.577	52.39
856.752	-62.29
856.926	50.35
857.101	111.78
857.276	13.48
857.45	38.06
857.625	19.63
857.799	-19.29
857.974	9.39
858.148	38.06
858.323	103.59
858.497	-47.96
858.672	1.19
858.846	-31.57
859.02	68.78
859.195	-7
859.369	40.11
859.543	105.64
859.718	-13.14
859.892	23.72
860.066	44.2
860.241	44.2
860.415	27.82
860.589	74.92
860.763	64.68
860.938	42.15
861.112	46.25
861.286	-17.24
861.46	54.44
861.634	50.35
861.808	25.77
861.982	-47.96
862.157	-70.48
862.331	27.82
862.505	11.43
862.679	-11.09
862.853	142.5
863.027	1.19
863.201	60.59
863.375	-41.81
863.549	101.55
863.722	50.35
863.896	115.88
864.07	23.72
864.244	1.19
864.418	5.29
864.592	79.02
864.766	46.25
864.939	70.83
865.113	-9.05
865.287	60.59
865.461	-23.38
865.634	62.63
865.808	31.91
865.982	-21.33
866.156	1.19
866.329	19.63
866.503	50.35
866.676	58.54
866.85	50.35
867.024	42.15
867.197	21.67
867.371	52.39
867.544	60.59
867.718	25.77
867.891	17.58
868.065	11.43
868.238	44.2
868.412	119.98
868.585	36.01
868.759	-45.91
868.932	33.96
869.105	-37.72
869.279	50.35
869.452	1.19
869.625	27.82
869.799	29.87
869.972	81.07
870.145	25.77
870.319	25.77
870.492	50.35
870.665	-7
870.838	31.91
871.011	-21.33
871.185	3.24
871.358	29.87
871.531	1.19
871.704	-97.11
871.877	19.63
872.05	-23.38
872.223	1.19
872.396	54.44
872.569	50.35
872.742	15.53
872.915	64.68
873.088	-4.95
873.261	9.39
873.434	9.39
873.607	9.39
873.78	72.87
873.953	1.19
874.126	33.96
874.299	109.74
874.471	9.39
874.644	-23.38
874.817	27.82
874.99	36.01
875.163	23.72
875.335	29.87
875.508	76.97
875.681	33.96
875.853	38.06
876.026	-7
876.199	5.29
876.371	68.78
876.544	5.29
876.717	1.19
876.889	13.48
877.062	52.39
877.234	-41.81
877.407	-35.67
877.579	48.3
877.752	62.63
877.924	54.44
878.097	74.92
878.269	85.16
878.442	13.48
878.614	60.59
878.786	1.19
878.959	-23.38
879.131	-31.57
879.303	33.96
879.476	19.63
879.648	38.06
879.82	15.53
879.993	1.19
880.165	42.15
880.337	25.77
880.509	25.77
880.681	13.48
880.854	9.39
881.026	54.44
881.198	46.25
881.37	-80.72
881.542	-33.62
881.714	50.35
881.886	-13.14
882.058	-29.52
882.23	-11.09
882.402	5.29
882.574	33.96
882.746	19.63
882.918	-17.24
883.09	115.88
883.262	3.24
883.434	27.82
883.606	-23.38
883.778	9.39
883.95	93.35
884.122	-7
884.293	99.5
884.465	17.58
884.637	50.35
884.809	33.96
884.98	58.54
885.152	52.39
885.324	44.2
885.496	42.15
885.667	50.35
885.839	9.39
886.011	33.96
886.182	9.39
886.354	109.74
886.525	58.54
886.697	58.54
886.869	-19.29
887.04	-47.96
887.212	29.87
887.383	44.2
887.555	46.25
887.726	23.72
887.897	27.82
888.069	-39.76
888.24	27.82
888.412	-29.52
888.583	-21.33
888.754	-23.38
888.926	-56.15
889.097	58.54
889.268	-74.58
889.44	19.63
889.611	-47.96
889.782	5.29
889.953	19.63
890.125	79.02
890.296	-23.38
890.467	33.96
890.638	19.63
890.809	54.44
890.98	5.29
891.151	52.39
891.323	52.39
891.494	38.06
891.665	17.58
891.836	17.58
892.007	3.24
892.178	33.96
892.349	-7
892.52	-37.72
892.691	85.16
892.862	-47.96
893.032	38.06
893.203	-4.95
893.374	-15.19
893.545	42.15
893.716	-19.29
893.887	107.69
894.057	-47.96
894.228	-15.19
894.399	-23.38
894.57	52.39
894.74	50.35
894.911	13.48
895.082	42.15
895.253	13.48
895.423	148.65
895.594	19.63
895.764	33.96
895.935	3.24
896.106	25.77
896.276	-39.76
896.447	58.54
896.617	25.77
896.788	21.67
896.958	9.39
897.129	27.82
897.299	21.67
897.47	64.68
897.64	9.39
897.81	-39.76
897.981	19.63
898.151	-15.19
898.322	40.11
898.492	-23.38
898.662	-2.9
898.832	107.69
899.003	-11.09
899.173	56.49
899.343	1.19
899.513	31.91
