Data from USB4F104151__313__14-46-45-590.txt Node

Date: Thu Mar 13 14:46:45 EDT 2025
User: louis
Spectrometer: USB4F10415
Trigger mode: 4
Integration Time (sec): 2.000000E-2
Scans to average: 1
Electric dark correction enabled: true
Nonlinearity correction enabled: false
Boxcar width: 0
XAxis mode: Wavelengths
Number of Pixels in Spectrum: 3648
>>>>>Begin Spectral Data<<<<<
178.204	-158.72
178.424	-158.72
178.644	-158.72
178.864	-121.85
179.084	-99.33
179.304	-7.17
179.524	-19.46
179.744	-17.41
179.964	50.18
180.184	-78.85
180.404	37.89
180.624	56.32
180.844	-52.22
181.064	7.17
181.283	17.41
181.503	-9.22
181.723	15.36
181.943	-125.95
182.163	50.18
182.383	-66.56
182.602	60.42
182.822	-25.6
183.042	50.18
183.262	-31.74
183.482	1.02
183.701	29.7
183.921	-29.7
184.141	25.6
184.361	-19.46
184.58	-17.41
184.8	91.13
185.02	-62.46
185.239	62.46
185.459	-3.07
185.679	7.17
185.898	-44.03
186.118	-27.65
186.338	17.41
186.557	37.89
186.777	39.94
186.997	35.84
187.216	5.12
187.436	-11.26
187.655	70.65
187.875	-17.41
188.095	-1.02
188.314	39.94
188.534	39.94
188.753	-19.46
188.973	-33.79
189.192	-17.41
189.412	-25.6
189.631	11.26
189.851	-25.6
190.07	23.55
190.29	-15.36
190.509	66.56
190.729	15.36
190.948	5.12
191.168	72.7
191.387	-9.22
191.607	15.36
191.826	-11.26
192.045	-50.18
192.265	9.22
192.484	-31.74
192.704	60.42
192.923	-78.85
193.142	78.85
193.362	41.98
193.581	117.76
193.8	46.08
194.02	136.19
194.239	-11.26
194.458	-76.8
194.678	95.23
194.897	41.98
195.116	-23.55
195.335	29.7
195.555	74.75
195.774	13.31
195.993	17.41
196.212	21.5
196.432	-46.08
196.651	-9.22
196.87	-44.03
197.089	78.85
197.308	56.32
197.528	64.51
197.747	17.41
197.966	39.94
198.185	-7.17
198.404	-64.51
198.623	46.08
198.842	84.99
199.062	23.55
199.281	29.7
199.5	56.32
199.719	23.55
199.938	11.26
200.157	25.6
200.376	21.5
200.595	-1.02
200.814	-19.46
201.033	-56.32
201.252	68.61
201.471	7.17
201.69	95.23
201.909	25.6
202.128	-19.46
202.347	13.31
202.566	58.37
202.785	-1.02
203.004	5.12
203.223	119.81
203.442	-3.07
203.661	9.22
203.879	-37.89
204.098	41.98
204.317	39.94
204.536	39.94
204.755	70.65
204.974	5.12
205.193	29.7
205.411	48.13
205.63	21.5
205.849	-1.02
206.068	70.65
206.287	37.89
206.505	66.56
206.724	70.65
206.943	54.27
207.162	29.7
207.381	25.6
207.599	23.55
207.818	-11.26
208.037	-44.03
208.255	-41.98
208.474	-5.12
208.693	37.89
208.911	25.6
209.13	80.89
209.349	60.42
209.567	52.22
209.786	87.04
210.005	87.04
210.223	70.65
210.442	21.5
210.661	21.5
210.879	-19.46
211.098	31.74
211.316	-76.8
211.535	95.23
211.753	56.32
211.972	46.08
212.191	23.55
212.409	33.79
212.628	76.8
212.846	-1.02
213.065	72.7
213.283	78.85
213.502	33.79
213.72	29.7
213.938	23.55
214.157	-35.84
214.375	-52.22
214.594	-64.51
214.812	-17.41
215.031	5.12
215.249	37.89
215.467	-3.07
215.686	-9.22
215.904	31.74
216.122	-27.65
216.341	37.89
216.559	-52.22
216.778	95.23
216.996	-3.07
217.214	29.7
217.432	21.5
217.651	-9.22
217.869	-27.65
218.087	37.89
218.306	31.74
218.524	103.42
218.742	35.84
218.96	5.12
219.179	-3.07
219.397	23.55
219.615	121.85
219.833	-21.5
220.051	-23.55
220.27	-7.17
220.488	-3.07
220.706	-19.46
220.924	21.5
221.142	13.31
221.36	-146.43
221.578	82.94
221.796	31.74
222.015	9.22
222.233	11.26
222.451	99.33
222.669	70.65
222.887	31.74
223.105	19.46
223.323	13.31
223.541	-50.18
223.759	15.36
223.977	25.6
224.195	39.94
224.413	76.8
224.631	-15.36
224.849	-117.76
225.067	64.51
225.285	-60.42
225.503	-17.41
225.721	11.26
225.939	66.56
226.157	29.7
226.375	21.5
226.592	37.89
226.81	46.08
227.028	11.26
227.246	179.2
227.464	37.89
227.682	3.07
227.9	9.22
228.117	15.36
228.335	3.07
228.553	76.8
228.771	7.17
228.989	99.33
229.206	87.04
229.424	5.12
229.642	13.31
229.86	11.26
230.077	37.89
230.295	-9.22
230.513	-27.65
230.731	68.61
230.948	21.5
231.166	95.23
231.384	1.02
231.601	-48.13
231.819	115.71
232.037	54.27
232.254	7.17
232.472	17.41
232.689	-35.84
232.907	160.77
233.125	-48.13
233.342	-39.94
233.56	-60.42
233.777	-60.42
233.995	37.89
234.213	25.6
234.43	-25.6
234.648	35.84
234.865	-1.02
235.083	37.89
235.3	-78.85
235.518	99.33
235.735	-15.36
235.953	48.13
236.17	11.26
236.388	-52.22
236.605	17.41
236.822	-3.07
237.04	66.56
237.257	31.74
237.475	21.5
237.692	-17.41
237.909	62.46
238.127	84.99
238.344	7.17
238.562	48.13
238.779	-99.33
238.996	21.5
239.214	-60.42
239.431	70.65
239.648	-80.89
239.865	5.12
240.083	13.31
240.3	31.74
240.517	-31.74
240.735	41.98
240.952	13.31
241.169	7.17
241.386	-68.61
241.603	-25.6
241.821	-15.36
242.038	27.65
242.255	56.32
242.472	-19.46
242.689	13.31
242.907	25.6
243.124	54.27
243.341	-11.26
243.558	-64.51
243.775	-48.13
243.992	-56.32
244.209	25.6
244.426	99.33
244.643	9.22
244.86	21.5
245.078	23.55
245.295	99.33
245.512	7.17
245.729	-3.07
245.946	50.18
246.163	46.08
246.38	56.32
246.597	19.46
246.814	-46.08
247.031	-23.55
247.248	-3.07
247.464	-1.02
247.681	13.31
247.898	78.85
248.115	-46.08
248.332	37.89
248.549	56.32
248.766	80.89
248.983	58.37
249.2	93.18
249.417	15.36
249.633	-1.02
249.85	78.85
250.067	-31.74
250.284	13.31
250.501	21.5
250.717	64.51
250.934	1.02
251.151	-7.17
251.368	-13.31
251.585	9.22
251.801	23.55
252.018	91.13
252.235	33.79
252.451	-17.41
252.668	13.31
252.885	-11.26
253.102	62.46
253.318	62.46
253.535	-7.17
253.752	-9.22
253.968	1.02
254.185	31.74
254.401	13.31
254.618	21.5
254.835	21.5
255.051	39.94
255.268	17.41
255.484	41.98
255.701	-9.22
255.917	-11.26
256.134	5.12
256.351	33.79
256.567	-68.61
256.784	62.46
257	-35.84
257.217	74.75
257.433	-1.02
257.65	13.31
257.866	111.61
258.082	21.5
258.299	70.65
258.515	-41.98
258.732	-23.55
258.948	7.17
259.165	70.65
259.381	-31.74
259.597	78.85
259.814	50.18
260.03	33.79
260.246	21.5
260.463	39.94
260.679	74.75
260.895	-15.36
261.112	33.79
261.328	-33.79
261.544	21.5
261.761	54.27
261.977	13.31
262.193	23.55
262.409	21.5
262.626	39.94
262.842	7.17
263.058	-41.98
263.274	107.52
263.49	-1.02
263.707	15.36
263.923	80.89
264.139	15.36
264.355	37.89
264.571	78.85
264.787	13.31
265.004	17.41
265.22	52.22
265.436	-17.41
265.652	41.98
265.868	46.08
266.084	19.46
266.3	13.31
266.516	29.7
266.732	33.79
266.948	11.26
267.164	5.12
267.38	70.65
267.596	46.08
267.812	78.85
268.028	13.31
268.244	5.12
268.46	37.89
268.676	-3.07
268.892	15.36
269.108	-13.31
269.324	5.12
269.54	23.55
269.756	91.13
269.972	-35.84
270.188	29.7
270.403	5.12
270.619	-50.18
270.835	1.02
271.051	17.41
271.267	-9.22
271.483	39.94
271.698	50.18
271.914	56.32
272.13	15.36
272.346	-87.04
272.562	21.5
272.777	46.08
272.993	-17.41
273.209	-56.32
273.425	17.41
273.64	-27.65
273.856	-11.26
274.072	41.98
274.287	13.31
274.503	-1.02
274.719	87.04
274.934	-11.26
275.15	1.02
275.366	-15.36
275.581	60.42
275.797	78.85
276.012	54.27
276.228	-41.98
276.444	-19.46
276.659	33.79
276.875	-15.36
277.09	25.6
277.306	80.89
277.521	46.08
277.737	-29.7
277.952	29.7
278.168	37.89
278.383	35.84
278.599	-50.18
278.814	21.5
279.03	107.52
279.245	68.61
279.461	-33.79
279.676	21.5
279.892	17.41
280.107	17.41
280.322	-44.03
280.538	48.13
280.753	56.32
280.969	39.94
281.184	-3.07
281.399	-44.03
281.615	-1.02
281.83	23.55
282.045	-7.17
282.26	-37.89
282.476	64.51
282.691	15.36
282.906	7.17
283.122	117.76
283.337	11.26
283.552	29.7
283.767	89.09
283.983	27.65
284.198	31.74
284.413	5.12
284.628	37.89
284.843	-19.46
285.058	21.5
285.274	37.89
285.489	5.12
285.704	15.36
285.919	5.12
286.134	-27.65
286.349	48.13
286.564	41.98
286.779	39.94
286.995	21.5
287.21	-56.32
287.425	56.32
287.64	-25.6
287.855	25.6
288.07	-11.26
288.285	5.12
288.5	23.55
288.715	29.7
288.93	7.17
289.145	31.74
289.36	23.55
289.575	-11.26
289.79	115.71
290.004	-68.61
290.219	48.13
290.434	17.41
290.649	46.08
290.864	9.22
291.079	1.02
291.294	54.27
291.509	48.13
291.724	54.27
291.938	9.22
292.153	105.47
292.368	-25.6
292.583	70.65
292.798	50.18
293.012	56.32
293.227	31.74
293.442	21.5
293.657	1.02
293.871	56.32
294.086	46.08
294.301	39.94
294.516	136.19
294.73	-50.18
294.945	62.46
295.16	50.18
295.374	37.89
295.589	48.13
295.804	11.26
296.018	33.79
296.233	-19.46
296.447	29.7
296.662	-11.26
296.877	97.28
297.091	60.42
297.306	9.22
297.52	-3.07
297.735	17.41
297.949	93.18
298.164	29.7
298.378	-27.65
298.593	-37.89
298.807	-3.07
299.022	5.12
299.236	78.85
299.451	-68.61
299.665	1.02
299.88	-11.26
300.094	70.65
300.309	35.84
300.523	74.75
300.737	-35.84
300.952	-3.07
301.166	66.56
301.381	50.18
301.595	46.08
301.809	35.84
302.024	54.27
302.238	-7.17
302.452	-7.17
302.667	-19.46
302.881	78.85
303.095	29.7
303.309	105.47
303.524	13.31
303.738	23.55
303.952	-9.22
304.166	11.26
304.381	-37.89
304.595	87.04
304.809	-9.22
305.023	-17.41
305.237	87.04
305.452	15.36
305.666	50.18
305.88	62.46
306.094	70.65
306.308	39.94
306.522	39.94
306.736	-21.5
306.95	66.56
307.164	33.79
307.379	48.13
307.593	-13.31
307.807	23.55
308.021	-9.22
308.235	56.32
308.449	15.36
308.663	-7.17
308.877	162.81
309.091	21.5
309.305	29.7
309.519	-5.12
309.733	15.36
309.947	78.85
310.161	15.36
310.374	-9.22
310.588	56.32
310.802	48.13
311.016	-29.7
311.23	23.55
311.444	9.22
311.658	-9.22
311.872	72.7
312.085	74.75
312.299	29.7
312.513	-25.6
312.727	-13.31
312.941	-35.84
313.154	56.32
313.368	-11.26
313.582	58.37
313.796	68.61
314.009	-9.22
314.223	46.08
314.437	103.42
314.651	66.56
314.864	37.89
315.078	23.55
315.292	-35.84
315.505	5.12
315.719	-17.41
315.933	-64.51
316.146	68.61
316.36	9.22
316.573	64.51
316.787	-11.26
317.001	21.5
317.214	5.12
317.428	95.23
317.641	-13.31
317.855	62.46
318.068	35.84
318.282	41.98
318.495	99.33
318.709	89.09
318.922	15.36
319.136	103.42
319.349	-3.07
319.563	46.08
319.776	-19.46
319.99	37.89
320.203	7.17
320.417	21.5
320.63	48.13
320.843	37.89
321.057	58.37
321.27	7.17
321.483	-7.17
321.697	-3.07
321.91	-23.55
322.124	58.37
322.337	27.65
322.55	50.18
322.763	23.55
322.977	5.12
323.19	37.89
323.403	39.94
323.617	35.84
323.83	66.56
324.043	27.65
324.256	15.36
324.469	27.65
324.683	9.22
324.896	37.89
325.109	39.94
325.322	9.22
325.535	50.18
325.748	31.74
325.962	17.41
326.175	1.02
326.388	1.02
326.601	37.89
326.814	5.12
327.027	13.31
327.24	33.79
327.453	-11.26
327.666	66.56
327.879	103.42
328.092	-23.55
328.305	74.75
328.518	-15.36
328.731	-29.7
328.944	70.65
329.157	7.17
329.37	9.22
329.583	29.7
329.796	37.89
330.009	5.12
330.222	25.6
330.435	62.46
330.648	74.75
330.861	80.89
331.073	41.98
331.286	-1.02
331.499	1.02
331.712	48.13
331.925	15.36
332.138	-1.02
332.35	39.94
332.563	-3.07
332.776	56.32
332.989	5.12
333.202	21.5
333.414	44.03
333.627	54.27
333.84	46.08
334.053	13.31
334.265	-35.84
334.478	-31.74
334.691	-66.56
334.903	7.17
335.116	21.5
335.329	78.85
335.541	54.27
335.754	-7.17
335.966	13.31
336.179	48.13
336.392	60.42
336.604	39.94
336.817	-93.18
337.029	-48.13
337.242	5.12
337.454	-5.12
337.667	50.18
337.88	64.51
338.092	31.74
338.305	41.98
338.517	62.46
338.729	3.07
338.942	-19.46
339.154	-52.22
339.367	-44.03
339.579	46.08
339.792	48.13
340.004	39.94
340.217	31.74
340.429	21.5
340.641	-46.08
340.854	7.17
341.066	13.31
341.278	-9.22
341.491	27.65
341.703	72.7
341.915	-50.18
342.128	46.08
342.34	64.51
342.552	-7.17
342.764	-5.12
342.977	44.03
343.189	66.56
343.401	37.89
343.613	1.02
343.826	7.17
344.038	-19.46
344.25	101.37
344.462	48.13
344.674	-25.6
344.886	-19.46
345.099	-66.56
345.311	70.65
345.523	1.02
345.735	-52.22
345.947	15.36
346.159	-33.79
346.371	23.55
346.583	9.22
346.795	66.56
347.007	54.27
347.219	31.74
347.431	66.56
347.643	84.99
347.855	9.22
348.067	-9.22
348.279	37.89
348.491	29.7
348.703	48.13
348.915	66.56
349.127	46.08
349.339	-21.5
349.551	46.08
349.763	17.41
349.975	5.12
350.187	17.41
350.399	9.22
350.61	99.33
350.822	21.5
351.034	-5.12
351.246	1.02
351.458	21.5
351.669	107.52
351.881	80.89
352.093	80.89
352.305	78.85
352.517	70.65
352.728	101.37
352.94	-11.26
353.152	125.95
353.363	-5.12
353.575	54.27
353.787	13.31
353.999	15.36
354.21	33.79
354.422	-23.55
354.633	-3.07
354.845	41.98
355.057	74.75
355.268	31.74
355.48	15.36
355.692	-1.02
355.903	66.56
356.115	29.7
356.326	7.17
356.538	37.89
356.749	62.46
356.961	95.23
357.172	-46.08
357.384	33.79
357.595	15.36
357.807	13.31
358.018	-25.6
358.23	-33.79
358.441	87.04
358.653	70.65
358.864	19.46
359.075	29.7
359.287	56.32
359.498	48.13
359.709	130.05
359.921	-5.12
360.132	9.22
360.344	21.5
360.555	31.74
360.766	52.22
360.977	15.36
361.189	78.85
361.4	31.74
361.611	58.37
361.823	68.61
362.034	136.19
362.245	-19.46
362.456	46.08
362.667	25.6
362.879	41.98
363.09	13.31
363.301	5.12
363.512	7.17
363.723	50.18
363.935	-56.32
364.146	95.23
364.357	1.02
364.568	13.31
364.779	46.08
364.99	37.89
365.201	-9.22
365.412	101.37
365.623	15.36
365.834	-31.74
366.045	21.5
366.256	66.56
366.467	58.37
366.678	66.56
366.889	62.46
367.1	-15.36
367.311	19.46
367.522	39.94
367.733	-68.61
367.944	41.98
368.155	-1.02
368.366	-7.17
368.577	93.18
368.788	99.33
368.999	44.03
369.209	115.71
369.42	123.9
369.631	78.85
369.842	54.27
370.053	64.51
370.264	54.27
370.474	-11.26
370.685	87.04
370.896	58.37
371.107	29.7
371.317	5.12
371.528	66.56
371.739	84.99
371.95	-9.22
372.16	23.55
372.371	29.7
372.582	62.46
372.792	46.08
373.003	-60.42
373.214	44.03
373.424	74.75
373.635	-9.22
373.846	56.32
374.056	-7.17
374.267	58.37
374.477	27.65
374.688	-11.26
374.898	152.57
375.109	33.79
375.319	62.46
375.53	25.6
375.74	19.46
375.951	56.32
376.161	17.41
376.372	115.71
376.582	29.7
376.793	-3.07
377.003	17.41
377.214	29.7
377.424	113.66
377.635	46.08
377.845	-1.02
378.055	29.7
378.266	-35.84
378.476	21.5
378.686	70.65
378.897	21.5
379.107	23.55
379.317	50.18
379.528	-7.17
379.738	87.04
379.948	70.65
380.158	48.13
380.369	46.08
380.579	119.81
380.789	21.5
380.999	-3.07
381.21	54.27
381.42	142.33
381.63	70.65
381.84	-19.46
382.05	58.37
382.261	97.28
382.471	56.32
382.681	107.52
382.891	62.46
383.101	17.41
383.311	-21.5
383.521	-50.18
383.731	95.23
383.941	54.27
384.151	5.12
384.361	31.74
384.571	46.08
384.781	33.79
384.991	29.7
385.201	101.37
385.411	68.61
385.621	39.94
385.831	128
386.041	39.94
386.251	97.28
386.461	70.65
386.671	9.22
386.881	31.74
387.091	33.79
387.301	168.96
387.511	64.51
387.72	80.89
387.93	39.94
388.14	68.61
388.35	68.61
388.56	78.85
388.769	56.32
388.979	62.46
389.189	5.12
389.399	1.02
389.609	21.5
389.818	103.42
390.028	37.89
390.238	78.85
390.447	64.51
390.657	56.32
390.867	-23.55
391.076	-52.22
391.286	-23.55
391.496	87.04
391.705	9.22
391.915	128
392.125	130.05
392.334	35.84
392.544	95.23
392.753	84.99
392.963	21.5
393.172	107.52
393.382	62.46
393.591	89.09
393.801	37.89
394.01	130.05
394.22	46.08
394.429	13.31
394.639	130.05
394.848	82.94
395.058	84.99
395.267	52.22
395.477	146.43
395.686	74.75
395.895	117.76
396.105	160.77
396.314	46.08
396.524	103.42
396.733	37.89
396.942	105.47
397.152	37.89
397.361	52.22
397.57	29.7
397.78	72.7
397.989	74.75
398.198	123.9
398.407	64.51
398.617	58.37
398.826	46.08
399.035	113.66
399.244	87.04
399.453	41.98
399.663	99.33
399.872	80.89
400.081	37.89
400.29	111.61
400.499	103.42
400.708	89.09
400.917	56.32
401.127	72.7
401.336	37.89
401.545	117.76
401.754	87.04
401.963	25.6
402.172	89.09
402.381	121.85
402.59	80.89
402.799	84.99
403.008	115.71
403.217	87.04
403.426	130.05
403.635	101.37
403.844	21.5
404.053	144.38
404.262	119.81
404.471	195.58
404.68	111.61
404.888	187.39
405.097	132.09
405.306	119.81
405.515	187.39
405.724	111.61
405.933	123.9
406.142	144.38
406.35	164.86
406.559	234.49
406.768	193.53
406.977	185.34
407.185	144.38
407.394	144.38
407.603	103.42
407.812	177.15
408.02	209.92
408.229	220.16
408.438	216.06
408.646	211.96
408.855	191.49
409.064	283.64
409.272	181.25
409.481	234.49
409.69	173.05
409.898	185.34
410.107	267.26
410.315	259.07
410.524	248.83
410.733	326.65
410.941	312.32
411.15	318.46
411.358	293.88
411.567	365.56
411.775	328.7
411.984	349.18
412.192	355.32
412.401	381.95
412.609	361.47
412.818	390.14
413.026	422.91
413.234	490.49
413.443	347.13
413.651	451.58
413.86	383.99
414.068	605.17
414.276	588.79
414.485	574.46
414.693	553.98
414.901	578.55
415.11	599.03
415.318	676.85
415.526	549.88
415.734	621.56
415.943	646.13
416.151	717.81
416.359	717.81
416.567	734.2
416.776	783.35
416.984	756.72
417.192	818.16
417.4	865.27
417.608	775.16
417.817	887.79
418.025	971.76
418.233	1049.58
418.441	971.76
418.649	971.76
418.857	1108.98
419.065	1100.78
419.273	1004.53
419.481	1113.07
419.689	1102.83
419.897	1192.94
420.105	1194.99
420.313	1268.72
420.521	1414.12
420.729	1367.02
420.937	1373.16
421.145	1461.23
421.353	1569.77
421.561	1522.66
421.769	1659.88
421.977	1727.46
422.185	1729.51
422.393	1790.95
422.601	1922.02
422.809	1895.4
423.017	1946.59
423.224	1917.92
423.432	2044.9
423.64	2151.39
423.848	2206.69
424.056	2130.91
424.263	2288.61
424.471	2399.2
424.679	2378.72
424.887	2690.01
425.094	2667.48
425.302	2610.14
425.51	2724.82
425.718	2782.17
425.925	2816.98
426.133	2913.24
426.341	3107.79
426.548	3185.62
426.756	3181.52
426.964	3240.91
427.171	3431.37
427.379	3535.82
427.586	3623.88
427.794	3554.25
428.001	4004.8
428.209	4021.19
428.417	4029.38
428.624	4223.94
428.832	4389.82
429.039	4371.39
429.247	4389.82
429.454	4756.41
429.662	4924.34
429.869	4645.82
430.076	4998.07
430.284	4797.37
430.491	5053.36
430.699	5452.72
430.906	5346.22
431.114	5462.96
431.321	5505.96
431.528	5647.27
431.736	6075.3
431.943	6208.42
432.15	6167.46
432.358	6349.73
432.565	6560.67
432.772	6544.28
432.979	6945.69
433.187	6992.79
433.394	6831
433.601	7648.14
433.808	7533.45
434.016	7562.12
434.223	7787.4
434.43	8321.92
434.637	8139.65
434.844	8663.93
435.052	8516.48
435.259	8584.06
435.466	8672.12
435.673	8582.01
435.88	9284.47
436.087	9671.53
436.294	9694.06
436.501	9608.05
436.708	9692.01
436.915	10171.24
437.122	10613.6
437.329	10392.42
437.537	10900.31
437.743	10617.69
437.95	10756.96
438.157	11539.28
438.364	11795.28
438.571	11846.48
438.778	12112.71
438.985	12882.75
439.192	12495.68
439.399	12630.85
439.606	12448.58
439.813	13310.77
440.02	14048.04
440.227	13871.92
440.433	13898.54
440.64	14031.66
440.847	13927.21
441.054	14148.39
441.261	14924.57
441.467	14918.43
441.674	15248.15
441.881	15848.21
442.088	15915.79
442.294	15723.28
442.501	15950.6
442.708	16237.32
442.914	17271.54
443.121	17855.22
443.328	17292.02
443.534	18504.42
443.741	18051.82
443.948	17625.84
444.154	19186.4
444.361	18750.18
444.568	19088.09
444.774	19024.61
444.981	19337.94
445.187	19548.89
445.394	20624.07
445.6	20413.13
445.807	22606.5
446.013	21781.17
446.22	22196.91
446.426	22923.94
446.633	22860.45
446.839	23581.34
447.046	22776.48
447.252	24179.34
447.459	24138.38
447.665	23558.81
447.871	24752.77
448.078	25799.29
448.284	24834.69
448.491	25645.69
448.697	26456.68
448.903	27054.69
449.11	27109.99
449.316	26577.51
449.522	27046.5
449.728	27527.77
449.935	27896.41
450.141	27980.37
450.347	28422.73
450.553	27718.23
450.76	27812.44
450.966	29198.91
451.172	28535.37
451.378	29647.42
451.584	28568.14
451.791	29751.87
451.997	29323.84
452.203	29893.18
452.409	30007.86
452.615	29919.8
452.821	28717.64
453.027	28703.31
453.233	30237.23
453.44	28932.68
453.646	29438.53
453.852	29315.65
454.058	29940.28
454.264	29108.8
454.47	29833.78
454.676	29090.37
454.882	29946.42
455.088	27515.48
455.294	27544.16
455.5	28254.8
455.705	28674.63
455.911	27443.81
456.117	26823.27
456.323	26368.62
456.529	25223.81
456.735	26227.31
456.941	25385.6
457.147	25406.08
457.352	24527.5
457.558	24502.92
457.764	24801.93
457.97	24005.27
458.176	23626.39
458.381	23431.83
458.587	22069.94
458.793	22528.68
458.999	21062.33
459.204	23055.01
459.41	21953.2
459.616	20572.87
459.821	20562.63
460.027	20708.04
460.233	20124.36
460.438	19047.13
460.644	19469.01
460.85	18447.08
461.055	18287.34
461.261	18336.49
461.466	16724.74
461.672	16349.96
461.878	17322.74
462.083	16143.11
462.289	16089.87
462.494	16139.02
462.7	15112.99
462.905	14813.98
463.111	15162.14
463.316	15442.71
463.522	15010.59
463.727	15131.42
463.932	14992.16
464.138	14883.61
464.343	14809.89
464.549	14431.01
464.754	14879.52
464.959	14777.12
465.165	14584.61
465.37	14099.24
465.575	13632.3
465.781	14318.37
465.986	14447.4
466.191	13603.63
466.397	13738.8
466.602	12673.85
466.807	13253.43
467.012	13400.88
467.218	13544.24
467.423	13007.67
467.628	13194.04
467.833	13669.17
468.038	13286.2
468.244	12729.15
468.449	13261.62
468.654	12833.6
468.859	13007.67
469.064	12944.19
469.269	12288.84
469.474	12458.82
469.679	12731.2
469.885	12213.06
470.09	12436.29
470.295	12444.48
470.5	12098.38
470.705	12260.16
470.91	12006.22
471.115	11684.69
471.32	11852.62
471.525	12063.56
471.73	11486.03
471.935	11473.74
472.139	11227.99
472.344	11215.7
472.549	11213.65
472.754	11098.97
472.959	10939.23
473.164	10720.09
473.369	10488.67
473.574	10961.75
473.778	10853.21
473.983	10789.72
474.188	10662.75
474.393	10472.29
474.598	10158.95
474.802	10171.24
475.007	10005.35
475.212	9900.9
475.417	9622.38
475.621	9982.82
475.826	9945.96
476.031	9509.74
476.235	9339.76
476.44	9515.89
476.645	9175.92
476.849	9309.04
477.054	9368.43
477.259	9208.69
477.463	9126.77
477.668	8887.16
477.872	9145.2
478.077	8719.23
478.282	8545.15
478.486	8696.7
478.691	8338.3
478.895	8283.01
479.1	8405.89
479.304	8434.56
479.509	8063.88
479.713	8287.11
479.918	7967.62
480.122	8033.16
480.326	8108.93
480.531	8156.04
480.735	8045.45
480.94	7926.66
481.144	8270.72
481.348	7705.48
481.553	7981.96
481.757	7586.7
481.961	7865.22
482.166	7992.2
482.37	7787.4
482.574	7549.84
482.778	7717.77
482.983	8184.71
483.187	8002.44
483.391	7859.08
483.595	7822.22
483.8	7682.95
484.004	7642
484.208	7846.79
484.412	7551.88
484.616	7816.07
484.821	7777.16
485.025	7617.42
485.229	7811.98
485.433	7803.78
485.637	7752.59
485.841	7672.71
486.045	7623.56
486.249	7730.06
486.453	7650.19
486.657	7836.55
486.861	7818.12
487.065	7451.53
487.269	7721.87
487.473	7486.35
487.677	7738.25
487.881	7781.26
488.085	7707.53
488.289	7746.44
488.493	7717.77
488.697	7840.65
488.901	7973.77
489.105	7854.98
489.309	7736.2
489.512	7809.93
489.716	7943.05
489.92	7848.84
490.124	7680.91
490.328	7869.32
490.531	7840.65
490.735	7986.05
490.939	7967.62
491.143	7771.02
491.346	7951.24
491.55	7938.95
491.754	8045.45
491.958	8182.66
492.161	7996.29
492.365	8223.62
492.569	7998.34
492.772	8092.55
492.976	8237.95
493.18	8369.02
493.383	8504.19
493.587	8242.05
493.79	8582.01
493.994	8299.39
494.197	8582.01
494.401	8475.52
494.605	8412.03
494.808	8674.17
495.012	8616.83
495.215	8856.44
495.419	8827.77
495.622	8885.11
495.825	8997.75
496.029	9012.09
496.232	9141.11
496.436	8997.75
496.639	9327.47
496.843	9272.18
497.046	9544.56
497.249	9433.97
497.453	9667.44
497.656	9700.2
497.859	9573.23
498.063	9737.07
498.266	10115.94
498.469	9851.75
498.673	10128.23
498.876	10171.24
499.079	10384.23
499.282	10357.6
499.485	10713.95
499.689	10326.88
499.892	10652.51
500.095	10699.61
500.298	11152.21
500.501	10881.88
500.705	11139.93
500.908	11254.61
501.111	11277.14
501.314	11578.19
501.517	11557.71
501.72	11754.32
501.923	11651.92
502.126	12098.38
502.329	12313.41
502.532	12254.02
502.735	12436.29
502.938	12720.96
503.141	12731.2
503.344	12858.17
503.547	12866.36
503.75	12800.83
503.953	13105.98
504.156	13333.3
504.359	13523.76
504.562	13562.67
504.765	13894.44
504.968	13957.93
505.17	14115.62
505.373	14312.23
505.576	14457.64
505.779	14279.46
505.982	14560.03
506.185	14994.2
506.387	14973.72
506.59	15061.79
506.793	15526.68
506.996	15387.41
507.198	15610.64
507.401	15463.19
507.604	15911.69
507.807	16177.93
508.009	16184.07
508.212	16476.93
508.415	16720.64
508.617	16904.96
508.82	16876.29
509.022	16796.42
509.225	17242.87
509.428	17378.04
509.63	17343.22
509.833	17664.75
510.035	17969.9
510.238	18008.81
510.44	17910.51
510.643	18375.4
510.845	18793.19
511.048	18807.52
511.25	19075.8
511.453	18858.72
511.655	19790.55
511.858	19346.14
512.06	19772.11
512.262	19792.59
512.465	19976.91
512.667	20327.11
512.87	20142.8
513.072	20374.22
513.274	20493
513.477	20843.2
513.679	21308.09
513.881	21420.73
514.084	21402.3
514.286	21557.94
514.488	21912.24
514.69	22129.33
514.893	22086.32
515.095	22399.66
515.297	22833.83
515.499	22856.36
515.701	23235.23
515.904	23331.48
516.106	23417.5
516.308	23804.56
516.51	24158.86
516.712	23882.39
516.914	24373.9
517.116	24517.26
517.318	24640.14
517.52	24976
517.722	25154.18
517.925	25447.04
518.127	25780.85
518.329	25819.77
518.531	25815.67
518.733	26503.79
518.935	26255.98
519.136	26440.3
519.338	26864.23
519.54	27011.68
519.742	27370.08
519.944	27470.43
520.146	28015.19
520.348	27986.52
520.55	27910.74
520.752	28150.35
520.954	28461.65
521.155	28340.82
521.357	28527.18
521.559	28985.93
521.761	29538.88
521.963	29325.89
522.164	29708.86
522.366	29780.54
522.568	30118.45
522.77	30097.97
522.971	30519.85
523.173	30351.92
523.375	30900.78
523.576	31019.56
523.778	30951.98
523.98	31414.82
524.181	31171.11
524.383	31259.17
524.584	31636
524.786	31855.13
524.988	31781.4
525.189	32213.52
525.391	32191
525.592	32651.79
525.794	32424.47
525.995	32459.28
526.197	32895.5
526.398	33253.89
526.6	33405.44
526.801	33139.21
527.003	33260.04
527.204	33397.25
527.406	33710.59
527.607	33618.43
527.808	33774.08
528.01	33360.39
528.211	33513.98
528.412	34540.02
528.614	34025.98
528.815	34349.56
529.016	34554.35
529.218	34433.52
529.419	34767.34
529.62	34742.77
529.822	34707.95
530.023	34658.8
530.224	34681.33
530.425	34812.4
530.626	34576.88
530.828	34374.13
531.029	34984.43
531.23	35056.11
531.431	34873.84
531.632	35099.11
531.833	35039.72
532.035	34576.88
532.236	35324.39
532.437	35099.11
532.638	35154.41
532.839	35144.17
533.04	35293.67
533.241	34935.27
533.442	36127.19
533.643	35320.29
533.844	35477.99
534.045	35652.06
534.246	35465.7
534.447	35506.66
534.648	35506.66
534.849	35578.34
535.05	35119.59
535.251	35652.06
535.451	35324.39
535.652	35774.94
535.853	35688.93
536.054	35615.2
536.255	35609.06
536.456	35529.19
536.657	36014.55
536.857	35797.47
537.058	35348.96
537.259	35740.13
537.46	35836.38
537.66	35420.64
537.861	35914.2
538.062	35308.01
538.263	35572.19
538.463	35889.63
538.664	35172.84
538.865	35666.4
539.065	36022.75
539.266	35365.35
539.466	35447.27
539.667	35011.05
539.868	35897.82
540.068	35273.19
540.269	35244.52
540.469	35979.74
540.67	35303.91
540.87	35267.05
541.071	35758.56
541.271	35547.62
541.472	35531.23
541.672	35254.76
541.873	35086.82
542.073	34873.84
542.274	35633.63
542.474	35420.64
542.675	35406.31
542.875	35744.22
543.075	35414.5
543.276	35109.35
543.476	35523.04
543.676	35168.74
543.877	35506.66
544.077	35373.54
544.277	35381.73
544.478	34890.22
544.678	34998.76
544.878	35338.72
545.078	35529.19
545.279	35295.72
545.479	35197.41
545.679	35396.07
545.879	35029.48
546.079	35013.1
546.28	35129.83
546.48	34855.4
546.68	35162.6
546.88	35211.75
547.08	35219.94
547.28	35168.74
547.48	34806.25
547.68	35338.72
547.88	34699.76
548.081	35148.26
548.281	35135.98
548.481	34931.18
548.681	35197.41
548.881	34970.09
549.081	35275.24
549.28	34771.44
549.48	35131.88
549.68	34877.93
549.88	35391.97
550.08	34826.73
550.28	35168.74
550.48	34943.47
550.68	35101.16
550.88	34908.65
551.08	35088.87
551.279	34742.77
551.479	34703.85
551.679	34585.07
551.879	34769.39
552.079	35011.05
552.278	34607.6
552.478	34972.14
552.678	34982.38
552.878	35105.26
553.077	34675.18
553.277	34869.74
553.477	35078.63
553.676	34791.92
553.876	34630.13
554.076	34675.18
554.275	34525.68
554.475	34439.67
554.674	34347.51
554.874	34806.25
555.074	34726.38
555.273	34435.57
555.473	34746.86
555.672	34406.9
555.872	34062.84
556.071	34460.15
556.271	34753.01
556.47	34247.16
556.67	33853.95
556.869	34200.05
557.068	34351.6
557.268	33583.62
557.467	34367.99
557.667	34040.31
557.866	34195.96
558.065	33999.35
558.265	33987.07
558.464	33470.98
558.663	33894.91
558.863	33511.94
559.062	34490.87
559.261	33491.46
559.461	33679.87
559.66	33769.98
559.859	33624.57
560.058	33395.2
560.258	33747.45
560.457	33174.02
560.656	33868.28
560.855	33223.17
561.054	33556.99
561.253	33473.03
561.453	33268.23
561.652	33489.41
561.851	33301
562.05	33241.6
562.249	32965.13
562.448	33249.8
562.647	32975.37
562.846	33042.95
563.045	32766.48
563.244	32926.22
563.443	33231.36
563.642	32655.89
563.841	32746
564.04	32504.34
564.239	32870.92
564.438	32408.08
564.637	32530.96
564.836	32354.83
565.035	32307.73
565.234	32502.29
565.432	32117.27
565.631	31971.86
565.83	32225.81
566.029	31898.14
566.228	31959.58
566.427	32094.74
566.625	31605.28
566.824	31390.24
567.023	32127.51
567.222	31373.86
567.42	31805.98
567.619	31429.15
567.818	31531.55
568.016	31488.54
568.215	31435.3
568.414	31320.61
568.612	31457.82
568.811	31224.36
569.01	30947.88
569.208	30988.84
569.407	31255.08
569.605	30599.73
569.804	30792.23
570.002	30321.2
570.201	30673.45
570.4	30370.35
570.598	30186.04
570.797	30396.98
570.995	30239.28
571.193	30122.55
571.392	30442.03
571.59	29659.71
571.789	30097.97
571.987	29864.5
572.186	29837.88
572.384	29784.63
572.582	29999.67
572.781	29805.11
572.979	29229.63
573.177	29426.24
573.376	29659.71
573.574	29172.29
573.772	29592.12
573.971	29192.77
574.169	29043.27
574.367	28965.45
574.565	29035.08
574.763	28731.98
574.962	29020.74
575.16	28738.12
575.358	28609.1
575.556	28588.62
575.754	28592.72
575.952	28641.87
576.151	28234.32
576.349	28408.4
576.547	28400.21
576.745	28533.32
576.943	28123.73
577.141	28078.68
577.339	28312.14
577.537	27849.3
577.735	27984.47
577.933	27998.8
578.131	27757.14
578.329	27761.24
578.527	27589.21
578.725	27574.88
578.923	27818.58
579.121	27212.38
579.319	27294.3
579.516	27468.38
579.714	27384.41
579.912	26866.28
580.11	27507.29
580.308	27447.9
580.506	27257.44
580.704	26628.71
580.901	26772.07
581.099	27189.86
581.297	26339.95
581.495	26526.32
581.692	26735.21
581.89	26620.52
582.088	26538.6
582.285	26403.44
582.483	26593.9
582.681	26272.37
582.878	26241.65
583.076	26018.42
583.274	26346.09
583.471	25895.54
583.669	25983.6
583.866	25625.21
584.064	25723.51
584.262	25793.14
584.459	26098.29
584.657	25488
584.854	25526.91
585.052	25168.51
585.249	25559.67
585.447	25686.65
585.644	25272.96
585.841	25432.7
586.039	25334.4
586.236	24693.38
586.434	25006.72
586.631	24941.19
586.828	24877.7
587.026	24898.18
587.223	24806.02
587.42	24654.47
587.618	24627.85
587.815	24547.98
588.012	24746.63
588.21	24279.69
588.407	24433.29
588.604	24511.11
588.801	24332.94
588.999	24173.2
589.196	24390.28
589.393	24269.45
589.59	24113.81
589.787	23724.69
589.984	23884.44
590.182	23487.13
590.379	23718.55
590.576	23573.14
590.773	23573.14
590.97	23517.85
591.167	23442.07
591.364	23100.06
591.561	23501.47
591.758	23022.24
591.955	23274.14
592.152	23032.48
592.349	22985.38
592.546	23231.13
592.743	23202.46
592.94	22536.87
593.137	22532.78
593.334	22680.23
593.531	22583.98
593.727	22686.37
593.924	22815.4
594.121	22483.62
594.318	22184.62
594.515	22020.78
594.712	22454.95
594.908	22006.45
595.105	21975.73
595.302	22045.36
595.499	21828.27
595.696	21893.81
595.892	21815.99
596.089	22131.37
596.286	21992.11
596.482	21990.06
596.679	21521.08
596.876	21607.09
597.072	21324.47
597.269	21480.12
597.466	21189.31
597.662	21148.35
597.859	21451.45
598.055	21420.73
598.252	21275.32
598.448	21025.47
598.645	20947.65
598.841	20976.32
599.038	21158.59
599.234	20959.94
599.431	20759.24
599.627	20630.21
599.824	20892.35
600.02	20390.6
600.217	20550.34
600.413	20435.66
600.609	20406.98
600.806	20138.7
601.002	20167.37
601.198	20185.8
601.395	19938
601.591	20050.64
601.787	20116.17
601.984	19778.26
602.18	20241.1
602.376	19645.14
602.572	19528.41
602.769	19595.99
602.965	19458.78
603.161	19503.83
603.357	19559.13
603.553	19342.04
603.75	19806.93
603.946	19305.18
604.142	19288.79
604.338	19028.7
604.534	19161.82
604.73	19026.65
604.926	18954.97
605.122	19264.22
605.318	18991.84
605.514	18682.59
605.71	18965.21
605.906	18682.59
606.102	18784.99
606.298	18467.56
606.494	18766.56
606.69	18698.98
606.886	18803.43
607.082	18254.57
607.278	18606.82
607.474	18133.74
607.67	18502.37
607.866	18238.19
608.062	18436.84
608.257	18176.75
608.453	18258.67
608.649	17986.29
608.845	18143.98
609.041	17873.65
609.236	18137.84
609.432	18125.55
609.628	18074.35
609.824	17863.41
610.019	18029.29
610.215	17902.32
610.411	18078.44
610.606	17724.15
610.802	17828.59
610.998	17627.89
611.193	17566.45
611.389	17672.95
611.584	17529.59
611.78	17502.96
611.976	17427.19
612.171	17261.3
612.367	17332.98
612.562	17218.3
612.758	16859.9
612.953	17269.5
613.149	17386.23
613.344	17363.7
613.539	17304.31
613.735	17148.67
613.93	17111.8
614.126	17136.38
614.321	17068.8
614.517	17152.76
614.712	17185.53
614.907	17033.98
615.103	17152.76
615.298	17177.34
615.493	17103.61
615.688	16663.3
615.884	17138.43
616.079	16835.33
616.274	16870.14
616.47	16671.49
616.665	16622.34
616.86	16698.11
617.055	16624.39
617.25	16521.99
617.445	16866.05
617.641	16302.86
617.836	16409.35
618.031	16040.72
618.226	16468.74
618.421	16270.09
618.616	16210.7
618.811	16171.79
619.006	16104.2
619.201	15794.96
619.396	16155.4
619.591	15868.69
619.786	15913.74
619.981	15831.82
620.176	15807.25
620.371	15735.57
620.566	15577.87
620.761	15428.37
620.956	15565.59
621.151	15403.8
621.346	15133.47
621.541	15199
621.735	15143.7
621.93	15008.54
622.125	15106.84
622.32	14699.3
622.515	14861.09
622.709	14934.81
622.904	14801.69
623.099	14695.2
623.294	14664.48
623.488	14299.94
623.683	14723.87
623.878	14275.37
624.072	14379.81
624.267	14140.2
624.462	14207.78
624.656	13865.77
624.851	14052.14
625.046	13835.05
625.24	13806.38
625.435	13673.26
625.629	13550.39
625.824	13593.39
626.018	13415.22
626.213	13370.16
626.407	13441.84
626.602	13333.3
626.796	13318.96
626.991	13249.33
627.185	13241.14
627.38	13032.25
627.574	13083.45
627.768	12933.95
627.963	12837.69
628.157	12946.23
628.352	12729.15
628.546	12460.87
628.74	12741.44
628.935	12280.64
629.129	12383.04
629.323	12381
629.517	12317.51
629.712	12155.72
629.906	12168.01
630.1	12137.29
630.294	12151.62
630.489	11901.77
630.683	12112.71
630.877	11760.46
631.071	11690.83
631.265	11959.11
631.459	11805.52
631.653	11676.49
631.848	11518.8
632.042	11420.5
632.236	11684.69
632.43	11551.57
632.624	11449.17
632.818	11207.51
633.012	11184.98
633.206	11342.67
633.4	11156.31
633.594	10791.77
633.788	10959.7
633.982	11015
634.176	10849.11
634.369	10953.56
634.563	10949.46
634.757	10785.63
634.951	10765.15
635.145	10687.32
635.339	10640.22
635.533	10449.76
635.726	10447.71
635.92	10345.31
636.114	10558.3
636.308	10054.5
636.501	10242.92
636.695	10277.73
636.889	10158.95
637.083	10181.48
637.276	10093.41
637.47	9902.95
637.664	9839.47
637.857	9818.99
638.051	10199.91
638.244	9788.27
638.438	9722.73
638.632	9788.27
638.825	9472.88
639.019	9569.13
639.212	9460.59
639.406	9610.09
639.599	9704.3
639.793	9343.86
639.986	9188.21
640.18	9147.25
640.373	9239.41
640.567	8942.46
640.76	9245.55
640.954	8835.96
641.147	8905.59
641.34	8983.41
641.534	8788.86
641.727	9005.94
641.92	8967.03
642.114	8835.96
642.307	8575.87
642.5	8735.61
642.694	8698.75
642.887	8532.86
643.08	8672.12
643.273	8594.3
643.467	8481.66
643.66	8418.18
643.853	8352.64
644.046	8264.58
644.239	8309.63
644.432	8139.65
644.626	8102.79
644.819	8106.88
645.012	8102.79
645.205	8119.17
645.398	8094.6
645.591	7781.26
645.784	7797.64
645.977	7885.7
646.17	7875.46
646.363	7861.13
646.556	7814.02
646.749	7824.26
646.942	7820.17
647.135	7756.68
647.328	7658.38
647.521	7598.99
647.714	7543.69
647.907	7695.24
648.099	7572.36
648.292	7410.57
648.485	7345.04
648.678	7355.28
648.871	7320.46
649.064	7197.59
649.256	7316.37
649.449	7246.74
649.642	7037.84
649.835	7023.51
650.027	7130
650.22	6939.54
650.413	6945.69
650.605	6773.66
650.798	6771.61
650.991	6800.28
651.183	6820.76
651.376	6767.51
651.568	6779.8
651.761	6992.79
651.954	6806.42
652.146	6652.83
652.339	6687.64
652.531	6521.76
652.724	6450.08
652.916	6525.85
653.109	6628.25
653.301	6550.43
653.494	6362.01
653.686	6364.06
653.879	6402.97
654.071	6298.53
654.263	6286.24
654.456	6235.04
654.648	6212.51
654.84	6245.28
655.033	6140.83
655.225	6202.27
655.417	6185.89
655.61	6017.96
655.802	6085.54
655.994	5864.36
656.186	5944.23
656.379	5831.59
656.571	5907.37
656.763	5759.91
656.955	5907.37
657.148	5747.62
657.34	5739.43
657.532	5927.85
657.724	5688.23
657.916	5608.36
658.108	5677.99
658.3	5665.71
658.492	5618.6
658.684	5485.48
658.876	5522.35
659.068	5299.12
659.26	5479.34
659.452	5438.38
659.644	5456.81
659.836	5360.56
660.028	5436.33
660.22	5315.5
660.412	5350.32
660.604	5239.73
660.796	5262.26
660.988	5290.93
661.18	5061.55
661.372	5217.2
661.563	5084.08
661.755	5108.66
661.947	5176.24
662.139	5018.55
662.331	5125.04
662.522	4877.24
662.714	4944.82
662.906	4864.95
663.097	4975.54
663.289	4705.21
663.481	4903.86
663.673	4969.4
663.864	4846.52
664.056	4750.26
664.247	4854.71
664.439	4723.64
664.631	4789.17
664.822	4821.94
665.014	4760.5
665.205	4432.83
665.397	4639.67
665.588	4586.43
665.78	4608.95
665.971	4633.53
666.163	4563.9
666.354	4535.23
666.546	4428.73
666.737	4303.81
666.929	4463.55
667.12	4414.4
667.311	4400.06
667.503	4330.43
667.694	4305.85
667.885	4213.7
668.077	4242.37
668.268	4240.32
668.459	4484.03
668.651	4238.27
668.842	4170.69
669.033	4248.51
669.224	4092.87
669.416	4268.99
669.607	4127.68
669.798	4144.06
669.989	4172.74
670.18	4019.14
670.371	4101.06
670.563	4101.06
670.754	3961.8
670.945	4015.04
671.136	4015.04
671.327	3929.03
671.518	3961.8
671.709	3924.93
671.9	3886.02
672.091	3838.92
672.282	3847.11
672.473	3771.33
672.664	3920.84
672.855	3830.73
673.046	3877.83
673.237	3824.58
673.428	3802.05
673.619	3734.47
673.809	3707.85
674	3724.23
674.191	3670.98
674.382	3679.18
674.573	3675.08
674.764	3677.13
674.954	3640.26
675.145	3519.43
675.336	3587.02
675.527	3560.39
675.717	3544.01
675.908	3634.12
676.099	3560.39
676.289	3470.28
676.48	3507.15
676.671	3445.71
676.861	3552.2
677.052	3593.16
677.243	3425.23
677.433	3380.17
677.624	3677.13
677.814	3363.79
678.005	3472.33
678.195	3412.94
678.386	3347.4
678.576	3386.32
678.767	3398.6
678.957	3333.07
679.148	3326.93
679.338	3392.46
679.529	3148.75
679.719	3314.64
679.909	3445.71
680.1	3480.52
680.29	3281.87
680.481	3261.39
680.671	3283.92
680.861	3281.87
681.052	3224.53
681.242	3212.24
681.432	3177.42
681.622	3052.5
681.813	3169.23
682.003	3128.27
682.193	3099.6
682.383	3193.81
682.573	3163.09
682.764	3011.54
682.954	3070.93
683.144	3095.5
683.334	3134.42
683.524	3140.56
683.714	2931.67
683.904	2968.53
684.094	3167.18
684.284	3054.55
684.474	3158.99
684.664	2939.86
684.854	2931.67
685.044	2882.52
685.234	2874.32
685.424	2964.43
685.614	2954.19
685.804	3062.74
685.994	2816.98
686.184	3023.83
686.374	2913.24
686.564	2915.28
686.753	2876.37
686.943	2874.32
687.133	2972.63
687.323	2859.99
687.513	2935.76
687.702	2831.32
687.892	2796.5
688.082	2847.7
688.272	2890.71
688.461	2825.17
688.651	2724.82
688.841	2769.88
689.03	2864.08
689.22	2798.55
689.41	2683.86
689.599	2743.25
689.789	2761.69
689.979	2749.4
690.168	2786.26
690.358	2788.31
690.547	2702.29
690.737	2653.14
690.926	2620.38
691.116	2651.1
691.305	2636.76
691.495	2669.53
691.684	2563.03
691.874	2612.18
692.063	2554.84
692.252	2669.53
692.442	2677.72
692.631	2438.11
692.82	2499.55
693.01	2530.27
693.199	2571.22
693.388	2513.88
693.578	2468.83
693.767	2464.73
693.956	2544.6
694.146	2409.44
694.335	2511.83
694.524	2520.03
694.713	2462.68
694.902	2489.31
695.092	2413.53
695.281	2417.63
695.47	2472.92
695.659	2358.24
695.848	2462.68
696.037	2477.02
696.226	2376.67
696.415	2395.1
696.604	2548.7
696.793	2354.14
696.982	2321.37
697.171	2450.39
697.36	2372.57
697.549	2196.45
697.738	2356.19
697.927	2397.15
698.116	2321.37
698.305	2460.63
698.494	2274.27
698.683	2184.16
698.872	2339.8
699.061	2221.02
699.25	2292.7
699.438	2266.08
699.627	2241.5
699.816	2335.71
700.005	2259.93
700.193	2388.96
700.382	2403.29
700.571	2335.71
700.76	2225.12
700.948	2292.7
701.137	2307.04
701.326	2284.51
701.514	2147.3
701.703	2266.08
701.892	2266.08
702.08	2249.69
702.269	2200.54
702.457	2167.77
702.646	2243.55
702.834	2274.27
703.023	2243.55
703.212	2120.67
703.4	2167.77
703.589	2178.01
703.777	2290.65
703.965	2110.43
704.154	2259.93
704.342	2216.93
704.531	2130.91
704.719	2087.9
704.907	2184.16
705.096	2204.64
705.284	2122.72
705.472	2135.01
705.661	2261.98
705.849	2165.73
706.037	2194.4
706.226	2200.54
706.414	2200.54
706.602	2178.01
706.79	2137.06
706.979	2178.01
707.167	2120.67
707.355	2098.14
707.543	2073.57
707.731	2102.24
707.919	2069.47
708.107	2167.77
708.296	2077.66
708.484	2100.19
708.672	2106.34
708.86	2094.05
709.048	2026.47
709.236	2053.09
709.424	2124.77
709.612	2202.59
709.8	2221.02
709.988	2235.36
710.176	2329.56
710.364	2194.4
710.551	2198.49
710.739	2061.28
710.927	2032.61
711.115	2218.97
711.303	2098.14
711.491	2171.87
711.679	2153.44
711.866	2028.51
712.054	2128.86
712.242	2096.1
712.43	2153.44
712.617	2092
712.805	2147.3
712.993	2218.97
713.181	2110.43
713.368	2061.28
713.556	2143.2
713.744	1973.22
713.931	2169.82
714.119	1954.79
714.306	2063.33
714.494	2186.21
714.682	2118.62
714.869	2014.18
715.057	2167.77
715.244	2028.51
715.432	2073.57
715.619	2147.3
715.807	2124.77
715.994	2069.47
716.182	1938.4
716.369	2186.21
716.556	2218.97
716.744	2036.7
716.931	2061.28
717.119	2114.53
717.306	2116.58
717.493	1965.03
717.681	2094.05
717.868	2161.63
718.055	2139.1
718.242	2083.81
718.43	2085.86
718.617	2114.53
718.804	2114.53
718.991	2087.9
719.179	2087.9
719.366	2216.93
719.553	2014.18
719.74	2036.7
719.927	2182.11
720.114	2077.66
720.301	2085.86
720.488	1995.75
720.676	1934.31
720.863	2024.42
721.05	2102.24
721.237	2094.05
721.424	1989.6
721.611	2003.94
721.798	1977.31
721.985	2012.13
722.172	2108.38
722.358	2063.33
722.545	2005.99
722.732	1954.79
722.919	1971.17
723.106	2036.7
723.293	2145.25
723.48	2001.89
723.667	2059.23
723.853	2061.28
724.04	1930.21
724.227	2040.8
724.414	2020.32
724.6	2061.28
724.787	2077.66
724.974	2048.99
725.161	2012.13
725.347	2051.04
725.534	2053.09
725.72	2003.94
725.907	2003.94
726.094	2065.38
726.28	2057.18
726.467	2098.14
726.653	1977.31
726.84	2057.18
727.027	2104.29
727.213	1940.45
727.4	2073.57
727.586	2061.28
727.773	2057.18
727.959	2022.37
728.145	1858.53
728.332	1958.88
728.518	1938.4
728.705	2081.76
728.891	2085.86
729.077	1979.36
729.264	2008.03
729.45	1954.79
729.636	2044.9
729.823	1950.69
730.009	1967.07
730.195	2073.57
730.382	2005.99
730.568	1938.4
730.754	2057.18
730.94	2094.05
731.126	1913.83
731.313	1962.98
731.499	1991.65
731.685	1969.12
731.871	2106.34
732.057	1930.21
732.243	1965.03
732.429	1858.53
732.615	1975.27
732.801	2026.47
732.987	1985.51
733.173	1915.87
733.359	1885.16
733.545	1946.59
733.731	1901.54
733.917	1989.6
734.103	1942.5
734.289	1971.17
734.475	1950.69
734.661	2022.37
734.847	2012.13
735.033	1975.27
735.219	2012.13
735.404	1932.26
735.59	1965.03
735.776	1954.79
735.962	1940.45
736.148	1909.73
736.333	1989.6
736.519	1893.35
736.705	1889.25
736.89	1950.69
737.076	1885.16
737.262	1766.37
737.447	1913.83
737.633	1864.68
737.819	1911.78
738.004	1885.16
738.19	1934.31
738.375	1926.11
738.561	1977.31
738.747	1866.72
738.932	1872.87
739.118	1995.75
739.303	1899.49
739.489	1872.87
739.674	1866.72
739.859	1801.19
740.045	1942.5
740.23	1840.1
740.416	1897.44
740.601	1891.3
740.786	1868.77
740.972	1827.81
741.157	1801.19
741.342	1864.68
741.528	1848.29
741.713	1924.07
741.898	1690.6
742.084	1752.04
742.269	1815.52
742.454	1762.28
742.639	1864.68
742.824	1752.04
743.01	1733.61
743.195	1774.56
743.38	1721.32
743.565	1737.7
743.75	1782.76
743.935	1727.46
744.12	1698.79
744.305	1702.89
744.49	1793
744.675	1754.09
744.86	1696.74
745.045	1741.8
745.23	1661.93
745.415	1682.41
745.6	1614.82
745.785	1520.62
745.97	1653.73
746.155	1768.42
746.34	1596.39
746.525	1557.48
746.71	1582.06
746.895	1563.62
747.079	1635.3
747.264	1528.81
747.449	1549.29
747.634	1528.81
747.819	1557.48
748.003	1559.53
748.188	1541.1
748.373	1545.19
748.557	1569.77
748.742	1561.58
748.927	1537
749.111	1438.7
749.296	1500.14
749.481	1496.04
749.665	1528.81
749.85	1455.08
750.034	1434.6
750.219	1383.4
750.404	1405.93
750.588	1414.12
750.773	1457.13
750.957	1446.89
751.141	1389.55
751.326	1391.59
751.51	1377.26
751.695	1377.26
751.879	1369.07
752.064	1410.03
752.248	1334.25
752.432	1334.25
752.617	1309.68
752.801	1457.13
752.985	1422.31
753.17	1346.54
753.354	1287.15
753.538	1364.97
753.722	1274.86
753.907	1274.86
754.091	1184.75
754.275	1274.86
754.459	1246.19
754.643	1307.63
754.828	1063.92
755.012	1221.61
755.196	1162.22
755.38	1229.81
755.564	1194.99
755.748	1139.69
755.932	1227.76
756.116	1143.79
756.3	1182.7
756.484	1137.65
756.668	1127.41
756.852	1072.11
757.036	1094.64
757.22	1156.08
757.404	1131.5
757.588	1078.26
757.772	1111.02
757.956	1063.92
758.14	1182.7
758.323	1045.49
758.507	1012.72
758.691	1086.45
758.875	1086.45
759.059	1061.87
759.242	1078.26
759.426	1061.87
759.61	1078.26
759.794	1029.1
759.977	1063.92
760.161	1111.02
760.345	1012.72
760.528	977.91
760.712	994.29
760.895	1041.39
761.079	918.51
761.263	1012.72
761.446	928.75
761.63	1025.01
761.813	955.38
761.997	938.99
762.18	898.03
762.364	922.61
762.547	930.8
762.731	889.84
762.914	893.94
763.098	928.75
763.281	906.23
763.464	873.46
763.648	873.46
763.831	947.19
764.015	863.22
764.198	918.51
764.381	885.75
764.564	926.71
764.748	871.41
764.931	871.41
765.114	865.27
765.297	906.23
765.481	850.93
765.664	963.57
765.847	977.91
766.03	883.7
766.213	844.79
766.397	910.32
766.58	898.03
766.763	889.84
766.946	881.65
767.129	836.6
767.312	801.78
767.495	738.29
767.678	797.68
767.861	791.54
768.044	852.98
768.227	826.36
768.41	842.74
768.593	820.21
768.776	762.87
768.959	769.01
769.142	787.44
769.324	807.92
769.507	799.73
769.69	719.86
769.873	773.11
770.056	793.59
770.239	852.98
770.421	744.44
770.604	812.02
770.787	785.4
770.97	775.16
771.152	654.33
771.335	832.5
771.518	766.96
771.7	832.5
771.883	773.11
772.066	680.95
772.248	758.77
772.431	791.54
772.613	732.15
772.796	840.69
772.978	760.82
773.161	713.72
773.343	738.29
773.526	789.49
773.708	666.61
773.891	744.44
774.073	734.2
774.256	687.09
774.438	697.33
774.621	668.66
774.803	703.48
774.985	711.67
775.168	619.51
775.35	685.05
775.532	721.91
775.715	521.21
775.897	658.42
776.079	670.71
776.261	711.67
776.444	648.18
776.626	635.89
776.808	621.56
776.99	564.22
777.173	701.43
777.355	627.7
777.537	644.09
777.719	611.32
777.901	529.4
778.083	539.64
778.265	588.79
778.447	650.23
778.629	689.14
778.811	574.46
778.993	580.6
779.175	596.98
779.357	492.54
779.539	521.21
779.721	537.59
779.903	500.73
780.085	482.3
780.267	533.5
780.449	586.74
780.631	564.22
780.812	517.11
780.994	476.15
781.176	484.34
781.358	488.44
781.54	496.63
781.721	629.75
781.903	453.63
782.085	562.17
782.267	467.96
782.448	447.48
782.63	556.02
782.812	498.68
782.993	500.73
783.175	451.58
783.357	402.43
783.538	449.53
783.72	435.19
783.901	373.75
784.083	455.67
784.264	472.06
784.446	375.8
784.627	357.37
784.809	451.58
784.99	406.52
785.172	416.76
785.353	363.51
785.535	480.25
785.716	433.15
785.897	353.27
786.079	441.34
786.26	406.52
786.441	404.47
786.623	340.99
786.804	373.75
786.985	381.95
787.167	381.95
787.348	332.79
787.529	357.37
787.71	355.32
787.891	332.79
788.073	285.69
788.254	398.33
788.435	414.71
788.616	277.5
788.797	300.03
788.978	343.03
789.159	263.16
789.34	361.47
789.522	318.46
789.703	291.84
789.884	347.13
790.065	349.18
790.246	404.47
790.427	287.74
790.607	447.48
790.788	328.7
790.969	310.27
791.15	291.84
791.331	332.79
791.512	252.92
791.693	226.3
791.874	367.61
792.054	343.03
792.235	316.41
792.416	275.45
792.597	295.93
792.778	343.03
792.958	330.75
793.139	402.43
793.32	324.6
793.5	246.78
793.681	414.71
793.862	275.45
794.042	244.73
794.223	277.5
794.404	226.3
794.584	181.25
794.765	214.01
794.945	361.47
795.126	263.16
795.306	357.37
795.487	250.88
795.667	185.34
795.848	347.13
796.028	234.49
796.209	242.68
796.389	193.53
796.57	269.31
796.75	246.78
796.93	312.32
797.111	203.77
797.291	226.3
797.471	277.5
797.652	242.68
797.832	195.58
798.012	220.16
798.192	218.11
798.373	218.11
798.553	207.87
798.733	220.16
798.913	201.72
799.093	248.83
799.274	273.4
799.454	238.59
799.634	265.21
799.814	214.01
799.994	259.07
800.174	195.58
800.354	291.84
800.534	132.09
800.714	216.06
800.894	203.77
801.074	158.72
801.254	203.77
801.434	203.77
801.614	218.11
801.794	193.53
801.974	758.77
802.154	158.72
802.334	154.62
802.514	173.05
802.693	267.26
802.873	171.01
803.053	216.06
803.233	121.85
803.413	209.92
803.592	195.58
803.772	205.82
803.952	197.63
804.131	123.9
804.311	224.25
804.491	234.49
804.67	168.96
804.85	136.19
805.03	242.68
805.209	232.44
805.389	140.29
805.568	218.11
805.748	173.05
805.928	140.29
806.107	142.33
806.287	218.11
806.466	222.2
806.646	261.12
806.825	156.67
807.004	148.48
807.184	164.86
807.363	291.84
807.543	140.29
807.722	166.91
807.901	103.42
808.081	228.35
808.26	195.58
808.439	154.62
808.619	214.01
808.798	146.43
808.977	154.62
809.156	185.34
809.336	99.33
809.515	121.85
809.694	91.13
809.873	115.71
810.052	70.65
810.231	195.58
810.411	218.11
810.59	107.52
810.769	109.57
810.948	156.67
811.127	144.38
811.306	140.29
811.485	97.28
811.664	183.29
811.843	111.61
812.022	91.13
812.201	162.81
812.38	160.77
812.559	158.72
812.737	119.81
812.916	107.52
813.095	95.23
813.274	105.47
813.453	54.27
813.632	142.33
813.811	173.05
813.989	64.51
814.168	168.96
814.347	121.85
814.526	130.05
814.704	84.99
814.883	138.24
815.062	62.46
815.24	211.96
815.419	50.18
815.598	130.05
815.776	121.85
815.955	80.89
816.133	99.33
816.312	113.66
816.49	111.61
816.669	103.42
816.847	123.9
817.026	93.18
817.204	103.42
817.383	103.42
817.561	80.89
817.74	140.29
817.918	87.04
818.097	78.85
818.275	62.46
818.453	103.42
818.632	113.66
818.81	87.04
818.988	132.09
819.167	101.37
819.345	142.33
819.523	132.09
819.701	136.19
819.879	154.62
820.058	119.81
820.236	97.28
820.414	80.89
820.592	95.23
820.77	66.56
820.948	103.42
821.127	70.65
821.305	70.65
821.483	48.13
821.661	123.9
821.839	128
822.017	70.65
822.195	91.13
822.373	46.08
822.551	103.42
822.729	89.09
822.907	111.61
823.085	72.7
823.262	136.19
823.44	29.7
823.618	154.62
823.796	66.56
823.974	138.24
824.152	99.33
824.329	154.62
824.507	130.05
824.685	72.7
824.863	56.32
825.04	80.89
825.218	21.5
825.396	181.25
825.574	95.23
825.751	107.52
825.929	80.89
826.107	21.5
826.284	130.05
826.462	87.04
826.639	29.7
826.817	15.36
826.994	105.47
827.172	37.89
827.349	121.85
827.527	9.22
827.704	64.51
827.882	39.94
828.059	119.81
828.237	95.23
828.414	91.13
828.591	-3.07
828.769	70.65
828.946	56.32
829.124	9.22
829.301	54.27
829.478	5.12
829.655	68.61
829.833	103.42
830.01	70.65
830.187	121.85
830.364	-3.07
830.542	101.37
830.719	115.71
830.896	101.37
831.073	50.18
831.25	78.85
831.427	74.75
831.604	7.17
831.782	29.7
831.959	74.75
832.136	60.42
832.313	-1.02
832.49	72.7
832.667	91.13
832.844	56.32
833.021	113.66
833.198	95.23
833.374	46.08
833.551	121.85
833.728	48.13
833.905	33.79
834.082	95.23
834.259	91.13
834.436	107.52
834.612	21.5
834.789	103.42
834.966	60.42
835.143	-3.07
835.319	-9.22
835.496	46.08
835.673	9.22
835.85	87.04
836.026	87.04
836.203	87.04
836.38	66.56
836.556	70.65
836.733	54.27
836.909	66.56
837.086	70.65
837.262	66.56
837.439	29.7
837.616	50.18
837.792	54.27
837.968	84.99
838.145	-21.5
838.321	76.8
838.498	46.08
838.674	19.46
838.851	80.89
839.027	31.74
839.203	37.89
839.38	5.12
839.556	7.17
839.732	46.08
839.909	68.61
840.085	21.5
840.261	56.32
840.437	41.98
840.614	-3.07
840.79	41.98
840.966	-27.65
841.142	62.46
841.318	66.56
841.494	56.32
841.671	33.79
841.847	66.56
842.023	-5.12
842.199	25.6
842.375	93.18
842.551	-17.41
842.727	5.12
842.903	78.85
843.079	-11.26
843.255	78.85
843.431	23.55
843.607	78.85
843.783	78.85
843.959	80.89
844.134	37.89
844.31	80.89
844.486	-3.07
844.662	-29.7
844.838	27.65
845.013	29.7
845.189	-23.55
845.365	37.89
845.541	-11.26
845.716	56.32
845.892	103.42
846.068	64.51
846.244	-46.08
846.419	29.7
846.595	52.22
846.77	7.17
846.946	109.57
847.122	27.65
847.297	39.94
847.473	60.42
847.648	70.65
847.824	15.36
847.999	-35.84
848.175	1.02
848.35	35.84
848.526	70.65
848.701	15.36
848.876	56.32
849.052	56.32
849.227	-7.17
849.403	25.6
849.578	29.7
849.753	-1.02
849.929	-3.07
850.104	7.17
850.279	72.7
850.454	78.85
850.63	-13.31
850.805	21.5
850.98	39.94
851.155	7.17
851.33	-19.46
851.505	62.46
851.681	29.7
851.856	-27.65
852.031	41.98
852.206	25.6
852.381	21.5
852.556	9.22
852.731	35.84
852.906	56.32
853.081	72.7
853.256	13.31
853.431	19.46
853.606	5.12
853.781	13.31
853.956	-84.99
854.131	37.89
854.305	13.31
854.48	-9.22
854.655	58.37
854.83	41.98
855.005	37.89
855.18	103.42
855.354	-27.65
855.529	-3.07
855.704	29.7
855.879	56.32
856.053	1.02
856.228	58.37
856.403	-44.03
856.577	17.41
856.752	23.55
856.926	7.17
857.101	13.31
857.276	13.31
857.45	15.36
857.625	21.5
857.799	-23.55
857.974	-13.31
858.148	-39.94
858.323	-52.22
858.497	5.12
858.672	37.89
858.846	29.7
859.02	115.71
859.195	19.46
859.369	-44.03
859.543	-15.36
859.718	-17.41
859.892	33.79
860.066	37.89
860.241	9.22
860.415	-25.6
860.589	-3.07
860.763	17.41
860.938	29.7
861.112	-7.17
861.286	29.7
861.46	54.27
861.634	13.31
861.808	-25.6
861.982	-13.31
862.157	37.89
862.331	17.41
862.505	48.13
862.679	25.6
862.853	13.31
863.027	-3.07
863.201	-27.65
863.375	58.37
863.549	15.36
863.722	-17.41
863.896	56.32
864.07	-7.17
864.244	-97.28
864.418	7.17
864.592	29.7
864.766	9.22
864.939	-3.07
865.113	-44.03
865.287	78.85
865.461	-13.31
865.634	7.17
865.808	-68.61
865.982	19.46
866.156	44.03
866.329	-1.02
866.503	39.94
866.676	41.98
866.85	37.89
867.024	5.12
867.197	72.7
867.371	23.55
867.544	66.56
867.718	13.31
867.891	27.65
868.065	1.02
868.238	-15.36
868.412	105.47
868.585	37.89
868.759	7.17
868.932	-3.07
869.105	3.07
869.279	37.89
869.452	29.7
869.625	46.08
869.799	17.41
869.972	29.7
870.145	-19.46
870.319	31.74
870.492	-23.55
870.665	-84.99
870.838	-99.33
871.011	-117.76
871.185	-27.65
871.358	-3.07
871.531	13.31
871.704	-27.65
871.877	-1.02
872.05	-1.02
872.223	-19.46
872.396	-9.22
872.569	54.27
872.742	-52.22
872.915	13.31
873.088	-58.37
873.261	-11.26
873.434	19.46
873.607	3.07
873.78	89.09
873.953	7.17
874.126	-35.84
874.299	-9.22
874.471	5.12
874.644	-33.79
874.817	5.12
874.99	66.56
875.163	-41.98
875.335	31.74
875.508	54.27
875.681	27.65
875.853	-11.26
876.026	41.98
876.199	17.41
876.371	33.79
876.544	13.31
876.717	70.65
876.889	-5.12
877.062	19.46
877.234	-3.07
877.407	29.7
877.579	25.6
877.752	54.27
877.924	15.36
878.097	41.98
878.269	-21.5
878.442	5.12
878.614	-27.65
878.786	21.5
878.959	-56.32
879.131	19.46
879.303	-15.36
879.476	31.74
879.648	1.02
879.82	23.55
879.993	5.12
880.165	13.31
880.337	-50.18
880.509	11.26
880.681	-35.84
880.854	39.94
881.026	66.56
881.198	29.7
881.37	-9.22
881.542	-35.84
881.714	5.12
881.886	21.5
882.058	-23.55
882.23	72.7
882.402	-41.98
882.574	54.27
882.746	-1.02
882.918	-29.7
883.09	121.85
883.262	56.32
883.434	72.7
883.606	23.55
883.778	-58.37
883.95	1.02
884.122	15.36
884.293	-66.56
884.465	-56.32
884.637	23.55
884.809	-23.55
884.98	-50.18
885.152	5.12
885.324	-3.07
885.496	-66.56
885.667	62.46
885.839	78.85
886.011	13.31
886.182	-39.94
886.354	-17.41
886.525	-27.65
886.697	29.7
886.869	13.31
887.04	-23.55
887.212	11.26
887.383	70.65
887.555	-44.03
887.726	17.41
887.897	-27.65
888.069	-11.26
888.24	33.79
888.412	64.51
888.583	-31.74
888.754	-25.6
888.926	-13.31
889.097	-23.55
889.268	-58.37
889.44	13.31
889.611	56.32
889.782	-19.46
889.953	-25.6
890.125	15.36
890.296	-19.46
890.467	-44.03
890.638	-3.07
890.809	13.31
890.98	3.07
891.151	-19.46
891.323	33.79
891.494	-68.61
891.665	-97.28
891.836	-19.46
892.007	-35.84
892.178	-35.84
892.349	-27.65
892.52	-39.94
892.691	3.07
892.862	-54.27
893.032	-31.74
893.203	13.31
893.374	50.18
893.545	29.7
893.716	-1.02
893.887	1.02
894.057	-46.08
894.228	15.36
894.399	-7.17
894.57	-41.98
894.74	31.74
894.911	39.94
895.082	-44.03
895.253	5.12
895.423	72.7
895.594	23.55
895.764	-3.07
895.935	-44.03
896.106	-21.5
896.276	-27.65
896.447	41.98
896.617	-27.65
896.788	9.22
896.958	5.12
897.129	-3.07
897.299	41.98
897.47	9.22
897.64	39.94
897.81	-39.94
897.981	7.17
898.151	17.41
898.322	46.08
898.492	21.5
898.662	-33.79
898.832	35.84
899.003	1.02
899.173	-15.36
899.343	-11.26
899.513	9.22
