Data from USB4F104151__37__14-42-53-184.txt Node

Date: Thu Mar 13 14:42:53 EDT 2025
User: louis
Spectrometer: USB4F10415
Trigger mode: 4
Integration Time (sec): 2.000000E-2
Scans to average: 1
Electric dark correction enabled: true
Nonlinearity correction enabled: false
Boxcar width: 0
XAxis mode: Wavelengths
Number of Pixels in Spectrum: 3648
>>>>>Begin Spectral Data<<<<<
178.204	-122.71
178.424	-122.71
178.644	-122.71
178.864	-100.18
179.084	-143.19
179.304	-20.31
179.524	-61.27
179.744	-3.93
179.964	63.66
180.184	-65.36
180.404	-36.69
180.624	18.6
180.844	39.08
181.064	-8.02
181.283	-12.12
181.503	37.03
181.723	49.32
181.943	-32.6
182.163	98.47
182.383	26.79
182.602	92.33
182.822	59.56
183.042	121
183.262	53.42
183.482	18.6
183.701	82.09
183.921	53.42
184.141	12.46
184.361	73.9
184.58	65.71
184.8	69.8
185.02	-5.97
185.239	65.71
185.459	-8.02
185.679	65.71
185.898	-22.36
186.118	32.94
186.338	12.46
186.557	-22.36
186.777	51.37
186.997	67.75
187.216	12.46
187.436	80.04
187.655	55.47
187.875	59.56
188.095	43.18
188.314	131.24
188.534	77.99
188.753	-3.93
188.973	32.94
189.192	139.43
189.412	0.17
189.631	32.94
189.851	57.51
190.07	34.99
190.29	-44.88
190.509	39.08
190.729	114.86
190.948	24.75
191.168	157.86
191.387	-28.5
191.607	106.67
191.826	-8.02
192.045	73.9
192.265	8.36
192.484	24.75
192.704	37.03
192.923	18.6
193.142	77.99
193.362	49.32
193.581	82.09
193.8	10.41
194.02	108.71
194.239	-16.21
194.458	100.52
194.678	-3.93
194.897	18.6
195.116	67.75
195.335	37.03
195.555	84.14
195.774	32.94
195.993	96.43
196.212	49.32
196.432	63.66
196.651	49.32
196.87	98.47
197.089	96.43
197.308	110.76
197.528	73.9
197.747	18.6
197.966	114.86
198.185	61.61
198.404	71.85
198.623	86.19
198.842	34.99
199.062	106.67
199.281	65.71
199.5	12.46
199.719	-38.74
199.938	90.28
200.157	8.36
200.376	20.65
200.595	77.99
200.814	-5.97
201.033	12.46
201.252	32.94
201.471	-1.88
201.69	24.75
201.909	90.28
202.128	90.28
202.347	88.23
202.566	32.94
202.785	88.23
203.004	32.94
203.223	108.71
203.442	80.04
203.661	2.22
203.879	100.52
204.098	84.14
204.317	24.75
204.536	12.46
204.755	-5.97
204.974	141.48
205.193	94.38
205.411	57.51
205.63	20.65
205.849	73.9
206.068	-5.97
206.287	61.61
206.505	43.18
206.724	8.36
206.943	94.38
207.162	4.27
207.381	-8.02
207.599	90.28
207.818	65.71
208.037	98.47
208.255	24.75
208.474	0.17
208.693	28.84
208.911	65.71
209.13	80.04
209.349	26.79
209.567	4.27
209.786	141.48
210.005	28.84
210.223	59.56
210.442	22.7
210.661	96.43
210.879	41.13
211.098	24.75
211.316	-32.6
211.535	94.38
211.753	39.08
211.972	-46.93
212.191	-8.02
212.409	75.95
212.628	90.28
212.846	98.47
213.065	59.56
213.283	8.36
213.502	8.36
213.72	94.38
213.938	16.55
214.157	106.67
214.375	41.13
214.594	65.71
214.812	73.9
215.031	82.09
215.249	-8.02
215.467	61.61
215.686	73.9
215.904	18.6
216.122	139.43
216.341	96.43
216.559	106.67
216.778	49.32
216.996	90.28
217.214	67.75
217.432	49.32
217.651	18.6
217.869	34.99
218.087	114.86
218.306	32.94
218.524	34.99
218.742	8.36
218.96	41.13
219.179	69.8
219.397	41.13
219.615	2.22
219.833	49.32
220.051	18.6
220.27	67.75
220.488	2.22
220.706	98.47
220.924	57.51
221.142	86.19
221.36	-14.17
221.578	63.66
221.796	-10.07
222.015	47.27
222.233	2.22
222.451	59.56
222.669	-28.5
222.887	16.55
223.105	2.22
223.323	18.6
223.541	16.55
223.759	141.48
223.977	24.75
224.195	82.09
224.413	57.51
224.631	39.08
224.849	-24.4
225.067	141.48
225.285	-24.4
225.503	43.18
225.721	30.89
225.939	59.56
226.157	59.56
226.375	106.67
226.592	34.99
226.81	2.22
227.028	94.38
227.246	100.52
227.464	131.24
227.682	65.71
227.9	47.27
228.117	65.71
228.335	4.27
228.553	110.76
228.771	59.56
228.989	82.09
229.206	67.75
229.424	53.42
229.642	82.09
229.86	59.56
230.077	65.71
230.295	67.75
230.513	84.14
230.731	24.75
230.948	106.67
231.166	100.52
231.384	51.37
231.601	77.99
231.819	82.09
232.037	67.75
232.254	24.75
232.472	26.79
232.689	-73.56
232.907	75.95
233.125	43.18
233.342	39.08
233.56	37.03
233.777	100.52
233.995	147.62
234.213	69.8
234.43	73.9
234.648	-30.55
234.865	34.99
235.083	67.75
235.3	24.75
235.518	37.03
235.735	57.51
235.953	106.67
236.17	41.13
236.388	34.99
236.605	14.51
236.822	86.19
237.04	90.28
237.257	55.47
237.475	49.32
237.692	110.76
237.909	30.89
238.127	57.51
238.344	90.28
238.562	114.86
238.779	30.89
238.996	28.84
239.214	110.76
239.431	84.14
239.648	106.67
239.865	51.37
240.083	34.99
240.3	71.85
240.517	10.41
240.735	47.27
240.952	55.47
241.169	28.84
241.386	-22.36
241.603	24.75
241.821	-24.4
242.038	90.28
242.255	41.13
242.472	-16.21
242.689	-48.98
242.907	116.9
243.124	104.62
243.341	53.42
243.558	32.94
243.775	20.65
243.992	-8.02
244.209	73.9
244.426	108.71
244.643	43.18
244.86	51.37
245.078	55.47
245.295	110.76
245.512	63.66
245.729	16.55
245.946	49.32
246.163	65.71
246.38	24.75
246.597	110.76
246.814	20.65
247.031	104.62
247.248	73.9
247.464	37.03
247.681	2.22
247.898	26.79
248.115	59.56
248.332	34.99
248.549	37.03
248.766	135.34
248.983	106.67
249.2	18.6
249.417	63.66
249.633	71.85
249.85	10.41
250.067	137.38
250.284	-5.97
250.501	16.55
250.717	73.9
250.934	26.79
251.151	20.65
251.368	26.79
251.585	16.55
251.801	92.33
252.018	90.28
252.235	16.55
252.451	16.55
252.668	73.9
252.885	67.75
253.102	86.19
253.318	73.9
253.535	-53.08
253.752	69.8
253.968	41.13
254.185	45.23
254.401	-12.12
254.618	65.71
254.835	82.09
255.051	53.42
255.268	37.03
255.484	73.9
255.701	16.55
255.917	82.09
256.134	-18.26
256.351	26.79
256.567	24.75
256.784	8.36
257	34.99
257.217	41.13
257.433	34.99
257.65	24.75
257.866	77.99
258.082	12.46
258.299	-26.45
258.515	49.32
258.732	32.94
258.948	34.99
259.165	-12.12
259.381	34.99
259.597	106.67
259.814	-16.21
260.03	53.42
260.246	73.9
260.463	65.71
260.679	20.65
260.895	59.56
261.112	73.9
261.328	82.09
261.544	51.37
261.761	106.67
261.977	57.51
262.193	14.51
262.409	53.42
262.626	123.05
262.842	57.51
263.058	-5.97
263.274	59.56
263.49	-8.02
263.707	2.22
263.923	73.9
264.139	18.6
264.355	24.75
264.571	77.99
264.787	12.46
265.004	116.9
265.22	32.94
265.436	30.89
265.652	92.33
265.868	96.43
266.084	82.09
266.3	34.99
266.516	6.31
266.732	69.8
266.948	-16.21
267.164	53.42
267.38	75.95
267.596	34.99
267.812	75.95
268.028	57.51
268.244	18.6
268.46	-8.02
268.676	4.27
268.892	96.43
269.108	-28.5
269.324	49.32
269.54	-8.02
269.756	49.32
269.972	49.32
270.188	6.31
270.403	73.9
270.619	2.22
270.835	129.19
271.051	63.66
271.267	59.56
271.483	57.51
271.698	0.17
271.914	41.13
272.13	45.23
272.346	96.43
272.562	49.32
272.777	82.09
272.993	30.89
273.209	37.03
273.425	106.67
273.64	82.09
273.856	12.46
274.072	80.04
274.287	45.23
274.503	32.94
274.719	67.75
274.934	-12.12
275.15	28.84
275.366	102.57
275.581	-16.21
275.797	51.37
276.012	90.28
276.228	55.47
276.444	34.99
276.659	123.05
276.875	-30.55
277.09	14.51
277.306	65.71
277.521	28.84
277.737	39.08
277.952	75.95
278.168	41.13
278.383	75.95
278.599	65.71
278.814	57.51
279.03	34.99
279.245	106.67
279.461	69.8
279.676	65.71
279.892	75.95
280.107	51.37
280.322	82.09
280.538	41.13
280.753	18.6
280.969	90.28
281.184	-40.79
281.399	106.67
281.615	69.8
281.83	123.05
282.045	-65.36
282.26	32.94
282.476	32.94
282.691	108.71
282.906	104.62
283.122	82.09
283.337	73.9
283.552	71.85
283.767	16.55
283.983	86.19
284.198	67.75
284.413	-24.4
284.628	-20.31
284.843	41.13
285.058	-32.6
285.274	45.23
285.489	-38.74
285.704	32.94
285.919	65.71
286.134	-12.12
286.349	24.75
286.564	18.6
286.779	94.38
286.995	57.51
287.21	12.46
287.425	108.71
287.64	100.52
287.855	43.18
288.07	61.61
288.285	43.18
288.5	51.37
288.715	16.55
288.93	34.99
289.145	-18.26
289.36	65.71
289.575	90.28
289.79	104.62
290.004	65.71
290.219	59.56
290.434	65.71
290.649	22.7
290.864	26.79
291.079	49.32
291.294	73.9
291.509	4.27
291.724	69.8
291.938	45.23
292.153	49.32
292.368	8.36
292.583	57.51
292.798	34.99
293.012	47.27
293.227	77.99
293.442	98.47
293.657	65.71
293.871	86.19
294.086	90.28
294.301	112.81
294.516	90.28
294.73	57.51
294.945	57.51
295.16	65.71
295.374	75.95
295.589	106.67
295.804	-3.93
296.018	106.67
296.233	34.99
296.447	2.22
296.662	10.41
296.877	43.18
297.091	106.67
297.306	84.14
297.52	-12.12
297.735	49.32
297.949	6.31
298.164	69.8
298.378	96.43
298.593	4.27
298.807	61.61
299.022	75.95
299.236	28.84
299.451	37.03
299.665	45.23
299.88	-12.12
300.094	39.08
300.309	51.37
300.523	65.71
300.737	67.75
300.952	41.13
301.166	92.33
301.381	-48.98
301.595	90.28
301.809	49.32
302.024	57.51
302.238	-5.97
302.452	73.9
302.667	2.22
302.881	84.14
303.095	67.75
303.309	24.75
303.524	65.71
303.738	20.65
303.952	65.71
304.166	82.09
304.381	-26.45
304.595	80.04
304.809	32.94
305.023	10.41
305.237	32.94
305.452	49.32
305.666	123.05
305.88	141.48
306.094	41.13
306.308	90.28
306.522	18.6
306.736	16.55
306.95	0.17
307.164	-46.93
307.379	69.8
307.593	155.82
307.807	59.56
308.021	59.56
308.235	69.8
308.449	43.18
308.663	49.32
308.877	143.53
309.091	127.14
309.305	51.37
309.519	-46.93
309.733	32.94
309.947	-28.5
310.161	59.56
310.374	61.61
310.588	174.25
310.802	49.32
311.016	28.84
311.23	26.79
311.444	-14.17
311.658	57.51
311.872	32.94
312.085	116.9
312.299	51.37
312.513	59.56
312.727	18.6
312.941	32.94
313.154	-57.17
313.368	32.94
313.582	49.32
313.796	37.03
314.009	123.05
314.223	65.71
314.437	84.14
314.651	100.52
314.864	90.28
315.078	12.46
315.292	6.31
315.505	49.32
315.719	6.31
315.933	-8.02
316.146	18.6
316.36	77.99
316.573	34.99
316.787	168.1
317.001	39.08
317.214	32.94
317.428	90.28
317.641	67.75
317.855	59.56
318.068	20.65
318.282	12.46
318.495	86.19
318.709	94.38
318.922	59.56
319.136	28.84
319.349	77.99
319.563	57.51
319.776	73.9
319.99	71.85
320.203	69.8
320.417	-28.5
320.63	92.33
320.843	149.67
321.057	67.75
321.27	28.84
321.483	69.8
321.697	82.09
321.91	-20.31
322.124	55.47
322.337	139.43
322.55	24.75
322.763	30.89
322.977	73.9
323.19	24.75
323.403	32.94
323.617	80.04
323.83	116.9
324.043	16.55
324.256	82.09
324.469	-16.21
324.683	77.99
324.896	75.95
325.109	37.03
325.322	34.99
325.535	90.28
325.748	73.9
325.962	102.57
326.175	94.38
326.388	131.24
326.601	41.13
326.814	84.14
327.027	28.84
327.24	82.09
327.453	61.61
327.666	71.85
327.879	34.99
328.092	10.41
328.305	2.22
328.518	32.94
328.731	39.08
328.944	84.14
329.157	28.84
329.37	59.56
329.583	61.61
329.796	90.28
330.009	53.42
330.222	49.32
330.435	77.99
330.648	57.51
330.861	-22.36
331.073	49.32
331.286	49.32
331.499	37.03
331.712	0.17
331.925	57.51
332.138	153.77
332.35	131.24
332.563	77.99
332.776	123.05
332.989	18.6
333.202	0.17
333.414	-12.12
333.627	67.75
333.84	65.71
334.053	-8.02
334.265	32.94
334.478	32.94
334.691	28.84
334.903	69.8
335.116	24.75
335.329	116.9
335.541	92.33
335.754	133.29
335.966	22.7
336.179	77.99
336.392	37.03
336.604	82.09
336.817	92.33
337.029	41.13
337.242	41.13
337.454	123.05
337.667	45.23
337.88	59.56
338.092	75.95
338.305	73.9
338.517	6.31
338.729	69.8
338.942	22.7
339.154	-16.21
339.367	16.55
339.579	127.14
339.792	-30.55
340.004	123.05
340.217	57.51
340.429	90.28
340.641	26.79
340.854	125.1
341.066	28.84
341.278	123.05
341.491	102.57
341.703	67.75
341.915	22.7
342.128	-24.4
342.34	155.82
342.552	-38.74
342.764	73.9
342.977	106.67
343.189	131.24
343.401	24.75
343.613	30.89
343.826	-3.93
344.038	-48.98
344.25	57.51
344.462	82.09
344.674	57.51
344.886	90.28
345.099	8.36
345.311	16.55
345.523	24.75
345.735	20.65
345.947	24.75
346.159	71.85
346.371	24.75
346.583	28.84
346.795	133.29
347.007	34.99
347.219	69.8
347.431	-1.88
347.643	0.17
347.855	8.36
348.067	80.04
348.279	-40.79
348.491	157.86
348.703	-10.07
348.915	86.19
349.127	84.14
349.339	65.71
349.551	-48.98
349.763	176.3
349.975	20.65
350.187	-77.65
350.399	98.47
350.61	53.42
350.822	73.9
351.034	67.75
351.246	24.75
351.458	28.84
351.669	125.1
351.881	98.47
352.093	106.67
352.305	73.9
352.517	4.27
352.728	143.53
352.94	100.52
353.152	100.52
353.363	10.41
353.575	80.04
353.787	98.47
353.999	57.51
354.21	141.48
354.422	51.37
354.633	34.99
354.845	34.99
355.057	59.56
355.268	147.62
355.48	20.65
355.692	-8.02
355.903	84.14
356.115	73.9
356.326	0.17
356.538	123.05
356.749	73.9
356.961	96.43
357.172	0.17
357.384	-14.17
357.595	71.85
357.807	-22.36
358.018	67.75
358.23	-5.97
358.441	108.71
358.653	73.9
358.864	92.33
359.075	59.56
359.287	80.04
359.498	77.99
359.709	16.55
359.921	67.75
360.132	106.67
360.344	28.84
360.555	-18.26
360.766	67.75
360.977	22.7
361.189	65.71
361.4	98.47
361.611	86.19
361.823	82.09
362.034	82.09
362.245	-20.31
362.456	32.94
362.667	20.65
362.879	61.61
363.09	67.75
363.301	59.56
363.512	77.99
363.723	6.31
363.935	82.09
364.146	92.33
364.357	24.75
364.568	47.27
364.779	30.89
364.99	80.04
365.201	8.36
365.412	12.46
365.623	28.84
365.834	24.75
366.045	121
366.256	121
366.467	86.19
366.678	45.23
366.889	63.66
367.1	96.43
367.311	45.23
367.522	26.79
367.733	127.14
367.944	90.28
368.155	-3.93
368.366	94.38
368.577	98.47
368.788	-3.93
368.999	16.55
369.209	10.41
369.42	88.23
369.631	82.09
369.842	102.57
370.053	57.51
370.264	28.84
370.474	32.94
370.685	39.08
370.896	0.17
371.107	82.09
371.317	118.95
371.528	65.71
371.739	32.94
371.95	45.23
372.16	34.99
372.371	-53.08
372.582	123.05
372.792	41.13
373.003	88.23
373.214	73.9
373.424	147.62
373.635	-32.6
373.846	94.38
374.056	-48.98
374.267	73.9
374.477	65.71
374.688	75.95
374.898	59.56
375.109	100.52
375.319	22.7
375.53	106.67
375.74	-14.17
375.951	20.65
376.161	0.17
376.372	116.9
376.582	-36.69
376.793	100.52
377.003	39.08
377.214	131.24
377.424	114.86
377.635	98.47
377.845	18.6
378.055	127.14
378.266	39.08
378.476	100.52
378.686	10.41
378.897	63.66
379.107	61.61
379.317	98.47
379.528	8.36
379.738	65.71
379.948	32.94
380.158	139.43
380.369	24.75
380.579	100.52
380.789	51.37
380.999	75.95
381.21	2.22
381.42	100.52
381.63	45.23
381.84	63.66
382.05	82.09
382.261	73.9
382.471	77.99
382.681	41.13
382.891	98.47
383.101	67.75
383.311	49.32
383.521	51.37
383.731	41.13
383.941	65.71
384.151	41.13
384.361	82.09
384.571	49.32
384.781	43.18
384.991	47.27
385.201	147.62
385.411	116.9
385.621	32.94
385.831	100.52
386.041	49.32
386.251	43.18
386.461	172.2
386.671	41.13
386.881	32.94
387.091	0.17
387.301	82.09
387.511	106.67
387.72	82.09
387.93	98.47
388.14	65.71
388.35	82.09
388.56	202.92
388.769	73.9
388.979	123.05
389.189	32.94
389.399	77.99
389.609	98.47
389.818	106.67
390.028	90.28
390.238	67.75
390.447	14.51
390.657	71.85
390.867	53.42
391.076	8.36
391.286	96.43
391.496	151.72
391.705	92.33
391.915	82.09
392.125	24.75
392.334	69.8
392.544	116.9
392.753	41.13
392.963	32.94
393.172	59.56
393.382	65.71
393.591	67.75
393.801	112.81
394.01	131.24
394.22	135.34
394.429	125.1
394.639	110.76
394.848	37.03
395.058	10.41
395.267	57.51
395.477	139.43
395.686	67.75
395.895	180.39
396.105	147.62
396.314	98.47
396.524	139.43
396.733	77.99
396.942	108.71
397.152	102.57
397.361	164.01
397.57	57.51
397.78	86.19
397.989	123.05
398.198	196.78
398.407	110.76
398.617	98.47
398.826	75.95
399.035	141.48
399.244	129.19
399.453	30.89
399.663	88.23
399.872	123.05
400.081	84.14
400.29	180.39
400.499	96.43
400.708	159.91
400.917	65.71
401.127	114.86
401.336	90.28
401.545	213.16
401.754	131.24
401.963	147.62
402.172	139.43
402.381	102.57
402.59	108.71
402.799	149.67
403.008	118.95
403.217	141.48
403.426	192.68
403.635	41.13
403.844	131.24
404.053	98.47
404.262	147.62
404.471	139.43
404.68	141.48
404.888	131.24
405.097	108.71
405.306	178.34
405.515	123.05
405.724	90.28
405.933	168.1
406.142	98.47
406.35	215.21
406.559	256.17
406.768	180.39
406.977	237.74
407.185	198.82
407.394	243.88
407.603	143.53
407.812	241.83
408.02	213.16
408.229	303.27
408.438	180.39
408.646	192.68
408.855	227.5
409.064	288.93
409.272	168.1
409.481	354.47
409.69	270.5
409.898	276.65
410.107	315.56
410.315	344.23
410.524	282.79
410.733	336.04
410.941	290.98
411.15	360.61
411.358	360.61
411.567	424.1
411.775	385.19
411.984	368.81
412.192	401.57
412.401	422.05
412.609	442.53
412.818	458.92
413.026	561.31
413.234	458.92
413.443	506.02
413.651	426.15
413.86	469.16
414.068	600.23
414.276	581.79
414.485	557.22
414.693	690.34
414.901	651.42
415.11	647.33
415.318	676
415.526	704.67
415.734	610.47
415.943	692.38
416.151	782.49
416.359	725.15
416.567	735.39
416.776	782.49
416.984	903.32
417.192	956.57
417.4	911.52
417.608	876.7
417.817	927.9
418.025	929.95
418.233	1114.27
418.441	1020.06
418.649	1056.92
418.857	1130.65
419.065	1083.55
419.273	1294.49
419.481	1099.93
419.689	1253.53
419.897	1276.06
420.105	1280.15
420.313	1376.41
420.521	1435.8
420.729	1476.76
420.937	1493.14
421.145	1601.68
421.353	1573.01
421.561	1704.08
421.769	1683.6
421.977	1855.63
422.185	1786
422.393	1958.03
422.601	2031.76
422.809	1978.51
423.017	1990.8
423.224	2082.95
423.432	2162.83
423.64	2166.92
423.848	2347.14
424.056	2324.62
424.263	2601.09
424.471	2375.81
424.679	2496.64
424.887	2621.57
425.094	2746.5
425.302	2893.95
425.51	2900.09
425.718	3014.78
425.925	3080.32
426.133	3129.47
426.341	3301.5
426.548	3369.08
426.756	3367.03
426.964	3502.2
427.171	3604.6
427.379	3623.03
427.586	3885.17
427.794	3819.63
428.001	4137.07
428.209	4190.31
428.417	4210.79
428.624	4544.61
428.832	4474.98
429.039	4444.26
429.247	4464.74
429.454	4991.07
429.662	5124.19
429.869	4956.26
430.076	5263.45
430.284	5050.46
430.491	5257.31
430.699	5615.7
430.906	5632.08
431.114	5736.53
431.321	5961.81
431.528	6017.1
431.736	6275.15
431.943	6645.83
432.15	6463.56
432.358	6694.98
432.565	6993.98
432.772	6914.11
432.979	7200.83
433.187	7290.94
433.394	7381.05
433.601	7804.98
433.808	7852.08
434.016	8054.83
434.223	8128.56
434.43	8644.65
434.637	8382.51
434.844	8912.93
435.052	9267.23
435.259	9166.88
435.466	9218.08
435.673	9019.43
435.88	9809.94
436.087	10182.67
436.294	10117.14
436.501	10076.18
436.708	10215.44
436.915	10571.79
437.122	10864.64
437.329	11257.85
437.537	11227.14
437.743	11651.06
437.95	11489.28
438.157	11993.08
438.364	12220.4
438.571	12263.41
438.778	12492.78
438.985	13721.56
439.192	13086.69
439.399	13512.67
439.606	13109.22
439.813	14032.85
440.02	14858.18
440.227	14286.8
440.433	14182.35
440.64	15075.27
440.847	14567.37
441.054	15138.76
441.261	16037.81
441.467	15757.24
441.674	16101.3
441.881	16578.48
442.088	16474.03
442.294	16306.1
442.501	16902.06
442.708	17276.84
442.914	17825.69
443.121	18900.87
443.328	18239.38
443.534	19406.72
443.741	19173.25
443.948	18806.67
444.154	20174.71
444.361	19853.18
444.568	20010.87
444.774	19931
444.981	20533.11
445.187	20801.39
445.394	21907.29
445.6	21448.55
445.807	23455.56
446.013	22552.4
446.22	22640.47
446.426	23977.79
446.633	24368.95
446.839	25132.84
447.046	24004.41
447.252	25241.39
447.459	25278.25
447.665	25464.61
447.871	26140.44
448.078	27281.16
448.284	26296.09
448.491	26773.27
448.697	27963.14
448.903	28385.02
449.11	28454.65
449.316	27997.95
449.522	28430.07
449.728	29097.71
449.935	29544.17
450.141	29517.54
450.347	30015.2
450.553	29226.73
450.76	29564.65
450.966	30662.36
451.172	30172.89
451.378	31309.52
451.584	30549.72
451.791	31334.09
451.997	31123.15
452.203	31405.77
452.409	31569.61
452.615	31555.27
452.821	30392.03
453.027	29988.58
453.233	31960.77
453.44	30480.09
453.646	30850.77
453.852	30949.07
454.058	31598.28
454.264	30596.82
454.47	31434.44
454.676	30527.19
454.882	31465.16
455.088	28972.78
455.294	29187.82
455.5	29464.3
455.705	30027.49
455.911	28794.61
456.117	28002.05
456.323	27799.3
456.529	26345.24
456.735	27739.91
456.941	27158.28
457.147	26603.28
457.352	25749.28
457.558	25337.64
457.764	25663.27
457.97	25458.47
458.176	24647.47
458.381	24680.24
458.587	23357.25
458.793	23406.41
458.999	22110.04
459.204	23873.34
459.41	22964.04
459.616	21593.95
459.821	21608.29
460.027	21632.86
460.233	21055.34
460.438	20381.56
460.644	20436.85
460.85	19304.32
461.055	19109.77
461.261	19216.26
461.466	17743.77
461.672	17350.56
461.878	18268.05
462.083	17055.65
462.289	16988.07
462.494	16779.18
462.7	15966.14
462.905	15294.4
463.111	16107.44
463.316	16003
463.522	15540.16
463.727	15753.15
463.932	15798.2
464.138	15384.51
464.343	15728.57
464.549	14948.29
464.754	15624.12
464.959	15278.02
465.165	15136.71
465.37	14665.67
465.575	14299.09
465.781	15151.04
465.986	14688.2
466.191	14569.42
466.397	14254.03
466.602	13357.02
466.807	14036.95
467.012	13991.89
467.218	13846.49
467.423	13651.93
467.628	13971.41
467.833	14378.96
468.038	13895.64
468.244	13387.74
468.449	14043.09
468.654	13514.72
468.859	13387.74
469.064	13467.61
469.269	12742.63
469.474	12941.29
469.679	13295.58
469.885	12482.54
470.09	12967.91
470.295	12804.07
470.5	12656.62
470.705	12732.39
470.91	12322.8
471.115	12242.93
471.32	12566.51
471.525	12300.27
471.73	12236.78
471.935	12189.68
472.139	11479.04
472.344	11628.54
472.549	11599.87
472.754	11343.87
472.959	11341.82
473.164	11194.37
473.369	10928.13
473.574	11558.91
473.778	11368.45
473.983	11290.62
474.188	11214.85
474.393	10846.21
474.598	10706.95
474.802	10600.46
475.007	10506.25
475.212	10612.74
475.417	10082.32
475.621	10113.04
475.826	10272.78
476.031	9771.03
476.235	9539.61
476.44	9973.78
476.645	9818.13
476.849	9652.25
477.054	9699.35
477.259	9457.69
477.463	9486.36
477.668	9472.03
477.872	9211.93
478.077	9021.47
478.282	8884.26
478.486	8908.83
478.691	8898.59
478.895	8839.2
479.1	8769.57
479.304	8802.34
479.509	8552.49
479.713	8767.52
479.918	8491.05
480.122	8241.2
480.326	8536.1
480.531	8445.99
480.735	8290.35
480.94	8339.5
481.144	8658.98
481.348	8235.05
481.553	8185.9
481.757	8067.12
481.961	8165.42
482.166	8306.73
482.37	8292.4
482.574	8206.38
482.778	8060.98
482.983	8251.44
483.187	8151.09
483.391	8159.28
483.595	8233.01
483.8	8138.8
484.004	7954.48
484.208	8151.09
484.412	8060.98
484.616	8359.98
484.821	8308.78
485.025	7995.44
485.229	8095.79
485.433	7864.37
485.637	8122.41
485.841	7905.33
486.045	7954.48
486.249	8185.9
486.453	8118.32
486.657	7946.29
486.861	8083.5
487.065	8050.74
487.269	8212.53
487.473	7952.43
487.677	8177.71
487.881	8196.14
488.085	8091.7
488.289	8312.88
488.493	8095.79
488.697	8458.28
488.901	8161.33
489.105	8106.03
489.309	8138.8
489.512	8314.92
489.716	8122.41
489.92	8316.97
490.124	8003.63
490.328	8454.19
490.531	8190
490.735	8294.44
490.939	8323.12
491.143	8200.24
491.346	8214.57
491.55	8413.23
491.754	8347.69
491.958	8456.23
492.161	8300.59
492.365	8454.19
492.569	8405.03
492.772	8429.61
492.976	8685.61
493.18	8593.45
493.383	8628.26
493.587	8945.7
493.79	8949.79
493.994	8851.49
494.197	8851.49
494.401	8902.69
494.605	8843.3
494.808	8945.7
495.012	9101.34
495.215	9191.45
495.419	9306.14
495.622	9209.89
495.825	9289.76
496.029	9293.85
496.232	9564.18
496.436	9453.59
496.639	9730.07
496.843	9652.25
497.046	9785.37
497.249	10047.51
497.453	10059.79
497.656	10037.27
497.859	10129.42
498.063	10450.96
498.266	10571.79
498.469	10397.71
498.673	10584.07
498.876	10819.59
499.079	10731.53
499.282	10936.32
499.485	11216.9
499.689	10944.52
499.892	11274.24
500.095	11358.21
500.298	11366.4
500.501	11397.12
500.705	11677.69
500.908	11763.7
501.111	11849.72
501.314	12077.04
501.517	12363.76
501.72	12384.24
501.923	12216.3
502.126	12580.84
502.329	12701.67
502.532	12685.29
502.735	13228
502.938	13213.67
503.141	13152.23
503.344	13598.68
503.547	13488.09
503.75	13602.78
503.953	13637.59
504.156	13893.59
504.359	13977.56
504.562	14163.92
504.765	14573.52
504.968	14624.72
505.17	14671.82
505.373	14770.12
505.576	15216.58
505.779	15237.06
505.982	15538.11
506.185	15493.05
506.387	15605.69
506.59	15620.03
506.793	16277.43
506.996	16072.63
507.198	16572.33
507.401	16322.48
507.604	16535.47
507.807	17012.65
508.009	17049.51
508.212	17313.7
508.415	17436.58
508.617	17530.78
508.82	17901.47
509.022	17592.22
509.225	17989.53
509.428	18186.13
509.63	18198.42
509.833	18370.45
510.035	18954.12
510.238	18833.29
510.44	18984.84
510.643	19351.43
510.845	19797.88
511.048	19607.42
511.25	19842.94
511.453	19894.14
511.655	20815.73
511.858	20467.57
512.06	20569.97
512.262	20492.15
512.465	20651.89
512.667	21290.85
512.87	21561.19
513.072	21466.98
513.274	21938.01
513.477	22001.5
513.679	22372.18
513.881	22458.2
514.084	22908.75
514.286	22683.47
514.488	22712.14
514.69	23760.7
514.893	23451.46
515.095	23361.35
515.297	24055.61
515.499	23967.55
515.701	24178.49
515.904	24203.07
516.106	24518.45
516.308	24948.53
516.51	25255.72
516.712	25278.25
516.914	25374.5
517.116	26296.09
517.318	26099.48
517.52	26246.94
517.722	26259.23
517.925	26681.11
518.127	26814.23
518.329	27358.99
518.531	26752.79
518.733	27547.4
518.935	27576.07
519.136	27930.37
519.338	28354.3
519.54	28147.45
519.742	28491.51
519.944	28679.93
520.146	28935.92
520.348	29384.43
520.55	29363.95
520.752	29630.18
520.954	30152.41
521.155	29880.03
521.357	30246.62
521.559	30838.48
521.761	31227.6
521.963	30600.92
522.164	31151.82
522.366	31672.01
522.568	31762.12
522.77	31715.01
522.971	32200.38
523.173	32263.87
523.375	32497.34
523.576	32235.2
523.778	32585.4
523.98	32681.66
524.181	33074.87
524.383	33003.19
524.584	33509.04
524.786	33627.82
524.988	33498.8
525.189	33844.9
525.391	34250.4
525.592	34145.95
525.794	34555.55
525.995	34170.53
526.197	34709.15
526.398	34512.54
526.6	35102.36
526.801	35075.73
527.003	35155.6
527.204	35448.46
527.406	35448.46
527.607	35294.86
527.808	36071.04
528.01	35122.83
528.211	35487.37
528.412	36308.61
528.614	36081.28
528.815	36140.68
529.016	36718.2
529.218	36161.15
529.419	36112
529.62	36691.58
529.822	36537.98
530.023	36671.1
530.224	36671.1
530.425	36648.57
530.626	36523.65
530.828	36165.25
531.029	37445.23
531.23	36966.01
531.431	37031.54
531.632	37250.67
531.833	37262.96
532.035	36757.11
532.236	37371.5
532.437	37236.34
532.638	37252.72
532.839	37731.95
533.04	37920.36
533.241	36820.6
533.442	37621.36
533.643	37707.37
533.844	37576.3
534.045	37762.67
534.246	37275.25
534.447	37426.8
534.648	37049.97
534.849	37576.3
535.05	37265.01
535.251	37545.58
535.451	37670.51
535.652	37705.32
535.853	37951.08
536.054	37752.43
536.255	37723.76
536.456	36912.76
536.657	38344.29
536.857	37645.93
537.058	37725.8
537.259	37746.28
537.46	37674.6
537.66	37686.89
537.861	37637.74
538.062	37471.85
538.263	37738.09
538.463	37774.95
538.664	37615.21
538.865	37596.78
539.065	38022.76
539.266	37381.74
539.466	38037.09
539.667	37529.2
539.868	37869.16
540.068	37373.55
540.269	37742.19
540.469	37846.63
540.67	37523.05
540.87	37543.53
541.071	37680.75
541.271	37836.39
541.472	37346.93
541.672	37656.17
541.873	37647.98
542.073	37197.43
542.274	38178.4
542.474	37381.74
542.675	37275.25
542.875	37439.09
543.075	37283.44
543.276	37181.04
543.476	37836.39
543.676	36951.67
543.877	37719.66
544.077	37639.79
544.277	37426.8
544.478	37099.12
544.678	37629.55
544.878	37150.32
545.078	37518.96
545.279	37156.47
545.479	37049.97
545.679	37426.8
545.879	37217.91
546.079	37158.52
546.28	37535.34
546.48	37101.17
546.68	37330.55
546.88	37314.16
547.08	37375.6
547.28	37473.9
547.48	36478.59
547.68	37150.32
547.88	37011.06
548.081	37109.36
548.281	37105.27
548.481	37090.93
548.681	37473.9
548.881	36894.33
549.081	37195.38
549.28	37346.93
549.48	37062.26
549.68	36939.38
549.88	37561.97
550.08	36628.09
550.28	37217.91
550.48	37236.34
550.68	37471.85
550.88	37174.9
551.08	36976.25
551.279	37193.33
551.479	37097.08
551.679	37424.75
551.879	36697.72
552.079	37222
552.278	36861.56
552.478	36929.14
552.678	37031.54
552.878	37254.77
553.077	36865.66
553.277	37101.17
553.477	37310.07
553.676	37060.21
553.876	37156.47
554.076	36798.07
554.275	36580.99
554.475	36134.53
554.674	36765.31
554.874	36834.94
555.074	37025.4
555.273	36904.57
555.473	36904.57
555.672	36007.56
555.872	36675.2
556.071	36521.6
556.271	36650.62
556.47	35868.3
556.67	36198.02
556.869	36558.46
557.068	36861.56
557.268	36152.96
557.467	36454.01
557.667	36152.96
557.866	36511.36
558.065	36161.15
558.265	36234.88
558.464	35886.73
558.663	36165.25
558.863	35837.58
559.062	36415.1
559.261	35815.05
559.461	36308.61
559.66	35767.94
559.859	35847.82
560.058	35663.5
560.258	35831.43
560.457	35569.29
560.656	35532.43
560.855	35341.97
561.054	35743.37
561.253	35223.19
561.453	35249.81
561.652	35366.54
561.851	35301.01
562.05	34973.33
562.249	35108.5
562.448	35243.66
562.647	35407.5
562.846	35100.31
563.045	35212.95
563.244	34598.55
563.443	35045.01
563.642	34492.06
563.841	35083.92
564.04	34313.89
564.239	34875.03
564.438	34809.5
564.637	34895.51
564.836	34817.69
565.035	33879.72
565.234	34279.07
565.432	34616.99
565.631	34260.64
565.83	34432.67
566.029	33777.32
566.228	34111.14
566.427	34115.23
566.625	33988.26
566.824	33420.97
567.023	33965.73
567.222	33787.56
567.42	33861.29
567.619	33582.76
567.818	33314.48
568.016	33148.59
568.215	33246.9
568.414	33109.68
568.612	33754.79
568.811	32839.35
569.01	33121.97
569.208	33189.55
569.407	33191.6
569.605	32800.44
569.804	33226.42
570.002	32673.46
570.201	32876.21
570.4	32227.01
570.598	32222.91
570.797	31942.34
570.995	32437.95
571.193	31942.34
571.392	32333.5
571.59	32046.79
571.789	32095.94
571.987	31653.58
572.186	31727.3
572.384	31565.51
572.582	31585.99
572.781	31368.91
572.979	31278.8
573.177	31698.63
573.376	31579.85
573.574	31018.71
573.772	31489.74
573.971	31305.42
574.169	31235.79
574.367	30715.61
574.565	31010.51
574.763	30758.61
574.962	30944.98
575.16	30471.9
575.358	30744.28
575.556	30430.94
575.754	30863.06
575.952	30291.68
576.151	30244.57
576.349	30127.84
576.547	30097.12
576.745	30103.26
576.943	30275.29
577.141	29759.2
577.339	29933.28
577.537	29914.85
577.735	29648.61
577.933	29515.5
578.131	29798.12
578.329	29570.79
578.527	29419.24
578.725	29429.48
578.923	29394.67
579.121	29394.67
579.319	28837.62
579.516	28823.28
579.714	29302.51
579.912	29021.94
580.11	28530.42
580.308	28735.22
580.506	28727.03
580.704	28301.05
580.901	28647.16
581.099	28968.69
581.297	28413.69
581.495	28184.32
581.692	28661.49
581.89	28129.02
582.088	28114.69
582.285	28122.88
582.483	28249.85
582.681	28114.69
582.878	28090.11
583.076	27533.06
583.274	27848.45
583.471	27637.51
583.669	27631.37
583.866	27350.79
584.064	27782.91
584.262	27035.41
584.459	27252.49
584.657	27232.01
584.854	27334.41
585.052	26924.82
585.249	27170.57
585.447	26681.11
585.644	26701.59
585.841	26564.37
586.039	27146
586.236	26642.2
586.434	26451.74
586.631	26300.19
586.828	26371.86
587.026	26527.51
587.223	26388.25
587.42	26009.37
587.618	26173.21
587.815	25992.99
588.012	26044.19
588.21	25915.17
588.407	26494.74
588.604	25665.32
588.801	25448.23
588.999	25614.12
589.196	25485.09
589.393	25607.97
589.59	25263.91
589.787	25179.95
589.984	25241.39
590.182	25100.08
590.379	25104.17
590.576	25018.16
590.773	25014.06
590.97	25145.13
591.167	24860.46
591.364	24532.79
591.561	24721.2
591.758	24608.56
591.955	24653.62
592.152	24473.4
592.349	24139.58
592.546	24483.64
592.743	24516.4
592.94	24340.28
593.137	24209.21
593.334	24088.38
593.531	23912.25
593.727	24020.8
593.924	23940.93
594.121	23766.85
594.318	23746.37
594.515	23686.98
594.712	23715.65
594.908	23359.3
595.105	23453.51
595.302	23428.93
595.499	23400.26
595.696	22968.14
595.892	22957.9
596.089	23127.88
596.286	23168.84
596.482	23045.96
596.679	22937.42
596.876	22693.71
597.072	22611.79
597.269	22966.09
597.466	22708.05
597.662	22511.44
597.859	22564.69
598.055	22443.86
598.252	22099.8
598.448	22458.2
598.645	22286.17
598.841	21970.78
599.038	22075.23
599.234	22067.03
599.431	21927.77
599.627	21981.02
599.824	22089.56
600.02	21774.17
600.217	21819.23
600.413	21725.02
600.609	21706.59
600.806	21532.51
601.002	21579.62
601.198	21311.33
601.395	21247.85
601.591	21317.48
601.787	21155.69
601.984	20987.75
602.18	21364.58
602.376	20887.4
602.572	20850.54
602.769	21022.57
602.965	20621.17
603.161	20541.3
603.357	20586.35
603.553	20778.86
603.75	20766.57
603.946	20299.64
604.142	20354.93
604.338	20203.38
604.534	20275.06
604.73	20258.68
604.926	20131.7
605.122	20141.94
605.318	20430.71
605.514	19996.54
605.71	19908.47
605.906	19775.36
606.102	19900.28
606.298	19834.75
606.494	19982.2
606.69	19601.28
606.886	19715.97
607.082	19568.51
607.278	19398.53
607.474	19402.63
607.67	19414.91
607.866	19183.49
608.062	19449.73
608.257	19304.32
608.453	19445.63
608.649	19230.6
608.845	19173.25
609.041	19287.94
609.236	19136.39
609.432	19394.43
609.628	19310.47
609.824	18954.12
610.019	18880.39
610.215	18978.7
610.411	19079.05
610.606	18702.22
610.802	19050.38
610.998	18657.17
611.193	18605.97
611.389	18444.18
611.584	18741.13
611.78	18272.15
611.976	18669.45
612.171	18468.75
612.367	18507.66
612.562	18368.4
612.758	18395.03
612.953	18175.89
613.149	18456.47
613.344	18263.96
613.539	18575.25
613.735	18059.16
613.93	18306.96
614.126	18059.16
614.321	18296.72
614.517	17956.76
614.712	18253.72
614.907	17788.83
615.103	18319.25
615.298	17964.95
615.493	18247.57
615.688	17905.56
615.884	18153.37
616.079	17592.22
616.274	17696.67
616.47	17776.54
616.665	17448.86
616.86	17895.32
617.055	17412
617.25	17612.7
617.445	17647.52
617.641	17285.03
617.836	17651.61
618.031	17325.99
618.226	17348.51
618.421	17590.17
618.616	17477.54
618.811	16928.68
619.006	17166.24
619.201	16902.06
619.396	16912.3
619.591	16670.64
619.786	16842.67
619.981	16674.73
620.176	16867.24
620.371	16404.4
620.566	16504.75
620.761	16404.4
620.956	16668.59
621.151	16076.73
621.346	16459.7
621.541	15808.44
621.735	16230.32
621.93	15855.54
622.125	15814.59
622.32	15763.39
622.515	15781.82
622.709	15570.88
622.904	15679.42
623.099	15597.5
623.294	15505.34
623.488	15609.79
623.683	15538.11
623.878	15075.27
624.072	15298.5
624.267	15050.69
624.462	15149
624.656	14829.51
624.851	14835.66
625.046	14745.55
625.24	14608.33
625.435	14577.61
625.629	14516.17
625.824	14507.98
626.018	14540.75
626.213	14016.47
626.407	14538.7
626.602	14217.17
626.796	14276.56
626.991	14024.66
627.185	14110.68
627.38	13776.86
627.574	13772.76
627.768	13688.79
627.963	13524.96
628.157	13524.96
628.352	13377.5
628.546	13098.98
628.74	13389.79
628.935	13201.38
629.129	13051.88
629.323	12937.19
629.517	12992.48
629.712	12857.32
629.906	13047.78
630.1	12804.07
630.294	12529.64
630.489	12482.54
630.683	12787.69
630.877	12660.71
631.071	12523.5
631.265	12507.12
631.459	12476.4
631.653	12296.18
631.848	12374
632.042	12267.5
632.236	12304.37
632.43	12230.64
632.624	12021.75
632.818	12089.33
633.012	11913.2
633.206	11794.42
633.4	11872.25
633.594	11945.97
633.788	11630.59
633.982	11513.85
634.176	11501.56
634.369	11513.85
634.563	11386.88
634.757	11315.2
634.951	11411.45
635.145	11122.69
635.339	11270.14
635.533	11100.16
635.726	11046.91
635.92	10987.52
636.114	10917.89
636.308	11034.63
636.501	11063.3
636.695	10862.6
636.889	10690.57
637.083	10637.32
637.276	10682.38
637.47	10387.47
637.664	10633.22
637.857	10721.29
638.051	10493.96
638.244	10299.41
638.438	10283.02
638.632	10164.24
638.825	9887.76
639.019	9895.96
639.212	9895.96
639.406	10020.88
639.599	10065.94
639.793	9801.75
639.986	9740.31
640.18	9961.49
640.373	9723.93
640.567	9564.18
640.76	9519.13
640.954	9404.44
641.147	9588.76
641.34	9555.99
641.534	9431.07
641.727	9314.33
641.92	9418.78
642.114	9377.82
642.307	9351.2
642.5	9191.45
642.694	9007.14
642.887	9134.11
643.08	9240.61
643.273	9119.78
643.467	9027.62
643.66	8675.37
643.853	8642.6
644.046	8593.45
644.239	8767.52
644.432	8675.37
644.626	8644.65
644.819	8611.88
645.012	8527.91
645.205	8445.99
645.398	8429.61
645.591	8466.47
645.784	8390.7
645.977	8364.08
646.17	8259.63
646.363	8255.53
646.556	8220.72
646.749	8063.02
646.942	8144.94
647.135	8042.54
647.328	8056.88
647.521	8130.61
647.714	7784.5
647.907	7952.43
648.099	7684.15
648.292	7809.08
648.485	7495.74
648.678	7753.78
648.871	7667.77
649.064	7680.05
649.256	7579.7
649.449	7520.31
649.642	7143.49
649.835	7440.44
650.027	7387.19
650.22	7553.08
650.413	7342.14
650.605	7288.89
650.798	7190.59
650.991	7194.68
651.183	7288.89
651.376	7045.18
651.568	7192.64
651.761	7036.99
651.954	7061.57
652.146	6924.35
652.339	6991.94
652.531	6959.17
652.724	6930.5
652.916	6819.91
653.109	6647.88
653.301	6832.19
653.494	6774.85
653.686	6553.67
653.879	6815.81
654.071	6701.12
654.263	6580.29
654.456	6713.41
654.648	6557.77
654.84	6418.5
655.033	6565.96
655.225	6582.34
655.417	6395.98
655.61	6486.09
655.802	6484.04
655.994	6246.48
656.186	6350.92
656.379	6357.07
656.571	6182.99
656.763	6180.94
656.955	6092.88
657.148	6127.69
657.34	6135.89
657.532	6086.73
657.724	5888.08
657.916	6037.58
658.108	5877.84
658.3	5711.96
658.492	5873.75
658.684	5857.36
658.876	5859.41
659.068	5668.95
659.26	5787.73
659.452	5808.21
659.644	5711.96
659.836	5734.48
660.028	5714
660.22	5529.69
660.412	5701.72
660.604	5431.38
660.796	5660.76
660.988	5417.05
661.18	5533.78
661.372	5406.81
661.563	5326.94
661.755	5374.04
661.947	5433.43
662.139	5439.58
662.331	5259.35
662.522	5304.41
662.714	5126.24
662.906	5118.04
663.097	5173.34
663.289	5064.8
663.481	4872.29
663.673	5021.79
663.864	5017.69
664.056	5042.27
664.247	5017.69
664.439	5038.17
664.631	5011.55
664.822	4964.45
665.014	4702.31
665.205	4812.9
665.397	4841.57
665.588	4685.92
665.78	4792.42
665.971	4841.57
666.163	4939.87
666.354	4618.34
666.546	4692.07
666.737	4653.16
666.929	4698.21
667.12	4714.59
667.311	4507.75
667.503	4501.61
667.694	4573.28
667.885	4532.33
668.077	4497.51
668.268	4448.36
668.459	4550.76
668.651	4311.14
668.842	4440.17
669.033	4317.29
669.224	4337.77
669.416	4264.04
669.607	4190.31
669.798	4255.85
669.989	4311.14
670.18	4268.14
670.371	4120.68
670.563	4255.85
670.754	4300.91
670.945	4116.59
671.136	4001.9
671.327	4169.84
671.518	4106.35
671.709	4106.35
671.9	4124.78
672.091	4096.11
672.282	4053.1
672.473	3919.98
672.664	3967.09
672.855	4006
673.046	3891.31
673.237	3930.22
673.428	3936.37
673.619	3987.57
673.809	3874.93
674	3866.74
674.191	3821.68
674.382	3973.23
674.573	3647.6
674.764	3747.95
674.954	3768.43
675.145	3639.41
675.336	3582.07
675.527	3625.08
675.717	3770.48
675.908	3549.3
676.099	3551.35
676.289	3614.84
676.48	3616.88
676.671	3743.86
676.861	3623.03
677.052	3510.39
677.243	3518.58
677.433	3524.72
677.624	3489.91
677.814	3477.62
678.005	3475.57
678.195	3541.11
678.386	3467.38
678.576	3397.75
678.767	3274.87
678.957	3504.25
679.148	3344.5
679.338	3465.33
679.529	3342.46
679.719	3311.74
679.909	3481.72
680.1	3262.58
680.29	3313.78
680.481	3309.69
680.671	3432.57
680.861	3260.54
681.052	3358.84
681.242	3203.19
681.432	3309.69
681.622	3324.02
681.813	3201.15
682.003	3231.87
682.193	3082.36
682.383	3197.05
682.573	3096.7
682.764	3100.8
682.954	3141.75
683.144	3104.89
683.334	3063.93
683.524	3115.13
683.714	3145.85
683.904	3072.12
684.094	3084.41
684.284	3029.12
684.474	3151.99
684.664	3082.36
684.854	3108.99
685.044	3014.78
685.234	3055.74
685.424	2982.01
685.614	3104.89
685.804	2926.72
685.994	3000.44
686.184	2896
686.374	2982.01
686.564	3061.88
686.753	3051.64
686.943	2855.04
687.133	2949.25
687.323	2793.6
687.513	2893.95
687.702	2852.99
687.892	2812.03
688.082	2809.98
688.272	2738.3
688.461	2896
688.651	2855.04
688.841	2877.57
689.03	2699.39
689.22	2752.64
689.41	2717.83
689.599	2744.45
689.789	2848.9
689.979	2719.87
690.168	2793.6
690.358	2797.7
690.547	2680.96
690.737	2683.01
690.926	2656.39
691.116	2631.81
691.305	2867.33
691.495	2556.04
691.684	2568.32
691.874	2701.44
692.063	2535.56
692.252	2541.7
692.442	2529.41
692.631	2586.76
692.82	2588.8
693.01	2515.08
693.199	2535.56
693.388	2560.13
693.578	2465.93
693.767	2539.65
693.956	2531.46
694.146	2416.77
694.335	2515.08
694.524	2582.66
694.713	2486.4
694.902	2443.4
695.092	2492.55
695.281	2484.36
695.47	2416.77
695.659	2465.93
695.848	2347.14
696.037	2379.91
696.226	2496.64
696.415	2400.39
696.604	2439.3
696.793	2404.49
696.982	2396.29
697.171	2486.4
697.36	2443.4
697.549	2457.73
697.738	2482.31
697.927	2246.79
698.116	2433.16
698.305	2375.81
698.494	2328.71
698.683	2345.09
698.872	2359.43
699.061	2392.2
699.25	2437.25
699.438	2445.45
699.627	2418.82
699.816	2328.71
700.005	2338.95
700.193	2355.33
700.382	2379.91
700.571	2279.56
700.76	2404.49
700.948	2375.81
701.137	2506.88
701.326	2322.57
701.514	2341
701.703	2338.95
701.892	2347.14
702.08	2386.05
702.269	2345.09
702.457	2408.58
702.646	2302.09
702.834	2187.4
703.023	2336.9
703.212	2341
703.4	2390.15
703.589	2285.7
703.777	2162.83
703.965	2310.28
704.154	2357.38
704.342	2269.32
704.531	2263.18
704.719	2261.13
704.907	2211.98
705.096	2326.66
705.284	2214.02
705.472	2353.29
705.661	2168.97
705.849	2160.78
706.037	2336.9
706.226	2306.18
706.414	2357.38
706.602	2183.31
706.79	2164.87
706.979	2220.17
707.167	2205.83
707.355	2349.19
707.543	2150.54
707.731	2197.64
707.919	2291.85
708.107	2211.98
708.296	2244.74
708.484	2160.78
708.672	2205.83
708.86	2261.13
709.048	2238.6
709.236	2220.17
709.424	2195.59
709.612	2261.13
709.8	2154.63
709.988	2101.39
710.176	2297.99
710.364	2306.18
710.551	2279.56
710.739	2218.12
710.927	2273.42
711.115	2195.59
711.303	2218.12
711.491	2171.02
711.679	2261.13
711.866	2269.32
712.054	2248.84
712.242	2179.21
712.43	2281.61
712.617	2283.66
712.805	2240.65
712.993	2207.88
713.181	2261.13
713.368	2257.03
713.556	2211.98
713.744	2150.54
713.931	2252.94
714.119	2187.4
714.306	2230.41
714.494	2205.83
714.682	2277.51
714.869	2164.87
715.057	2207.88
715.244	2183.31
715.432	2185.35
715.619	2263.18
715.807	2236.55
715.994	2150.54
716.182	2128.01
716.369	2275.46
716.556	2341
716.744	2175.11
716.931	2103.43
717.119	2236.55
717.306	2164.87
717.493	2076.81
717.681	2107.53
717.868	2134.15
718.055	2187.4
718.242	2244.74
718.43	2205.83
718.617	2181.26
718.804	2181.26
718.991	2234.5
719.179	2128.01
719.366	2177.16
719.553	2238.6
719.74	2199.69
719.927	2236.55
720.114	2033.8
720.301	2107.53
720.488	2177.16
720.676	2064.52
720.863	2203.79
721.05	2207.88
721.237	2189.45
721.424	2060.43
721.611	2181.26
721.798	2142.35
721.985	2072.72
722.172	2082.95
722.358	2105.48
722.545	2158.73
722.732	2232.46
722.919	2121.87
723.106	2166.92
723.293	2203.79
723.48	2107.53
723.667	2085
723.853	2254.98
724.04	2097.29
724.227	2064.52
724.414	2087.05
724.6	2142.35
724.787	2113.67
724.974	2199.69
725.161	2107.53
725.347	2062.48
725.534	2216.07
725.72	2099.34
725.907	2132.11
726.094	2005.13
726.28	2035.85
726.467	2058.38
726.653	2082.95
726.84	2080.91
727.027	2261.13
727.213	2099.34
727.4	2187.4
727.586	2074.76
727.773	2162.83
727.959	2154.63
728.145	2138.25
728.332	2105.48
728.518	1958.03
728.705	2105.48
728.891	2148.49
729.077	2166.92
729.264	2066.57
729.45	2101.39
729.636	2072.72
729.823	2066.57
730.009	2039.95
730.195	2039.95
730.382	2025.61
730.568	1990.8
730.754	2113.67
730.94	2021.52
731.126	2091.15
731.313	2039.95
731.499	2027.66
731.685	2072.72
731.871	2031.76
732.057	2050.19
732.243	2013.32
732.429	2056.33
732.615	2113.67
732.801	2064.52
732.987	2107.53
733.173	2019.47
733.359	1988.75
733.545	2033.8
733.731	2113.67
733.917	2058.38
734.103	2001.04
734.289	2015.37
734.475	1884.3
734.661	2029.71
734.847	1966.22
735.033	2015.37
735.219	1945.74
735.404	2082.95
735.59	2052.24
735.776	1917.07
735.962	1945.74
736.148	1894.54
736.333	1996.94
736.519	1878.16
736.705	1986.7
736.89	1935.5
737.076	1908.88
737.262	1861.77
737.447	1923.21
737.633	1925.26
737.819	1861.77
738.004	1919.12
738.19	1982.6
738.375	1882.25
738.561	1980.56
738.747	2005.13
738.932	1912.97
739.118	1982.6
739.303	1953.93
739.489	1890.45
739.674	1929.36
739.859	1796.24
740.045	1933.45
740.23	1878.16
740.416	1835.15
740.601	1902.73
740.786	1837.2
740.972	1835.15
741.157	1841.29
741.342	1810.58
741.528	1724.56
741.713	1728.66
741.898	1876.11
742.084	1921.17
742.269	1816.72
742.454	1853.58
742.639	1847.44
742.824	1888.4
743.01	1767.57
743.195	1765.52
743.38	1761.42
743.565	1779.86
743.75	1738.9
743.935	1738.9
744.12	1677.46
744.305	1679.51
744.49	1708.18
744.675	1724.56
744.86	1745.04
745.045	1702.03
745.23	1687.7
745.415	1720.46
745.6	1656.98
745.785	1663.12
745.97	1749.14
746.155	1765.52
746.34	1642.64
746.525	1671.31
746.71	1659.03
746.895	1511.57
747.079	1630.35
747.264	1646.74
747.449	1675.41
747.634	1622.16
747.819	1566.87
748.003	1519.76
748.188	1423.51
748.373	1476.76
748.557	1593.49
748.742	1474.71
748.927	1532.05
749.111	1650.83
749.296	1564.82
749.481	1601.68
749.665	1491.09
749.85	1456.28
750.034	1437.84
750.219	1478.8
750.404	1343.64
750.588	1452.18
750.773	1384.6
750.957	1499.28
751.141	1458.32
751.326	1515.67
751.51	1386.65
751.695	1372.31
751.879	1417.37
752.064	1392.79
752.248	1374.36
752.432	1417.37
752.617	1437.84
752.801	1464.47
752.985	1226.9
753.17	1380.5
753.354	1337.49
753.538	1335.45
753.722	1343.64
753.907	1200.28
754.091	1304.73
754.275	1396.89
754.459	1292.44
754.643	1257.62
754.828	1280.15
755.012	1317.01
755.196	1214.62
755.38	1216.66
755.564	1245.34
755.748	1196.18
755.932	1216.66
756.116	1204.38
756.3	1122.46
756.484	1179.8
756.668	1173.66
756.852	1155.23
757.036	1112.22
757.22	1132.7
757.404	1210.52
757.588	1101.98
757.772	1089.69
757.956	1089.69
758.14	1179.8
758.323	1022.11
758.507	1093.79
758.691	1130.65
758.875	1151.13
759.059	1155.23
759.242	1138.84
759.426	1073.31
759.61	1073.31
759.794	1069.21
759.977	1007.77
760.161	1089.69
760.345	1099.93
760.528	1089.69
760.712	991.39
760.895	1069.21
761.079	1024.16
761.263	1032.35
761.446	983.2
761.63	1015.96
761.813	1056.92
761.997	1007.77
762.18	1007.77
762.364	1024.16
762.547	895.13
762.731	934.04
762.914	950.43
763.098	966.81
763.281	956.57
763.464	962.72
763.648	938.14
763.831	901.28
764.015	1030.3
764.198	1001.63
764.381	893.09
764.564	958.62
764.748	925.85
764.931	966.81
765.114	958.62
765.297	901.28
765.481	979.1
765.664	843.93
765.847	870.56
766.03	856.22
766.213	888.99
766.397	843.93
766.58	913.56
766.763	917.66
766.946	907.42
767.129	819.36
767.312	860.32
767.495	848.03
767.678	884.89
767.861	831.65
768.044	852.13
768.227	827.55
768.41	831.65
768.593	831.65
768.776	835.74
768.959	837.79
769.142	860.32
769.324	823.45
769.507	876.7
769.69	835.74
769.873	802.97
770.056	878.75
770.239	819.36
770.421	802.97
770.604	864.41
770.787	757.92
770.97	835.74
771.152	788.64
771.335	798.88
771.518	815.26
771.7	770.21
771.883	802.97
772.066	794.78
772.248	827.55
772.431	770.21
772.613	823.45
772.796	766.11
772.978	737.44
773.161	813.21
773.343	794.78
773.526	774.3
773.708	673.95
773.891	682.14
774.073	770.21
774.256	819.36
774.438	809.12
774.621	606.37
774.803	743.58
774.985	827.55
775.168	725.15
775.35	704.67
775.532	751.78
775.715	729.25
775.897	737.44
776.079	655.52
776.261	778.4
776.444	614.56
776.626	671.9
776.808	655.52
776.99	653.47
777.173	665.76
777.355	704.67
777.537	688.29
777.719	608.42
777.901	577.7
778.083	653.47
778.265	667.81
778.447	630.95
778.629	553.12
778.811	645.28
778.993	510.11
779.175	624.8
779.357	618.66
779.539	589.99
779.721	532.64
779.903	657.57
780.085	671.9
780.267	544.93
780.449	526.5
780.631	618.66
780.812	622.75
780.994	641.18
781.176	544.93
781.358	544.93
781.54	540.83
781.721	489.64
781.903	632.99
782.085	522.4
782.267	512.16
782.448	524.45
782.63	520.35
782.812	602.27
782.993	551.07
783.175	514.21
783.357	448.68
783.538	491.68
783.72	493.73
783.901	549.03
784.083	467.11
784.264	471.2
784.446	491.68
784.627	485.54
784.809	514.21
784.99	458.92
785.172	434.34
785.353	551.07
785.535	436.39
785.716	381.09
785.897	491.68
786.079	510.11
786.26	467.11
786.441	389.28
786.623	377
786.804	317.61
786.985	409.76
787.167	338.09
787.348	454.82
787.529	413.86
787.71	493.73
787.891	444.58
788.073	319.65
788.254	409.76
788.435	362.66
788.616	364.71
788.797	393.38
788.978	403.62
789.159	428.2
789.34	436.39
789.522	393.38
789.703	401.57
789.884	420
790.065	407.72
790.246	434.34
790.427	401.57
790.607	407.72
790.788	364.71
790.969	272.55
791.15	295.08
791.331	313.51
791.512	327.85
791.693	383.14
791.874	338.09
792.054	409.76
792.235	360.61
792.416	303.27
792.597	381.09
792.778	305.32
792.958	336.04
793.139	395.43
793.32	352.42
793.5	288.93
793.681	305.32
793.862	329.89
794.042	434.34
794.223	237.74
794.404	288.93
794.584	356.52
794.765	252.07
794.945	225.45
795.126	303.27
795.306	297.13
795.487	299.17
795.667	387.24
795.848	323.75
796.028	272.55
796.209	387.24
796.389	274.6
796.57	346.28
796.75	321.7
796.93	280.74
797.111	223.4
797.291	274.6
797.471	254.12
797.652	196.78
797.832	260.26
798.012	270.5
798.192	254.12
798.373	233.64
798.553	241.83
798.733	319.65
798.913	272.55
799.093	286.89
799.274	254.12
799.454	280.74
799.634	313.51
799.814	303.27
799.994	305.32
800.174	327.85
800.354	223.4
800.534	159.91
800.714	278.69
800.894	233.64
801.074	194.73
801.254	286.89
801.434	254.12
801.614	264.36
801.794	172.2
801.974	811.17
802.154	192.68
802.334	247.97
802.514	184.49
802.693	157.86
802.873	221.35
803.053	245.93
803.233	274.6
803.413	262.31
803.592	155.82
803.772	278.69
803.952	176.3
804.131	252.07
804.311	276.65
804.491	266.41
804.67	198.82
804.85	221.35
805.03	229.54
805.209	225.45
805.389	147.62
805.568	192.68
805.748	196.78
805.928	209.06
806.107	233.64
806.287	237.74
806.466	192.68
806.646	164.01
806.825	200.87
807.004	143.53
807.184	215.21
807.363	260.26
807.543	166.06
807.722	170.15
807.901	286.89
808.081	266.41
808.26	147.62
808.439	184.49
808.619	200.87
808.798	159.91
808.977	225.45
809.156	211.11
809.336	237.74
809.515	190.63
809.694	147.62
809.873	184.49
810.052	198.82
810.231	188.58
810.411	225.45
810.59	215.21
810.769	94.38
810.948	157.86
811.127	125.1
811.306	131.24
811.485	164.01
811.664	143.53
811.843	116.9
812.022	157.86
812.201	133.29
812.38	155.82
812.559	164.01
812.737	86.19
812.916	131.24
813.095	155.82
813.274	221.35
813.453	110.76
813.632	182.44
813.811	84.14
813.989	143.53
814.168	141.48
814.347	102.57
814.526	155.82
814.704	131.24
814.883	260.26
815.062	131.24
815.24	176.3
815.419	47.27
815.598	219.3
815.776	108.71
815.955	176.3
816.133	116.9
816.312	188.58
816.49	149.67
816.669	192.68
816.847	147.62
817.026	176.3
817.204	69.8
817.383	116.9
817.561	14.51
817.74	180.39
817.918	178.34
818.097	92.33
818.275	106.67
818.453	118.95
818.632	159.91
818.81	164.01
818.988	106.67
819.167	82.09
819.345	90.28
819.523	141.48
819.701	116.9
819.879	98.47
820.058	108.71
820.236	155.82
820.414	106.67
820.592	106.67
820.77	86.19
820.948	110.76
821.127	118.95
821.305	61.61
821.483	123.05
821.661	155.82
821.839	139.43
822.017	100.52
822.195	82.09
822.373	141.48
822.551	147.62
822.729	108.71
822.907	18.6
823.085	161.96
823.262	233.64
823.44	123.05
823.618	94.38
823.796	69.8
823.974	39.08
824.152	98.47
824.329	110.76
824.507	82.09
824.685	88.23
824.863	88.23
825.04	57.51
825.218	114.86
825.396	84.14
825.574	106.67
825.751	116.9
825.929	213.16
826.107	110.76
826.284	155.82
826.462	141.48
826.639	75.95
826.817	49.32
826.994	77.99
827.172	65.71
827.349	157.86
827.527	106.67
827.704	102.57
827.882	114.86
828.059	114.86
828.237	30.89
828.414	118.95
828.591	14.51
828.769	106.67
828.946	47.27
829.124	90.28
829.301	137.38
829.478	114.86
829.655	164.01
829.833	102.57
830.01	82.09
830.187	73.9
830.364	133.29
830.542	73.9
830.719	108.71
830.896	71.85
831.073	51.37
831.25	139.43
831.427	98.47
831.604	34.99
831.782	61.61
831.959	114.86
832.136	80.04
832.313	108.71
832.49	65.71
832.667	49.32
832.844	88.23
833.021	121
833.198	127.14
833.374	114.86
833.551	131.24
833.728	149.67
833.905	112.81
834.082	26.79
834.259	82.09
834.436	104.62
834.612	0.17
834.789	77.99
834.966	43.18
835.143	-1.88
835.319	131.24
835.496	127.14
835.673	82.09
835.85	121
836.026	51.37
836.203	77.99
836.38	28.84
836.556	108.71
836.733	8.36
836.909	28.84
837.086	65.71
837.262	57.51
837.439	69.8
837.616	59.56
837.792	98.47
837.968	104.62
838.145	10.41
838.321	73.9
838.498	55.47
838.674	14.51
838.851	145.58
839.027	59.56
839.203	37.03
839.38	67.75
839.556	49.32
839.732	86.19
839.909	90.28
840.085	43.18
840.261	-5.97
840.437	129.19
840.614	108.71
840.79	96.43
840.966	59.56
841.142	65.71
841.318	69.8
841.494	12.46
841.671	41.13
841.847	59.56
842.023	59.56
842.199	57.51
842.375	77.99
842.551	34.99
842.727	14.51
842.903	108.71
843.079	102.57
843.255	143.53
843.431	69.8
843.607	90.28
843.783	20.65
843.959	2.22
844.134	92.33
844.31	118.95
844.486	106.67
844.662	2.22
844.838	112.81
845.013	65.71
845.189	84.14
845.365	47.27
845.541	-20.31
845.716	80.04
845.892	20.65
846.068	41.13
846.244	63.66
846.419	116.9
846.595	65.71
846.77	45.23
846.946	43.18
847.122	34.99
847.297	22.7
847.473	75.95
847.648	63.66
847.824	49.32
847.999	41.13
848.175	65.71
848.35	51.37
848.526	59.56
848.701	-14.17
848.876	77.99
849.052	106.67
849.227	65.71
849.403	-8.02
849.578	90.28
849.753	45.23
849.929	127.14
850.104	-20.31
850.279	57.51
850.454	102.57
850.63	57.51
850.805	6.31
850.98	-24.4
851.155	106.67
851.33	73.9
851.505	51.37
851.681	75.95
851.856	49.32
852.031	20.65
852.206	98.47
852.381	-20.31
852.556	32.94
852.731	65.71
852.906	28.84
853.081	82.09
853.256	106.67
853.431	-16.21
853.606	-20.31
853.781	61.61
853.956	20.65
854.131	41.13
854.305	26.79
854.48	32.94
854.655	69.8
854.83	71.85
855.005	116.9
855.18	49.32
855.354	34.99
855.529	34.99
855.704	106.67
855.879	69.8
856.053	41.13
856.228	-14.17
856.403	-48.98
856.577	90.28
856.752	4.27
856.926	51.37
857.101	24.75
857.276	43.18
857.45	67.75
857.625	147.62
857.799	98.47
857.974	69.8
858.148	8.36
858.323	65.71
858.497	41.13
858.672	90.28
858.846	73.9
859.02	49.32
859.195	-61.27
859.369	57.51
859.543	82.09
859.718	37.03
859.892	-91.99
860.066	53.42
860.241	-24.4
860.415	-10.07
860.589	75.95
860.763	26.79
860.938	75.95
861.112	2.22
861.286	82.09
861.46	-36.69
861.634	37.03
861.808	77.99
861.982	28.84
862.157	26.79
862.331	61.61
862.505	73.9
862.679	20.65
862.853	0.17
863.027	77.99
863.201	98.47
863.375	-77.65
863.549	84.14
863.722	37.03
863.896	86.19
864.07	8.36
864.244	82.09
864.418	75.95
864.592	2.22
864.766	49.32
864.939	41.13
865.113	10.41
865.287	73.9
865.461	18.6
865.634	49.32
865.808	110.76
865.982	71.85
866.156	-8.02
866.329	41.13
866.503	45.23
866.676	4.27
866.85	-3.93
867.024	139.43
867.197	59.56
867.371	39.08
867.544	106.67
867.718	16.55
867.891	106.67
868.065	16.55
868.238	-20.31
868.412	82.09
868.585	32.94
868.759	98.47
868.932	0.17
869.105	18.6
869.279	16.55
869.452	4.27
869.625	-10.07
869.799	8.36
869.972	75.95
870.145	26.79
870.319	28.84
870.492	41.13
870.665	-40.79
870.838	0.17
871.011	28.84
871.185	-63.32
871.358	-12.12
871.531	2.22
871.704	51.37
871.877	24.75
872.05	53.42
872.223	-38.74
872.396	80.04
872.569	26.79
872.742	-24.4
872.915	75.95
873.088	41.13
873.261	-32.6
873.434	-5.97
873.607	61.61
873.78	2.22
873.953	2.22
874.126	-30.55
874.299	67.75
874.471	82.09
874.644	10.41
874.817	82.09
874.99	53.42
875.163	-28.5
875.335	49.32
875.508	43.18
875.681	45.23
875.853	-3.93
876.026	96.43
876.199	49.32
876.371	45.23
876.544	12.46
876.717	26.79
876.889	0.17
877.062	65.71
877.234	-36.69
877.407	45.23
877.579	90.28
877.752	49.32
877.924	16.55
878.097	49.32
878.269	-32.6
878.442	67.75
878.614	8.36
878.786	57.51
878.959	47.27
879.131	57.51
879.303	-8.02
879.476	26.79
879.648	16.55
879.82	67.75
879.993	20.65
880.165	16.55
880.337	-3.93
880.509	94.38
880.681	-51.03
880.854	90.28
881.026	53.42
881.198	90.28
881.37	67.75
881.542	37.03
881.714	24.75
881.886	67.75
882.058	-46.93
882.23	28.84
882.402	-38.74
882.574	49.32
882.746	59.56
882.918	10.41
883.09	22.7
883.262	-96.08
883.434	-8.02
883.606	61.61
883.778	69.8
883.95	51.37
884.122	-40.79
884.293	57.51
884.465	8.36
884.637	45.23
884.809	6.31
884.98	16.55
885.152	69.8
885.324	8.36
885.496	10.41
885.667	49.32
885.839	-40.79
886.011	59.56
886.182	28.84
886.354	18.6
886.525	24.75
886.697	92.33
886.869	2.22
887.04	61.61
887.212	12.46
887.383	75.95
887.555	69.8
887.726	8.36
887.897	-5.97
888.069	37.03
888.24	32.94
888.412	67.75
888.583	37.03
888.754	26.79
888.926	-8.02
889.097	30.89
889.268	-65.36
889.44	-1.88
889.611	-38.74
889.782	-28.5
889.953	10.41
890.125	69.8
890.296	16.55
890.467	61.61
890.638	20.65
890.809	18.6
890.98	-12.12
891.151	104.62
891.323	-10.07
891.494	41.13
891.665	49.32
891.836	34.99
892.007	28.84
892.178	34.99
892.349	-5.97
892.52	8.36
892.691	73.9
892.862	-1.88
893.032	32.94
893.203	2.22
893.374	-14.17
893.545	75.95
893.716	32.94
893.887	57.51
894.057	-30.55
894.228	24.75
894.399	-26.45
894.57	20.65
894.74	90.28
894.911	22.7
895.082	65.71
895.253	-48.98
895.423	8.36
895.594	-30.55
895.764	12.46
895.935	16.55
896.106	6.31
896.276	4.27
896.447	26.79
896.617	26.79
896.788	-14.17
896.958	18.6
897.129	-24.4
897.299	-28.5
897.47	34.99
897.64	49.32
897.81	0.17
897.981	90.28
898.151	-53.08
898.322	10.41
898.492	41.13
898.662	-16.21
898.832	-36.69
899.003	39.08
899.173	-24.4
899.343	2.22
899.513	-53.08
