Data from USB4F104151__226__14-45-36-106.txt Node

Date: Thu Mar 13 14:45:36 EDT 2025
User: louis
Spectrometer: USB4F10415
Trigger mode: 4
Integration Time (sec): 2.000000E-2
Scans to average: 1
Electric dark correction enabled: true
Nonlinearity correction enabled: false
Boxcar width: 0
XAxis mode: Wavelengths
Number of Pixels in Spectrum: 3648
>>>>>Begin Spectral Data<<<<<
178.204	-65.53
178.424	-65.53
178.644	-65.53
178.864	-124.93
179.084	-67.58
179.304	26.62
179.524	-43.01
179.744	2.05
179.964	30.72
180.184	38.91
180.404	-26.62
180.624	-14.34
180.844	20.48
181.064	-10.24
181.283	-6.14
181.503	-10.24
181.723	-8.19
181.943	-51.2
182.163	-8.19
182.383	26.62
182.602	12.29
182.822	-14.34
183.042	12.29
183.262	-26.62
183.482	-16.38
183.701	83.97
183.921	-24.58
184.141	-12.29
184.361	38.91
184.58	65.54
184.8	55.3
185.02	22.53
185.239	51.2
185.459	-22.53
185.679	71.68
185.898	-69.63
186.118	-34.82
186.338	18.43
186.557	47.1
186.777	-18.43
186.997	26.62
187.216	-18.43
187.436	63.49
187.655	77.82
187.875	55.3
188.095	26.62
188.314	73.73
188.534	90.11
188.753	94.21
188.973	38.91
189.192	92.16
189.412	38.91
189.631	73.73
189.851	55.3
190.07	114.69
190.29	47.1
190.509	71.68
190.729	6.14
190.948	45.06
191.168	176.13
191.387	55.3
191.607	14.34
191.826	120.83
192.045	-2.05
192.265	-40.96
192.484	43.01
192.704	0
192.923	-118.78
193.142	57.34
193.362	-2.05
193.581	-6.14
193.8	-14.34
194.02	47.1
194.239	24.58
194.458	63.49
194.678	10.24
194.897	-14.34
195.116	30.72
195.335	-18.43
195.555	100.35
195.774	63.49
195.993	18.43
196.212	-18.43
196.432	55.3
196.651	43.01
196.87	14.34
197.089	63.49
197.308	83.97
197.528	71.68
197.747	-2.05
197.966	-49.15
198.185	36.86
198.404	53.25
198.623	30.72
198.842	10.24
199.062	6.14
199.281	88.06
199.5	71.68
199.719	88.06
199.938	67.58
200.157	47.1
200.376	75.77
200.595	124.93
200.814	26.62
201.033	71.68
201.252	81.92
201.471	-14.34
201.69	81.92
201.909	47.1
202.128	43.01
202.347	-26.62
202.566	96.25
202.785	-20.48
203.004	-8.19
203.223	79.87
203.442	12.29
203.661	12.29
203.879	4.1
204.098	-14.34
204.317	38.91
204.536	63.49
204.755	-22.53
204.974	36.86
205.193	22.53
205.411	88.06
205.63	30.72
205.849	83.97
206.068	-2.05
206.287	49.15
206.505	4.1
206.724	-40.96
206.943	10.24
207.162	-71.68
207.381	30.72
207.599	49.15
207.818	-51.2
208.037	0
208.255	18.43
208.474	38.91
208.693	26.62
208.911	30.72
209.13	30.72
209.349	122.88
209.567	12.29
209.786	63.49
210.005	30.72
210.223	10.24
210.442	-8.19
210.661	47.1
210.879	32.77
211.098	55.3
211.316	116.73
211.535	71.68
211.753	71.68
211.972	-2.05
212.191	0
212.409	6.14
212.628	79.87
212.846	-28.67
213.065	36.86
213.283	59.39
213.502	2.05
213.72	16.38
213.938	79.87
214.157	20.48
214.375	49.15
214.594	47.1
214.812	90.11
215.031	47.1
215.249	83.97
215.467	55.3
215.686	8.19
215.904	59.39
216.122	14.34
216.341	141.31
216.559	81.92
216.778	67.58
216.996	18.43
217.214	26.62
217.432	28.67
217.651	-26.62
217.869	51.2
218.087	22.53
218.306	-2.05
218.524	90.11
218.742	83.97
218.96	24.58
219.179	6.14
219.397	22.53
219.615	63.49
219.833	16.38
220.051	59.39
220.27	36.86
220.488	-10.24
220.706	22.53
220.924	-12.29
221.142	106.49
221.36	18.43
221.578	38.91
221.796	-8.19
222.015	24.58
222.233	6.14
222.451	20.48
222.669	-90.11
222.887	55.3
223.105	55.3
223.323	120.83
223.541	-26.62
223.759	51.2
223.977	73.73
224.195	137.21
224.413	98.3
224.631	57.34
224.849	40.96
225.067	51.2
225.285	26.62
225.503	6.14
225.721	45.06
225.939	30.72
226.157	10.24
226.375	22.53
226.592	-57.34
226.81	77.82
227.028	88.06
227.246	114.69
227.464	-12.29
227.682	-8.19
227.9	51.2
228.117	98.3
228.335	30.72
228.553	38.91
228.771	40.96
228.989	6.14
229.206	71.68
229.424	14.34
229.642	24.58
229.86	-8.19
230.077	63.49
230.295	6.14
230.513	38.91
230.731	22.53
230.948	67.58
231.166	79.87
231.384	16.38
231.601	-30.72
231.819	83.97
232.037	26.62
232.254	-49.15
232.472	14.34
232.689	71.68
232.907	49.15
233.125	-45.06
233.342	63.49
233.56	28.67
233.777	45.06
233.995	59.39
234.213	71.68
234.43	-10.24
234.648	51.2
234.865	59.39
235.083	55.3
235.3	79.87
235.518	69.63
235.735	120.83
235.953	81.92
236.17	16.38
236.388	26.62
236.605	8.19
236.822	79.87
237.04	71.68
237.257	16.38
237.475	30.72
237.692	51.2
237.909	-10.24
238.127	-8.19
238.344	38.91
238.562	47.1
238.779	14.34
238.996	8.19
239.214	106.49
239.431	30.72
239.648	26.62
239.865	47.1
240.083	6.14
240.3	67.58
240.517	36.86
240.735	79.87
240.952	26.62
241.169	96.25
241.386	10.24
241.603	18.43
241.821	-24.58
242.038	34.82
242.255	83.97
242.472	38.91
242.689	36.86
242.907	79.87
243.124	38.91
243.341	-51.2
243.558	47.1
243.775	-32.77
243.992	14.34
244.209	-14.34
244.426	126.97
244.643	-4.1
244.86	-8.19
245.078	24.58
245.295	36.86
245.512	49.15
245.729	120.83
245.946	36.86
246.163	114.69
246.38	51.2
246.597	57.34
246.814	71.68
247.031	51.2
247.248	47.1
247.464	-2.05
247.681	30.72
247.898	6.14
248.115	67.58
248.332	-6.14
248.549	57.34
248.766	73.73
248.983	55.3
249.2	55.3
249.417	55.3
249.633	65.54
249.85	55.3
250.067	22.53
250.284	38.91
250.501	94.21
250.717	79.87
250.934	6.14
251.151	32.77
251.368	-6.14
251.585	67.58
251.801	6.14
252.018	-2.05
252.235	-16.38
252.451	18.43
252.668	10.24
252.885	-67.58
253.102	10.24
253.318	-32.77
253.535	2.05
253.752	-22.53
253.968	40.96
254.185	14.34
254.401	-2.05
254.618	6.14
254.835	16.38
255.051	-2.05
255.268	-10.24
255.484	79.87
255.701	6.14
255.917	90.11
256.134	-16.38
256.351	106.49
256.567	-43.01
256.784	14.34
257	26.62
257.217	22.53
257.433	43.01
257.65	14.34
257.866	38.91
258.082	30.72
258.299	49.15
258.515	34.82
258.732	12.29
258.948	-45.06
259.165	-14.34
259.381	-8.19
259.597	14.34
259.814	55.3
260.03	57.34
260.246	141.31
260.463	-26.62
260.679	28.67
260.895	88.06
261.112	2.05
261.328	92.16
261.544	38.91
261.761	112.64
261.977	55.3
262.193	-47.1
262.409	61.44
262.626	32.77
262.842	40.96
263.058	-2.05
263.274	79.87
263.49	16.38
263.707	104.45
263.923	51.2
264.139	55.3
264.355	22.53
264.571	92.16
264.787	-8.19
265.004	92.16
265.22	18.43
265.436	96.25
265.652	16.38
265.868	32.77
266.084	40.96
266.3	49.15
266.516	30.72
266.732	63.49
266.948	71.68
267.164	79.87
267.38	47.1
267.596	22.53
267.812	110.59
268.028	0
268.244	-18.43
268.46	6.14
268.676	-51.2
268.892	73.73
269.108	-32.77
269.324	90.11
269.54	-14.34
269.756	34.82
269.972	-53.25
270.188	-2.05
270.403	47.1
270.619	-18.43
270.835	38.91
271.051	38.91
271.267	-65.53
271.483	-38.91
271.698	61.44
271.914	2.05
272.13	16.38
272.346	22.53
272.562	30.72
272.777	6.14
272.993	16.38
273.209	24.58
273.425	32.77
273.64	-38.91
273.856	149.5
274.072	47.1
274.287	-16.38
274.503	55.3
274.719	-2.05
274.934	59.39
275.15	45.06
275.366	45.06
275.581	12.29
275.797	8.19
276.012	81.92
276.228	-2.05
276.444	-26.62
276.659	28.67
276.875	-36.86
277.09	40.96
277.306	51.2
277.521	40.96
277.737	-34.82
277.952	79.87
278.168	43.01
278.383	32.77
278.599	88.06
278.814	34.82
279.03	-18.43
279.245	124.93
279.461	-6.14
279.676	4.1
279.892	-55.3
280.107	22.53
280.322	16.38
280.538	12.29
280.753	63.49
280.969	22.53
281.184	51.2
281.399	100.35
281.615	2.05
281.83	32.77
282.045	24.58
282.26	65.54
282.476	8.19
282.691	51.2
282.906	57.34
283.122	14.34
283.337	30.72
283.552	92.16
283.767	14.34
283.983	81.92
284.198	-16.38
284.413	59.39
284.628	-49.15
284.843	34.82
285.058	61.44
285.274	-6.14
285.489	-88.06
285.704	63.49
285.919	-38.91
286.134	30.72
286.349	49.15
286.564	53.25
286.779	145.41
286.995	86.01
287.21	-16.38
287.425	-8.19
287.64	38.91
287.855	81.92
288.07	-10.24
288.285	47.1
288.5	16.38
288.715	83.97
288.93	8.19
289.145	32.77
289.36	57.34
289.575	10.24
289.79	88.06
290.004	-32.77
290.219	71.68
290.434	-34.82
290.649	22.53
290.864	40.96
291.079	8.19
291.294	16.38
291.509	108.54
291.724	26.62
291.938	16.38
292.153	57.34
292.368	-10.24
292.583	49.15
292.798	26.62
293.012	10.24
293.227	-18.43
293.442	18.43
293.657	88.06
293.871	-34.82
294.086	26.62
294.301	135.17
294.516	81.92
294.73	59.39
294.945	-45.06
295.16	30.72
295.374	114.69
295.589	71.68
295.804	-18.43
296.018	57.34
296.233	28.67
296.447	38.91
296.662	38.91
296.877	88.06
297.091	47.1
297.306	40.96
297.52	47.1
297.735	12.29
297.949	24.58
298.164	32.77
298.378	-47.1
298.593	-36.86
298.807	26.62
299.022	10.24
299.236	96.25
299.451	-34.82
299.665	24.58
299.88	-18.43
300.094	0
300.309	-51.2
300.523	2.05
300.737	-51.2
300.952	26.62
301.166	88.06
301.381	36.86
301.595	36.86
301.809	10.24
302.024	6.14
302.238	6.14
302.452	55.3
302.667	38.91
302.881	71.68
303.095	63.49
303.309	34.82
303.524	49.15
303.738	8.19
303.952	36.86
304.166	145.41
304.381	-38.91
304.595	12.29
304.809	12.29
305.023	24.58
305.237	20.48
305.452	55.3
305.666	45.06
305.88	108.54
306.094	12.29
306.308	63.49
306.522	34.82
306.736	108.54
306.95	-16.38
307.164	61.44
307.379	77.82
307.593	34.82
307.807	55.3
308.021	71.68
308.235	0
308.449	-16.38
308.663	26.62
308.877	188.41
309.091	30.72
309.305	90.11
309.519	-16.38
309.733	38.91
309.947	63.49
310.161	73.73
310.374	71.68
310.588	49.15
310.802	40.96
311.016	-2.05
311.23	-8.19
311.444	55.3
311.658	18.43
311.872	26.62
312.085	0
312.299	8.19
312.513	131.07
312.727	79.87
312.941	4.1
313.154	24.58
313.368	75.77
313.582	38.91
313.796	47.1
314.009	-55.3
314.223	71.68
314.437	63.49
314.651	28.67
314.864	-59.39
315.078	90.11
315.292	-2.05
315.505	59.39
315.719	24.58
315.933	8.19
316.146	20.48
316.36	-65.53
316.573	153.6
316.787	-30.72
317.001	83.97
317.214	51.2
317.428	55.3
317.641	30.72
317.855	8.19
318.068	-10.24
318.282	16.38
318.495	30.72
318.709	51.2
318.922	22.53
319.136	22.53
319.349	36.86
319.563	28.67
319.776	71.68
319.99	12.29
320.203	-6.14
320.417	59.39
320.63	106.49
320.843	106.49
321.057	51.2
321.27	79.87
321.483	63.49
321.697	83.97
321.91	43.01
322.124	49.15
322.337	53.25
322.55	-18.43
322.763	57.34
322.977	90.11
323.19	-26.62
323.403	-6.14
323.617	36.86
323.83	55.3
324.043	-65.53
324.256	98.3
324.469	32.77
324.683	6.14
324.896	92.16
325.109	57.34
325.322	-10.24
325.535	71.68
325.748	32.77
325.962	40.96
326.175	10.24
326.388	69.63
326.601	65.54
326.814	-14.34
327.027	16.38
327.24	79.87
327.453	73.73
327.666	0
327.879	-14.34
328.092	88.06
328.305	-34.82
328.518	2.05
328.731	14.34
328.944	8.19
329.157	22.53
329.37	61.44
329.583	40.96
329.796	63.49
330.009	-26.62
330.222	22.53
330.435	104.45
330.648	-18.43
330.861	6.14
331.073	143.36
331.286	63.49
331.499	65.54
331.712	43.01
331.925	-6.14
332.138	28.67
332.35	65.54
332.563	-8.19
332.776	75.77
332.989	79.87
333.202	57.34
333.414	12.29
333.627	83.97
333.84	16.38
334.053	40.96
334.265	30.72
334.478	-24.58
334.691	77.82
334.903	22.53
335.116	106.49
335.329	6.14
335.541	22.53
335.754	67.58
335.966	65.54
336.179	47.1
336.392	-61.44
336.604	38.91
336.817	81.92
337.029	81.92
337.242	63.49
337.454	20.48
337.667	-32.77
337.88	18.43
338.092	34.82
338.305	151.55
338.517	-16.38
338.729	71.68
338.942	43.01
339.154	-2.05
339.367	24.58
339.579	63.49
339.792	-10.24
340.004	51.2
340.217	8.19
340.429	-10.24
340.641	63.49
340.854	16.38
341.066	-4.1
341.278	83.97
341.491	34.82
341.703	22.53
341.915	32.77
342.128	45.06
342.34	55.3
342.552	24.58
342.764	-18.43
342.977	-6.14
343.189	45.06
343.401	36.86
343.613	43.01
343.826	38.91
344.038	-18.43
344.25	22.53
344.462	22.53
344.674	22.53
344.886	32.77
345.099	57.34
345.311	36.86
345.523	104.45
345.735	-8.19
345.947	-18.43
346.159	49.15
346.371	40.96
346.583	-4.1
346.795	53.25
347.007	-8.19
347.219	55.3
347.431	141.31
347.643	55.3
347.855	36.86
348.067	-8.19
348.279	38.91
348.491	2.05
348.703	55.3
348.915	2.05
349.127	0
349.339	-20.48
349.551	26.62
349.763	30.72
349.975	-38.91
350.187	120.83
350.399	6.14
350.61	22.53
350.822	-40.96
351.034	8.19
351.246	32.77
351.458	-2.05
351.669	63.49
351.881	59.39
352.093	8.19
352.305	53.25
352.517	51.2
352.728	86.01
352.94	10.24
353.152	79.87
353.363	10.24
353.575	38.91
353.787	112.64
353.999	-45.06
354.21	-2.05
354.422	73.73
354.633	24.58
354.845	-10.24
355.057	22.53
355.268	12.29
355.48	-34.82
355.692	6.14
355.903	-16.38
356.115	8.19
356.326	-14.34
356.538	59.39
356.749	153.6
356.961	-18.43
357.172	47.1
357.384	-18.43
357.595	100.35
357.807	49.15
358.018	-100.35
358.23	59.39
358.441	73.73
358.653	30.72
358.864	-26.62
359.075	-28.67
359.287	47.1
359.498	137.21
359.709	18.43
359.921	40.96
360.132	10.24
360.344	14.34
360.555	-8.19
360.766	43.01
360.977	14.34
361.189	0
361.4	-22.53
361.611	106.49
361.823	73.73
362.034	-38.91
362.245	-30.72
362.456	8.19
362.667	40.96
362.879	28.67
363.09	59.39
363.301	116.73
363.512	53.25
363.723	55.3
363.935	55.3
364.146	71.68
364.357	65.54
364.568	106.49
364.779	63.49
364.99	14.34
365.201	28.67
365.412	96.25
365.623	43.01
365.834	-22.53
366.045	22.53
366.256	26.62
366.467	55.3
366.678	88.06
366.889	108.54
367.1	-32.77
367.311	-51.2
367.522	71.68
367.733	22.53
367.944	65.54
368.155	8.19
368.366	28.67
368.577	38.91
368.788	104.45
368.999	40.96
369.209	30.72
369.42	67.58
369.631	153.6
369.842	10.24
370.053	8.19
370.264	96.25
370.474	6.14
370.685	81.92
370.896	-16.38
371.107	83.97
371.317	57.34
371.528	49.15
371.739	94.21
371.95	2.05
372.16	96.25
372.371	20.48
372.582	-2.05
372.792	16.38
373.003	28.67
373.214	28.67
373.424	40.96
373.635	-63.49
373.846	69.63
374.056	-16.38
374.267	81.92
374.477	49.15
374.688	63.49
374.898	16.38
375.109	59.39
375.319	55.3
375.53	96.25
375.74	26.62
375.951	67.58
376.161	40.96
376.372	120.83
376.582	45.06
376.793	-14.34
377.003	10.24
377.214	36.86
377.424	36.86
377.635	59.39
377.845	12.29
378.055	108.54
378.266	-51.2
378.476	-77.82
378.686	30.72
378.897	-40.96
379.107	63.49
379.317	96.25
379.528	16.38
379.738	118.78
379.948	10.24
380.158	108.54
380.369	24.58
380.579	18.43
380.789	51.2
380.999	92.16
381.21	65.54
381.42	126.97
381.63	-18.43
381.84	59.39
382.05	28.67
382.261	55.3
382.471	59.39
382.681	-8.19
382.891	155.65
383.101	-4.1
383.311	26.62
383.521	88.06
383.731	100.35
383.941	139.26
384.151	-16.38
384.361	88.06
384.571	79.87
384.781	-2.05
384.991	122.88
385.201	57.34
385.411	71.68
385.621	-34.82
385.831	92.16
386.041	71.68
386.251	71.68
386.461	24.58
386.671	8.19
386.881	108.54
387.091	38.91
387.301	14.34
387.511	71.68
387.72	38.91
387.93	65.54
388.14	86.01
388.35	100.35
388.56	71.68
388.769	120.83
388.979	96.25
389.189	-4.1
389.399	47.1
389.609	67.58
389.818	38.91
390.028	116.73
390.238	-2.05
390.447	-59.39
390.657	94.21
390.867	116.73
391.076	49.15
391.286	104.45
391.496	83.97
391.705	63.49
391.915	14.34
392.125	83.97
392.334	6.14
392.544	65.54
392.753	34.82
392.963	-24.58
393.172	96.25
393.382	-10.24
393.591	32.77
393.801	59.39
394.01	159.74
394.22	6.14
394.429	14.34
394.639	-6.14
394.848	40.96
395.058	24.58
395.267	63.49
395.477	114.69
395.686	65.54
395.895	96.25
396.105	106.49
396.314	112.64
396.524	45.06
396.733	65.54
396.942	75.77
397.152	55.3
397.361	71.68
397.57	81.92
397.78	96.25
397.989	104.45
398.198	153.6
398.407	30.72
398.617	30.72
398.826	63.49
399.035	40.96
399.244	63.49
399.453	108.54
399.663	61.44
399.872	16.38
400.081	83.97
400.29	112.64
400.499	36.86
400.708	114.69
400.917	12.29
401.127	106.49
401.336	57.34
401.545	155.65
401.754	129.02
401.963	120.83
402.172	16.38
402.381	47.1
402.59	0
402.799	16.38
403.008	114.69
403.217	120.83
403.426	112.64
403.635	67.58
403.844	16.38
404.053	96.25
404.262	47.1
404.471	108.54
404.68	112.64
404.888	92.16
405.097	114.69
405.306	100.35
405.515	77.82
405.724	116.73
405.933	71.68
406.142	155.65
406.35	120.83
406.559	79.87
406.768	231.42
406.977	135.17
407.185	151.55
407.394	159.74
407.603	81.92
407.812	135.17
408.02	116.73
408.229	180.22
408.438	112.64
408.646	157.69
408.855	219.13
409.064	192.51
409.272	174.08
409.481	219.13
409.69	188.41
409.898	210.94
410.107	251.9
410.315	202.75
410.524	196.61
410.733	223.23
410.941	215.04
411.15	290.81
411.358	346.11
411.567	276.48
411.775	231.42
411.984	251.9
412.192	270.33
412.401	294.91
412.609	395.26
412.818	366.59
413.026	389.11
413.234	333.82
413.443	346.11
413.651	309.24
413.86	319.48
414.068	460.79
414.276	452.6
414.485	448.51
414.693	450.55
414.901	462.84
415.11	505.85
415.318	419.83
415.526	432.12
415.734	559.1
415.943	444.41
416.151	532.47
416.359	516.09
416.567	616.44
416.776	604.15
416.984	581.62
417.192	657.4
417.4	600.05
417.608	665.59
417.817	643.06
418.025	714.74
418.233	841.72
418.441	753.65
418.649	735.22
418.857	800.76
419.065	802.8
419.273	835.57
419.481	872.43
419.689	931.83
419.897	989.17
420.105	954.35
420.313	1056.75
420.521	1038.32
420.729	1144.81
420.937	1122.29
421.145	1009.65
421.353	1120.24
421.561	1288.17
421.769	1284.08
421.977	1284.08
422.185	1236.97
422.393	1343.47
422.601	1501.16
422.809	1488.87
423.017	1472.49
423.224	1548.26
423.432	1484.78
423.64	1554.41
423.848	1685.48
424.056	1619.94
424.263	1744.87
424.471	1789.92
424.679	1765.35
424.887	1968.1
425.094	2062.3
425.302	2052.06
425.51	2037.73
425.718	2111.46
425.925	2119.65
426.133	2226.14
426.341	2351.07
426.548	2506.71
426.756	2463.71
426.964	2508.76
427.171	2596.82
427.379	2734.04
427.586	2709.46
427.794	2783.19
428.001	2910.16
428.209	3094.48
428.417	3069.91
428.624	3227.6
428.832	3162.06
429.039	3227.6
429.247	3114.96
429.454	3645.38
429.662	3637.19
429.869	3545.03
430.076	3719.11
430.284	3547.08
430.491	3700.68
430.699	3938.24
430.906	4136.9
431.114	3930.05
431.321	4294.59
431.528	4376.51
431.736	4560.83
431.943	4857.78
432.15	4700.09
432.358	4749.24
432.565	4970.42
432.772	4978.61
432.979	5027.76
433.187	5201.84
433.394	5300.14
433.601	5627.82
433.808	5617.58
434.016	5433.26
434.223	5787.56
434.43	6158.24
434.637	5984.16
434.844	6309.79
435.052	6641.56
435.259	6639.51
435.466	6586.27
435.673	6645.66
435.88	7133.08
436.087	7260.05
436.294	7380.88
436.501	7114.64
436.708	7219.09
436.915	7526.29
437.122	7765.9
437.329	7960.45
437.537	8075.14
437.743	8060.8
437.95	8175.49
438.157	8544.13
438.364	8763.26
438.571	8730.49
438.778	8830.84
438.985	9676.65
439.192	9420.66
439.399	9660.27
439.606	9385.84
439.813	9924.46
440.02	10536.8
440.227	10327.91
440.433	10311.52
440.64	10690.4
440.847	10383.2
441.054	10745.69
441.261	11519.82
441.467	11474.77
441.674	11306.84
441.881	12078.92
442.088	11921.23
442.294	11947.85
442.501	12296
442.708	12496.71
442.914	12977.98
443.121	13375.28
443.328	13090.62
443.534	13932.33
443.741	13795.12
443.948	13358.9
444.154	14214.95
444.361	14128.94
444.568	14292.77
444.774	14245.67
444.981	14726.94
445.187	14817.05
445.394	15628.05
445.6	15353.62
445.807	16787.2
446.013	16092.94
446.22	16535.3
446.426	17229.56
446.633	17280.76
446.839	17829.62
447.046	17276.66
447.252	17968.88
447.459	18083.56
447.665	17858.29
447.871	18800.35
448.078	19470.04
448.284	18675.43
448.491	19101.4
448.697	19906.26
448.903	20156.11
449.11	20176.59
449.316	20027.09
449.522	20221.64
449.728	20795.07
449.935	21186.24
450.141	20883.14
450.347	21843.63
450.553	20774.6
450.76	21173.95
450.966	21681.85
451.172	21665.46
451.378	22060.72
451.584	21903.03
451.791	22548.14
451.997	22406.83
452.203	22668.97
452.409	22587.05
452.615	22410.92
452.821	21708.47
453.027	21489.34
453.233	22591.14
453.44	21821.11
453.646	21941.94
453.852	21952.18
454.058	22230.7
454.264	22042.29
454.47	22345.39
454.676	21939.89
454.882	22572.71
455.088	20637.38
455.294	20977.34
455.5	21436.09
455.705	21530.3
455.911	20694.72
456.117	20227.79
456.323	20061.9
456.529	19093.21
456.735	19951.31
456.941	19150.56
457.147	19046.11
457.352	18616.04
457.558	18237.16
457.764	18396.9
457.97	18259.69
458.176	17389.3
458.381	17669.87
458.587	16774.91
458.793	16791.3
458.999	15998.73
459.204	17059.58
459.41	16582.4
459.616	15472.4
459.821	15580.95
460.027	15644.43
460.233	15062.81
460.438	14401.32
460.644	14747.42
460.85	13776.69
461.055	13838.12
461.261	13600.56
461.466	12805.95
461.672	12228.42
461.878	13049.66
462.083	12230.47
462.289	11900.75
462.494	12033.86
462.7	11302.74
462.905	11040.6
463.111	11517.78
463.316	11624.27
463.522	11229.01
463.727	11454.29
463.932	11128.66
464.138	11110.23
464.343	11425.62
464.549	10731.36
464.754	11173.72
464.959	11290.45
465.165	10930.01
465.37	10594.14
465.575	10420.06
465.781	10655.58
465.986	10925.91
466.191	10469.22
466.397	10245.99
466.602	9598.83
466.807	10174.31
467.012	10180.45
467.218	10088.29
467.423	9678.7
467.628	10147.69
467.833	10354.53
468.038	9875.31
468.244	9633.65
468.449	9977.7
468.654	9762.67
468.859	9656.17
469.064	9576.3
469.269	9181.04
469.474	9449.33
469.679	9582.45
469.885	9140.08
470.09	9449.33
470.295	9394.03
470.5	8920.95
470.705	9158.52
470.91	8986.49
471.115	8732.54
471.32	9004.92
471.525	8873.85
471.73	8607.61
471.935	8779.64
472.139	8454.01
472.344	8472.45
472.549	8372.1
472.754	8464.25
472.959	8275.84
473.164	8132.48
473.369	7923.59
473.574	8396.67
473.778	8208.26
473.983	8214.4
474.188	8007.56
474.393	7587.72
474.598	7749.51
474.802	7434.13
475.007	7522.19
475.212	7561.1
475.417	7436.17
475.621	7217.04
475.826	7378.83
476.031	7202.71
476.235	7018.39
476.44	7135.12
476.645	6995.86
476.849	6985.62
477.054	6866.84
477.259	6752.15
477.463	6764.44
477.668	6750.11
477.872	6778.78
478.077	6676.38
478.282	6358.94
478.486	6483.87
478.691	6328.22
478.895	6477.73
479.1	6469.53
479.304	6387.61
479.509	6219.68
479.713	6231.97
479.918	6227.87
480.122	6092.71
480.326	6168.48
480.531	6027.17
480.735	5959.59
480.94	6002.6
481.144	6186.91
481.348	5918.63
481.553	6045.6
481.757	5709.74
481.961	5851.05
482.166	6029.22
482.37	5793.7
482.574	5799.85
482.778	5857.19
482.983	5980.07
483.187	6012.84
483.391	5932.97
483.595	5961.64
483.8	5717.93
484.004	5797.8
484.208	5988.26
484.412	5816.23
484.616	5900.2
484.821	5926.82
485.025	5636.01
485.229	5875.62
485.433	5769.13
485.637	5803.94
485.841	6010.79
486.045	5748.65
486.249	5975.97
486.453	5793.7
486.657	5805.99
486.861	5781.42
487.065	5547.95
487.269	5709.74
487.473	5691.31
487.677	5939.11
487.881	5949.35
488.085	5889.96
488.289	5840.81
488.493	5732.26
488.697	5758.89
488.901	5998.5
489.105	5711.78
489.309	5816.23
489.512	5883.81
489.716	6045.6
489.92	5826.47
490.124	5924.77
490.328	5953.45
490.531	5875.62
490.735	5904.29
490.939	6029.22
491.143	6002.6
491.346	6018.98
491.55	6035.36
491.754	6127.52
491.958	6070.18
492.161	6209.44
492.365	6162.34
492.569	6029.22
492.772	6350.75
492.976	6313.89
493.18	6162.34
493.383	6438.81
493.587	6324.13
493.79	6322.08
493.994	6313.89
494.197	6545.31
494.401	6313.89
494.605	6477.73
494.808	6430.62
495.012	6457.25
495.215	6760.34
495.419	6715.29
495.622	6535.07
495.825	6774.68
496.029	6705.05
496.232	7032.72
496.436	7100.31
496.639	7047.06
496.843	6915.99
497.046	7165.84
497.249	7346.06
497.453	7280.53
497.656	7321.49
497.859	7247.76
498.063	7315.34
498.266	7559.05
498.469	7501.71
498.673	7692.17
498.876	7880.58
499.079	7815.05
499.282	7763.85
499.485	8036.23
499.689	8099.72
499.892	8296.32
500.095	8224.64
500.298	8083.33
500.501	8157.06
500.705	8396.67
500.908	8533.89
501.111	8486.78
501.314	8845.18
501.517	8920.95
501.72	9107.32
501.923	8896.38
502.126	8949.62
502.329	9357.17
502.532	9342.83
502.735	9455.47
502.938	9525.1
503.141	9617.26
503.344	9930.6
503.547	9709.42
503.75	9838.44
503.953	10043.24
504.156	10223.46
504.359	10315.62
504.562	10475.36
504.765	10487.65
504.968	10633.05
505.17	10835.8
505.373	10803.04
505.576	11032.41
505.779	10987.35
505.982	11032.41
506.185	11517.78
506.387	11282.26
506.59	11454.29
506.793	11689.81
506.996	11689.81
507.198	12007.24
507.401	11992.9
507.604	12209.99
507.807	12490.56
508.009	12373.83
508.212	12418.88
508.415	12648.26
508.617	12760.89
508.82	12658.49
509.022	12934.97
509.225	13182.77
509.428	13301.56
509.63	13324.08
509.833	13387.57
510.035	13881.13
510.238	13776.69
510.44	14151.46
510.643	14186.28
510.845	14247.72
511.048	14147.37
511.25	14505.76
511.453	14518.05
511.655	15234.84
511.858	14935.84
512.06	15169.3
512.262	15185.69
512.465	15335.19
512.667	15386.39
512.87	15617.81
513.072	15853.33
513.274	16228.1
513.477	16348.93
513.679	16275.21
513.881	16576.26
514.084	16609.03
514.286	16701.19
514.488	16946.94
514.69	17295.1
514.893	17123.07
515.095	17194.75
515.297	17481.46
515.499	17469.17
515.701	17895.15
515.904	17934.06
516.106	18159.34
516.308	18282.22
516.51	18511.59
516.712	18374.38
516.914	18831.07
517.116	19070.69
517.318	19050.21
517.52	18849.5
517.722	19379.93
517.925	19658.45
518.127	19781.33
518.329	20133.58
518.531	19816.15
518.733	20438.73
518.935	20698.82
519.136	20422.34
519.338	21206.72
519.54	21116.61
519.742	21145.28
519.944	21235.39
520.146	21452.47
520.348	21696.18
520.55	21817.01
520.752	21925.55
520.954	22105.77
521.155	22128.3
521.357	22251.18
521.559	22519.46
521.761	22943.39
521.963	23029.41
522.164	23144.09
522.366	23183.01
522.568	23453.34
522.77	23645.85
522.971	23977.62
523.173	23631.51
523.375	24077.97
523.576	24004.24
523.778	23940.75
523.98	24471.18
524.181	24555.15
524.383	24499.85
524.584	24510.09
524.786	24571.53
524.988	24684.17
525.189	25261.69
525.391	25345.66
525.592	25489.02
525.794	25591.42
525.995	25609.85
526.197	25714.3
526.398	25669.24
526.6	25976.44
526.801	26170.99
527.003	25894.52
527.204	26369.65
527.406	26650.22
527.607	26257.01
527.808	26867.3
528.01	26320.49
528.211	26500.72
528.412	27258.46
528.614	27278.94
528.815	27104.87
529.016	27268.7
529.218	27129.44
529.419	27313.76
529.62	27149.92
529.822	27115.11
530.023	27244.13
530.224	27256.42
530.425	27266.66
530.626	27387.49
530.828	26908.26
531.029	27924.05
531.23	27530.84
531.431	27403.87
531.632	27823.7
531.833	27887.19
532.035	27926.1
532.236	27661.91
532.437	28040.79
532.638	27557.47
532.839	28053.08
533.04	28028.5
533.241	27698.78
533.442	28225.11
533.643	28567.12
533.844	28005.97
534.045	28165.71
534.246	27582.04
534.447	28503.63
534.648	28192.34
534.849	28225.11
535.05	27915.86
535.251	28087.89
535.451	28139.09
535.652	28180.05
535.853	28374.61
536.054	27924.05
536.255	28075.6
536.456	28020.31
536.657	28182.1
536.857	28038.74
537.058	27842.14
537.259	28053.08
537.46	28259.92
537.66	28401.23
537.861	28298.83
538.062	28069.46
538.263	28104.28
538.463	28261.97
538.664	28098.13
538.865	28051.03
539.065	28401.23
539.266	28188.24
539.466	28380.75
539.667	27780.7
539.868	28448.33
540.068	28257.87
540.269	28360.27
540.469	28419.66
540.67	27917.91
540.87	28112.47
541.071	28126.8
541.271	28304.98
541.472	28091.99
541.672	28171.86
541.873	28321.36
542.073	27926.1
542.274	28526.16
542.474	28134.99
542.675	28282.45
542.875	27922.01
543.075	28171.86
543.276	27561.56
543.476	28436.05
543.676	28188.24
543.877	28034.64
544.077	27879
544.277	28083.8
544.478	27926.1
544.678	28227.15
544.878	27967.06
545.078	28010.07
545.279	27815.51
545.479	28075.6
545.679	27860.57
545.879	28008.02
546.079	28139.09
546.28	27711.07
546.48	27723.35
546.68	28046.93
546.88	28198.48
547.08	27995.73
547.28	27967.06
547.48	27512.41
547.68	27901.53
547.88	27631.19
548.081	27893.33
548.281	27960.92
548.481	27768.41
548.681	27889.24
548.881	27905.62
549.081	27756.12
549.28	28171.86
549.48	27811.42
549.68	27876.95
549.88	28128.85
550.08	27991.64
550.28	27856.47
550.48	27887.19
550.68	27774.55
550.88	27743.83
551.08	27467.36
551.279	27823.7
551.479	27655.77
551.679	27844.18
551.879	27596.38
552.079	27838.04
552.278	27223.65
552.478	27838.04
552.678	27346.53
552.878	27788.89
553.077	27623
553.277	27563.61
553.477	27831.9
553.676	27457.12
553.876	27457.12
554.076	27334.24
554.275	27573.85
554.475	27315.81
554.674	27473.5
554.874	27530.84
555.074	27305.57
555.273	27328.1
555.473	27340.38
555.672	27295.33
555.872	27416.16
556.071	27215.46
556.271	27436.64
556.47	27377.25
556.67	26936.93
556.869	26955.36
557.068	27215.46
557.268	27043.43
557.467	27115.11
557.667	26941.03
557.866	27201.12
558.065	27022.95
558.265	26748.52
558.464	26613.35
558.663	27184.74
558.863	26691.18
559.062	27209.31
559.261	26429.04
559.461	27119.2
559.66	26721.9
559.859	26443.37
560.058	26711.66
560.258	26480.24
560.457	26406.51
560.656	26402.41
560.855	26127.99
561.054	26408.56
561.253	26177.14
561.453	26304.11
561.652	26476.14
561.851	26545.77
562.05	26232.43
562.249	26009.2
562.448	26390.13
562.647	26375.79
562.846	25794.17
563.045	26236.53
563.244	25642.62
563.443	26265.2
563.642	25704.06
563.841	25884.28
564.04	25497.21
564.239	26041.97
564.438	25736.82
564.637	25607.8
564.836	25355.9
565.035	25343.61
565.234	25615.99
565.432	25319.04
565.631	25183.87
565.83	25446.01
566.029	25396.86
566.228	25073.28
566.427	25224.83
566.625	25071.23
566.824	24731.27
567.023	25036.42
567.222	24536.71
567.42	25273.98
567.619	25079.43
567.818	24643.21
568.016	24647.3
568.215	24858.24
568.414	24782.47
568.612	24753.8
568.811	24508.04
569.01	24290.96
569.208	23912.08
569.407	24475.27
569.605	24180.37
569.804	24172.18
570.002	24149.65
570.201	24178.32
570.4	23817.88
570.598	23946.9
570.797	23494.3
570.995	23885.46
571.193	23576.22
571.392	23905.94
571.59	23565.98
571.789	23772.82
571.987	23582.36
572.186	23539.35
572.384	23365.28
572.582	23617.18
572.781	23574.17
572.979	23027.36
573.177	23015.07
573.376	23359.13
573.574	22685.35
573.772	23357.08
573.971	22738.6
574.169	22722.21
574.367	22838.95
574.565	22867.62
574.763	22566.57
574.962	22914.72
575.16	22496.94
575.358	22449.83
575.556	22466.22
575.754	22888.1
575.952	22238.89
576.151	22406.83
576.349	22138.54
576.547	21749.43
576.745	22038.19
576.943	22210.22
577.141	21878.45
577.339	22015.66
577.537	21790.39
577.735	21644.98
577.933	21700.28
578.131	21704.37
578.329	21790.39
578.527	21456.57
578.725	21380.79
578.923	21522.1
579.121	21405.37
579.319	21411.51
579.516	21333.69
579.714	21110.46
579.912	21169.85
580.11	20969.15
580.308	21237.44
580.506	20702.92
580.704	20827.84
580.901	20815.55
581.099	20825.79
581.297	20903.62
581.495	20559.56
581.692	20823.75
581.89	20461.26
582.088	20448.97
582.285	20668.1
582.483	20573.89
582.681	20291.27
582.878	20702.92
583.076	20057.81
583.274	20395.72
583.471	20283.08
583.669	20131.53
583.866	19850.96
584.064	20281.03
584.262	19666.64
584.459	20068.05
584.657	19775.19
584.854	19912.4
585.052	19582.68
585.249	19803.86
585.447	19619.54
585.644	19334.87
585.841	19601.11
586.039	19711.7
586.236	19318.49
586.434	19179.23
586.631	19384.02
586.828	19164.89
587.026	19310.3
587.223	19175.13
587.42	19003.1
587.618	18953.95
587.815	18841.31
588.012	18869.98
588.21	18908.9
588.407	18931.42
588.604	18712.29
588.801	18587.36
588.999	18513.64
589.196	18413.29
589.393	18517.73
589.59	18456.29
589.787	18609.89
589.984	18394.86
590.182	17997.55
590.379	18179.82
590.576	18243.31
590.773	18036.46
590.97	17780.46
591.167	18136.81
591.364	18136.81
591.561	18028.27
591.758	17979.12
591.955	18003.69
592.152	18028.27
592.349	17712.88
592.546	17708.79
592.743	17774.32
592.94	17342.2
593.137	17391.35
593.334	17686.26
593.531	17309.43
593.727	17346.3
593.924	17239.8
594.121	17213.18
594.318	17118.97
594.515	16815.87
594.712	17217.27
594.908	16955.13
595.105	17094.4
595.302	16903.93
595.499	17078.01
595.696	16885.5
595.892	16586.5
596.089	17002.24
596.286	16731.9
596.482	16776.96
596.679	16463.62
596.876	16664.32
597.072	16568.07
597.269	16537.35
597.466	16152.33
597.662	16299.78
597.859	16289.54
598.055	16533.25
598.252	16238.34
598.448	16119.56
598.645	15963.92
598.841	16080.65
599.038	16111.37
599.234	15931.15
599.431	15691.54
599.627	15939.34
599.824	16199.43
600.02	15695.63
600.217	15847.18
600.413	15683.34
600.609	15494.93
600.806	15576.85
601.002	15587.09
601.198	15603.47
601.395	15394.58
601.591	15265.56
601.787	15273.75
601.984	15378.2
602.18	15449.88
602.376	15224.6
602.572	15157.02
602.769	15114.01
602.965	14999.32
603.161	15294.23
603.357	14984.99
603.553	15003.42
603.75	14749.47
603.946	14823.2
604.142	14829.34
604.338	14483.24
604.534	15003.42
604.73	14704.42
604.926	14622.5
605.122	14786.33
605.318	14460.71
605.514	14401.32
605.71	14268.2
605.906	14532.39
606.102	14386.98
606.298	14286.63
606.494	14262.05
606.69	14145.32
606.886	14436.13
607.082	13928.24
607.278	14214.95
607.474	14243.62
607.67	14067.5
607.866	13717.29
608.062	14006.06
608.257	13829.93
608.453	13948.72
608.649	14012.2
608.845	13922.09
609.041	13924.14
609.236	13926.19
609.432	13631.28
609.628	13526.83
609.824	13729.58
610.019	13760.3
610.215	13639.47
610.411	13801.26
610.606	13350.71
610.802	13614.9
610.998	13524.79
611.193	13485.87
611.389	13471.54
611.584	13444.91
611.78	13242.17
611.976	13494.07
612.171	13403.96
612.367	13338.42
612.562	13012.79
612.758	13150.01
612.953	13088.57
613.149	13051.7
613.344	13006.65
613.539	13256.5
613.735	12953.4
613.93	13211.45
614.126	13047.61
614.321	13092.66
614.517	12816.19
614.712	12797.76
614.907	12851
615.103	13002.55
615.298	13037.37
615.493	13008.7
615.688	12726.08
615.884	12967.74
616.079	12863.29
616.274	12877.63
616.47	12572.48
616.665	12703.55
616.86	12511.04
617.055	12595.01
617.25	12545.86
617.445	12646.21
617.641	12339.01
617.836	12443.46
618.031	12382.02
618.226	12642.11
618.421	12361.54
618.616	12404.55
618.811	12146.5
619.006	12484.42
619.201	12216.13
619.396	12048.2
619.591	12025.67
619.786	12504.9
619.981	11913.03
620.176	12132.17
620.371	11798.35
620.566	12070.73
620.761	11822.92
620.956	11872.07
621.151	11446.1
621.346	11683.66
621.541	11419.47
621.735	11712.33
621.93	11630.41
622.125	11579.22
622.32	11276.12
622.515	11401.04
622.709	11231.06
622.904	11169.62
623.099	11247.44
623.294	11222.87
623.488	10970.97
623.683	10794.84
623.878	10807.13
624.072	11040.6
624.267	10811.23
624.462	10919.77
624.656	10663.77
624.851	10684.25
625.046	10387.3
625.24	10456.93
625.435	10598.24
625.629	10401.63
625.824	10434.4
626.018	10288.99
626.213	10205.03
626.407	10205.03
626.602	10086.25
626.796	9883.5
626.991	10114.92
627.185	9973.61
627.38	9836.39
627.574	9953.13
627.768	9783.15
627.963	9813.87
628.157	9619.31
628.352	9914.22
628.546	9385.84
628.74	9680.75
628.935	9533.29
629.129	9430.9
629.323	9428.85
629.517	9158.52
629.712	9230.2
629.906	9189.24
630.1	9086.84
630.294	9037.69
630.489	9123.7
630.683	9123.7
630.877	8877.94
631.071	8968.06
631.265	8953.72
631.459	8767.35
631.653	8814.46
631.848	8978.29
632.042	8566.65
632.236	8822.65
632.43	8697.72
632.624	8714.11
632.818	8503.17
633.012	8443.78
633.206	8533.89
633.4	8257.41
633.594	8187.78
633.788	8234.88
633.982	8312.71
634.176	8386.43
634.369	8245.12
634.563	8148.87
634.757	8071.04
634.951	8107.91
635.145	8083.33
635.339	8048.52
635.533	7907.21
635.726	7989.13
635.92	7780.23
636.114	7747.47
636.308	7790.47
636.501	7755.66
636.695	7735.18
636.889	7677.83
637.083	7653.26
637.276	7546.76
637.47	7387.02
637.664	7649.16
637.857	7499.66
638.051	7272.34
638.244	7206.8
638.438	7417.74
638.632	7255.95
638.825	7307.15
639.019	7149.46
639.212	7149.46
639.406	7219.09
639.599	7061.4
639.793	6905.75
639.986	6952.85
640.18	7018.39
640.373	6985.62
640.567	6856.6
640.76	6959
640.954	6772.63
641.147	6805.4
641.34	6877.08
641.534	6850.46
641.727	6586.27
641.92	6758.3
642.114	6535.07
642.307	6715.29
642.5	6502.3
642.694	6551.45
642.887	6412.19
643.08	6543.26
643.273	6365.09
643.467	6209.44
643.66	6277.02
643.853	6285.22
644.046	6289.31
644.239	6258.59
644.432	6160.29
644.626	6068.13
644.819	6068.13
645.012	6100.9
645.205	6096.8
645.398	5961.64
645.591	6191.01
645.784	5978.02
645.977	5775.27
646.17	5703.59
646.363	6043.56
646.556	5832.61
646.749	5689.26
646.942	5808.04
647.135	5666.73
647.328	5752.74
647.521	5693.35
647.714	5605.29
647.907	5640.11
648.099	5693.35
648.292	5584.81
648.485	5566.38
648.678	5554.09
648.871	5554.09
649.064	5502.89
649.256	5447.6
649.449	5363.63
649.642	5414.83
649.835	5187.5
650.027	5316.53
650.22	5259.18
650.413	5199.79
650.605	5275.57
650.798	5056.43
650.991	4990.9
651.183	5216.18
651.376	5056.43
651.568	5109.68
651.761	4921.27
651.954	4915.12
652.146	5056.43
652.339	4945.84
652.531	4822.97
652.724	4939.7
652.916	4890.55
653.109	4884.41
653.301	4872.12
653.494	4646.84
653.686	4904.89
653.879	4851.64
654.071	4636.6
654.263	4628.41
654.456	4695.99
654.648	4757.43
654.84	4655.03
655.033	4751.29
655.225	4650.94
655.417	4587.45
655.61	4603.83
655.802	4626.36
655.994	4605.88
656.186	4448.19
656.379	4396.99
656.571	4429.76
656.763	4313.02
656.955	4325.31
657.148	4286.4
657.34	4532.15
657.532	4241.34
657.724	4216.77
657.916	4231.1
658.108	4284.35
658.3	4175.81
658.492	4188.1
658.684	4128.7
658.876	4118.47
659.068	4028.35
659.26	4114.37
659.452	4087.75
659.644	4026.31
659.836	4149.18
660.028	3987.4
660.22	4014.02
660.412	3995.59
660.604	4005.83
660.796	3856.33
660.988	3882.95
661.18	3706.82
661.372	3971.01
661.563	3850.18
661.755	3917.76
661.947	3698.63
662.139	3805.13
662.331	3831.75
662.522	3874.76
662.714	3692.49
662.906	3645.38
663.097	3749.83
663.289	3729.35
663.481	3733.45
663.673	3729.35
663.864	3530.7
664.056	3620.81
664.247	3520.46
664.439	3475.4
664.631	3487.69
664.822	3456.97
665.014	3463.12
665.205	3430.35
665.397	3436.49
665.588	3452.88
665.78	3491.79
665.971	3493.83
666.163	3364.81
666.354	3467.21
666.546	3350.48
666.737	3233.74
666.929	3342.28
667.12	3348.43
667.311	3289.04
667.503	3174.35
667.694	3270.61
667.885	3123.15
668.077	3178.45
668.268	3307.47
668.459	3284.94
668.651	3266.51
668.842	3200.98
669.033	3026.9
669.224	3180.5
669.416	3149.78
669.607	3110.86
669.798	3030.99
669.989	3137.49
670.18	3104.72
670.371	3090.38
670.563	2996.18
670.754	3000.27
670.945	3037.14
671.136	2914.26
671.327	2940.88
671.518	3012.56
671.709	2983.89
671.9	2985.94
672.091	2965.46
672.282	2934.74
672.473	2949.07
672.664	3020.75
672.855	2883.54
673.046	2793.43
673.237	2926.55
673.428	2879.44
673.619	2840.53
673.809	2762.71
674	2867.16
674.191	2807.77
674.382	2719.7
674.573	2799.57
674.764	2758.61
674.954	2682.84
675.145	2801.62
675.336	2715.61
675.527	2793.43
675.717	2719.7
675.908	2705.37
676.099	2562.01
676.289	2750.42
676.48	2607.06
676.671	2701.27
676.861	2660.31
677.052	2717.65
677.243	2711.51
677.433	2492.38
677.624	2742.23
677.814	2584.54
678.005	2643.93
678.195	2619.35
678.386	2516.95
678.576	2521.05
678.767	2555.86
678.957	2562.01
679.148	2592.73
679.338	2539.48
679.529	2521.05
679.719	2596.82
679.909	2605.02
680.1	2539.48
680.29	2482.14
680.481	2541.53
680.671	2578.39
680.861	2492.38
681.052	2691.03
681.242	2467.8
681.432	2430.94
681.622	2484.19
681.813	2394.08
682.003	2447.32
682.193	2455.51
682.383	2369.5
682.573	2512.86
682.764	2453.47
682.954	2504.67
683.144	2541.53
683.334	2508.76
683.524	2553.82
683.714	2564.06
683.904	2467.8
684.094	2465.75
684.284	2267.1
684.474	2394.08
684.664	2447.32
684.854	2408.41
685.044	2338.78
685.234	2373.6
685.424	2459.61
685.614	2326.49
685.804	2512.86
685.994	2295.77
686.184	2275.29
686.374	2254.81
686.564	2340.83
686.753	2283.49
686.943	2201.57
687.133	2215.9
687.323	2250.72
687.513	2254.81
687.702	2168.8
687.892	2052.06
688.082	2256.86
688.272	2254.81
688.461	2179.04
688.651	2291.68
688.841	2150.37
689.03	2172.89
689.22	2230.24
689.41	2217.95
689.599	2238.43
689.789	2148.32
689.979	2185.18
690.168	2174.94
690.358	2025.44
690.547	2148.32
690.737	2121.7
690.926	2179.04
691.116	2160.61
691.305	2152.42
691.495	2070.5
691.684	2037.73
691.874	2117.6
692.063	2119.65
692.252	2011.11
692.442	1980.39
692.631	2070.5
692.82	1964
693.01	2017.25
693.199	2013.15
693.388	1964
693.578	1914.85
693.767	1970.15
693.956	1943.52
694.146	1882.08
694.335	1982.43
694.524	1890.28
694.713	2105.31
694.902	1925.09
695.092	1937.38
695.281	1992.67
695.47	1851.36
695.659	1873.89
695.848	1951.71
696.037	1886.18
696.226	1890.28
696.415	1896.42
696.604	1851.36
696.793	1812.45
696.982	1849.32
697.171	1898.47
697.36	1834.98
697.549	1863.65
697.738	1746.92
697.927	1890.28
698.116	1759.21
698.305	1834.98
698.494	1748.97
698.683	1726.44
698.872	1849.32
699.061	1796.07
699.25	1873.89
699.438	1804.26
699.627	1785.83
699.816	1853.41
700.005	1765.35
700.193	1753.06
700.382	1900.51
700.571	1720.29
700.76	1783.78
700.948	1787.88
701.137	1775.59
701.326	1753.06
701.514	1767.4
701.703	1783.78
701.892	1779.68
702.08	1871.84
702.269	1818.6
702.457	1789.92
702.646	1775.59
702.834	1751.01
703.023	1730.53
703.212	1841.12
703.4	1800.16
703.589	1767.4
703.777	1753.06
703.965	1722.34
704.154	1767.4
704.342	1673.19
704.531	1685.48
704.719	1720.29
704.907	1742.82
705.096	1628.14
705.284	1796.07
705.472	1705.96
705.661	1714.15
705.849	1791.97
706.037	1791.97
706.226	1753.06
706.414	1779.68
706.602	1693.67
706.79	1781.73
706.979	1873.89
707.167	1771.49
707.355	1712.1
707.543	1742.82
707.731	1652.71
707.919	1761.25
708.107	1777.64
708.296	1687.53
708.484	1759.21
708.672	1775.59
708.86	1816.55
709.048	1751.01
709.236	1742.82
709.424	1701.86
709.612	1775.59
709.8	1785.83
709.988	1648.61
710.176	1701.86
710.364	1832.93
710.551	1783.78
710.739	1687.53
710.927	1644.52
711.115	1720.29
711.303	1722.34
711.491	1802.21
711.679	1685.48
711.866	1718.25
712.054	1712.1
712.242	1822.69
712.43	1677.29
712.617	1718.25
712.805	1806.31
712.993	1718.25
713.181	1724.39
713.368	1816.55
713.556	1789.92
713.744	1726.44
713.931	1751.01
714.119	1624.04
714.306	1710.05
714.494	1671.14
714.682	1808.36
714.869	1728.49
715.057	1775.59
715.244	1777.64
715.432	1910.75
715.619	1732.58
715.807	1794.02
715.994	1669.09
716.182	1810.4
716.369	1677.29
716.556	1775.59
716.744	1753.06
716.931	1751.01
717.119	1734.63
717.306	1689.57
717.493	1753.06
717.681	1808.36
717.868	1742.82
718.055	1759.21
718.242	1775.59
718.43	1748.97
718.617	1695.72
718.804	1779.68
718.991	1808.36
719.179	1843.17
719.366	1742.82
719.553	1869.8
719.74	1824.74
719.927	1726.44
720.114	1847.27
720.301	1716.2
720.488	1744.87
720.676	1767.4
720.863	1744.87
721.05	1849.32
721.237	1767.4
721.424	1767.4
721.611	1751.01
721.798	1783.78
721.985	1710.05
722.172	1830.88
722.358	1828.84
722.545	1816.55
722.732	1677.29
722.919	1837.03
723.106	1736.68
723.293	1718.25
723.48	1867.75
723.667	1744.87
723.853	1890.28
724.04	1882.08
724.227	1904.61
724.414	1791.97
724.6	1736.68
724.787	1763.3
724.974	1720.29
725.161	1675.24
725.347	1773.54
725.534	1720.29
725.72	1783.78
725.907	1853.41
726.094	1841.12
726.28	1705.96
726.467	1783.78
726.653	1773.54
726.84	1832.93
727.027	1841.12
727.213	1753.06
727.4	1849.32
727.586	1650.66
727.773	1693.67
727.959	1816.55
728.145	1746.92
728.332	1834.98
728.518	1763.3
728.705	1763.3
728.891	1773.54
729.077	1787.88
729.264	1693.67
729.45	1794.02
729.636	1894.37
729.823	1732.58
730.009	1816.55
730.195	1722.34
730.382	1873.89
730.568	1748.97
730.754	1736.68
730.94	1746.92
731.126	1800.16
731.313	1861.6
731.499	1857.51
731.685	1923.04
731.871	1755.11
732.057	1759.21
732.243	1759.21
732.429	1783.78
732.615	1918.95
732.801	1867.75
732.987	1865.7
733.173	1828.84
733.359	1861.6
733.545	1767.4
733.731	1705.96
733.917	1791.97
734.103	1918.95
734.289	1802.21
734.475	1740.77
734.661	1832.93
734.847	1787.88
735.033	1720.29
735.219	1773.54
735.404	1744.87
735.59	1906.66
735.776	1705.96
735.962	1748.97
736.148	1873.89
736.333	1775.59
736.519	1777.64
736.705	1705.96
736.89	1845.22
737.076	1779.68
737.262	1677.29
737.447	1834.98
737.633	1791.97
737.819	1669.09
738.004	1728.49
738.19	1701.86
738.375	1783.78
738.561	1865.7
738.747	1769.45
738.932	1804.26
739.118	1765.35
739.303	1656.81
739.489	1748.97
739.674	1687.53
739.859	1751.01
740.045	1720.29
740.23	1697.77
740.416	1636.33
740.601	1615.85
740.786	1679.33
740.972	1697.77
741.157	1548.26
741.342	1624.04
741.528	1669.09
741.713	1628.14
741.898	1632.23
742.084	1572.84
742.269	1595.37
742.454	1697.77
742.639	1619.94
742.824	1699.81
743.01	1644.52
743.195	1630.18
743.38	1595.37
743.565	1562.6
743.75	1574.89
743.935	1572.84
744.12	1738.73
744.305	1613.8
744.49	1574.89
744.675	1533.93
744.86	1468.39
745.045	1607.66
745.23	1515.5
745.415	1474.54
745.6	1558.5
745.785	1501.16
745.97	1501.16
746.155	1603.56
746.34	1566.7
746.525	1560.55
746.71	1562.6
746.895	1452.01
747.079	1488.87
747.264	1466.35
747.449	1521.64
747.634	1562.6
747.819	1435.63
748.003	1464.3
748.188	1474.54
748.373	1390.57
748.557	1439.72
748.742	1298.41
748.927	1374.19
749.111	1402.86
749.296	1376.24
749.481	1415.15
749.665	1382.38
749.85	1370.09
750.034	1415.15
750.219	1294.32
750.404	1398.76
750.588	1333.23
750.773	1304.56
750.957	1318.89
751.141	1341.42
751.326	1366
751.51	1247.21
751.695	1304.56
751.879	1320.94
752.064	1243.12
752.248	1228.78
752.432	1259.5
752.617	1271.79
752.801	1161.2
752.985	1249.26
753.17	1316.84
753.354	1196.01
753.538	1234.93
753.722	1210.35
753.907	1218.54
754.091	1167.34
754.275	1161.2
754.459	1144.81
754.643	1189.87
754.828	1144.81
755.012	1132.53
755.196	1071.09
755.38	1097.71
755.564	1017.84
755.748	1021.94
755.932	1122.29
756.116	1087.47
756.3	1003.5
756.484	1124.33
756.668	1085.42
756.852	1081.33
757.036	1034.22
757.22	1066.99
757.404	1042.42
757.588	1030.13
757.772	1052.66
757.956	1060.85
758.14	1087.47
758.323	980.98
758.507	972.79
758.691	1056.75
758.875	907.25
759.059	1054.7
759.242	1073.14
759.426	966.64
759.61	923.63
759.794	890.87
759.977	983.03
760.161	1095.66
760.345	997.36
760.528	989.17
760.712	864.24
760.895	1007.6
761.079	884.72
761.263	886.77
761.446	835.57
761.63	884.72
761.813	944.11
761.997	915.44
762.18	821.24
762.364	849.91
762.547	931.83
762.731	878.58
762.914	864.24
763.098	866.29
763.281	854
763.464	966.64
763.648	876.53
763.831	929.78
764.015	882.67
764.198	786.42
764.381	841.72
764.564	802.8
764.748	854
764.931	878.58
765.114	784.37
765.297	833.52
765.481	817.14
765.664	901.11
765.847	745.46
766.03	911.35
766.213	784.37
766.397	753.65
766.58	878.58
766.763	903.15
766.946	753.65
767.129	767.99
767.312	827.38
767.495	735.22
767.678	735.22
767.861	749.56
768.044	829.43
768.227	759.8
768.41	753.65
768.593	776.18
768.776	804.85
768.959	770.04
769.142	833.52
769.324	841.72
769.507	823.28
769.69	825.33
769.873	655.35
770.056	804.85
770.239	688.12
770.421	712.69
770.604	751.6
770.787	720.89
770.97	727.03
771.152	688.12
771.335	733.17
771.518	712.69
771.7	675.83
771.883	765.94
772.066	698.36
772.248	653.3
772.431	636.92
772.613	778.23
772.796	649.21
772.978	794.61
773.161	727.03
773.343	657.4
773.526	694.26
773.708	667.64
773.891	661.49
774.073	677.88
774.256	630.77
774.438	671.73
774.621	671.73
774.803	694.26
774.985	591.86
775.168	657.4
775.35	604.15
775.532	657.4
775.715	600.05
775.897	608.25
776.079	583.67
776.261	618.49
776.444	593.91
776.626	677.88
776.808	585.72
776.99	575.48
777.173	532.47
777.355	638.97
777.537	620.53
777.719	489.46
777.901	587.77
778.083	526.33
778.265	550.9
778.447	614.39
778.629	587.77
778.811	595.96
778.993	595.96
779.175	548.86
779.357	477.18
779.539	497.66
779.721	454.65
779.903	598.01
780.085	471.03
780.267	536.57
780.449	491.51
780.631	522.23
780.812	565.24
780.994	555
781.176	503.8
781.358	489.46
781.54	503.8
781.721	481.27
781.903	491.51
782.085	493.56
782.267	501.75
782.448	399.35
782.63	493.56
782.812	475.13
782.993	546.81
783.175	456.7
783.357	413.69
783.538	430.07
783.72	370.68
783.901	440.31
784.083	460.79
784.264	425.98
784.446	387.07
784.627	358.39
784.809	425.98
784.99	436.22
785.172	403.45
785.353	395.26
785.535	327.68
785.716	456.7
785.897	442.36
786.079	395.26
786.26	464.89
786.441	389.11
786.623	286.72
786.804	385.02
786.985	489.46
787.167	385.02
787.348	385.02
787.529	407.55
787.71	354.3
787.891	382.97
788.073	362.49
788.254	319.48
788.435	448.51
788.616	452.6
788.797	280.57
788.978	303.1
789.159	264.19
789.34	389.11
789.522	374.78
789.703	358.39
789.884	311.29
790.065	301.05
790.246	327.68
790.427	366.59
790.607	399.35
790.788	313.34
790.969	251.9
791.15	413.69
791.331	266.24
791.512	196.61
791.693	333.82
791.874	301.05
792.054	401.4
792.235	321.53
792.416	284.67
792.597	239.61
792.778	380.92
792.958	270.33
793.139	321.53
793.32	382.97
793.5	286.72
793.681	360.44
793.862	319.48
794.042	237.56
794.223	202.75
794.404	274.43
794.584	202.75
794.765	233.47
794.945	219.13
795.126	296.96
795.306	227.32
795.487	235.52
795.667	294.91
795.848	292.86
796.028	260.09
796.209	251.9
796.389	229.37
796.57	241.66
796.75	233.47
796.93	212.99
797.111	202.75
797.291	235.52
797.471	260.09
797.652	167.93
797.832	184.32
798.012	225.28
798.192	251.9
798.373	247.8
798.553	180.22
798.733	202.75
798.913	157.69
799.093	262.14
799.274	282.62
799.454	221.18
799.634	227.32
799.814	210.94
799.994	229.37
800.174	215.04
800.354	243.71
800.534	251.9
800.714	223.23
800.894	229.37
801.074	290.81
801.254	245.76
801.434	180.22
801.614	198.65
801.794	163.84
801.974	833.52
802.154	196.61
802.334	245.76
802.514	94.21
802.693	116.73
802.873	223.23
803.053	180.22
803.233	264.19
803.413	227.32
803.592	169.98
803.772	143.36
803.952	245.76
804.131	202.75
804.311	276.48
804.491	188.41
804.67	169.98
804.85	129.02
805.03	157.69
805.209	235.52
805.389	135.17
805.568	192.51
805.748	120.83
805.928	120.83
806.107	161.79
806.287	188.41
806.466	219.13
806.646	200.7
806.825	231.42
807.004	114.69
807.184	180.22
807.363	212.99
807.543	174.08
807.722	96.25
807.901	196.61
808.081	182.27
808.26	104.45
808.439	155.65
808.619	210.94
808.798	131.07
808.977	169.98
809.156	229.37
809.336	79.87
809.515	120.83
809.694	98.3
809.873	159.74
810.052	215.04
810.231	153.6
810.411	151.55
810.59	133.12
810.769	153.6
810.948	243.71
811.127	112.64
811.306	147.45
811.485	122.88
811.664	210.94
811.843	92.16
812.022	92.16
812.201	169.98
812.38	145.41
812.559	172.03
812.737	165.89
812.916	114.69
813.095	108.54
813.274	161.79
813.453	131.07
813.632	122.88
813.811	202.75
813.989	40.96
814.168	67.58
814.347	114.69
814.526	100.35
814.704	145.41
814.883	147.45
815.062	81.92
815.24	155.65
815.419	122.88
815.598	149.5
815.776	96.25
815.955	137.21
816.133	112.64
816.312	122.88
816.49	120.83
816.669	75.77
816.847	112.64
817.026	81.92
817.204	79.87
817.383	153.6
817.561	131.07
817.74	100.35
817.918	122.88
818.097	47.1
818.275	161.79
818.453	169.98
818.632	212.99
818.81	38.91
818.988	71.68
819.167	96.25
819.345	135.17
819.523	73.73
819.701	110.59
819.879	120.83
820.058	71.68
820.236	104.45
820.414	143.36
820.592	145.41
820.77	55.3
820.948	112.64
821.127	79.87
821.305	51.2
821.483	135.17
821.661	83.97
821.839	106.49
822.017	14.34
822.195	106.49
822.373	194.56
822.551	79.87
822.729	96.25
822.907	124.93
823.085	129.02
823.262	98.3
823.44	61.44
823.618	75.77
823.796	96.25
823.974	122.88
824.152	79.87
824.329	22.53
824.507	88.06
824.685	186.37
824.863	71.68
825.04	71.68
825.218	212.99
825.396	67.58
825.574	98.3
825.751	61.44
825.929	100.35
826.107	-18.43
826.284	122.88
826.462	73.73
826.639	24.58
826.817	92.16
826.994	129.02
827.172	38.91
827.349	122.88
827.527	43.01
827.704	67.58
827.882	65.54
828.059	63.49
828.237	98.3
828.414	108.54
828.591	88.06
828.769	120.83
828.946	-34.82
829.124	131.07
829.301	14.34
829.478	124.93
829.655	81.92
829.833	94.21
830.01	53.25
830.187	145.41
830.364	55.3
830.542	129.02
830.719	59.39
830.896	161.79
831.073	98.3
831.25	57.34
831.427	104.45
831.604	71.68
831.782	69.63
831.959	51.2
832.136	65.54
832.313	67.58
832.49	10.24
832.667	63.49
832.844	22.53
833.021	114.69
833.198	83.97
833.374	63.49
833.551	79.87
833.728	153.6
833.905	63.49
834.082	-22.53
834.259	36.86
834.436	81.92
834.612	28.67
834.789	116.73
834.966	-14.34
835.143	96.25
835.319	34.82
835.496	-18.43
835.673	96.25
835.85	79.87
836.026	47.1
836.203	104.45
836.38	47.1
836.556	24.58
836.733	2.05
836.909	129.02
837.086	63.49
837.262	14.34
837.439	110.59
837.616	92.16
837.792	-4.1
837.968	75.77
838.145	10.24
838.321	49.15
838.498	30.72
838.674	14.34
838.851	116.73
839.027	10.24
839.203	83.97
839.38	69.63
839.556	20.48
839.732	55.3
839.909	63.49
840.085	38.91
840.261	18.43
840.437	71.68
840.614	124.93
840.79	88.06
840.966	83.97
841.142	124.93
841.318	2.05
841.494	40.96
841.671	92.16
841.847	22.53
842.023	49.15
842.199	88.06
842.375	-2.05
842.551	112.64
842.727	73.73
842.903	55.3
843.079	104.45
843.255	67.58
843.431	38.91
843.607	59.39
843.783	22.53
843.959	14.34
844.134	55.3
844.31	63.49
844.486	30.72
844.662	-14.34
844.838	12.29
845.013	22.53
845.189	151.55
845.365	24.58
845.541	63.49
845.716	16.38
845.892	79.87
846.068	10.24
846.244	-22.53
846.419	32.77
846.595	14.34
846.77	-10.24
846.946	8.19
847.122	131.07
847.297	14.34
847.473	57.34
847.648	2.05
847.824	30.72
847.999	-49.15
848.175	81.92
848.35	30.72
848.526	114.69
848.701	73.73
848.876	51.2
849.052	38.91
849.227	26.62
849.403	38.91
849.578	12.29
849.753	100.35
849.929	73.73
850.104	-75.77
850.279	30.72
850.454	-2.05
850.63	53.25
850.805	16.38
850.98	131.07
851.155	79.87
851.33	55.3
851.505	-61.44
851.681	14.34
851.856	6.14
852.031	38.91
852.206	77.82
852.381	-20.48
852.556	71.68
852.731	38.91
852.906	22.53
853.081	-16.38
853.256	67.58
853.431	49.15
853.606	-10.24
853.781	79.87
853.956	47.1
854.131	43.01
854.305	57.34
854.48	-20.48
854.655	112.64
854.83	90.11
855.005	57.34
855.18	65.54
855.354	71.68
855.529	71.68
855.704	43.01
855.879	100.35
856.053	-10.24
856.228	22.53
856.403	51.2
856.577	57.34
856.752	57.34
856.926	8.19
857.101	26.62
857.276	53.25
857.45	57.34
857.625	100.35
857.799	26.62
857.974	71.68
858.148	81.92
858.323	45.06
858.497	6.14
858.672	36.86
858.846	-14.34
859.02	38.91
859.195	-2.05
859.369	-2.05
859.543	8.19
859.718	38.91
859.892	34.82
860.066	24.58
860.241	-18.43
860.415	-2.05
860.589	-71.68
860.763	-24.58
860.938	14.34
861.112	51.2
861.286	34.82
861.46	47.1
861.634	24.58
861.808	73.73
861.982	-6.14
862.157	34.82
862.331	-34.82
862.505	-55.3
862.679	40.96
862.853	14.34
863.027	16.38
863.201	75.77
863.375	26.62
863.549	-49.15
863.722	65.54
863.896	61.44
864.07	-10.24
864.244	-16.38
864.418	22.53
864.592	49.15
864.766	4.1
864.939	32.77
865.113	88.06
865.287	34.82
865.461	-20.48
865.634	94.21
865.808	-32.77
865.982	24.58
866.156	65.54
866.329	2.05
866.503	77.82
866.676	16.38
866.85	18.43
867.024	-34.82
867.197	22.53
867.371	30.72
867.544	8.19
867.718	106.49
867.891	20.48
868.065	65.54
868.238	-14.34
868.412	67.58
868.585	-20.48
868.759	30.72
868.932	-2.05
869.105	4.1
869.279	8.19
869.452	-26.62
869.625	-18.43
869.799	73.73
869.972	14.34
870.145	32.77
870.319	77.82
870.492	47.1
870.665	14.34
870.838	34.82
871.011	0
871.185	18.43
871.358	59.39
871.531	-30.72
871.704	-14.34
871.877	-2.05
872.05	-22.53
872.223	6.14
872.396	-16.38
872.569	34.82
872.742	-75.77
872.915	79.87
873.088	6.14
873.261	-16.38
873.434	-10.24
873.607	40.96
873.78	38.91
873.953	-26.62
874.126	14.34
874.299	22.53
874.471	12.29
874.644	40.96
874.817	51.2
874.99	96.25
875.163	45.06
875.335	47.1
875.508	63.49
875.681	14.34
875.853	-10.24
876.026	30.72
876.199	51.2
876.371	20.48
876.544	-55.3
876.717	79.87
876.889	-14.34
877.062	47.1
877.234	6.14
877.407	34.82
877.579	-2.05
877.752	2.05
877.924	22.53
878.097	94.21
878.269	-18.43
878.442	71.68
878.614	-88.06
878.786	-8.19
878.959	-45.06
879.131	81.92
879.303	-14.34
879.476	-43.01
879.648	43.01
879.82	73.73
879.993	-14.34
880.165	49.15
880.337	-22.53
880.509	-10.24
880.681	10.24
880.854	-51.2
881.026	100.35
881.198	67.58
881.37	-22.53
881.542	8.19
881.714	38.91
881.886	30.72
882.058	30.72
882.23	-6.14
882.402	14.34
882.574	59.39
882.746	-40.96
882.918	57.34
883.09	88.06
883.262	14.34
883.434	-18.43
883.606	-18.43
883.778	61.44
883.95	45.06
884.122	-36.86
884.293	57.34
884.465	24.58
884.637	47.1
884.809	-59.39
884.98	49.15
885.152	-18.43
885.324	65.54
885.496	-20.48
885.667	6.14
885.839	106.49
886.011	75.77
886.182	10.24
886.354	40.96
886.525	47.1
886.697	4.1
886.869	-4.1
887.04	22.53
887.212	43.01
887.383	51.2
887.555	0
887.726	6.14
887.897	47.1
888.069	79.87
888.24	6.14
888.412	-40.96
888.583	14.34
888.754	-14.34
888.926	79.87
889.097	32.77
889.268	-59.39
889.44	-22.53
889.611	10.24
889.782	-30.72
889.953	-67.58
890.125	47.1
890.296	24.58
890.467	77.82
890.638	-73.73
890.809	0
890.98	-75.77
891.151	90.11
891.323	-18.43
891.494	38.91
891.665	-18.43
891.836	-55.3
892.007	22.53
892.178	79.87
892.349	14.34
892.52	-4.1
892.691	30.72
892.862	2.05
893.032	-38.91
893.203	-10.24
893.374	-18.43
893.545	102.4
893.716	-26.62
893.887	26.62
894.057	28.67
894.228	24.58
894.399	10.24
894.57	43.01
894.74	10.24
894.911	55.3
895.082	-65.53
895.253	-14.34
895.423	24.58
895.594	57.34
895.764	14.34
895.935	-43.01
896.106	-6.14
896.276	-14.34
896.447	16.38
896.617	43.01
896.788	-34.82
896.958	26.62
897.129	12.29
897.299	32.77
897.47	16.38
897.64	59.39
897.81	34.82
897.981	49.15
898.151	32.77
898.322	32.77
898.492	6.14
898.662	-2.05
898.832	24.58
899.003	-43.01
899.173	38.91
899.343	22.53
899.513	-24.58
