Data from USB4F104151__285__14-46-25-414.txt Node

Date: Thu Mar 13 14:46:25 EDT 2025
User: louis
Spectrometer: USB4F10415
Trigger mode: 4
Integration Time (sec): 2.000000E-2
Scans to average: 1
Electric dark correction enabled: true
Nonlinearity correction enabled: false
Boxcar width: 0
XAxis mode: Wavelengths
Number of Pixels in Spectrum: 3648
>>>>>Begin Spectral Data<<<<<
178.204	-59.22
178.424	-59.22
178.644	-59.22
178.864	-188.24
179.084	-141.14
179.304	-22.36
179.524	-18.26
179.744	12.46
179.964	63.66
180.184	30.89
180.404	39.08
180.624	-44.88
180.844	6.31
181.064	-40.79
181.283	34.99
181.503	-18.26
181.723	-42.84
181.943	39.08
182.163	127.14
182.383	-24.4
182.602	-10.07
182.822	69.8
183.042	51.37
183.262	59.56
183.482	32.94
183.701	-96.08
183.921	16.55
184.141	-16.21
184.361	39.08
184.58	49.32
184.8	57.51
185.02	-12.12
185.239	80.04
185.459	-8.02
185.679	51.37
185.898	-8.02
186.118	-1.88
186.338	28.84
186.557	71.85
186.777	-10.07
186.997	6.31
187.216	49.32
187.436	67.75
187.655	59.56
187.875	-40.79
188.095	-24.4
188.314	55.47
188.534	75.95
188.753	-18.26
188.973	-20.31
189.192	114.86
189.412	-48.98
189.631	-8.02
189.851	-1.88
190.07	135.34
190.29	37.03
190.509	30.89
190.729	26.79
190.948	6.31
191.168	49.32
191.387	102.57
191.607	-51.03
191.826	55.47
192.045	-18.26
192.265	-1.88
192.484	104.62
192.704	12.46
192.923	-79.7
193.142	96.43
193.362	10.41
193.581	108.71
193.8	30.89
194.02	75.95
194.239	71.85
194.458	39.08
194.678	0.17
194.897	18.6
195.116	28.84
195.335	30.89
195.555	80.04
195.774	-65.36
195.993	63.66
196.212	-18.26
196.432	32.94
196.651	39.08
196.87	24.75
197.089	30.89
197.308	14.51
197.528	80.04
197.747	-42.84
197.966	-8.02
198.185	80.04
198.404	-5.97
198.623	30.89
198.842	10.41
199.062	-1.88
199.281	8.36
199.5	-24.4
199.719	53.42
199.938	47.27
200.157	-8.02
200.376	88.23
200.595	-22.36
200.814	96.43
201.033	-22.36
201.252	73.9
201.471	47.27
201.69	84.14
201.909	6.31
202.128	49.32
202.347	43.18
202.566	0.17
202.785	-10.07
203.004	-3.93
203.223	98.47
203.442	-34.64
203.661	14.51
203.879	20.65
204.098	73.9
204.317	-16.21
204.536	39.08
204.755	53.42
204.974	-8.02
205.193	-30.55
205.411	137.38
205.63	-16.21
205.849	0.17
206.068	-22.36
206.287	43.18
206.505	-8.02
206.724	-69.46
206.943	18.6
207.162	6.31
207.381	71.85
207.599	37.03
207.818	34.99
208.037	32.94
208.255	-10.07
208.474	88.23
208.693	20.65
208.911	-51.03
209.13	71.85
209.349	10.41
209.567	73.9
209.786	57.51
210.005	73.9
210.223	-5.97
210.442	-20.31
210.661	6.31
210.879	-26.45
211.098	32.94
211.316	-1.88
211.535	6.31
211.753	-42.84
211.972	86.19
212.191	39.08
212.409	14.51
212.628	39.08
212.846	14.51
213.065	41.13
213.283	45.23
213.502	18.6
213.72	26.79
213.938	18.6
214.157	-8.02
214.375	22.7
214.594	-38.74
214.812	41.13
215.031	47.27
215.249	-24.4
215.467	6.31
215.686	14.51
215.904	59.56
216.122	14.51
216.341	22.7
216.559	6.31
216.778	39.08
216.996	86.19
217.214	63.66
217.432	-3.93
217.651	-30.55
217.869	92.33
218.087	22.7
218.306	-42.84
218.524	4.27
218.742	-65.36
218.96	80.04
219.179	-24.4
219.397	49.32
219.615	37.03
219.833	63.66
220.051	63.66
220.27	71.85
220.488	59.56
220.706	49.32
220.924	2.22
221.142	-34.64
221.36	51.37
221.578	39.08
221.796	100.52
222.015	-1.88
222.233	-18.26
222.451	55.47
222.669	30.89
222.887	57.51
223.105	34.99
223.323	-8.02
223.541	-5.97
223.759	28.84
223.977	-12.12
224.195	-38.74
224.413	55.47
224.631	-22.36
224.849	47.27
225.067	-8.02
225.285	-14.17
225.503	16.55
225.721	14.51
225.939	-10.07
226.157	-18.26
226.375	16.55
226.592	-10.07
226.81	22.7
227.028	0.17
227.246	41.13
227.464	-55.12
227.682	-3.93
227.9	34.99
228.117	65.71
228.335	-63.32
228.553	39.08
228.771	30.89
228.989	-8.02
229.206	14.51
229.424	14.51
229.642	16.55
229.86	8.36
230.077	82.09
230.295	104.62
230.513	22.7
230.731	10.41
230.948	73.9
231.166	71.85
231.384	-24.4
231.601	6.31
231.819	30.89
232.037	-36.69
232.254	-63.32
232.472	39.08
232.689	-10.07
232.907	127.14
233.125	-14.17
233.342	12.46
233.56	71.85
233.777	-30.55
233.995	57.51
234.213	61.61
234.43	16.55
234.648	26.79
234.865	88.23
235.083	51.37
235.3	-48.98
235.518	32.94
235.735	71.85
235.953	49.32
236.17	-32.6
236.388	10.41
236.605	-10.07
236.822	-22.36
237.04	73.9
237.257	10.41
237.475	30.89
237.692	59.56
237.909	22.7
238.127	30.89
238.344	57.51
238.562	22.7
238.779	24.75
238.996	22.7
239.214	34.99
239.431	49.32
239.648	2.22
239.865	39.08
240.083	12.46
240.3	57.51
240.517	-34.64
240.735	88.23
240.952	6.31
241.169	121
241.386	34.99
241.603	30.89
241.821	-24.4
242.038	57.51
242.255	34.99
242.472	0.17
242.689	55.47
242.907	61.61
243.124	-40.79
243.341	-1.88
243.558	24.75
243.775	47.27
243.992	-34.64
244.209	41.13
244.426	86.19
244.643	-51.03
244.86	-1.88
245.078	8.36
245.295	65.71
245.512	6.31
245.729	24.75
245.946	43.18
246.163	24.75
246.38	14.51
246.597	-42.84
246.814	59.56
247.031	59.56
247.248	55.47
247.464	24.75
247.681	-3.93
247.898	88.23
248.115	32.94
248.332	26.79
248.549	30.89
248.766	41.13
248.983	73.9
249.2	39.08
249.417	80.04
249.633	22.7
249.85	22.7
250.067	-59.22
250.284	45.23
250.501	80.04
250.717	-26.45
250.934	86.19
251.151	16.55
251.368	-46.93
251.585	112.81
251.801	10.41
252.018	-10.07
252.235	73.9
252.451	-8.02
252.668	51.37
252.885	30.89
253.102	34.99
253.318	2.22
253.535	-1.88
253.752	-8.02
253.968	26.79
254.185	39.08
254.401	41.13
254.618	10.41
254.835	-51.03
255.051	39.08
255.268	24.75
255.484	32.94
255.701	-26.45
255.917	112.81
256.134	20.65
256.351	137.38
256.567	59.56
256.784	-5.97
257	28.84
257.217	139.43
257.433	53.42
257.65	-8.02
257.866	139.43
258.082	-18.26
258.299	10.41
258.515	8.36
258.732	71.85
258.948	0.17
259.165	-22.36
259.381	-40.79
259.597	-24.4
259.814	8.36
260.03	-26.45
260.246	37.03
260.463	18.6
260.679	-16.21
260.895	-24.4
261.112	-14.17
261.328	43.18
261.544	28.84
261.761	75.95
261.977	55.47
262.193	-10.07
262.409	-1.88
262.626	2.22
262.842	63.66
263.058	-34.64
263.274	43.18
263.49	20.65
263.707	-38.74
263.923	24.75
264.139	-61.27
264.355	30.89
264.571	59.56
264.787	57.51
265.004	4.27
265.22	-34.64
265.436	2.22
265.652	-26.45
265.868	-8.02
266.084	88.23
266.3	16.55
266.516	-34.64
266.732	22.7
266.948	51.37
267.164	84.14
267.38	-18.26
267.596	14.51
267.812	114.86
268.028	84.14
268.244	-5.97
268.46	22.7
268.676	51.37
268.892	75.95
269.108	22.7
269.324	65.71
269.54	75.95
269.756	67.75
269.972	-34.64
270.188	16.55
270.403	34.99
270.619	59.56
270.835	16.55
271.051	53.42
271.267	-5.97
271.483	45.23
271.698	14.51
271.914	16.55
272.13	67.75
272.346	28.84
272.562	30.89
272.777	-8.02
272.993	41.13
273.209	28.84
273.425	41.13
273.64	6.31
273.856	18.6
274.072	73.9
274.287	-42.84
274.503	41.13
274.719	45.23
274.934	6.31
275.15	73.9
275.366	16.55
275.581	-26.45
275.797	45.23
276.012	51.37
276.228	14.51
276.444	-59.22
276.659	2.22
276.875	12.46
277.09	47.27
277.306	-14.17
277.521	2.22
277.737	-34.64
277.952	39.08
278.168	63.66
278.383	-75.6
278.599	80.04
278.814	43.18
279.03	22.7
279.245	90.28
279.461	0.17
279.676	30.89
279.892	34.99
280.107	47.27
280.322	22.7
280.538	-40.79
280.753	32.94
280.969	-71.51
281.184	2.22
281.399	90.28
281.615	-14.17
281.83	22.7
282.045	51.37
282.26	-20.31
282.476	-18.26
282.691	30.89
282.906	10.41
283.122	92.33
283.337	-26.45
283.552	32.94
283.767	0.17
283.983	63.66
284.198	-12.12
284.413	22.7
284.628	-55.12
284.843	71.85
285.058	28.84
285.274	6.31
285.489	-32.6
285.704	51.37
285.919	-16.21
286.134	-10.07
286.349	57.51
286.564	-67.41
286.779	39.08
286.995	30.89
287.21	-59.22
287.425	37.03
287.64	-36.69
287.855	22.7
288.07	-30.55
288.285	153.77
288.5	43.18
288.715	57.51
288.93	51.37
289.145	-38.74
289.36	90.28
289.575	6.31
289.79	41.13
290.004	-14.17
290.219	30.89
290.434	0.17
290.649	20.65
290.864	114.86
291.079	-5.97
291.294	90.28
291.509	16.55
291.724	28.84
291.938	2.22
292.153	0.17
292.368	-1.88
292.583	26.79
292.798	90.28
293.012	55.47
293.227	-8.02
293.442	-1.88
293.657	34.99
293.871	178.34
294.086	12.46
294.301	45.23
294.516	-1.88
294.73	39.08
294.945	14.51
295.16	-5.97
295.374	41.13
295.589	65.71
295.804	18.6
296.018	-46.93
296.233	12.46
296.447	-24.4
296.662	28.84
296.877	20.65
297.091	32.94
297.306	16.55
297.52	-1.88
297.735	6.31
297.949	4.27
298.164	-16.21
298.378	34.99
298.593	-24.4
298.807	6.31
299.022	2.22
299.236	6.31
299.451	8.36
299.665	0.17
299.88	51.37
300.094	-51.03
300.309	22.7
300.523	-14.17
300.737	63.66
300.952	55.47
301.166	37.03
301.381	-63.32
301.595	-40.79
301.809	30.89
302.024	55.47
302.238	10.41
302.452	47.27
302.667	-10.07
302.881	22.7
303.095	67.75
303.309	-28.5
303.524	24.75
303.738	-36.69
303.952	22.7
304.166	-36.69
304.381	-34.64
304.595	24.75
304.809	47.27
305.023	32.94
305.237	43.18
305.452	-55.12
305.666	-1.88
305.88	57.51
306.094	-1.88
306.308	88.23
306.522	47.27
306.736	69.8
306.95	8.36
307.164	49.32
307.379	39.08
307.593	67.75
307.807	-24.4
308.021	63.66
308.235	47.27
308.449	24.75
308.663	22.7
308.877	49.32
309.091	10.41
309.305	30.89
309.519	14.51
309.733	55.47
309.947	51.37
310.161	20.65
310.374	-61.27
310.588	96.43
310.802	16.55
311.016	-51.03
311.23	12.46
311.444	-14.17
311.658	49.32
311.872	75.95
312.085	47.27
312.299	77.99
312.513	20.65
312.727	18.6
312.941	71.85
313.154	-34.64
313.368	55.47
313.582	41.13
313.796	-32.6
314.009	0.17
314.223	-24.4
314.437	8.36
314.651	73.9
314.864	-16.21
315.078	63.66
315.292	2.22
315.505	30.89
315.719	80.04
315.933	75.95
316.146	14.51
316.36	-75.6
316.573	84.14
316.787	41.13
317.001	-1.88
317.214	0.17
317.428	-8.02
317.641	55.47
317.855	-12.12
318.068	2.22
318.282	32.94
318.495	65.71
318.709	24.75
318.922	-79.7
319.136	125.1
319.349	59.56
319.563	108.71
319.776	55.47
319.99	-28.5
320.203	55.47
320.417	16.55
320.63	82.09
320.843	-10.07
321.057	96.43
321.27	-53.08
321.483	75.95
321.697	34.99
321.91	49.32
322.124	16.55
322.337	53.42
322.55	-34.64
322.763	47.27
322.977	-30.55
323.19	6.31
323.403	80.04
323.617	-3.93
323.83	69.8
324.043	-18.26
324.256	53.42
324.469	14.51
324.683	73.9
324.896	32.94
325.109	94.38
325.322	-46.93
325.535	2.22
325.748	47.27
325.962	-10.07
326.175	63.66
326.388	28.84
326.601	71.85
326.814	96.43
327.027	26.79
327.24	80.04
327.453	-34.64
327.666	34.99
327.879	16.55
328.092	41.13
328.305	6.31
328.518	-26.45
328.731	-3.93
328.944	96.43
329.157	-28.5
329.37	39.08
329.583	43.18
329.796	55.47
330.009	24.75
330.222	63.66
330.435	84.14
330.648	-1.88
330.861	24.75
331.073	-42.84
331.286	84.14
331.499	39.08
331.712	22.7
331.925	112.81
332.138	69.8
332.35	32.94
332.563	-44.88
332.776	30.89
332.989	47.27
333.202	2.22
333.414	-38.74
333.627	51.37
333.84	-8.02
334.053	55.47
334.265	26.79
334.478	14.51
334.691	30.89
334.903	-22.36
335.116	-1.88
335.329	37.03
335.541	39.08
335.754	63.66
335.966	8.36
336.179	24.75
336.392	73.9
336.604	-16.21
336.817	0.17
337.029	-14.17
337.242	0.17
337.454	32.94
337.667	10.41
337.88	34.99
338.092	22.7
338.305	55.47
338.517	-18.26
338.729	-24.4
338.942	41.13
339.154	-5.97
339.367	-55.12
339.579	92.33
339.792	-89.94
340.004	30.89
340.217	30.89
340.429	26.79
340.641	43.18
340.854	22.7
341.066	63.66
341.278	16.55
341.491	98.47
341.703	59.56
341.915	80.04
342.128	51.37
342.34	57.51
342.552	47.27
342.764	80.04
342.977	96.43
343.189	-5.97
343.401	55.47
343.613	22.7
343.826	32.94
344.038	22.7
344.25	116.9
344.462	-18.26
344.674	121
344.886	-16.21
345.099	39.08
345.311	0.17
345.523	39.08
345.735	37.03
345.947	22.7
346.159	80.04
346.371	-16.21
346.583	-51.03
346.795	92.33
347.007	30.89
347.219	57.51
347.431	-30.55
347.643	-14.17
347.855	2.22
348.067	26.79
348.279	0.17
348.491	63.66
348.703	61.61
348.915	-34.64
349.127	26.79
349.339	41.13
349.551	6.31
349.763	55.47
349.975	-22.36
350.187	61.61
350.399	22.7
350.61	22.7
350.822	32.94
351.034	8.36
351.246	24.75
351.458	123.05
351.669	39.08
351.881	63.66
352.093	88.23
352.305	98.47
352.517	-14.17
352.728	-34.64
352.94	16.55
353.152	43.18
353.363	34.99
353.575	57.51
353.787	104.62
353.999	53.42
354.21	47.27
354.422	22.7
354.633	63.66
354.845	-34.64
355.057	71.85
355.268	-14.17
355.48	55.47
355.692	65.71
355.903	96.43
356.115	-8.02
356.326	-40.79
356.538	88.23
356.749	55.47
356.961	84.14
357.172	24.75
357.384	131.24
357.595	106.67
357.807	-16.21
358.018	-8.02
358.23	0.17
358.441	71.85
358.653	96.43
358.864	24.75
359.075	-18.26
359.287	24.75
359.498	57.51
359.709	51.37
359.921	73.9
360.132	104.62
360.344	-3.93
360.555	-26.45
360.766	14.51
360.977	-30.55
361.189	39.08
361.4	-51.03
361.611	55.47
361.823	121
362.034	92.33
362.245	71.85
362.456	26.79
362.667	106.67
362.879	-59.22
363.09	16.55
363.301	32.94
363.512	41.13
363.723	6.31
363.935	47.27
364.146	22.7
364.357	-34.64
364.568	67.75
364.779	10.41
364.99	47.27
365.201	63.66
365.412	71.85
365.623	-71.51
365.834	45.23
366.045	75.95
366.256	63.66
366.467	-55.12
366.678	0.17
366.889	-42.84
367.1	57.51
367.311	43.18
367.522	18.6
367.733	-10.07
367.944	-5.97
368.155	2.22
368.366	32.94
368.577	10.41
368.788	41.13
368.999	2.22
369.209	-1.88
369.42	166.06
369.631	67.75
369.842	2.22
370.053	143.53
370.264	4.27
370.474	-14.17
370.685	6.31
370.896	75.95
371.107	41.13
371.317	80.04
371.528	-30.55
371.739	55.47
371.95	30.89
372.16	43.18
372.371	-1.88
372.582	16.55
372.792	88.23
373.003	80.04
373.214	88.23
373.424	6.31
373.635	-1.88
373.846	-18.26
374.056	94.38
374.267	-22.36
374.477	18.6
374.688	4.27
374.898	0.17
375.109	67.75
375.319	55.47
375.53	47.27
375.74	59.56
375.951	43.18
376.161	-22.36
376.372	32.94
376.582	30.89
376.793	98.47
377.003	63.66
377.214	0.17
377.424	121
377.635	22.7
377.845	30.89
378.055	170.15
378.266	26.79
378.476	112.81
378.686	10.41
378.897	39.08
379.107	106.67
379.317	37.03
379.528	63.66
379.738	-10.07
379.948	-42.84
380.158	22.7
380.369	-67.41
380.579	37.03
380.789	6.31
380.999	88.23
381.21	26.79
381.42	80.04
381.63	-24.4
381.84	73.9
382.05	73.9
382.261	90.28
382.471	32.94
382.681	0.17
382.891	43.18
383.101	-67.41
383.311	63.66
383.521	14.51
383.731	41.13
383.941	22.7
384.151	61.61
384.361	30.89
384.571	14.51
384.781	6.31
384.991	73.9
385.201	39.08
385.411	41.13
385.621	63.66
385.831	22.7
386.041	96.43
386.251	67.75
386.461	82.09
386.671	73.9
386.881	71.85
387.091	30.89
387.301	63.66
387.511	39.08
387.72	80.04
387.93	22.7
388.14	-24.4
388.35	16.55
388.56	88.23
388.769	63.66
388.979	84.14
389.189	47.27
389.399	55.47
389.609	-46.93
389.818	49.32
390.028	39.08
390.238	39.08
390.447	84.14
390.657	34.99
390.867	0.17
391.076	39.08
391.286	90.28
391.496	-34.64
391.705	55.47
391.915	80.04
392.125	151.72
392.334	104.62
392.544	77.99
392.753	59.56
392.963	14.51
393.172	-12.12
393.382	-46.93
393.591	75.95
393.801	14.51
394.01	90.28
394.22	22.7
394.429	6.31
394.639	75.95
394.848	147.62
395.058	121
395.267	73.9
395.477	82.09
395.686	67.75
395.895	116.9
396.105	98.47
396.314	71.85
396.524	69.8
396.733	110.76
396.942	61.61
397.152	8.36
397.361	61.61
397.57	32.94
397.78	51.37
397.989	112.81
398.198	194.73
398.407	47.27
398.617	55.47
398.826	37.03
399.035	47.27
399.244	98.47
399.453	55.47
399.663	57.51
399.872	139.43
400.081	34.99
400.29	131.24
400.499	49.32
400.708	75.95
400.917	77.99
401.127	6.31
401.336	53.42
401.545	45.23
401.754	75.95
401.963	129.19
402.172	-22.36
402.381	96.43
402.59	88.23
402.799	202.92
403.008	153.77
403.217	90.28
403.426	-16.21
403.635	90.28
403.844	149.67
404.053	131.24
404.262	161.96
404.471	123.05
404.68	137.38
404.888	106.67
405.097	73.9
405.306	104.62
405.515	110.76
405.724	98.47
405.933	108.71
406.142	145.58
406.35	166.06
406.559	114.86
406.768	112.81
406.977	71.85
407.185	114.86
407.394	161.96
407.603	133.29
407.812	106.67
408.02	239.78
408.229	131.24
408.438	180.39
408.646	121
408.855	100.52
409.064	182.44
409.272	202.92
409.481	204.97
409.69	108.71
409.898	237.74
410.107	235.69
410.315	245.93
410.524	161.96
410.733	198.82
410.941	274.6
411.15	352.42
411.358	254.12
411.567	264.36
411.775	284.84
411.984	243.88
412.192	317.61
412.401	284.84
412.609	252.07
412.818	301.22
413.026	342.18
413.234	389.28
413.443	366.76
413.651	387.24
413.86	432.29
414.068	407.72
414.276	409.76
414.485	424.1
414.693	442.53
414.901	499.88
415.11	567.46
415.318	506.02
415.526	532.64
415.734	626.85
415.943	579.75
416.151	630.95
416.359	567.46
416.567	649.38
416.776	602.27
416.984	606.37
417.192	680.1
417.4	559.27
417.608	661.66
417.817	729.25
418.025	841.89
418.233	735.39
418.441	745.63
418.649	770.21
418.857	856.22
419.065	940.19
419.273	839.84
419.481	940.19
419.689	932
419.897	936.09
420.105	1018.01
420.313	1087.64
420.521	1089.69
420.729	1069.21
420.937	1128.6
421.145	1183.9
421.353	1177.75
421.561	1302.68
421.769	1235.1
421.977	1351.83
422.185	1347.73
422.393	1480.85
422.601	1546.39
422.809	1581.2
423.017	1425.56
423.224	1630.35
423.432	1742.99
423.64	1693.84
423.848	1806.48
424.056	1714.32
424.263	1874.06
424.471	1837.2
424.679	1984.65
424.887	2080.91
425.094	2185.35
425.302	2113.67
425.51	2228.36
425.718	2318.47
425.925	2291.85
426.133	2420.87
426.341	2662.53
426.548	2580.61
426.756	2607.23
426.964	2627.71
427.171	2736.26
427.379	2859.14
427.586	2865.28
427.794	2928.77
428.001	3123.32
428.209	3176.57
428.417	3168.38
428.624	3477.62
428.832	3430.52
429.039	3467.38
429.247	3451
429.454	3850.35
429.662	3911.79
429.869	3692.66
430.076	4053.1
430.284	3905.65
430.491	4085.87
430.699	4290.67
430.906	4180.07
431.114	4282.47
431.321	4503.65
431.528	4503.65
431.736	4751.46
431.943	5027.93
432.15	4925.54
432.358	5054.56
432.565	5263.45
432.772	5269.59
432.979	5503.06
433.187	5523.54
433.394	5562.45
433.601	5941.33
433.808	6076.49
434.016	6148.17
434.223	6295.63
434.43	6656.07
434.637	6506.57
434.844	6993.98
435.052	6953.02
435.259	7043.14
435.466	7075.9
435.673	7118.91
435.88	7610.42
436.087	7747.64
436.294	7755.83
436.501	7714.87
436.708	7747.64
436.915	8142.89
437.122	8685.61
437.329	8327.21
437.537	8751.14
437.743	8800.29
437.95	8759.33
438.157	9222.17
438.364	9422.87
438.571	9512.99
438.778	9396.25
438.985	10510.35
439.192	9791.51
439.399	10223.63
439.606	10041.36
439.813	10590.22
440.02	11337.73
440.227	11239.42
440.433	10934.28
440.64	11401.21
440.847	11116.55
441.054	11474.94
441.261	12433.39
441.467	12257.26
441.674	12543.98
441.881	12998.63
442.088	12824.55
442.294	12662.76
442.501	12720.1
442.708	13260.77
442.914	13641.69
443.121	14323.66
443.328	13752.28
443.534	15054.79
443.741	14464.97
443.948	14323.66
444.154	15304.64
444.361	15325.12
444.568	15200.19
444.774	15120.32
444.981	15456.19
445.187	15812.54
445.394	16881.58
445.6	16392.11
445.807	18143.13
446.013	17272.74
446.22	17547.17
446.426	18306.96
446.633	18550.67
446.839	19007.37
447.046	18200.47
447.252	19029.9
447.459	19255.17
447.665	19216.26
447.871	20219.77
448.078	20889.45
448.284	19556.22
448.491	20416.37
448.697	21374.82
448.903	21614.43
449.11	21815.13
449.316	21256.04
449.522	21741.41
449.728	22005.59
449.935	22484.82
450.141	22632.27
450.347	22978.38
450.553	22624.08
450.76	22669.14
450.966	23625.54
451.172	23152.46
451.378	23435.08
451.584	23332.68
451.791	24110.91
451.997	23498.56
452.203	24082.24
452.409	24143.67
452.615	23887.68
452.821	23215.94
453.027	22746.96
453.233	24092.48
453.44	23189.32
453.646	23502.66
453.852	23805.76
454.058	24024.89
454.264	23191.37
454.47	23793.47
454.676	23060.3
454.882	23965.5
455.088	21921.63
455.294	22359.89
455.5	22675.28
455.705	22820.69
455.911	21925.72
456.117	21778.27
456.323	21376.87
456.529	20266.87
456.735	21305.19
456.941	20549.49
457.147	20526.96
457.352	19691.39
457.558	19507.07
457.764	19478.4
457.97	19367.81
458.176	18669.45
458.381	18796.43
458.587	17936.28
458.793	18132.89
458.999	16879.53
459.204	18419.6
459.41	17649.57
459.616	16594.86
459.821	16598.96
460.027	16498.61
460.233	16168.88
460.438	15523.77
460.644	15638.46
460.85	14931.91
461.055	14600.14
461.261	14350.29
461.466	13473.76
461.672	13090.79
461.878	14016.47
462.083	13060.07
462.289	12951.53
462.494	12711.91
462.7	12189.68
462.905	11687.93
463.111	12302.32
463.316	12253.17
463.522	11843.57
463.727	11958.26
463.932	11945.97
464.138	11692.02
464.343	11847.67
464.549	11767.8
464.754	11868.15
464.959	11843.57
465.165	11532.28
465.37	11481.08
465.575	11016.19
465.781	11556.86
465.986	11534.33
466.191	10938.37
466.397	10921.99
466.602	10170.38
466.807	10469.39
467.012	10766.34
467.218	10633.22
467.423	10541.07
467.628	10917.89
467.833	11108.35
468.038	10534.92
468.244	10334.22
468.449	10665.99
468.654	10422.28
468.859	10311.69
469.064	10102.8
469.269	9838.61
469.474	10096.66
469.679	10115.09
469.885	9795.61
470.09	9979.92
470.295	9871.38
470.5	9521.18
470.705	9605.14
470.91	9631.77
471.115	9488.41
471.32	9666.58
471.525	9551.9
471.73	9164.83
471.935	9285.66
472.139	8826.92
472.344	9148.45
472.549	8902.69
472.754	9035.81
472.959	8673.32
473.164	8460.33
473.369	8439.85
473.574	8736.81
473.778	8755.24
473.983	8583.21
474.188	8425.51
474.393	8259.63
474.598	8280.11
474.802	8060.98
475.007	8138.8
475.212	8108.08
475.417	7882.8
475.621	7872.56
475.826	7682.1
476.031	7745.59
476.235	7647.29
476.44	7764.02
476.645	7411.77
476.849	7514.17
477.054	7475.26
477.259	7252.03
477.463	7329.85
477.668	7157.82
477.872	7155.77
478.077	6981.7
478.282	6848.58
478.486	6948.93
478.691	6809.67
478.895	6946.88
479.1	6694.98
479.304	6815.81
479.509	6561.86
479.713	6723.65
479.918	6625.35
480.122	6432.84
480.326	6623.3
480.531	6662.21
480.735	6379.59
480.94	6621.25
481.144	6430.79
481.348	6418.5
481.553	6160.46
481.757	6275.15
481.961	6301.77
482.166	6357.07
482.37	6291.53
482.574	6158.41
482.778	6330.44
482.983	6373.45
483.187	6346.83
483.391	6215.76
483.595	6244.43
483.8	6076.49
484.004	6371.4
484.208	6324.3
484.412	6172.75
484.616	6260.81
484.821	6232.14
485.025	6125.65
485.229	6469.7
485.433	6260.81
485.637	6355.02
485.841	6223.95
486.045	6068.3
486.249	6223.95
486.453	6228.04
486.657	6207.56
486.861	6135.89
487.065	6182.99
487.269	6066.25
487.473	6027.34
487.677	6305.87
487.881	6269
488.085	6264.91
488.289	6074.45
488.493	6289.48
488.697	6215.76
488.901	6322.25
489.105	6193.23
489.309	6496.33
489.512	6283.34
489.716	6318.15
489.92	6277.19
490.124	6430.79
490.328	6355.02
490.531	6228.04
490.735	6432.84
490.939	6457.42
491.143	6371.4
491.346	6244.43
491.55	6504.52
491.754	6580.29
491.958	6686.79
492.161	6443.08
492.365	6502.47
492.569	6350.92
492.772	6635.59
492.976	6723.65
493.18	6651.97
493.383	6760.52
493.587	6897.73
493.79	6862.91
493.994	6688.84
494.197	6879.3
494.401	6877.25
494.605	6901.83
494.808	7032.9
495.012	6809.67
495.215	7063.61
495.419	7143.49
495.622	7063.61
495.825	7397.43
496.029	7292.99
496.232	7383.1
496.436	7297.08
496.639	7512.12
496.843	7487.54
497.046	7575.61
497.249	7755.83
497.453	7794.74
497.656	7903.28
497.859	7745.59
498.063	8073.26
498.266	8052.78
498.469	7966.77
498.673	8200.24
498.876	8411.18
499.079	8341.55
499.282	8292.4
499.485	8560.68
499.689	8716.33
499.892	8661.03
500.095	8726.57
500.298	8884.26
500.501	8755.24
500.705	9197.6
500.908	9373.72
501.111	9220.13
501.314	9422.87
501.517	9611.29
501.72	9525.27
501.923	9351.2
502.126	9818.13
502.329	9938.96
502.532	9943.06
502.735	9906.2
502.938	10248.21
503.141	10354.7
503.344	10459.15
503.547	10655.75
503.75	10639.37
503.953	10659.85
504.156	10860.55
504.359	11044.87
504.562	11065.35
504.765	11167.74
504.968	11440.12
505.17	11569.15
505.373	11229.18
505.576	11847.67
505.779	11837.43
505.982	11909.11
506.185	12261.36
506.387	12374
506.59	12318.7
506.793	12437.48
506.996	12474.35
507.198	12908.52
507.401	12875.75
507.604	13068.26
507.807	13129.7
508.009	13348.83
508.212	13488.09
508.415	13522.91
508.617	13834.2
508.82	13774.81
509.022	13703.13
509.225	14163.92
509.428	14157.78
509.63	14501.84
509.833	14471.12
510.035	14723.02
510.238	14669.77
510.44	15011.78
510.643	15206.34
510.845	15603.64
511.048	15183.81
511.25	15724.47
511.453	15482.81
511.655	16228.28
511.858	15914.94
512.06	15865.78
512.262	16392.11
512.465	16588.72
512.667	16646.06
512.87	16660.4
513.072	17037.22
513.274	17268.64
513.477	17377.19
513.679	17487.78
513.881	17958.81
514.084	18016.15
514.286	17770.4
514.488	17985.43
514.69	18952.07
514.893	18638.73
515.095	18620.3
515.297	19044.23
515.499	19158.92
515.701	19373.96
515.904	19099.53
516.106	19408.77
516.308	19632
516.51	20004.73
516.712	19918.71
516.914	20248.44
517.116	20594.54
517.318	20817.77
517.52	20791.15
517.722	21073.77
517.925	21335.91
518.127	21503.84
518.329	21690.21
518.531	21714.78
518.733	22327.13
518.935	22351.7
519.136	22216.54
519.338	22427.48
519.54	22617.94
519.742	22945.61
519.944	23164.75
520.146	23574.34
520.348	23734.08
520.55	23809.86
520.752	23631.68
520.954	24043.32
521.155	24155.96
521.357	24565.56
521.559	24706.87
521.761	24995.63
521.963	24735.54
522.164	25083.69
522.366	25392.94
522.568	25384.74
522.77	25601.83
522.971	26085.15
523.173	26044.19
523.375	26238.75
523.576	26289.95
523.778	26550.04
523.98	26900.24
524.181	27074.32
524.383	27152.14
524.584	27363.08
524.786	26986.25
524.988	27250.44
525.189	27655.94
525.391	27660.04
525.592	27948.8
525.794	27674.37
525.995	28116.73
526.197	28260.09
526.398	28442.36
526.6	28579.57
526.801	28542.71
527.003	29038.32
527.204	28731.12
527.406	29226.73
527.607	29212.4
527.808	29480.68
528.01	29058.8
528.211	28886.77
528.412	29714.15
528.614	29447.91
528.815	29548.26
529.016	30185.18
529.218	29738.72
529.419	29894.37
529.62	29959.91
529.822	29816.55
530.023	30152.41
530.224	30430.94
530.425	30385.88
530.626	30131.93
530.828	29933.28
531.029	30611.16
531.23	30398.17
531.431	30191.33
531.632	30660.31
531.833	30840.53
532.035	30707.41
532.236	30652.12
532.437	30523.1
532.638	30627.54
532.839	30754.52
533.04	31035.09
533.241	30555.86
533.442	31225.55
533.643	30783.19
533.844	30791.38
534.045	31014.61
534.246	30789.33
534.447	31334.09
534.648	30883.54
534.849	31043.28
535.05	30764.76
535.251	31096.53
535.451	30762.71
535.652	31174.35
535.853	31026.9
536.054	31147.73
536.255	31178.45
536.456	30711.51
536.657	31274.7
536.857	31102.67
537.058	30996.18
537.259	31235.79
537.46	31219.41
537.66	31022.8
537.861	31166.16
538.062	31125.2
538.263	31284.94
538.463	31045.33
538.664	31286.99
538.865	31252.17
539.065	31407.82
539.266	30994.13
539.466	31506.12
539.667	30684.89
539.868	31229.65
540.068	30869.2
540.269	30947.03
540.469	31340.24
540.67	31074
540.87	31413.96
541.071	30938.83
541.271	31098.58
541.472	30781.14
541.672	31000.27
541.873	31082.19
542.073	30752.47
542.274	31141.58
542.474	30926.55
542.675	30981.84
542.875	31198.93
543.075	30924.5
543.276	30865.11
543.476	31203.02
543.676	31000.27
543.877	30926.55
544.077	30944.98
544.277	30916.31
544.478	31051.47
544.678	31221.45
544.878	31186.64
545.078	30897.88
545.279	30883.54
545.479	30641.88
545.679	30772.95
545.879	30793.43
546.079	30783.19
546.28	30858.96
546.48	30557.91
546.68	31182.54
546.88	30936.79
547.08	31033.04
547.28	30926.55
547.48	30590.68
547.68	30707.41
547.88	30486.23
548.081	30967.51
548.281	30688.98
548.481	30615.26
548.681	31151.82
548.881	30662.36
549.081	31096.53
549.28	30697.17
549.48	30992.08
549.68	30721.75
549.88	31381.2
550.08	30486.23
550.28	30813.91
550.48	30836.44
550.68	30904.02
550.88	30783.19
551.08	30926.55
551.279	30783.19
551.479	30838.48
551.679	30750.42
551.879	30312.16
552.079	30893.78
552.278	30678.74
552.478	30656.21
552.678	30496.47
552.878	30826.2
553.077	30615.26
553.277	30125.79
553.477	30748.37
553.676	31039.19
553.876	30439.13
554.076	30187.23
554.275	30428.89
554.475	30281.44
554.674	30617.3
554.874	30758.61
555.074	30316.25
555.273	30349.02
555.473	30492.38
555.672	30125.79
555.872	30234.33
556.071	29937.38
556.271	30379.74
556.47	30301.92
556.67	29800.16
556.869	30007.01
557.068	30367.45
557.268	30043.87
557.467	29904.61
557.667	30066.4
557.866	29794.02
558.065	29794.02
558.265	29552.36
558.464	29617.89
558.663	29791.97
558.863	29333.23
559.062	29996.77
559.261	29251.31
559.461	30023.39
559.66	29249.26
559.859	29564.65
560.058	29544.17
560.258	29357.8
560.457	28970.74
560.656	29134.57
560.855	29333.23
561.054	29452.01
561.253	29077.23
561.453	29091.57
561.652	28901.11
561.851	28966.64
562.05	28829.43
562.249	28737.27
562.448	29050.61
562.647	28727.03
562.846	28690.16
563.045	28903.15
563.244	28634.87
563.443	28727.03
563.642	28280.57
563.841	28575.48
564.04	28432.12
564.239	28905.2
564.438	28374.78
564.637	28235.52
564.836	28331.77
565.035	28047.1
565.234	28174.08
565.432	27741.96
565.631	27848.45
565.83	28378.87
566.029	27879.17
566.228	27477.77
566.427	27653.89
566.625	27473.67
566.824	27148.04
567.023	27660.04
567.222	27193.1
567.42	27381.51
567.619	27246.35
567.818	27021.07
568.016	27168.52
568.215	27369.23
568.414	27057.93
568.612	27305.74
568.811	27004.69
569.01	27227.92
569.208	26566.42
569.407	26906.38
569.605	26404.63
569.804	26853.14
570.002	26527.51
570.201	26439.45
570.4	26353.43
570.598	26222.36
570.797	26416.92
570.995	26208.03
571.193	26375.96
571.392	26005.28
571.59	25890.59
571.789	25911.07
571.987	25814.82
572.186	25747.23
572.384	25204.52
572.582	25304.87
572.781	25544.48
572.979	24977.2
573.177	25321.26
573.376	25491.24
573.574	25317.16
573.772	25046.83
573.971	25165.61
574.169	24809.26
574.367	24614.71
574.565	24971.05
574.763	25003.82
574.962	24827.7
575.16	24450.87
575.358	24760.11
575.556	24338.23
575.754	24713.01
575.952	23949.12
576.151	24520.5
576.349	24426.29
576.547	24059.71
576.745	24123.19
576.943	24088.38
577.141	24059.71
577.339	23934.78
577.537	23914.3
577.735	23484.23
577.933	23435.08
578.131	23850.81
578.329	23926.59
578.527	23623.49
578.725	23590.72
578.923	23574.34
579.121	23355.21
579.319	23316.29
579.516	23648.07
579.714	23093.07
579.912	23027.53
580.11	22857.55
580.308	23134.03
580.506	23048.01
580.704	22550.35
580.901	22890.32
581.099	22808.4
581.297	22589.27
581.495	22302.55
581.692	22632.27
581.89	22480.72
582.088	22576.98
582.285	22320.98
582.483	22343.51
582.681	22359.89
582.878	22212.44
583.076	21864.29
583.274	22421.33
583.471	22148.95
583.669	22261.59
583.866	21796.7
584.064	22046.55
584.262	21528.42
584.459	21872.48
584.657	21364.58
584.854	21968.73
585.052	21299.05
585.249	21358.44
585.447	21223.27
585.644	21215.08
585.841	21047.15
586.039	21518.18
586.236	20768.62
586.434	21006.19
586.631	20707.18
586.828	20918.12
587.026	20914.03
587.223	20694.89
587.42	20522.87
587.618	20678.51
587.815	20289.4
588.012	20545.39
588.21	20559.73
588.407	20664.18
588.604	20299.64
588.801	20160.38
588.999	20135.8
589.196	20393.84
589.393	19957.63
589.59	19951.48
589.787	19933.05
589.984	19879.8
590.182	19754.88
590.379	19656.57
590.576	19388.29
590.773	19898.24
590.97	19271.56
591.167	19695.49
591.364	19267.46
591.561	19648.38
591.758	19328.9
591.955	19154.82
592.152	19253.12
592.349	19195.78
592.546	19347.33
592.743	19150.73
592.94	19085.19
593.137	18835.34
593.334	19167.11
593.531	18894.73
593.727	18841.48
593.924	18960.27
594.121	18798.48
594.318	18675.6
594.515	18542.48
594.712	18810.76
594.908	18413.46
595.105	18495.38
595.302	18341.78
595.499	18210.71
595.696	18341.78
595.892	18098.07
596.089	18425.75
596.286	18134.93
596.482	18151.32
596.679	18061.21
596.876	17913.75
597.072	18040.73
597.269	18159.51
597.466	17696.67
597.662	17627.04
597.859	17772.44
598.055	17749.92
598.252	17680.28
598.448	17827.74
598.645	17364.9
598.841	17336.23
599.038	17153.96
599.234	17438.62
599.431	17153.96
599.627	17020.84
599.824	17358.75
600.02	16973.74
600.217	17416.1
600.413	16725.93
600.609	17246.12
600.806	16891.82
601.002	17055.65
601.198	16727.98
601.395	16750.51
601.591	16871.34
601.787	16512.94
601.984	16496.56
602.18	16711.6
602.376	16418.74
602.572	16357.3
602.769	16572.33
602.965	16390.06
603.161	16263.09
603.357	16197.56
603.553	16097.21
603.75	16183.22
603.946	16265.14
604.142	15908.79
604.338	15867.83
604.534	16117.68
604.73	15804.35
604.926	15974.33
605.122	15808.44
605.318	15689.66
605.514	15775.67
605.71	15763.39
605.906	15716.28
606.102	15398.85
606.298	15450.05
606.494	15581.12
606.69	15624.12
606.886	15695.8
607.082	15194.05
607.278	15278.02
607.474	15087.56
607.67	15101.89
607.866	15146.95
608.062	15206.34
608.257	15065.03
608.453	15167.43
608.649	15048.65
608.845	14759.88
609.041	14944.2
609.236	14884.81
609.432	14940.1
609.628	14643.15
609.824	14634.96
610.019	14761.93
610.215	14708.68
610.411	14938.05
610.606	14739.4
610.802	14784.46
610.998	14583.76
611.193	14583.76
611.389	14485.45
611.584	14446.54
611.78	14456.78
611.976	14329.81
612.171	14415.82
612.367	14559.18
612.562	14239.7
612.758	14084.05
612.953	14297.04
613.149	14467.02
613.344	14112.72
613.539	14294.99
613.735	14278.61
613.93	14258.13
614.126	13932.5
614.321	14024.66
614.517	14120.92
614.712	14006.23
614.907	14016.47
615.103	14104.53
615.298	13811.67
615.493	14051.28
615.688	13955.03
615.884	13983.7
616.079	13803.48
616.274	13959.13
616.47	13733.85
616.665	13760.47
616.86	13584.35
617.055	13768.66
617.25	13365.21
617.445	13797.34
617.641	13291.49
617.836	13842.39
618.031	13424.61
618.226	13516.76
618.421	13447.13
618.616	13359.07
618.811	13098.98
619.006	13459.42
619.201	13060.07
619.396	13162.47
619.591	12935.14
619.786	13207.52
619.981	13064.16
620.176	12943.33
620.371	13019.11
620.566	12533.74
620.761	12896.23
620.956	12972
621.151	12548.08
621.346	12740.58
621.541	12447.72
621.735	12525.55
621.93	12441.58
622.125	12457.96
622.32	12081.14
622.515	12328.94
622.709	12163.06
622.904	12138.48
623.099	12023.8
623.294	12177.39
623.488	12044.27
623.683	11974.64
623.878	11610.11
624.072	11864.05
624.267	11601.91
624.462	11540.47
624.656	11442.17
624.851	11298.81
625.046	11368.45
625.24	11413.5
625.435	11184.13
625.629	11134.98
625.824	11151.36
626.018	11180.03
626.213	10772.49
626.407	10901.51
626.602	10747.91
626.796	11012.1
626.991	10950.66
627.185	10715.14
627.38	10784.77
627.574	10606.6
627.768	10498.06
627.963	10262.54
628.157	10491.91
628.352	10469.39
628.546	10321.93
628.74	10287.12
628.935	10096.66
629.129	10412.04
629.323	10084.37
629.517	10221.58
629.712	10129.42
629.906	9945.11
630.1	9709.59
630.294	9895.96
630.489	9828.37
630.683	9852.95
630.877	9777.17
631.071	9762.84
631.265	9830.42
631.459	9689.11
631.653	9386.01
631.848	9508.89
632.042	9365.53
632.236	9416.73
632.43	9355.29
632.624	9343
632.818	9189.41
633.012	9158.69
633.206	9156.64
633.4	9041.95
633.594	8937.51
633.788	8900.64
633.982	8951.84
634.176	8853.54
634.369	9107.49
634.563	8845.35
634.757	8884.26
634.951	8839.2
635.145	8794.15
635.339	8634.41
635.533	8601.64
635.726	8509.48
635.92	8507.43
636.114	8464.43
636.308	8278.06
636.501	8304.68
636.695	8388.65
636.889	8239.15
637.083	8192.05
637.276	8192.05
637.47	8101.94
637.664	7997.49
637.857	8011.82
638.051	7811.12
638.244	8050.74
638.438	7977.01
638.632	8030.26
638.825	7739.44
639.019	7866.42
639.212	7616.57
639.406	7772.21
639.599	7591.99
639.793	7733.3
639.986	7411.77
640.18	7579.7
640.373	7673.91
640.567	7360.57
640.76	7354.43
640.954	7348.28
641.147	7163.97
641.34	7211.07
641.534	7147.58
641.727	7272.51
641.92	7217.21
642.114	7245.88
642.307	7061.57
642.5	7125.05
642.694	6946.88
642.887	6928.45
643.08	6920.26
643.273	7018.56
643.467	6686.79
643.66	6977.6
643.853	6756.42
644.046	6539.33
644.239	6678.6
644.432	6463.56
644.626	6740.04
644.819	6471.75
645.012	6576.2
645.205	6604.87
645.398	6459.46
645.591	6336.59
645.784	6541.38
645.977	6438.98
646.17	6387.79
646.363	6332.49
646.556	6385.74
646.749	6199.37
646.942	6328.39
647.135	6250.57
647.328	6006.86
647.521	6211.66
647.714	5933.14
647.907	6021.2
648.099	5963.86
648.292	6025.29
648.485	5939.28
648.678	5757.01
648.871	6019.15
649.064	5830.74
649.256	5808.21
649.449	5861.46
649.642	5877.84
649.835	5656.66
650.027	5748.82
650.22	5605.46
650.413	5611.61
650.605	5597.27
650.798	5630.04
650.991	5552.21
651.183	5601.37
651.376	5283.93
651.568	5300.31
651.761	5331.03
651.954	5437.53
652.146	5343.32
652.339	5326.94
652.531	5279.83
652.724	5228.63
652.916	5040.22
653.109	5290.07
653.301	5232.73
653.494	5265.5
653.686	5015.65
653.879	5064.8
654.071	5007.45
654.263	4970.59
654.456	4933.73
654.648	4976.73
654.84	4870.24
655.033	4847.71
655.225	5060.7
655.417	4819.04
655.61	4790.37
655.802	4759.65
655.994	4720.74
656.186	4888.67
656.379	4683.88
656.571	4792.42
656.763	4726.88
656.955	4612.2
657.148	4782.18
657.34	4692.07
657.532	4591.72
657.724	4694.12
657.916	4634.72
658.108	4534.37
658.3	4548.71
658.492	4243.56
658.684	4407.4
658.876	4425.83
659.068	4530.28
659.26	4425.83
659.452	4454.5
659.644	4300.91
659.836	4337.77
660.028	4362.34
660.22	4405.35
660.412	4311.14
660.604	4210.79
660.796	4325.48
660.988	4145.26
661.18	4175.98
661.372	4186.22
661.563	4098.16
661.755	3940.46
661.947	4161.64
662.139	4061.29
662.331	4081.77
662.522	4139.12
662.714	4114.54
662.906	4001.9
663.097	4063.34
663.289	3883.12
663.481	3942.51
663.673	3842.16
663.864	3897.46
664.056	3901.55
664.247	3780.72
664.439	3809.39
664.631	3676.27
664.822	3862.64
665.014	3745.91
665.205	3768.43
665.397	3801.2
665.588	3776.63
665.78	3692.66
665.971	3661.94
666.163	3672.18
666.354	3596.4
666.546	3627.12
666.737	3633.27
666.929	3545.2
667.12	3496.05
667.311	3598.45
667.503	3586.16
667.694	3522.68
667.885	3539.06
668.077	3524.72
668.268	3334.26
668.459	3479.67
668.651	3487.86
668.842	3680.37
669.033	3356.79
669.224	3405.94
669.416	3563.64
669.607	3434.61
669.798	3272.82
669.989	3479.67
670.18	3389.56
670.371	3338.36
670.563	3303.54
670.754	3225.72
670.945	3283.06
671.136	3143.8
671.327	3342.46
671.518	3340.41
671.709	3299.45
671.9	3137.66
672.091	3203.19
672.282	3086.46
672.473	3231.87
672.664	3213.43
672.855	3170.43
673.046	3235.96
673.237	3252.35
673.428	3039.36
673.619	3041.4
673.809	3096.7
674	3131.51
674.191	3053.69
674.382	3139.71
674.573	2930.81
674.764	2984.06
674.954	2973.82
675.145	3039.36
675.336	3065.98
675.527	3094.65
675.717	3033.21
675.908	2930.81
676.099	2898.05
676.289	2998.4
676.48	2865.28
676.671	2881.66
676.861	3082.36
677.052	2934.91
677.243	2977.92
677.433	2910.33
677.624	2857.09
677.814	2750.59
678.005	2887.81
678.195	2922.62
678.386	2875.52
678.576	2758.78
678.767	2822.27
678.957	2965.63
679.148	2791.55
679.338	2963.58
679.529	2973.82
679.719	2873.47
679.909	2867.33
680.1	2809.98
680.29	2842.75
680.481	2799.74
680.671	2728.07
680.861	2848.9
681.052	2756.74
681.242	2760.83
681.432	2717.83
681.622	2750.59
681.813	2701.44
682.003	2732.16
682.193	2640
682.383	2805.89
682.573	2762.88
682.764	2728.07
682.954	2715.78
683.144	2795.65
683.334	2656.39
683.524	2660.48
683.714	2562.18
683.904	2685.06
684.094	2648.19
684.284	2773.12
684.474	2705.54
684.664	2736.26
684.854	2635.91
685.044	2629.76
685.234	2572.42
685.424	2570.37
685.614	2627.71
685.804	2646.15
685.994	2607.23
686.184	2586.76
686.374	2545.8
686.564	2570.37
686.753	2537.6
686.943	2435.21
687.133	2431.11
687.323	2549.89
687.513	2594.95
687.702	2549.89
687.892	2447.49
688.082	2455.69
688.272	2642.05
688.461	2523.27
688.651	2508.93
688.841	2420.87
689.03	2427.01
689.22	2441.35
689.41	2384.01
689.599	2531.46
689.789	2422.92
689.979	2435.21
690.168	2377.86
690.358	2353.29
690.547	2332.81
690.737	2453.64
690.926	2459.78
691.116	2193.55
691.305	2281.61
691.495	2394.25
691.684	2271.37
691.874	2242.7
692.063	2203.79
692.252	2267.27
692.442	2310.28
692.631	2222.22
692.82	2140.3
693.01	2187.4
693.199	2291.85
693.388	2148.49
693.578	2105.48
693.767	2234.5
693.956	2168.97
694.146	2293.9
694.335	2205.83
694.524	2144.39
694.713	2355.33
694.902	2203.79
695.092	2226.31
695.281	2158.73
695.47	2197.64
695.659	2175.11
695.848	2113.67
696.037	2117.77
696.226	2162.83
696.415	2119.82
696.604	2062.48
696.793	2095.24
696.982	2062.48
697.171	2318.47
697.36	2152.59
697.549	2152.59
697.738	2115.72
697.927	2093.19
698.116	2115.72
698.305	2121.87
698.494	2119.82
698.683	2132.11
698.872	2072.72
699.061	2103.43
699.25	2021.52
699.438	2107.53
699.627	2029.71
699.816	2211.98
700.005	2082.95
700.193	2095.24
700.382	2201.74
700.571	2111.63
700.76	2130.06
700.948	2037.9
701.137	2105.48
701.326	2152.59
701.514	2029.71
701.703	2029.71
701.892	2107.53
702.08	2162.83
702.269	2042
702.457	2039.95
702.646	2050.19
702.834	2046.09
703.023	2013.32
703.212	2064.52
703.4	2005.13
703.589	2015.37
703.777	2007.18
703.965	2080.91
704.154	2136.2
704.342	2005.13
704.531	1964.17
704.719	2087.05
704.907	2027.66
705.096	2070.67
705.284	1964.17
705.472	1998.99
705.661	2009.23
705.849	2017.42
706.037	2056.33
706.226	1945.74
706.414	2078.86
706.602	1964.17
706.79	1976.46
706.979	1951.88
707.167	2082.95
707.355	2050.19
707.543	2015.37
707.731	2023.56
707.919	2039.95
708.107	2193.55
708.296	1996.94
708.484	2037.9
708.672	2046.09
708.86	2009.23
709.048	2001.04
709.236	2082.95
709.424	2068.62
709.612	2017.42
709.8	1982.6
709.988	2050.19
710.176	2091.15
710.364	2078.86
710.551	2148.49
710.739	2007.18
710.927	2103.43
711.115	2160.78
711.303	2015.37
711.491	2138.25
711.679	1947.79
711.866	2033.8
712.054	2152.59
712.242	2023.56
712.43	2044.04
712.617	2042
712.805	2103.43
712.993	2103.43
713.181	1974.41
713.368	1976.46
713.556	2203.79
713.744	1976.46
713.931	2019.47
714.119	2066.57
714.306	2056.33
714.494	2158.73
714.682	2021.52
714.869	2005.13
715.057	1968.27
715.244	2066.57
715.432	2099.34
715.619	2023.56
715.807	2136.2
715.994	2029.71
716.182	2050.19
716.369	2105.48
716.556	2123.91
716.744	2078.86
716.931	2005.13
717.119	2078.86
717.306	2132.11
717.493	2115.72
717.681	1968.27
717.868	2080.91
718.055	2119.82
718.242	2039.95
718.43	2037.9
718.617	2107.53
718.804	1990.8
718.991	2093.19
719.179	2134.15
719.366	2113.67
719.553	2039.95
719.74	1984.65
719.927	2021.52
720.114	2025.61
720.301	1980.56
720.488	2070.67
720.676	2005.13
720.863	1982.6
721.05	2168.97
721.237	1955.98
721.424	2005.13
721.611	2111.63
721.798	2115.72
721.985	2058.38
722.172	2078.86
722.358	2027.66
722.545	2078.86
722.732	2078.86
722.919	2042
723.106	1972.36
723.293	1996.94
723.48	2136.2
723.667	2089.1
723.853	2074.76
724.04	2091.15
724.227	2087.05
724.414	1931.41
724.6	2080.91
724.787	2054.28
724.974	2109.58
725.161	2064.52
725.347	1921.17
725.534	2033.8
725.72	2111.63
725.907	2091.15
726.094	2072.72
726.28	2142.35
726.467	2025.61
726.653	2138.25
726.84	2013.32
727.027	2107.53
727.213	1955.98
727.4	2001.04
727.586	2099.34
727.773	2035.85
727.959	1992.84
728.145	2080.91
728.332	1998.99
728.518	2132.11
728.705	1939.6
728.891	2050.19
729.077	2037.9
729.264	2089.1
729.45	1996.94
729.636	2046.09
729.823	2052.24
730.009	2070.67
730.195	1941.65
730.382	2230.41
730.568	1982.6
730.754	2062.48
730.94	2029.71
731.126	1970.32
731.313	2072.72
731.499	2089.1
731.685	2021.52
731.871	1992.84
732.057	2046.09
732.243	2132.11
732.429	1964.17
732.615	2025.61
732.801	2052.24
732.987	1976.46
733.173	2044.04
733.359	2054.28
733.545	1996.94
733.731	1902.73
733.917	1945.74
734.103	1988.75
734.289	1988.75
734.475	1974.41
734.661	1951.88
734.847	1880.21
735.033	2015.37
735.219	1919.12
735.404	1960.08
735.59	1988.75
735.776	1962.12
735.962	1988.75
736.148	2044.04
736.333	1998.99
736.519	1869.97
736.705	1931.41
736.89	1980.56
737.076	1980.56
737.262	1986.7
737.447	1966.22
737.633	1857.68
737.819	1998.99
738.004	1925.26
738.19	1857.68
738.375	1953.93
738.561	1861.77
738.747	2015.37
738.932	1788.05
739.118	1867.92
739.303	1947.79
739.489	1876.11
739.674	1802.38
739.859	1869.97
740.045	1931.41
740.23	1896.59
740.416	1794.19
740.601	1833.1
740.786	1917.07
740.972	1767.57
741.157	1802.38
741.342	1837.2
741.528	1851.53
741.713	1786
741.898	1855.63
742.084	1771.66
742.269	1699.98
742.454	1775.76
742.639	1859.73
742.824	1837.2
743.01	1742.99
743.195	1833.1
743.38	1808.53
743.565	1841.29
743.75	1718.42
743.935	1790.1
744.12	1761.42
744.305	1718.42
744.49	1728.66
744.675	1775.76
744.86	1722.51
745.045	1673.36
745.23	1677.46
745.415	1745.04
745.6	1745.04
745.785	1718.42
745.97	1767.57
746.155	1646.74
746.34	1683.6
746.525	1585.3
746.71	1728.66
746.895	1573.01
747.079	1515.67
747.264	1644.69
747.449	1595.54
747.634	1515.67
747.819	1532.05
748.003	1562.77
748.188	1579.15
748.373	1554.58
748.557	1538.2
748.742	1499.28
748.927	1579.15
749.111	1511.57
749.296	1501.33
749.481	1509.52
749.665	1489.04
749.85	1398.93
750.034	1439.89
750.219	1357.97
750.404	1480.85
750.588	1409.17
750.773	1448.08
750.957	1431.7
751.141	1396.89
751.326	1450.13
751.51	1398.93
751.695	1421.46
751.879	1343.64
752.064	1407.13
752.248	1403.03
752.432	1423.51
752.617	1302.68
752.801	1321.11
752.985	1308.82
753.17	1368.21
753.354	1423.51
753.538	1345.69
753.722	1302.68
753.907	1327.25
754.091	1185.94
754.275	1292.44
754.459	1271.96
754.643	1251.48
754.828	1271.96
755.012	1235.1
755.196	1210.52
755.38	1157.27
755.564	1239.19
755.748	1261.72
755.932	1075.35
756.116	1210.52
756.3	1151.13
756.484	1063.07
756.668	1284.25
756.852	1132.7
757.036	1022.11
757.22	1104.03
757.404	1097.88
757.588	1138.84
757.772	1173.66
757.956	1093.79
758.14	1022.11
758.323	997.53
758.507	1126.55
758.691	1073.31
758.875	1185.94
759.059	1112.22
759.242	1038.49
759.426	1067.16
759.61	1063.07
759.794	1050.78
759.977	1116.31
760.161	1147.03
760.345	1030.3
760.528	1044.63
760.712	934.04
760.895	1044.63
761.079	925.85
761.263	999.58
761.446	1001.63
761.63	985.24
761.813	983.2
761.997	958.62
762.18	1009.82
762.364	903.32
762.547	954.52
762.731	848.03
762.914	938.14
763.098	948.38
763.281	915.61
763.464	919.71
763.648	909.47
763.831	831.65
764.015	923.8
764.198	950.43
764.381	862.37
764.564	907.42
764.748	850.08
764.931	817.31
765.114	932
765.297	891.04
765.481	870.56
765.664	802.97
765.847	872.61
766.03	854.17
766.213	788.64
766.397	780.45
766.58	932
766.763	841.89
766.946	727.2
767.129	841.89
767.312	809.12
767.495	848.03
767.678	794.78
767.861	819.36
768.044	909.47
768.227	850.08
768.41	706.72
768.593	858.27
768.776	770.21
768.959	825.5
769.142	727.2
769.324	817.31
769.507	811.17
769.69	792.73
769.873	747.68
770.056	927.9
770.239	719.01
770.421	792.73
770.604	807.07
770.787	845.98
770.97	786.59
771.152	776.35
771.335	862.37
771.518	751.78
771.7	858.27
771.883	825.5
772.066	721.06
772.248	680.1
772.431	784.54
772.613	676
772.796	669.86
772.978	655.52
773.161	727.2
773.343	776.35
773.526	692.38
773.708	630.95
773.891	702.62
774.073	706.72
774.256	727.2
774.438	665.76
774.621	669.86
774.803	710.82
774.985	723.1
775.168	669.86
775.35	583.84
775.532	592.03
775.715	614.56
775.897	645.28
776.079	620.71
776.261	727.2
776.444	587.94
776.626	639.14
776.808	635.04
776.99	673.95
777.173	647.33
777.355	546.98
777.537	557.22
777.719	694.43
777.901	549.03
778.083	606.37
778.265	530.59
778.447	592.03
778.629	555.17
778.811	555.17
778.993	635.04
779.175	536.74
779.357	528.55
779.539	587.94
779.721	530.59
779.903	534.69
780.085	489.64
780.267	465.06
780.449	655.52
780.631	614.56
780.812	624.8
780.994	469.16
781.176	493.73
781.358	540.83
781.54	456.87
781.721	508.07
781.903	448.68
782.085	448.68
782.267	485.54
782.448	473.25
782.63	417.96
782.812	481.44
782.993	581.79
783.175	434.34
783.357	448.68
783.538	458.92
783.72	426.15
783.901	432.29
784.083	506.02
784.264	467.11
784.446	333.99
784.627	377
784.809	493.73
784.99	426.15
785.172	438.44
785.353	411.81
785.535	450.72
785.716	344.23
785.897	391.33
786.079	415.91
786.26	362.66
786.441	467.11
786.623	290.98
786.804	417.96
786.985	290.98
787.167	383.14
787.348	358.57
787.529	417.96
787.71	403.62
787.891	280.74
788.073	333.99
788.254	377
788.435	303.27
788.616	403.62
788.797	401.57
788.978	311.46
789.159	407.72
789.34	401.57
789.522	368.81
789.703	319.65
789.884	319.65
790.065	387.24
790.246	346.28
790.427	366.76
790.607	393.38
790.788	278.69
790.969	295.08
791.15	377
791.331	311.46
791.512	319.65
791.693	354.47
791.874	352.42
792.054	377
792.235	399.52
792.416	288.93
792.597	254.12
792.778	303.27
792.958	247.97
793.139	293.03
793.32	276.65
793.5	297.13
793.681	336.04
793.862	342.18
794.042	309.41
794.223	284.84
794.404	231.59
794.584	243.88
794.765	280.74
794.945	252.07
795.126	336.04
795.306	342.18
795.487	301.22
795.667	213.16
795.848	252.07
796.028	313.51
796.209	204.97
796.389	250.02
796.57	260.26
796.75	243.88
796.93	264.36
797.111	155.82
797.291	223.4
797.471	256.17
797.652	252.07
797.832	184.49
798.012	276.65
798.192	239.78
798.373	178.34
798.553	235.69
798.733	161.96
798.913	219.3
799.093	227.5
799.274	243.88
799.454	309.41
799.634	247.97
799.814	252.07
799.994	239.78
800.174	252.07
800.354	239.78
800.534	176.3
800.714	284.84
800.894	250.02
801.074	161.96
801.254	225.45
801.434	219.3
801.614	229.54
801.794	235.69
801.974	794.78
802.154	247.97
802.334	145.58
802.514	172.2
802.693	188.58
802.873	153.77
803.053	166.06
803.233	235.69
803.413	178.34
803.592	137.38
803.772	221.35
803.952	155.82
804.131	166.06
804.311	204.97
804.491	252.07
804.67	84.14
804.85	133.29
805.03	198.82
805.209	202.92
805.389	133.29
805.568	137.38
805.748	219.3
805.928	123.05
806.107	204.97
806.287	153.77
806.466	194.73
806.646	221.35
806.825	166.06
807.004	133.29
807.184	168.1
807.363	204.97
807.543	141.48
807.722	133.29
807.901	235.69
808.081	194.73
808.26	123.05
808.439	141.48
808.619	127.14
808.798	149.67
808.977	153.77
809.156	121
809.336	235.69
809.515	204.97
809.694	153.77
809.873	139.43
810.052	147.62
810.231	204.97
810.411	123.05
810.59	180.39
810.769	178.34
810.948	139.43
811.127	59.56
811.306	168.1
811.485	121
811.664	186.54
811.843	145.58
812.022	139.43
812.201	125.1
812.38	147.62
812.559	121
812.737	241.83
812.916	88.23
813.095	125.1
813.274	157.86
813.453	174.25
813.632	178.34
813.811	55.47
813.989	149.67
814.168	116.9
814.347	153.77
814.526	100.52
814.704	155.82
814.883	153.77
815.062	84.14
815.24	135.34
815.419	39.08
815.598	172.2
815.776	73.9
815.955	131.24
816.133	180.39
816.312	41.13
816.49	59.56
816.669	245.93
816.847	112.81
817.026	112.81
817.204	100.52
817.383	137.38
817.561	90.28
817.74	90.28
817.918	213.16
818.097	96.43
818.275	102.57
818.453	172.2
818.632	80.04
818.81	80.04
818.988	92.33
819.167	147.62
819.345	131.24
819.523	92.33
819.701	55.47
819.879	92.33
820.058	129.19
820.236	90.28
820.414	94.38
820.592	121
820.77	67.75
820.948	125.1
821.127	61.61
821.305	170.15
821.483	77.99
821.661	135.34
821.839	94.38
822.017	94.38
822.195	86.19
822.373	178.34
822.551	131.24
822.729	125.1
822.907	57.51
823.085	112.81
823.262	55.47
823.44	88.23
823.618	110.76
823.796	96.43
823.974	112.81
824.152	18.6
824.329	139.43
824.507	182.44
824.685	108.71
824.863	98.47
825.04	82.09
825.218	55.47
825.396	112.81
825.574	131.24
825.751	92.33
825.929	84.14
826.107	82.09
826.284	75.95
826.462	100.52
826.639	133.29
826.817	55.47
826.994	137.38
827.172	80.04
827.349	123.05
827.527	112.81
827.704	34.99
827.882	108.71
828.059	100.52
828.237	51.37
828.414	112.81
828.591	88.23
828.769	49.32
828.946	53.42
829.124	55.47
829.301	112.81
829.478	84.14
829.655	98.47
829.833	100.52
830.01	18.6
830.187	149.67
830.364	71.85
830.542	-5.97
830.719	45.23
830.896	121
831.073	90.28
831.25	47.27
831.427	80.04
831.604	88.23
831.782	-5.97
831.959	57.51
832.136	-10.07
832.313	67.75
832.49	14.51
832.667	47.27
832.844	96.43
833.021	73.9
833.198	14.51
833.374	90.28
833.551	176.3
833.728	-10.07
833.905	77.99
834.082	34.99
834.259	63.66
834.436	57.51
834.612	84.14
834.789	49.32
834.966	39.08
835.143	14.51
835.319	26.79
835.496	170.15
835.673	51.37
835.85	34.99
836.026	69.8
836.203	55.47
836.38	41.13
836.556	55.47
836.733	47.27
836.909	55.47
837.086	26.79
837.262	47.27
837.439	39.08
837.616	80.04
837.792	10.41
837.968	2.22
838.145	12.46
838.321	104.62
838.498	55.47
838.674	67.75
838.851	6.31
839.027	88.23
839.203	34.99
839.38	-14.17
839.556	-42.84
839.732	39.08
839.909	90.28
840.085	51.37
840.261	71.85
840.437	92.33
840.614	59.56
840.79	51.37
840.966	71.85
841.142	30.89
841.318	-1.88
841.494	100.52
841.671	47.27
841.847	-8.02
842.023	-1.88
842.199	67.75
842.375	67.75
842.551	32.94
842.727	10.41
842.903	71.85
843.079	-18.26
843.255	53.42
843.431	26.79
843.607	63.66
843.783	2.22
843.959	84.14
844.134	18.6
844.31	16.55
844.486	-46.93
844.662	26.79
844.838	49.32
845.013	155.82
845.189	-42.84
845.365	34.99
845.541	2.22
845.716	47.27
845.892	67.75
846.068	34.99
846.244	88.23
846.419	47.27
846.595	34.99
846.77	22.7
846.946	82.09
847.122	-18.26
847.297	6.31
847.473	80.04
847.648	55.47
847.824	-42.84
847.999	30.89
848.175	-8.02
848.35	34.99
848.526	22.7
848.701	-32.6
848.876	53.42
849.052	49.32
849.227	43.18
849.403	10.41
849.578	57.51
849.753	14.51
849.929	39.08
850.104	0.17
850.279	61.61
850.454	47.27
850.63	88.23
850.805	30.89
850.98	16.55
851.155	-16.21
851.33	16.55
851.505	49.32
851.681	63.66
851.856	-40.79
852.031	30.89
852.206	-18.26
852.381	-26.45
852.556	37.03
852.731	94.38
852.906	-20.31
853.081	123.05
853.256	28.84
853.431	41.13
853.606	24.75
853.781	53.42
853.956	-38.74
854.131	8.36
854.305	-14.17
854.48	55.47
854.655	65.71
854.83	-34.64
855.005	-34.64
855.18	26.79
855.354	-42.84
855.529	-18.26
855.704	-67.41
855.879	0.17
856.053	112.81
856.228	88.23
856.403	41.13
856.577	-1.88
856.752	100.52
856.926	-24.4
857.101	30.89
857.276	63.66
857.45	-32.6
857.625	71.85
857.799	67.75
857.974	39.08
858.148	-85.84
858.323	-42.84
858.497	55.47
858.672	43.18
858.846	-24.4
859.02	45.23
859.195	-73.56
859.369	2.22
859.543	-26.45
859.718	63.66
859.892	51.37
860.066	6.31
860.241	-55.12
860.415	24.75
860.589	24.75
860.763	-42.84
860.938	49.32
861.112	-22.36
861.286	8.36
861.46	14.51
861.634	-18.26
861.808	39.08
861.982	-55.12
862.157	-57.17
862.331	22.7
862.505	75.95
862.679	-40.79
862.853	-1.88
863.027	-24.4
863.201	28.84
863.375	-22.36
863.549	14.51
863.722	-16.21
863.896	-22.36
864.07	-59.22
864.244	-26.45
864.418	-48.98
864.592	-34.64
864.766	63.66
864.939	39.08
865.113	47.27
865.287	45.23
865.461	14.51
865.634	104.62
865.808	-16.21
865.982	14.51
866.156	-10.07
866.329	-34.64
866.503	-61.27
866.676	-98.13
866.85	71.85
867.024	88.23
867.197	-10.07
867.371	112.81
867.544	-30.55
867.718	-18.26
867.891	45.23
868.065	-18.26
868.238	-63.32
868.412	-24.4
868.585	63.66
868.759	8.36
868.932	6.31
869.105	71.85
869.279	-5.97
869.452	-63.32
869.625	6.31
869.799	77.99
869.972	-42.84
870.145	32.94
870.319	14.51
870.492	-46.93
870.665	20.65
870.838	-3.93
871.011	-30.55
871.185	-10.07
871.358	-3.93
871.531	8.36
871.704	-18.26
871.877	14.51
872.05	-5.97
872.223	14.51
872.396	18.6
872.569	55.47
872.742	-12.12
872.915	51.37
873.088	65.71
873.261	-14.17
873.434	-8.02
873.607	2.22
873.78	59.56
873.953	-14.17
874.126	2.22
874.299	67.75
874.471	-44.88
874.644	32.94
874.817	24.75
874.99	65.71
875.163	6.31
875.335	-1.88
875.508	-59.22
875.681	26.79
875.853	30.89
876.026	39.08
876.199	57.51
876.371	-1.88
876.544	-51.03
876.717	-32.6
876.889	-22.36
877.062	8.36
877.234	2.22
877.407	-34.64
877.579	-36.69
877.752	-48.98
877.924	49.32
878.097	-22.36
878.269	43.18
878.442	32.94
878.614	24.75
878.786	-48.98
878.959	-42.84
879.131	43.18
879.303	-48.98
879.476	-18.26
879.648	96.43
879.82	2.22
879.993	55.47
880.165	-5.97
880.337	63.66
880.509	57.51
880.681	-30.55
880.854	16.55
881.026	-12.12
881.198	2.22
881.37	-57.17
881.542	12.46
881.714	-26.45
881.886	49.32
882.058	-18.26
882.23	-34.64
882.402	-10.07
882.574	-18.26
882.746	-106.32
882.918	26.79
883.09	-22.36
883.262	-57.17
883.434	-14.17
883.606	-22.36
883.778	-108.37
883.95	-10.07
884.122	-20.31
884.293	6.31
884.465	-26.45
884.637	45.23
884.809	37.03
884.98	-16.21
885.152	-18.26
885.324	77.99
885.496	24.75
885.667	-69.46
885.839	0.17
886.011	-8.02
886.182	-18.26
886.354	47.27
886.525	39.08
886.697	59.56
886.869	-26.45
887.04	6.31
887.212	32.94
887.383	65.71
887.555	6.31
887.726	-18.26
887.897	41.13
888.069	-18.26
888.24	4.27
888.412	6.31
888.583	63.66
888.754	-32.6
888.926	-67.41
889.097	24.75
889.268	-42.84
889.44	-51.03
889.611	-114.52
889.782	-83.8
889.953	-12.12
890.125	39.08
890.296	-16.21
890.467	0.17
890.638	34.99
890.809	2.22
890.98	-16.21
891.151	28.84
891.323	28.84
891.494	-30.55
891.665	-1.88
891.836	10.41
892.007	-46.93
892.178	-24.4
892.349	22.7
892.52	-24.4
892.691	-38.74
892.862	-36.69
893.032	16.55
893.203	-59.22
893.374	-18.26
893.545	22.7
893.716	-75.6
893.887	-22.36
894.057	-44.88
894.228	-22.36
894.399	16.55
894.57	24.75
894.74	-34.64
894.911	14.51
895.082	12.46
895.253	-1.88
895.423	-16.21
895.594	-42.84
895.764	26.79
895.935	-16.21
896.106	-26.45
896.276	-1.88
896.447	-1.88
896.617	22.7
896.788	6.31
896.958	-57.17
897.129	4.27
897.299	-42.84
897.47	-63.32
897.64	2.22
897.81	-65.36
897.981	-42.84
898.151	-24.4
898.322	-8.02
898.492	84.14
898.662	-96.08
898.832	-55.12
899.003	22.7
899.173	59.56
899.343	-22.36
899.513	-42.84
