Data from USB4F104151__278__14-46-19-956.txt Node

Date: Thu Mar 13 14:46:19 EDT 2025
User: louis
Spectrometer: USB4F10415
Trigger mode: 4
Integration Time (sec): 2.000000E-2
Scans to average: 1
Electric dark correction enabled: true
Nonlinearity correction enabled: false
Boxcar width: 0
XAxis mode: Wavelengths
Number of Pixels in Spectrum: 3648
>>>>>Begin Spectral Data<<<<<
178.204	-117.59
178.424	-117.59
178.644	-117.59
178.864	-68.44
179.084	-150.36
179.304	1.19
179.524	-43.86
179.744	9.39
179.964	17.58
180.184	-54.1
180.404	-37.72
180.624	13.48
180.844	-13.14
181.064	-7
181.283	79.02
181.503	-11.09
181.723	46.25
181.943	-41.81
182.163	74.92
182.383	5.29
182.602	66.73
182.822	62.63
183.042	38.06
183.262	-54.1
183.482	50.35
183.701	13.48
183.921	64.68
184.141	21.67
184.361	105.64
184.58	-27.48
184.8	29.87
185.02	38.06
185.239	40.11
185.459	48.3
185.679	111.78
185.898	13.48
186.118	23.72
186.338	11.43
186.557	13.48
186.777	-9.05
186.997	-17.24
187.216	-86.87
187.436	44.2
187.655	46.25
187.875	64.68
188.095	-17.24
188.314	64.68
188.534	5.29
188.753	-0.85
188.973	13.48
189.192	-39.76
189.412	38.06
189.631	29.87
189.851	122.02
190.07	40.11
190.29	21.67
190.509	-27.48
190.729	52.39
190.948	81.07
191.168	44.2
191.387	3.24
191.607	29.87
191.826	46.25
192.045	66.73
192.265	21.67
192.484	38.06
192.704	-0.85
192.923	-4.95
193.142	95.4
193.362	150.7
193.581	124.07
193.8	83.11
194.02	42.15
194.239	74.92
194.458	50.35
194.678	-39.76
194.897	79.02
195.116	-13.14
195.335	3.24
195.555	81.07
195.774	-27.48
195.993	76.97
196.212	13.48
196.432	-9.05
196.651	-25.43
196.87	31.91
197.089	81.07
197.308	62.63
197.528	17.58
197.747	-2.9
197.966	1.19
198.185	101.55
198.404	31.91
198.623	-9.05
198.842	5.29
199.062	50.35
199.281	99.5
199.5	21.67
199.719	33.96
199.938	25.77
200.157	87.21
200.376	38.06
200.595	107.69
200.814	83.11
201.033	33.96
201.252	93.35
201.471	-15.19
201.69	74.92
201.909	-11.09
202.128	-0.85
202.347	29.87
202.566	58.54
202.785	48.3
203.004	7.34
203.223	74.92
203.442	-15.19
203.661	-7
203.879	15.53
204.098	91.31
204.317	-11.09
204.536	68.78
204.755	81.07
204.974	-7
205.193	13.48
205.411	74.92
205.63	-13.14
205.849	64.68
206.068	-74.58
206.287	-11.09
206.505	66.73
206.724	-27.48
206.943	27.82
207.162	29.87
207.381	5.29
207.599	13.48
207.818	29.87
208.037	17.58
208.255	-35.67
208.474	5.29
208.693	25.77
208.911	17.58
209.13	15.53
209.349	17.58
209.567	113.83
209.786	15.53
210.005	62.63
210.223	-7
210.442	-33.62
210.661	46.25
210.879	105.64
211.098	44.2
211.316	17.58
211.535	-9.05
211.753	74.92
211.972	79.02
212.191	23.72
212.409	33.96
212.628	-11.09
212.846	-7
213.065	58.54
213.283	46.25
213.502	-41.81
213.72	9.39
213.938	-0.85
214.157	-9.05
214.375	21.67
214.594	-45.91
214.812	70.83
215.031	-2.9
215.249	7.34
215.467	38.06
215.686	-11.09
215.904	42.15
216.122	79.02
216.341	40.11
216.559	15.53
216.778	111.78
216.996	13.48
217.214	42.15
217.432	-60.24
217.651	-56.15
217.869	-25.43
218.087	-33.62
218.306	11.43
218.524	-9.05
218.742	48.3
218.96	70.83
219.179	48.3
219.397	72.87
219.615	52.39
219.833	-33.62
220.051	7.34
220.27	40.11
220.488	95.4
220.706	15.53
220.924	40.11
221.142	-27.48
221.36	-13.14
221.578	70.83
221.796	-2.9
222.015	25.77
222.233	46.25
222.451	109.74
222.669	42.15
222.887	54.44
223.105	42.15
223.323	-31.57
223.541	-4.95
223.759	46.25
223.977	-2.9
224.195	87.21
224.413	62.63
224.631	-19.29
224.849	5.29
225.067	130.22
225.285	7.34
225.503	29.87
225.721	-47.96
225.939	15.53
226.157	46.25
226.375	99.5
226.592	-52.05
226.81	40.11
227.028	-9.05
227.246	113.83
227.464	40.11
227.682	144.55
227.9	38.06
228.117	72.87
228.335	62.63
228.553	130.22
228.771	74.92
228.989	-25.43
229.206	74.92
229.424	-2.9
229.642	-9.05
229.86	-7
230.077	13.48
230.295	9.39
230.513	42.15
230.731	72.87
230.948	36.01
231.166	103.59
231.384	103.59
231.601	7.34
231.819	97.45
232.037	33.96
232.254	36.01
232.472	36.01
232.689	19.63
232.907	23.72
233.125	-13.14
233.342	-2.9
233.56	52.39
233.777	-33.62
233.995	-0.85
234.213	70.83
234.43	-52.05
234.648	7.34
234.865	54.44
235.083	70.83
235.3	21.67
235.518	7.34
235.735	48.3
235.953	-41.81
236.17	62.63
236.388	42.15
236.605	54.44
236.822	115.88
237.04	83.11
237.257	103.59
237.475	46.25
237.692	72.87
237.909	-33.62
238.127	-29.52
238.344	52.39
238.562	87.21
238.779	11.43
238.996	1.19
239.214	54.44
239.431	128.17
239.648	31.91
239.865	87.21
240.083	58.54
240.3	11.43
240.517	5.29
240.735	-9.05
240.952	31.91
241.169	38.06
241.386	-0.85
241.603	-11.09
241.821	5.29
242.038	87.21
242.255	95.4
242.472	21.67
242.689	85.16
242.907	29.87
243.124	119.98
243.341	40.11
243.558	21.67
243.775	-17.24
243.992	50.35
244.209	23.72
244.426	42.15
244.643	15.53
244.86	-0.85
245.078	103.59
245.295	5.29
245.512	31.91
245.729	27.82
245.946	44.2
246.163	31.91
246.38	15.53
246.597	66.73
246.814	-84.82
247.031	3.24
247.248	-31.57
247.464	48.3
247.681	48.3
247.898	62.63
248.115	54.44
248.332	15.53
248.549	119.98
248.766	68.78
248.983	58.54
249.2	111.78
249.417	46.25
249.633	-11.09
249.85	38.06
250.067	-52.05
250.284	-25.43
250.501	48.3
250.717	103.59
250.934	56.49
251.151	1.19
251.368	31.91
251.585	74.92
251.801	42.15
252.018	-29.52
252.235	72.87
252.451	40.11
252.668	66.73
252.885	38.06
253.102	-11.09
253.318	66.73
253.535	-25.43
253.752	-47.96
253.968	-11.09
254.185	64.68
254.401	21.67
254.618	5.29
254.835	-23.38
255.051	50.35
255.268	97.45
255.484	58.54
255.701	-27.48
255.917	117.93
256.134	-2.9
256.351	29.87
256.567	-9.05
256.784	58.54
257	-11.09
257.217	58.54
257.433	111.78
257.65	58.54
257.866	64.68
258.082	-9.05
258.299	25.77
258.515	-27.48
258.732	-0.85
258.948	-2.9
259.165	13.48
259.381	62.63
259.597	-33.62
259.814	17.58
260.03	38.06
260.246	50.35
260.463	5.29
260.679	64.68
260.895	44.2
261.112	13.48
261.328	17.58
261.544	-60.24
261.761	60.59
261.977	-72.53
262.193	-7
262.409	29.87
262.626	58.54
262.842	29.87
263.058	-19.29
263.274	101.55
263.49	-11.09
263.707	66.73
263.923	33.96
264.139	-52.05
264.355	54.44
264.571	79.02
264.787	130.22
265.004	38.06
265.22	66.73
265.436	107.69
265.652	29.87
265.868	54.44
266.084	-47.96
266.3	21.67
266.516	-60.24
266.732	9.39
266.948	70.83
267.164	50.35
267.38	62.63
267.596	23.72
267.812	25.77
268.028	-41.81
268.244	58.54
268.46	74.92
268.676	17.58
268.892	13.48
269.108	38.06
269.324	-52.05
269.54	-15.19
269.756	17.58
269.972	-0.85
270.188	38.06
270.403	-2.9
270.619	48.3
270.835	72.87
271.051	-27.48
271.267	5.29
271.483	76.97
271.698	19.63
271.914	21.67
272.13	9.39
272.346	21.67
272.562	15.53
272.777	58.54
272.993	46.25
273.209	-47.96
273.425	87.21
273.64	23.72
273.856	-21.33
274.072	25.77
274.287	54.44
274.503	13.48
274.719	70.83
274.934	33.96
275.15	23.72
275.366	5.29
275.581	5.29
275.797	79.02
276.012	58.54
276.228	38.06
276.444	29.87
276.659	76.97
276.875	-76.63
277.09	13.48
277.306	56.49
277.521	56.49
277.737	79.02
277.952	31.91
278.168	46.25
278.383	-15.19
278.599	-7
278.814	58.54
279.03	-39.76
279.245	62.63
279.461	-23.38
279.676	-41.81
279.892	-41.81
280.107	66.73
280.322	38.06
280.538	-27.48
280.753	3.24
280.969	54.44
281.184	38.06
281.399	46.25
281.615	38.06
281.83	87.21
282.045	1.19
282.26	31.91
282.476	27.82
282.691	91.31
282.906	58.54
283.122	21.67
283.337	31.91
283.552	21.67
283.767	21.67
283.983	-19.29
284.198	40.11
284.413	46.25
284.628	105.64
284.843	5.29
285.058	5.29
285.274	27.82
285.489	21.67
285.704	62.63
285.919	-60.24
286.134	42.15
286.349	54.44
286.564	-9.05
286.779	64.68
286.995	21.67
287.21	7.34
287.425	31.91
287.64	-35.67
287.855	9.39
288.07	81.07
288.285	38.06
288.5	70.83
288.715	-0.85
288.93	42.15
289.145	7.34
289.36	-2.9
289.575	33.96
289.79	17.58
290.004	87.21
290.219	99.5
290.434	79.02
290.649	42.15
290.864	31.91
291.079	-21.33
291.294	29.87
291.509	1.19
291.724	15.53
291.938	70.83
292.153	-27.48
292.368	72.87
292.583	29.87
292.798	5.29
293.012	64.68
293.227	31.91
293.442	-7
293.657	91.31
293.871	-60.24
294.086	44.2
294.301	62.63
294.516	72.87
294.73	42.15
294.945	81.07
295.16	48.3
295.374	36.01
295.589	48.3
295.804	11.43
296.018	46.25
296.233	136.36
296.447	21.67
296.662	15.53
296.877	42.15
297.091	27.82
297.306	46.25
297.52	42.15
297.735	46.25
297.949	31.91
298.164	56.49
298.378	44.2
298.593	66.73
298.807	40.11
299.022	-68.44
299.236	70.83
299.451	29.87
299.665	-27.48
299.88	64.68
300.094	13.48
300.309	79.02
300.523	1.19
300.737	-19.29
300.952	128.17
301.166	46.25
301.381	-9.05
301.595	50.35
301.809	74.92
302.024	-27.48
302.238	38.06
302.452	103.59
302.667	7.34
302.881	48.3
303.095	111.78
303.309	25.77
303.524	5.29
303.738	76.97
303.952	-11.09
304.166	95.4
304.381	-27.48
304.595	113.83
304.809	40.11
305.023	38.06
305.237	-13.14
305.452	21.67
305.666	62.63
305.88	81.07
306.094	70.83
306.308	46.25
306.522	-17.24
306.736	46.25
306.95	21.67
307.164	54.44
307.379	91.31
307.593	46.25
307.807	54.44
308.021	101.55
308.235	76.97
308.449	-33.62
308.663	-13.14
308.877	138.41
309.091	38.06
309.305	101.55
309.519	27.82
309.733	111.78
309.947	11.43
310.161	13.48
310.374	42.15
310.588	70.83
310.802	-19.29
311.016	103.59
311.23	29.87
311.444	-19.29
311.658	99.5
311.872	48.3
312.085	54.44
312.299	5.29
312.513	122.02
312.727	-13.14
312.941	-23.38
313.154	48.3
313.368	58.54
313.582	-39.76
313.796	-27.48
314.009	48.3
314.223	38.06
314.437	-27.48
314.651	97.45
314.864	33.96
315.078	31.91
315.292	21.67
315.505	25.77
315.719	79.02
315.933	91.31
316.146	1.19
316.36	-0.85
316.573	74.92
316.787	72.87
317.001	89.26
317.214	46.25
317.428	99.5
317.641	-31.57
317.855	11.43
318.068	46.25
318.282	5.29
318.495	9.39
318.709	62.63
318.922	38.06
319.136	99.5
319.349	46.25
319.563	-2.9
319.776	46.25
319.99	38.06
320.203	124.07
320.417	25.77
320.63	89.26
320.843	15.53
321.057	124.07
321.27	11.43
321.483	44.2
321.697	1.19
321.91	3.24
322.124	38.06
322.337	-7
322.55	36.01
322.763	50.35
322.977	74.92
323.19	13.48
323.403	13.48
323.617	54.44
323.83	79.02
324.043	-37.72
324.256	25.77
324.469	38.06
324.683	60.59
324.896	87.21
325.109	25.77
325.322	-47.96
325.535	54.44
325.748	56.49
325.962	-0.85
326.175	70.83
326.388	44.2
326.601	85.16
326.814	50.35
327.027	5.29
327.24	40.11
327.453	54.44
327.666	91.31
327.879	74.92
328.092	66.73
328.305	23.72
328.518	29.87
328.731	29.87
328.944	29.87
329.157	46.25
329.37	-17.24
329.583	95.4
329.796	58.54
330.009	5.29
330.222	79.02
330.435	31.91
330.648	29.87
330.861	42.15
331.073	-17.24
331.286	15.53
331.499	44.2
331.712	29.87
331.925	33.96
332.138	-4.95
332.35	54.44
332.563	46.25
332.776	54.44
332.989	29.87
333.202	15.53
333.414	56.49
333.627	1.19
333.84	62.63
334.053	-0.85
334.265	23.72
334.478	5.29
334.691	113.83
334.903	7.34
335.116	19.63
335.329	46.25
335.541	46.25
335.754	70.83
335.966	111.78
336.179	9.39
336.392	-9.05
336.604	-9.05
336.817	42.15
337.029	56.49
337.242	48.3
337.454	76.97
337.667	72.87
337.88	36.01
338.092	-17.24
338.305	62.63
338.517	36.01
338.729	-27.48
338.942	48.3
339.154	-15.19
339.367	21.67
339.579	109.74
339.792	-11.09
340.004	-2.9
340.217	50.35
340.429	23.72
340.641	46.25
340.854	134.31
341.066	15.53
341.278	62.63
341.491	64.68
341.703	-43.86
341.915	38.06
342.128	79.02
342.34	72.87
342.552	21.67
342.764	58.54
342.977	29.87
343.189	58.54
343.401	42.15
343.613	-13.14
343.826	58.54
344.038	87.21
344.25	15.53
344.462	64.68
344.674	42.15
344.886	19.63
345.099	-11.09
345.311	38.06
345.523	7.34
345.735	25.77
345.947	52.39
346.159	81.07
346.371	-70.48
346.583	38.06
346.795	134.31
347.007	72.87
347.219	50.35
347.431	-15.19
347.643	66.73
347.855	-15.19
348.067	70.83
348.279	-15.19
348.491	64.68
348.703	79.02
348.915	97.45
349.127	-19.29
349.339	40.11
349.551	66.73
349.763	136.36
349.975	29.87
350.187	76.97
350.399	5.29
350.61	70.83
350.822	42.15
351.034	60.59
351.246	-41.81
351.458	66.73
351.669	33.96
351.881	60.59
352.093	29.87
352.305	1.19
352.517	128.17
352.728	62.63
352.94	79.02
353.152	81.07
353.363	46.25
353.575	99.5
353.787	60.59
353.999	87.21
354.21	99.5
354.422	64.68
354.633	-7
354.845	70.83
355.057	99.5
355.268	111.78
355.48	13.48
355.692	74.92
355.903	38.06
356.115	42.15
356.326	15.53
356.538	64.68
356.749	81.07
356.961	62.63
357.172	93.35
357.384	-27.48
357.595	29.87
357.807	5.29
358.018	62.63
358.23	91.31
358.441	97.45
358.653	23.72
358.864	46.25
359.075	-27.48
359.287	25.77
359.498	38.06
359.709	17.58
359.921	62.63
360.132	83.11
360.344	25.77
360.555	103.59
360.766	48.3
360.977	50.35
361.189	54.44
361.4	87.21
361.611	107.69
361.823	74.92
362.034	56.49
362.245	-0.85
362.456	29.87
362.667	42.15
362.879	13.48
363.09	99.5
363.301	134.31
363.512	83.11
363.723	17.58
363.935	46.25
364.146	81.07
364.357	38.06
364.568	50.35
364.779	62.63
364.99	25.77
365.201	21.67
365.412	79.02
365.623	-31.57
365.834	56.49
366.045	62.63
366.256	113.83
366.467	11.43
366.678	38.06
366.889	17.58
367.1	7.34
367.311	91.31
367.522	128.17
367.733	27.82
367.944	103.59
368.155	23.72
368.366	54.44
368.577	7.34
368.788	119.98
368.999	1.19
369.209	15.53
369.42	79.02
369.631	124.07
369.842	64.68
370.053	52.39
370.264	68.78
370.474	11.43
370.685	66.73
370.896	50.35
371.107	27.82
371.317	99.5
371.528	5.29
371.739	25.77
371.95	81.07
372.16	89.26
372.371	29.87
372.582	76.97
372.792	99.5
373.003	89.26
373.214	56.49
373.424	42.15
373.635	25.77
373.846	23.72
374.056	29.87
374.267	21.67
374.477	142.5
374.688	-33.62
374.898	93.35
375.109	97.45
375.319	56.49
375.53	50.35
375.74	42.15
375.951	79.02
376.161	-2.9
376.372	66.73
376.582	-27.48
376.793	79.02
377.003	33.96
377.214	64.68
377.424	23.72
377.635	48.3
377.845	46.25
378.055	21.67
378.266	23.72
378.476	62.63
378.686	95.4
378.897	95.4
379.107	89.26
379.317	95.4
379.528	68.78
379.738	33.96
379.948	42.15
380.158	-27.48
380.369	54.44
380.579	54.44
380.789	21.67
380.999	54.44
381.21	128.17
381.42	107.69
381.63	-11.09
381.84	105.64
382.05	111.78
382.261	142.5
382.471	144.55
382.681	-11.09
382.891	40.11
383.101	103.59
383.311	29.87
383.521	70.83
383.731	-23.38
383.941	54.44
384.151	107.69
384.361	-27.48
384.571	5.29
384.781	160.94
384.991	107.69
385.201	119.98
385.411	113.83
385.621	130.22
385.831	62.63
386.041	76.97
386.251	87.21
386.461	-11.09
386.671	1.19
386.881	56.49
387.091	46.25
387.301	31.91
387.511	7.34
387.72	79.02
387.93	111.78
388.14	17.58
388.35	38.06
388.56	111.78
388.769	134.31
388.979	21.67
389.189	70.83
389.399	74.92
389.609	36.01
389.818	169.13
390.028	115.88
390.238	91.31
390.447	62.63
390.657	107.69
390.867	40.11
391.076	-11.09
391.286	-19.29
391.496	66.73
391.705	-23.38
391.915	64.68
392.125	52.39
392.334	56.49
392.544	27.82
392.753	93.35
392.963	21.67
393.172	103.59
393.382	56.49
393.591	103.59
393.801	54.44
394.01	56.49
394.22	54.44
394.429	31.91
394.639	195.75
394.848	95.4
395.058	95.4
395.267	140.46
395.477	95.4
395.686	62.63
395.895	152.74
396.105	169.13
396.314	38.06
396.524	87.21
396.733	70.83
396.942	130.22
397.152	72.87
397.361	72.87
397.57	72.87
397.78	107.69
397.989	89.26
398.198	103.59
398.407	58.54
398.617	79.02
398.826	124.07
399.035	83.11
399.244	115.88
399.453	70.83
399.663	70.83
399.872	46.25
400.081	89.26
400.29	128.17
400.499	119.98
400.708	97.45
400.917	58.54
401.127	138.41
401.336	122.02
401.545	255.14
401.754	93.35
401.963	95.4
402.172	130.22
402.381	79.02
402.59	105.64
402.799	128.17
403.008	91.31
403.217	169.13
403.426	15.53
403.635	111.78
403.844	93.35
404.053	40.11
404.262	89.26
404.471	152.74
404.68	185.51
404.888	148.65
405.097	83.11
405.306	132.26
405.515	122.02
405.724	187.56
405.933	87.21
406.142	158.89
406.35	132.26
406.559	205.99
406.768	179.37
406.977	162.98
407.185	226.47
407.394	226.47
407.603	171.18
407.812	197.8
408.02	218.28
408.229	165.03
408.438	175.27
408.646	185.51
408.855	152.74
409.064	222.38
409.272	220.33
409.481	273.57
409.69	242.85
409.898	238.76
410.107	244.9
410.315	289.96
410.524	267.43
410.733	222.38
410.941	218.28
411.15	294.05
411.358	335.01
411.567	361.64
411.775	332.97
411.984	349.35
412.192	386.21
412.401	289.96
412.609	435.36
412.818	304.29
413.026	392.36
413.234	384.16
413.443	410.79
413.651	392.36
413.86	406.69
414.068	535.71
414.276	439.46
414.485	570.53
414.693	490.66
414.901	552.1
415.11	537.76
415.318	580.77
415.526	580.77
415.734	603.3
415.943	652.45
416.151	644.26
416.359	619.68
416.567	603.3
416.776	808.09
416.984	689.31
417.192	832.67
417.4	758.94
417.608	787.61
417.817	758.94
418.025	793.76
418.233	988.32
418.441	961.69
418.649	937.12
418.857	955.55
419.065	1232.02
419.273	961.69
419.481	1162.39
419.689	1111.19
419.897	1195.16
420.105	1203.35
420.313	1227.93
420.521	1320.09
420.729	1291.41
420.937	1393.81
421.145	1326.23
421.353	1512.6
421.561	1457.3
421.769	1555.6
421.977	1561.75
422.185	1512.6
422.393	1625.23
422.601	1821.84
422.809	1848.46
423.017	1758.35
423.224	1954.96
423.432	2043.02
423.64	1959.05
423.848	2167.95
424.056	2122.89
424.263	2276.49
424.471	2303.11
424.679	2344.07
424.887	2448.52
425.094	2497.67
425.302	2479.24
425.51	2538.63
425.718	2690.18
425.925	2722.95
426.133	2774.14
426.341	3038.33
426.548	3138.68
426.756	2978.94
426.964	3157.11
427.171	3257.46
427.379	3339.38
427.586	3296.38
427.794	3585.14
428.001	3675.25
428.209	3830.9
428.417	3746.93
428.624	4035.69
428.832	3980.4
429.039	3961.97
429.247	4088.94
429.454	4389.99
429.662	4797.54
429.869	4473.96
430.076	4719.71
430.284	4461.67
430.491	4654.18
430.699	5092.44
430.906	4924.51
431.114	4996.19
431.321	5411.93
431.528	5377.11
431.736	5758.03
431.943	6009.93
432.15	5809.23
432.358	5962.83
432.565	6212.68
432.772	6263.88
432.979	6577.22
433.187	6483.02
433.394	6691.91
433.601	7062.59
433.808	7054.4
434.016	6960.19
434.223	7334.97
434.43	7855.15
434.637	7674.93
434.844	8098.86
435.052	8227.89
435.259	8148.01
435.466	8338.48
435.673	8289.32
435.88	8811.56
436.087	9303.07
436.294	9466.91
436.501	8842.28
436.708	9253.92
436.915	9477.15
437.122	9962.51
437.329	9999.38
437.537	10241.04
437.743	10304.53
437.95	10353.68
438.157	10875.91
438.364	11318.27
438.571	11293.69
438.778	11484.16
438.985	12383.21
439.192	11854.84
439.399	12155.89
439.606	11826.17
439.813	12676.07
440.02	13417.44
440.227	13167.59
440.433	13081.57
440.64	13196.26
440.847	13407.2
441.054	13775.83
441.261	14513.1
441.467	14326.74
441.674	14691.27
441.881	15008.71
442.088	15201.22
442.294	15170.5
442.501	15205.31
442.708	15922.1
442.914	16198.58
443.121	16868.27
443.328	16737.2
443.534	17896.35
443.741	17177.51
443.948	16892.84
444.154	18394
444.361	18273.17
444.568	18371.47
444.774	18236.31
444.981	18461.58
445.187	19024.78
445.394	19872.64
445.6	19512.19
445.807	21670.75
446.013	20806.51
446.22	21179.24
446.426	21977.95
446.633	22086.49
446.839	22930.25
447.046	21693.28
447.252	23233.35
447.459	23403.33
447.665	22827.85
447.871	23868.22
448.078	25318.18
448.284	23778.11
448.491	24623.92
448.697	25590.56
448.903	25971.49
449.11	25989.92
449.316	25887.52
449.522	26161.95
449.728	27122.44
449.935	27368.2
450.141	27314.95
450.347	27935.49
450.553	26964.75
450.76	27462.41
450.966	28187.39
451.172	28087.04
451.378	28607.22
451.584	27921.15
451.791	28977.9
451.997	28760.82
452.203	29240.04
452.409	29418.22
452.615	29096.69
452.821	28259.07
453.027	27951.87
453.233	29512.42
453.44	28447.48
453.646	28513.02
453.852	28386.04
454.058	29479.66
454.264	28543.74
454.47	29127.41
454.676	28136.19
454.882	29194.99
455.088	26745.62
455.294	27163.4
455.5	28023.55
455.705	27994.88
455.911	26592.02
456.117	26241.82
456.323	26129.18
456.529	24959.79
456.735	25723.68
456.941	25105.2
457.147	24718.13
457.352	24183.61
457.558	23763.78
457.764	24007.48
457.97	23307.08
458.176	22838.09
458.381	23008.08
458.587	21924.7
458.793	21807.97
458.999	20849.52
459.204	22371.16
459.41	21519.2
459.616	20087.67
459.821	20079.48
460.027	20200.31
460.233	19635.07
460.438	18817.93
460.644	18918.28
460.85	18285.46
461.055	17871.77
461.261	17867.67
461.466	16589.74
461.672	16081.85
461.878	17150.88
462.083	16225.2
462.289	15868.86
462.494	15434.69
462.7	14918.6
462.905	14584.78
463.111	15107.01
463.316	15320
463.522	14881.74
463.727	14922.69
463.932	14789.58
464.138	14724.04
464.343	14889.93
464.549	14289.87
464.754	14693.32
464.959	14773.19
465.165	14513.1
465.37	13958.1
465.575	13652.95
465.781	14134.23
465.986	14130.13
466.191	13616.09
466.397	13429.73
466.602	12946.41
466.807	13243.36
467.012	13356
467.218	13323.23
467.423	13218.78
467.628	13013.99
467.833	13736.92
468.038	13120.48
468.244	12813.29
468.449	13583.32
468.654	12909.54
468.859	12815.34
469.064	12762.09
469.269	12424.17
469.474	12448.75
469.679	12801
469.885	12360.69
470.09	12510.19
470.295	12442.6
470.5	12014.58
470.705	12133.36
470.91	11912.18
471.115	11754.49
471.32	12133.36
471.525	12012.53
471.73	11582.46
471.935	11504.64
472.139	11140.1
472.344	11574.27
472.549	11318.27
472.754	11256.83
472.959	10968.07
473.164	10599.43
473.369	10615.82
473.574	11006.98
473.778	10859.52
473.983	10728.45
474.188	10773.51
474.393	10437.64
474.598	10451.98
474.802	10243.09
475.007	10167.31
475.212	9821.2
475.417	9810.96
475.621	9823.25
475.826	9753.62
476.031	9702.42
476.235	9516.06
476.44	9727
476.645	9528.35
476.849	9444.38
477.054	9384.99
477.259	9266.21
477.463	9221.15
477.668	8944.67
477.872	9167.9
478.077	9036.83
478.282	8586.28
478.486	8752.17
478.691	8780.84
478.895	8541.22
479.1	8590.38
479.304	8434.73
479.509	8217.65
479.713	8383.53
479.918	8213.55
480.122	8016.94
480.326	8389.67
480.531	8125.49
480.735	7896.11
480.94	8107.05
481.144	8262.7
481.348	7963.7
481.553	7935.03
481.757	7896.11
481.961	7826.48
482.166	8051.76
482.37	8010.8
482.574	7857.2
482.778	7935.03
482.983	7971.89
483.187	7844.91
483.391	8287.28
483.595	7898.16
483.8	7668.79
484.004	7935.03
484.208	7914.55
484.412	7828.53
484.616	7951.41
484.821	8057.9
485.025	7730.23
485.229	7828.53
485.433	7851.06
485.637	8043.57
485.841	7855.15
486.045	7873.59
486.249	8002.61
486.453	7941.17
486.657	7828.53
486.861	8018.99
487.065	7619.64
487.269	7834.68
487.473	7820.34
487.677	7978.03
487.881	8057.9
488.085	8002.61
488.289	7978.03
488.493	7904.31
488.697	8139.82
488.901	8094.77
489.105	7892.02
489.309	8084.53
489.512	8082.48
489.716	8111.15
489.92	8057.9
490.124	8229.93
490.328	8244.27
490.531	8127.53
490.735	8266.8
490.939	8221.74
491.143	8401.96
491.346	8328.24
491.55	8569.9
491.754	8379.43
491.958	8375.34
492.161	8160.3
492.365	8586.28
492.569	8287.28
492.772	8561.7
492.976	8688.68
493.18	8584.23
493.383	8791.08
493.587	8860.71
493.79	8983.59
493.994	8762.4
494.197	8897.57
494.401	9036.83
494.605	8952.87
494.808	9073.7
495.012	9088.03
495.215	9008.16
495.419	9311.26
495.622	9184.29
495.825	9591.83
496.029	9610.26
496.232	9563.16
496.436	9722.9
496.639	9847.83
496.843	9966.61
497.046	10134.54
497.249	10222.61
497.453	10249.23
497.656	10282
497.859	10322.96
498.063	10613.77
498.266	10613.77
498.469	10755.08
498.673	10779.65
498.876	11170.82
499.079	11115.52
499.282	11244.54
499.485	11441.15
499.689	11404.28
499.892	11871.22
500.095	11613.18
500.298	11707.38
500.501	11949.04
500.705	12268.53
500.908	12243.95
501.111	12368.88
501.314	12358.64
501.517	12671.98
501.72	12852.2
501.923	12837.86
502.126	13337.57
502.329	13550.56
502.532	13714.39
502.735	13444.06
502.938	13865.94
503.141	13874.13
503.344	14107.6
503.547	14121.94
503.75	14564.3
503.953	14842.82
504.156	14980.04
504.359	14885.83
504.562	15195.07
504.765	15299.52
504.968	15616.96
505.17	15795.13
505.373	16126.9
505.576	16126.9
505.779	16481.2
505.982	16214.96
506.185	16757.67
506.387	16739.24
506.59	16747.44
506.793	16980.9
506.996	17140.65
507.198	17669.02
507.401	17595.29
507.604	18092.95
507.807	18240.4
508.009	18262.93
508.212	18467.73
508.415	19127.17
508.617	18908.04
508.82	19000.2
509.022	19065.74
509.225	19395.46
509.428	19770.24
509.63	20059
509.833	20083.58
510.035	20712.3
510.238	20818.8
510.44	20992.87
510.643	20970.35
510.845	21234.53
511.048	21394.28
511.25	21486.43
511.453	21797.73
511.655	22516.56
511.858	22299.48
512.06	22457.17
512.262	22807.37
512.465	22827.85
512.667	23358.28
512.87	23468.87
513.072	23475.01
513.274	24073.02
513.477	24419.13
513.679	24650.55
513.881	24632.11
514.084	24922.93
514.286	24910.64
514.488	25477.93
514.69	25893.66
514.893	25928.48
515.095	26219.29
515.297	26499.86
515.499	26577.69
515.701	26936.08
515.904	27228.94
516.106	27456.26
516.308	27812.61
516.51	28084.99
516.712	28017.41
516.914	28525.3
517.116	28465.91
517.318	28887.79
517.52	29139.69
517.722	29246.19
517.925	29698.79
518.127	30171.87
518.329	30221.02
518.531	30147.29
518.733	30628.57
518.935	30653.14
519.136	30952.15
519.338	31570.63
519.54	31474.38
519.742	32357.05
519.944	31955.65
520.146	32760.5
520.348	32742.07
520.55	32989.88
520.752	32918.2
520.954	33624.75
521.155	33647.27
521.357	33917.61
521.559	34400.93
521.761	34579.1
521.963	34501.28
522.164	34804.38
522.366	34738.84
522.568	35453.58
522.77	35353.23
522.971	36006.53
523.173	35814.02
523.375	35957.38
523.576	36121.22
523.778	36215.43
523.98	36588.16
524.181	36950.65
524.383	37116.53
524.584	37261.94
524.786	37266.03
524.988	37132.92
525.189	38296.16
525.391	38171.24
525.592	37988.97
525.794	38316.64
525.995	38324.83
526.197	38584.93
526.398	38984.28
526.6	38642.27
526.801	39068.25
527.003	39572.05
527.204	39244.37
527.406	39576.14
527.607	39930.44
527.808	39633.49
528.01	39430.74
528.211	39549.52
528.412	40380.99
528.614	40163.91
528.815	40073.8
529.016	40473.15
529.218	40131.14
529.419	40155.72
529.62	40397.38
529.822	40569.41
530.023	40507.97
530.224	40612.41
530.425	40532.54
530.626	40608.32
530.828	40247.88
531.029	40911.42
531.23	40522.3
531.431	40983.1
531.632	41097.78
531.833	41359.92
532.035	41099.83
532.236	41183.8
532.437	41421.36
532.638	41054.78
532.839	41370.16
533.04	41763.37
533.241	40858.17
533.442	42086.95
533.643	41617.97
533.844	41783.85
534.045	41378.36
534.246	41306.68
534.447	41368.12
534.648	41304.63
534.849	41450.03
535.05	41478.71
535.251	41828.91
535.451	41695.79
535.652	41658.93
535.853	41843.24
536.054	41937.45
536.255	41900.59
536.456	41663.02
536.657	42332.71
536.857	41339.44
537.058	41828.91
537.259	42431.01
537.46	41757.23
537.66	41761.33
537.861	41824.81
538.062	41673.26
538.263	41935.4
538.463	41384.5
538.664	41902.64
538.865	41667.12
539.065	41927.21
539.266	41480.75
539.466	42175.02
539.667	40935.99
539.868	42027.56
540.068	41493.04
540.269	41417.27
540.469	41779.76
540.67	41214.52
540.87	42023.47
541.071	41511.47
541.271	41699.89
541.472	41906.73
541.672	41517.62
541.873	41626.16
542.073	41245.24
542.274	41663.02
542.474	41161.27
542.675	41423.41
542.875	41939.5
543.075	41783.85
543.276	40704.57
543.476	41980.46
543.676	41384.5
543.877	41878.06
544.077	41523.76
544.277	41697.84
544.478	41333.3
544.678	41906.73
544.878	41785.9
545.078	41386.55
545.279	41183.8
545.479	41517.62
545.679	41536.05
545.879	41462.32
546.079	41472.56
546.28	41359.92
546.48	41151.03
546.68	41261.62
546.88	41239.09
547.08	41091.64
547.28	41540.14
547.48	41347.64
547.68	41585.2
547.88	41288.24
548.081	41568.82
548.281	41554.48
548.481	41380.4
548.681	41509.43
548.881	40821.31
549.081	41296.44
549.28	41421.36
549.48	41740.85
549.68	41126.46
549.88	41497.14
550.08	41013.82
550.28	41187.89
550.48	41452.08
550.68	41511.47
550.88	41189.94
551.08	41235
551.279	41425.46
551.479	40847.93
551.679	41075.26
551.879	41206.33
552.079	41335.35
552.278	41058.87
552.478	40995.39
552.678	40903.23
552.878	41396.79
553.077	41163.32
553.277	40753.72
553.477	41615.92
553.676	40456.77
553.876	41015.86
554.076	41173.56
554.275	40757.82
554.475	40450.63
554.674	41071.16
554.874	40618.56
555.074	40430.15
555.273	40682.05
555.473	40999.48
555.672	40557.12
555.872	40591.94
556.071	40888.89
556.271	40944.19
556.47	40911.42
556.67	40223.3
556.869	40571.46
557.068	40464.96
557.268	40206.92
557.467	40321.6
557.667	40194.63
557.866	40282.69
558.065	40194.63
558.265	40059.46
558.464	39912.01
558.663	40401.47
558.863	39797.32
559.062	40424
559.261	39737.93
559.461	40125
559.66	39742.03
559.859	39744.08
560.058	39719.5
560.258	39957.06
560.457	39336.53
560.656	39690.83
560.855	39823.95
561.054	40049.22
561.253	39387.73
561.453	39522.9
561.652	39479.89
561.851	40053.32
562.05	39213.65
562.249	39127.64
562.448	39371.35
562.647	39459.41
562.846	39395.92
563.045	39230.04
563.244	39111.25
563.443	39352.91
563.642	38701.66
563.841	38988.38
564.04	38969.94
564.239	39096.92
564.438	38865.5
564.637	38863.45
564.836	38953.56
565.035	38453.86
565.234	38664.8
565.432	38373.99
565.631	38042.21
565.83	38283.87
566.029	38161
566.228	38183.52
566.427	38263.39
566.625	38214.24
566.824	37737.07
567.023	38347.36
567.222	37274.23
567.42	38226.53
567.619	37775.98
567.818	37706.35
568.016	37775.98
568.215	37927.53
568.414	37263.99
568.612	37597.8
568.811	37517.93
569.01	37206.64
569.208	36659.84
569.407	37317.23
569.605	37089.91
569.804	37642.86
570.002	36768.38
570.201	37032.57
570.4	36774.52
570.598	36799.1
570.797	36352.64
570.995	36807.29
571.193	36330.11
571.392	36676.22
571.59	36409.98
571.789	36135.56
571.987	36371.07
572.186	36262.53
572.384	35961.48
572.582	35893.89
572.781	35900.04
572.979	35400.33
573.177	35957.38
573.376	36100.74
573.574	35420.81
573.772	35529.36
573.971	35451.53
574.169	35193.49
574.367	35095.19
574.565	35003.03
574.763	34941.59
574.962	34996.88
575.16	35087
575.358	34994.84
575.556	34470.56
575.754	35060.37
575.952	34435.74
576.151	34577.05
576.349	34140.83
576.547	34382.49
576.745	34609.82
576.943	34372.25
577.141	34110.11
577.339	34280.1
577.537	34140.83
577.735	33684.14
577.933	33850.02
578.131	33970.85
578.329	33628.84
578.527	33352.37
578.725	33239.73
578.923	33485.48
579.121	33376.94
579.319	33227.44
579.516	33137.33
579.714	32740.02
579.912	32860.85
580.11	33094.32
580.308	33032.88
580.506	32973.49
580.704	32359.1
580.901	32537.27
581.099	32563.9
581.297	32330.43
581.495	32473.79
581.692	32400.06
581.89	32088.77
582.088	32197.31
582.285	31738.57
582.483	32139.97
582.681	32019.14
582.878	31849.16
583.076	31560.39
583.274	31886.02
583.471	31578.82
583.669	31613.64
583.866	31288.01
584.064	31509.19
584.262	31189.71
584.459	31316.68
584.657	30839.51
584.854	31288.01
585.052	30722.77
585.249	31038.16
585.447	30700.25
585.644	30714.58
585.841	30859.99
586.039	30647
586.236	30325.47
586.434	30550.74
586.631	29887.2
586.828	30163.68
587.026	30212.83
587.223	30092
587.42	29981.41
587.618	29919.97
587.815	29610.73
588.012	29557.48
588.21	29565.67
588.407	29461.23
588.604	29440.75
588.801	29127.41
588.999	29483.75
589.196	29248.24
589.393	28975.86
589.59	28805.88
589.787	29025.01
589.984	28773.11
590.182	29012.72
590.379	28973.81
590.576	28267.26
590.773	28777.2
590.97	28318.46
591.167	28361.47
591.364	28201.72
591.561	28494.58
591.758	27828.99
591.955	28105.47
592.152	28154.62
592.349	27648.77
592.546	27740.93
592.743	28021.5
592.94	27357.96
593.137	27931.39
593.334	27841.28
593.531	27167.5
593.727	27366.15
593.924	27489.03
594.121	27085.58
594.318	26952.46
594.515	27101.97
594.712	26911.5
594.908	26843.92
595.105	26829.59
595.302	26637.08
595.499	26577.69
595.696	26585.88
595.892	26442.52
596.089	26585.88
596.286	26862.35
596.482	26338.07
596.679	26497.81
596.876	26389.27
597.072	26067.74
597.269	26028.83
597.466	25770.79
597.662	25778.98
597.859	25512.74
598.055	25908
598.252	25314.09
598.448	25641.76
598.645	25391.91
598.841	25353
599.038	25277.22
599.234	25461.54
599.431	25193.26
599.627	24857.39
599.824	25309.99
600.02	24970.03
600.217	24851.25
600.413	24984.37
600.609	24531.76
600.806	24845.1
601.002	24613.68
601.198	24163.13
601.395	24412.98
601.591	24181.56
601.787	24187.71
601.984	24269.62
602.18	24093.5
602.376	24181.56
602.572	23944
602.769	24298.3
602.965	23624.51
603.161	23915.33
603.357	23690.05
603.553	23571.27
603.75	23345.99
603.946	23542.6
604.142	23503.68
604.338	22965.07
604.534	23323.46
604.73	23190.34
604.926	22825.81
605.122	23212.87
605.318	23176.01
605.514	22915.92
605.71	23038.8
605.906	22717.26
606.102	22795.09
606.298	22612.82
606.494	22846.29
606.69	22715.22
606.886	22659.92
607.082	22354.77
607.278	22166.36
607.474	22127.45
607.67	22567.76
607.866	22233.94
608.062	22219.61
608.257	22158.17
608.453	22061.91
608.649	22141.78
608.845	21758.81
609.041	22086.49
609.236	21941.08
609.432	21893.98
609.628	22068.06
609.824	21832.54
610.019	21418.85
610.215	21689.18
610.411	21805.92
610.606	21535.59
610.802	21613.41
610.998	21150.57
611.193	21246.82
611.389	20890.48
611.584	21158.76
611.78	21252.97
611.976	21427.04
612.171	21218.15
612.367	21078.89
612.562	21013.35
612.758	20624.24
612.953	20740.97
613.149	21007.21
613.344	20470.64
613.539	21111.66
613.735	20673.39
613.93	20894.57
614.126	20708.21
614.321	20820.84
614.517	20423.54
614.712	20390.77
614.907	20484.98
615.103	20745.07
615.298	20233.08
615.493	20521.84
615.688	20161.4
615.884	20562.8
616.079	20247.41
616.274	20532.08
616.47	20304.76
616.665	20200.31
616.86	19821.44
617.055	19897.21
617.25	19999.61
617.445	20157.3
617.641	19583.87
617.836	19706.75
618.031	19325.83
618.226	19606.4
618.421	19563.39
618.616	19671.93
618.811	19358.6
619.006	19524.48
619.201	18822.03
619.396	19340.16
619.591	18897.8
619.786	19186.57
619.981	18871.18
620.176	19063.69
620.371	18606.99
620.566	18842.51
620.761	18742.16
620.956	18840.46
621.151	18322.32
621.346	18146.2
621.541	18355.09
621.735	18510.74
621.93	17871.77
622.125	18316.18
622.32	17808.28
622.515	17890.2
622.709	17722.27
622.904	17671.07
623.099	17408.93
623.294	17601.44
623.488	17460.13
623.683	17277.86
623.878	17284
624.072	17333.15
624.267	16776.11
624.462	16995.24
624.656	16591.79
624.851	16855.98
625.046	16487.34
625.24	16569.26
625.435	16638.89
625.629	16206.77
625.824	16485.3
626.018	16264.11
626.213	15889.34
626.407	16176.05
626.602	15596.48
626.796	15903.67
626.991	15741.88
627.185	15680.44
627.38	15569.85
627.574	15532.99
627.768	15561.66
627.963	15494.08
628.157	15205.31
628.352	15174.6
628.546	14810.06
628.74	15121.35
628.935	14881.74
629.129	14881.74
629.323	14803.91
629.517	14687.18
629.712	14617.55
629.906	14623.69
630.1	14445.52
630.294	14379.98
630.489	14230.48
630.683	14437.33
630.877	14207.95
631.071	14070.74
631.265	14214.1
631.459	14023.64
631.653	13870.04
631.848	14035.92
632.042	13620.19
632.236	13757.4
632.43	13415.39
632.624	13573.08
632.818	13513.69
633.012	13423.58
633.206	13216.74
633.4	13149.15
633.594	13188.07
633.788	13317.09
633.982	13513.69
634.176	13093.86
634.369	12907.49
634.563	12805.1
634.757	12884.97
634.951	12712.94
635.145	12633.07
635.339	12731.37
635.533	12391.41
635.726	12571.63
635.92	12190.7
636.114	12307.44
636.308	12321.77
636.501	12131.31
636.695	12219.38
636.889	12196.85
637.083	12055.54
637.276	12000.24
637.47	11717.62
637.664	11863.03
637.857	11916.28
638.051	11977.72
638.244	11660.28
638.438	11574.27
638.632	11467.77
638.825	11441.15
639.019	11398.14
639.212	11293.69
639.406	11387.9
639.599	11301.89
639.793	11265.02
639.986	10927.11
640.18	11039.75
640.373	10904.58
640.567	10857.48
640.76	10802.18
640.954	10701.83
641.147	10779.65
641.34	10568.71
641.534	10589.19
641.727	10447.88
641.92	10406.92
642.114	10572.81
642.307	10488.84
642.5	10351.63
642.694	10038.29
642.887	10165.26
643.08	10269.71
643.273	10122.26
643.467	10114.06
643.66	9886.74
643.853	10167.31
644.046	10009.62
644.239	9688.09
644.432	9690.13
644.626	9647.13
644.819	9716.76
645.012	9557.02
645.205	9468.95
645.398	9520.15
645.591	9516.06
645.784	9303.07
645.977	9329.69
646.17	9139.23
646.363	9135.14
646.556	9096.22
646.749	8922.15
646.942	8985.63
647.135	9065.5
647.328	8926.24
647.521	8832.04
647.714	8909.86
647.907	8829.99
648.099	8545.32
648.292	8713.25
648.485	8655.91
648.678	8668.2
648.871	8391.72
649.064	8508.46
649.256	8596.52
649.449	8418.35
649.642	8350.76
649.835	8258.6
650.027	8191.02
650.22	8150.06
650.413	8113.2
650.605	8055.86
650.798	7980.08
650.991	8168.49
651.183	7988.27
651.376	7828.53
651.568	7992.37
651.761	7736.37
651.954	7900.21
652.146	7875.63
652.339	7595.06
652.531	7869.49
652.724	7574.58
652.916	7332.92
653.109	7629.88
653.301	7463.99
653.494	7631.93
653.686	7259.2
653.879	7345.21
654.071	7355.45
654.263	7382.07
654.456	7193.66
654.648	7193.66
654.84	7238.72
655.033	7083.07
655.225	6937.66
655.417	6886.47
655.61	6855.75
655.802	6902.85
655.994	6794.31
656.186	6935.62
656.379	6855.75
656.571	6853.7
656.763	6673.48
656.955	6798.4
657.148	6601.8
657.34	6751.3
657.532	6569.03
657.724	6433.86
657.916	6376.52
658.108	6499.4
658.3	6546.5
658.492	6507.59
658.684	6292.55
658.876	6415.43
659.068	6120.53
659.26	6192.2
659.452	6196.3
659.644	6143.05
659.836	6167.63
660.028	6126.67
660.22	5870.67
660.412	6050.89
660.604	5854.29
660.796	6011.98
660.988	5829.71
661.18	5823.57
661.372	5731.41
661.563	5993.55
661.755	5731.41
661.947	5842
662.139	5583.96
662.331	5547.09
662.522	5608.53
662.714	5600.34
662.906	5559.38
663.097	5416.02
663.289	5549.14
663.481	5448.79
663.673	5321.82
663.864	5381.21
664.056	5364.82
664.247	5436.5
664.439	5106.78
664.631	5200.99
664.822	5311.58
665.014	5223.51
665.205	5168.22
665.397	5059.68
665.588	5157.98
665.78	5088.35
665.971	4887.65
666.163	4988
666.354	4854.88
666.546	4879.46
666.737	4840.54
666.929	4824.16
667.12	4781.15
667.311	4658.28
667.503	4822.11
667.694	4793.44
667.885	4758.63
668.077	4727.91
668.268	4527.21
668.459	4609.12
668.651	4545.64
668.842	4609.12
669.033	4394.09
669.224	4428.9
669.416	4645.99
669.607	4412.52
669.798	4437.09
669.989	4510.82
670.18	4494.44
670.371	4316.26
670.563	4445.29
670.754	4340.84
670.945	4265.07
671.136	4424.81
671.327	4109.42
671.518	4220.01
671.709	4258.92
671.9	4250.73
672.091	4002.93
672.282	4002.93
672.473	4076.65
672.664	4195.43
672.855	4154.48
673.046	4125.8
673.237	4183.15
673.428	4166.76
673.619	3943.53
673.809	3875.95
674	4023.41
674.191	3941.49
674.382	4070.51
674.573	3931.25
674.764	3859.57
674.954	4013.17
675.145	3818.61
675.336	3816.56
675.527	3839.09
675.717	3744.88
675.908	3908.72
676.099	3734.64
676.289	3878
676.48	3716.21
676.671	3703.92
676.861	3642.48
677.052	3710.07
677.243	3740.79
677.433	3576.95
677.624	3742.83
677.814	3626.1
678.005	3611.76
678.195	3646.58
678.386	3515.51
678.576	3445.88
678.767	3646.58
678.957	3480.69
679.148	3605.62
679.338	3609.72
679.529	3503.22
679.719	3478.65
679.909	3466.36
680.1	3527.8
680.29	3546.23
680.481	3351.67
680.671	3480.69
680.861	3425.4
681.052	3509.37
681.242	3284.09
681.432	3515.51
681.622	3370.1
681.813	3370.1
682.003	3402.87
682.193	3445.88
682.383	3462.26
682.573	3497.08
682.764	3355.77
682.954	3384.44
683.144	3415.16
683.334	3402.87
683.524	3368.06
683.714	3191.93
683.904	3261.56
684.094	3204.22
684.284	3230.84
684.474	3249.27
684.664	3279.99
684.854	3204.22
685.044	3239.03
685.234	3054.72
685.424	3290.23
685.614	3212.41
685.804	3339.38
685.994	3183.74
686.184	3159.16
686.374	3167.35
686.564	3093.63
686.753	3126.39
686.943	3040.38
687.133	3089.53
687.323	3122.3
687.513	3228.79
687.702	3089.53
687.892	3050.62
688.082	3054.72
688.272	3114.11
688.461	3005.56
688.651	3175.55
688.841	3097.72
689.03	3198.07
689.22	3050.62
689.41	2958.46
689.599	3105.92
689.789	2966.65
689.979	3003.52
690.168	2993.28
690.358	2903.17
690.547	2854.02
690.737	2944.13
690.926	2899.07
691.116	2733.18
691.305	3003.52
691.495	2962.56
691.684	2858.11
691.874	2874.49
692.063	2888.83
692.252	2927.74
692.442	2983.04
692.631	2808.96
692.82	2946.17
693.01	2770.05
693.199	2808.96
693.388	2774.14
693.578	2856.06
693.767	2841.73
693.956	2811.01
694.146	2800.77
694.335	2931.84
694.524	2817.15
694.713	2796.67
694.902	2794.62
695.092	2815.1
695.281	2765.95
695.47	2663.55
695.659	2753.66
695.848	2749.57
696.037	2712.71
696.226	2626.69
696.415	2798.72
696.604	2792.58
696.793	2704.51
696.982	2729.09
697.171	2786.43
697.36	2774.14
697.549	2700.42
697.738	2659.46
697.927	2694.27
698.116	2774.14
698.305	2651.27
698.494	2571.4
698.683	2686.08
698.872	2653.31
699.061	2602.11
699.25	2659.46
699.438	2659.46
699.627	2677.89
699.816	2618.5
700.005	2569.35
700.193	2546.82
700.382	2636.93
700.571	2604.16
700.76	2634.88
700.948	2712.71
701.137	2638.98
701.326	2636.93
701.514	2430.09
701.703	2440.33
701.892	2497.67
702.08	2600.07
702.269	2622.59
702.457	2356.36
702.646	2446.47
702.834	2503.81
703.023	2456.71
703.212	2505.86
703.4	2501.76
703.589	2397.32
703.777	2501.76
703.965	2485.38
704.154	2464.9
704.342	2385.03
704.531	2423.94
704.719	2385.03
704.907	2391.17
705.096	2428.04
705.284	2397.32
705.472	2471.04
705.661	2335.88
705.849	2497.67
706.037	2294.92
706.226	2290.82
706.414	2417.8
706.602	2370.69
706.79	2352.26
706.979	2227.34
707.167	2460.81
707.355	2299.02
707.543	2356.36
707.731	2303.11
707.919	2335.88
708.107	2284.68
708.296	2315.4
708.484	2368.65
708.672	2319.5
708.86	2380.93
709.048	2360.45
709.236	2309.26
709.424	2317.45
709.612	2290.82
709.8	2299.02
709.988	2217.1
710.176	2225.29
710.364	2200.71
710.551	2227.34
710.739	2235.53
710.927	2268.3
711.115	2231.43
711.303	2157.71
711.491	2202.76
711.679	2147.47
711.866	2176.14
712.054	2131.08
712.242	2083.98
712.43	2270.34
712.617	2200.71
712.805	2145.42
712.993	2159.75
713.181	2124.94
713.368	2129.03
713.556	2198.67
713.744	2079.88
713.931	2243.72
714.119	2213
714.306	2065.55
714.494	2233.48
714.682	2106.51
714.869	2143.37
715.057	2063.5
715.244	2126.99
715.432	2176.14
715.619	2176.14
715.807	2040.97
715.994	2129.03
716.182	2014.35
716.369	2053.26
716.556	2077.83
716.744	2106.51
716.931	2061.45
717.119	2014.35
717.306	2049.16
717.493	1995.92
717.681	2018.44
717.868	2038.92
718.055	2047.12
718.242	2012.3
718.43	1944.72
718.617	2036.88
718.804	2032.78
718.991	2055.31
719.179	2104.46
719.366	1981.58
719.553	1989.77
719.74	2086.03
719.927	1930.38
720.114	2071.69
720.301	1954.96
720.488	2012.3
720.676	1881.23
720.863	2008.2
721.05	1961.1
721.237	1916.05
721.424	1989.77
721.611	1916.05
721.798	1864.85
721.985	1938.57
722.172	1881.23
722.358	1965.2
722.545	1832.08
722.732	1930.38
722.919	1897.61
723.106	1807.5
723.293	1967.24
723.48	1893.52
723.667	1774.74
723.853	1895.57
724.04	1864.85
724.227	1881.23
724.414	1866.89
724.6	1885.33
724.787	1883.28
724.974	1850.51
725.161	1789.07
725.347	1864.85
725.534	1881.23
725.72	1764.5
725.907	1766.54
726.094	1825.93
726.28	1772.69
726.467	1737.87
726.653	1782.93
726.84	1875.09
727.027	1776.78
727.213	1762.45
727.4	1889.42
727.586	1713.3
727.773	1713.3
727.959	1754.26
728.145	1764.5
728.332	1701.01
728.518	1793.17
728.705	1674.39
728.891	1692.82
729.077	1784.98
729.264	1784.98
729.45	1709.2
729.636	1766.54
729.823	1741.97
730.009	1705.1
730.195	1725.58
730.382	1692.82
730.568	1705.1
730.754	1670.29
730.94	1602.71
731.126	1641.62
731.313	1725.58
731.499	1676.43
731.685	1729.68
731.871	1592.47
732.057	1705.1
732.243	1627.28
732.429	1627.28
732.615	1651.86
732.801	1701.01
732.987	1545.36
733.173	1635.47
733.359	1651.86
733.545	1621.14
733.731	1746.06
733.917	1658
734.103	1502.36
734.289	1672.34
734.475	1557.65
734.661	1684.62
734.847	1651.86
735.033	1602.71
735.219	1549.46
735.404	1514.64
735.59	1514.64
735.776	1524.88
735.962	1469.59
736.148	1664.15
736.333	1553.55
736.519	1451.16
736.705	1643.67
736.89	1508.5
737.076	1574.03
737.262	1430.68
737.447	1432.72
737.633	1436.82
737.819	1524.88
738.004	1539.22
738.19	1397.91
738.375	1588.37
738.561	1545.36
738.747	1492.12
738.932	1455.25
739.118	1488.02
739.303	1471.64
739.489	1512.6
739.674	1459.35
739.859	1406.1
740.045	1471.64
740.23	1463.44
740.416	1256.6
740.601	1508.5
740.786	1455.25
740.972	1424.53
741.157	1438.87
741.342	1361.05
741.528	1373.33
741.713	1457.3
741.898	1367.19
742.084	1445.01
742.269	1432.72
742.454	1369.24
742.639	1447.06
742.824	1381.53
743.01	1338.52
743.195	1397.91
743.38	1381.53
743.565	1385.62
743.75	1393.81
743.935	1299.61
744.12	1344.66
744.305	1406.1
744.49	1334.42
744.675	1205.4
744.86	1307.8
745.045	1377.43
745.23	1275.03
745.415	1297.56
745.6	1315.99
745.785	1186.97
745.97	1272.98
746.155	1277.08
746.34	1240.22
746.525	1156.25
746.71	1287.32
746.895	1203.35
747.079	1119.39
747.264	1221.78
747.449	1219.74
747.634	1154.2
747.819	1180.82
748.003	1148.06
748.188	1242.26
748.373	1129.63
748.557	1139.87
748.742	1189.02
748.927	1146.01
749.111	1143.96
749.296	1197.21
749.481	1172.63
749.665	1113.24
749.85	1064.09
750.034	1127.58
750.219	1180.82
750.404	1070.23
750.588	1086.62
750.773	1064.09
750.957	1070.23
751.141	1037.47
751.326	1109.15
751.51	1033.37
751.695	971.93
751.879	1000.6
752.064	1053.85
752.248	1041.56
752.432	1090.71
752.617	1031.32
752.801	1037.47
752.985	949.4
753.17	998.56
753.354	1088.67
753.538	1021.08
753.722	1012.89
753.907	933.02
754.091	883.87
754.275	953.5
754.459	965.79
754.643	922.78
754.828	1062.04
755.012	949.4
755.196	916.64
755.38	894.11
755.564	1008.8
755.748	867.49
755.932	951.45
756.116	859.29
756.3	973.98
756.484	914.59
756.668	828.57
756.852	795.81
757.036	767.13
757.22	844.96
757.404	787.61
757.588	812.19
757.772	988.32
757.956	791.71
758.14	877.73
758.323	752.8
758.507	930.97
758.691	885.92
758.875	783.52
759.059	834.72
759.242	760.99
759.426	695.46
759.61	816.29
759.794	826.53
759.977	769.18
760.161	785.57
760.345	793.76
760.528	832.67
760.712	771.23
760.895	724.13
761.079	785.57
761.263	726.18
761.446	623.78
761.63	777.37
761.813	808.09
761.997	709.79
762.18	728.22
762.364	734.37
762.547	720.03
762.731	713.89
762.914	705.7
763.098	779.42
763.281	672.93
763.464	652.45
763.648	681.12
763.831	666.78
764.015	681.12
764.198	636.06
764.381	660.64
764.564	588.96
764.748	730.27
764.931	658.59
765.114	597.15
765.297	771.23
765.481	621.73
765.664	627.87
765.847	750.75
766.03	648.35
766.213	588.96
766.397	586.91
766.58	621.73
766.763	568.48
766.946	670.88
767.129	652.45
767.312	619.68
767.495	677.02
767.678	674.98
767.861	627.87
768.044	636.06
768.227	679.07
768.41	607.39
768.593	750.75
768.776	576.67
768.959	636.06
769.142	679.07
769.324	677.02
769.507	683.17
769.69	644.26
769.873	629.92
770.056	644.26
770.239	668.83
770.421	621.73
770.604	615.59
770.787	560.29
770.97	533.67
771.152	586.91
771.335	545.95
771.518	619.68
771.7	533.67
771.883	646.3
772.066	570.53
772.248	496.8
772.431	679.07
772.613	613.54
772.796	593.06
772.978	550.05
773.161	521.38
773.343	529.57
773.526	574.63
773.708	435.36
773.891	490.66
774.073	570.53
774.256	572.58
774.438	541.86
774.621	466.08
774.803	570.53
774.985	470.18
775.168	572.58
775.35	484.52
775.532	537.76
775.715	605.35
775.897	433.32
776.079	504.99
776.261	545.95
776.444	609.44
776.626	427.17
776.808	515.23
776.99	515.23
777.173	523.43
777.355	406.69
777.537	498.85
777.719	459.94
777.901	496.8
778.083	408.74
778.265	488.61
778.447	496.8
778.629	468.13
778.811	517.28
778.993	392.36
779.175	545.95
779.357	414.88
779.539	416.93
779.721	464.04
779.903	507.04
780.085	404.64
780.267	459.94
780.449	441.51
780.631	509.09
780.812	423.08
780.994	392.36
781.176	347.3
781.358	375.97
781.54	423.08
781.721	390.31
781.903	496.8
782.085	361.64
782.267	349.35
782.448	308.39
782.63	357.54
782.812	390.31
782.993	414.88
783.175	359.59
783.357	369.83
783.538	382.12
783.72	220.33
783.901	351.4
784.083	353.45
784.264	312.49
784.446	353.45
784.627	353.45
784.809	339.11
784.99	326.82
785.172	375.97
785.353	357.54
785.535	324.77
785.716	294.05
785.897	326.82
786.079	310.44
786.26	357.54
786.441	267.43
786.623	279.72
786.804	242.85
786.985	312.49
787.167	400.55
787.348	283.81
787.529	277.67
787.71	343.21
787.891	384.16
788.073	269.48
788.254	289.96
788.435	326.82
788.616	251.05
788.797	316.58
788.978	255.14
789.159	267.43
789.34	273.57
789.522	328.87
789.703	214.18
789.884	244.9
790.065	306.34
790.246	283.81
790.427	249
790.607	279.72
790.788	287.91
790.969	283.81
791.15	244.9
791.331	173.22
791.512	285.86
791.693	306.34
791.874	345.25
792.054	408.74
792.235	296.1
792.416	220.33
792.597	320.68
792.778	251.05
792.958	296.1
793.139	283.81
793.32	257.19
793.5	324.77
793.681	279.72
793.862	222.38
794.042	162.98
794.223	259.24
794.404	246.95
794.584	130.22
794.765	249
794.945	218.28
795.126	160.94
795.306	224.42
795.487	220.33
795.667	236.71
795.848	218.28
796.028	236.71
796.209	298.15
796.389	179.37
796.57	173.22
796.75	105.64
796.93	201.9
797.111	234.66
797.291	167.08
797.471	236.71
797.652	195.75
797.832	144.55
798.012	234.66
798.192	140.46
798.373	208.04
798.553	140.46
798.733	226.47
798.913	152.74
799.093	222.38
799.274	210.09
799.454	236.71
799.634	185.51
799.814	259.24
799.994	185.51
800.174	193.7
800.354	167.08
800.534	103.59
800.714	181.42
800.894	228.52
801.074	160.94
801.254	189.61
801.434	203.94
801.614	162.98
801.794	148.65
801.974	775.33
802.154	226.47
802.334	142.5
802.514	152.74
802.693	177.32
802.873	193.7
803.053	177.32
803.233	64.68
803.413	187.56
803.592	179.37
803.772	169.13
803.952	201.9
804.131	128.17
804.311	222.38
804.491	171.18
804.67	124.07
804.85	81.07
805.03	197.8
805.209	230.57
805.389	203.94
805.568	173.22
805.748	169.13
805.928	238.76
806.107	195.75
806.287	201.9
806.466	195.75
806.646	95.4
806.825	52.39
807.004	91.31
807.184	234.66
807.363	169.13
807.543	128.17
807.722	154.79
807.901	193.7
808.081	119.98
808.26	48.3
808.439	87.21
808.619	79.02
808.798	152.74
808.977	144.55
809.156	226.47
809.336	111.78
809.515	169.13
809.694	38.06
809.873	83.11
810.052	97.45
810.231	210.09
810.411	152.74
810.59	177.32
810.769	144.55
810.948	136.36
811.127	7.34
811.306	173.22
811.485	95.4
811.664	93.35
811.843	148.65
812.022	165.03
812.201	103.59
812.38	144.55
812.559	95.4
812.737	193.7
812.916	130.22
813.095	117.93
813.274	171.18
813.453	79.02
813.632	113.83
813.811	181.42
813.989	72.87
814.168	181.42
814.347	21.67
814.526	93.35
814.704	136.36
814.883	107.69
815.062	111.78
815.24	58.54
815.419	132.26
815.598	160.94
815.776	54.44
815.955	144.55
816.133	87.21
816.312	113.83
816.49	146.6
816.669	119.98
816.847	105.64
817.026	95.4
817.204	52.39
817.383	128.17
817.561	103.59
817.74	177.32
817.918	21.67
818.097	126.12
818.275	122.02
818.453	165.03
818.632	165.03
818.81	21.67
818.988	105.64
819.167	83.11
819.345	122.02
819.523	81.07
819.701	76.97
819.879	105.64
820.058	179.37
820.236	50.35
820.414	103.59
820.592	58.54
820.77	111.78
820.948	60.59
821.127	46.25
821.305	87.21
821.483	95.4
821.661	81.07
821.839	111.78
822.017	83.11
822.195	76.97
822.373	13.48
822.551	79.02
822.729	79.02
822.907	58.54
823.085	70.83
823.262	111.78
823.44	46.25
823.618	54.44
823.796	54.44
823.974	21.67
824.152	46.25
824.329	13.48
824.507	13.48
824.685	54.44
824.863	54.44
825.04	136.36
825.218	58.54
825.396	58.54
825.574	27.82
825.751	119.98
825.929	181.42
826.107	81.07
826.284	56.49
826.462	103.59
826.639	25.77
826.817	-27.48
826.994	87.21
827.172	87.21
827.349	154.79
827.527	122.02
827.704	81.07
827.882	132.26
828.059	103.59
828.237	42.15
828.414	89.26
828.591	44.2
828.769	89.26
828.946	15.53
829.124	31.91
829.301	33.96
829.478	105.64
829.655	38.06
829.833	29.87
830.01	33.96
830.187	79.02
830.364	40.11
830.542	132.26
830.719	62.63
830.896	79.02
831.073	74.92
831.25	136.36
831.427	54.44
831.604	119.98
831.782	25.77
831.959	56.49
832.136	42.15
832.313	173.22
832.49	60.59
832.667	70.83
832.844	68.78
833.021	79.02
833.198	15.53
833.374	148.65
833.551	91.31
833.728	42.15
833.905	122.02
834.082	46.25
834.259	54.44
834.436	99.5
834.612	5.29
834.789	89.26
834.966	42.15
835.143	76.97
835.319	11.43
835.496	48.3
835.673	7.34
835.85	144.55
836.026	109.74
836.203	38.06
836.38	-27.48
836.556	36.01
836.733	62.63
836.909	105.64
837.086	79.02
837.262	70.83
837.439	-19.29
837.616	29.87
837.792	72.87
837.968	-9.05
838.145	-7
838.321	91.31
838.498	76.97
838.674	17.58
838.851	105.64
839.027	-0.85
839.203	58.54
839.38	-2.9
839.556	31.91
839.732	50.35
839.909	29.87
840.085	-35.67
840.261	-35.67
840.437	50.35
840.614	25.77
840.79	50.35
840.966	74.92
841.142	70.83
841.318	25.77
841.494	29.87
841.671	21.67
841.847	62.63
842.023	11.43
842.199	83.11
842.375	17.58
842.551	-19.29
842.727	17.58
842.903	70.83
843.079	42.15
843.255	107.69
843.431	64.68
843.607	21.67
843.783	-35.67
843.959	113.83
844.134	-0.85
844.31	58.54
844.486	-9.05
844.662	31.91
844.838	70.83
845.013	79.02
845.189	19.63
845.365	40.11
845.541	109.74
845.716	11.43
845.892	142.5
846.068	46.25
846.244	29.87
846.419	-0.85
846.595	38.06
846.77	7.34
846.946	9.39
847.122	64.68
847.297	31.91
847.473	128.17
847.648	48.3
847.824	124.07
847.999	9.39
848.175	62.63
848.35	50.35
848.526	15.53
848.701	-43.86
848.876	56.49
849.052	33.96
849.227	50.35
849.403	23.72
849.578	-0.85
849.753	-39.76
849.929	17.58
850.104	1.19
850.279	15.53
850.454	5.29
850.63	64.68
850.805	13.48
850.98	83.11
851.155	31.91
851.33	74.92
851.505	5.29
851.681	38.06
851.856	-15.19
852.031	89.26
852.206	62.63
852.381	58.54
852.556	17.58
852.731	31.91
852.906	103.59
853.081	-0.85
853.256	132.26
853.431	23.72
853.606	54.44
853.781	17.58
853.956	31.91
854.131	-39.76
854.305	-23.38
854.48	56.49
854.655	9.39
854.83	5.29
855.005	-33.62
855.18	1.19
855.354	-9.05
855.529	-0.85
855.704	-0.85
855.879	38.06
856.053	-35.67
856.228	15.53
856.403	-27.48
856.577	25.77
856.752	38.06
856.926	48.3
857.101	48.3
857.276	40.11
857.45	29.87
857.625	1.19
857.799	23.72
857.974	-9.05
858.148	21.67
858.323	38.06
858.497	-23.38
858.672	89.26
858.846	-2.9
859.02	21.67
859.195	-74.58
859.369	23.72
859.543	29.87
859.718	-41.81
859.892	46.25
860.066	17.58
860.241	36.01
860.415	64.68
860.589	44.2
860.763	-23.38
860.938	-19.29
861.112	79.02
861.286	5.29
861.46	7.34
861.634	7.34
861.808	19.63
861.982	-15.19
862.157	-17.24
862.331	-4.95
862.505	13.48
862.679	-7
862.853	1.19
863.027	-33.62
863.201	7.34
863.375	48.3
863.549	-52.05
863.722	15.53
863.896	1.19
864.07	-7
864.244	-27.48
864.418	-27.48
864.592	11.43
864.766	-27.48
864.939	21.67
865.113	-19.29
865.287	97.45
865.461	-138.07
865.634	29.87
865.808	-99.16
865.982	-35.67
866.156	-11.09
866.329	1.19
866.503	87.21
866.676	7.34
866.85	52.39
867.024	54.44
867.197	-23.38
867.371	-2.9
867.544	23.72
867.718	-27.48
867.891	5.29
868.065	-50
868.238	3.24
868.412	128.17
868.585	17.58
868.759	29.87
868.932	-23.38
869.105	-99.16
869.279	7.34
869.452	-60.24
869.625	29.87
869.799	-17.24
869.972	-27.48
870.145	-50
870.319	-23.38
870.492	13.48
870.665	93.35
870.838	-93.01
871.011	-35.67
871.185	31.91
871.358	-0.85
871.531	56.49
871.704	29.87
871.877	56.49
872.05	29.87
872.223	-13.14
872.396	5.29
872.569	33.96
872.742	5.29
872.915	29.87
873.088	-33.62
873.261	-2.9
873.434	46.25
873.607	-39.76
873.78	33.96
873.953	-19.29
874.126	-0.85
874.299	7.34
874.471	-74.58
874.644	27.82
874.817	-27.48
874.99	3.24
875.163	-17.24
875.335	64.68
875.508	23.72
875.681	38.06
875.853	-39.76
876.026	-54.1
876.199	-7
876.371	17.58
876.544	-9.05
876.717	-41.81
876.889	29.87
877.062	64.68
877.234	5.29
877.407	50.35
877.579	33.96
877.752	50.35
877.924	15.53
878.097	21.67
878.269	17.58
878.442	93.35
878.614	-19.29
878.786	-43.86
878.959	48.3
879.131	-0.85
879.303	-43.86
879.476	5.29
879.648	-68.44
879.82	54.44
879.993	-45.91
880.165	70.83
880.337	81.07
880.509	31.91
880.681	-64.34
880.854	-31.57
881.026	21.67
881.198	36.01
881.37	17.58
881.542	21.67
881.714	-15.19
881.886	5.29
882.058	60.59
882.23	-0.85
882.402	17.58
882.574	62.63
882.746	9.39
882.918	25.77
883.09	13.48
883.262	1.19
883.434	54.44
883.606	-68.44
883.778	-4.95
883.95	17.58
884.122	31.91
884.293	99.5
884.465	-19.29
884.637	54.44
884.809	-17.24
884.98	-15.19
885.152	13.48
885.324	21.67
885.496	-39.76
885.667	19.63
885.839	-43.86
886.011	21.67
886.182	54.44
886.354	54.44
886.525	9.39
886.697	101.55
886.869	5.29
887.04	72.87
887.212	48.3
887.383	50.35
887.555	48.3
887.726	-9.05
887.897	-25.43
888.069	29.87
888.24	15.53
888.412	-17.24
888.583	103.59
888.754	27.82
888.926	23.72
889.097	29.87
889.268	-0.85
889.44	1.19
889.611	-39.76
889.782	9.39
889.953	-7
890.125	54.44
890.296	-17.24
890.467	13.48
890.638	9.39
890.809	15.53
890.98	-19.29
891.151	-19.29
891.323	29.87
891.494	-9.05
891.665	38.06
891.836	46.25
892.007	-2.9
892.178	70.83
892.349	9.39
892.52	-37.72
892.691	54.44
892.862	25.77
893.032	-13.14
893.203	-15.19
893.374	15.53
893.545	42.15
893.716	-72.53
893.887	70.83
894.057	-97.11
894.228	31.91
894.399	62.63
894.57	-25.43
894.74	-52.05
894.911	72.87
895.082	56.49
895.253	40.11
895.423	-7
895.594	21.67
895.764	60.59
895.935	-52.05
896.106	-41.81
896.276	70.83
896.447	44.2
896.617	-50
896.788	-0.85
896.958	36.01
897.129	-60.24
897.299	60.59
897.47	-15.19
897.64	81.07
897.81	-56.15
897.981	15.53
898.151	-11.09
898.322	38.06
898.492	31.91
898.662	25.77
898.832	-29.52
899.003	11.43
899.173	76.97
899.343	42.15
899.513	-39.76
