Data from USB4F104151__68__14-43-18-658.txt Node

Date: Thu Mar 13 14:43:18 EDT 2025
User: louis
Spectrometer: USB4F10415
Trigger mode: 4
Integration Time (sec): 2.000000E-2
Scans to average: 1
Electric dark correction enabled: true
Nonlinearity correction enabled: false
Boxcar width: 0
XAxis mode: Wavelengths
Number of Pixels in Spectrum: 3648
>>>>>Begin Spectral Data<<<<<
178.204	-78.51
178.424	-78.51
178.644	-78.51
178.864	-45.74
179.084	-60.07
179.304	5.46
179.524	-17.07
179.744	-49.83
179.964	40.28
180.184	32.08
180.404	15.7
180.624	-6.83
180.844	-0.68
181.064	23.89
181.283	46.42
181.503	-66.22
181.723	-23.21
181.943	-25.26
182.163	85.33
182.383	19.8
182.602	122.2
182.822	75.09
183.042	42.32
183.262	66.9
183.482	-21.16
183.701	64.85
183.921	58.71
184.141	-53.93
184.361	105.81
184.58	48.47
184.8	-33.45
185.02	25.94
185.239	3.41
185.459	9.56
185.679	89.43
185.898	-51.88
186.118	114
186.338	73.04
186.557	68.95
186.777	-31.4
186.997	54.61
187.216	32.08
187.436	91.48
187.655	9.56
187.875	97.62
188.095	56.66
188.314	64.85
188.534	30.04
188.753	75.09
188.973	-17.07
189.192	81.24
189.412	40.28
189.631	34.13
189.851	50.52
190.07	83.28
190.29	3.41
190.509	56.66
190.729	56.66
190.948	109.91
191.168	97.62
191.387	36.18
191.607	-27.31
191.826	120.15
192.045	9.56
192.265	83.28
192.484	23.89
192.704	32.08
192.923	9.56
193.142	105.81
193.362	101.72
193.581	87.38
193.8	64.85
194.02	101.72
194.239	50.52
194.458	54.61
194.678	-66.22
194.897	56.66
195.116	77.14
195.335	42.32
195.555	66.9
195.774	85.33
195.993	-23.21
196.212	7.51
196.432	11.61
196.651	50.52
196.87	40.28
197.089	132.44
197.308	32.08
197.528	73.04
197.747	11.61
197.966	44.37
198.185	58.71
198.404	-88.75
198.623	89.43
198.842	122.2
199.062	103.76
199.281	15.7
199.5	5.46
199.719	50.52
199.938	109.91
200.157	19.8
200.376	83.28
200.595	83.28
200.814	79.19
201.033	-0.68
201.252	62.8
201.471	32.08
201.69	-8.87
201.909	71
202.128	116.05
202.347	83.28
202.566	93.52
202.785	25.94
203.004	36.18
203.223	122.2
203.442	56.66
203.661	3.41
203.879	36.18
204.098	15.7
204.317	23.89
204.536	19.8
204.755	97.62
204.974	15.7
205.193	73.04
205.411	73.04
205.63	114
205.849	48.47
206.068	38.23
206.287	52.56
206.505	89.43
206.724	-2.73
206.943	7.51
207.162	50.52
207.381	48.47
207.599	25.94
207.818	81.24
208.037	48.47
208.255	56.66
208.474	73.04
208.693	34.13
208.911	11.61
209.13	81.24
209.349	122.2
209.567	15.7
209.786	32.08
210.005	97.62
210.223	81.24
210.442	25.94
210.661	126.29
210.879	68.95
211.098	62.8
211.316	87.38
211.535	52.56
211.753	93.52
211.972	60.76
212.191	-31.4
212.409	34.13
212.628	81.24
212.846	23.89
213.065	128.34
213.283	89.43
213.502	64.85
213.72	-12.97
213.938	122.2
214.157	11.61
214.375	15.7
214.594	19.8
214.812	93.52
215.031	-6.83
215.249	50.52
215.467	1.37
215.686	73.04
215.904	38.23
216.122	15.7
216.341	62.8
216.559	36.18
216.778	34.13
216.996	1.37
217.214	83.28
217.432	15.7
217.651	32.08
217.869	48.47
218.087	52.56
218.306	83.28
218.524	97.62
218.742	7.51
218.96	11.61
219.179	23.89
219.397	73.04
219.615	77.14
219.833	114
220.051	15.7
220.27	83.28
220.488	93.52
220.706	56.66
220.924	-25.26
221.142	-29.35
221.36	56.66
221.578	-2.73
221.796	44.37
222.015	40.28
222.233	17.75
222.451	105.81
222.669	128.34
222.887	107.86
223.105	17.75
223.323	58.71
223.541	52.56
223.759	66.9
223.977	93.52
224.195	118.1
224.413	-23.21
224.631	101.72
224.849	11.61
225.067	64.85
225.285	46.42
225.503	144.72
225.721	13.65
225.939	23.89
226.157	89.43
226.375	77.14
226.592	19.8
226.81	138.58
227.028	25.94
227.246	146.77
227.464	124.24
227.682	56.66
227.9	177.49
228.117	42.32
228.335	56.66
228.553	34.13
228.771	11.61
228.989	64.85
229.206	114
229.424	-31.4
229.642	32.08
229.86	75.09
230.077	32.08
230.295	40.28
230.513	50.52
230.731	99.67
230.948	128.34
231.166	77.14
231.384	19.8
231.601	1.37
231.819	73.04
232.037	-23.21
232.254	48.47
232.472	32.08
232.689	60.76
232.907	107.86
233.125	89.43
233.342	81.24
233.56	89.43
233.777	34.13
233.995	54.61
234.213	52.56
234.43	81.24
234.648	7.51
234.865	73.04
235.083	148.82
235.3	138.58
235.518	48.47
235.735	89.43
235.953	111.96
236.17	15.7
236.388	44.37
236.605	89.43
236.822	103.76
237.04	48.47
237.257	48.47
237.475	-25.26
237.692	-8.87
237.909	105.81
238.127	46.42
238.344	130.39
238.562	48.47
238.779	54.61
238.996	66.9
239.214	48.47
239.431	99.67
239.648	-25.26
239.865	38.23
240.083	40.28
240.3	48.47
240.517	34.13
240.735	36.18
240.952	64.85
241.169	89.43
241.386	25.94
241.603	34.13
241.821	27.99
242.038	77.14
242.255	73.04
242.472	56.66
242.689	60.76
242.907	83.28
243.124	81.24
243.341	27.99
243.558	27.99
243.775	15.7
243.992	52.56
244.209	44.37
244.426	159.06
244.643	101.72
244.86	50.52
245.078	101.72
245.295	56.66
245.512	73.04
245.729	56.66
245.946	165.2
246.163	171.35
246.38	75.09
246.597	64.85
246.814	50.52
247.031	58.71
247.248	73.04
247.464	89.43
247.681	85.33
247.898	148.82
248.115	48.47
248.332	-4.78
248.549	50.52
248.766	81.24
248.983	83.28
249.2	114
249.417	71
249.633	23.89
249.85	13.65
250.067	27.99
250.284	114
250.501	97.62
250.717	101.72
250.934	48.47
251.151	-2.73
251.368	118.1
251.585	27.99
251.801	-21.16
252.018	-0.68
252.235	77.14
252.451	50.52
252.668	32.08
252.885	52.56
253.102	81.24
253.318	87.38
253.535	58.71
253.752	40.28
253.968	114
254.185	40.28
254.401	32.08
254.618	122.2
254.835	11.61
255.051	136.53
255.268	81.24
255.484	111.96
255.701	89.43
255.917	97.62
256.134	50.52
256.351	64.85
256.567	7.51
256.784	36.18
257	-39.59
257.217	56.66
257.433	89.43
257.65	40.28
257.866	52.56
258.082	44.37
258.299	60.76
258.515	3.41
258.732	40.28
258.948	9.56
259.165	64.85
259.381	83.28
259.597	40.28
259.814	66.9
260.03	48.47
260.246	-8.87
260.463	32.08
260.679	13.65
260.895	-6.83
261.112	103.76
261.328	64.85
261.544	50.52
261.761	66.9
261.977	25.94
262.193	-17.07
262.409	93.52
262.626	89.43
262.842	60.76
263.058	40.28
263.274	48.47
263.49	87.38
263.707	56.66
263.923	89.43
264.139	-4.78
264.355	81.24
264.571	118.1
264.787	52.56
265.004	68.95
265.22	109.91
265.436	17.75
265.652	40.28
265.868	36.18
266.084	23.89
266.3	75.09
266.516	-21.16
266.732	85.33
266.948	27.99
267.164	56.66
267.38	50.52
267.596	118.1
267.812	25.94
268.028	66.9
268.244	27.99
268.46	79.19
268.676	44.37
268.892	58.71
269.108	66.9
269.324	-25.26
269.54	122.2
269.756	105.81
269.972	7.51
270.188	66.9
270.403	-41.64
270.619	130.39
270.835	23.89
271.051	36.18
271.267	17.75
271.483	48.47
271.698	52.56
271.914	19.8
272.13	-2.73
272.346	50.52
272.562	48.47
272.777	109.91
272.993	77.14
273.209	25.94
273.425	91.48
273.64	3.41
273.856	9.56
274.072	130.39
274.287	95.57
274.503	25.94
274.719	68.95
274.934	77.14
275.15	-74.41
275.366	11.61
275.581	25.94
275.797	34.13
276.012	93.52
276.228	-10.92
276.444	66.9
276.659	25.94
276.875	-8.87
277.09	73.04
277.306	17.75
277.521	34.13
277.737	75.09
277.952	81.24
278.168	68.95
278.383	66.9
278.599	99.67
278.814	58.71
279.03	-4.78
279.245	109.91
279.461	99.67
279.676	40.28
279.892	42.32
280.107	32.08
280.322	44.37
280.538	52.56
280.753	-10.92
280.969	17.75
281.184	-17.07
281.399	136.53
281.615	32.08
281.83	75.09
282.045	73.04
282.26	48.47
282.476	32.08
282.691	56.66
282.906	83.28
283.122	36.18
283.337	27.99
283.552	11.61
283.767	7.51
283.983	107.86
284.198	66.9
284.413	-6.83
284.628	-72.36
284.843	19.8
285.058	-55.98
285.274	99.67
285.489	42.32
285.704	25.94
285.919	27.99
286.134	154.96
286.349	126.29
286.564	87.38
286.779	64.85
286.995	27.99
287.21	66.9
287.425	34.13
287.64	32.08
287.855	-12.97
288.07	34.13
288.285	66.9
288.5	81.24
288.715	15.7
288.93	32.08
289.145	-8.87
289.36	134.48
289.575	56.66
289.79	105.81
290.004	62.8
290.219	15.7
290.434	32.08
290.649	19.8
290.864	36.18
291.079	91.48
291.294	40.28
291.509	46.42
291.724	73.04
291.938	32.08
292.153	83.28
292.368	38.23
292.583	48.47
292.798	23.89
293.012	48.47
293.227	89.43
293.442	40.28
293.657	34.13
293.871	120.15
294.086	11.61
294.301	101.72
294.516	40.28
294.73	58.71
294.945	44.37
295.16	42.32
295.374	9.56
295.589	103.76
295.804	56.66
296.018	-39.59
296.233	-4.78
296.447	58.71
296.662	23.89
296.877	81.24
297.091	99.67
297.306	40.28
297.52	56.66
297.735	11.61
297.949	68.95
298.164	81.24
298.378	56.66
298.593	-19.11
298.807	1.37
299.022	46.42
299.236	93.52
299.451	32.08
299.665	19.8
299.88	48.47
300.094	30.04
300.309	130.39
300.523	25.94
300.737	40.28
300.952	81.24
301.166	122.2
301.381	-4.78
301.595	42.32
301.809	17.75
302.024	85.33
302.238	-41.64
302.452	107.86
302.667	50.52
302.881	99.67
303.095	95.57
303.309	87.38
303.524	25.94
303.738	32.08
303.952	1.37
304.166	130.39
304.381	34.13
304.595	136.53
304.809	25.94
305.023	60.76
305.237	11.61
305.452	32.08
305.666	42.32
305.88	48.47
306.094	7.51
306.308	19.8
306.522	122.2
306.736	38.23
306.95	101.72
307.164	32.08
307.379	40.28
307.593	81.24
307.807	73.04
308.021	179.54
308.235	48.47
308.449	-51.88
308.663	-6.83
308.877	122.2
309.091	83.28
309.305	73.04
309.519	-12.97
309.733	32.08
309.947	5.46
310.161	34.13
310.374	48.47
310.588	109.91
310.802	99.67
311.016	27.99
311.23	91.48
311.444	-2.73
311.658	64.85
311.872	89.43
312.085	44.37
312.299	44.37
312.513	75.09
312.727	75.09
312.941	19.8
313.154	146.77
313.368	83.28
313.582	148.82
313.796	-29.35
314.009	60.76
314.223	-15.02
314.437	66.9
314.651	27.99
314.864	42.32
315.078	-8.87
315.292	-25.26
315.505	77.14
315.719	56.66
315.933	120.15
316.146	48.47
316.36	60.76
316.573	32.08
316.787	32.08
317.001	36.18
317.214	-15.02
317.428	97.62
317.641	27.99
317.855	77.14
318.068	7.51
318.282	34.13
318.495	73.04
318.709	89.43
318.922	23.89
319.136	79.19
319.349	93.52
319.563	1.37
319.776	114
319.99	23.89
320.203	68.95
320.417	-0.68
320.63	107.86
320.843	-0.68
321.057	95.57
321.27	71
321.483	27.99
321.697	130.39
321.91	122.2
322.124	32.08
322.337	21.84
322.55	58.71
322.763	52.56
322.977	34.13
323.19	48.47
323.403	73.04
323.617	23.89
323.83	97.62
324.043	25.94
324.256	-0.68
324.469	-55.98
324.683	148.82
324.896	-39.59
325.109	85.33
325.322	50.52
325.535	105.81
325.748	9.56
325.962	44.37
326.175	7.51
326.388	105.81
326.601	91.48
326.814	3.41
327.027	81.24
327.24	73.04
327.453	52.56
327.666	93.52
327.879	19.8
328.092	71
328.305	15.7
328.518	-25.26
328.731	56.66
328.944	3.41
329.157	17.75
329.37	52.56
329.583	148.82
329.796	120.15
330.009	-15.02
330.222	136.53
330.435	34.13
330.648	81.24
330.861	-17.07
331.073	50.52
331.286	81.24
331.499	34.13
331.712	48.47
331.925	9.56
332.138	68.95
332.35	134.48
332.563	56.66
332.776	124.24
332.989	-2.73
333.202	48.47
333.414	89.43
333.627	89.43
333.84	44.37
334.053	64.85
334.265	7.51
334.478	75.09
334.691	56.66
334.903	136.53
335.116	-41.64
335.329	19.8
335.541	46.42
335.754	66.9
335.966	77.14
336.179	68.95
336.392	19.8
336.604	32.08
336.817	83.28
337.029	48.47
337.242	1.37
337.454	75.09
337.667	32.08
337.88	32.08
338.092	107.86
338.305	40.28
338.517	27.99
338.729	93.52
338.942	60.76
339.154	73.04
339.367	32.08
339.579	64.85
339.792	101.72
340.004	36.18
340.217	23.89
340.429	64.85
340.641	7.51
340.854	15.7
341.066	48.47
341.278	116.05
341.491	36.18
341.703	134.48
341.915	7.51
342.128	130.39
342.34	19.8
342.552	15.7
342.764	77.14
342.977	64.85
343.189	32.08
343.401	32.08
343.613	62.8
343.826	56.66
344.038	7.51
344.25	3.41
344.462	99.67
344.674	25.94
344.886	97.62
345.099	73.04
345.311	81.24
345.523	23.89
345.735	-25.26
345.947	44.37
346.159	85.33
346.371	-8.87
346.583	75.09
346.795	30.04
347.007	15.7
347.219	21.84
347.431	89.43
347.643	97.62
347.855	81.24
348.067	105.81
348.279	23.89
348.491	64.85
348.703	42.32
348.915	58.71
349.127	3.41
349.339	101.72
349.551	97.62
349.763	48.47
349.975	97.62
350.187	56.66
350.399	77.14
350.61	179.54
350.822	44.37
351.034	-8.87
351.246	-2.73
351.458	99.67
351.669	85.33
351.881	89.43
352.093	25.94
352.305	52.56
352.517	81.24
352.728	97.62
352.94	58.71
353.152	122.2
353.363	46.42
353.575	81.24
353.787	32.08
353.999	25.94
354.21	107.86
354.422	40.28
354.633	56.66
354.845	64.85
355.057	95.57
355.268	-19.11
355.48	130.39
355.692	56.66
355.903	23.89
356.115	56.66
356.326	-74.41
356.538	169.3
356.749	44.37
356.961	105.81
357.172	101.72
357.384	75.09
357.595	128.34
357.807	-6.83
358.018	73.04
358.23	103.76
358.441	124.24
358.653	118.1
358.864	-0.68
359.075	48.47
359.287	140.63
359.498	42.32
359.709	91.48
359.921	68.95
360.132	44.37
360.344	36.18
360.555	81.24
360.766	56.66
360.977	23.89
361.189	77.14
361.4	19.8
361.611	73.04
361.823	36.18
362.034	71
362.245	-0.68
362.456	132.44
362.667	62.8
362.879	126.29
363.09	34.13
363.301	-15.02
363.512	34.13
363.723	56.66
363.935	-0.68
364.146	105.81
364.357	56.66
364.568	107.86
364.779	-6.83
364.99	120.15
365.201	1.37
365.412	87.38
365.623	5.46
365.834	58.71
366.045	-66.22
366.256	42.32
366.467	56.66
366.678	21.84
366.889	81.24
367.1	107.86
367.311	23.89
367.522	-29.35
367.733	107.86
367.944	40.28
368.155	56.66
368.366	68.95
368.577	44.37
368.788	130.39
368.999	42.32
369.209	34.13
369.42	146.77
369.631	126.29
369.842	146.77
370.053	42.32
370.264	36.18
370.474	73.04
370.685	62.8
370.896	64.85
371.107	66.9
371.317	40.28
371.528	91.48
371.739	52.56
371.95	68.95
372.16	27.99
372.371	93.52
372.582	89.43
372.792	40.28
373.003	114
373.214	58.71
373.424	97.62
373.635	19.8
373.846	146.77
374.056	44.37
374.267	109.91
374.477	32.08
374.688	48.47
374.898	-64.17
375.109	116.05
375.319	77.14
375.53	177.49
375.74	97.62
375.951	122.2
376.161	56.66
376.372	101.72
376.582	3.41
376.793	58.71
377.003	81.24
377.214	93.52
377.424	73.04
377.635	7.51
377.845	52.56
378.055	50.52
378.266	-62.12
378.476	150.87
378.686	81.24
378.897	25.94
379.107	23.89
379.317	66.9
379.528	11.61
379.738	42.32
379.948	32.08
380.158	50.52
380.369	89.43
380.579	58.71
380.789	-15.02
380.999	40.28
381.21	60.76
381.42	93.52
381.63	64.85
381.84	114
382.05	27.99
382.261	60.76
382.471	103.76
382.681	64.85
382.891	105.81
383.101	91.48
383.311	32.08
383.521	52.56
383.731	58.71
383.941	89.43
384.151	30.04
384.361	19.8
384.571	48.47
384.781	132.44
384.991	99.67
385.201	111.96
385.411	64.85
385.621	50.52
385.831	19.8
386.041	87.38
386.251	48.47
386.461	91.48
386.671	105.81
386.881	105.81
387.091	77.14
387.301	34.13
387.511	89.43
387.72	38.23
387.93	48.47
388.14	161.11
388.35	89.43
388.56	114
388.769	114
388.979	140.63
389.189	73.04
389.399	91.48
389.609	75.09
389.818	58.71
390.028	83.28
390.238	126.29
390.447	54.61
390.657	132.44
390.867	66.9
391.076	40.28
391.286	83.28
391.496	34.13
391.705	93.52
391.915	62.8
392.125	130.39
392.334	34.13
392.544	132.44
392.753	58.71
392.963	101.72
393.172	62.8
393.382	97.62
393.591	161.11
393.801	138.58
394.01	130.39
394.22	150.87
394.429	134.48
394.639	58.71
394.848	159.06
395.058	120.15
395.267	-0.68
395.477	114
395.686	81.24
395.895	32.08
396.105	181.59
396.314	58.71
396.524	23.89
396.733	130.39
396.942	99.67
397.152	167.25
397.361	118.1
397.57	101.72
397.78	50.52
397.989	120.15
398.198	114
398.407	64.85
398.617	107.86
398.826	118.1
399.035	105.81
399.244	146.77
399.453	48.47
399.663	101.72
399.872	130.39
400.081	52.56
400.29	163.15
400.499	95.57
400.708	154.96
400.917	142.68
401.127	66.9
401.336	21.84
401.545	122.2
401.754	81.24
401.963	142.68
402.172	83.28
402.381	165.2
402.59	154.96
402.799	130.39
403.008	179.54
403.217	208.21
403.426	93.52
403.635	124.24
403.844	142.68
404.053	154.96
404.262	118.1
404.471	204.11
404.68	163.15
404.888	83.28
405.097	191.83
405.306	154.96
405.515	81.24
405.724	150.87
405.933	171.35
406.142	181.59
406.35	216.4
406.559	220.5
406.768	195.92
406.977	206.16
407.185	152.91
407.394	163.15
407.603	175.44
407.812	163.15
408.02	222.55
408.229	179.54
408.438	146.77
408.646	189.78
408.855	175.44
409.064	200.02
409.272	197.97
409.481	286.03
409.69	267.6
409.898	300.37
410.107	277.84
410.315	286.03
410.524	286.03
410.733	259.41
410.941	292.18
411.15	245.07
411.358	339.28
411.567	410.96
411.775	372.05
411.984	296.27
412.192	398.67
412.401	367.95
412.609	408.91
412.818	429.39
413.026	302.42
413.234	460.11
413.443	421.2
413.651	474.45
413.86	499.02
414.068	517.45
414.276	437.58
414.485	433.49
414.693	441.68
414.901	519.5
415.11	529.74
415.318	593.23
415.526	640.33
415.734	621.9
415.943	669
416.151	705.87
416.359	650.57
416.567	720.2
416.776	699.72
416.984	755.02
417.192	804.17
417.4	752.97
417.608	744.78
417.817	814.41
418.025	818.5
418.233	1017.16
418.441	838.98
418.649	929.1
418.857	951.62
419.065	968.01
419.273	959.81
419.481	1033.54
419.689	1146.18
419.897	1146.18
420.105	1203.52
420.313	1310.02
420.521	1183.04
420.729	1201.47
420.937	1342.78
421.145	1367.36
421.353	1359.17
421.561	1490.24
421.769	1500.48
421.977	1533.25
422.185	1563.97
422.393	1623.36
422.601	1844.54
422.809	1785.15
423.017	1672.51
423.224	1852.73
423.432	1916.22
423.64	1912.12
423.848	1957.18
424.056	2008.37
424.263	2239.8
424.471	2252.08
424.679	2227.51
424.887	2284.85
425.094	2436.4
425.302	2327.86
425.51	2522.41
425.718	2620.72
425.925	2616.62
426.133	2702.64
426.341	2891.05
426.548	2964.78
426.756	2886.95
426.964	3069.22
427.171	3169.57
427.379	3163.43
427.586	3267.88
427.794	3357.99
428.001	3507.49
428.209	3663.13
428.417	3685.66
428.624	3925.27
428.832	3876.12
429.039	3843.35
429.247	3892.51
429.454	4218.13
429.662	4465.94
429.869	4232.47
430.076	4605.2
430.284	4392.21
430.491	4660.49
430.699	4726.03
430.906	4922.63
431.114	4885.77
431.321	5111.05
431.528	5217.54
431.736	5496.07
431.943	5704.96
432.15	5694.72
432.358	5637.38
432.565	6010.11
432.772	5891.32
432.979	6194.42
433.187	6292.73
433.394	6370.55
433.601	6864.11
433.808	6913.26
434.016	6769.9
434.223	7116.01
434.43	7701.73
434.637	7296.23
434.844	7888.09
435.052	7865.57
435.259	8113.37
435.466	8047.83
435.673	7945.44
435.88	8387.8
436.087	8799.44
436.294	8881.36
436.501	8574.16
436.708	8862.93
436.915	9098.44
437.122	9534.66
437.329	9567.43
437.537	9911.49
437.743	9974.97
437.95	10202.3
438.157	10398.9
438.364	10771.63
438.571	10572.98
438.778	10976.43
438.985	11781.28
439.192	11289.77
439.399	11713.7
439.606	11381.93
439.813	11943.07
440.02	12913.81
440.227	12719.25
440.433	12668.05
440.64	12819.6
440.847	12770.45
441.054	13253.77
441.261	14183.55
441.467	13884.55
441.674	14148.73
441.881	14564.47
442.088	14503.03
442.294	14584.95
442.501	14609.53
442.708	15238.25
442.914	15686.76
443.121	16194.65
443.328	15772.77
443.534	16925.78
443.741	16350.3
443.948	16204.89
444.154	17417.29
444.361	17499.21
444.568	17239.12
444.774	17458.25
444.981	17607.75
445.187	18181.18
445.394	19026.99
445.6	18482.24
445.807	20696.09
446.013	19385.39
446.22	20053.03
446.426	20851.74
446.633	20812.82
446.839	21554.19
447.046	20642.84
447.252	22019.08
447.459	22230.02
447.665	21945.35
447.871	22899.7
448.078	23813.1
448.284	22680.57
448.491	23239.67
448.697	24226.79
448.903	24669.15
449.11	24853.47
449.316	24620
449.522	24572.89
449.728	25463.76
449.935	25797.58
450.141	25340.88
450.347	26553.28
450.553	25738.19
450.76	26010.57
450.966	26829.76
451.172	26266.56
451.378	27190.2
451.584	26713.02
451.791	27296.69
451.997	27327.41
452.203	27564.98
452.409	27888.56
452.615	27949.99
452.821	26479.55
453.027	26311.62
453.233	27603.89
453.44	26608.58
453.646	27016.12
453.852	27225.01
454.058	27808.68
454.264	26698.69
454.47	27397.04
454.676	26594.24
454.882	27876.27
455.088	25105.37
455.294	25983.94
455.5	25963.47
455.705	26389.44
455.911	25416.66
456.117	24755.16
456.323	24779.74
456.529	23348.21
456.735	24529.89
456.941	23589.87
457.147	23321.59
457.352	22774.78
457.558	22567.93
457.764	22520.83
457.97	22244.35
458.176	21873.67
458.381	22033.41
458.587	21007.38
458.793	20409.37
458.999	19801.13
459.204	21048.34
459.41	20358.17
459.616	19053.62
459.821	19199.02
460.027	19176.5
460.233	18803.77
460.438	17820.74
460.644	18132.03
460.85	17239.12
461.055	17116.24
461.261	16628.82
461.466	15676.52
461.672	15154.29
461.878	16567.38
462.083	15369.32
462.289	14957.68
462.494	14488.7
462.7	14007.42
462.905	13706.37
463.111	14064.77
463.316	14007.42
463.522	13876.35
463.727	13823.11
463.932	13995.14
464.138	13565.06
464.343	13728.9
464.549	13413.51
464.754	13683.84
464.959	13665.41
465.165	13372.55
465.37	13053.07
465.575	12565.65
465.781	13354.12
465.986	13419.66
466.191	12799.12
466.397	12176.54
466.602	11918.5
466.807	12446.87
467.012	12518.55
467.218	12303.51
467.423	12049.57
467.628	12254.36
467.833	12780.69
468.038	12391.58
468.244	11857.06
468.449	12481.69
468.654	11934.88
468.859	12131.48
469.064	11762.85
469.269	11150.51
469.474	11437.22
469.679	11676.84
469.885	11396.26
470.09	11670.69
470.295	11168.94
470.5	11035.82
470.705	11091.12
470.91	11066.54
471.115	10769.58
471.32	11216.04
471.525	11132.08
471.73	10763.44
471.935	10808.5
472.139	10357.94
472.344	10482.87
472.549	10321.08
472.754	10304.7
472.959	10224.83
473.164	9878.72
473.369	9632.96
473.574	10220.73
473.778	10005.69
473.983	10161.34
474.188	9721.02
474.393	9381.06
474.598	9608.39
474.802	9499.84
475.007	9362.63
475.212	9536.71
475.417	9053.39
475.621	9080.01
475.826	9184.46
476.031	8910.03
476.235	8862.93
476.44	8889.55
476.645	8639.7
476.849	8815.82
477.054	8588.5
477.259	8537.3
477.463	8510.68
477.668	8068.31
477.872	8479.96
478.077	8299.73
478.282	7800.03
478.486	8039.64
478.691	8064.22
478.895	8027.35
479.1	7711.97
479.304	7941.34
479.509	7519.46
479.713	7707.87
479.918	7425.25
480.122	7521.51
480.326	7601.38
480.531	7584.99
480.735	7443.68
480.94	7412.96
481.144	7693.54
481.348	7183.59
481.553	7501.03
481.757	7214.31
481.961	7265.51
482.166	7324.9
482.37	7257.32
482.574	7152.87
482.778	7079.15
482.983	7365.86
483.187	7087.34
483.391	7140.58
483.595	7163.11
483.8	7077.1
484.004	7163.11
484.208	7202.02
484.412	7204.07
484.616	7085.29
484.821	7351.53
485.025	7101.67
485.229	7281.89
485.433	7263.46
485.637	7169.26
485.841	7073
486.045	7210.22
486.249	7265.51
486.453	7152.87
486.657	7298.28
486.861	7103.72
487.065	6880.49
487.269	7206.12
487.473	7199.98
487.677	7202.02
487.881	7343.33
488.085	7118.06
488.289	7206.12
488.493	7109.86
488.697	7363.81
488.901	7206.12
489.105	7349.48
489.309	7230.69
489.512	7296.23
489.716	7161.06
489.92	7341.29
490.124	7179.5
490.328	7578.85
490.531	7126.25
490.735	7374.05
490.939	7486.69
491.143	7453.92
491.346	7388.39
491.55	7496.93
491.754	7437.54
491.958	7421.16
492.161	7439.59
492.365	7390.44
492.569	7470.31
492.772	7537.89
492.976	7519.46
493.18	7470.31
493.383	7732.45
493.587	7763.17
493.79	7945.44
493.994	7703.78
494.197	7830.75
494.401	7900.38
494.605	7945.44
494.808	7857.37
495.012	8068.31
495.215	8193.24
495.419	8213.72
495.622	8191.19
495.825	8250.58
496.029	8215.77
496.232	8471.76
496.436	8436.95
496.639	8783.06
496.843	8754.38
497.046	8758.48
497.249	8873.17
497.453	8764.62
497.656	8842.45
497.859	8881.36
498.063	9018.57
498.266	9290.95
498.469	9233.61
498.673	9499.84
498.876	9491.65
499.079	9585.86
499.282	9632.96
499.485	9809.09
499.689	9737.41
499.892	10108.09
500.095	10028.22
500.298	10325.18
500.501	10194.11
500.705	10403
500.908	10738.87
501.111	10773.68
501.314	10919.09
501.517	11015.34
501.72	10951.85
501.923	10968.24
502.126	11248.81
502.329	11390.12
502.532	11478.18
502.735	11443.37
502.938	11852.96
503.141	11725.99
503.344	11930.78
503.547	11943.07
503.75	12119.2
503.953	12338.33
504.156	12551.32
504.359	12659.86
504.562	12692.63
504.765	12983.44
504.968	13196.43
505.17	13046.93
505.373	13157.52
505.576	13454.47
505.779	13419.66
505.982	13663.36
506.185	14158.97
506.387	13849.73
506.59	14089.34
506.793	14427.26
506.996	14402.68
507.198	14904.43
507.401	14681.21
507.604	14746.74
507.807	14937.2
508.009	15406.19
508.212	15418.47
508.415	15852.64
508.617	15748.2
508.82	15869.03
509.022	15889.51
509.225	16305.24
509.428	16499.8
509.63	16448.6
509.833	16405.59
510.035	17005.65
510.238	17226.83
510.44	17239.12
510.643	17065.04
510.845	17491.02
511.048	17468.49
511.25	17792.07
511.453	17595.46
511.655	18443.32
511.858	18228.29
512.06	18740.28
512.262	18854.97
512.465	18773.05
512.667	19033.14
512.87	19031.09
513.072	19336.24
513.274	19618.86
513.477	20067.36
513.679	19897.38
513.881	20102.18
514.084	20345.89
514.286	20401.18
514.488	20468.76
514.69	21029.91
514.893	20972.57
515.095	21185.55
515.297	21462.03
515.499	21584.91
515.701	21699.59
515.904	21855.24
516.106	22309.89
516.308	22330.37
516.51	22707.19
516.712	22649.85
516.914	23014.39
517.116	23426.03
517.318	23225.33
517.52	23524.33
517.722	23440.37
517.925	24181.73
518.127	24349.67
518.329	24259.56
518.531	24245.22
518.733	25054.17
518.935	24804.31
519.136	25002.97
519.338	25344.98
519.54	25586.64
519.742	25838.54
519.944	25781.2
520.146	26270.66
520.348	26332.1
520.55	26756.03
520.752	26620.86
520.954	27069.37
521.155	26936.25
521.357	27249.59
521.559	27435.95
521.761	28027.82
521.963	28050.35
522.164	28044.2
522.366	28162.98
522.568	28674.98
522.77	28578.72
522.971	28873.63
523.173	28883.87
523.375	29096.86
523.576	29236.12
523.778	29287.32
523.98	29645.71
524.181	29617.04
524.383	29737.87
524.584	30487.43
524.786	30061.45
524.988	29903.76
525.189	30712.7
525.391	30583.68
525.592	30915.45
525.794	31261.56
525.995	31077.24
526.197	31071.1
526.398	31392.63
526.6	31515.51
526.801	31222.65
527.003	31611.76
527.204	31796.08
527.406	32287.59
527.607	32050.03
527.808	32146.28
528.01	31955.82
528.211	32031.6
528.412	32779.11
528.614	32291.69
528.815	32725.86
529.016	32818.02
529.218	32641.89
529.419	32682.85
529.62	32842.59
529.822	32805.73
530.023	33127.26
530.224	33002.33
530.425	32983.9
530.626	32887.65
530.828	33092.44
531.029	33600.34
531.23	33135.45
531.431	33362.78
531.632	32988
531.833	33579.86
532.035	33645.4
532.236	33401.69
532.437	33782.61
532.638	33213.27
532.839	33555.29
533.04	33532.76
533.241	33336.15
533.442	33776.47
533.643	33672.02
533.844	33702.74
534.045	33981.26
534.246	33481.56
534.447	33856.34
534.648	33649.49
534.849	33880.91
535.05	33487.7
535.251	33669.97
535.451	33665.88
535.652	33844.05
535.853	33653.59
536.054	33715.03
536.255	33995.6
536.456	33526.61
536.657	33878.86
536.857	33700.69
537.058	33506.13
537.259	34061.13
537.46	33633.11
537.66	33745.75
537.861	33977.17
538.062	33534.81
538.263	33753.94
538.463	33672.02
538.664	33805.14
538.865	33809.23
539.065	34204.49
539.266	33534.81
539.466	34143.05
539.667	33340.25
539.868	34057.04
540.068	33930.06
540.269	33545.05
540.469	33872.72
540.67	33672.02
540.87	33852.24
541.071	33452.89
541.271	33772.37
541.472	33594.2
541.672	33586
541.873	33413.98
542.073	33133.4
542.274	33930.06
542.474	33733.46
542.675	33596.24
542.875	33762.13
543.075	33721.17
543.276	33207.13
543.476	33657.68
543.676	33454.93
543.877	33461.08
544.077	33465.17
544.277	33598.29
544.478	33313.62
544.678	33831.76
544.878	33518.42
545.078	33538.9
545.279	33377.11
545.479	33624.92
545.679	33493.85
545.879	33379.16
546.079	33409.88
546.28	33280.86
546.48	33200.99
546.68	33268.57
546.88	33866.58
547.08	33151.84
547.28	33364.82
547.48	33223.51
547.68	33344.34
547.88	33293.15
548.081	33387.35
548.281	32955.23
548.481	33432.41
548.681	33827.67
548.881	33278.81
549.081	33153.88
549.28	33209.18
549.48	33188.7
549.68	32981.85
549.88	33835.86
550.08	33143.64
550.28	33031.01
550.48	33192.79
550.68	33426.26
550.88	33198.94
551.08	33153.88
551.279	33239.9
551.479	32850.78
551.679	33192.79
551.879	33086.3
552.079	33006.43
552.278	32699.23
552.478	32854.88
552.678	33180.51
552.878	33276.76
553.077	32904.03
553.277	32617.32
553.477	33241.95
553.676	32777.06
553.876	32893.79
554.076	32818.02
554.275	32805.73
554.475	32453.48
554.674	32361.32
554.874	33211.23
555.074	32633.7
555.273	32895.84
555.473	32824.16
555.672	32547.68
555.872	32385.9
556.071	32772.96
556.271	32873.31
556.47	32643.94
556.67	32197.48
556.869	32682.85
557.068	32695.14
557.268	32293.74
557.467	32652.13
557.667	32349.03
557.866	32346.98
558.065	32541.54
558.265	32140.14
558.464	32410.47
558.663	32428.9
558.863	32027.5
559.062	32492.39
559.261	32015.21
559.461	32027.5
559.66	31851.38
559.859	32103.28
560.058	31736.69
560.258	31742.83
560.457	31329.14
560.656	31837.04
560.855	31511.41
561.054	31853.42
561.253	31308.66
561.453	31730.55
561.652	31462.26
561.851	31630.19
562.05	31507.32
562.249	31552.37
562.448	31814.51
562.647	31388.53
562.846	31167.35
563.045	31236.98
563.244	31210.36
563.443	31275.9
563.642	30759.81
563.841	31036.28
564.04	31185.79
564.239	30882.69
564.438	30964.6
564.637	31335.29
564.836	30817.15
565.035	30405.51
565.234	30927.74
565.432	30448.52
565.631	30276.49
565.83	30460.8
566.029	30444.42
566.228	30471.04
566.427	30296.97
566.625	30241.67
566.824	29938.57
567.023	30370.69
567.222	29735.82
567.42	30419.85
567.619	30153.61
567.818	29840.27
568.016	29787.02
568.215	30086.03
568.414	29565.84
568.612	29936.52
568.811	29688.72
569.01	29932.43
569.208	29445.01
569.407	29430.68
569.605	29289.37
569.804	29692.82
570.002	29033.37
570.201	29225.88
570.4	29041.56
570.598	29062.04
570.797	28906.4
570.995	29279.13
571.193	28562.34
571.392	29098.91
571.59	28941.21
571.789	28498.85
571.987	28767.13
572.186	28249
572.384	28210.09
572.582	28453.8
572.781	28767.13
572.979	28066.73
573.177	28566.43
573.376	28074.92
573.574	27876.27
573.772	28097.45
573.971	27888.56
574.169	27722.67
574.367	27728.81
574.565	28074.92
574.763	27673.52
574.962	27532.21
575.16	27409.33
575.358	27417.52
575.556	27198.39
575.754	27503.54
575.952	27065.27
576.151	27390.9
576.349	27073.46
576.547	27048.89
576.745	26934.2
576.943	27022.26
577.141	27038.65
577.339	27001.79
577.537	26917.82
577.735	26760.12
577.933	26540.99
578.131	27071.42
578.329	26684.35
578.527	26483.65
578.725	26237.89
578.923	26592.19
579.121	26170.31
579.319	26043.34
579.516	26475.46
579.714	26010.57
579.912	26188.74
580.11	25824.2
580.308	25951.18
580.506	25877.45
580.704	25363.41
580.901	25662.41
581.099	25748.43
581.297	25181.14
581.495	25369.55
581.692	25463.76
581.89	25213.91
582.088	25555.92
582.285	24902.62
582.483	25351.12
582.681	25017.3
582.878	25076.69
583.076	24816.6
583.274	25140.18
583.471	24712.16
583.669	24804.31
583.866	24626.14
584.064	24699.87
584.262	24263.65
584.459	24810.46
584.657	24404.96
584.854	24474.59
585.052	23942.12
585.249	24400.86
585.447	24294.37
585.644	23942.12
585.841	23856.11
586.039	24210.4
586.236	23944.17
586.434	24093.67
586.631	23561.2
586.828	23847.91
587.026	23624.68
587.223	23694.32
587.42	23331.83
587.618	23663.6
587.815	23219.19
588.012	23483.38
588.21	23135.22
588.407	23452.66
588.604	23251.95
588.801	23053.3
588.999	23081.97
589.196	22799.35
589.393	23024.63
589.59	22768.63
589.787	22637.56
589.984	22572.03
590.182	22424.58
590.379	22627.32
590.576	22227.97
590.773	22346.75
590.97	22137.86
591.167	22453.25
591.364	22144
591.561	22711.29
591.758	21875.72
591.955	22125.57
592.152	22019.08
592.349	21877.77
592.546	21810.18
592.743	22010.89
592.94	21615.63
593.137	21642.25
593.334	21847.05
593.531	21709.83
593.727	21449.74
593.924	21437.45
594.121	21281.81
594.318	21597.2
594.515	21269.52
594.712	21359.63
594.908	21263.38
595.105	21177.36
595.302	20806.68
595.499	21109.78
595.696	20765.72
595.892	21011.48
596.089	20904.98
596.286	20827.16
596.482	20601.88
596.679	20399.13
596.876	20573.21
597.072	20399.13
597.269	20337.69
597.466	20313.12
597.662	20296.74
597.859	20130.85
598.055	20190.24
598.252	20098.08
598.448	20057.12
598.645	20007.97
598.841	19727.4
599.038	19899.43
599.234	19801.13
599.431	19639.34
599.627	19450.92
599.824	19774.5
600.02	19555.37
600.217	19506.22
600.413	19704.87
600.609	19448.88
600.806	19352.62
601.002	19391.53
601.198	19256.37
601.395	19092.53
601.591	19139.63
601.787	19053.62
601.984	19225.65
602.18	19170.35
602.376	18799.67
602.572	19002.42
602.769	18832.44
602.965	18582.59
603.161	18668.6
603.357	18558.01
603.553	18402.36
603.75	18609.21
603.946	18598.97
604.142	18584.63
604.338	18314.3
604.534	18326.59
604.73	18064.45
604.926	18136.13
605.122	18091.07
605.318	17951.81
605.514	17859.65
605.71	17933.38
605.906	18033.73
606.102	17742.92
606.298	17751.11
606.494	17695.82
606.69	17765.45
606.886	17837.13
607.082	17413.2
607.278	17749.06
607.474	17269.84
607.67	17675.34
607.866	17392.72
608.062	17658.95
608.257	17601.61
608.453	17206.35
608.649	17650.76
608.845	17472.59
609.041	17120.34
609.236	17478.73
609.432	17099.86
609.628	17106
609.824	17149.01
610.019	16972.88
610.215	17046.61
610.411	16925.78
610.606	16872.53
610.802	16968.79
610.998	16727.13
611.193	16702.55
611.389	16800.85
611.584	16710.74
611.78	16686.17
611.976	16663.64
612.171	16684.12
612.367	16815.19
612.562	16587.86
612.758	16434.27
612.953	16499.8
613.149	16702.55
613.344	16295
613.539	16583.77
613.735	16450.65
613.93	16426.07
614.126	16325.72
614.321	16366.68
614.517	16276.57
614.712	16213.09
614.907	16114.78
615.103	16188.51
615.298	15914.08
615.493	16059.49
615.688	15844.45
615.884	16338.01
616.079	15891.55
616.274	16059.49
616.47	15922.27
616.665	15940.71
616.86	15740.01
617.055	15909.99
617.25	15672.42
617.445	15918.18
617.641	15764.58
617.836	15610.98
618.031	15463.53
618.226	15451.24
618.421	15563.88
618.616	15596.65
618.811	15262.83
619.006	15531.11
619.201	15281.26
619.396	15137.9
619.591	15027.31
619.786	15363.18
619.981	14974.06
620.176	15219.82
620.371	14859.38
620.566	14947.44
620.761	14797.94
620.956	14875.76
621.151	14507.13
621.346	14847.09
621.541	14324.86
621.735	14810.23
621.93	14244.99
622.125	14244.99
622.32	13952.13
622.515	14124.16
622.709	14261.37
622.904	14175.36
623.099	14015.62
623.294	14101.63
623.488	13589.64
623.683	13855.87
623.878	13671.56
624.072	13745.28
624.267	13606.02
624.462	13526.15
624.656	13532.29
624.851	13276.3
625.046	13520.01
625.24	13296.78
625.435	13229.2
625.629	13065.36
625.824	13026.45
626.018	13061.26
626.213	12680.34
626.407	12932.24
626.602	12674.2
626.796	13018.25
626.991	12729.49
627.185	12444.82
627.38	12352.66
627.574	12459.16
627.768	12143.77
627.963	12100.76
628.157	12213.4
628.352	12362.9
628.546	12068
628.74	12160.16
628.935	12049.57
629.129	11879.58
629.323	11768.99
629.517	11805.86
629.712	11625.64
629.906	11797.67
630.1	11289.77
630.294	11633.83
630.489	11394.22
630.683	11457.7
630.877	11213.99
631.071	11138.22
631.265	11357.35
631.459	11203.75
631.653	11156.65
631.848	11160.75
632.042	10886.32
632.236	11021.49
632.43	10943.66
632.624	10804.4
632.818	10816.69
633.012	10658.99
633.206	10751.15
633.4	10658.99
633.594	10601.65
633.788	10491.06
633.982	10435.77
634.176	10343.61
634.369	10222.78
634.563	10470.58
634.757	10394.81
634.951	10276.02
635.145	10411.19
635.339	10142.91
635.533	10108.09
635.726	9903.29
635.92	9895.1
636.114	9913.53
636.308	9714.88
636.501	9731.26
636.695	9934.01
636.889	9602.24
637.083	9751.74
637.276	9462.98
637.47	9440.45
637.664	9438.41
637.857	9288.9
638.051	9364.68
638.244	9247.94
638.438	9235.66
638.632	9252.04
638.825	9168.07
639.019	8963.28
639.212	9000.14
639.406	8930.51
639.599	9028.81
639.793	8899.79
639.986	8735.95
640.18	8858.83
640.373	8897.74
640.567	8664.27
640.76	8572.11
640.954	8449.24
641.147	8537.3
641.34	8662.23
641.534	8387.8
641.727	8355.03
641.92	8488.15
642.114	8463.57
642.307	8449.24
642.5	8391.89
642.694	8090.84
642.887	8191.19
643.08	8056.03
643.273	8137.95
643.467	8158.42
643.66	7994.59
643.853	7988.44
644.046	8000.73
644.239	7783.65
644.432	7804.13
644.626	7822.56
644.819	7775.45
645.012	7619.81
645.205	7767.26
645.398	7619.81
645.591	7343.33
645.784	7625.95
645.977	7511.27
646.17	7593.19
646.363	7347.43
646.556	7261.41
646.749	7419.11
646.942	7347.43
647.135	7273.7
647.328	7253.22
647.521	7167.21
647.714	7204.07
647.907	7087.34
648.099	7281.89
648.292	7019.75
648.485	7036.14
648.678	6851.82
648.871	6845.68
649.064	6896.88
649.256	7003.37
649.449	6794.48
649.642	6638.83
649.835	6718.7
650.027	6644.98
650.22	6753.52
650.413	6628.59
650.605	6651.12
650.798	6608.11
650.991	6593.78
651.183	6659.31
651.376	6491.38
651.568	6554.87
651.761	6434.04
651.954	6302.97
652.146	6341.88
652.339	6298.87
652.531	6071.54
652.724	6130.94
652.916	6092.02
653.109	6143.22
653.301	6020.35
653.494	6112.5
653.686	5833.98
653.879	5917.95
654.071	6155.51
654.263	6006.01
654.456	5928.19
654.648	5930.23
654.84	5776.64
655.033	5844.22
655.225	5754.11
655.417	5883.13
655.61	5917.95
655.802	5729.53
655.994	5790.97
656.186	5649.66
656.379	5575.94
656.571	5569.79
656.763	5526.78
656.955	5569.79
657.148	5348.61
657.34	5563.65
657.532	5395.71
657.724	5356.8
657.916	5395.71
658.108	5405.95
658.3	5430.53
658.492	5283.08
658.684	5360.9
658.876	5168.39
659.068	5152.01
659.26	5160.2
659.452	5154.05
659.644	5233.93
659.836	5317.89
660.028	4988.17
660.22	5018.89
660.412	4953.35
660.604	4906.25
660.796	4898.06
660.988	4965.64
661.18	4920.59
661.372	4840.72
661.563	4898.06
661.755	4738.32
661.947	4857.1
662.139	4848.91
662.331	4742.41
662.522	4597.01
662.714	4736.27
662.906	4726.03
663.097	4654.35
663.289	4723.98
663.481	4674.83
663.673	4582.67
663.864	4652.3
664.056	4570.38
664.247	4635.92
664.439	4480.27
664.631	4388.11
664.822	4386.07
665.014	4435.22
665.205	4379.92
665.397	4431.12
665.588	4285.72
665.78	4332.82
665.971	4336.92
666.163	4232.47
666.354	4361.49
666.546	4236.56
666.737	4211.99
666.929	4285.72
667.12	4054.3
667.311	4113.69
667.503	4195.61
667.694	4103.45
667.885	3970.33
668.077	3992.86
668.268	4035.86
668.459	4001.05
668.651	3958.04
668.842	4058.39
669.033	3994.9
669.224	3900.7
669.416	3800.35
669.607	3953.94
669.798	3880.22
669.989	3943.71
670.18	3851.55
670.371	3728.67
670.563	3812.64
670.754	3818.78
670.945	3884.31
671.136	3915.03
671.327	3710.24
671.518	3747.1
671.709	3724.57
671.9	3771.68
672.091	3743
672.282	3829.02
672.473	3853.59
672.664	3476.77
672.855	3570.97
673.046	3712.28
673.237	3695.9
673.428	3671.33
673.619	3611.93
673.809	3585.31
674	3493.15
674.191	3579.17
674.382	3378.47
674.573	3505.44
674.764	3497.25
674.954	3472.67
675.145	3425.57
675.336	3398.95
675.527	3415.33
675.717	3474.72
675.908	3392.8
676.099	3382.56
676.289	3448.1
676.48	3271.97
676.671	3403.04
676.861	3308.83
677.052	3263.78
677.243	3360.03
677.433	3374.37
677.624	3415.33
677.814	3376.42
678.005	3226.92
678.195	3341.6
678.386	3216.68
678.576	3235.11
678.767	3269.92
678.957	3296.55
679.148	3235.11
679.338	3138.85
679.529	3138.85
679.719	3132.71
679.909	3218.72
680.1	3251.49
680.29	3104.04
680.481	3226.92
680.671	3206.44
680.861	3087.65
681.052	3200.29
681.242	3132.71
681.432	3009.83
681.622	3157.29
681.813	3046.69
682.003	2993.45
682.193	2991.4
682.383	3161.38
682.573	3075.37
682.764	3165.48
682.954	2956.58
683.144	3085.61
683.334	2940.2
683.524	3079.46
683.714	2968.87
683.904	2975.02
684.094	3048.74
684.284	2923.82
684.474	3050.79
684.664	3007.78
684.854	3038.5
685.044	3038.5
685.234	3009.83
685.424	3022.12
685.614	2936.1
685.804	2981.16
685.994	2907.43
686.184	2891.05
686.374	2845.99
686.564	2813.23
686.753	2884.91
686.943	2805.03
687.133	2876.71
687.323	2706.73
687.513	2876.71
687.702	2741.55
687.892	2833.71
688.082	2735.4
688.272	2845.99
688.461	2739.5
688.651	2719.02
688.841	2684.2
689.03	2590
689.22	2604.33
689.41	2637.1
689.599	2673.96
689.789	2671.92
689.979	2678.06
690.168	2680.11
690.358	2508.08
690.547	2559.28
690.737	2514.22
690.926	2665.77
691.116	2460.98
691.305	2649.39
691.495	2501.94
691.684	2563.37
691.874	2551.09
692.063	2557.23
692.252	2596.14
692.442	2614.57
692.631	2512.17
692.82	2422.06
693.01	2413.87
693.199	2415.92
693.388	2415.92
693.578	2516.27
693.767	2460.98
693.956	2358.58
694.146	2463.02
694.335	2489.65
694.524	2399.54
694.713	2403.63
694.902	2401.58
695.092	2342.19
695.281	2344.24
695.47	2372.91
695.659	2247.99
695.848	2383.15
696.037	2383.15
696.226	2319.67
696.415	2305.33
696.604	2276.66
696.793	2288.95
696.982	2131.25
697.171	2374.96
697.36	2235.7
697.549	2270.51
697.738	2145.59
697.927	2157.88
698.116	2127.16
698.305	2176.31
698.494	2293.04
698.683	2231.6
698.872	2211.12
699.061	2190.64
699.25	2104.63
699.438	2196.79
699.627	2188.6
699.816	2245.94
700.005	2100.53
700.193	2170.16
700.382	2331.95
700.571	2086.2
700.76	2164.02
700.948	2190.64
701.137	2104.63
701.326	2186.55
701.514	2170.16
701.703	2129.2
701.892	2133.3
702.08	2266.42
702.269	2114.87
702.457	2063.67
702.646	2182.45
702.834	2100.53
703.023	2166.07
703.212	2112.82
703.4	2088.25
703.589	2026.81
703.777	2053.43
703.965	2063.67
704.154	2196.79
704.342	2014.52
704.531	2065.72
704.719	1963.32
704.907	2176.31
705.096	2067.77
705.284	2108.73
705.472	2096.44
705.661	2026.81
705.849	2067.77
706.037	2143.54
706.226	2061.62
706.414	2080.05
706.602	2053.43
706.79	2139.44
706.979	2000.18
707.167	2090.29
707.355	2028.85
707.543	1981.75
707.731	2041.14
707.919	2147.64
708.107	1983.8
708.296	2026.81
708.484	1973.56
708.672	1987.89
708.86	2153.78
709.048	1916.22
709.236	2018.61
709.424	2053.43
709.612	2145.59
709.8	2010.42
709.988	2047.29
710.176	1928.5
710.364	2026.81
710.551	2059.57
710.739	2100.53
710.927	1998.13
711.115	2071.86
711.303	2116.92
711.491	2043.19
711.679	2047.29
711.866	1951.03
712.054	2030.9
712.242	2071.86
712.43	2121.01
712.617	1983.8
712.805	2024.76
712.993	2010.42
713.181	2000.18
713.368	1991.99
713.556	1989.94
713.744	1932.6
713.931	2026.81
714.119	2121.01
714.306	2096.44
714.494	1998.13
714.682	1994.04
714.869	1879.35
715.057	1983.8
715.244	1996.09
715.432	2041.14
715.619	1998.13
715.807	2004.28
715.994	2006.33
716.182	2065.72
716.369	2028.85
716.556	1959.22
716.744	2016.57
716.931	1951.03
717.119	2006.33
717.306	1977.66
717.493	1934.65
717.681	1994.04
717.868	2088.25
718.055	2045.24
718.242	1957.18
718.43	2014.52
718.617	1942.84
718.804	1916.22
718.991	2057.53
719.179	1951.03
719.366	2022.71
719.553	2055.48
719.74	2018.61
719.927	2006.33
720.114	2073.91
720.301	1918.26
720.488	1965.37
720.676	1957.18
720.863	1934.65
721.05	2020.66
721.237	1926.46
721.424	2114.87
721.611	1973.56
721.798	1875.26
721.985	2041.14
722.172	2000.18
722.358	2024.76
722.545	2030.9
722.732	1989.94
722.919	1940.79
723.106	2012.47
723.293	1959.22
723.48	1955.13
723.667	2059.57
723.853	2014.52
724.04	2039.09
724.227	1955.13
724.414	1985.85
724.6	2012.47
724.787	2104.63
724.974	2024.76
725.161	2016.57
725.347	2047.29
725.534	1862.97
725.72	2047.29
725.907	2022.71
726.094	1946.94
726.28	1948.98
726.467	1908.02
726.653	2024.76
726.84	1924.41
727.027	1901.88
727.213	1926.46
727.4	1951.03
727.586	1985.85
727.773	1994.04
727.959	1883.45
728.145	1916.22
728.332	1940.79
728.518	1969.46
728.705	2010.42
728.891	1994.04
729.077	1963.32
729.264	2047.29
729.45	1846.59
729.636	2039.09
729.823	1961.27
730.009	2090.29
730.195	1967.42
730.382	1987.89
730.568	1998.13
730.754	1936.7
730.94	1981.75
731.126	2008.37
731.313	1877.3
731.499	1981.75
731.685	2016.57
731.871	2055.48
732.057	1985.85
732.243	1967.42
732.429	1932.6
732.615	2030.9
732.801	2055.48
732.987	1981.75
733.173	2055.48
733.359	1914.17
733.545	2069.81
733.731	1881.4
733.917	1916.22
734.103	2028.85
734.289	1922.36
734.475	2059.57
734.661	2051.38
734.847	1932.6
735.033	2008.37
735.219	1905.98
735.404	1953.08
735.59	1838.39
735.776	1873.21
735.962	1977.66
736.148	1948.98
736.333	2030.9
736.519	1948.98
736.705	1910.07
736.89	1883.45
737.076	1961.27
737.262	1899.83
737.447	2000.18
737.633	1891.64
737.819	1940.79
738.004	1951.03
738.19	1838.39
738.375	1946.94
738.561	1908.02
738.747	1899.83
738.932	1875.26
739.118	1858.87
739.303	1852.73
739.489	1934.65
739.674	1842.49
739.859	1928.5
740.045	1854.78
740.23	1893.69
740.416	1860.92
740.601	1928.5
740.786	1834.3
740.972	1838.39
741.157	1875.26
741.342	1893.69
741.528	1858.87
741.713	1865.02
741.898	1854.78
742.084	1787.19
742.269	1731.9
742.454	1844.54
742.639	1785.15
742.824	1787.19
743.01	1785.15
743.195	1801.53
743.38	1688.89
743.565	1695.04
743.75	1789.24
743.935	1746.23
744.12	1703.23
744.305	1738.04
744.49	1766.71
744.675	1735.99
744.86	1674.56
745.045	1754.43
745.23	1703.23
745.415	1752.38
745.6	1754.43
745.785	1658.17
745.97	1842.49
746.155	1725.75
746.34	1828.15
746.525	1604.92
746.71	1654.08
746.895	1553.73
747.079	1660.22
747.264	1596.73
747.449	1703.23
747.634	1555.77
747.819	1553.73
748.003	1645.88
748.188	1506.62
748.373	1568.06
748.557	1549.63
748.742	1541.44
748.927	1467.71
749.111	1529.15
749.296	1551.68
749.481	1514.81
749.665	1561.92
749.85	1391.94
750.034	1514.81
750.219	1445.18
750.404	1412.42
750.588	1424.7
750.773	1482.05
750.957	1404.22
751.141	1434.94
751.326	1441.09
751.51	1441.09
751.695	1451.33
751.879	1432.9
752.064	1520.96
752.248	1326.4
752.432	1457.47
752.617	1473.85
752.801	1328.45
752.985	1383.74
753.17	1400.13
753.354	1350.98
753.538	1326.4
753.722	1330.5
753.907	1273.15
754.091	1312.07
754.275	1342.78
754.459	1164.61
754.643	1213.76
754.828	1252.67
755.012	1256.77
755.196	1277.25
755.38	1129.8
755.564	1137.99
755.748	1269.06
755.932	1230.15
756.116	1191.24
756.3	1236.29
756.484	1211.71
756.668	1189.19
756.852	1148.23
757.036	1076.55
757.22	1215.81
757.404	1035.59
757.588	1207.62
757.772	1252.67
757.956	1162.56
758.14	1181
758.323	998.73
758.507	1064.26
758.691	1113.41
758.875	1103.17
759.059	1211.71
759.242	1064.26
759.426	1056.07
759.61	996.68
759.794	1137.99
759.977	1060.17
760.161	1123.65
760.345	1056.07
760.528	1123.65
760.712	1008.97
760.895	1023.3
761.079	1084.74
761.263	1025.35
761.446	1015.11
761.63	959.81
761.813	996.68
761.997	877.9
762.18	920.9
762.364	1002.82
762.547	945.48
762.731	992.58
762.914	933.19
763.098	941.38
763.281	965.96
763.464	925
763.648	910.66
763.831	1000.77
764.015	888.14
764.198	965.96
764.381	1023.3
764.564	1041.73
764.748	916.81
764.931	974.15
765.114	974.15
765.297	853.32
765.481	961.86
765.664	826.7
765.847	871.75
766.03	963.91
766.213	877.9
766.397	933.19
766.58	798.03
766.763	863.56
766.946	738.63
767.129	871.75
767.312	851.27
767.495	957.77
767.678	865.61
767.861	859.46
768.044	806.22
768.227	892.23
768.41	871.75
768.593	808.26
768.776	818.5
768.959	795.98
769.142	918.86
769.324	834.89
769.507	912.71
769.69	789.83
769.873	877.9
770.056	849.22
770.239	798.03
770.421	865.61
770.604	855.37
770.787	826.7
770.97	867.66
771.152	859.46
771.335	886.09
771.518	769.35
771.7	828.74
771.883	884.04
772.066	699.72
772.248	902.47
772.431	720.2
772.613	769.35
772.796	720.2
772.978	863.56
773.161	746.83
773.343	720.2
773.526	748.87
773.708	662.86
773.891	752.97
774.073	777.55
774.256	720.2
774.438	761.16
774.621	738.63
774.803	673.1
774.985	750.92
775.168	730.44
775.35	722.25
775.532	732.49
775.715	740.68
775.897	771.4
776.079	724.3
776.261	728.39
776.444	679.24
776.626	621.9
776.808	642.38
776.99	597.32
777.173	646.48
777.355	554.32
777.537	765.26
777.719	564.56
777.901	656.72
778.083	597.32
778.265	607.56
778.447	607.56
778.629	566.6
778.811	673.1
778.993	613.71
779.175	599.37
779.357	539.98
779.539	572.75
779.721	533.84
779.903	548.17
780.085	566.6
780.267	552.27
780.449	572.75
780.631	644.43
780.812	523.6
780.994	429.39
781.176	556.36
781.358	572.75
781.54	523.6
781.721	593.23
781.903	490.83
782.085	523.6
782.267	527.69
782.448	488.78
782.63	523.6
782.812	472.4
782.993	560.46
783.175	576.84
783.357	474.45
783.538	539.98
783.72	486.73
783.901	531.79
784.083	539.98
784.264	492.88
784.446	503.12
784.627	476.49
784.809	507.21
784.99	480.59
785.172	472.4
785.353	482.64
785.535	537.93
785.716	441.68
785.897	443.73
786.079	417.1
786.26	523.6
786.441	429.39
786.623	480.59
786.804	413.01
786.985	380.24
787.167	474.45
787.348	392.53
787.529	410.96
787.71	439.63
787.891	453.97
788.073	386.38
788.254	443.73
788.435	474.45
788.616	372.05
788.797	308.56
788.978	408.91
789.159	351.57
789.34	410.96
789.522	306.51
789.703	400.72
789.884	435.53
790.065	402.77
790.246	345.42
790.427	314.7
790.607	413.01
790.788	435.53
790.969	314.7
791.15	388.43
791.331	370
791.512	345.42
791.693	388.43
791.874	312.66
792.054	474.45
792.235	345.42
792.416	339.28
792.597	353.62
792.778	269.65
792.958	410.96
793.139	331.09
793.32	298.32
793.5	318.8
793.681	423.25
793.862	324.94
794.042	329.04
794.223	245.07
794.404	335.18
794.584	286.03
794.765	290.13
794.945	228.69
795.126	376.14
795.306	382.29
795.487	345.42
795.667	232.79
795.848	277.84
796.028	286.03
796.209	312.66
796.389	298.32
796.57	343.38
796.75	255.31
796.93	298.32
797.111	208.21
797.291	271.7
797.471	249.17
797.652	294.22
797.832	240.98
798.012	318.8
798.192	296.27
798.373	294.22
798.553	243.03
798.733	331.09
798.913	183.63
799.093	232.79
799.274	163.15
799.454	245.07
799.634	265.55
799.814	245.07
799.994	226.64
800.174	173.39
800.354	294.22
800.534	255.31
800.714	302.42
800.894	271.7
801.074	296.27
801.254	238.93
801.434	329.04
801.614	159.06
801.794	171.35
801.974	859.46
802.154	208.21
802.334	292.18
802.514	249.17
802.693	247.12
802.873	175.44
803.053	214.35
803.233	243.03
803.413	140.63
803.592	154.96
803.772	185.68
803.952	238.93
804.131	210.26
804.311	228.69
804.491	224.59
804.67	195.92
804.85	197.97
805.03	154.96
805.209	261.46
805.389	206.16
805.568	171.35
805.748	204.11
805.928	187.73
806.107	197.97
806.287	206.16
806.466	212.31
806.646	247.12
806.825	187.73
807.004	210.26
807.184	218.45
807.363	236.88
807.543	232.79
807.722	105.81
807.901	228.69
808.081	245.07
808.26	195.92
808.439	230.74
808.619	146.77
808.798	187.73
808.977	177.49
809.156	189.78
809.336	204.11
809.515	163.15
809.694	161.11
809.873	191.83
810.052	163.15
810.231	234.83
810.411	116.05
810.59	238.93
810.769	191.83
810.948	238.93
811.127	138.58
811.306	150.87
811.485	179.54
811.664	238.93
811.843	148.82
812.022	171.35
812.201	122.2
812.38	220.5
812.559	134.48
812.737	134.48
812.916	167.25
813.095	167.25
813.274	175.44
813.453	154.96
813.632	195.92
813.811	263.51
813.989	154.96
814.168	167.25
814.347	114
814.526	163.15
814.704	228.69
814.883	230.74
815.062	169.3
815.24	245.07
815.419	101.72
815.598	114
815.776	23.89
815.955	105.81
816.133	62.8
816.312	154.96
816.49	130.39
816.669	64.85
816.847	97.62
817.026	181.59
817.204	193.87
817.383	185.68
817.561	146.77
817.74	187.73
817.918	195.92
818.097	146.77
818.275	95.57
818.453	187.73
818.632	163.15
818.81	126.29
818.988	116.05
819.167	157.01
819.345	138.58
819.523	107.86
819.701	89.43
819.879	167.25
820.058	146.77
820.236	167.25
820.414	111.96
820.592	64.85
820.77	97.62
820.948	179.54
821.127	154.96
821.305	77.14
821.483	204.11
821.661	148.82
821.839	222.55
822.017	105.81
822.195	81.24
822.373	167.25
822.551	97.62
822.729	146.77
822.907	118.1
823.085	95.57
823.262	122.2
823.44	118.1
823.618	138.58
823.796	75.09
823.974	128.34
824.152	87.38
824.329	132.44
824.507	144.72
824.685	89.43
824.863	142.68
825.04	134.48
825.218	105.81
825.396	187.73
825.574	114
825.751	44.37
825.929	122.2
826.107	64.85
826.284	163.15
826.462	107.86
826.639	25.94
826.817	75.09
826.994	163.15
827.172	46.42
827.349	171.35
827.527	163.15
827.704	130.39
827.882	138.58
828.059	173.39
828.237	111.96
828.414	187.73
828.591	83.28
828.769	157.01
828.946	68.95
829.124	120.15
829.301	40.28
829.478	163.15
829.655	134.48
829.833	111.96
830.01	89.43
830.187	81.24
830.364	91.48
830.542	36.18
830.719	165.2
830.896	79.19
831.073	62.8
831.25	77.14
831.427	140.63
831.604	58.71
831.782	56.66
831.959	122.2
832.136	144.72
832.313	89.43
832.49	73.04
832.667	200.02
832.844	105.81
833.021	134.48
833.198	91.48
833.374	50.52
833.551	124.24
833.728	152.91
833.905	118.1
834.082	42.32
834.259	64.85
834.436	116.05
834.612	38.23
834.789	126.29
834.966	116.05
835.143	52.56
835.319	73.04
835.496	154.96
835.673	89.43
835.85	154.96
836.026	68.95
836.203	161.11
836.38	93.52
836.556	124.24
836.733	75.09
836.909	101.72
837.086	40.28
837.262	52.56
837.439	44.37
837.616	89.43
837.792	66.9
837.968	111.96
838.145	56.66
838.321	81.24
838.498	50.52
838.674	148.82
838.851	46.42
839.027	81.24
839.203	97.62
839.38	42.32
839.556	101.72
839.732	165.2
839.909	48.47
840.085	154.96
840.261	9.56
840.437	56.66
840.614	32.08
840.79	81.24
840.966	97.62
841.142	165.2
841.318	15.7
841.494	89.43
841.671	36.18
841.847	60.76
842.023	11.61
842.199	91.48
842.375	81.24
842.551	103.76
842.727	73.04
842.903	107.86
843.079	114
843.255	85.33
843.431	97.62
843.607	32.08
843.783	-60.07
843.959	46.42
844.134	75.09
844.31	105.81
844.486	23.89
844.662	56.66
844.838	-6.83
845.013	116.05
845.189	99.67
845.365	60.76
845.541	50.52
845.716	42.32
845.892	144.72
846.068	71
846.244	-4.78
846.419	52.56
846.595	-39.59
846.77	89.43
846.946	97.62
847.122	48.47
847.297	60.76
847.473	109.91
847.648	62.8
847.824	46.42
847.999	56.66
848.175	25.94
848.35	44.37
848.526	56.66
848.701	132.44
848.876	130.39
849.052	66.9
849.227	105.81
849.403	58.71
849.578	36.18
849.753	163.15
849.929	132.44
850.104	3.41
850.279	99.67
850.454	48.47
850.63	81.24
850.805	64.85
850.98	101.72
851.155	89.43
851.33	30.04
851.505	103.76
851.681	81.24
851.856	99.67
852.031	107.86
852.206	17.75
852.381	64.85
852.556	-33.45
852.731	118.1
852.906	122.2
853.081	56.66
853.256	114
853.431	144.72
853.606	52.56
853.781	52.56
853.956	32.08
854.131	34.13
854.305	7.51
854.48	42.32
854.655	34.13
854.83	30.04
855.005	146.77
855.18	-0.68
855.354	99.67
855.529	101.72
855.704	79.19
855.879	60.76
856.053	40.28
856.228	46.42
856.403	109.91
856.577	89.43
856.752	91.48
856.926	75.09
857.101	124.24
857.276	36.18
857.45	56.66
857.625	42.32
857.799	114
857.974	13.65
858.148	38.23
858.323	60.76
858.497	23.89
858.672	19.8
858.846	38.23
859.02	62.8
859.195	73.04
859.369	23.89
859.543	93.52
859.718	25.94
859.892	48.47
860.066	89.43
860.241	71
860.415	58.71
860.589	23.89
860.763	38.23
860.938	40.28
861.112	122.2
861.286	40.28
861.46	-21.16
861.634	15.7
861.808	68.95
861.982	19.8
862.157	27.99
862.331	1.37
862.505	7.51
862.679	19.8
862.853	11.61
863.027	19.8
863.201	89.43
863.375	5.46
863.549	-0.68
863.722	23.89
863.896	48.47
864.07	-25.26
864.244	-4.78
864.418	50.52
864.592	32.08
864.766	77.14
864.939	11.61
865.113	3.41
865.287	111.96
865.461	64.85
865.634	40.28
865.808	50.52
865.982	68.95
866.156	19.8
866.329	9.56
866.503	107.86
866.676	3.41
866.85	30.04
867.024	38.23
867.197	46.42
867.371	30.04
867.544	52.56
867.718	11.61
867.891	97.62
868.065	40.28
868.238	-45.74
868.412	30.04
868.585	-33.45
868.759	25.94
868.932	-8.87
869.105	19.8
869.279	85.33
869.452	-37.55
869.625	32.08
869.799	-49.83
869.972	15.7
870.145	5.46
870.319	7.51
870.492	1.37
870.665	68.95
870.838	97.62
871.011	-8.87
871.185	77.14
871.358	77.14
871.531	107.86
871.704	71
871.877	71
872.05	46.42
872.223	42.32
872.396	124.24
872.569	89.43
872.742	-35.5
872.915	77.14
873.088	11.61
873.261	-55.98
873.434	44.37
873.607	32.08
873.78	56.66
873.953	73.04
874.126	64.85
874.299	32.08
874.471	-15.02
874.644	-43.69
874.817	87.38
874.99	66.9
875.163	30.04
875.335	116.05
875.508	9.56
875.681	48.47
875.853	27.99
876.026	-41.64
876.199	91.48
876.371	105.81
876.544	81.24
876.717	-0.68
876.889	46.42
877.062	85.33
877.234	107.86
877.407	9.56
877.579	-6.83
877.752	75.09
877.924	23.89
878.097	1.37
878.269	42.32
878.442	71
878.614	-39.59
878.786	25.94
878.959	34.13
879.131	34.13
879.303	32.08
879.476	21.84
879.648	73.04
879.82	126.29
879.993	32.08
880.165	48.47
880.337	-8.87
880.509	36.18
880.681	91.48
880.854	68.95
881.026	-33.45
881.198	103.76
881.37	48.47
881.542	66.9
881.714	9.56
881.886	32.08
882.058	42.32
882.23	-6.83
882.402	48.47
882.574	73.04
882.746	34.13
882.918	66.9
883.09	23.89
883.262	34.13
883.434	23.89
883.606	7.51
883.778	15.7
883.95	17.75
884.122	-27.31
884.293	89.43
884.465	32.08
884.637	52.56
884.809	-2.73
884.98	124.24
885.152	38.23
885.324	114
885.496	21.84
885.667	-23.21
885.839	54.61
886.011	75.09
886.182	50.52
886.354	3.41
886.525	25.94
886.697	83.28
886.869	9.56
887.04	9.56
887.212	64.85
887.383	142.68
887.555	-10.92
887.726	56.66
887.897	50.52
888.069	-72.36
888.24	50.52
888.412	83.28
888.583	36.18
888.754	83.28
888.926	-6.83
889.097	19.8
889.268	-31.4
889.44	89.43
889.611	34.13
889.782	25.94
889.953	-35.5
890.125	48.47
890.296	-6.83
890.467	66.9
890.638	-53.93
890.809	50.52
890.98	71
891.151	68.95
891.323	23.89
891.494	87.38
891.665	1.37
891.836	85.33
892.007	3.41
892.178	-12.97
892.349	-25.26
892.52	19.8
892.691	75.09
892.862	71
893.032	-43.69
893.203	13.65
893.374	-12.97
893.545	32.08
893.716	-8.87
893.887	58.71
894.057	97.62
894.228	64.85
894.399	32.08
894.57	34.13
894.74	-74.41
894.911	58.71
895.082	17.75
895.253	48.47
895.423	-45.74
895.594	58.71
895.764	25.94
895.935	-49.83
896.106	71
896.276	-0.68
896.447	44.37
896.617	56.66
896.788	19.8
896.958	81.24
897.129	-2.73
897.299	36.18
897.47	66.9
897.64	109.91
897.81	-6.83
897.981	9.56
898.151	46.42
898.322	42.32
898.492	32.08
898.662	64.85
898.832	21.84
899.003	50.52
899.173	-2.73
899.343	3.41
899.513	-6.83
