Data from USB4F104151__78__14-43-25-377.txt Node

Date: Thu Mar 13 14:43:25 EDT 2025
User: louis
Spectrometer: USB4F10415
Trigger mode: 4
Integration Time (sec): 2.000000E-2
Scans to average: 1
Electric dark correction enabled: true
Nonlinearity correction enabled: false
Boxcar width: 0
XAxis mode: Wavelengths
Number of Pixels in Spectrum: 3648
>>>>>Begin Spectral Data<<<<<
178.204	-125.78
178.424	-125.78
178.644	-125.78
178.864	-103.25
179.084	-72.53
179.304	17.58
179.524	21.67
179.744	-23.38
179.964	83.11
180.184	-13.14
180.404	-2.9
180.624	-7
180.844	-74.58
181.064	-47.96
181.283	38.06
181.503	3.24
181.723	5.29
181.943	27.82
182.163	66.73
182.383	25.77
182.602	42.15
182.822	140.46
183.042	58.54
183.262	-43.86
183.482	83.11
183.701	44.2
183.921	50.35
184.141	-2.9
184.361	-21.33
184.58	74.92
184.8	3.24
185.02	-2.9
185.239	70.83
185.459	54.44
185.679	66.73
185.898	-25.43
186.118	48.3
186.338	93.35
186.557	50.35
186.777	58.54
186.997	9.39
187.216	11.43
187.436	85.16
187.655	81.07
187.875	87.21
188.095	74.92
188.314	83.11
188.534	13.48
188.753	1.19
188.973	74.92
189.192	33.96
189.412	99.5
189.631	97.45
189.851	134.31
190.07	107.69
190.29	-11.09
190.509	-15.19
190.729	-31.57
190.948	19.63
191.168	142.5
191.387	58.54
191.607	27.82
191.826	9.39
192.045	-45.91
192.265	1.19
192.484	17.58
192.704	19.63
192.923	-37.72
193.142	38.06
193.362	60.59
193.581	54.44
193.8	107.69
194.02	81.07
194.239	66.73
194.458	-4.95
194.678	87.21
194.897	128.17
195.116	-29.52
195.335	42.15
195.555	3.24
195.774	1.19
195.993	36.01
196.212	42.15
196.432	25.77
196.651	-31.57
196.87	27.82
197.089	107.69
197.308	33.96
197.528	66.73
197.747	-45.91
197.966	17.58
198.185	66.73
198.404	74.92
198.623	40.11
198.842	99.5
199.062	101.55
199.281	95.4
199.5	27.82
199.719	29.87
199.938	107.69
200.157	42.15
200.376	19.63
200.595	126.12
200.814	1.19
201.033	17.58
201.252	113.83
201.471	9.39
201.69	50.35
201.909	74.92
202.128	76.97
202.347	60.59
202.566	36.01
202.785	3.24
203.004	50.35
203.223	36.01
203.442	-9.05
203.661	-37.72
203.879	87.21
204.098	54.44
204.317	13.48
204.536	13.48
204.755	62.63
204.974	-2.9
205.193	52.39
205.411	19.63
205.63	-56.15
205.849	9.39
206.068	-4.95
206.287	54.44
206.505	74.92
206.724	-7
206.943	52.39
207.162	58.54
207.381	29.87
207.599	58.54
207.818	31.91
208.037	52.39
208.255	-13.14
208.474	50.35
208.693	60.59
208.911	31.91
209.13	42.15
209.349	142.5
209.567	50.35
209.786	64.68
210.005	17.58
210.223	-7
210.442	44.2
210.661	33.96
210.879	3.24
211.098	58.54
211.316	50.35
211.535	17.58
211.753	3.24
211.972	83.11
212.191	50.35
212.409	124.07
212.628	91.31
212.846	21.67
213.065	25.77
213.283	58.54
213.502	72.87
213.72	21.67
213.938	107.69
214.157	-4.95
214.375	109.74
214.594	93.35
214.812	42.15
215.031	83.11
215.249	42.15
215.467	52.39
215.686	89.26
215.904	11.43
216.122	5.29
216.341	17.58
216.559	17.58
216.778	103.59
216.996	58.54
217.214	46.25
217.432	42.15
217.651	13.48
217.869	19.63
218.087	91.31
218.306	-52.05
218.524	9.39
218.742	76.97
218.96	46.25
219.179	70.83
219.397	3.24
219.615	33.96
219.833	1.19
220.051	5.29
220.27	44.2
220.488	-4.95
220.706	-4.95
220.924	58.54
221.142	33.96
221.36	60.59
221.578	83.11
221.796	-37.72
222.015	-23.38
222.233	66.73
222.451	134.31
222.669	1.19
222.887	58.54
223.105	-15.19
223.323	91.31
223.541	-39.76
223.759	83.11
223.977	-15.19
224.195	25.77
224.413	-11.09
224.631	25.77
224.849	46.25
225.067	91.31
225.285	46.25
225.503	25.77
225.721	-93.01
225.939	60.59
226.157	60.59
226.375	83.11
226.592	54.44
226.81	99.5
227.028	91.31
227.246	66.73
227.464	97.45
227.682	50.35
227.9	50.35
228.117	52.39
228.335	21.67
228.553	5.29
228.771	9.39
228.989	46.25
229.206	48.3
229.424	-4.95
229.642	25.77
229.86	1.19
230.077	33.96
230.295	23.72
230.513	23.72
230.731	52.39
230.948	109.74
231.166	-27.48
231.384	46.25
231.601	-23.38
231.819	1.19
232.037	58.54
232.254	25.77
232.472	29.87
232.689	19.63
232.907	-7
233.125	93.35
233.342	23.72
233.56	54.44
233.777	-25.43
233.995	-21.33
234.213	99.5
234.43	40.11
234.648	99.5
234.865	-37.72
235.083	33.96
235.3	-25.43
235.518	91.31
235.735	109.74
235.953	46.25
236.17	-13.14
236.388	40.11
236.605	3.24
236.822	136.36
237.04	33.96
237.257	19.63
237.475	3.24
237.692	111.78
237.909	42.15
238.127	48.3
238.344	1.19
238.562	-4.95
238.779	-7
238.996	31.91
239.214	85.16
239.431	58.54
239.648	17.58
239.865	-66.39
240.083	29.87
240.3	95.4
240.517	25.77
240.735	44.2
240.952	54.44
241.169	44.2
241.386	42.15
241.603	60.59
241.821	9.39
242.038	33.96
242.255	9.39
242.472	-54.1
242.689	33.96
242.907	83.11
243.124	36.01
243.341	7.34
243.558	-23.38
243.775	19.63
243.992	44.2
244.209	23.72
244.426	25.77
244.643	58.54
244.86	40.11
245.078	87.21
245.295	25.77
245.512	-39.76
245.729	103.59
245.946	74.92
246.163	17.58
246.38	68.78
246.597	60.59
246.814	44.2
247.031	99.5
247.248	50.35
247.464	36.01
247.681	38.06
247.898	-11.09
248.115	76.97
248.332	17.58
248.549	76.97
248.766	148.65
248.983	70.83
249.2	44.2
249.417	-2.9
249.633	-52.05
249.85	-80.72
250.067	-21.33
250.284	42.15
250.501	7.34
250.717	25.77
250.934	-13.14
251.151	-15.19
251.368	58.54
251.585	50.35
251.801	-52.05
252.018	99.5
252.235	66.73
252.451	-39.76
252.668	46.25
252.885	42.15
253.102	56.49
253.318	23.72
253.535	62.63
253.752	48.3
253.968	33.96
254.185	13.48
254.401	9.39
254.618	38.06
254.835	-41.81
255.051	105.64
255.268	68.78
255.484	83.11
255.701	46.25
255.917	60.59
256.134	17.58
256.351	9.39
256.567	-15.19
256.784	66.73
257	-2.9
257.217	134.31
257.433	103.59
257.65	42.15
257.866	33.96
258.082	72.87
258.299	13.48
258.515	91.31
258.732	-2.9
258.948	-21.33
259.165	27.82
259.381	-29.52
259.597	-37.72
259.814	134.31
260.03	5.29
260.246	52.39
260.463	68.78
260.679	1.19
260.895	38.06
261.112	119.98
261.328	79.02
261.544	1.19
261.761	50.35
261.977	9.39
262.193	1.19
262.409	25.77
262.626	66.73
262.842	31.91
263.058	-11.09
263.274	66.73
263.49	27.82
263.707	33.96
263.923	33.96
264.139	31.91
264.355	13.48
264.571	156.84
264.787	44.2
265.004	101.55
265.22	66.73
265.436	97.45
265.652	11.43
265.868	54.44
266.084	23.72
266.3	62.63
266.516	5.29
266.732	60.59
266.948	25.77
267.164	89.26
267.38	13.48
267.596	74.92
267.812	93.35
268.028	19.63
268.244	-7
268.46	60.59
268.676	21.67
268.892	46.25
269.108	-7
269.324	21.67
269.54	54.44
269.756	33.96
269.972	66.73
270.188	52.39
270.403	-39.76
270.619	99.5
270.835	68.78
271.051	33.96
271.267	-11.09
271.483	54.44
271.698	9.39
271.914	83.11
272.13	74.92
272.346	-43.86
272.562	42.15
272.777	66.73
272.993	-15.19
273.209	1.19
273.425	52.39
273.64	-68.44
273.856	103.59
274.072	19.63
274.287	-2.9
274.503	9.39
274.719	52.39
274.934	-15.19
275.15	21.67
275.366	21.67
275.581	25.77
275.797	36.01
276.012	15.53
276.228	33.96
276.444	42.15
276.659	134.31
276.875	-7
277.09	42.15
277.306	-19.29
277.521	103.59
277.737	103.59
277.952	68.78
278.168	95.4
278.383	17.58
278.599	101.55
278.814	74.92
279.03	72.87
279.245	70.83
279.461	19.63
279.676	91.31
279.892	-4.95
280.107	42.15
280.322	52.39
280.538	74.92
280.753	74.92
280.969	13.48
281.184	-15.19
281.399	156.84
281.615	81.07
281.83	42.15
282.045	-60.24
282.26	42.15
282.476	27.82
282.691	60.59
282.906	38.06
283.122	33.96
283.337	-35.67
283.552	42.15
283.767	42.15
283.983	64.68
284.198	9.39
284.413	36.01
284.628	-52.05
284.843	9.39
285.058	103.59
285.274	58.54
285.489	25.77
285.704	-0.85
285.919	-11.09
286.134	23.72
286.349	52.39
286.564	74.92
286.779	60.59
286.995	42.15
287.21	-23.38
287.425	74.92
287.64	74.92
287.855	132.26
288.07	-9.05
288.285	52.39
288.5	27.82
288.715	50.35
288.93	50.35
289.145	31.91
289.36	91.31
289.575	-21.33
289.79	52.39
290.004	27.82
290.219	74.92
290.434	-37.72
290.649	23.72
290.864	-21.33
291.079	9.39
291.294	38.06
291.509	25.77
291.724	46.25
291.938	58.54
292.153	23.72
292.368	58.54
292.583	36.01
292.798	15.53
293.012	13.48
293.227	-21.33
293.442	74.92
293.657	85.16
293.871	136.36
294.086	54.44
294.301	87.21
294.516	1.19
294.73	-37.72
294.945	1.19
295.16	31.91
295.374	60.59
295.589	-11.09
295.804	40.11
296.018	109.74
296.233	66.73
296.447	115.88
296.662	38.06
296.877	58.54
297.091	70.83
297.306	1.19
297.52	5.29
297.735	91.31
297.949	50.35
298.164	58.54
298.378	15.53
298.593	-23.38
298.807	-47.96
299.022	109.74
299.236	38.06
299.451	38.06
299.665	42.15
299.88	66.73
300.094	25.77
300.309	115.88
300.523	-7
300.737	-43.86
300.952	91.31
301.166	58.54
301.381	91.31
301.595	-0.85
301.809	11.43
302.024	13.48
302.238	44.2
302.452	91.31
302.667	60.59
302.881	91.31
303.095	68.78
303.309	38.06
303.524	-31.57
303.738	40.11
303.952	21.67
304.166	9.39
304.381	-74.58
304.595	93.35
304.809	19.63
305.023	52.39
305.237	-45.91
305.452	-21.33
305.666	33.96
305.88	72.87
306.094	74.92
306.308	27.82
306.522	103.59
306.736	81.07
306.95	93.35
307.164	-23.38
307.379	107.69
307.593	99.5
307.807	1.19
308.021	101.55
308.235	52.39
308.449	42.15
308.663	27.82
308.877	136.36
309.091	17.58
309.305	56.49
309.519	95.4
309.733	74.92
309.947	42.15
310.161	-23.38
310.374	21.67
310.588	87.21
310.802	9.39
311.016	9.39
311.23	76.97
311.444	17.58
311.658	9.39
311.872	66.73
312.085	60.59
312.299	58.54
312.513	103.59
312.727	44.2
312.941	-15.19
313.154	56.49
313.368	25.77
313.582	11.43
313.796	107.69
314.009	-9.05
314.223	103.59
314.437	7.34
314.651	13.48
314.864	3.24
315.078	31.91
315.292	-29.52
315.505	27.82
315.719	54.44
315.933	66.73
316.146	25.77
316.36	13.48
316.573	119.98
316.787	15.53
317.001	3.24
317.214	-31.57
317.428	-7
317.641	7.34
317.855	95.4
318.068	42.15
318.282	66.73
318.495	103.59
318.709	58.54
318.922	54.44
319.136	19.63
319.349	93.35
319.563	-7
319.776	33.96
319.99	15.53
320.203	-2.9
320.417	74.92
320.63	42.15
320.843	83.11
321.057	44.2
321.27	25.77
321.483	-0.85
321.697	126.12
321.91	42.15
322.124	68.78
322.337	33.96
322.55	40.11
322.763	66.73
322.977	70.83
323.19	91.31
323.403	23.72
323.617	11.43
323.83	17.58
324.043	11.43
324.256	33.96
324.469	17.58
324.683	-7
324.896	-7
325.109	46.25
325.322	9.39
325.535	87.21
325.748	42.15
325.962	21.67
326.175	-15.19
326.388	29.87
326.601	42.15
326.814	83.11
327.027	89.26
327.24	9.39
327.453	-25.43
327.666	79.02
327.879	56.49
328.092	19.63
328.305	74.92
328.518	17.58
328.731	-7
328.944	-43.86
329.157	70.83
329.37	9.39
329.583	74.92
329.796	46.25
330.009	-45.91
330.222	99.5
330.435	-4.95
330.648	50.35
330.861	5.29
331.073	44.2
331.286	33.96
331.499	62.63
331.712	42.15
331.925	-33.62
332.138	25.77
332.35	87.21
332.563	-0.85
332.776	74.92
332.989	-31.57
333.202	70.83
333.414	42.15
333.627	36.01
333.84	42.15
334.053	122.02
334.265	19.63
334.478	58.54
334.691	83.11
334.903	60.59
335.116	52.39
335.329	36.01
335.541	50.35
335.754	60.59
335.966	27.82
336.179	11.43
336.392	36.01
336.604	89.26
336.817	68.78
337.029	-0.85
337.242	76.97
337.454	33.96
337.667	99.5
337.88	36.01
338.092	33.96
338.305	13.48
338.517	-11.09
338.729	81.07
338.942	140.46
339.154	-2.9
339.367	-45.91
339.579	29.87
339.792	25.77
340.004	44.2
340.217	40.11
340.429	93.35
340.641	52.39
340.854	-0.85
341.066	68.78
341.278	124.07
341.491	-31.57
341.703	-52.05
341.915	36.01
342.128	74.92
342.34	103.59
342.552	72.87
342.764	27.82
342.977	27.82
343.189	33.96
343.401	83.11
343.613	68.78
343.826	25.77
344.038	54.44
344.25	36.01
344.462	-4.95
344.674	95.4
344.886	52.39
345.099	87.21
345.311	50.35
345.523	42.15
345.735	-72.53
345.947	66.73
346.159	29.87
346.371	38.06
346.583	42.15
346.795	79.02
347.007	42.15
347.219	64.68
347.431	50.35
347.643	81.07
347.855	9.39
348.067	21.67
348.279	33.96
348.491	11.43
348.703	27.82
348.915	42.15
349.127	48.3
349.339	54.44
349.551	38.06
349.763	66.73
349.975	95.4
350.187	117.93
350.399	99.5
350.61	52.39
350.822	-2.9
351.034	15.53
351.246	70.83
351.458	60.59
351.669	38.06
351.881	99.5
352.093	33.96
352.305	68.78
352.517	15.53
352.728	89.26
352.94	81.07
353.152	62.63
353.363	-2.9
353.575	33.96
353.787	85.16
353.999	66.73
354.21	50.35
354.422	42.15
354.633	36.01
354.845	17.58
355.057	76.97
355.268	3.24
355.48	19.63
355.692	52.39
355.903	25.77
356.115	52.39
356.326	-19.29
356.538	60.59
356.749	103.59
356.961	62.63
357.172	46.25
357.384	-25.43
357.595	111.78
357.807	36.01
358.018	5.29
358.23	36.01
358.441	81.07
358.653	83.11
358.864	17.58
359.075	31.91
359.287	58.54
359.498	87.21
359.709	42.15
359.921	64.68
360.132	52.39
360.344	3.24
360.555	-35.67
360.766	148.65
360.977	3.24
361.189	1.19
361.4	50.35
361.611	62.63
361.823	103.59
362.034	50.35
362.245	38.06
362.456	76.97
362.667	-31.57
362.879	109.74
363.09	33.96
363.301	42.15
363.512	29.87
363.723	64.68
363.935	64.68
364.146	103.59
364.357	44.2
364.568	54.44
364.779	5.29
364.99	111.78
365.201	-15.19
365.412	167.08
365.623	27.82
365.834	93.35
366.045	97.45
366.256	60.59
366.467	115.88
366.678	23.72
366.889	-62.29
367.1	138.41
367.311	70.83
367.522	27.82
367.733	29.87
367.944	50.35
368.155	40.11
368.366	111.78
368.577	85.16
368.788	46.25
368.999	50.35
369.209	119.98
369.42	142.5
369.631	95.4
369.842	64.68
370.053	66.73
370.264	7.34
370.474	-0.85
370.685	50.35
370.896	-4.95
371.107	38.06
371.317	158.89
371.528	13.48
371.739	27.82
371.95	58.54
372.16	103.59
372.371	58.54
372.582	-7
372.792	60.59
373.003	93.35
373.214	66.73
373.424	85.16
373.635	19.63
373.846	101.55
374.056	-7
374.267	38.06
374.477	74.92
374.688	122.02
374.898	115.88
375.109	74.92
375.319	1.19
375.53	46.25
375.74	46.25
375.951	25.77
376.161	9.39
376.372	85.16
376.582	130.22
376.793	60.59
377.003	72.87
377.214	50.35
377.424	70.83
377.635	36.01
377.845	66.73
378.055	11.43
378.266	87.21
378.476	99.5
378.686	25.77
378.897	62.63
379.107	50.35
379.317	70.83
379.528	54.44
379.738	105.64
379.948	50.35
380.158	25.77
380.369	38.06
380.579	93.35
380.789	23.72
380.999	85.16
381.21	154.79
381.42	99.5
381.63	-13.14
381.84	140.46
382.05	76.97
382.261	122.02
382.471	99.5
382.681	-11.09
382.891	74.92
383.101	44.2
383.311	13.48
383.521	85.16
383.731	50.35
383.941	46.25
384.151	89.26
384.361	38.06
384.571	-7
384.781	148.65
384.991	126.12
385.201	117.93
385.411	148.65
385.621	99.5
385.831	21.67
386.041	58.54
386.251	83.11
386.461	79.02
386.671	117.93
386.881	27.82
387.091	-58.2
387.301	101.55
387.511	66.73
387.72	79.02
387.93	76.97
388.14	68.78
388.35	87.21
388.56	99.5
388.769	85.16
388.979	29.87
389.189	83.11
389.399	5.29
389.609	70.83
389.818	99.5
390.028	-23.38
390.238	72.87
390.447	70.83
390.657	101.55
390.867	27.82
391.076	54.44
391.286	81.07
391.496	-7
391.705	68.78
391.915	91.31
392.125	62.63
392.334	81.07
392.544	115.88
392.753	150.7
392.963	48.3
393.172	64.68
393.382	68.78
393.591	130.22
393.801	11.43
394.01	136.36
394.22	115.88
394.429	25.77
394.639	50.35
394.848	33.96
395.058	99.5
395.267	19.63
395.477	128.17
395.686	87.21
395.895	115.88
396.105	160.94
396.314	64.68
396.524	91.31
396.733	79.02
396.942	111.78
397.152	101.55
397.361	117.93
397.57	66.73
397.78	105.64
397.989	124.07
398.198	124.07
398.407	132.26
398.617	74.92
398.826	93.35
399.035	87.21
399.244	87.21
399.453	107.69
399.663	103.59
399.872	60.59
400.081	126.12
400.29	103.59
400.499	97.45
400.708	99.5
400.917	128.17
401.127	91.31
401.336	101.55
401.545	165.03
401.754	150.7
401.963	156.84
402.172	70.83
402.381	87.21
402.59	85.16
402.799	74.92
403.008	132.26
403.217	152.74
403.426	142.5
403.635	42.15
403.844	124.07
404.053	124.07
404.262	72.87
404.471	107.69
404.68	156.84
404.888	115.88
405.097	74.92
405.306	152.74
405.515	189.61
405.724	216.23
405.933	173.22
406.142	165.03
406.35	214.18
406.559	103.59
406.768	140.46
406.977	234.66
407.185	189.61
407.394	220.33
407.603	148.65
407.812	210.09
408.02	271.53
408.229	263.33
408.438	191.66
408.646	267.43
408.855	287.91
409.064	306.34
409.272	238.76
409.481	255.14
409.69	275.62
409.898	279.72
410.107	304.29
410.315	244.9
410.524	396.45
410.733	386.21
410.941	365.73
411.15	349.35
411.358	345.25
411.567	341.16
411.775	324.77
411.984	378.02
412.192	470.18
412.401	359.59
412.609	410.79
412.818	464.04
413.026	461.99
413.234	470.18
413.443	490.66
413.651	468.13
413.86	437.41
414.068	652.45
414.276	603.3
414.485	615.59
414.693	634.02
414.901	693.41
415.11	611.49
415.318	640.16
415.526	623.78
415.734	689.31
415.943	781.47
416.151	779.42
416.359	740.51
416.567	748.7
416.776	781.47
416.984	832.67
417.192	994.46
417.4	951.45
417.608	869.53
417.817	988.32
418.025	980.12
418.233	1217.69
418.441	1035.42
418.649	1027.23
418.857	1229.98
419.065	1240.22
419.273	1223.83
419.481	1313.94
419.689	1356.95
419.897	1402.01
420.105	1369.24
420.313	1385.62
420.521	1483.92
420.729	1582.23
420.937	1576.08
421.145	1676.43
421.353	1658
421.561	1746.06
421.769	1836.17
421.977	1842.32
422.185	1862.8
422.393	2016.4
422.601	2126.99
422.809	2204.81
423.017	2204.81
423.224	2393.22
423.432	2286.73
423.64	2239.62
423.848	2507.91
424.056	2469
424.263	2749.57
424.471	2657.41
424.679	2761.86
424.887	2860.16
425.094	2978.94
425.302	3114.11
425.51	3015.8
425.718	3202.17
425.925	3187.83
426.133	3376.25
426.341	3550.32
426.548	3689.59
426.756	3591.28
426.964	3695.73
427.171	3953.77
427.379	4009.07
427.586	4142.19
427.794	4244.59
428.001	4322.41
428.209	4613.22
428.417	4572.26
428.624	4715.62
428.832	4861.02
429.039	4818.02
429.247	4916.32
429.454	5233.75
429.662	5373.02
429.869	5319.77
430.076	5493.85
430.284	5456.98
430.491	5620.82
430.699	5928.02
430.906	6081.61
431.114	6081.61
431.321	6298.7
431.528	6433.86
431.736	6849.6
431.943	7074.88
432.15	6818.88
432.358	7197.76
432.565	7427.13
432.772	7234.62
432.979	7820.34
433.187	7832.63
433.394	7885.87
433.601	8545.32
433.808	8553.51
434.016	8389.67
434.223	8684.58
434.43	9258.01
434.637	9114.66
434.844	9778.2
435.052	9843.73
435.259	9931.8
435.466	10036.24
435.673	9741.33
435.88	10365.96
436.087	10961.92
436.294	10900.48
436.501	10650.63
436.708	10980.36
436.915	11146.24
437.122	11627.51
437.329	11897.85
437.537	12184.56
437.743	12301.29
437.95	12354.54
438.157	12872.68
438.364	13296.61
438.571	13347.81
438.778	13073.38
438.985	14451.66
439.192	13796.31
439.399	14375.89
439.606	14210
439.813	14732.23
440.02	15946.68
440.227	15293.38
440.433	15231.94
440.64	15815.61
440.847	15631.29
441.054	16151.48
441.261	17105.83
441.467	16849.83
441.674	17456.03
441.881	17800.09
442.088	17812.38
442.294	17703.84
442.501	18051.99
442.708	18699.15
442.914	19393.41
443.121	20226.93
443.328	19512.19
443.534	21066.6
443.741	20374.39
443.948	19991.42
444.154	21584.74
444.361	21631.84
444.568	21449.57
444.774	21474.15
444.981	21670.75
445.187	22235.99
445.394	23536.45
445.6	23016.27
445.807	24965.93
446.013	24046.4
446.22	24716.08
446.426	25731.87
446.633	25625.38
446.839	26585.88
447.046	25142.06
447.252	27177.74
447.459	27099.92
447.665	26821.39
447.871	27869.95
448.078	29508.33
448.284	27751.17
448.491	28625.65
448.697	29868.77
448.903	30188.25
449.11	30614.23
449.316	30100.19
449.522	30513.88
449.728	31191.76
449.935	31249.1
450.141	31290.06
450.347	32355
450.553	31380.17
450.76	31453.9
450.966	32733.88
451.172	32471.74
451.378	33145.52
451.584	32826.04
451.791	33518.25
451.997	33106.61
452.203	33723.05
452.409	33997.48
452.615	33352.37
452.821	32457.4
453.027	32225.98
453.233	33675.94
453.44	32443.07
453.646	32707.26
453.852	33067.7
454.058	33735.34
454.264	32326.33
454.47	33346.22
454.676	32438.97
454.882	33424.04
455.088	30499.55
455.294	31218.38
455.5	31642.31
455.705	32307.9
455.911	30616.28
456.117	30126.81
456.323	29762.28
456.529	28383.99
456.735	29815.52
456.941	28666.61
457.147	28123.9
457.352	27486.98
457.558	26997.52
457.764	27308.81
457.97	26950.42
458.176	25908
458.381	26479.38
458.587	25158.44
458.793	24984.37
458.999	23673.67
459.204	25219.88
459.41	24619.83
459.616	23153.48
459.821	22911.82
460.027	23114.57
460.233	22438.74
460.438	21285.73
460.644	21701.47
460.85	20671.34
461.055	20546.42
461.261	20257.65
461.466	19112.84
461.672	18281.36
461.878	19377.03
462.083	18101.14
462.289	18023.32
462.494	17728.41
462.7	16833.45
462.905	16360.37
463.111	16958.38
463.316	17042.34
463.522	16741.29
463.727	16686
463.932	16769.96
464.138	16573.36
464.343	16704.43
464.549	16229.3
464.754	16565.17
464.959	16569.26
465.165	16094.13
465.37	15961.02
465.575	15322.05
465.781	15823.8
465.986	15803.32
466.191	15360.96
466.397	14934.98
466.602	14410.7
466.807	15041.48
467.012	14844.87
467.218	14752.71
467.423	14603.21
467.628	14891.98
467.833	15422.4
468.038	14644.17
468.244	14443.47
468.449	14947.27
468.654	14547.92
468.859	14330.83
469.064	14373.84
469.269	13812.7
469.474	13769.69
469.679	14062.55
469.885	13687.77
470.09	13941.72
470.295	13949.91
470.5	13540.32
470.705	13781.98
470.91	13202.4
471.115	12970.98
471.32	13370.33
471.525	13132.77
471.73	12887.01
471.935	13067.24
472.139	12588.01
472.344	12499.95
472.549	12413.93
472.754	12422.13
472.959	12164.08
473.164	11944.95
473.369	11781.11
473.574	11961.33
473.778	11871.22
473.983	11955.19
474.188	11908.08
474.393	11342.85
474.598	11404.28
474.802	11168.77
475.007	11207.68
475.212	11396.09
475.417	10814.47
475.621	10925.06
475.826	10832.9
476.031	10591.24
476.235	10519.56
476.44	10646.54
476.645	10286.09
476.849	10304.53
477.054	10234.89
477.259	10208.27
477.463	10015.76
477.668	9638.94
477.872	10009.62
478.077	9835.54
478.282	9509.91
478.486	9397.28
478.691	9468.95
478.895	9430.04
479.1	9397.28
479.304	9532.44
479.509	9036.83
479.713	9274.4
479.918	9186.33
480.122	8924.19
480.326	9167.9
480.531	9096.22
480.735	9022.5
480.94	8741.93
481.144	9079.84
481.348	8721.45
481.553	8911.91
481.757	8686.63
481.961	8698.92
482.166	8956.96
482.37	8766.5
482.574	8717.35
482.778	8721.45
482.983	8825.89
483.187	8815.65
483.391	8770.6
483.595	8588.33
483.8	8733.73
484.004	8670.25
484.208	8709.16
484.412	8692.77
484.616	8643.62
484.821	8610.86
485.025	8637.48
485.229	8887.33
485.433	8598.57
485.637	8569.9
485.841	8571.94
486.045	8643.62
486.249	8733.73
486.453	8490.03
486.657	8571.94
486.861	8688.68
487.065	8424.49
487.269	8631.33
487.473	8545.32
487.677	8573.99
487.881	8881.19
488.085	8541.22
488.289	8596.52
488.493	8496.17
488.697	8678.44
488.901	8647.72
489.105	8639.53
489.309	8619.05
489.512	8660.01
489.716	8651.81
489.92	8696.87
490.124	8668.2
490.328	8946.72
490.531	8692.77
490.735	8700.97
490.939	8815.65
491.143	8909.86
491.346	8854.56
491.55	8936.48
491.754	9053.22
491.958	8989.73
492.161	9032.74
492.365	9172
492.569	8776.74
492.772	9260.06
492.976	9145.38
493.18	9094.18
493.383	9352.22
493.587	9567.26
493.79	9530.39
493.994	9434.14
494.197	9485.34
494.401	9548.82
494.605	9585.69
494.808	9626.65
495.012	9675.8
495.215	9757.72
495.419	9868.31
495.622	9813.01
495.825	10054.67
496.029	9880.6
496.232	10167.31
496.436	10224.65
496.639	10355.72
496.843	10105.87
497.046	10578.95
497.249	10683.4
497.453	10617.86
497.656	10703.88
497.859	10744.84
498.063	10972.16
498.266	10955.78
498.469	11230.21
498.673	11197.44
498.876	11287.55
499.079	11373.57
499.282	11430.91
499.485	11830.26
499.689	11938.8
499.892	12166.13
500.095	12026.87
500.298	12121.07
500.501	12178.42
500.705	12590.06
500.908	12463.08
501.111	12590.06
501.314	13001.7
501.517	13061.09
501.72	13229.02
501.923	13321.18
502.126	13419.49
502.329	13636.57
502.532	13757.4
502.735	13845.46
502.938	13911
503.141	14197.71
503.344	14236.63
503.547	14148.56
503.75	14625.74
503.953	14640.08
504.156	15068.1
504.359	14943.17
504.562	15004.61
504.765	15412.16
504.968	15532.99
505.17	15842.23
505.373	15729.59
505.576	16022.45
505.779	16139.19
505.982	16464.82
506.185	16780.2
506.387	16589.74
506.59	16827.31
506.793	17114.02
506.996	16987.05
507.198	17597.34
507.401	17658.78
507.604	17660.83
507.807	18049.94
508.009	17968.02
508.212	18105.24
508.415	18592.65
508.617	18930.57
508.82	18969.48
509.022	18711.44
509.225	19284.87
509.428	19299.2
509.63	19389.31
509.833	19432.32
510.035	20097.91
510.238	19927.93
510.44	20237.17
510.643	20532.08
510.845	20878.19
511.048	21017.45
511.25	21074.79
511.453	21191.53
511.655	21893.98
511.858	21525.35
512.06	22033.24
512.262	21861.21
512.465	22250.33
512.667	22473.56
512.87	22772.56
513.072	22438.74
513.274	22971.21
513.477	23681.86
513.679	23454.53
513.881	23808.83
514.084	23923.52
514.286	24122.17
514.488	24304.44
514.69	24757.04
514.893	24863.54
515.095	25062.19
515.297	25226.03
515.499	25514.79
515.701	25652
515.904	25856.8
516.106	26102.56
516.308	26489.62
516.51	26938.13
516.712	26569.49
516.914	26936.08
517.116	27110.16
517.318	27554.57
517.52	27941.63
517.722	27720.45
517.925	28154.62
518.127	28474.1
518.329	28529.4
518.531	28381.95
518.733	29123.31
518.935	29070.06
519.136	29131.5
519.338	29649.64
519.54	29418.22
519.742	30040.8
519.944	29809.38
520.146	30626.52
520.348	30964.43
520.55	30900.95
520.752	30966.48
520.954	31662.79
521.155	31529.67
521.357	31949.51
521.559	32164.54
521.761	32592.57
521.963	32473.79
522.164	32654.01
522.366	32619.19
522.568	32864.95
522.77	33602.22
522.971	33729.19
523.173	33256.11
523.375	34099.87
523.576	33710.76
523.778	33956.52
523.98	34656.92
524.181	34435.74
524.383	34757.27
524.584	34998.93
524.786	35031.7
524.988	34960.02
525.189	35293.84
525.391	35228.31
525.592	35988.1
525.794	35721.87
525.995	35668.62
526.197	35943.05
526.398	36137.6
526.6	36539.01
526.801	36594.3
527.003	36772.47
527.204	36633.21
527.406	36790.91
527.607	37202.55
527.808	37362.29
528.01	36555.39
528.211	37190.26
528.412	37517.93
528.614	37788.27
528.815	37452.4
529.016	38042.21
529.218	37526.13
529.419	37591.66
529.62	38003.3
529.822	37642.86
530.023	38328.93
530.224	38034.02
530.425	38115.94
530.626	37378.67
530.828	37853.8
531.029	38756.96
531.23	38081.13
531.431	37902.95
531.632	38117.99
531.833	38478.43
532.035	38124.13
532.236	38347.36
532.437	38433.38
532.638	38574.69
532.839	38765.15
533.04	38722.14
533.241	38335.07
533.442	38961.75
533.643	38394.46
533.844	38560.35
534.045	38668.89
534.246	38539.87
534.447	38912.6
534.648	38517.34
534.849	38816.35
535.05	38752.86
535.251	38648.41
535.451	38662.75
535.652	38924.89
535.853	38677.08
536.054	39004.76
536.255	38888.03
536.456	38464.1
536.657	39309.91
536.857	38533.73
537.058	38414.94
537.259	38898.27
537.46	38951.51
537.66	38462.05
537.861	38986.33
538.062	38474.34
538.263	38947.42
538.463	38222.44
538.664	38668.89
538.865	38589.02
539.065	39275.09
539.266	38455.9
539.466	38912.6
539.667	38632.03
539.868	38883.93
540.068	38355.55
540.269	38611.55
540.469	38795.87
540.67	38281.83
540.87	38519.39
541.071	38769.24
541.271	38640.22
541.472	38556.25
541.672	38253.15
541.873	38173.28
542.073	38038.12
542.274	38982.23
542.474	38378.08
542.675	38322.79
542.875	38597.21
543.075	38476.38
543.276	37902.95
543.476	38589.02
543.676	38269.54
543.877	38797.91
544.077	38818.39
544.277	38658.65
544.478	38406.75
544.678	38406.75
544.878	37984.87
545.078	38490.72
545.279	38330.98
545.479	38236.77
545.679	38634.08
545.879	38156.9
546.079	38457.95
546.28	38181.48
546.48	37558.89
546.68	38580.83
546.88	38150.76
547.08	38013.54
547.28	38107.75
547.48	37898.86
547.68	38175.33
547.88	38167.14
548.081	38316.64
548.281	38132.32
548.481	38072.93
548.681	38677.08
548.881	38406.75
549.081	37698.16
549.28	38240.87
549.48	38232.68
549.68	38070.89
549.88	38328.93
550.08	38001.25
550.28	38122.08
550.48	37837.42
550.68	38234.72
550.88	37804.65
551.08	37651.05
551.279	37988.97
551.479	37444.21
551.679	38034.02
551.879	37876.33
552.079	37945.96
552.278	37712.49
552.478	37749.35
552.678	37818.99
552.878	37970.54
553.077	38113.89
553.277	37409.39
553.477	38206.05
553.676	37419.63
553.876	37642.86
554.076	37556.85
554.275	37255.79
554.475	37390.96
554.674	37550.7
554.874	37706.35
555.074	37337.71
555.273	37315.19
555.473	37530.22
555.672	37243.51
555.872	37476.97
556.071	37247.6
556.271	37409.39
556.47	36944.5
556.67	36950.65
556.869	37515.89
557.068	37227.12
557.268	36926.07
557.467	37446.26
557.667	37188.21
557.866	36809.34
558.065	37024.37
558.265	36686.46
558.464	36498.05
558.663	36901.5
558.863	36719.23
559.062	37419.63
559.261	36440.7
559.461	36926.07
559.66	36344.45
559.859	36579.96
560.058	36483.71
560.258	36780.67
560.457	36344.45
560.656	36479.61
560.855	36104.84
561.054	36455.04
561.253	35771.02
561.453	35912.33
561.652	36536.96
561.851	36471.42
562.05	36123.27
562.249	35617.42
562.448	36467.33
562.647	36043.4
562.846	35865.22
563.045	36010.63
563.244	35961.48
563.443	35969.67
563.642	35361.42
563.841	35551.88
564.04	35472.01
564.239	35695.24
564.438	35306.13
564.637	35345.04
564.836	35492.49
565.035	35009.17
565.234	35547.79
565.432	35162.77
565.631	35187.35
565.83	35123.86
566.029	34656.92
566.228	34878.1
566.427	34454.17
566.625	34538.14
566.824	34398.88
567.023	34923.16
567.222	34087.59
567.42	34716.31
567.619	34132.64
567.818	34362.01
568.016	34429.6
568.215	34280.1
568.414	34245.28
568.612	34429.6
568.811	33888.93
569.01	33835.69
569.208	33829.54
569.407	33989.28
569.605	33462.96
569.804	34015.91
570.002	33512.11
570.201	33323.69
570.4	33202.86
570.598	33182.38
570.797	33108.66
570.995	33403.56
571.193	33157.81
571.392	33297.07
571.59	32936.63
571.789	33006.26
571.987	32772.79
572.186	32959.16
572.384	32500.41
572.582	32973.49
572.781	33071.79
572.979	32580.28
573.177	31955.65
573.376	32854.71
573.574	32262.85
573.772	32621.24
573.971	31787.72
574.169	31855.3
574.367	31740.61
574.565	31834.82
574.763	31685.32
574.962	31636.17
575.16	31681.22
575.358	31636.17
575.556	31052.5
575.754	31550.15
575.952	31075.02
576.151	31394.51
576.349	31099.6
576.547	30896.85
576.745	31300.3
576.943	31314.64
577.141	31017.68
577.339	31265.49
577.537	30560.98
577.735	30657.24
577.933	30317.28
578.131	30872.28
578.329	30454.49
578.527	30403.29
578.725	30200.54
578.923	30290.65
579.121	30511.83
579.319	30186.21
579.516	30247.65
579.714	30311.13
579.912	30092
580.11	29864.67
580.308	29971.17
580.506	29754.08
580.704	29436.65
580.901	29829.86
581.099	29784.8
581.297	29076.21
581.495	29123.31
581.692	29397.74
581.89	28824.31
582.088	29496.04
582.285	29170.41
582.483	29029.1
582.681	28842.74
582.878	28820.21
583.076	28510.97
583.274	28594.93
583.471	28424.95
583.669	28543.74
583.866	28314.36
584.064	28646.13
584.262	28357.37
584.459	28799.73
584.657	28132.09
584.854	28171
585.052	27636.48
585.249	28115.71
585.447	27863.81
585.644	27583.24
585.841	27878.15
586.039	28052.22
586.236	27613.96
586.434	27321.1
586.631	27366.15
586.828	27503.37
587.026	27472.65
587.223	27093.77
587.42	27120.4
587.618	27171.6
587.815	26710.8
588.012	26774.29
588.21	26868.5
588.407	26821.39
588.604	26622.74
588.801	26538.77
588.999	26704.66
589.196	26555.16
589.393	26751.76
589.59	26258.2
589.787	26164
589.984	26155.8
590.182	25920.29
590.379	26043.17
590.576	25750.31
590.773	25748.26
590.97	25682.72
591.167	25903.9
591.364	25426.73
591.561	25971.49
591.758	25453.35
591.955	25434.92
592.152	25666.34
592.349	25522.98
592.546	25131.82
592.743	25316.14
592.94	25054
593.137	25180.97
593.334	25250.6
593.531	24603.44
593.727	24947.5
593.924	24859.44
594.121	24525.62
594.318	24687.41
594.515	24369.97
594.712	24687.41
594.908	24576.82
595.105	24234.81
595.302	23685.95
595.499	24173.37
595.696	24136.51
595.892	23966.52
596.089	24007.48
596.286	24023.87
596.482	23913.28
596.679	24075.07
596.876	23872.32
597.072	23563.08
597.269	23735.1
597.466	23438.15
597.662	23698.24
597.859	23432.01
598.055	23315.27
598.252	23325.51
598.448	23284.55
598.645	22999.88
598.841	22915.92
599.038	23251.78
599.234	23206.73
599.431	22602.58
599.627	22690.64
599.824	22528.85
600.02	22788.94
600.217	22901.58
600.413	22598.48
600.609	22629.2
600.806	22250.33
601.002	22508.37
601.198	22264.66
601.395	22317.91
601.591	22299.48
601.787	21900.12
601.984	21861.21
602.18	22336.34
602.376	21758.81
602.572	21576.55
602.769	21955.42
602.965	21441.38
603.161	21787.49
603.357	21336.93
603.553	21416.8
603.75	21457.76
603.946	21201.77
604.142	21486.43
604.338	21359.46
604.534	21273.45
604.73	20913
604.926	21011.31
605.122	21087.08
605.318	20910.96
605.514	20783.98
605.71	20669.3
605.906	20591.47
606.102	20822.89
606.298	20724.59
606.494	20425.59
606.69	20472.69
606.886	20726.64
607.082	20235.13
607.278	20472.69
607.474	20083.58
607.67	20423.54
607.866	19979.13
608.062	20224.89
608.257	20124.54
608.453	19954.55
608.649	20398.96
608.845	19901.31
609.041	19901.31
609.236	20046.71
609.432	19571.58
609.628	19823.48
609.824	19561.34
610.019	19805.05
610.215	19391.36
610.411	19866.49
610.606	19723.13
610.802	19663.74
610.998	19821.44
611.193	19327.88
611.389	19336.07
611.584	19452.8
611.78	19544.96
611.976	19428.23
612.171	19288.96
612.367	19399.55
612.562	19256.2
612.758	18557.84
612.953	19041.16
613.149	18953.1
613.344	18768.78
613.539	19256.2
613.735	19207.05
613.93	18756.49
614.126	19006.34
614.321	18961.29
614.517	18709.39
614.712	18867.08
614.907	18424.72
615.103	19065.74
615.298	18514.83
615.493	18776.97
615.688	18492.3
615.884	18781.07
616.079	18416.53
616.274	18369.43
616.47	18543.5
616.665	18465.68
616.86	18226.07
617.055	18453.39
617.25	18138.01
617.445	18379.67
617.641	17947.54
617.836	18406.29
618.031	17988.5
618.226	18135.96
618.421	18041.75
618.616	18101.14
618.811	17814.43
619.006	17830.81
619.201	17537.95
619.396	17669.02
619.591	17488.8
619.786	17687.45
619.981	17382.31
620.176	17738.65
620.371	17312.67
620.566	17556.38
620.761	17050.53
620.956	17273.76
621.151	16827.31
621.346	17107.88
621.541	16835.5
621.735	16862.12
621.93	16602.03
622.125	16550.83
622.32	16724.91
622.515	16536.49
622.709	16214.96
622.904	16460.72
623.099	16161.72
623.294	16153.52
623.488	16012.21
623.683	16141.24
623.878	15766.46
624.072	15844.28
624.267	15913.91
624.462	15647.68
624.656	15573.95
624.851	15565.76
625.046	15494.08
625.24	15326.14
625.435	15338.43
625.629	15086.53
625.824	15227.84
626.018	14920.65
626.213	14498.77
626.407	14853.06
626.602	14545.87
626.796	14781.39
626.991	14721.99
627.185	14451.66
627.38	14312.4
627.574	14275.54
627.768	14361.55
627.963	14224.34
628.157	14037.97
628.352	14005.2
628.546	13814.74
628.74	14234.58
628.935	13956.05
629.129	13917.14
629.323	13755.35
629.517	13564.89
629.712	13605.85
629.906	13509.6
630.1	13222.88
630.294	13396.96
630.489	13329.38
630.683	13165.54
630.877	13177.83
631.071	13100
631.265	13116.39
631.459	13032.42
631.653	12854.25
631.848	12864.49
632.042	12690.41
632.236	12878.82
632.43	12399.6
632.624	12594.15
632.818	12332.01
633.012	12444.65
633.206	12170.22
633.4	12289.01
633.594	12149.75
633.788	12186.61
633.982	12112.88
634.176	12076.02
634.369	12067.83
634.563	11992.05
634.757	11756.54
634.951	11820.02
635.145	11568.12
635.339	11701.24
635.533	11461.63
635.726	11535.35
635.92	11680.76
636.114	11467.77
636.308	11224.06
636.501	11383.8
636.695	11142.14
636.889	11146.24
637.083	11183.1
637.276	11148.29
637.47	11181.06
637.664	10859.52
637.857	10929.16
638.051	10834.95
638.244	10871.81
638.438	10914.82
638.632	10748.93
638.825	10609.67
639.019	10310.67
639.212	10241.04
639.406	10462.22
639.599	10306.57
639.793	10128.4
639.986	10138.64
640.18	10187.79
640.373	10152.98
640.567	10091.54
640.76	9982.99
640.954	10038.29
641.147	9950.23
641.34	9899.03
641.534	9923.6
641.727	9972.75
641.92	9880.6
642.114	9694.23
642.307	9653.27
642.5	9602.07
642.694	9350.17
642.887	9499.67
643.08	9495.58
643.273	9348.12
643.467	9350.17
643.66	9401.37
643.853	9268.25
644.046	9313.31
644.239	9167.9
644.432	9215.01
644.626	8899.62
644.819	9057.31
645.012	8887.33
645.205	8950.82
645.398	8913.95
645.591	8873
645.784	8817.7
645.977	8631.33
646.17	8819.75
646.363	8512.55
646.556	8377.39
646.749	8432.68
646.942	8467.5
647.135	8465.45
647.328	8432.68
647.521	8530.98
647.714	8111.15
647.907	8416.3
648.099	7869.49
648.292	8334.38
648.485	8102.96
648.678	8041.52
648.871	7820.34
649.064	8039.47
649.256	7875.63
649.449	7973.94
649.642	7883.83
649.835	7742.52
650.027	7709.75
650.22	7820.34
650.413	7797.81
650.605	7660.6
650.798	7566.39
650.991	7308.35
651.183	7760.95
651.376	7529.53
651.568	7459.9
651.761	7373.88
651.954	7337.02
652.146	7273.53
652.339	7234.62
652.531	7390.27
652.724	7205.95
652.916	7052.35
653.109	7224.38
653.301	7068.73
653.494	7033.92
653.686	6904.9
653.879	7148.61
654.071	6843.46
654.263	6857.79
654.456	6753.35
654.648	6980.67
654.84	6775.88
655.033	6898.75
655.225	6777.92
655.417	6577.22
655.61	6833.22
655.802	6505.54
655.994	6554.69
656.186	6544.45
656.379	6560.84
656.571	6636.61
656.763	6319.18
656.955	6491.21
657.148	6261.84
657.34	6300.75
657.532	6257.74
657.724	6161.48
657.916	6343.75
658.108	6302.79
658.3	6171.72
658.492	6032.46
658.684	5827.67
658.876	6075.47
659.068	6126.67
659.26	6171.72
659.452	6145.1
659.644	5989.46
659.836	5829.71
660.028	5950.54
660.22	5948.5
660.412	5663.83
660.604	5850.19
660.796	5882.96
660.988	5760.08
661.18	5690.45
661.372	5612.63
661.563	5565.53
661.755	5624.92
661.947	5571.67
662.139	5479.51
662.331	5649.49
662.522	5499.99
662.714	5481.56
662.906	5409.88
663.097	5418.07
663.289	5287
663.481	5311.58
663.673	5287
663.864	5153.88
664.056	5254.23
664.247	5164.12
664.439	5180.51
664.631	5248.09
664.822	5137.5
665.014	4883.55
665.205	5067.87
665.397	5135.45
665.588	5080.16
665.78	5076.06
665.971	5006.43
666.163	5059.68
666.354	4918.37
666.546	4770.91
666.737	4947.04
666.929	4781.15
667.12	4725.86
667.311	4867.17
667.503	4621.41
667.694	4850.78
667.885	4764.77
668.077	4752.48
668.268	4732
668.459	4592.74
668.651	4637.8
668.842	4691.04
669.033	4547.69
669.224	4607.08
669.416	4625.51
669.607	4668.52
669.798	4443.24
669.989	4582.5
670.18	4457.57
670.371	4539.49
670.563	4342.89
670.754	4418.66
670.945	4367.46
671.136	4410.47
671.327	4359.27
671.518	4396.14
671.709	4385.9
671.9	4435.05
672.091	4334.7
672.282	4244.59
672.473	4144.24
672.664	4269.16
672.855	4029.55
673.046	4224.11
673.237	4199.53
673.428	4203.63
673.619	4099.18
673.809	3953.77
674	4068.46
674.191	4119.66
674.382	4019.31
674.573	4082.8
674.764	4066.41
674.954	4023.41
675.145	3974.25
675.336	4142.19
675.527	3933.29
675.717	3882.1
675.908	3863.66
676.099	3945.58
676.289	4027.5
676.48	3966.06
676.671	3789.94
676.861	3878
677.052	3597.43
677.243	3781.74
677.433	3759.22
677.624	3781.74
677.814	3632.24
678.005	3886.19
678.195	3818.61
678.386	3695.73
678.576	3683.44
678.767	3697.78
678.957	3738.74
679.148	3761.27
679.338	3662.96
679.529	3761.27
679.719	3697.78
679.909	3810.42
680.1	3777.65
680.29	3554.42
680.481	3523.7
680.671	3613.81
680.861	3656.82
681.052	3462.26
681.242	3585.14
681.432	3650.67
681.622	3533.94
681.813	3490.93
682.003	3449.97
682.193	3517.56
682.383	3490.93
682.573	3517.56
682.764	3335.29
682.954	3476.6
683.144	3423.35
683.334	3398.77
683.524	3437.69
683.714	3394.68
683.904	3345.53
684.094	3525.75
684.284	3456.12
684.474	3329.14
684.664	3482.74
684.854	3310.71
685.044	3411.06
685.234	3302.52
685.424	3331.19
685.614	3318.9
685.804	3191.93
685.994	3220.6
686.184	3329.14
686.374	3146.87
686.564	3126.39
686.753	3216.51
686.943	3118.2
687.133	3187.83
687.323	3107.96
687.513	3114.11
687.702	3179.64
687.892	3062.91
688.082	3116.16
688.272	3050.62
688.461	3024
688.651	3171.45
688.841	3015.8
689.03	3040.38
689.22	2968.7
689.41	2964.61
689.599	3046.52
689.789	3034.24
689.979	2933.89
690.168	2888.83
690.358	3046.52
690.547	2946.17
690.737	2886.78
690.926	2860.16
691.116	2909.31
691.305	2872.45
691.495	2862.21
691.684	2837.63
691.874	2827.39
692.063	2860.16
692.252	2821.25
692.442	2763.9
692.631	2794.62
692.82	2851.97
693.01	2860.16
693.199	2815.1
693.388	2651.27
693.578	2684.03
693.767	2823.3
693.956	2782.34
694.146	2684.03
694.335	2679.94
694.524	2638.98
694.713	2710.66
694.902	2600.07
695.092	2735.23
695.281	2606.21
695.47	2638.98
695.659	2643.07
695.848	2724.99
696.037	2577.54
696.226	2673.79
696.415	2655.36
696.604	2471.04
696.793	2534.53
696.982	2460.81
697.171	2589.83
697.36	2477.19
697.549	2536.58
697.738	2352.26
697.927	2397.32
698.116	2581.64
698.305	2464.9
698.494	2425.99
698.683	2499.72
698.872	2442.37
699.061	2491.52
699.25	2391.17
699.438	2532.48
699.627	2438.28
699.816	2475.14
700.005	2438.28
700.193	2403.46
700.382	2430.09
700.571	2520.2
700.76	2395.27
700.948	2475.14
701.137	2473.09
701.326	2411.65
701.514	2385.03
701.703	2335.88
701.892	2378.89
702.08	2532.48
702.269	2440.33
702.457	2342.02
702.646	2376.84
702.834	2319.5
703.023	2372.74
703.212	2380.93
703.4	2323.59
703.589	2313.35
703.777	2282.63
703.965	2229.38
704.154	2294.92
704.342	2329.74
704.531	2360.45
704.719	2362.5
704.907	2354.31
705.096	2272.39
705.284	2253.96
705.472	2329.74
705.661	2282.63
705.849	2272.39
706.037	2405.51
706.226	2417.8
706.414	2286.73
706.602	2329.74
706.79	2370.69
706.979	2274.44
707.167	2335.88
707.355	2290.82
707.543	2196.62
707.731	2116.75
707.919	2215.05
708.107	2262.15
708.296	2270.34
708.484	2227.34
708.672	2342.02
708.86	2237.58
709.048	2221.19
709.236	2247.82
709.424	2253.96
709.612	2225.29
709.8	2278.54
709.988	2225.29
710.176	2286.73
710.364	2272.39
710.551	2229.38
710.739	2188.43
710.927	2272.39
711.115	2245.77
711.303	2276.49
711.491	2231.43
711.679	2204.81
711.866	2100.36
712.054	2139.27
712.242	2299.02
712.43	2364.55
712.617	2204.81
712.805	2163.85
712.993	2172.04
713.181	2118.79
713.368	2141.32
713.556	2161.8
713.744	2161.8
713.931	2344.07
714.119	2307.21
714.306	2262.15
714.494	2043.02
714.682	2165.9
714.869	2133.13
715.057	2208.9
715.244	2139.27
715.432	2227.34
715.619	2221.19
715.807	2249.86
715.994	2278.54
716.182	2131.08
716.369	2284.68
716.556	2163.85
716.744	2217.1
716.931	2180.23
717.119	2174.09
717.306	2256.01
717.493	2253.96
717.681	2161.8
717.868	2180.23
718.055	2178.19
718.242	2163.85
718.43	2258.06
718.617	2108.55
718.804	2151.56
718.991	2188.43
719.179	2157.71
719.366	2278.54
719.553	2196.62
719.74	2245.77
719.927	2157.71
720.114	2176.14
720.301	2278.54
720.488	2184.33
720.676	2213
720.863	2124.94
721.05	2188.43
721.237	2045.07
721.424	2155.66
721.611	2116.75
721.798	2235.53
721.985	2161.8
722.172	2188.43
722.358	2272.39
722.545	2137.23
722.732	2122.89
722.919	2124.94
723.106	2061.45
723.293	2208.9
723.48	2114.7
723.667	2192.52
723.853	2165.9
724.04	2276.49
724.227	2145.42
724.414	2094.22
724.6	2139.27
724.787	2086.03
724.974	2135.18
725.161	2102.41
725.347	2182.28
725.534	2237.58
725.72	2176.14
725.907	2272.39
726.094	2204.81
726.28	2196.62
726.467	2167.95
726.653	2079.88
726.84	2151.56
727.027	2163.85
727.213	2116.75
727.4	2192.52
727.586	2176.14
727.773	2120.84
727.959	2274.44
728.145	2147.47
728.332	2073.74
728.518	2106.51
728.705	2110.6
728.891	2116.75
729.077	2272.39
729.264	2174.09
729.45	2126.99
729.636	2225.29
729.823	2110.6
730.009	2106.51
730.195	2133.13
730.382	2059.4
730.568	2196.62
730.754	2135.18
730.94	2112.65
731.126	2034.83
731.313	2147.47
731.499	2110.6
731.685	2196.62
731.871	2153.61
732.057	2319.5
732.243	2126.99
732.429	2030.73
732.615	2198.67
732.801	2182.28
732.987	2141.32
733.173	2073.74
733.359	2126.99
733.545	2094.22
733.731	2081.93
733.917	2169.99
734.103	2081.93
734.289	2104.46
734.475	2147.47
734.661	2149.51
734.847	2163.85
735.033	2106.51
735.219	2247.82
735.404	2122.89
735.59	2172.04
735.776	2012.3
735.962	2176.14
736.148	2086.03
736.333	2030.73
736.519	2131.08
736.705	2094.22
736.89	2049.16
737.076	2051.21
737.262	1959.05
737.447	2034.83
737.633	2047.12
737.819	2083.98
738.004	2122.89
738.19	2040.97
738.375	2096.27
738.561	2045.07
738.747	1987.72
738.932	2053.26
739.118	2053.26
739.303	1959.05
739.489	2126.99
739.674	2081.93
739.859	2059.4
740.045	2100.36
740.23	1971.34
740.416	1985.68
740.601	1942.67
740.786	1877.13
740.972	1981.58
741.157	2083.98
741.342	1950.86
741.528	1979.53
741.713	1903.76
741.898	2016.4
742.084	2036.88
742.269	1965.2
742.454	1930.38
742.639	1946.76
742.824	1877.13
743.01	1942.67
743.195	2000.01
743.38	1809.55
743.565	1897.61
743.75	1932.43
743.935	1893.52
744.12	1922.19
744.305	1864.85
744.49	1950.86
744.675	1905.81
744.86	1854.61
745.045	1766.54
745.23	1762.45
745.415	1944.72
745.6	1836.17
745.785	1717.39
745.97	1750.16
746.155	1809.55
746.34	1891.47
746.525	1758.35
746.71	1739.92
746.895	1754.26
747.079	1764.5
747.264	1717.39
747.449	1784.98
747.634	1791.12
747.819	1825.93
748.003	1655.95
748.188	1619.09
748.373	1660.05
748.557	1819.79
748.742	1705.1
748.927	1709.2
749.111	1631.38
749.296	1592.47
749.481	1705.1
749.665	1608.85
749.85	1608.85
750.034	1651.86
750.219	1647.76
750.404	1520.79
750.588	1606.8
750.773	1592.47
750.957	1584.27
751.141	1479.83
751.326	1510.55
751.51	1533.08
751.695	1475.73
751.879	1557.65
752.064	1535.12
752.248	1422.48
752.432	1635.47
752.617	1475.73
752.801	1541.27
752.985	1367.19
753.17	1471.64
753.354	1551.51
753.538	1410.2
753.722	1510.55
753.907	1385.62
754.091	1518.74
754.275	1367.19
754.459	1391.77
754.643	1352.85
754.828	1387.67
755.012	1336.47
755.196	1332.37
755.38	1348.76
755.564	1399.96
755.748	1293.46
755.932	1299.61
756.116	1281.18
756.3	1315.99
756.484	1328.28
756.668	1395.86
756.852	1209.5
757.036	1301.65
757.22	1240.22
757.404	1256.6
757.588	1275.03
757.772	1209.5
757.956	1156.25
758.14	1295.51
758.323	1223.83
758.507	1082.52
758.691	1236.12
758.875	1205.4
759.059	1246.36
759.242	1139.87
759.426	1107.1
759.61	1109.15
759.794	1123.48
759.977	1041.56
760.161	1266.84
760.345	1119.39
760.528	1082.52
760.712	1213.59
760.895	1139.87
761.079	1121.43
761.263	1100.95
761.446	1092.76
761.63	1148.06
761.813	1100.95
761.997	994.46
762.18	996.51
762.364	1051.8
762.547	1014.94
762.731	1010.84
762.914	1051.8
763.098	1043.61
763.281	1027.23
763.464	978.08
763.648	955.55
763.831	984.22
764.015	1057.95
764.198	1016.99
764.381	1062.04
764.564	1135.77
764.748	1021.08
764.931	1012.89
765.114	1041.56
765.297	984.22
765.481	965.79
765.664	928.92
765.847	978.08
766.03	984.22
766.213	971.93
766.397	887.97
766.58	959.64
766.763	910.49
766.946	978.08
767.129	914.59
767.312	947.36
767.495	873.63
767.678	971.93
767.861	951.45
768.044	885.92
768.227	953.5
768.41	988.32
768.593	877.73
768.776	939.16
768.959	939.16
769.142	922.78
769.324	883.87
769.507	885.92
769.69	840.86
769.873	861.34
770.056	894.11
770.239	922.78
770.421	881.82
770.604	828.57
770.787	851.1
770.97	806.05
771.152	810.14
771.335	875.68
771.518	797.85
771.7	894.11
771.883	910.49
772.066	828.57
772.248	818.33
772.431	896.16
772.613	857.25
772.796	799.9
772.978	822.43
773.161	904.35
773.343	820.38
773.526	699.55
773.708	730.27
773.891	849.05
774.073	814.24
774.256	816.29
774.438	781.47
774.621	779.42
774.803	740.51
774.985	746.66
775.168	734.37
775.35	713.89
775.532	693.41
775.715	730.27
775.897	697.5
776.079	738.46
776.261	756.9
776.444	746.66
776.626	750.75
776.808	644.26
776.99	674.98
777.173	722.08
777.355	652.45
777.537	674.98
777.719	705.7
777.901	601.25
778.083	677.02
778.265	574.63
778.447	775.33
778.629	599.2
778.811	658.59
778.993	672.93
779.175	591.01
779.357	631.97
779.539	591.01
779.721	593.06
779.903	558.24
780.085	666.78
780.267	656.54
780.449	670.88
780.631	631.97
780.812	578.72
780.994	568.48
781.176	607.39
781.358	625.83
781.54	591.01
781.721	568.48
781.903	521.38
782.085	537.76
782.267	603.3
782.448	525.47
782.63	537.76
782.812	591.01
782.993	558.24
783.175	576.67
783.357	525.47
783.538	556.19
783.72	504.99
783.901	517.28
784.083	504.99
784.264	533.67
784.446	488.61
784.627	494.76
784.809	461.99
784.99	484.52
785.172	537.76
785.353	541.86
785.535	500.9
785.716	494.76
785.897	552.1
786.079	429.22
786.26	502.95
786.441	509.09
786.623	410.79
786.804	390.31
786.985	490.66
787.167	517.28
787.348	443.56
787.529	533.67
787.71	521.38
787.891	504.99
788.073	439.46
788.254	353.45
788.435	451.75
788.616	459.94
788.797	427.17
788.978	423.08
789.159	408.74
789.34	339.11
789.522	310.44
789.703	394.4
789.884	396.45
790.065	369.83
790.246	406.69
790.427	287.91
790.607	347.3
790.788	386.21
790.969	337.06
791.15	353.45
791.331	361.64
791.512	339.11
791.693	320.68
791.874	384.16
792.054	445.6
792.235	437.41
792.416	365.73
792.597	388.26
792.778	367.78
792.958	355.49
793.139	355.49
793.32	314.53
793.5	304.29
793.681	396.45
793.862	371.88
794.042	355.49
794.223	246.95
794.404	378.02
794.584	201.9
794.765	361.64
794.945	316.58
795.126	349.35
795.306	339.11
795.487	308.39
795.667	371.88
795.848	306.34
796.028	263.33
796.209	312.49
796.389	363.69
796.57	224.42
796.75	324.77
796.93	249
797.111	324.77
797.291	257.19
797.471	255.14
797.652	287.91
797.832	238.76
798.012	318.63
798.192	238.76
798.373	216.23
798.553	242.85
798.733	224.42
798.913	265.38
799.093	251.05
799.274	199.85
799.454	320.68
799.634	224.42
799.814	304.29
799.994	265.38
800.174	312.49
800.354	214.18
800.534	205.99
800.714	328.87
800.894	246.95
801.074	208.04
801.254	214.18
801.434	279.72
801.614	249
801.794	240.81
801.974	847.01
802.154	251.05
802.334	230.57
802.514	197.8
802.693	263.33
802.873	240.81
803.053	255.14
803.233	259.24
803.413	197.8
803.592	140.46
803.772	287.91
803.952	257.19
804.131	246.95
804.311	205.99
804.491	208.04
804.67	267.43
804.85	189.61
805.03	195.75
805.209	218.28
805.389	162.98
805.568	193.7
805.748	205.99
805.928	171.18
806.107	156.84
806.287	308.39
806.466	156.84
806.646	205.99
806.825	193.7
807.004	158.89
807.184	230.57
807.363	238.76
807.543	222.38
807.722	142.5
807.901	271.53
808.081	212.14
808.26	218.28
808.439	169.13
808.619	214.18
808.798	158.89
808.977	93.35
809.156	181.42
809.336	187.56
809.515	261.29
809.694	160.94
809.873	175.27
810.052	203.94
810.231	183.46
810.411	205.99
810.59	165.03
810.769	117.93
810.948	195.75
811.127	111.78
811.306	128.17
811.485	126.12
811.664	242.85
811.843	191.66
812.022	205.99
812.201	117.93
812.38	165.03
812.559	191.66
812.737	214.18
812.916	109.74
813.095	177.32
813.274	189.61
813.453	154.79
813.632	232.62
813.811	216.23
813.989	130.22
814.168	169.13
814.347	115.88
814.526	140.46
814.704	142.5
814.883	197.8
815.062	165.03
815.24	232.62
815.419	87.21
815.598	111.78
815.776	42.15
815.955	140.46
816.133	101.55
816.312	99.5
816.49	136.36
816.669	156.84
816.847	142.5
817.026	165.03
817.204	132.26
817.383	132.26
817.561	173.22
817.74	148.65
817.918	181.42
818.097	119.98
818.275	126.12
818.453	156.84
818.632	156.84
818.81	126.12
818.988	105.64
819.167	193.7
819.345	140.46
819.523	58.54
819.701	97.45
819.879	173.22
820.058	142.5
820.236	99.5
820.414	152.74
820.592	132.26
820.77	81.07
820.948	160.94
821.127	19.63
821.305	85.16
821.483	148.65
821.661	113.83
821.839	126.12
822.017	130.22
822.195	60.59
822.373	142.5
822.551	148.65
822.729	173.22
822.907	107.69
823.085	95.4
823.262	193.7
823.44	109.74
823.618	105.64
823.796	74.92
823.974	91.31
824.152	144.55
824.329	29.87
824.507	109.74
824.685	60.59
824.863	144.55
825.04	91.31
825.218	83.11
825.396	124.07
825.574	169.13
825.751	70.83
825.929	85.16
826.107	62.63
826.284	142.5
826.462	117.93
826.639	83.11
826.817	62.63
826.994	79.02
827.172	44.2
827.349	93.35
827.527	154.79
827.704	138.41
827.882	107.69
828.059	54.44
828.237	52.39
828.414	101.55
828.591	52.39
828.769	103.59
828.946	142.5
829.124	171.18
829.301	83.11
829.478	17.58
829.655	146.6
829.833	144.55
830.01	46.25
830.187	33.96
830.364	54.44
830.542	126.12
830.719	162.98
830.896	81.07
831.073	21.67
831.25	126.12
831.427	91.31
831.604	107.69
831.782	25.77
831.959	132.26
832.136	74.92
832.313	150.7
832.49	95.4
832.667	136.36
832.844	56.49
833.021	189.61
833.198	74.92
833.374	99.5
833.551	9.39
833.728	101.55
833.905	142.5
834.082	25.77
834.259	81.07
834.436	126.12
834.612	122.02
834.789	140.46
834.966	38.06
835.143	27.82
835.319	9.39
835.496	97.45
835.673	36.01
835.85	66.73
836.026	25.77
836.203	124.07
836.38	136.36
836.556	158.89
836.733	60.59
836.909	103.59
837.086	17.58
837.262	58.54
837.439	156.84
837.616	68.78
837.792	79.02
837.968	70.83
838.145	-15.19
838.321	68.78
838.498	33.96
838.674	76.97
838.851	33.96
839.027	50.35
839.203	160.94
839.38	103.59
839.556	44.2
839.732	-7
839.909	19.63
840.085	50.35
840.261	36.01
840.437	64.68
840.614	132.26
840.79	99.5
840.966	40.11
841.142	68.78
841.318	85.16
841.494	91.31
841.671	105.64
841.847	11.43
842.023	44.2
842.199	111.78
842.375	54.44
842.551	52.39
842.727	83.11
842.903	50.35
843.079	1.19
843.255	48.3
843.431	42.15
843.607	126.12
843.783	76.97
843.959	95.4
844.134	54.44
844.31	124.07
844.486	33.96
844.662	-2.9
844.838	17.58
845.013	64.68
845.189	68.78
845.365	107.69
845.541	5.29
845.716	101.55
845.892	42.15
846.068	23.72
846.244	52.39
846.419	31.91
846.595	42.15
846.77	48.3
846.946	13.48
847.122	29.87
847.297	5.29
847.473	42.15
847.648	1.19
847.824	33.96
847.999	-56.15
848.175	87.21
848.35	62.63
848.526	33.96
848.701	83.11
848.876	91.31
849.052	3.24
849.227	-29.52
849.403	85.16
849.578	36.01
849.753	19.63
849.929	83.11
850.104	-19.29
850.279	-7
850.454	83.11
850.63	76.97
850.805	11.43
850.98	-2.9
851.155	31.91
851.33	9.39
851.505	-23.38
851.681	7.34
851.856	54.44
852.031	29.87
852.206	66.73
852.381	-56.15
852.556	93.35
852.731	9.39
852.906	9.39
853.081	85.16
853.256	62.63
853.431	87.21
853.606	13.48
853.781	-21.33
853.956	38.06
854.131	27.82
854.305	25.77
854.48	3.24
854.655	38.06
854.83	5.29
855.005	-66.39
855.18	83.11
855.354	44.2
855.529	54.44
855.704	-33.62
855.879	54.44
856.053	42.15
856.228	54.44
856.403	3.24
856.577	50.35
856.752	64.68
856.926	9.39
857.101	74.92
857.276	15.53
857.45	62.63
857.625	42.15
857.799	60.59
857.974	23.72
858.148	1.19
858.323	36.01
858.497	52.39
858.672	19.63
858.846	-68.44
859.02	44.2
859.195	-11.09
859.369	1.19
859.543	48.3
859.718	54.44
859.892	-23.38
860.066	119.98
860.241	58.54
860.415	27.82
860.589	52.39
860.763	-29.52
860.938	17.58
861.112	38.06
861.286	36.01
861.46	-15.19
861.634	76.97
861.808	79.02
861.982	-27.48
862.157	36.01
862.331	-23.38
862.505	58.54
862.679	44.2
862.853	50.35
863.027	17.58
863.201	70.83
863.375	23.72
863.549	21.67
863.722	64.68
863.896	62.63
864.07	66.73
864.244	17.58
864.418	-4.95
864.592	50.35
864.766	23.72
864.939	50.35
865.113	-7
865.287	11.43
865.461	-52.05
865.634	33.96
865.808	66.73
865.982	-29.52
866.156	9.39
866.329	25.77
866.503	25.77
866.676	68.78
866.85	60.59
867.024	-0.85
867.197	33.96
867.371	7.34
867.544	83.11
867.718	54.44
867.891	29.87
868.065	-11.09
868.238	42.15
868.412	29.87
868.585	50.35
868.759	17.58
868.932	60.59
869.105	-35.67
869.279	1.19
869.452	27.82
869.625	-7
869.799	-15.19
869.972	23.72
870.145	-50
870.319	9.39
870.492	74.92
870.665	17.58
870.838	42.15
871.011	1.19
871.185	9.39
871.358	-7
871.531	42.15
871.704	89.26
871.877	9.39
872.05	58.54
872.223	5.29
872.396	-25.43
872.569	54.44
872.742	1.19
872.915	17.58
873.088	17.58
873.261	-2.9
873.434	74.92
873.607	74.92
873.78	40.11
873.953	17.58
874.126	-41.81
874.299	17.58
874.471	-19.29
874.644	62.63
874.817	44.2
874.99	136.36
875.163	-23.38
875.335	58.54
875.508	83.11
875.681	23.72
875.853	5.29
876.026	38.06
876.199	42.15
876.371	-9.05
876.544	-7
876.717	99.5
876.889	50.35
877.062	42.15
877.234	33.96
877.407	38.06
877.579	60.59
877.752	-52.05
877.924	11.43
878.097	17.58
878.269	38.06
878.442	58.54
878.614	54.44
878.786	33.96
878.959	-33.62
879.131	33.96
879.303	-27.48
879.476	-23.38
879.648	11.43
879.82	-7
879.993	11.43
880.165	17.58
880.337	-88.92
880.509	93.35
880.681	-19.29
880.854	-11.09
881.026	42.15
881.198	95.4
881.37	-33.62
881.542	3.24
881.714	29.87
881.886	-11.09
882.058	33.96
882.23	36.01
882.402	17.58
882.574	107.69
882.746	25.77
882.918	19.63
883.09	-27.48
883.262	33.96
883.434	5.29
883.606	50.35
883.778	3.24
883.95	58.54
884.122	-2.9
884.293	5.29
884.465	1.19
884.637	13.48
884.809	40.11
884.98	7.34
885.152	-7
885.324	79.02
885.496	52.39
885.667	11.43
885.839	58.54
886.011	3.24
886.182	46.25
886.354	27.82
886.525	76.97
886.697	38.06
886.869	-2.9
887.04	-13.14
887.212	36.01
887.383	74.92
887.555	44.2
887.726	17.58
887.897	19.63
888.069	58.54
888.24	70.83
888.412	66.73
888.583	42.15
888.754	15.53
888.926	-4.95
889.097	-54.1
889.268	17.58
889.44	64.68
889.611	-19.29
889.782	-13.14
889.953	-39.76
890.125	-7
890.296	-29.52
890.467	-27.48
890.638	-13.14
890.809	-29.52
890.98	-70.48
891.151	11.43
891.323	46.25
891.494	68.78
891.665	25.77
891.836	38.06
892.007	27.82
892.178	50.35
892.349	-0.85
892.52	-7
892.691	-39.76
892.862	3.24
893.032	-35.67
893.203	13.48
893.374	-23.38
893.545	25.77
893.716	99.5
893.887	83.11
894.057	9.39
894.228	85.16
894.399	3.24
894.57	19.63
894.74	91.31
894.911	17.58
895.082	-21.33
895.253	-19.29
895.423	70.83
895.594	-7
895.764	1.19
895.935	9.39
896.106	17.58
896.276	-43.86
896.447	-31.57
896.617	-39.76
896.788	-76.63
896.958	17.58
897.129	-47.96
897.299	3.24
897.47	50.35
897.64	-27.48
897.81	29.87
897.981	50.35
898.151	1.19
898.322	25.77
898.492	68.78
898.662	-15.19
898.832	-62.29
899.003	-4.95
899.173	15.53
899.343	-11.09
899.513	-23.38
