Data from USB4F104151__154__14-44-38-039.txt Node

Date: Thu Mar 13 14:44:38 EDT 2025
User: louis
Spectrometer: USB4F10415
Trigger mode: 4
Integration Time (sec): 2.000000E-2
Scans to average: 1
Electric dark correction enabled: true
Nonlinearity correction enabled: false
Boxcar width: 0
XAxis mode: Wavelengths
Number of Pixels in Spectrum: 3648
>>>>>Begin Spectral Data<<<<<
178.204	-122.02
178.424	-122.02
178.644	-122.02
178.864	-183.46
179.084	-97.45
179.304	11.09
179.524	50
179.744	-31.91
179.964	58.2
180.184	-21.67
180.404	7
180.624	0.85
180.844	-11.43
181.064	-56.49
181.283	25.43
181.503	-36.01
181.723	4.95
181.943	-113.83
182.163	117.59
182.383	9.05
182.602	47.96
182.822	0.85
183.042	-7.34
183.262	-31.91
183.482	-5.29
183.701	33.62
183.921	25.43
184.141	4.95
184.361	52.05
184.58	15.19
184.8	4.95
185.02	29.52
185.239	41.81
185.459	-3.24
185.679	25.43
185.898	0.85
186.118	41.81
186.338	-44.2
186.557	9.05
186.777	-79.02
186.997	13.14
187.216	54.1
187.436	50
187.655	54.1
187.875	9.05
188.095	-40.11
188.314	129.88
188.534	2.9
188.753	-31.91
188.973	56.15
189.192	25.43
189.412	99.16
189.631	35.67
189.851	-40.11
190.07	76.63
190.29	-9.39
190.509	31.57
190.729	-15.53
190.948	19.29
191.168	9.05
191.387	-7.34
191.607	13.14
191.826	-36.01
192.045	19.29
192.265	-13.48
192.484	82.77
192.704	-23.72
192.923	-38.06
193.142	125.78
193.362	15.19
193.581	41.81
193.8	0.85
194.02	27.48
194.239	11.09
194.458	23.38
194.678	45.91
194.897	0.85
195.116	-54.44
195.335	-38.06
195.555	58.2
195.774	31.57
195.993	21.33
196.212	17.24
196.432	17.24
196.651	29.52
196.87	-13.48
197.089	97.11
197.308	54.1
197.528	43.86
197.747	-19.63
197.966	50
198.185	-31.91
198.404	0.85
198.623	39.76
198.842	19.29
199.062	82.77
199.281	50
199.5	41.81
199.719	0.85
199.938	41.81
200.157	-27.82
200.376	74.58
200.595	23.38
200.814	-19.63
201.033	-60.59
201.252	13.14
201.471	9.05
201.69	86.87
201.909	52.05
202.128	15.19
202.347	11.09
202.566	23.38
202.785	-23.72
203.004	45.91
203.223	58.2
203.442	-7.34
203.661	50
203.879	25.43
204.098	9.05
204.317	-97.45
204.536	131.92
204.755	-21.67
204.974	82.77
205.193	72.53
205.411	76.63
205.63	50
205.849	19.29
206.068	41.81
206.287	23.38
206.505	97.11
206.724	52.05
206.943	45.91
207.162	9.05
207.381	13.14
207.599	27.48
207.818	37.72
208.037	50
208.255	27.48
208.474	17.24
208.693	17.24
208.911	25.43
209.13	9.05
209.349	62.29
209.567	-7.34
209.786	-31.91
210.005	-25.77
210.223	62.29
210.442	60.24
210.661	-5.29
210.879	2.9
211.098	0.85
211.316	29.52
211.535	60.24
211.753	54.1
211.972	56.15
212.191	25.43
212.409	27.48
212.628	68.44
212.846	43.86
213.065	13.14
213.283	84.82
213.502	-15.53
213.72	27.48
213.938	33.62
214.157	0.85
214.375	23.38
214.594	7
214.812	19.29
215.031	-5.29
215.249	-40.11
215.467	74.58
215.686	17.24
215.904	88.92
216.122	-27.82
216.341	80.72
216.559	25.43
216.778	19.29
216.996	43.86
217.214	93.01
217.432	33.62
217.651	82.77
217.869	11.09
218.087	0.85
218.306	33.62
218.524	9.05
218.742	0.85
218.96	0.85
219.179	21.33
219.397	-38.06
219.615	66.39
219.833	-7.34
220.051	74.58
220.27	35.67
220.488	-19.63
220.706	123.73
220.924	-25.77
221.142	2.9
221.36	84.82
221.578	33.62
221.796	17.24
222.015	-23.72
222.233	-1.19
222.451	115.54
222.669	17.24
222.887	50
223.105	-54.44
223.323	-11.43
223.541	-7.34
223.759	58.2
223.977	-33.96
224.195	66.39
224.413	41.81
224.631	78.68
224.849	17.24
225.067	76.63
225.285	37.72
225.503	-13.48
225.721	11.09
225.939	27.48
226.157	27.48
226.375	-7.34
226.592	4.95
226.81	39.76
227.028	0.85
227.246	21.33
227.464	45.91
227.682	37.72
227.9	-29.87
228.117	15.19
228.335	52.05
228.553	29.52
228.771	-46.25
228.989	4.95
229.206	66.39
229.424	62.29
229.642	19.29
229.86	19.29
230.077	37.72
230.295	-23.72
230.513	123.73
230.731	74.58
230.948	39.76
231.166	58.2
231.384	-25.77
231.601	25.43
231.819	117.59
232.037	31.57
232.254	-27.82
232.472	-33.96
232.689	-33.96
232.907	0.85
233.125	-7.34
233.342	-9.39
233.56	-1.19
233.777	-5.29
233.995	29.52
234.213	66.39
234.43	17.24
234.648	0.85
234.865	33.62
235.083	123.73
235.3	-5.29
235.518	84.82
235.735	88.92
235.953	115.54
236.17	-21.67
236.388	-5.29
236.605	31.57
236.822	56.15
237.04	50
237.257	27.48
237.475	-68.78
237.692	17.24
237.909	13.14
238.127	50
238.344	25.43
238.562	-56.49
238.779	-27.82
238.996	-15.53
239.214	50
239.431	84.82
239.648	-13.48
239.865	25.43
240.083	-7.34
240.3	33.62
240.517	-13.48
240.735	43.86
240.952	62.29
241.169	17.24
241.386	50
241.603	13.14
241.821	-23.72
242.038	82.77
242.255	70.48
242.472	50
242.689	-42.15
242.907	109.4
243.124	17.24
243.341	9.05
243.558	15.19
243.775	84.82
243.992	-9.39
244.209	33.62
244.426	43.86
244.643	21.33
244.86	25.43
245.078	101.2
245.295	11.09
245.512	35.67
245.729	17.24
245.946	27.48
246.163	45.91
246.38	9.05
246.597	0.85
246.814	17.24
247.031	13.14
247.248	90.96
247.464	29.52
247.681	58.2
247.898	33.62
248.115	74.58
248.332	29.52
248.549	35.67
248.766	74.58
248.983	66.39
249.2	29.52
249.417	33.62
249.633	58.2
249.85	76.63
250.067	2.9
250.284	-109.74
250.501	-31.91
250.717	52.05
250.934	-56.49
251.151	-31.91
251.368	76.63
251.585	64.34
251.801	-17.58
252.018	-23.72
252.235	11.09
252.451	-21.67
252.668	66.39
252.885	47.96
253.102	-3.24
253.318	33.62
253.535	-33.96
253.752	-23.72
253.968	17.24
254.185	45.91
254.401	-66.73
254.618	68.44
254.835	29.52
255.051	11.09
255.268	31.57
255.484	11.09
255.701	45.91
255.917	27.48
256.134	-62.63
256.351	9.05
256.567	9.05
256.784	-17.58
257	-36.01
257.217	107.35
257.433	-7.34
257.65	9.05
257.866	2.9
258.082	-19.63
258.299	-72.87
258.515	41.81
258.732	-40.11
258.948	-21.67
259.165	11.09
259.381	31.57
259.597	52.05
259.814	82.77
260.03	23.38
260.246	93.01
260.463	25.43
260.679	9.05
260.895	-7.34
261.112	52.05
261.328	37.72
261.544	-15.53
261.761	41.81
261.977	17.24
262.193	-3.24
262.409	23.38
262.626	19.29
262.842	72.53
263.058	43.86
263.274	-3.24
263.49	0.85
263.707	109.4
263.923	-31.91
264.139	-31.91
264.355	19.29
264.571	43.86
264.787	39.76
265.004	47.96
265.22	-23.72
265.436	-48.3
265.652	-60.59
265.868	50
266.084	-19.63
266.3	50
266.516	35.67
266.732	-1.19
266.948	19.29
267.164	33.62
267.38	-5.29
267.596	66.39
267.812	15.19
268.028	29.52
268.244	76.63
268.46	62.29
268.676	-5.29
268.892	70.48
269.108	-7.34
269.324	-27.82
269.54	17.24
269.756	58.2
269.972	-7.34
270.188	62.29
270.403	-3.24
270.619	19.29
270.835	115.54
271.051	13.14
271.267	-58.54
271.483	35.67
271.698	-15.53
271.914	13.14
272.13	33.62
272.346	-48.3
272.562	82.77
272.777	52.05
272.993	-48.3
273.209	-56.49
273.425	25.43
273.64	37.72
273.856	47.96
274.072	50
274.287	-11.43
274.503	35.67
274.719	74.58
274.934	25.43
275.15	33.62
275.366	74.58
275.581	68.44
275.797	-52.39
276.012	-19.63
276.228	58.2
276.444	-15.53
276.659	27.48
276.875	33.62
277.09	-13.48
277.306	25.43
277.521	-38.06
277.737	52.05
277.952	99.16
278.168	25.43
278.383	35.67
278.599	-9.39
278.814	29.52
279.03	-15.53
279.245	62.29
279.461	19.29
279.676	33.62
279.892	0.85
280.107	-21.67
280.322	9.05
280.538	9.05
280.753	-3.24
280.969	70.48
281.184	17.24
281.399	125.78
281.615	25.43
281.83	50
282.045	27.48
282.26	0.85
282.476	29.52
282.691	82.77
282.906	90.96
283.122	66.39
283.337	25.43
283.552	60.24
283.767	27.48
283.983	88.92
284.198	-46.25
284.413	-23.72
284.628	-85.16
284.843	21.33
285.058	74.58
285.274	-3.24
285.489	-52.39
285.704	45.91
285.919	-7.34
286.134	27.48
286.349	47.96
286.564	52.05
286.779	-3.24
286.995	-13.48
287.21	-97.45
287.425	43.86
287.64	-9.39
287.855	9.05
288.07	-19.63
288.285	50
288.5	-5.29
288.715	45.91
288.93	0.85
289.145	99.16
289.36	78.68
289.575	45.91
289.79	-7.34
290.004	11.09
290.219	2.9
290.434	-40.11
290.649	52.05
290.864	9.05
291.079	-23.72
291.294	45.91
291.509	62.29
291.724	43.86
291.938	21.33
292.153	68.44
292.368	-31.91
292.583	25.43
292.798	17.24
293.012	68.44
293.227	54.1
293.442	9.05
293.657	41.81
293.871	41.81
294.086	90.96
294.301	11.09
294.516	29.52
294.73	29.52
294.945	45.91
295.16	7
295.374	15.19
295.589	107.35
295.804	-66.73
296.018	60.24
296.233	17.24
296.447	74.58
296.662	-9.39
296.877	78.68
297.091	78.68
297.306	31.57
297.52	0.85
297.735	35.67
297.949	60.24
298.164	19.29
298.378	-9.39
298.593	-68.78
298.807	0.85
299.022	25.43
299.236	95.06
299.451	-56.49
299.665	9.05
299.88	17.24
300.094	39.76
300.309	-11.43
300.523	19.29
300.737	50
300.952	41.81
301.166	27.48
301.381	93.01
301.595	4.95
301.809	35.67
302.024	-38.06
302.238	37.72
302.452	78.68
302.667	45.91
302.881	17.24
303.095	9.05
303.309	-46.25
303.524	56.15
303.738	2.9
303.952	-7.34
304.166	90.96
304.381	-48.3
304.595	103.25
304.809	52.05
305.023	33.62
305.237	41.81
305.452	15.19
305.666	74.58
305.88	54.1
306.094	58.2
306.308	19.29
306.522	25.43
306.736	90.96
306.95	121.68
307.164	50
307.379	15.19
307.593	-9.39
307.807	41.81
308.021	41.81
308.235	41.81
308.449	11.09
308.663	2.9
308.877	168.79
309.091	27.48
309.305	58.2
309.519	19.29
309.733	90.96
309.947	41.81
310.161	2.9
310.374	11.09
310.588	-19.63
310.802	45.91
311.016	25.43
311.23	-23.72
311.444	19.29
311.658	82.77
311.872	2.9
312.085	37.72
312.299	33.62
312.513	25.43
312.727	-21.67
312.941	35.67
313.154	117.59
313.368	17.24
313.582	50
313.796	-31.91
314.009	41.81
314.223	47.96
314.437	25.43
314.651	33.62
314.864	41.81
315.078	-7.34
315.292	9.05
315.505	68.44
315.719	45.91
315.933	-19.63
316.146	50
316.36	45.91
316.573	-7.34
316.787	43.86
317.001	-15.53
317.214	-66.73
317.428	0.85
317.641	-29.87
317.855	33.62
318.068	74.58
318.282	35.67
318.495	82.77
318.709	25.43
318.922	17.24
319.136	123.73
319.349	2.9
319.563	11.09
319.776	9.05
319.99	33.62
320.203	-3.24
320.417	82.77
320.63	21.33
320.843	45.91
321.057	105.3
321.27	41.81
321.483	-48.3
321.697	88.92
321.91	-15.53
322.124	37.72
322.337	41.81
322.55	17.24
322.763	107.35
322.977	-3.24
323.19	-33.96
323.403	23.38
323.617	19.29
323.83	50
324.043	2.9
324.256	29.52
324.469	-7.34
324.683	41.81
324.896	90.96
325.109	39.76
325.322	74.58
325.535	50
325.748	-11.43
325.962	-31.91
326.175	54.1
326.388	-11.43
326.601	29.52
326.814	70.48
327.027	23.38
327.24	136.02
327.453	-19.63
327.666	-7.34
327.879	52.05
328.092	78.68
328.305	54.1
328.518	29.52
328.731	-3.24
328.944	11.09
329.157	58.2
329.37	9.05
329.583	19.29
329.796	0.85
330.009	-36.01
330.222	-7.34
330.435	31.57
330.648	21.33
330.861	41.81
331.073	41.81
331.286	107.35
331.499	58.2
331.712	-40.11
331.925	-9.39
332.138	2.9
332.35	99.16
332.563	58.2
332.776	95.06
332.989	0.85
333.202	50
333.414	-15.53
333.627	33.62
333.84	-7.34
334.053	66.39
334.265	-21.67
334.478	74.58
334.691	17.24
334.903	74.58
335.116	23.38
335.329	19.29
335.541	11.09
335.754	9.05
335.966	-5.29
336.179	-27.82
336.392	35.67
336.604	66.39
336.817	62.29
337.029	17.24
337.242	82.77
337.454	80.72
337.667	119.64
337.88	66.39
338.092	43.86
338.305	-7.34
338.517	11.09
338.729	45.91
338.942	76.63
339.154	-3.24
339.367	0.85
339.579	41.81
339.792	-21.67
340.004	68.44
340.217	-5.29
340.429	17.24
340.641	72.53
340.854	90.96
341.066	78.68
341.278	80.72
341.491	131.92
341.703	41.81
341.915	78.68
342.128	54.1
342.34	99.16
342.552	4.95
342.764	9.05
342.977	0.85
343.189	33.62
343.401	-7.34
343.613	-13.48
343.826	68.44
344.038	-25.77
344.25	11.09
344.462	-3.24
344.674	17.24
344.886	43.86
345.099	33.62
345.311	68.44
345.523	50
345.735	-33.96
345.947	19.29
346.159	43.86
346.371	33.62
346.583	45.91
346.795	136.02
347.007	52.05
347.219	50
347.431	-25.77
347.643	84.82
347.855	43.86
348.067	95.06
348.279	-7.34
348.491	13.14
348.703	-5.29
348.915	74.58
349.127	72.53
349.339	41.81
349.551	-1.19
349.763	99.16
349.975	41.81
350.187	-11.43
350.399	21.33
350.61	52.05
350.822	0.85
351.034	50
351.246	41.81
351.458	-3.24
351.669	54.1
351.881	74.58
352.093	47.96
352.305	25.43
352.517	93.01
352.728	19.29
352.94	43.86
353.152	117.59
353.363	-56.49
353.575	54.1
353.787	52.05
353.999	95.06
354.21	76.63
354.422	-23.72
354.633	29.52
354.845	78.68
355.057	-29.87
355.268	-1.19
355.48	66.39
355.692	-5.29
355.903	-21.67
356.115	-7.34
356.326	25.43
356.538	72.53
356.749	64.34
356.961	58.2
357.172	117.59
357.384	17.24
357.595	109.4
357.807	-62.63
358.018	-3.24
358.23	50
358.441	41.81
358.653	-56.49
358.864	37.72
359.075	19.29
359.287	7
359.498	33.62
359.709	4.95
359.921	58.2
360.132	52.05
360.344	78.68
360.555	31.57
360.766	7
360.977	0.85
361.189	90.96
361.4	101.2
361.611	58.2
361.823	107.35
362.034	-11.43
362.245	-70.83
362.456	70.48
362.667	29.52
362.879	84.82
363.09	-23.72
363.301	80.72
363.512	45.91
363.723	-13.48
363.935	52.05
364.146	68.44
364.357	-44.2
364.568	-3.24
364.779	21.33
364.99	17.24
365.201	25.43
365.412	-13.48
365.623	29.52
365.834	-5.29
366.045	17.24
366.256	66.39
366.467	58.2
366.678	29.52
366.889	9.05
367.1	-5.29
367.311	33.62
367.522	0.85
367.733	90.96
367.944	68.44
368.155	-27.82
368.366	50
368.577	56.15
368.788	78.68
368.999	9.05
369.209	17.24
369.42	123.73
369.631	72.53
369.842	35.67
370.053	25.43
370.264	-29.87
370.474	41.81
370.685	37.72
370.896	33.62
371.107	101.2
371.317	50
371.528	9.05
371.739	90.96
371.95	21.33
372.16	19.29
372.371	-7.34
372.582	-11.43
372.792	107.35
373.003	119.64
373.214	-17.58
373.424	43.86
373.635	-27.82
373.846	131.92
374.056	-31.91
374.267	68.44
374.477	-21.67
374.688	-46.25
374.898	43.86
375.109	101.2
375.319	2.9
375.53	54.1
375.74	0.85
375.951	45.91
376.161	72.53
376.372	50
376.582	84.82
376.793	31.57
377.003	82.77
377.214	37.72
377.424	45.91
377.635	9.05
377.845	41.81
378.055	56.15
378.266	-11.43
378.476	25.43
378.686	74.58
378.897	29.52
379.107	33.62
379.317	133.97
379.528	37.72
379.738	76.63
379.948	-1.19
380.158	62.29
380.369	-7.34
380.579	60.24
380.789	17.24
380.999	-44.2
381.21	121.68
381.42	25.43
381.63	37.72
381.84	29.52
382.05	88.92
382.261	35.67
382.471	19.29
382.681	62.29
382.891	52.05
383.101	35.67
383.311	13.14
383.521	21.33
383.731	93.01
383.941	13.14
384.151	-15.53
384.361	72.53
384.571	95.06
384.781	43.86
384.991	74.58
385.201	35.67
385.411	60.24
385.621	33.62
385.831	9.05
386.041	60.24
386.251	-1.19
386.461	52.05
386.671	60.24
386.881	123.73
387.091	76.63
387.301	76.63
387.511	68.44
387.72	33.62
387.93	17.24
388.14	-44.2
388.35	43.86
388.56	-62.63
388.769	19.29
388.979	76.63
389.189	43.86
389.399	41.81
389.609	95.06
389.818	23.38
390.028	117.59
390.238	41.81
390.447	39.76
390.657	9.05
390.867	86.87
391.076	-23.72
391.286	54.1
391.496	-52.39
391.705	52.05
391.915	117.59
392.125	23.38
392.334	11.09
392.544	82.77
392.753	64.34
392.963	7
393.172	84.82
393.382	27.48
393.591	183.12
393.801	-15.53
394.01	78.68
394.22	9.05
394.429	47.96
394.639	21.33
394.848	115.54
395.058	52.05
395.267	115.54
395.477	172.88
395.686	164.69
395.895	33.62
396.105	148.31
396.314	43.86
396.524	25.43
396.733	60.24
396.942	74.58
397.152	60.24
397.361	84.82
397.57	93.01
397.78	13.14
397.989	74.58
398.198	93.01
398.407	17.24
398.617	35.67
398.826	-3.24
399.035	60.24
399.244	43.86
399.453	158.55
399.663	125.78
399.872	50
400.081	127.83
400.29	86.87
400.499	74.58
400.708	121.68
400.917	70.48
401.127	60.24
401.336	41.81
401.545	160.59
401.754	66.39
401.963	25.43
402.172	127.83
402.381	17.24
402.59	115.54
402.799	68.44
403.008	56.15
403.217	133.97
403.426	99.16
403.635	86.87
403.844	76.63
404.053	78.68
404.262	174.93
404.471	101.2
404.68	183.12
404.888	93.01
405.097	160.59
405.306	90.96
405.515	209.75
405.724	224.08
405.933	131.92
406.142	121.68
406.35	115.54
406.559	160.59
406.768	148.31
406.977	148.31
407.185	90.96
407.394	115.54
407.603	113.49
407.812	191.31
408.02	226.13
408.229	111.44
408.438	195.41
408.646	160.59
408.855	140.12
409.064	219.99
409.272	254.8
409.481	230.23
409.69	93.01
409.898	185.17
410.107	211.79
410.315	308.05
410.524	84.82
410.733	189.27
410.941	320.34
411.15	344.91
411.358	287.57
411.567	357.2
411.775	260.95
411.984	328.53
412.192	303.95
412.401	357.2
412.609	394.06
412.818	385.87
413.026	377.68
413.234	439.12
413.443	441.17
413.651	420.69
413.86	428.88
414.068	469.84
414.276	463.69
414.485	494.41
414.693	469.84
414.901	643.92
415.11	498.51
415.318	504.65
415.526	430.93
415.734	529.23
415.943	570.19
416.151	648.01
416.359	576.33
416.567	672.59
416.776	676.68
416.984	770.89
417.192	799.56
417.4	705.35
417.608	779.08
417.817	803.66
418.025	854.86
418.233	871.24
418.441	881.48
418.649	944.97
418.857	936.78
419.065	1051.46
419.273	1037.13
419.481	1000.26
419.689	1092.42
419.897	1108.8
420.105	1229.63
420.313	1239.87
420.521	1323.84
420.729	1356.61
420.937	1188.68
421.145	1401.66
421.353	1434.43
421.561	1522.49
421.769	1459.01
421.977	1620.8
422.185	1592.13
422.393	1721.15
422.601	1848.12
422.809	1819.45
423.017	1747.77
423.224	1854.27
423.432	2024.25
423.64	1944.38
423.848	2143.03
424.056	2108.21
424.263	2163.51
424.471	2229.04
424.679	2304.82
424.887	2323.25
425.094	2487.09
425.302	2437.94
425.51	2519.85
425.718	2632.49
425.925	2642.73
426.133	2810.67
426.341	2808.62
426.548	2941.74
426.756	2982.7
426.964	3164.97
427.171	3081
427.379	3322.66
427.586	3273.51
427.794	3490.59
428.001	3676.96
428.209	3695.39
428.417	3754.78
428.624	3930.91
428.832	4039.45
429.039	4115.22
429.247	4057.88
429.454	4320.02
429.662	4557.58
429.869	4285.2
430.076	4573.97
430.284	4426.51
430.491	4768.52
430.699	5022.47
430.906	5022.47
431.114	4862.73
431.321	5206.79
431.528	5364.48
431.736	5718.78
431.943	5956.35
432.15	5745.41
432.358	5735.17
432.565	6148.86
432.772	6021.88
432.979	6376.18
433.187	6443.76
433.394	6546.16
433.601	7035.63
433.808	6961.9
434.016	7000.81
434.223	7238.37
434.43	7725.79
434.637	7627.49
434.844	8055.51
435.052	8119
435.259	8106.71
435.466	8159.96
435.673	8000.22
435.88	8559.31
436.087	9218.76
436.294	9102.03
436.501	8794.83
436.708	8962.76
436.915	9142.99
437.122	9878.21
437.329	9777.86
437.537	10035.9
437.743	10332.86
437.95	10191.55
438.157	10633.91
438.364	10967.73
438.571	10900.14
438.778	10994.35
438.985	12157.6
439.192	11395.75
439.399	11913.89
439.606	11580.07
439.813	12270.23
440.02	13144.72
440.227	12868.24
440.433	12829.33
440.64	13116.05
440.847	12980.88
441.054	13533.83
441.261	13970.05
441.467	13920.9
441.674	14592.63
441.881	14975.6
442.088	14840.43
442.294	14674.55
442.501	15018.61
442.708	15526.5
442.914	15940.19
443.121	16755.29
443.328	16239.2
443.534	17252.94
443.741	16902.74
443.948	16765.53
444.154	17842.76
444.361	17531.47
444.568	17519.18
444.774	17719.88
444.981	18098.75
445.187	18594.36
445.394	19552.81
445.6	19116.59
445.807	20869.65
446.013	20228.64
446.22	20365.85
446.426	21275.15
446.633	21406.22
446.839	22037
447.046	21193.23
447.252	22403.58
447.459	22551.04
447.665	22243.84
447.871	23237.11
448.078	24148.45
448.284	23355.89
448.491	24195.56
448.697	24916.44
448.903	25139.67
449.11	25305.56
449.316	24740.32
449.522	25321.94
449.728	25704.91
449.935	26202.57
450.141	26214.85
450.347	27038.14
450.553	25854.41
450.76	26448.32
450.966	27453.87
451.172	26591.68
451.378	27857.32
451.584	26952.12
451.791	28285.35
451.997	27597.23
452.203	28137.9
452.409	28197.29
452.615	28232.1
452.821	26890.68
453.027	26515.9
453.233	28205.48
453.44	27298.23
453.646	27185.59
453.852	27199.93
454.058	28332.45
454.264	27167.16
454.47	28012.97
454.676	27027.9
454.882	27974.06
455.088	25686.48
455.294	25967.05
455.5	26266.05
455.705	27142.58
455.911	25866.7
456.117	25178.58
456.323	24787.42
456.529	23724.52
456.735	24814.04
456.941	23953.9
457.147	23972.33
457.352	22983.16
457.558	22544.89
457.764	22968.82
457.97	22333.95
458.176	22159.88
458.381	21803.53
458.587	20617.75
458.793	20732.44
458.999	20079.14
459.204	21332.5
459.41	20578.84
459.616	19194.42
459.821	19239.47
460.027	19423.79
460.233	18563.64
460.438	18186.82
460.644	18172.48
460.85	17427.02
461.055	17019.47
461.261	16740.95
461.466	15796.84
461.672	15254.12
461.878	16151.13
462.083	15360.62
462.289	14905.97
462.494	14772.85
462.7	14178.94
462.905	13963.9
463.111	14398.07
463.316	14385.79
463.522	14027.39
463.727	14011.01
463.932	14002.82
464.138	14006.91
464.343	13857.41
464.549	13707.91
464.754	14037.63
464.959	14170.75
465.165	13771.4
465.37	13128.33
465.575	12685.97
465.781	13378.19
465.986	13421.19
466.191	12788.37
466.397	12681.88
466.602	12022.43
466.807	12364.44
467.012	12413.59
467.218	12237.47
467.423	12313.24
467.628	12335.77
467.833	13052.56
468.038	12278.43
468.244	12024.48
468.449	12536.47
468.654	12100.25
468.859	12014.24
469.064	12034.72
469.269	11522.73
469.474	11629.22
469.679	11946.66
469.885	11537.06
470.09	11750.05
470.295	11518.63
470.5	11207.34
470.705	11422.38
470.91	11348.65
471.115	10793.65
471.32	11227.82
471.525	11119.28
471.73	11000.49
471.935	10711.73
472.139	10205.88
472.344	10584.76
472.549	10353.34
472.754	10396.34
472.959	9974.46
473.164	9996.99
473.369	9900.73
473.574	10175.16
473.778	9849.54
473.983	9927.36
474.188	10150.59
474.393	9482.95
474.598	9532.1
474.802	9511.62
475.007	9302.73
475.212	9341.64
475.417	9020.11
475.621	9200.33
475.826	9298.63
476.031	9140.94
476.235	8786.64
476.44	8948.43
476.645	8659.67
476.849	8784.59
477.054	8633.04
477.259	8487.64
477.463	8487.64
477.668	8207.06
477.872	8307.41
478.077	8282.84
478.282	8084.19
478.486	8008.41
478.691	7883.49
478.895	7779.04
479.1	7746.27
479.304	7637.73
479.509	7697.12
479.713	7826.14
479.918	7727.84
480.122	7406.31
480.326	7432.93
480.531	7471.84
480.735	7676.64
480.94	7467.75
481.144	7713.5
481.348	7381.73
481.553	7541.47
481.757	7252.71
481.961	7369.44
482.166	7504.61
482.37	7394.02
482.574	7185.13
482.778	7289.57
482.983	7381.73
483.187	7201.51
483.391	7348.97
483.595	7258.85
483.8	7203.56
484.004	7260.9
484.208	7338.73
484.412	7230.18
484.616	7324.39
484.821	7305.96
485.025	7113.45
485.229	7242.47
485.433	7240.42
485.637	7217.9
485.841	7013.1
486.045	7320.29
486.249	7195.37
486.453	7279.33
486.657	7052.01
486.861	7123.69
487.065	7047.91
487.269	7160.55
487.473	7138.02
487.677	7283.43
487.881	7518.95
488.085	7185.13
488.289	7367.4
488.493	7293.67
488.697	7295.72
488.901	7265
489.105	7187.18
489.309	7299.81
489.512	7187.18
489.716	7383.78
489.92	7342.82
490.124	7443.17
490.328	7348.97
490.531	7365.35
490.735	7568.1
490.939	7408.36
491.143	7463.65
491.346	7520.99
491.55	7578.34
491.754	7635.68
491.958	7770.85
492.161	7586.53
492.365	7602.91
492.569	7549.67
492.772	7787.23
492.976	7752.42
493.18	7738.08
493.383	7824.09
493.587	7789.28
493.79	7955.16
493.994	7834.33
494.197	7989.98
494.401	7877.34
494.605	7942.88
494.808	8192.73
495.012	8276.7
495.215	8364.76
495.419	8479.44
495.622	8258.26
495.825	8356.57
496.029	8628.95
496.232	8676.05
496.436	8930
496.639	8891.09
496.843	8659.67
497.046	9110.22
497.249	8932.05
497.453	9147.08
497.656	9249.48
497.859	9294.54
498.063	9292.49
498.266	9468.61
498.469	9392.84
498.673	9642.69
498.876	9669.31
499.079	9804.48
499.282	9734.85
499.485	10136.25
499.689	10046.14
499.892	10025.66
500.095	10072.76
500.298	10562.23
500.501	10257.08
500.705	10822.32
500.908	10707.63
501.111	10887.86
501.314	10963.63
501.517	11043.5
501.72	11358.89
501.923	11281.07
502.126	11514.53
502.329	11831.97
502.532	11563.68
502.735	11799.2
502.938	12167.84
503.141	12083.87
503.344	12141.21
503.547	12303
503.75	12417.69
503.953	12694.16
504.156	12675.73
504.359	13034.13
504.562	13001.36
504.765	13226.64
504.968	13464.2
505.17	13638.28
505.373	13511.3
505.576	13619.85
505.779	13947.52
505.982	14002.82
506.185	14115.45
506.387	14316.15
506.59	14682.74
506.793	14738.04
506.996	14922.35
507.198	14883.44
507.401	15145.58
507.604	15475.31
507.807	15821.41
508.009	15696.49
508.212	15985.25
508.415	16034.4
508.617	16294.49
508.82	16321.12
509.022	16319.07
509.225	16468.57
509.428	16939.6
509.63	16646.74
509.833	17009.23
510.035	17508.94
510.238	17443.4
510.44	17732.17
510.643	18125.38
510.845	18254.4
511.048	18063.94
511.25	18393.66
511.453	18428.48
511.655	19135.03
511.858	18750.01
512.06	18840.12
512.262	19577.39
512.465	19378.73
512.667	19712.55
512.87	19647.02
513.072	19997.22
513.274	20245.02
513.477	20120.1
513.679	20783.64
513.881	21066.26
514.084	21242.39
514.286	21029.4
514.488	21004.82
514.69	21897.74
514.893	21998.09
515.095	22235.65
515.297	22497.79
515.499	22385.15
515.701	22561.28
515.904	22987.25
516.106	22987.25
516.308	23179.76
516.51	23636.46
516.712	23648.75
516.914	23818.73
517.116	24191.46
517.318	24216.04
517.52	24521.18
517.722	24424.93
517.925	24986.07
518.127	25260.5
518.329	25526.74
518.531	25291.22
518.733	25778.64
518.935	25903.56
519.136	25983.43
519.338	26517.95
519.54	26503.62
519.742	26898.87
519.944	27005.37
520.146	27386.29
520.348	28082.6
520.55	27713.97
520.752	27888.04
520.954	28285.35
521.155	27982.25
521.357	28766.62
521.559	28690.85
521.761	29393.3
521.963	29168.02
522.164	29544.85
522.366	29616.53
522.568	29868.43
522.77	29997.45
522.971	30599.55
523.173	30177.67
523.375	30660.99
523.576	30564.74
523.778	30521.73
523.98	30996.86
524.181	31494.52
524.383	31095.16
524.584	31635.83
524.786	31730.03
524.988	31586.68
525.189	31895.92
525.391	32158.06
525.592	32344.42
525.794	32571.75
525.995	32797.02
526.197	32790.88
526.398	32940.38
526.6	33098.08
526.801	33231.19
527.003	33304.92
527.204	33280.35
527.406	33700.18
527.607	33544.53
527.808	33962.32
528.01	33548.63
528.211	33945.94
528.412	34408.78
528.614	34232.65
528.815	34212.17
529.016	34486.6
529.218	34330.95
529.419	34480.46
529.62	34496.84
529.822	34722.12
530.023	34609.48
530.224	34621.77
530.425	34746.69
530.626	34873.67
530.828	34816.32
531.029	35393.85
531.23	34914.62
531.431	35203.39
531.632	34896.19
531.833	35062.08
532.035	35111.23
532.236	35408.19
532.437	35418.42
532.638	35123.52
532.839	35258.68
533.04	35375.42
533.241	34693.44
533.442	36215.08
533.643	35483.96
533.844	35486.01
534.045	35420.47
534.246	35164.48
534.447	35868.98
534.648	35797.3
534.849	35729.72
535.05	35344.7
535.251	35420.47
535.451	35680.56
535.652	35699
535.853	35641.65
536.054	35840.31
536.255	35961.14
536.456	35725.62
536.657	36012.34
536.857	35891.51
537.058	35791.16
537.259	35957.04
537.46	35776.82
537.66	35973.42
537.861	36057.39
538.062	35903.79
538.263	36331.82
538.463	35678.52
538.664	35850.55
538.865	35815.73
539.065	35750.2
539.266	35559.73
539.466	35791.16
539.667	35451.19
539.868	35987.76
540.068	35903.79
540.269	35387.71
540.469	35948.85
540.67	35744.05
540.87	35311.93
541.071	35471.67
541.271	35731.76
541.472	35713.33
541.672	35576.12
541.873	35703.09
542.073	35692.85
542.274	36135.21
542.474	35813.68
542.675	35535.16
542.875	35846.45
543.075	35492.15
543.276	35486.01
543.476	36288.81
543.676	35596.6
543.877	35729.72
544.077	35473.72
544.277	35686.71
544.478	35385.66
544.678	35266.88
544.878	35526.97
545.078	35905.84
545.279	35195.2
545.479	35338.55
545.679	35649.85
545.879	35273.02
546.079	35576.12
546.28	35352.89
546.48	35338.55
546.68	35854.64
546.88	35420.47
547.08	35301.69
547.28	35502.39
547.48	35146.05
547.68	35287.35
547.88	35301.69
548.081	35606.84
548.281	35418.42
548.481	35307.83
548.681	35760.44
548.881	35256.64
549.081	35359.03
549.28	35201.34
549.48	35553.59
549.68	35205.44
549.88	35518.78
550.08	34920.77
550.28	35746.1
550.48	35356.99
550.68	35623.22
550.88	35359.03
551.08	35158.33
551.279	35238.2
551.479	34922.82
551.679	35262.78
551.879	35213.63
552.079	35920.18
552.278	34804.03
552.478	35172.67
552.678	34931.01
552.878	35508.54
553.077	35289.4
553.277	34898.24
553.477	35451.19
553.676	35205.44
553.876	35023.17
554.076	34781.51
554.275	34842.95
554.475	34457.93
554.674	34863.43
554.874	34754.88
555.074	34650.44
555.273	34789.7
555.473	34744.64
555.672	34765.12
555.872	34548.04
556.071	34656.58
556.271	34941.25
556.47	34691.4
556.67	34386.25
556.869	34443.59
557.068	34548.04
557.268	34402.63
557.467	34384.2
557.667	34210.12
557.866	34341.19
558.065	34373.96
558.265	34519.37
558.464	33929.55
558.663	34464.07
558.863	33864.02
559.062	34617.67
559.261	33855.82
559.461	33937.74
559.66	33847.63
559.859	34021.71
560.058	33554.77
560.258	33601.88
560.457	33380.7
560.656	33997.13
560.855	33706.32
561.054	33849.68
561.253	33180
561.453	33874.26
561.652	33507.67
561.851	33741.14
562.05	33509.72
562.249	33317.21
562.448	33694.04
562.647	33448.28
562.846	33261.91
563.045	33206.62
563.244	32614.76
563.443	33259.87
563.642	32788.83
563.841	32799.07
564.04	32700.77
564.239	32985.44
564.438	32899.42
564.637	32665.95
564.836	32815.46
565.035	32330.09
565.234	32665.95
565.432	32358.76
565.631	31955.31
565.83	32207.21
566.029	32192.87
566.228	32242.03
566.427	31844.72
566.625	31902.06
566.824	31979.89
567.023	31873.39
567.222	31347.06
567.42	31830.38
567.619	31486.32
567.818	31607.16
568.016	31740.27
568.215	31369.59
568.414	31185.27
568.612	31717.75
568.811	31209.85
569.01	31076.73
569.208	30837.12
569.407	31308.15
569.605	30652.8
569.804	31136.12
570.002	30640.51
570.201	30871.93
570.4	30554.5
570.598	30431.62
570.797	30460.29
570.995	30474.63
571.193	30126.47
571.392	30501.25
571.59	29962.64
571.789	30208.39
571.987	30175.62
572.186	29888.91
572.384	29831.57
572.582	30019.98
572.781	29880.72
572.979	29471.12
573.177	29841.81
573.376	29886.86
573.574	29540.75
573.772	29385.11
573.971	29284.76
574.169	28965.28
574.367	28873.12
574.565	29137.3
574.763	29032.86
574.962	29153.69
575.16	28283.3
575.358	28866.97
575.556	28332.45
575.754	29059.48
575.952	28221.86
576.151	28621.22
576.349	28467.62
576.547	28461.48
576.745	28647.84
576.943	28254.63
577.141	28320.17
577.339	28215.72
577.537	28127.66
577.735	27881.9
577.933	27679.15
578.131	27709.87
578.329	27568.56
578.527	27943.34
578.725	27425.2
578.923	27531.7
579.121	27650.48
579.319	27412.92
579.516	27640.24
579.714	27169.21
579.912	26868.16
580.11	27187.64
580.308	27056.57
580.506	26862.01
580.704	26454.47
580.901	26808.76
581.099	27056.57
581.297	26728.89
581.495	26491.33
581.692	26444.23
581.89	26210.76
582.088	26743.23
582.285	26077.64
582.483	26438.08
582.681	25962.95
582.878	25981.38
583.076	25498.06
583.274	26249.67
583.471	25792.97
583.669	25792.97
583.866	25588.17
584.064	25995.72
584.262	25479.63
584.459	25543.12
584.657	25575.89
584.854	25850.31
585.052	25072.09
585.249	25207.25
585.447	25154.01
585.644	25037.27
585.841	25094.61
586.039	25248.21
586.236	24848.86
586.434	24789.47
586.631	24646.11
586.828	24631.77
587.026	24570.33
587.223	24506.85
587.42	24435.17
587.618	24197.6
587.815	24261.09
588.012	24205.8
588.21	24177.12
588.407	24310.24
588.604	24179.17
588.801	23790.06
588.999	23828.97
589.196	24052.2
589.393	23710.19
589.59	23718.38
589.787	23626.22
589.984	23716.33
590.182	23167.48
590.379	23636.46
590.576	23273.97
590.773	23218.68
590.97	23030.26
591.167	23462.38
591.364	22966.77
591.561	23316.98
591.758	22563.33
591.955	23065.08
592.152	22882.81
592.349	22706.68
592.546	22200.83
592.743	23003.64
592.94	22516.22
593.137	22565.37
593.334	22454.78
593.531	22094.34
593.727	22442.49
593.924	22559.23
594.121	22141.44
594.318	22262.27
594.515	21608.97
594.712	22141.44
594.908	22147.59
595.105	21723.66
595.302	21815.82
595.499	21692.94
595.696	21580.3
595.892	21621.26
596.089	21678.6
596.286	21330.45
596.482	21678.6
596.679	21326.35
596.876	21426.7
597.072	21316.11
597.269	20943.38
597.466	20910.61
597.662	21195.28
597.859	20697.63
598.055	21035.54
598.252	20791.83
598.448	20877.85
598.645	20759.06
598.841	20877.85
599.038	20644.38
599.234	20638.23
599.431	20251.17
599.627	20482.59
599.824	20658.71
600.02	20177.44
600.217	20314.66
600.413	20103.71
600.609	20249.12
600.806	20298.27
601.002	20042.28
601.198	19847.72
601.395	19939.88
601.591	19632.68
601.787	19661.35
601.984	19581.48
602.18	19907.11
602.376	19663.4
602.572	19495.47
602.769	19532.33
602.965	19257.9
603.161	19249.71
603.357	19124.79
603.553	19421.74
603.75	19223.09
603.946	19114.55
604.142	19147.31
604.338	18979.38
604.534	19309.1
604.73	18651.7
604.926	18776.63
605.122	18963
605.318	18373.18
605.514	18553.4
605.71	18350.65
605.906	18520.63
606.102	18567.74
606.298	18367.04
606.494	18170.43
606.69	18258.49
606.886	18328.13
607.082	17859.14
607.278	18119.23
607.474	17900.1
607.67	18108.99
607.866	17769.03
608.062	18364.99
608.257	18004.55
608.453	17670.73
608.649	18010.69
608.845	17752.65
609.041	17885.76
609.236	17877.57
609.432	17728.07
609.628	17576.52
609.824	17441.36
610.019	17388.11
610.215	17486.41
610.411	17662.54
610.606	17558.09
610.802	17420.88
610.998	17465.93
611.193	17472.07
611.389	17152.59
611.584	17138.26
611.78	17035.86
611.976	17265.23
612.171	17052.24
612.367	17257.04
612.562	16984.66
612.758	16970.32
612.953	16509.53
613.149	17025.62
613.344	16794.2
613.539	17058.39
613.735	16654.94
613.93	16720.47
614.126	16722.52
614.321	16872.02
614.517	16706.13
614.712	16835.16
614.907	16443.99
615.103	16663.13
615.298	16566.87
615.493	16685.65
615.688	16179.81
615.884	16630.36
616.079	16271.97
616.274	16628.31
616.47	16302.68
616.665	16296.54
616.86	16337.5
617.055	16235.1
617.25	16061.02
617.445	16435.8
617.641	15798.88
617.836	16151.13
618.031	15788.64
618.226	16095.84
618.421	15823.46
618.616	15911.52
618.811	15581.8
619.006	15899.23
619.201	15764.07
619.396	15757.92
619.591	15454.83
619.786	15315.56
619.981	15071.86
620.176	15491.69
620.371	15284.84
620.566	15192.69
620.761	15430.25
620.956	15221.36
621.151	14750.32
621.346	15075.95
621.541	14768.76
621.735	15092.34
621.93	14641.78
622.125	14731.89
622.32	14717.56
622.515	14746.23
622.709	14379.64
622.904	14459.51
623.099	14479.99
623.294	14371.45
623.488	13982.34
623.683	14205.56
623.878	13888.13
624.072	14162.56
624.267	14015.1
624.462	13824.64
624.656	13591.17
624.851	13689.48
625.046	13689.48
625.24	13589.13
625.435	13441.67
625.629	13451.91
625.824	13410.95
626.018	13380.23
626.213	12972.69
626.407	13107.85
626.602	13019.79
626.796	12921.49
626.991	13126.29
627.185	12847.76
627.38	12845.71
627.574	12608.15
627.768	12753.55
627.963	12491.41
628.157	12559
628.352	12339.87
628.546	12243.61
628.74	12305.05
628.935	12083.87
629.129	12223.13
629.323	11905.7
629.517	12047.01
629.712	11840.16
629.906	11983.52
630.1	11680.42
630.294	11795.11
630.489	11651.75
630.683	11762.34
630.877	11465.38
631.071	11543.21
631.265	11657.89
631.459	11408.04
631.653	11354.79
631.848	11385.51
632.042	11303.59
632.236	11340.46
632.43	11150
632.624	10984.11
632.818	10863.28
633.012	10828.46
633.206	10957.49
633.4	10795.7
633.594	10693.3
633.788	10797.74
633.982	10631.86
634.176	10683.06
634.369	10365.62
634.563	10476.21
634.757	10474.17
634.951	10511.03
635.145	10363.58
635.339	10203.83
635.533	10119.87
635.726	10255.03
635.92	10042.04
636.114	10158.78
636.308	9972.41
636.501	9970.37
636.695	9884.35
636.889	9800.38
637.083	9867.97
637.276	9691.84
637.47	9624.26
637.664	9538.24
637.857	9593.54
638.051	9630.4
638.244	9550.53
638.438	9497.28
638.632	9288.39
638.825	9319.11
639.019	9290.44
639.212	9061.07
639.406	9204.42
639.599	9034.44
639.793	9063.12
639.986	9196.23
640.18	8848.08
640.373	8899.28
640.567	8864.46
640.76	8903.37
640.954	8651.47
641.147	8782.54
641.34	8690.38
641.534	8651.47
641.727	8633.04
641.92	8501.97
642.114	8538.84
642.307	8522.45
642.5	8389.33
642.694	8082.14
642.887	8303.32
643.08	8342.23
643.273	8135.39
643.467	8233.69
643.66	8137.43
643.853	8108.76
644.046	8209.11
644.239	8004.32
644.432	8051.42
644.626	7867.1
644.819	7865.05
645.012	7828.19
645.205	7860.96
645.398	7942.88
645.591	7617.25
645.784	7578.34
645.977	7607.01
646.17	7463.65
646.363	7531.23
646.556	7525.09
646.749	7453.41
646.942	7496.42
647.135	7353.06
647.328	7398.12
647.521	7152.36
647.714	7117.54
647.907	7242.47
648.099	7226.09
648.292	7160.55
648.485	7019.24
648.678	6865.64
648.871	6988.52
649.064	6900.46
649.256	6918.89
649.449	6929.13
649.642	6730.48
649.835	6789.87
650.027	6736.62
650.22	6660.85
650.413	6859.5
650.605	6605.55
650.798	6759.15
650.991	6515.44
651.183	6421.24
651.376	6529.78
651.568	6519.54
651.761	6296.31
651.954	6558.45
652.146	6392.56
652.339	6318.84
652.531	6466.29
652.724	6300.41
652.916	6234.87
653.109	6054.65
653.301	6081.27
653.494	6118.14
653.686	6044.41
653.879	6243.06
654.071	6064.89
654.263	5841.66
654.456	5972.73
654.648	6161.14
654.84	5964.54
655.033	5907.2
655.225	5835.52
655.417	5835.52
655.61	5849.85
655.802	5692.16
655.994	5778.17
656.186	5827.32
656.379	5796.6
656.571	5571.33
656.763	5653.25
656.955	5561.09
657.148	5735.17
657.34	5456.64
657.532	5505.79
657.724	5450.5
657.916	5464.83
658.108	5243.65
658.3	5243.65
658.492	5380.87
658.684	5247.75
658.876	5358.34
659.068	5344
659.26	5155.59
659.452	5223.17
659.644	5153.54
659.836	5112.58
660.028	5171.97
660.22	5090.06
660.412	4944.65
660.604	4920.07
660.796	5006.09
660.988	5014.28
661.18	4879.11
661.372	4700.94
661.563	4985.61
661.755	4967.18
661.947	4987.66
662.139	4913.93
662.331	4768.52
662.522	4819.72
662.714	4760.33
662.906	4590.35
663.097	4662.03
663.289	4526.86
663.481	4461.33
663.673	4786.96
663.864	4508.43
664.056	4569.87
664.247	4614.93
664.439	4584.21
664.631	4580.11
664.822	4520.72
665.014	4483.86
665.205	4420.37
665.397	4383.51
665.588	4569.87
665.78	4305.68
665.971	4270.87
666.163	4268.82
666.354	4403.99
666.546	4147.99
666.737	4283.16
666.929	4363.03
667.12	4360.98
667.311	4268.82
667.503	4166.42
667.694	4270.87
667.885	4068.12
668.077	4104.98
668.268	3973.91
668.459	4033.3
668.651	3885.85
668.842	3990.3
669.033	3941.15
669.224	3877.66
669.416	4039.45
669.607	3953.43
669.798	3812.12
669.989	3863.32
670.18	3908.38
670.371	3908.38
670.563	3791.64
670.754	3891.99
670.945	3808.03
671.136	3724.06
671.327	3679.01
671.518	3834.65
671.709	3736.35
671.9	3730.2
672.091	3638.05
672.282	3597.09
672.473	3525.41
672.664	3617.57
672.855	3615.52
673.046	3683.1
673.237	3629.85
673.428	3472.16
673.619	3545.89
673.809	3457.82
674	3515.17
674.191	3547.94
674.382	3480.35
674.573	3644.19
674.764	3423.01
674.954	3433.25
675.145	3523.36
675.336	3420.96
675.527	3478.3
675.717	3212.07
675.908	3246.88
676.099	3400.48
676.289	3277.6
676.48	3343.14
676.671	3289.89
676.861	3349.28
677.052	3242.79
677.243	3410.72
677.433	3240.74
677.624	3220.26
677.814	3265.32
678.005	3304.23
678.195	3236.64
678.386	3156.77
678.576	3115.81
678.767	3138.34
678.957	3068.71
679.148	3261.22
679.338	3179.3
679.529	3205.92
679.719	3189.54
679.909	3124.01
680.1	3177.25
680.29	3220.26
680.481	3023.66
680.671	3144.49
680.861	3099.43
681.052	3097.38
681.242	3064.61
681.432	3015.46
681.622	3089.19
681.813	3101.48
682.003	3015.46
682.193	3031.85
682.383	3023.66
682.573	2908.97
682.764	3056.42
682.954	2978.6
683.144	2911.02
683.334	3037.99
683.524	3015.46
683.714	2865.96
683.904	3015.46
684.094	3007.27
684.284	3015.46
684.474	2831.15
684.664	2921.26
684.854	2921.26
685.044	2863.91
685.234	2841.39
685.424	2755.37
685.614	2921.26
685.804	2966.31
685.994	2935.59
686.184	2892.59
686.374	2857.77
686.564	2818.86
686.753	2827.05
686.943	2685.74
687.133	2796.33
687.323	2673.45
687.513	2773.8
687.702	2765.61
687.892	2698.03
688.082	2663.21
688.272	2835.24
688.461	2575.15
688.651	2736.94
688.841	2732.84
689.03	2616.11
689.22	2806.57
689.41	2738.99
689.599	2583.34
689.789	2638.64
689.979	2552.62
690.168	2593.58
690.358	2579.25
690.547	2593.58
690.737	2591.53
690.926	2652.97
691.116	2482.99
691.305	2585.39
691.495	2466.61
691.684	2431.79
691.874	2538.29
692.063	2478.9
692.252	2489.14
692.442	2546.48
692.631	2536.24
692.82	2454.32
693.01	2450.22
693.199	2417.46
693.388	2507.57
693.578	2470.7
693.767	2409.26
693.956	2474.8
694.146	2503.47
694.335	2482.99
694.524	2573.1
694.713	2360.11
694.902	2401.07
695.092	2458.42
695.281	2458.42
695.47	2351.92
695.659	2411.31
695.848	2310.96
696.037	2358.07
696.226	2294.58
696.415	2341.68
696.604	2341.68
696.793	2337.59
696.982	2331.44
697.171	2292.53
697.36	2372.4
697.549	2372.4
697.738	2349.87
697.927	2319.15
698.116	2278.19
698.305	2315.06
698.494	2319.15
698.683	2296.63
698.872	2394.93
699.061	2245.43
699.25	2257.71
699.438	2280.24
699.627	2364.21
699.816	2239.28
700.005	2288.43
700.193	2251.57
700.382	2296.63
700.571	2290.48
700.76	2319.15
700.948	2313.01
701.137	2319.15
701.326	2286.39
701.514	2265.91
701.703	2288.43
701.892	2296.63
702.08	2329.39
702.269	2190.13
702.457	2249.52
702.646	2272.05
702.834	2313.01
703.023	2237.24
703.212	2263.86
703.4	2259.76
703.589	2192.18
703.777	2304.82
703.965	2206.52
704.154	2249.52
704.342	2245.43
704.531	2229.04
704.719	2163.51
704.907	2249.52
705.096	2155.32
705.284	2200.37
705.472	2216.76
705.661	2263.86
705.849	2339.63
706.037	2196.28
706.226	2253.62
706.414	2302.77
706.602	2286.39
706.79	2163.51
706.979	2188.08
707.167	2218.8
707.355	2065.21
707.543	2188.08
707.731	2140.98
707.919	2212.66
708.107	2253.62
708.296	2177.84
708.484	2229.04
708.672	2147.12
708.86	2265.91
709.048	2216.76
709.236	2104.12
709.424	2183.99
709.612	2247.48
709.8	2200.37
709.988	2157.36
710.176	2110.26
710.364	2134.84
710.551	2229.04
710.739	2132.79
710.927	2200.37
711.115	2200.37
711.303	2175.8
711.491	2265.91
711.679	2100.02
711.866	2147.12
712.054	2319.15
712.242	2118.45
712.43	2306.87
712.617	2149.17
712.805	2102.07
712.993	2267.95
713.181	2093.88
713.368	2233.14
713.556	2175.8
713.744	2126.64
713.931	2112.31
714.119	2138.93
714.306	2181.94
714.494	2122.55
714.682	2134.84
714.869	2147.12
715.057	2149.17
715.244	2114.36
715.432	2276.15
715.619	2130.74
715.807	2165.56
715.994	2081.59
716.182	2040.63
716.369	2190.13
716.556	2110.26
716.744	2159.41
716.931	2181.94
717.119	2122.55
717.306	2095.93
717.493	2065.21
717.681	2100.02
717.868	2040.63
718.055	2130.74
718.242	2124.6
718.43	2138.93
718.617	2149.17
718.804	2054.97
718.991	2155.32
719.179	2020.15
719.366	2177.84
719.553	2095.93
719.74	2114.36
719.927	2206.52
720.114	2044.73
720.301	2075.45
720.488	2077.49
720.676	2048.82
720.863	2052.92
721.05	2138.93
721.237	2085.69
721.424	2118.45
721.611	2073.4
721.798	2087.73
721.985	2059.06
722.172	2108.21
722.358	2147.12
722.545	2091.83
722.732	1995.57
722.919	2114.36
723.106	2007.86
723.293	2014.01
723.48	2073.4
723.667	1999.67
723.853	1977.14
724.04	2020.15
724.227	2024.25
724.414	1960.76
724.6	1934.14
724.787	2081.59
724.974	2089.78
725.161	2073.4
725.347	1977.14
725.534	2048.82
725.72	2089.78
725.907	1975.1
726.094	2020.15
726.28	2009.91
726.467	1960.76
726.653	1966.9
726.84	1985.34
727.027	2110.26
727.213	1925.94
727.4	1962.81
727.586	2034.49
727.773	2028.34
727.959	2059.06
728.145	1893.18
728.332	2007.86
728.518	2032.44
728.705	2014.01
728.891	2024.25
729.077	1958.71
729.264	2067.25
729.45	1880.89
729.636	1962.81
729.823	1889.08
730.009	2016.05
730.195	1948.47
730.382	1907.51
730.568	2014.01
730.754	1893.18
730.94	1837.88
731.126	1995.57
731.313	2007.86
731.499	1909.56
731.685	1975.1
731.871	1889.08
732.057	1985.34
732.243	2065.21
732.429	1954.62
732.615	1954.62
732.801	1919.8
732.987	1839.93
733.173	1966.9
733.359	1962.81
733.545	1827.64
733.731	1893.18
733.917	1903.42
734.103	1897.27
734.289	1901.37
734.475	1821.5
734.661	1999.67
734.847	1983.29
735.033	1966.9
735.219	1977.14
735.404	1829.69
735.59	1909.56
735.776	1852.22
735.962	1889.08
736.148	1911.61
736.333	1985.34
736.519	1809.21
736.705	1919.8
736.89	1858.36
737.076	1852.22
737.262	1778.49
737.447	1807.16
737.633	1807.16
737.819	1901.37
738.004	1807.16
738.19	1706.81
738.375	1884.98
738.561	1841.98
738.747	1850.17
738.932	1772.35
739.118	1801.02
739.303	1903.42
739.489	1835.83
739.674	1751.87
739.859	1731.39
740.045	1837.88
740.23	1821.5
740.416	1706.81
740.601	1739.58
740.786	1764.15
740.972	1704.76
741.157	1626.94
741.342	1712.96
741.528	1647.42
741.713	1721.15
741.898	1649.47
742.084	1755.96
742.269	1631.04
742.454	1702.72
742.639	1661.76
742.824	1733.43
743.01	1717.05
743.195	1753.91
743.38	1706.81
743.565	1682.24
743.75	1727.29
743.935	1581.89
744.12	1674.04
744.305	1557.31
744.49	1649.47
744.675	1639.23
744.86	1635.13
745.045	1547.07
745.23	1583.93
745.415	1637.18
745.6	1510.21
745.785	1651.52
745.97	1551.17
746.155	1524.54
746.34	1452.86
746.525	1536.83
746.71	1616.7
746.895	1551.17
747.079	1540.93
747.264	1581.89
747.449	1526.59
747.634	1448.77
747.819	1475.39
748.003	1438.53
748.188	1422.14
748.373	1401.66
748.557	1387.33
748.742	1418.05
748.927	1329.99
749.111	1524.54
749.296	1352.51
749.481	1405.76
749.665	1364.8
749.85	1397.57
750.034	1405.76
750.219	1352.51
750.404	1278.79
750.588	1360.7
750.773	1360.7
750.957	1319.75
751.141	1362.75
751.326	1317.7
751.51	1295.17
751.695	1223.49
751.879	1360.7
752.064	1362.75
752.248	1250.11
752.432	1270.59
752.617	1311.55
752.801	1254.21
752.985	1119.04
753.17	1266.5
753.354	1233.73
753.538	1342.27
753.722	1180.48
753.907	1188.68
754.091	1166.15
754.275	1209.15
754.459	1135.43
754.643	1082.18
754.828	1157.96
755.012	1190.72
755.196	1131.33
755.38	1147.72
755.564	1002.31
755.748	1209.15
755.932	1090.37
756.116	1133.38
756.3	1129.28
756.484	1082.18
756.668	1057.61
756.852	1033.03
757.036	1098.56
757.22	961.35
757.404	932.68
757.588	971.59
757.772	1061.7
757.956	994.12
758.14	992.07
758.323	1020.74
758.507	996.17
758.691	1106.76
758.875	1008.45
759.059	949.06
759.242	871.24
759.426	983.88
759.61	922.44
759.794	942.92
759.977	959.3
760.161	1008.45
760.345	1016.65
760.528	938.82
760.712	1010.5
760.895	961.35
761.079	953.16
761.263	934.73
761.446	906.06
761.63	850.76
761.813	879.43
761.997	871.24
762.18	846.66
762.364	861
762.547	754.51
762.731	883.53
762.914	801.61
763.098	871.24
763.281	842.57
763.464	858.95
763.648	846.66
763.831	906.06
764.015	844.62
764.198	844.62
764.381	881.48
764.564	834.38
764.748	858.95
764.931	865.1
765.114	762.7
765.297	877.38
765.481	766.79
765.664	781.13
765.847	836.42
766.03	813.9
766.213	783.18
766.397	748.36
766.58	791.37
766.763	809.8
766.946	836.42
767.129	779.08
767.312	830.28
767.495	750.41
767.678	803.66
767.861	779.08
768.044	856.9
768.227	734.03
768.41	770.89
768.593	787.27
768.776	795.47
768.959	631.63
769.142	807.75
769.324	691.02
769.507	697.16
769.69	789.32
769.873	678.73
770.056	766.79
770.239	721.74
770.421	779.08
770.604	701.26
770.787	723.79
770.97	703.31
771.152	707.4
771.335	707.4
771.518	725.83
771.7	746.31
771.883	729.93
772.066	723.79
772.248	688.97
772.431	619.34
772.613	723.79
772.796	688.97
772.978	748.36
773.161	754.51
773.343	672.59
773.526	680.78
773.708	684.87
773.891	660.3
774.073	680.78
774.256	674.64
774.438	680.78
774.621	607.05
774.803	666.44
774.985	672.59
775.168	738.12
775.35	625.48
775.532	672.59
775.715	650.06
775.897	656.2
776.079	635.72
776.261	596.81
776.444	660.3
776.626	611.15
776.808	576.33
776.99	602.96
777.173	588.62
777.355	574.28
777.537	559.95
777.719	533.33
777.901	549.71
778.083	631.63
778.265	582.48
778.447	623.44
778.629	437.07
778.811	549.71
778.993	521.04
779.175	498.51
779.357	598.86
779.539	445.26
779.721	527.18
779.903	465.74
780.085	471.89
780.267	510.8
780.449	484.17
780.631	441.17
780.812	488.27
780.994	576.33
781.176	514.89
781.358	461.65
781.54	459.6
781.721	582.48
781.903	490.32
782.085	467.79
782.267	512.85
782.448	410.45
782.63	449.36
782.812	443.21
782.993	500.56
783.175	426.83
783.357	467.79
783.538	385.87
783.72	377.68
783.901	453.45
784.083	424.78
784.264	418.64
784.446	451.41
784.627	303.95
784.809	459.6
784.99	430.93
785.172	406.35
785.353	355.15
785.535	469.84
785.716	353.1
785.897	371.54
786.079	385.87
786.26	349.01
786.441	369.49
786.623	267.09
786.804	320.34
786.985	346.96
787.167	379.73
787.348	363.34
787.529	320.34
787.71	459.6
787.891	371.54
788.073	381.78
788.254	328.53
788.435	373.58
788.616	357.2
788.797	326.48
788.978	314.19
789.159	349.01
789.34	279.38
789.522	365.39
789.703	338.77
789.884	275.28
790.065	314.19
790.246	324.43
790.427	349.01
790.607	398.16
790.788	365.39
790.969	349.01
791.15	353.1
791.331	303.95
791.512	256.85
791.693	262.99
791.874	258.9
792.054	285.52
792.235	330.58
792.416	289.62
792.597	340.82
792.778	369.49
792.958	346.96
793.139	340.82
793.32	273.23
793.5	262.99
793.681	346.96
793.862	369.49
794.042	289.62
794.223	273.23
794.404	254.8
794.584	238.42
794.765	176.98
794.945	238.42
795.126	244.56
795.306	262.99
795.487	226.13
795.667	265.04
795.848	213.84
796.028	254.8
796.209	222.03
796.389	275.28
796.57	306
796.75	230.23
796.93	222.03
797.111	248.66
797.291	213.84
797.471	226.13
797.652	222.03
797.832	156.5
798.012	287.57
798.192	183.12
798.373	230.23
798.553	207.7
798.733	172.88
798.913	183.12
799.093	256.85
799.274	172.88
799.454	279.38
799.634	238.42
799.814	201.55
799.994	238.42
800.174	215.89
800.354	160.59
800.534	172.88
800.714	262.99
800.894	256.85
801.074	117.59
801.254	238.42
801.434	234.32
801.614	203.6
801.794	197.46
801.974	850.76
802.154	193.36
802.334	174.93
802.514	213.84
802.693	207.7
802.873	176.98
803.053	246.61
803.233	199.51
803.413	99.16
803.592	174.93
803.772	107.35
803.952	142.16
804.131	176.98
804.311	254.8
804.491	172.88
804.67	166.74
804.85	129.88
805.03	164.69
805.209	181.07
805.389	187.22
805.568	148.31
805.748	164.69
805.928	166.74
806.107	193.36
806.287	207.7
806.466	142.16
806.646	172.88
806.825	168.79
807.004	95.06
807.184	226.13
807.363	232.27
807.543	156.5
807.722	119.64
807.901	193.36
808.081	140.12
808.26	88.92
808.439	140.12
808.619	215.89
808.798	76.63
808.977	99.16
809.156	131.92
809.336	166.74
809.515	191.31
809.694	50
809.873	199.51
810.052	111.44
810.231	191.31
810.411	140.12
810.59	262.99
810.769	197.46
810.948	166.74
811.127	82.77
811.306	119.64
811.485	131.92
811.664	138.07
811.843	142.16
812.022	213.84
812.201	33.62
812.38	144.21
812.559	86.87
812.737	142.16
812.916	111.44
813.095	131.92
813.274	117.59
813.453	162.64
813.632	127.83
813.811	174.93
813.989	76.63
814.168	121.68
814.347	107.35
814.526	162.64
814.704	131.92
814.883	197.46
815.062	107.35
815.24	222.03
815.419	35.67
815.598	164.69
815.776	183.12
815.955	93.01
816.133	148.31
816.312	66.39
816.49	50
816.669	115.54
816.847	158.55
817.026	101.2
817.204	58.2
817.383	125.78
817.561	66.39
817.74	90.96
817.918	117.59
818.097	19.29
818.275	131.92
818.453	127.83
818.632	78.68
818.81	84.82
818.988	66.39
819.167	68.44
819.345	127.83
819.523	68.44
819.701	27.48
819.879	62.29
820.058	103.25
820.236	174.93
820.414	152.4
820.592	39.76
820.77	62.29
820.948	74.58
821.127	109.4
821.305	115.54
821.483	17.24
821.661	107.35
821.839	156.5
822.017	47.96
822.195	33.62
822.373	117.59
822.551	109.4
822.729	99.16
822.907	148.31
823.085	78.68
823.262	31.57
823.44	41.81
823.618	58.2
823.796	99.16
823.974	99.16
824.152	39.76
824.329	74.58
824.507	93.01
824.685	121.68
824.863	68.44
825.04	60.24
825.218	78.68
825.396	25.43
825.574	70.48
825.751	43.86
825.929	131.92
826.107	103.25
826.284	58.2
826.462	148.31
826.639	33.62
826.817	41.81
826.994	25.43
827.172	64.34
827.349	125.78
827.527	99.16
827.704	93.01
827.882	115.54
828.059	136.02
828.237	64.34
828.414	101.2
828.591	54.1
828.769	115.54
828.946	50
829.124	95.06
829.301	107.35
829.478	62.29
829.655	86.87
829.833	66.39
830.01	68.44
830.187	64.34
830.364	13.14
830.542	41.81
830.719	74.58
830.896	90.96
831.073	101.2
831.25	74.58
831.427	156.5
831.604	62.29
831.782	43.86
831.959	148.31
832.136	50
832.313	58.2
832.49	66.39
832.667	74.58
832.844	-7.34
833.021	90.96
833.198	93.01
833.374	-5.29
833.551	95.06
833.728	37.72
833.905	70.48
834.082	17.24
834.259	41.81
834.436	123.73
834.612	29.52
834.789	84.82
834.966	29.52
835.143	103.25
835.319	-3.24
835.496	58.2
835.673	88.92
835.85	90.96
836.026	31.57
836.203	119.64
836.38	97.11
836.556	29.52
836.733	-3.24
836.909	101.2
837.086	0.85
837.262	21.33
837.439	93.01
837.616	50
837.792	7
837.968	50
838.145	-23.72
838.321	-21.67
838.498	62.29
838.674	33.62
838.851	25.43
839.027	21.33
839.203	35.67
839.38	82.77
839.556	99.16
839.732	66.39
839.909	33.62
840.085	121.68
840.261	-19.63
840.437	33.62
840.614	41.81
840.79	33.62
840.966	35.67
841.142	82.77
841.318	-5.29
841.494	111.44
841.671	84.82
841.847	52.05
842.023	17.24
842.199	50
842.375	72.53
842.551	27.48
842.727	-5.29
842.903	62.29
843.079	41.81
843.255	90.96
843.431	43.86
843.607	25.43
843.783	-62.63
843.959	52.05
844.134	-21.67
844.31	58.2
844.486	7
844.662	-48.3
844.838	-19.63
845.013	17.24
845.189	45.91
845.365	25.43
845.541	31.57
845.716	43.86
845.892	80.72
846.068	-27.82
846.244	-36.01
846.419	109.4
846.595	29.52
846.77	2.9
846.946	-19.63
847.122	29.52
847.297	-23.72
847.473	99.16
847.648	19.29
847.824	0.85
847.999	-21.67
848.175	72.53
848.35	7
848.526	0.85
848.701	0.85
848.876	15.19
849.052	33.62
849.227	-15.53
849.403	13.14
849.578	-40.11
849.753	90.96
849.929	84.82
850.104	29.52
850.279	33.62
850.454	52.05
850.63	62.29
850.805	7
850.98	31.57
851.155	4.95
851.33	25.43
851.505	27.48
851.681	37.72
851.856	19.29
852.031	-5.29
852.206	95.06
852.381	13.14
852.556	74.58
852.731	-13.48
852.906	68.44
853.081	33.62
853.256	-3.24
853.431	7
853.606	17.24
853.781	2.9
853.956	-40.11
854.131	19.29
854.305	-15.53
854.48	25.43
854.655	33.62
854.83	45.91
855.005	29.52
855.18	25.43
855.354	60.24
855.529	66.39
855.704	7
855.879	54.1
856.053	37.72
856.228	66.39
856.403	66.39
856.577	-7.34
856.752	-46.25
856.926	58.2
857.101	29.52
857.276	-13.48
857.45	-23.72
857.625	131.92
857.799	17.24
857.974	45.91
858.148	17.24
858.323	35.67
858.497	-21.67
858.672	11.09
858.846	-54.44
859.02	17.24
859.195	17.24
859.369	17.24
859.543	-5.29
859.718	-21.67
859.892	50
860.066	80.72
860.241	33.62
860.415	33.62
860.589	25.43
860.763	43.86
860.938	90.96
861.112	101.2
861.286	7
861.46	37.72
861.634	9.05
861.808	74.58
861.982	33.62
862.157	-25.77
862.331	-7.34
862.505	-42.15
862.679	-66.73
862.853	43.86
863.027	27.48
863.201	41.81
863.375	-21.67
863.549	33.62
863.722	-72.87
863.896	33.62
864.07	11.09
864.244	-44.2
864.418	68.44
864.592	74.58
864.766	35.67
864.939	-23.72
865.113	21.33
865.287	54.1
865.461	-40.11
865.634	-23.72
865.808	-15.53
865.982	62.29
866.156	-46.25
866.329	66.39
866.503	-23.72
866.676	64.34
866.85	37.72
867.024	-29.87
867.197	-5.29
867.371	17.24
867.544	58.2
867.718	-19.63
867.891	41.81
868.065	33.62
868.238	-11.43
868.412	2.9
868.585	-23.72
868.759	-31.91
868.932	-7.34
869.105	-7.34
869.279	-5.29
869.452	-13.48
869.625	-21.67
869.799	-89.26
869.972	-11.43
870.145	29.52
870.319	86.87
870.492	27.48
870.665	31.57
870.838	17.24
871.011	-87.21
871.185	11.09
871.358	-23.72
871.531	2.9
871.704	9.05
871.877	2.9
872.05	0.85
872.223	0.85
872.396	-66.73
872.569	-48.3
872.742	9.05
872.915	33.62
873.088	-36.01
873.261	-152.74
873.434	11.09
873.607	-3.24
873.78	43.86
873.953	-97.45
874.126	-58.54
874.299	-7.34
874.471	-3.24
874.644	2.9
874.817	99.16
874.99	27.48
875.163	45.91
875.335	86.87
875.508	17.24
875.681	68.44
875.853	-3.24
876.026	2.9
876.199	17.24
876.371	9.05
876.544	107.35
876.717	9.05
876.889	-46.25
877.062	50
877.234	-38.06
877.407	31.57
877.579	35.67
877.752	0.85
877.924	4.95
878.097	-36.01
878.269	41.81
878.442	-5.29
878.614	11.09
878.786	43.86
878.959	2.9
879.131	76.63
879.303	-50.35
879.476	29.52
879.648	45.91
879.82	11.09
879.993	-23.72
880.165	-25.77
880.337	-3.24
880.509	-13.48
880.681	-36.01
880.854	-3.24
881.026	88.92
881.198	33.62
881.37	-40.11
881.542	66.39
881.714	35.67
881.886	-23.72
882.058	2.9
882.23	-36.01
882.402	4.95
882.574	-38.06
882.746	-23.72
882.918	-72.87
883.09	50
883.262	17.24
883.434	-1.19
883.606	-111.78
883.778	35.67
883.95	41.81
884.122	33.62
884.293	-15.53
884.465	-54.44
884.637	-23.72
884.809	-40.11
884.98	43.86
885.152	7
885.324	-31.91
885.496	-89.26
885.667	-9.39
885.839	27.48
886.011	41.81
886.182	39.76
886.354	25.43
886.525	-60.59
886.697	56.15
886.869	-33.96
887.04	-74.92
887.212	-17.58
887.383	99.16
887.555	-11.43
887.726	45.91
887.897	9.05
888.069	17.24
888.24	31.57
888.412	-13.48
888.583	-5.29
888.754	15.19
888.926	-5.29
889.097	-5.29
889.268	-31.91
889.44	-21.67
889.611	-58.54
889.782	-40.11
889.953	66.39
890.125	58.2
890.296	21.33
890.467	27.48
890.638	4.95
890.809	9.05
890.98	-9.39
891.151	41.81
891.323	68.44
891.494	13.14
891.665	-58.54
891.836	25.43
892.007	25.43
892.178	9.05
892.349	35.67
892.52	72.53
892.691	-95.4
892.862	41.81
893.032	27.48
893.203	-27.82
893.374	-42.15
893.545	45.91
893.716	-29.87
893.887	90.96
894.057	-81.07
894.228	33.62
894.399	9.05
894.57	-15.53
894.74	-21.67
894.911	-13.48
895.082	-64.68
895.253	27.48
895.423	47.96
895.594	21.33
895.764	11.09
895.935	-31.91
896.106	-38.06
896.276	4.95
896.447	4.95
896.617	4.95
896.788	-11.43
896.958	-42.15
897.129	15.19
897.299	-7.34
897.47	-1.19
897.64	33.62
897.81	-11.43
897.981	99.16
898.151	4.95
898.322	-11.43
898.492	-62.63
898.662	-13.48
898.832	62.29
899.003	7
899.173	-46.25
899.343	0.85
899.513	-38.06
