Data from USB4F104151__288__14-46-26-474.txt Node

Date: Thu Mar 13 14:46:26 EDT 2025
User: louis
Spectrometer: USB4F10415
Trigger mode: 4
Integration Time (sec): 2.000000E-2
Scans to average: 1
Electric dark correction enabled: true
Nonlinearity correction enabled: false
Boxcar width: 0
XAxis mode: Wavelengths
Number of Pixels in Spectrum: 3648
>>>>>Begin Spectral Data<<<<<
178.204	-46.76
178.424	-46.76
178.644	-46.76
178.864	-138.92
179.084	-22.19
179.304	-13.99
179.524	-7.85
179.744	-57
179.964	98.64
180.184	-9.9
180.404	-3.75
180.624	51.54
180.844	-50.86
181.064	-11.95
181.283	-38.57
181.503	-24.23
181.723	67.92
181.943	0.34
182.163	92.5
182.383	-34.47
182.602	16.73
182.822	96.6
183.042	82.26
183.262	41.3
183.482	16.73
183.701	88.4
183.921	33.11
184.141	-1.71
184.361	80.21
184.58	63.83
184.8	18.77
185.02	-38.57
185.239	72.02
185.459	47.44
185.679	57.68
185.898	-1.71
186.118	72.02
186.338	41.3
186.557	96.6
186.777	41.3
186.997	-7.85
187.216	0.34
187.436	121.17
187.655	-22.19
187.875	61.78
188.095	59.73
188.314	88.4
188.534	67.92
188.753	8.53
188.973	24.92
189.192	41.3
189.412	55.64
189.631	41.3
189.851	82.26
190.07	80.21
190.29	37.2
190.509	47.44
190.729	39.25
190.948	129.36
191.168	141.65
191.387	59.73
191.607	43.35
191.826	39.25
192.045	-26.28
192.265	41.3
192.484	108.88
192.704	49.49
192.923	6.49
193.142	96.6
193.362	31.06
193.581	98.64
193.8	63.83
194.02	31.06
194.239	51.54
194.458	76.12
194.678	59.73
194.897	59.73
195.116	6.49
195.335	6.49
195.555	57.68
195.774	4.44
195.993	22.87
196.212	33.11
196.432	-26.28
196.651	14.68
196.87	0.34
197.089	121.17
197.308	49.49
197.528	112.98
197.747	16.73
197.966	104.79
198.185	82.26
198.404	37.2
198.623	74.07
198.842	35.16
199.062	84.31
199.281	92.5
199.5	55.64
199.719	26.96
199.938	33.11
200.157	98.64
200.376	59.73
200.595	57.68
200.814	35.16
201.033	-9.9
201.252	102.74
201.471	63.83
201.69	94.55
201.909	72.02
202.128	49.49
202.347	84.31
202.566	29.01
202.785	63.83
203.004	16.73
203.223	74.07
203.442	31.06
203.661	43.35
203.879	22.87
204.098	74.07
204.317	51.54
204.536	74.07
204.755	20.82
204.974	129.36
205.193	63.83
205.411	104.79
205.63	78.16
205.849	31.06
206.068	63.83
206.287	31.06
206.505	49.49
206.724	72.02
206.943	35.16
207.162	61.78
207.381	55.64
207.599	24.92
207.818	-18.09
208.037	104.79
208.255	10.58
208.474	-7.85
208.693	41.3
208.911	8.53
209.13	59.73
209.349	22.87
209.567	80.21
209.786	190.8
210.005	22.87
210.223	55.64
210.442	-18.09
210.661	153.94
210.879	22.87
211.098	61.78
211.316	55.64
211.535	39.25
211.753	33.11
211.972	0.34
212.191	115.03
212.409	-9.9
212.628	-1.71
212.846	39.25
213.065	63.83
213.283	121.17
213.502	-50.86
213.72	47.44
213.938	12.63
214.157	39.25
214.375	31.06
214.594	55.64
214.812	129.36
215.031	26.96
215.249	63.83
215.467	-1.71
215.686	102.74
215.904	96.6
216.122	63.83
216.341	80.21
216.559	74.07
216.778	127.32
216.996	82.26
217.214	72.02
217.432	-16.04
217.651	18.77
217.869	12.63
218.087	72.02
218.306	112.98
218.524	35.16
218.742	22.87
218.96	49.49
219.179	49.49
219.397	33.11
219.615	92.5
219.833	6.49
220.051	61.78
220.27	78.16
220.488	18.77
220.706	82.26
220.924	18.77
221.142	43.35
221.36	18.77
221.578	63.83
221.796	16.73
222.015	98.64
222.233	14.68
222.451	67.92
222.669	20.82
222.887	-5.8
223.105	12.63
223.323	-5.8
223.541	-1.71
223.759	84.31
223.977	51.54
224.195	131.41
224.413	47.44
224.631	80.21
224.849	10.58
225.067	10.58
225.285	10.58
225.503	14.68
225.721	2.39
225.939	4.44
226.157	98.64
226.375	145.75
226.592	22.87
226.81	72.02
227.028	8.53
227.246	90.45
227.464	82.26
227.682	47.44
227.9	10.58
228.117	63.83
228.335	10.58
228.553	74.07
228.771	65.88
228.989	-13.99
229.206	-13.99
229.424	16.73
229.642	16.73
229.86	63.83
230.077	96.6
230.295	59.73
230.513	22.87
230.731	78.16
230.948	41.3
231.166	35.16
231.384	57.68
231.601	16.73
231.819	76.12
232.037	8.53
232.254	-13.99
232.472	63.83
232.689	0.34
232.907	37.2
233.125	18.77
233.342	59.73
233.56	80.21
233.777	35.16
233.995	26.96
234.213	112.98
234.43	24.92
234.648	22.87
234.865	33.11
235.083	39.25
235.3	31.06
235.518	96.6
235.735	72.02
235.953	137.56
236.17	72.02
236.388	-9.9
236.605	-32.43
236.822	137.56
237.04	45.4
237.257	24.92
237.475	69.97
237.692	24.92
237.909	41.3
238.127	31.06
238.344	72.02
238.562	-7.85
238.779	-42.67
238.996	2.39
239.214	35.16
239.431	31.06
239.648	65.88
239.865	104.79
240.083	92.5
240.3	10.58
240.517	14.68
240.735	33.11
240.952	47.44
241.169	137.56
241.386	39.25
241.603	49.49
241.821	26.96
242.038	125.27
242.255	24.92
242.472	41.3
242.689	47.44
242.907	82.26
243.124	-20.14
243.341	57.68
243.558	-32.43
243.775	82.26
243.992	0.34
244.209	39.25
244.426	158.03
244.643	67.92
244.86	74.07
245.078	49.49
245.295	51.54
245.512	-26.28
245.729	31.06
245.946	45.4
246.163	43.35
246.38	96.6
246.597	-5.8
246.814	59.73
247.031	31.06
247.248	43.35
247.464	47.44
247.681	104.79
247.898	59.73
248.115	6.49
248.332	0.34
248.549	20.82
248.766	88.4
248.983	-7.85
249.2	-18.09
249.417	104.79
249.633	53.59
249.85	55.64
250.067	-13.99
250.284	106.84
250.501	72.02
250.717	80.21
250.934	-3.75
251.151	47.44
251.368	57.68
251.585	55.64
251.801	74.07
252.018	72.02
252.235	59.73
252.451	63.83
252.668	-97.96
252.885	20.82
253.102	59.73
253.318	65.88
253.535	2.39
253.752	16.73
253.968	104.79
254.185	31.06
254.401	-13.99
254.618	47.44
254.835	-1.71
255.051	57.68
255.268	24.92
255.484	2.39
255.701	69.97
255.917	49.49
256.134	-1.71
256.351	16.73
256.567	31.06
256.784	88.4
257	-1.71
257.217	80.21
257.433	51.54
257.65	18.77
257.866	92.5
258.082	26.96
258.299	72.02
258.515	84.31
258.732	26.96
258.948	55.64
259.165	129.36
259.381	18.77
259.597	-9.9
259.814	14.68
260.03	22.87
260.246	-24.23
260.463	80.21
260.679	115.03
260.895	67.92
261.112	59.73
261.328	6.49
261.544	55.64
261.761	137.56
261.977	53.59
262.193	8.53
262.409	65.88
262.626	35.16
262.842	31.06
263.058	98.64
263.274	94.55
263.49	51.54
263.707	51.54
263.923	6.49
264.139	57.68
264.355	16.73
264.571	82.26
264.787	67.92
265.004	24.92
265.22	43.35
265.436	-1.71
265.652	47.44
265.868	53.59
266.084	80.21
266.3	22.87
266.516	14.68
266.732	14.68
266.948	43.35
267.164	33.11
267.38	92.5
267.596	151.89
267.812	59.73
268.028	33.11
268.244	29.01
268.46	53.59
268.676	69.97
268.892	39.25
269.108	31.06
269.324	74.07
269.54	45.4
269.756	-24.23
269.972	33.11
270.188	80.21
270.403	69.97
270.619	90.45
270.835	96.6
271.051	47.44
271.267	98.64
271.483	59.73
271.698	74.07
271.914	24.92
272.13	98.64
272.346	-42.67
272.562	53.59
272.777	92.5
272.993	76.12
273.209	51.54
273.425	2.39
273.64	18.77
273.856	37.2
274.072	98.64
274.287	-32.43
274.503	-1.71
274.719	94.55
274.934	63.83
275.15	35.16
275.366	-34.47
275.581	10.58
275.797	22.87
276.012	-22.19
276.228	-7.85
276.444	-1.71
276.659	94.55
276.875	88.4
277.09	63.83
277.306	-11.95
277.521	26.96
277.737	53.59
277.952	61.78
278.168	80.21
278.383	51.54
278.599	94.55
278.814	63.83
279.03	72.02
279.245	84.31
279.461	88.4
279.676	115.03
279.892	-18.09
280.107	65.88
280.322	49.49
280.538	82.26
280.753	59.73
280.969	47.44
281.184	84.31
281.399	55.64
281.615	74.07
281.83	49.49
282.045	-9.9
282.26	37.2
282.476	35.16
282.691	90.45
282.906	49.49
283.122	76.12
283.337	22.87
283.552	80.21
283.767	-24.23
283.983	80.21
284.198	33.11
284.413	74.07
284.628	-22.19
284.843	16.73
285.058	112.98
285.274	88.4
285.489	8.53
285.704	14.68
285.919	-5.8
286.134	0.34
286.349	-16.04
286.564	31.06
286.779	72.02
286.995	92.5
287.21	55.64
287.425	80.21
287.64	-32.43
287.855	90.45
288.07	26.96
288.285	129.36
288.5	63.83
288.715	82.26
288.93	96.6
289.145	63.83
289.36	57.68
289.575	80.21
289.79	117.08
290.004	47.44
290.219	51.54
290.434	-18.09
290.649	31.06
290.864	0.34
291.079	39.25
291.294	43.35
291.509	74.07
291.724	43.35
291.938	45.4
292.153	106.84
292.368	31.06
292.583	119.12
292.798	67.92
293.012	47.44
293.227	84.31
293.442	119.12
293.657	88.4
293.871	18.77
294.086	-3.75
294.301	88.4
294.516	110.93
294.73	43.35
294.945	123.22
295.16	35.16
295.374	55.64
295.589	55.64
295.804	-22.19
296.018	112.98
296.233	51.54
296.447	57.68
296.662	84.31
296.877	129.36
297.091	26.96
297.306	98.64
297.52	82.26
297.735	63.83
297.949	82.26
298.164	65.88
298.378	72.02
298.593	67.92
298.807	0.34
299.022	100.69
299.236	63.83
299.451	47.44
299.665	8.53
299.88	51.54
300.094	127.32
300.309	26.96
300.523	55.64
300.737	65.88
300.952	104.79
301.166	104.79
301.381	6.49
301.595	-1.71
301.809	6.49
302.024	14.68
302.238	26.96
302.452	6.49
302.667	72.02
302.881	76.12
303.095	86.36
303.309	110.93
303.524	22.87
303.738	74.07
303.952	18.77
304.166	78.16
304.381	-9.9
304.595	63.83
304.809	-50.86
305.023	121.17
305.237	35.16
305.452	49.49
305.666	72.02
305.88	14.68
306.094	20.82
306.308	53.59
306.522	96.6
306.736	20.82
306.95	74.07
307.164	-28.33
307.379	65.88
307.593	80.21
307.807	115.03
308.021	31.06
308.235	20.82
308.449	59.73
308.663	-24.23
308.877	141.65
309.091	92.5
309.305	-16.04
309.519	2.39
309.733	-9.9
309.947	55.64
310.161	55.64
310.374	43.35
310.588	33.11
310.802	-9.9
311.016	47.44
311.23	76.12
311.444	74.07
311.658	12.63
311.872	-1.71
312.085	31.06
312.299	53.59
312.513	80.21
312.727	39.25
312.941	24.92
313.154	98.64
313.368	29.01
313.582	-16.04
313.796	2.39
314.009	76.12
314.223	94.55
314.437	26.96
314.651	63.83
314.864	8.53
315.078	67.92
315.292	6.49
315.505	65.88
315.719	43.35
315.933	78.16
316.146	59.73
316.36	22.87
316.573	39.25
316.787	178.51
317.001	55.64
317.214	26.96
317.428	67.92
317.641	67.92
317.855	72.02
318.068	96.6
318.282	69.97
318.495	39.25
318.709	82.26
318.922	121.17
319.136	121.17
319.349	51.54
319.563	33.11
319.776	31.06
319.99	39.25
320.203	84.31
320.417	41.3
320.63	63.83
320.843	76.12
321.057	133.46
321.27	0.34
321.483	39.25
321.697	104.79
321.91	82.26
322.124	14.68
322.337	0.34
322.55	39.25
322.763	104.79
322.977	49.49
323.19	24.92
323.403	98.64
323.617	96.6
323.83	57.68
324.043	88.4
324.256	80.21
324.469	-18.09
324.683	137.56
324.896	33.11
325.109	41.3
325.322	6.49
325.535	35.16
325.748	74.07
325.962	104.79
326.175	104.79
326.388	51.54
326.601	31.06
326.814	10.58
327.027	55.64
327.24	112.98
327.453	-1.71
327.666	2.39
327.879	57.68
328.092	115.03
328.305	72.02
328.518	67.92
328.731	18.77
328.944	-13.99
329.157	24.92
329.37	61.78
329.583	80.21
329.796	92.5
330.009	14.68
330.222	67.92
330.435	59.73
330.648	61.78
330.861	-9.9
331.073	104.79
331.286	59.73
331.499	-7.85
331.712	-22.19
331.925	39.25
332.138	-7.85
332.35	67.92
332.563	-9.9
332.776	121.17
332.989	108.88
333.202	18.77
333.414	51.54
333.627	100.69
333.84	24.92
334.053	121.17
334.265	0.34
334.478	31.06
334.691	59.73
334.903	88.4
335.116	6.49
335.329	63.83
335.541	115.03
335.754	96.6
335.966	84.31
336.179	49.49
336.392	112.98
336.604	14.68
336.817	80.21
337.029	0.34
337.242	76.12
337.454	35.16
337.667	4.44
337.88	104.79
338.092	39.25
338.305	57.68
338.517	-7.85
338.729	76.12
338.942	96.6
339.154	31.06
339.367	39.25
339.579	98.64
339.792	53.59
340.004	-13.99
340.217	10.58
340.429	55.64
340.641	-40.62
340.854	72.02
341.066	88.4
341.278	39.25
341.491	72.02
341.703	131.41
341.915	2.39
342.128	63.83
342.34	39.25
342.552	-1.71
342.764	90.45
342.977	-32.43
343.189	24.92
343.401	16.73
343.613	106.84
343.826	47.44
344.038	37.2
344.25	67.92
344.462	65.88
344.674	67.92
344.886	61.78
345.099	47.44
345.311	14.68
345.523	59.73
345.735	90.45
345.947	41.3
346.159	39.25
346.371	72.02
346.583	82.26
346.795	110.93
347.007	39.25
347.219	158.03
347.431	76.12
347.643	6.49
347.855	55.64
348.067	112.98
348.279	35.16
348.491	57.68
348.703	31.06
348.915	88.4
349.127	26.96
349.339	22.87
349.551	2.39
349.763	22.87
349.975	39.25
350.187	145.75
350.399	74.07
350.61	72.02
350.822	-48.81
351.034	-5.8
351.246	-46.76
351.458	31.06
351.669	16.73
351.881	80.21
352.093	63.83
352.305	141.65
352.517	82.26
352.728	69.97
352.94	57.68
353.152	33.11
353.363	84.31
353.575	82.26
353.787	94.55
353.999	72.02
354.21	131.41
354.422	18.77
354.633	22.87
354.845	72.02
355.057	61.78
355.268	47.44
355.48	55.64
355.692	14.68
355.903	43.35
356.115	39.25
356.326	65.88
356.538	39.25
356.749	80.21
356.961	98.64
357.172	78.16
357.384	65.88
357.595	108.88
357.807	65.88
358.018	47.44
358.23	31.06
358.441	98.64
358.653	18.77
358.864	98.64
359.075	43.35
359.287	74.07
359.498	33.11
359.709	51.54
359.921	16.73
360.132	90.45
360.344	94.55
360.555	82.26
360.766	121.17
360.977	-26.28
361.189	100.69
361.4	119.12
361.611	74.07
361.823	63.83
362.034	131.41
362.245	10.58
362.456	26.96
362.667	143.7
362.879	92.5
363.09	92.5
363.301	76.12
363.512	104.79
363.723	67.92
363.935	43.35
364.146	72.02
364.357	43.35
364.568	65.88
364.779	14.68
364.99	-18.09
365.201	22.87
365.412	14.68
365.623	26.96
365.834	49.49
366.045	129.36
366.256	88.4
366.467	108.88
366.678	47.44
366.889	39.25
367.1	43.35
367.311	31.06
367.522	-3.75
367.733	43.35
367.944	106.84
368.155	41.3
368.366	55.64
368.577	33.11
368.788	96.6
368.999	14.68
369.209	31.06
369.42	133.46
369.631	100.69
369.842	55.64
370.053	-16.04
370.264	96.6
370.474	-7.85
370.685	74.07
370.896	63.83
371.107	24.92
371.317	137.56
371.528	92.5
371.739	137.56
371.95	43.35
372.16	57.68
372.371	39.25
372.582	31.06
372.792	55.64
373.003	121.17
373.214	84.31
373.424	49.49
373.635	26.96
373.846	76.12
374.056	39.25
374.267	117.08
374.477	41.3
374.688	41.3
374.898	31.06
375.109	16.73
375.319	65.88
375.53	102.74
375.74	72.02
375.951	33.11
376.161	88.4
376.372	121.17
376.582	100.69
376.793	65.88
377.003	104.79
377.214	14.68
377.424	92.5
377.635	102.74
377.845	31.06
378.055	104.79
378.266	26.96
378.476	55.64
378.686	45.4
378.897	108.88
379.107	-5.8
379.317	92.5
379.528	131.41
379.738	78.16
379.948	72.02
380.158	31.06
380.369	33.11
380.579	76.12
380.789	14.68
380.999	24.92
381.21	26.96
381.42	100.69
381.63	55.64
381.84	55.64
382.05	51.54
382.261	92.5
382.471	96.6
382.681	63.83
382.891	98.64
383.101	110.93
383.311	24.92
383.521	47.44
383.731	47.44
383.941	82.26
384.151	76.12
384.361	41.3
384.571	41.3
384.781	63.83
384.991	96.6
385.201	80.21
385.411	61.78
385.621	-16.04
385.831	43.35
386.041	39.25
386.251	67.92
386.461	2.39
386.671	102.74
386.881	59.73
387.091	29.01
387.301	112.98
387.511	96.6
387.72	104.79
387.93	76.12
388.14	-13.99
388.35	55.64
388.56	80.21
388.769	88.4
388.979	82.26
389.189	88.4
389.399	100.69
389.609	-11.95
389.818	131.41
390.028	112.98
390.238	39.25
390.447	47.44
390.657	115.03
390.867	112.98
391.076	39.25
391.286	20.82
391.496	-24.23
391.705	29.01
391.915	82.26
392.125	53.59
392.334	-5.8
392.544	76.12
392.753	43.35
392.963	76.12
393.172	96.6
393.382	35.16
393.591	67.92
393.801	6.49
394.01	125.27
394.22	129.36
394.429	43.35
394.639	67.92
394.848	80.21
395.058	117.08
395.267	102.74
395.477	100.69
395.686	153.94
395.895	158.03
396.105	143.7
396.314	112.98
396.524	22.87
396.733	98.64
396.942	82.26
397.152	129.36
397.361	82.26
397.57	84.31
397.78	-9.9
397.989	35.16
398.198	190.8
398.407	22.87
398.617	133.46
398.826	92.5
399.035	123.22
399.244	31.06
399.453	88.4
399.663	57.68
399.872	24.92
400.081	98.64
400.29	137.56
400.499	41.3
400.708	96.6
400.917	168.27
401.127	131.41
401.336	37.2
401.545	194.9
401.754	72.02
401.963	100.69
402.172	63.83
402.381	92.5
402.59	121.17
402.799	53.59
403.008	162.13
403.217	137.56
403.426	151.89
403.635	55.64
403.844	131.41
404.053	82.26
404.262	74.07
404.471	112.98
404.68	170.32
404.888	72.02
405.097	155.99
405.306	166.23
405.515	147.8
405.724	153.94
405.933	178.51
406.142	100.69
406.35	149.84
406.559	207.19
406.768	145.75
406.977	160.08
407.185	170.32
407.394	188.75
407.603	153.94
407.812	172.37
408.02	188.75
408.229	147.8
408.438	149.84
408.646	198.99
408.855	219.47
409.064	258.39
409.272	223.57
409.481	182.61
409.69	153.94
409.898	221.52
410.107	215.38
410.315	229.71
410.524	158.03
410.733	244.05
410.941	235.86
411.15	280.91
411.358	260.43
411.567	325.97
411.775	328.02
411.984	297.3
412.192	358.74
412.401	399.7
412.609	407.89
412.818	391.5
413.026	338.26
413.234	276.82
413.443	393.55
413.651	418.13
413.86	434.51
414.068	450.89
414.276	495.95
414.485	420.17
414.693	500.05
414.901	516.43
415.11	614.73
415.318	522.57
415.526	530.77
415.734	502.09
415.943	547.15
416.151	657.74
416.359	616.78
416.567	620.88
416.776	530.77
416.984	737.61
417.192	735.56
417.4	645.45
417.608	743.75
417.817	706.89
418.025	735.56
418.233	876.87
418.441	891.21
418.649	850.25
418.857	850.25
419.065	876.87
419.273	868.68
419.481	966.98
419.689	1042.76
419.897	975.17
420.105	1057.09
420.313	1053
420.521	1100.1
420.729	1120.58
420.937	1110.34
421.145	1153.35
421.353	1288.51
421.561	1360.19
421.769	1335.62
421.977	1382.72
422.185	1349.95
422.393	1579.33
422.601	1630.52
422.809	1587.52
423.017	1530.17
423.224	1685.82
423.432	1622.33
423.64	1657.15
423.848	1855.8
424.056	1853.75
424.263	1853.75
424.471	1849.66
424.679	1970.49
424.887	2130.23
425.094	2152.76
425.302	2154.8
425.51	2210.1
425.718	2312.5
425.925	2341.17
426.133	2402.61
426.341	2548.01
426.548	2652.46
426.756	2736.43
426.964	2537.77
427.171	2896.17
427.379	2963.75
427.586	2988.33
427.794	2988.33
428.001	3186.98
428.209	3258.66
428.417	3189.03
428.624	3447.07
428.832	3526.94
429.039	3471.65
429.247	3414.31
429.454	3883.29
429.662	4143.38
429.869	3772.7
430.076	3922.2
430.284	3860.76
430.491	4135.19
430.699	4380.95
430.906	4335.89
431.114	4397.33
431.321	4649.23
431.528	4675.85
431.736	4823.31
431.943	5193.99
432.15	4972.81
432.358	5060.87
432.565	5273.86
432.772	5249.29
432.979	5660.93
433.187	5650.69
433.394	5726.46
433.601	5988.6
433.808	6150.39
434.016	6074.62
434.223	6168.82
434.43	6789.36
434.637	6617.33
434.844	6826.22
435.052	7016.68
435.259	6881.52
435.466	7053.55
435.673	6922.48
435.88	7440.61
436.087	7753.95
436.294	7848.16
436.501	7735.52
436.708	7991.52
436.915	8173.78
437.122	8585.43
437.329	8460.5
437.537	8736.98
437.743	8802.51
437.95	8919.25
438.157	9134.28
438.364	9552.07
438.571	9560.26
438.778	9636.03
438.985	10453.17
439.192	10049.72
439.399	10352.82
439.606	10045.63
439.813	10778.8
440.02	11567.27
440.227	11034.8
440.433	10950.83
440.64	11511.97
440.847	11319.46
441.054	11491.49
441.261	12284.06
441.467	12286.11
441.674	12361.88
441.881	12959.89
442.088	13000.85
442.294	12617.88
442.501	12974.22
442.708	13332.62
442.914	13809.79
443.121	14350.46
443.328	14055.55
443.534	14942.32
443.741	14606.45
443.948	14229.63
444.154	15550.57
444.361	15390.83
444.568	15261.8
444.774	15446.12
444.981	15556.71
445.187	15777.89
445.394	16683.09
445.6	16539.74
445.807	18341.95
446.013	17385.55
446.22	17580.11
446.426	18073.67
446.633	18284.61
446.839	19017.78
447.046	18231.36
447.252	19372.08
447.459	19324.97
447.665	19091.51
447.871	19927.08
448.078	20754.46
448.284	20039.72
448.491	20678.68
448.697	21278.74
448.903	21680.14
449.11	22022.15
449.316	21336.08
449.522	21878.79
449.728	22495.23
449.935	22673.4
450.141	22476.8
450.347	23126
450.553	22495.23
450.76	22759.42
450.966	23193.59
451.172	23269.36
451.378	23672.81
451.584	23361.52
451.791	24076.26
451.997	23764.97
452.203	24262.63
452.409	24381.41
452.615	24018.92
452.821	23039.99
453.027	22937.59
453.233	24117.22
453.44	23488.49
453.646	23580.65
453.852	23758.83
454.058	24184.8
454.264	23336.95
454.47	23887.85
454.676	23058.42
454.882	24158.18
455.088	22183.94
455.294	22237.19
455.5	22886.39
455.705	23074.81
455.911	22263.81
456.117	21673.99
456.323	21487.63
456.529	20590.62
456.735	21239.83
456.941	20647.96
457.147	20256.8
457.352	19908.65
457.558	19611.69
457.764	19546.16
457.97	19288.11
458.176	19021.88
458.381	18700.34
458.587	18055.23
458.793	18022.47
458.999	16836.69
459.204	18491.45
459.41	17754.18
459.616	16816.21
459.821	16605.27
460.027	16367.71
460.233	16275.55
460.438	15390.83
460.644	15573.1
460.85	14966.9
461.055	14901.36
461.261	14588.02
461.466	13527.17
461.672	13109.39
461.878	14073.98
462.083	13103.25
462.289	12957.84
462.494	12982.42
462.7	12234.91
462.905	11786.4
463.111	12415.13
463.316	12400.79
463.522	12056.73
463.727	12255.39
463.932	12075.17
464.138	12091.55
464.343	11956.38
464.549	11565.22
464.754	11886.75
464.959	11968.67
465.165	11720.87
465.37	11212.97
465.575	11163.82
465.781	11464.87
465.986	11331.75
466.191	10901.68
466.397	10930.35
466.602	10432.69
466.807	10784.94
467.012	10842.29
467.218	10649.78
467.423	10393.78
467.628	10641.59
467.833	10852.53
468.038	10705.07
468.244	10426.55
468.449	10848.43
468.654	10510.52
468.859	10342.58
469.064	10326.2
469.269	9945.28
469.474	9887.93
469.679	10025.15
469.885	9836.74
470.09	9836.74
470.295	10246.33
470.5	9631.94
470.705	9797.82
470.91	9519.3
471.115	9519.3
471.32	9681.09
471.525	9615.55
471.73	9353.41
471.935	9185.48
472.139	8962.25
472.344	9064.65
472.549	9009.36
472.754	8986.83
472.959	8974.54
473.164	8519.89
473.369	8460.5
473.574	8788.18
473.778	8593.62
473.983	8812.75
474.188	8786.13
474.393	8296.66
474.598	8143.07
474.802	8212.7
475.007	8052.95
475.212	8077.53
475.417	7764.19
475.621	7995.61
475.826	7778.53
476.031	7657.7
476.235	7561.44
476.44	7715.04
476.645	7586.02
476.849	7495.91
477.054	7489.76
477.259	7297.25
477.463	7430.37
477.668	7233.77
477.872	7354.6
478.077	7141.61
478.282	6846.7
478.486	7020.78
478.691	7028.97
478.895	7026.92
479.1	6732.01
479.304	6715.63
479.509	6715.63
479.713	6815.98
479.918	6670.58
480.122	6476.02
480.326	6519.03
480.531	6592.75
480.735	6484.21
480.94	6383.86
481.144	6772.97
481.348	6486.26
481.553	6459.63
481.757	6383.86
481.961	6408.44
482.166	6555.89
482.37	6252.79
482.574	6260.98
482.778	6228.21
482.983	6349.04
483.187	6320.37
483.391	6394.1
483.595	6398.2
483.8	6183.16
484.004	6369.52
484.208	6367.48
484.412	6347
484.616	6152.44
484.821	6256.89
485.025	6224.12
485.229	6293.75
485.433	6404.34
485.637	6174.97
485.841	6275.32
486.045	6226.17
486.249	6248.69
486.453	6117.62
486.657	6195.45
486.861	6369.52
487.065	6217.97
487.269	6174.97
487.473	6234.36
487.677	6363.38
487.881	6447.35
488.085	6181.11
488.289	6181.11
488.493	6248.69
488.697	6488.31
488.901	6254.84
489.105	6224.12
489.309	6394.1
489.512	6371.57
489.716	6498.55
489.92	6396.15
490.124	6404.34
490.328	6523.12
490.531	6465.78
490.735	6543.6
490.939	6578.42
491.143	6314.23
491.346	6531.31
491.55	6742.25
491.754	6537.46
491.958	6455.54
492.161	6361.33
492.365	6568.18
492.569	6607.09
492.772	6607.09
492.976	6732.01
493.18	6783.21
493.383	6639.86
493.587	6777.07
493.79	7043.31
493.994	6672.62
494.197	6928.62
494.401	6889.71
494.605	7063.79
494.808	6992.11
495.012	7256.29
495.215	7162.09
495.419	7256.29
495.622	7092.46
495.825	7182.57
496.029	7235.81
496.232	7448.8
496.436	7356.65
496.639	7387.36
496.843	7545.06
497.046	7825.63
497.249	7805.15
497.453	7948.51
497.656	7706.85
497.859	7938.27
498.063	7913.69
498.266	8210.65
498.469	8126.68
498.673	8306.9
498.876	8552.66
499.079	8108.25
499.282	8403.16
499.485	8644.82
499.689	8599.76
499.892	8816.85
500.095	8739.02
500.298	8784.08
500.501	8837.33
500.705	9187.53
500.908	9111.75
501.111	9308.36
501.314	9574.6
501.517	9404.61
501.72	9748.67
501.923	9507.01
502.126	10025.15
502.329	9846.98
502.532	10090.68
502.735	10201.27
502.938	10297.53
503.141	10285.24
503.344	10506.42
503.547	10580.15
503.75	10649.78
503.953	10809.52
504.156	10991.79
504.359	10916.01
504.562	11137.2
504.765	11395.24
504.968	11354.28
505.17	11550.89
505.373	11647.14
505.576	11831.46
505.779	11798.69
505.982	11950.24
506.185	12359.83
506.387	12167.32
506.59	12243.1
506.793	12552.34
506.996	12404.89
507.198	13037.71
507.401	12789.91
507.604	13068.43
507.807	13101.2
508.009	13248.65
508.212	13480.07
508.415	13539.46
508.617	13867.14
508.82	13734.02
509.022	13904
509.225	14123.13
509.428	14233.72
509.63	14399.61
509.833	14590.07
510.035	14743.67
510.238	14579.83
510.44	14962.8
510.643	15183.98
510.845	15478.89
511.048	15247.47
511.25	15495.27
511.453	15618.15
511.655	16427.1
511.858	15988.83
512.06	16423
512.262	16476.25
512.465	16447.58
512.667	16773.21
512.87	16685.14
513.072	17035.35
513.274	17360.97
513.477	17606.73
513.679	17594.44
513.881	17791.05
514.084	18075.71
514.286	17858.63
514.488	18040.9
514.69	18360.38
514.893	18833.46
515.095	18786.36
515.297	18649.14
515.499	19071.03
515.701	19294.25
515.904	19660.84
516.106	19443.76
516.308	19630.12
516.51	20152.35
516.712	20113.44
516.914	20363.29
517.116	20858.9
517.318	20807.7
517.52	20944.92
517.722	21053.46
517.925	21297.17
518.127	21719.05
518.329	21723.15
518.531	21800.97
518.733	22114.31
518.935	22018.05
519.136	22284.29
519.338	22818.81
519.54	22833.14
519.742	22661.12
519.944	23414.77
520.146	23961.58
520.348	23721.96
520.55	23678.96
520.752	23769.07
520.954	24229.86
521.155	24127.46
521.357	24649.69
521.559	24995.8
521.761	24985.56
521.963	25184.21
522.164	25270.23
522.366	25253.84
522.568	25647.05
522.77	25585.61
522.971	26351.56
523.173	25862.09
523.375	26408.9
523.576	26288.07
523.778	26826.68
523.98	27164.6
524.181	27111.35
524.383	26943.42
524.584	27291.57
524.786	27535.28
524.988	27305.91
525.189	27553.71
525.391	27948.97
525.592	28288.93
525.794	28397.48
525.995	28032.94
526.197	28315.56
526.398	28338.08
526.6	28872.6
526.801	28780.45
527.003	28895.13
527.204	28514.21
527.406	29183.9
527.607	29544.34
527.808	29525.91
528.01	29050.78
528.211	29663.12
528.412	30250.89
528.614	29652.88
528.815	29755.28
529.016	29968.27
529.218	29472.66
529.419	29915.02
529.62	30033.8
529.822	30097.29
530.023	30072.71
530.224	30005.13
530.425	30328.71
530.626	30410.63
530.828	30181.26
531.029	30730.11
531.23	30125.96
531.431	30664.58
531.632	30418.82
531.833	31008.64
532.035	30715.78
532.236	30785.41
532.437	30961.53
532.638	30521.22
532.839	30740.35
533.04	31190.91
533.241	30746.5
533.442	31551.35
533.643	30883.71
533.844	31002.49
534.045	31106.94
534.246	31168.38
534.447	31516.53
534.648	30736.26
534.849	31233.91
535.05	30979.96
535.251	31276.92
535.451	31133.56
535.652	31197.05
535.853	31268.73
536.054	31174.52
536.255	31430.52
536.456	31217.53
536.657	31743.86
536.857	31199.1
537.058	31127.42
537.259	31203.19
537.46	31381.37
537.66	30959.48
537.861	31403.89
538.062	31162.23
538.263	31346.55
538.463	31096.7
538.664	31115.13
538.865	31373.17
539.065	31774.58
539.266	31129.47
539.466	31491.96
539.667	31041.4
539.868	31451
540.068	31018.88
540.269	31352.69
540.469	31489.91
540.67	31164.28
540.87	31342.46
541.071	31266.68
541.271	31451
541.472	31274.87
541.672	31207.29
541.873	31092.6
542.073	30857.09
542.274	31160.19
542.474	31238.01
542.675	30820.22
542.875	31233.91
543.075	31029.12
543.276	30422.92
543.476	31371.13
543.676	30852.99
543.877	31254.39
544.077	30918.53
544.277	30941.05
544.478	30973.82
544.678	31061.88
544.878	31025.02
545.078	31002.49
545.279	31192.95
545.479	30990.2
545.679	30871.42
545.879	30879.61
546.079	31143.8
546.28	31037.31
546.48	30984.06
546.68	30930.81
546.88	30934.91
547.08	31197.05
547.28	31031.16
547.48	30713.73
547.68	30592.9
547.88	31000.44
548.081	31078.27
548.281	31139.71
548.481	30814.08
548.681	31199.1
548.881	30826.37
549.081	30959.48
549.28	30666.63
549.48	30971.77
549.68	30650.24
549.88	31295.35
550.08	31068.03
550.28	30936.96
550.48	30709.63
550.68	31094.65
550.88	30699.39
551.08	31033.21
551.279	30709.63
551.479	30588.8
551.679	31059.84
551.879	30760.83
552.079	31156.09
552.278	30695.3
552.478	30709.63
552.678	30879.61
552.878	30644.1
553.077	30707.58
553.277	30611.33
553.477	31025.02
553.676	30384.01
553.876	30529.41
554.076	30760.83
554.275	30599.04
554.475	29929.36
554.674	30893.95
554.874	30543.75
555.074	30414.73
555.273	30431.11
555.473	30717.82
555.672	30322.57
555.872	30408.58
556.071	30572.42
556.271	30377.86
556.47	30197.64
556.67	30203.78
556.869	30158.73
557.068	30261.13
557.268	29972.36
557.467	30173.06
557.667	30039.95
557.866	30125.96
558.065	29775.76
558.265	29593.49
558.464	30041.99
558.663	30230.41
558.863	29577.11
559.062	30080.91
559.261	29878.16
559.461	30111.63
559.66	29509.52
559.859	29372.31
560.058	29417.36
560.258	29460.37
560.457	29341.59
560.656	29519.76
560.855	29187.99
561.054	29470.61
561.253	29044.63
561.453	29073.31
561.652	29278.1
561.851	29138.84
562.05	29159.32
562.249	29165.46
562.448	29110.17
562.647	29013.91
562.846	28880.8
563.045	28815.26
563.244	28757.92
563.443	28723.1
563.642	28489.63
563.841	28737.44
564.04	28549.03
564.239	28716.96
564.438	28256.17
564.637	28118.95
564.836	28520.35
565.035	28241.83
565.234	28192.68
565.432	28413.86
565.631	28030.89
565.83	28018.6
566.029	27703.21
566.228	27948.97
566.427	27791.28
566.625	27776.94
566.824	27430.83
567.023	27692.97
567.222	27539.38
567.42	27412.4
567.619	27381.68
567.818	27443.12
568.016	27246.52
568.215	27574.19
568.414	26957.75
568.612	27471.79
568.811	26908.6
569.01	26970.04
569.208	26736.57
569.407	27146.17
569.605	26456
569.804	26967.99
570.002	26226.63
570.201	26609.6
570.4	26083.27
570.598	26392.51
570.797	26187.72
570.995	26501.06
571.193	25696.21
571.392	26036.17
571.59	25698.25
571.789	25944.01
571.987	25712.59
572.186	25587.66
572.384	25720.78
572.582	25685.97
572.781	25655.25
572.979	25255.89
573.177	25606.09
573.376	25690.06
573.574	25055.19
573.772	25354.19
573.971	24944.6
574.169	24971.22
574.367	25061.33
574.565	25028.57
574.763	24760.28
574.962	24907.74
575.16	24393.7
575.358	24721.37
575.556	24563.68
575.754	24829.91
575.952	24203.24
576.151	24768.48
576.349	24051.69
576.547	24303.59
576.745	24178.66
576.943	24141.8
577.141	24049.64
577.339	24209.38
577.537	24043.49
577.735	23869.42
577.933	23699.44
578.131	23652.33
578.329	24051.69
578.527	23584.75
578.725	23834.6
578.923	23732.2
579.121	23416.82
579.319	23410.67
579.516	23474.16
579.714	23324.66
579.912	22976.5
580.11	23191.54
580.308	22996.98
580.506	22902.78
580.704	22790.14
580.901	22921.21
581.099	23113.72
581.297	22489.09
581.495	22538.24
581.692	22566.91
581.89	22294.53
582.088	22513.66
582.285	22202.37
582.483	22601.72
582.681	22288.39
582.878	22261.76
583.076	22192.13
583.274	22419.46
583.471	21915.65
583.669	21843.98
583.866	21768.2
584.064	22013.96
584.262	21714.95
584.459	21843.98
584.657	21430.29
584.854	21637.13
585.052	21229.59
585.249	21463.05
585.447	21512.21
585.644	21284.88
585.841	21372.94
586.039	21534.73
586.236	21059.6
586.434	21274.64
586.631	21043.22
586.828	20879.38
587.026	21143.57
587.223	20955.16
587.42	20965.4
587.618	20832.28
587.815	20551.71
588.012	20539.42
588.21	20453.41
588.407	20576.28
588.604	20457.5
588.801	20269.09
588.999	20199.46
589.196	20213.79
589.393	20250.66
589.59	20125.73
589.787	19980.32
589.984	20062.24
590.182	19834.92
590.379	19939.37
590.576	19709.99
590.773	19816.49
590.97	19529.77
591.167	19722.28
591.364	19339.31
591.561	19660.84
591.758	19271.73
591.955	19216.43
592.152	19484.72
592.349	19300.4
592.546	19161.14
592.743	19247.15
592.94	18888.76
593.137	19220.53
593.334	19130.42
593.531	19040.31
593.727	19013.68
593.924	18917.43
594.121	18870.33
594.318	18933.81
594.515	18888.76
594.712	18888.76
594.908	18389.05
595.105	18630.71
595.302	18282.56
595.499	18350.14
595.696	18169.92
595.892	18171.97
596.089	18382.91
596.286	18376.76
596.482	17989.7
596.679	18198.59
596.876	18243.65
597.072	18114.62
597.269	17918.02
597.466	18030.66
597.662	17872.96
597.859	17713.22
598.055	17961.03
598.252	17672.26
598.448	17782.85
598.645	17619.02
598.841	17719.37
599.038	17764.42
599.234	17524.81
599.431	17174.61
599.627	17406.03
599.824	17389.64
600.02	17033.3
600.217	17467.47
600.413	17080.4
600.609	16928.85
600.806	16891.99
601.002	16908.37
601.198	16930.9
601.395	16783.45
601.591	16615.51
601.787	16869.46
601.984	16515.16
602.18	16722.01
602.376	16664.66
602.572	16416.86
602.769	16652.38
602.965	16275.55
603.161	16590.94
603.357	16177.25
603.553	16367.71
603.75	16253.02
603.946	16169.05
604.142	16349.28
604.338	15990.88
604.534	16169.05
604.73	15923.3
604.926	15808.61
605.122	16046.18
605.318	15695.97
605.514	15734.89
605.71	15569
605.906	15583.34
606.102	15415.4
606.298	15655.01
606.494	15515.75
606.69	15442.03
606.886	15554.66
607.082	15130.73
607.278	15464.55
607.474	15108.21
607.67	15370.35
607.866	15267.95
608.062	15261.8
608.257	15196.27
608.453	15134.83
608.649	14991.47
608.845	15171.69
609.041	14915.7
609.236	15016.05
609.432	15149.17
609.628	14989.42
609.824	14831.73
610.019	14882.93
610.215	14813.3
610.411	14987.38
610.606	14872.69
610.802	14753.91
610.998	14616.69
611.193	14559.35
611.389	14461.05
611.584	14450.81
611.78	14612.6
611.976	14469.24
612.171	14567.54
612.367	14604.41
612.562	14178.43
612.758	14127.23
612.953	14358.65
613.149	14364.79
613.344	14440.57
613.539	14420.09
613.735	14153.85
613.93	14233.72
614.126	14246.01
614.321	14182.52
614.517	14053.5
614.712	14033.02
614.907	14254.2
615.103	14014.59
615.298	13916.29
615.493	14309.5
615.688	13777.03
615.884	14119.04
616.079	13688.96
616.274	14071.93
616.47	13910.15
616.665	13801.6
616.86	13934.72
617.055	13842.56
617.25	13568.13
617.445	13572.23
617.641	13279.37
617.836	13676.68
618.031	13269.13
618.226	13531.27
618.421	13242.51
618.616	13473.93
618.811	13154.44
619.006	13426.82
619.201	13074.57
619.396	13238.41
619.591	12937.36
619.786	13191.31
619.981	13189.26
620.176	13146.25
620.371	12820.63
620.566	12775.57
620.761	13138.06
620.956	13127.82
621.151	12746.9
621.346	12773.52
621.541	12511.38
621.735	12535.96
621.93	12316.83
622.125	12435.61
622.32	12146.84
622.515	12351.64
622.709	12435.61
622.904	12208.28
623.099	12146.84
623.294	12132.51
623.488	11995.29
623.683	11964.57
623.878	11954.33
624.072	11995.29
624.267	11847.84
624.462	11628.71
624.656	11387.05
624.851	11401.38
625.046	11544.74
625.24	11290.79
625.435	11163.82
625.629	11364.52
625.824	11118.76
626.018	11147.44
626.213	11249.83
626.407	11077.8
626.602	10838.19
626.796	10887.34
626.991	11008.17
627.185	10715.31
627.38	10969.26
627.574	10608.82
627.768	10471.61
627.963	10610.87
628.157	10444.98
628.352	10492.09
628.546	10246.33
628.74	10596.53
628.935	10322.1
629.129	10461.37
629.323	10186.94
629.517	10217.66
629.712	10143.93
629.906	10127.55
630.1	9779.39
630.294	10008.76
630.489	9889.98
630.683	9763.01
630.877	9877.69
631.071	9699.52
631.265	9765.06
631.459	9724.1
631.653	9451.72
631.848	9390.28
632.042	9453.77
632.236	9523.4
632.43	9279.69
632.624	9382.09
632.818	9128.14
633.012	9220.3
633.206	9070.79
633.4	9271.5
633.594	8943.82
633.788	9074.89
633.982	8952.01
634.176	8929.49
634.369	8939.72
634.563	8724.69
634.757	8835.28
634.951	9011.4
635.145	8571.09
635.339	8798.42
635.533	8478.93
635.726	8765.65
635.92	8407.25
636.114	8593.62
636.308	8335.57
636.501	8394.97
636.695	8511.7
636.889	8364.25
637.083	8311
637.276	8362.2
637.47	8083.67
637.664	8186.07
637.857	8108.25
638.051	7934.17
638.244	7981.28
638.438	7772.38
638.632	8036.57
638.825	8020.19
639.019	7790.81
639.212	7586.02
639.406	7727.33
639.599	7639.26
639.793	7667.94
639.986	7457
640.18	7364.84
640.373	7633.12
640.567	7373.03
640.76	7522.53
640.954	7373.03
641.147	7422.18
641.34	7512.29
641.534	7481.57
641.727	7317.73
641.92	7254.25
642.114	7299.3
642.307	7153.9
642.5	7100.65
642.694	7028.97
642.887	7100.65
643.08	6994.15
643.273	7051.5
643.467	6858.99
643.66	6793.45
643.853	6805.74
644.046	6633.71
644.239	6783.21
644.432	6752.49
644.626	6613.23
644.819	6740.21
645.012	6654.19
645.205	6648.05
645.398	6496.5
645.591	6480.11
645.784	6478.07
645.977	6381.81
646.17	6375.67
646.363	6392.05
646.556	6340.85
646.749	6340.85
646.942	6363.38
647.135	6179.06
647.328	6277.37
647.521	6091
647.714	5990.65
647.907	6197.49
648.099	6015.23
648.292	6043.9
648.485	5941.5
648.678	5863.68
648.871	5927.16
649.064	5906.68
649.256	5937.4
649.449	5824.76
649.642	5806.33
649.835	5744.89
650.027	5636.35
650.22	5753.09
650.413	5495.04
650.605	5630.21
650.798	5644.54
650.991	5626.11
651.183	5581.06
651.376	5513.47
651.568	5396.74
651.761	5462.27
651.954	5488.9
652.146	5372.16
652.339	5427.46
652.531	5495.04
652.724	5286.15
652.916	5245.19
653.109	5341.44
653.301	5335.3
653.494	5191.94
653.686	5177.61
653.879	5138.69
654.071	5159.17
654.263	5089.54
654.456	5218.57
654.648	4987.15
654.84	5179.65
655.033	4983.05
655.225	4958.47
655.417	4964.62
655.61	4944.14
655.802	4903.18
655.994	4847.88
656.186	4956.43
656.379	4673.81
656.571	4634.89
656.763	4778.25
656.955	4835.6
657.148	4905.23
657.34	4610.32
657.532	4741.39
657.724	4636.94
657.916	4729.1
658.108	4524.3
658.3	4561.17
658.492	4696.33
658.684	4446.48
658.876	4565.26
659.068	4448.53
659.26	4440.34
659.452	4569.36
659.644	4356.37
659.836	4339.99
660.028	4421.91
660.22	4188.44
660.412	4360.47
660.604	4364.56
660.796	4229.4
660.988	4380.95
661.18	4161.81
661.372	4331.8
661.563	4038.94
661.755	4069.66
661.947	4127
662.139	4192.53
662.331	4024.6
662.522	4045.08
662.714	4184.34
662.906	4112.66
663.097	3950.87
663.289	3850.52
663.481	3924.25
663.673	3995.93
663.864	4020.5
664.056	3905.82
664.247	3903.77
664.439	3850.52
664.631	3881.24
664.822	3883.29
665.014	3838.23
665.205	3832.09
665.397	3760.41
665.588	3744.03
665.78	3733.79
665.971	3768.6
666.163	3748.12
666.354	3799.32
666.546	3670.3
666.737	3606.81
666.929	3686.69
667.12	3565.85
667.311	3647.77
667.503	3440.93
667.694	3461.41
667.885	3572
668.077	3651.87
668.268	3586.33
668.459	3555.62
668.651	3537.18
668.842	3428.64
669.033	3447.07
669.224	3483.94
669.416	3426.59
669.607	3422.5
669.798	3488.03
669.989	3316
670.18	3473.7
670.371	3395.87
670.563	3303.71
670.754	3352.87
670.945	3422.5
671.136	3219.75
671.327	3324.19
671.518	3332.39
671.709	3246.37
671.9	3385.63
672.091	3322.15
672.282	3172.64
672.473	3119.4
672.664	3203.36
672.855	3109.16
673.046	3299.62
673.237	3180.84
673.428	3244.32
673.619	3225.89
673.809	3221.8
674	3180.84
674.191	3164.45
674.382	2988.33
674.573	3129.64
674.764	3080.49
674.954	3111.21
675.145	3125.54
675.336	3039.53
675.527	3043.62
675.717	3027.24
675.908	3017
676.099	3062.05
676.289	3072.29
676.48	2982.18
676.671	2973.99
676.861	2955.56
677.052	2986.28
677.243	2955.56
677.433	2963.75
677.624	2898.22
677.814	3008.81
678.005	2910.5
678.195	2851.11
678.386	2822.44
678.576	2742.57
678.767	2953.51
678.957	2947.37
679.148	2957.61
679.338	2916.65
679.529	2912.55
679.719	3037.48
679.909	2898.22
680.1	2904.36
680.29	2836.78
680.481	2758.96
680.671	2779.43
680.861	2894.12
681.052	2799.91
681.242	2812.2
681.432	2900.27
681.622	2810.15
681.813	2832.68
682.003	2795.82
682.193	2763.05
682.383	2943.27
682.573	2775.34
682.764	2830.63
682.954	2818.35
683.144	2791.72
683.334	2816.3
683.524	2648.36
683.714	2887.98
683.904	2828.59
684.094	2781.48
684.284	2660.65
684.474	2660.65
684.664	2767.15
684.854	2629.93
685.044	2783.53
685.234	2718
685.424	2820.39
685.614	2570.54
685.804	2742.57
685.994	2697.52
686.184	2818.35
686.374	2621.74
686.564	2627.89
686.753	2588.97
686.943	2644.27
687.133	2509.1
687.323	2646.32
687.513	2591.02
687.702	2711.85
687.892	2607.41
688.082	2556.21
688.272	2644.27
688.461	2464.05
688.651	2566.45
688.841	2513.2
689.03	2507.06
689.22	2451.76
689.41	2550.06
689.599	2543.92
689.789	2423.09
689.979	2480.43
690.168	2517.29
690.358	2445.62
690.547	2378.03
690.737	2398.51
690.926	2548.01
691.116	2466.1
691.305	2515.25
691.495	2545.97
691.684	2357.55
691.874	2505.01
692.063	2441.52
692.252	2343.22
692.442	2355.51
692.631	2363.7
692.82	2375.99
693.01	2423.09
693.199	2244.92
693.388	2345.27
693.578	2328.88
693.767	2324.79
693.956	2318.64
694.146	2226.48
694.335	2283.83
694.524	2339.12
694.713	2326.83
694.902	2345.27
695.092	2287.92
695.281	2115.89
695.47	2171.19
695.659	2292.02
695.848	2222.39
696.037	2238.77
696.226	2324.79
696.415	2242.87
696.604	2283.83
696.793	2154.8
696.982	2267.44
697.171	2304.31
697.36	2185.52
697.549	2144.56
697.738	2148.66
697.927	2132.28
698.116	2191.67
698.305	2103.61
698.494	2324.79
698.683	2152.76
698.872	2210.1
699.061	2210.1
699.25	2152.76
699.438	2193.72
699.627	2191.67
699.816	2195.76
700.005	2132.28
700.193	2181.43
700.382	2156.85
700.571	2132.28
700.76	2191.67
700.948	2212.15
701.137	2226.48
701.326	2169.14
701.514	2195.76
701.703	2052.41
701.892	2167.09
702.08	2230.58
702.269	2115.89
702.457	2107.7
702.646	2165.04
702.834	2089.27
703.023	2124.08
703.212	2154.8
703.4	2187.57
703.589	2138.42
703.777	2201.91
703.965	1970.49
704.154	2228.53
704.342	2201.91
704.531	2095.41
704.719	2140.47
704.907	2187.57
705.096	2197.81
705.284	2177.33
705.472	2136.37
705.661	2124.08
705.849	2214.2
706.037	2109.75
706.226	2136.37
706.414	2122.04
706.602	2130.23
706.79	2210.1
706.979	2193.72
707.167	1984.82
707.355	2021.69
707.543	2124.08
707.731	2160.95
707.919	2070.84
708.107	2103.61
708.296	2070.84
708.484	2105.65
708.672	2263.35
708.86	2197.81
709.048	2097.46
709.236	2175.28
709.424	2324.79
709.612	2156.85
709.8	2089.27
709.988	2132.28
710.176	2119.99
710.364	2144.56
710.551	2152.76
710.739	2238.77
710.927	2187.57
711.115	2062.65
711.303	2177.33
711.491	2169.14
711.679	2103.61
711.866	2269.49
712.054	2169.14
712.242	2126.13
712.43	2111.8
712.617	2138.42
712.805	2132.28
712.993	2025.78
713.181	2058.55
713.368	2130.23
713.556	2146.61
713.744	2099.51
713.931	2103.61
714.119	2160.95
714.306	2070.84
714.494	2105.65
714.682	2105.65
714.869	2136.37
715.057	2074.93
715.244	2087.22
715.432	2130.23
715.619	1972.54
715.807	2097.46
715.994	2136.37
716.182	2111.8
716.369	2187.57
716.556	2242.87
716.744	2085.17
716.931	2031.93
717.119	2103.61
717.306	2269.49
717.493	2146.61
717.681	2074.93
717.868	2146.61
718.055	2201.91
718.242	2124.08
718.43	2212.15
718.617	2226.48
718.804	2130.23
718.991	2099.51
719.179	2224.44
719.366	2048.31
719.553	2089.27
719.74	2152.76
719.927	2210.1
720.114	2097.46
720.301	2091.32
720.488	2054.45
720.676	2015.54
720.863	2201.91
721.05	2152.76
721.237	2070.84
721.424	2160.95
721.611	2203.96
721.798	2169.14
721.985	2054.45
722.172	2115.89
722.358	2079.03
722.545	2163
722.732	2119.99
722.919	2160.95
723.106	2160.95
723.293	2111.8
723.48	2185.52
723.667	2076.98
723.853	2128.18
724.04	2189.62
724.227	2148.66
724.414	2179.38
724.6	2163
724.787	2189.62
724.974	2103.61
725.161	2140.47
725.347	2234.68
725.534	2038.07
725.72	2091.32
725.907	2152.76
726.094	2132.28
726.28	2083.13
726.467	2107.7
726.653	2044.21
726.84	2122.04
727.027	2146.61
727.213	2023.73
727.4	2253.11
727.586	2150.71
727.773	2165.04
727.959	2138.42
728.145	2105.65
728.332	2197.81
728.518	2087.22
728.705	2146.61
728.891	2091.32
729.077	2017.59
729.264	2144.56
729.45	2017.59
729.636	2183.48
729.823	2079.03
730.009	2193.72
730.195	2113.85
730.382	2150.71
730.568	2173.24
730.754	2033.97
730.94	2119.99
731.126	2169.14
731.313	2218.29
731.499	2218.29
731.685	2130.23
731.871	2040.12
732.057	2076.98
732.243	2171.19
732.429	2140.47
732.615	2136.37
732.801	2074.93
732.987	2091.32
733.173	2070.84
733.359	2136.37
733.545	2148.66
733.731	2054.45
733.917	2074.93
734.103	2011.45
734.289	2124.08
734.475	2097.46
734.661	2222.39
734.847	2105.65
735.033	2146.61
735.219	2048.31
735.404	2130.23
735.59	2138.42
735.776	2015.54
735.962	2119.99
736.148	2144.56
736.333	2093.37
736.519	2015.54
736.705	2103.61
736.89	1993.01
737.076	2040.12
737.262	2062.65
737.447	2056.5
737.633	2013.49
737.819	1974.58
738.004	2007.35
738.19	1931.58
738.375	1947.96
738.561	1980.73
738.747	2007.35
738.932	2005.3
739.118	2163
739.303	2029.88
739.489	2042.17
739.674	1972.54
739.859	1907
740.045	1970.49
740.23	2007.35
740.416	2005.3
740.601	2019.64
740.786	2001.21
740.972	1878.33
741.157	1911.1
741.342	1866.04
741.528	1884.47
741.713	1861.94
741.898	1837.37
742.084	2013.49
742.269	1857.85
742.454	1909.05
742.639	1909.05
742.824	1964.34
743.01	1925.43
743.195	1945.91
743.38	1833.27
743.565	1931.58
743.75	1876.28
743.935	1816.89
744.12	1876.28
744.305	1835.32
744.49	1841.47
744.675	1833.27
744.86	1911.1
745.045	1726.78
745.23	1968.44
745.415	1810.75
745.6	1945.91
745.785	1763.64
745.97	1843.51
746.155	1870.14
746.34	1773.88
746.525	1677.63
746.71	1739.07
746.895	1694.01
747.079	1696.06
747.264	1685.82
747.449	1792.31
747.634	1685.82
747.819	1726.78
748.003	1702.2
748.188	1603.9
748.373	1653.05
748.557	1564.99
748.742	1601.85
748.927	1769.79
749.111	1583.42
749.296	1564.99
749.481	1620.28
749.665	1603.9
749.85	1546.56
750.034	1569.09
750.219	1624.38
750.404	1550.65
750.588	1505.6
750.773	1485.12
750.957	1507.65
751.141	1440.06
751.326	1501.5
751.51	1536.32
751.695	1524.03
751.879	1472.83
752.064	1466.69
752.248	1423.68
752.432	1409.34
752.617	1478.97
752.801	1280.32
752.985	1395.01
753.17	1413.44
753.354	1372.48
753.538	1431.87
753.722	1392.96
753.907	1329.47
754.091	1341.76
754.275	1308.99
754.459	1431.87
754.643	1251.65
754.828	1284.42
755.012	1204.55
755.196	1284.42
755.38	1218.88
755.564	1282.37
755.748	1237.31
755.932	1186.12
756.116	1403.2
756.3	1245.51
756.484	1278.27
756.668	1276.23
756.852	1210.69
757.036	1243.46
757.22	1235.27
757.404	1196.36
757.588	1157.44
757.772	1190.21
757.956	1321.28
758.14	1055.05
758.323	1147.2
758.507	1141.06
758.691	1179.97
758.875	1147.2
759.059	1188.16
759.242	1149.25
759.426	1085.76
759.61	1079.62
759.794	1028.42
759.977	1087.81
760.161	1106.24
760.345	1014.09
760.528	1108.29
760.712	1057.09
760.895	1055.05
761.079	983.37
761.263	1063.24
761.446	1009.99
761.63	997.7
761.813	958.79
761.997	1007.94
762.18	1005.89
762.364	1055.05
762.547	919.88
762.731	997.7
762.914	1059.14
763.098	1116.48
763.281	1075.52
763.464	1020.23
763.648	993.61
763.831	1007.94
764.015	958.79
764.198	958.79
764.381	911.69
764.564	973.13
764.748	958.79
764.931	942.41
765.114	940.36
765.297	934.22
765.481	854.34
765.664	919.88
765.847	901.45
766.03	909.64
766.213	868.68
766.397	944.45
766.58	909.64
766.763	952.65
766.946	954.69
767.129	934.22
767.312	840.01
767.495	973.13
767.678	891.21
767.861	833.86
768.044	870.73
768.227	870.73
768.41	883.02
768.593	874.82
768.776	831.82
768.959	964.93
769.142	883.02
769.324	854.34
769.507	792.91
769.69	817.48
769.873	762.19
770.056	907.59
770.239	805.19
770.421	844.1
770.604	778.57
770.787	923.98
770.97	794.95
771.152	786.76
771.335	866.63
771.518	788.81
771.7	733.51
771.883	837.96
772.066	801.1
772.248	809.29
772.431	786.76
772.613	794.95
772.796	760.14
772.978	780.62
773.161	719.18
773.343	809.29
773.526	770.38
773.708	698.7
773.891	678.22
774.073	747.85
774.256	702.79
774.438	751.95
774.621	698.7
774.803	782.67
774.985	629.07
775.168	741.71
775.35	743.75
775.532	739.66
775.715	764.23
775.897	680.27
776.079	739.66
776.261	647.5
776.444	706.89
776.626	588.11
776.808	713.03
776.99	686.41
777.173	670.03
777.355	637.26
777.537	655.69
777.719	633.16
777.901	645.45
778.083	629.07
778.265	526.67
778.447	629.07
778.629	555.34
778.811	522.57
778.993	518.48
779.175	567.63
779.357	549.2
779.539	616.78
779.721	573.77
779.903	635.21
780.085	571.72
780.267	563.53
780.449	514.38
780.631	553.29
780.812	622.92
780.994	555.34
781.176	508.24
781.358	588.11
781.54	495.95
781.721	469.33
781.903	543.05
782.085	442.7
782.267	563.53
782.448	498
782.63	475.47
782.812	485.71
782.993	446.8
783.175	579.92
783.357	397.65
783.538	516.43
783.72	444.75
783.901	463.18
784.083	498
784.264	516.43
784.446	452.94
784.627	522.57
784.809	500.05
784.99	448.85
785.172	485.71
785.353	498
785.535	457.04
785.716	493.9
785.897	418.13
786.079	426.32
786.26	434.51
786.441	430.41
786.623	420.17
786.804	393.55
786.985	461.13
787.167	469.33
787.348	424.27
787.529	358.74
787.71	432.46
787.891	377.17
788.073	387.41
788.254	446.8
788.435	454.99
788.616	485.71
788.797	356.69
788.978	377.17
789.159	440.65
789.34	299.34
789.522	399.7
789.703	348.5
789.884	373.07
790.065	409.94
790.246	428.37
790.427	436.56
790.607	395.6
790.788	325.97
790.969	350.54
791.15	285.01
791.331	424.27
791.512	350.54
791.693	344.4
791.874	375.12
792.054	348.5
792.235	399.7
792.416	334.16
792.597	246.1
792.778	340.3
792.958	373.07
793.139	262.48
793.32	305.49
793.5	262.48
793.681	348.5
793.862	293.2
794.042	317.78
794.223	239.95
794.404	223.57
794.584	170.32
794.765	285.01
794.945	268.63
795.126	264.53
795.306	297.3
795.487	325.97
795.667	315.73
795.848	287.06
796.028	285.01
796.209	352.59
796.389	346.45
796.57	280.91
796.75	252.24
796.93	301.39
797.111	242
797.291	280.91
797.471	221.52
797.652	262.48
797.832	219.47
798.012	293.2
798.192	303.44
798.373	272.72
798.553	252.24
798.733	244.05
798.913	293.2
799.093	270.67
799.274	354.64
799.454	256.34
799.634	250.19
799.814	272.72
799.994	293.2
800.174	301.39
800.354	280.91
800.534	229.71
800.714	260.43
800.894	252.24
801.074	186.71
801.254	270.67
801.434	285.01
801.614	225.62
801.794	194.9
801.974	915.78
802.154	184.66
802.334	250.19
802.514	176.47
802.693	233.81
802.873	186.71
803.053	285.01
803.233	248.15
803.413	252.24
803.592	229.71
803.772	252.24
803.952	211.28
804.131	194.9
804.311	176.47
804.491	213.33
804.67	137.56
804.85	233.81
805.03	213.33
805.209	235.86
805.389	229.71
805.568	219.47
805.748	219.47
805.928	162.13
806.107	207.19
806.287	80.21
806.466	252.24
806.646	129.36
806.825	264.53
807.004	196.95
807.184	110.93
807.363	219.47
807.543	237.91
807.722	158.03
807.901	235.86
808.081	233.81
808.26	125.27
808.439	96.6
808.619	209.23
808.798	178.51
808.977	211.28
809.156	235.86
809.336	190.8
809.515	137.56
809.694	196.95
809.873	260.43
810.052	170.32
810.231	237.91
810.411	131.41
810.59	160.08
810.769	207.19
810.948	203.09
811.127	129.36
811.306	180.56
811.485	180.56
811.664	274.77
811.843	227.67
812.022	186.71
812.201	166.23
812.38	180.56
812.559	112.98
812.737	178.51
812.916	143.7
813.095	106.84
813.274	153.94
813.453	194.9
813.632	225.62
813.811	162.13
813.989	88.4
814.168	180.56
814.347	151.89
814.526	172.37
814.704	194.9
814.883	211.28
815.062	198.99
815.24	153.94
815.419	112.98
815.598	207.19
815.776	88.4
815.955	135.51
816.133	125.27
816.312	149.84
816.49	104.79
816.669	147.8
816.847	102.74
817.026	162.13
817.204	112.98
817.383	141.65
817.561	151.89
817.74	166.23
817.918	121.17
818.097	162.13
818.275	55.64
818.453	137.56
818.632	227.67
818.81	100.69
818.988	194.9
819.167	137.56
819.345	166.23
819.523	166.23
819.701	145.75
819.879	172.37
820.058	141.65
820.236	112.98
820.414	104.79
820.592	90.45
820.77	100.69
820.948	164.18
821.127	149.84
821.305	96.6
821.483	94.55
821.661	100.69
821.839	129.36
822.017	84.31
822.195	84.31
822.373	153.94
822.551	141.65
822.729	190.8
822.907	31.06
823.085	143.7
823.262	153.94
823.44	115.03
823.618	170.32
823.796	174.42
823.974	76.12
824.152	160.08
824.329	145.75
824.507	88.4
824.685	112.98
824.863	108.88
825.04	92.5
825.218	178.51
825.396	76.12
825.574	88.4
825.751	63.83
825.929	96.6
826.107	86.36
826.284	182.61
826.462	141.65
826.639	137.56
826.817	33.11
826.994	88.4
827.172	84.31
827.349	139.6
827.527	125.27
827.704	90.45
827.882	153.94
828.059	147.8
828.237	69.97
828.414	119.12
828.591	55.64
828.769	209.23
828.946	0.34
829.124	121.17
829.301	74.07
829.478	123.22
829.655	115.03
829.833	121.17
830.01	108.88
830.187	88.4
830.364	137.56
830.542	72.02
830.719	170.32
830.896	92.5
831.073	65.88
831.25	26.96
831.427	96.6
831.604	39.25
831.782	39.25
831.959	108.88
832.136	149.84
832.313	115.03
832.49	86.36
832.667	121.17
832.844	125.27
833.021	198.99
833.198	63.83
833.374	22.87
833.551	94.55
833.728	72.02
833.905	96.6
834.082	39.25
834.259	6.49
834.436	129.36
834.612	57.68
834.789	141.65
834.966	6.49
835.143	96.6
835.319	39.25
835.496	65.88
835.673	162.13
835.85	135.51
836.026	20.82
836.203	141.65
836.38	151.89
836.556	67.92
836.733	98.64
836.909	65.88
837.086	33.11
837.262	94.55
837.439	67.92
837.616	80.21
837.792	139.6
837.968	88.4
838.145	-18.09
838.321	112.98
838.498	119.12
838.674	39.25
838.851	53.59
839.027	84.31
839.203	12.63
839.38	82.26
839.556	39.25
839.732	112.98
839.909	125.27
840.085	37.2
840.261	72.02
840.437	6.49
840.614	102.74
840.79	203.09
840.966	67.92
841.142	96.6
841.318	47.44
841.494	108.88
841.671	76.12
841.847	-34.47
842.023	22.87
842.199	108.88
842.375	117.08
842.551	69.97
842.727	59.73
842.903	125.27
843.079	20.82
843.255	145.75
843.431	33.11
843.607	121.17
843.783	35.16
843.959	94.55
844.134	102.74
844.31	55.64
844.486	55.64
844.662	55.64
844.838	14.68
845.013	117.08
845.189	12.63
845.365	4.44
845.541	82.26
845.716	55.64
845.892	47.44
846.068	55.64
846.244	47.44
846.419	90.45
846.595	33.11
846.77	47.44
846.946	59.73
847.122	59.73
847.297	39.25
847.473	55.64
847.648	16.73
847.824	123.22
847.999	37.2
848.175	22.87
848.35	69.97
848.526	4.44
848.701	39.25
848.876	43.35
849.052	80.21
849.227	33.11
849.403	47.44
849.578	35.16
849.753	55.64
849.929	88.4
850.104	43.35
850.279	33.11
850.454	63.83
850.63	55.64
850.805	0.34
850.98	12.63
851.155	59.73
851.33	145.75
851.505	-1.71
851.681	123.22
851.856	24.92
852.031	43.35
852.206	49.49
852.381	-24.23
852.556	-13.99
852.731	6.49
852.906	43.35
853.081	110.93
853.256	92.5
853.431	39.25
853.606	51.54
853.781	63.83
853.956	-34.47
854.131	82.26
854.305	88.4
854.48	8.53
854.655	26.96
854.83	57.68
855.005	49.49
855.18	22.87
855.354	26.96
855.529	90.45
855.704	51.54
855.879	2.39
856.053	14.68
856.228	84.31
856.403	74.07
856.577	47.44
856.752	59.73
856.926	12.63
857.101	55.64
857.276	63.83
857.45	59.73
857.625	90.45
857.799	18.77
857.974	84.31
858.148	47.44
858.323	88.4
858.497	57.68
858.672	6.49
858.846	6.49
859.02	84.31
859.195	-1.71
859.369	-32.43
859.543	4.44
859.718	72.02
859.892	69.97
860.066	10.58
860.241	82.26
860.415	115.03
860.589	55.64
860.763	-5.8
860.938	39.25
861.112	43.35
861.286	-16.04
861.46	65.88
861.634	59.73
861.808	88.4
861.982	-7.85
862.157	45.4
862.331	33.11
862.505	24.92
862.679	41.3
862.853	18.77
863.027	37.2
863.201	119.12
863.375	-1.71
863.549	41.3
863.722	16.73
863.896	-1.71
864.07	14.68
864.244	22.87
864.418	26.96
864.592	14.68
864.766	92.5
864.939	22.87
865.113	47.44
865.287	129.36
865.461	69.97
865.634	88.4
865.808	-50.86
865.982	12.63
866.156	92.5
866.329	121.17
866.503	39.25
866.676	24.92
866.85	112.98
867.024	76.12
867.197	2.39
867.371	-20.14
867.544	39.25
867.718	0.34
867.891	-1.71
868.065	26.96
868.238	86.36
868.412	96.6
868.585	61.78
868.759	47.44
868.932	-34.47
869.105	8.53
869.279	6.49
869.452	22.87
869.625	76.12
869.799	2.39
869.972	8.53
870.145	22.87
870.319	67.92
870.492	33.11
870.665	47.44
870.838	35.16
871.011	22.87
871.185	41.3
871.358	26.96
871.531	39.25
871.704	125.27
871.877	35.16
872.05	-18.09
872.223	22.87
872.396	63.83
872.569	-9.9
872.742	-7.85
872.915	80.21
873.088	-42.67
873.261	31.06
873.434	31.06
873.607	16.73
873.78	78.16
873.953	-1.71
874.126	84.31
874.299	18.77
874.471	26.96
874.644	61.78
874.817	82.26
874.99	88.4
875.163	6.49
875.335	80.21
875.508	22.87
875.681	104.79
875.853	14.68
876.026	0.34
876.199	35.16
876.371	82.26
876.544	-59.05
876.717	-5.8
876.889	-11.95
877.062	18.77
877.234	8.53
877.407	4.44
877.579	22.87
877.752	55.64
877.924	74.07
878.097	26.96
878.269	37.2
878.442	88.4
878.614	98.64
878.786	-13.99
878.959	55.64
879.131	55.64
879.303	51.54
879.476	65.88
879.648	84.31
879.82	14.68
879.993	-1.71
880.165	104.79
880.337	-16.04
880.509	55.64
880.681	-9.9
880.854	-9.9
881.026	26.96
881.198	65.88
881.37	-26.28
881.542	37.2
881.714	-3.75
881.886	35.16
882.058	-18.09
882.23	0.34
882.402	12.63
882.574	-1.71
882.746	106.84
882.918	49.49
883.09	29.01
883.262	47.44
883.434	33.11
883.606	-54.95
883.778	16.73
883.95	29.01
884.122	-73.39
884.293	72.02
884.465	39.25
884.637	98.64
884.809	24.92
884.98	39.25
885.152	22.87
885.324	26.96
885.496	-71.34
885.667	-13.99
885.839	22.87
886.011	33.11
886.182	-18.09
886.354	-1.71
886.525	-48.81
886.697	115.03
886.869	41.3
887.04	67.92
887.212	47.44
887.383	84.31
887.555	45.4
887.726	33.11
887.897	16.73
888.069	82.26
888.24	84.31
888.412	86.36
888.583	72.02
888.754	51.54
888.926	-50.86
889.097	-65.19
889.268	0.34
889.44	-16.04
889.611	-57
889.782	-13.99
889.953	10.58
890.125	65.88
890.296	-40.62
890.467	24.92
890.638	-26.28
890.809	45.4
890.98	24.92
891.151	35.16
891.323	-1.71
891.494	92.5
891.665	-1.71
891.836	35.16
892.007	49.49
892.178	74.07
892.349	6.49
892.52	57.68
892.691	43.35
892.862	16.73
893.032	-71.34
893.203	57.68
893.374	18.77
893.545	14.68
893.716	-22.19
893.887	63.83
894.057	63.83
894.228	10.58
894.399	-57
894.57	72.02
894.74	2.39
894.911	63.83
895.082	72.02
895.253	-5.8
895.423	14.68
895.594	49.49
895.764	6.49
895.935	-16.04
896.106	65.88
896.276	6.49
896.447	-7.85
896.617	-34.47
896.788	-63.15
896.958	-26.28
897.129	-26.28
897.299	137.56
897.47	35.16
897.64	8.53
897.81	8.53
897.981	43.35
898.151	-34.47
898.322	43.35
898.492	24.92
898.662	22.87
898.832	-26.28
899.003	55.64
899.173	-50.86
899.343	4.44
899.513	47.44
