Data from USB4F104151__20__14-42-42-187.txt Node

Date: Thu Mar 13 14:42:42 EDT 2025
User: louis
Spectrometer: USB4F10415
Trigger mode: 4
Integration Time (sec): 2.000000E-2
Scans to average: 1
Electric dark correction enabled: true
Nonlinearity correction enabled: false
Boxcar width: 0
XAxis mode: Wavelengths
Number of Pixels in Spectrum: 3648
>>>>>Begin Spectral Data<<<<<
178.204	-159.91
178.424	-159.91
178.644	-159.91
178.864	-90.28
179.084	-133.29
179.304	32.6
179.524	-37.03
179.744	32.6
179.964	55.12
180.184	12.12
180.404	-4.27
180.624	-8.36
180.844	-12.46
181.064	-53.42
181.283	3.93
181.503	-2.22
181.723	-18.6
181.943	-94.38
182.163	77.65
182.383	-28.84
182.602	8.02
182.822	28.5
183.042	20.31
183.262	-18.6
183.482	-77.99
183.701	-12.46
183.921	14.17
184.141	-10.41
184.361	34.64
184.58	30.55
184.8	-12.46
185.02	-34.99
185.239	-4.27
185.459	-82.09
185.679	-16.55
185.898	-43.18
186.118	3.93
186.338	-20.65
186.557	89.94
186.777	-18.6
186.997	28.5
187.216	-32.94
187.436	75.6
187.655	8.02
187.875	36.69
188.095	-10.41
188.314	-4.27
188.534	3.93
188.753	77.65
188.973	79.7
189.192	24.4
189.412	-37.03
189.631	-53.42
189.851	22.36
190.07	53.08
190.29	-2.22
190.509	-4.27
190.729	30.55
190.948	22.36
191.168	108.37
191.387	-32.94
191.607	5.97
191.826	28.5
192.045	44.88
192.265	-20.65
192.484	-41.13
192.704	-51.37
192.923	28.5
193.142	61.27
193.362	57.17
193.581	87.89
193.8	8.02
194.02	-20.65
194.239	-8.36
194.458	-12.46
194.678	-67.75
194.897	-24.75
195.116	3.93
195.335	20.31
195.555	55.12
195.774	16.21
195.993	-14.51
196.212	32.6
196.432	-18.6
196.651	69.46
196.87	36.69
197.089	69.46
197.308	1.88
197.528	-10.41
197.747	-18.6
197.966	38.74
198.185	14.17
198.404	51.03
198.623	87.89
198.842	-37.03
199.062	79.7
199.281	3.93
199.5	8.02
199.719	12.12
199.938	-6.31
200.157	48.98
200.376	26.45
200.595	12.12
200.814	12.12
201.033	38.74
201.252	-37.03
201.471	-4.27
201.69	22.36
201.909	24.4
202.128	-26.79
202.347	-37.03
202.566	40.79
202.785	-20.65
203.004	-71.85
203.223	26.45
203.442	-20.65
203.661	46.93
203.879	-14.51
204.098	65.36
204.317	-24.75
204.536	61.27
204.755	-0.17
204.974	40.79
205.193	16.21
205.411	77.65
205.63	-28.84
205.849	22.36
206.068	16.21
206.287	-8.36
206.505	-8.36
206.724	61.27
206.943	14.17
207.162	44.88
207.381	44.88
207.599	-10.41
207.818	-59.56
208.037	-4.27
208.255	-20.65
208.474	-65.71
208.693	14.17
208.911	20.31
209.13	28.5
209.349	3.93
209.567	-14.51
209.786	20.31
210.005	-18.6
210.223	40.79
210.442	-71.85
210.661	28.5
210.879	32.6
211.098	77.65
211.316	-51.37
211.535	61.27
211.753	-20.65
211.972	3.93
212.191	-77.99
212.409	-24.75
212.628	24.4
212.846	-73.9
213.065	-6.31
213.283	46.93
213.502	8.02
213.72	-4.27
213.938	28.5
214.157	-63.66
214.375	-16.55
214.594	-6.31
214.812	-14.51
215.031	-32.94
215.249	-4.27
215.467	-106.67
215.686	10.07
215.904	-4.27
216.122	8.02
216.341	89.94
216.559	5.97
216.778	-2.22
216.996	69.46
217.214	-53.42
217.432	-41.13
217.651	-108.71
217.869	-75.95
218.087	20.31
218.306	-59.56
218.524	-4.27
218.742	-45.23
218.96	36.69
219.179	3.93
219.397	28.5
219.615	141.14
219.833	1.88
220.051	1.88
220.27	63.32
220.488	-10.41
220.706	-37.03
220.924	12.12
221.142	20.31
221.36	-2.22
221.578	22.36
221.796	24.4
222.015	3.93
222.233	-12.46
222.451	63.32
222.669	-8.36
222.887	-39.08
223.105	81.75
223.323	-24.75
223.541	-16.55
223.759	10.07
223.977	38.74
224.195	53.08
224.413	36.69
224.631	61.27
224.849	-45.23
225.067	28.5
225.285	-84.14
225.503	16.21
225.721	-61.61
225.939	5.97
226.157	20.31
226.375	112.47
226.592	3.93
226.81	-69.8
227.028	22.36
227.246	24.4
227.464	30.55
227.682	57.17
227.9	38.74
228.117	-8.36
228.335	44.88
228.553	-2.22
228.771	16.21
228.989	-34.99
229.206	12.12
229.424	-41.13
229.642	28.5
229.86	32.6
230.077	44.88
230.295	16.21
230.513	20.31
230.731	55.12
230.948	-2.22
231.166	53.08
231.384	-57.51
231.601	3.93
231.819	57.17
232.037	16.21
232.254	14.17
232.472	38.74
232.689	-86.19
232.907	-0.17
233.125	44.88
233.342	-32.94
233.56	-59.56
233.777	55.12
233.995	-67.75
234.213	126.8
234.43	3.93
234.648	44.88
234.865	42.84
235.083	63.32
235.3	44.88
235.518	-20.65
235.735	89.94
235.953	46.93
236.17	16.21
236.388	22.36
236.605	20.31
236.822	63.32
237.04	34.64
237.257	-28.84
237.475	65.36
237.692	-22.7
237.909	22.36
238.127	34.64
238.344	59.22
238.562	61.27
238.779	10.07
238.996	-16.55
239.214	-55.47
239.431	12.12
239.648	53.08
239.865	-39.08
240.083	71.51
240.3	-14.51
240.517	16.21
240.735	-61.61
240.952	22.36
241.169	87.89
241.386	36.69
241.603	-8.36
241.821	61.27
242.038	-8.36
242.255	8.02
242.472	-37.03
242.689	1.88
242.907	57.17
243.124	-16.55
243.341	-32.94
243.558	40.79
243.775	-43.18
243.992	-0.17
244.209	28.5
244.426	77.65
244.643	42.84
244.86	-18.6
245.078	55.12
245.295	14.17
245.512	-16.55
245.729	-77.99
245.946	-57.51
246.163	-28.84
246.38	3.93
246.597	24.4
246.814	-6.31
247.031	40.79
247.248	20.31
247.464	-55.47
247.681	-32.94
247.898	8.02
248.115	20.31
248.332	-51.37
248.549	12.12
248.766	81.75
248.983	-18.6
249.2	63.32
249.417	-12.46
249.633	48.98
249.85	20.31
250.067	34.64
250.284	-12.46
250.501	20.31
250.717	-8.36
250.934	-28.84
251.151	-18.6
251.368	18.26
251.585	22.36
251.801	36.69
252.018	40.79
252.235	-16.55
252.451	5.97
252.668	-4.27
252.885	59.22
253.102	-24.75
253.318	44.88
253.535	30.55
253.752	-34.99
253.968	-14.51
254.185	-28.84
254.401	12.12
254.618	30.55
254.835	-10.41
255.051	12.12
255.268	-34.99
255.484	8.02
255.701	3.93
255.917	32.6
256.134	46.93
256.351	34.64
256.567	44.88
256.784	-12.46
257	-24.75
257.217	28.5
257.433	-18.6
257.65	-18.6
257.866	36.69
258.082	-28.84
258.299	16.21
258.515	53.08
258.732	12.12
258.948	-39.08
259.165	8.02
259.381	3.93
259.597	-98.47
259.814	-4.27
260.03	32.6
260.246	46.93
260.463	69.46
260.679	12.12
260.895	8.02
261.112	20.31
261.328	-0.17
261.544	-34.99
261.761	94.04
261.977	-20.65
262.193	-49.32
262.409	3.93
262.626	63.32
262.842	5.97
263.058	8.02
263.274	36.69
263.49	-28.84
263.707	16.21
263.923	16.21
264.139	57.17
264.355	-51.37
264.571	-14.51
264.787	24.4
265.004	1.88
265.22	24.4
265.436	12.12
265.652	-30.89
265.868	-20.65
266.084	5.97
266.3	-4.27
266.516	14.17
266.732	36.69
266.948	-24.75
267.164	-67.75
267.38	16.21
267.596	5.97
267.812	-32.94
268.028	14.17
268.244	-2.22
268.46	18.26
268.676	-53.42
268.892	-32.94
269.108	16.21
269.324	-45.23
269.54	-8.36
269.756	61.27
269.972	-16.55
270.188	-51.37
270.403	-26.79
270.619	-16.55
270.835	53.08
271.051	46.93
271.267	-16.55
271.483	-2.22
271.698	-6.31
271.914	20.31
272.13	-0.17
272.346	-53.42
272.562	104.28
272.777	20.31
272.993	61.27
273.209	-18.6
273.425	-20.65
273.64	10.07
273.856	-24.75
274.072	-37.03
274.287	18.26
274.503	77.65
274.719	30.55
274.934	85.84
275.15	-39.08
275.366	-16.55
275.581	-18.6
275.797	26.45
276.012	-39.08
276.228	-77.99
276.444	36.69
276.659	-10.41
276.875	-28.84
277.09	-0.17
277.306	-18.6
277.521	46.93
277.737	-2.22
277.952	71.51
278.168	-24.75
278.383	22.36
278.599	-22.7
278.814	51.03
279.03	12.12
279.245	24.4
279.461	14.17
279.676	28.5
279.892	55.12
280.107	28.5
280.322	-71.85
280.538	36.69
280.753	-32.94
280.969	-2.22
281.184	48.98
281.399	67.41
281.615	5.97
281.83	73.56
282.045	-49.32
282.26	-8.36
282.476	3.93
282.691	32.6
282.906	-49.32
283.122	20.31
283.337	-18.6
283.552	-43.18
283.767	18.26
283.983	-16.55
284.198	1.88
284.413	3.93
284.628	-43.18
284.843	-18.6
285.058	40.79
285.274	20.31
285.489	20.31
285.704	59.22
285.919	20.31
286.134	3.93
286.349	-0.17
286.564	-28.84
286.779	40.79
286.995	36.69
287.21	-37.03
287.425	61.27
287.64	12.12
287.855	40.79
288.07	20.31
288.285	36.69
288.5	12.12
288.715	20.31
288.93	-28.84
289.145	-94.38
289.36	-45.23
289.575	30.55
289.79	-4.27
290.004	108.37
290.219	79.7
290.434	28.5
290.649	44.88
290.864	20.31
291.079	53.08
291.294	3.93
291.509	-22.7
291.724	16.21
291.938	-2.22
292.153	51.03
292.368	3.93
292.583	28.5
292.798	-43.18
293.012	20.31
293.227	5.97
293.442	-8.36
293.657	30.55
293.871	5.97
294.086	20.31
294.301	63.32
294.516	1.88
294.73	-18.6
294.945	-75.95
295.16	5.97
295.374	18.26
295.589	110.42
295.804	3.93
296.018	14.17
296.233	12.12
296.447	87.89
296.662	-0.17
296.877	46.93
297.091	14.17
297.306	30.55
297.52	44.88
297.735	14.17
297.949	-16.55
298.164	-16.55
298.378	22.36
298.593	-37.03
298.807	-12.46
299.022	-37.03
299.236	-6.31
299.451	-63.66
299.665	36.69
299.88	-26.79
300.094	-4.27
300.309	61.27
300.523	22.36
300.737	44.88
300.952	3.93
301.166	83.8
301.381	12.12
301.595	12.12
301.809	51.03
302.024	46.93
302.238	5.97
302.452	118.61
302.667	-34.99
302.881	16.21
303.095	26.45
303.309	75.6
303.524	-18.6
303.738	34.64
303.952	-6.31
304.166	61.27
304.381	-37.03
304.595	-2.22
304.809	14.17
305.023	36.69
305.237	-28.84
305.452	-2.22
305.666	65.36
305.88	-41.13
306.094	69.46
306.308	-10.41
306.522	-26.79
306.736	-34.99
306.95	71.51
307.164	18.26
307.379	-4.27
307.593	32.6
307.807	-0.17
308.021	98.13
308.235	5.97
308.449	-20.65
308.663	-0.17
308.877	98.13
309.091	3.93
309.305	8.02
309.519	-32.94
309.733	24.4
309.947	-18.6
310.161	26.45
310.374	59.22
310.588	28.5
310.802	8.02
311.016	-28.84
311.23	83.8
311.444	48.98
311.658	-57.51
311.872	51.03
312.085	-75.95
312.299	20.31
312.513	85.84
312.727	53.08
312.941	-20.65
313.154	46.93
313.368	53.08
313.582	3.93
313.796	18.26
314.009	-4.27
314.223	10.07
314.437	12.12
314.651	30.55
314.864	-34.99
315.078	-45.23
315.292	-47.27
315.505	-28.84
315.719	28.5
315.933	132.95
316.146	-12.46
316.36	75.6
316.573	20.31
316.787	1.88
317.001	-37.03
317.214	-2.22
317.428	69.46
317.641	-10.41
317.855	-18.6
318.068	53.08
318.282	12.12
318.495	-2.22
318.709	14.17
318.922	36.69
319.136	40.79
319.349	-65.71
319.563	16.21
319.776	10.07
319.99	-43.18
320.203	42.84
320.417	-16.55
320.63	-8.36
320.843	122.71
321.057	44.88
321.27	12.12
321.483	44.88
321.697	22.36
321.91	-45.23
322.124	-22.7
322.337	24.4
322.55	5.97
322.763	46.93
322.977	12.12
323.19	-28.84
323.403	-45.23
323.617	48.98
323.83	61.27
324.043	61.27
324.256	73.56
324.469	-26.79
324.683	116.56
324.896	44.88
325.109	-73.9
325.322	-18.6
325.535	77.65
325.748	3.93
325.962	-12.46
326.175	8.02
326.388	69.46
326.601	28.5
326.814	8.02
327.027	-0.17
327.24	79.7
327.453	-24.75
327.666	22.36
327.879	1.88
328.092	-20.65
328.305	12.12
328.518	48.98
328.731	40.79
328.944	1.88
329.157	112.47
329.37	61.27
329.583	53.08
329.796	65.36
330.009	-24.75
330.222	63.32
330.435	-24.75
330.648	36.69
330.861	-10.41
331.073	96.08
331.286	61.27
331.499	53.08
331.712	12.12
331.925	28.5
332.138	102.23
332.35	1.88
332.563	63.32
332.776	-12.46
332.989	-37.03
333.202	69.46
333.414	-12.46
333.627	-28.84
333.84	32.6
334.053	48.98
334.265	3.93
334.478	-12.46
334.691	12.12
334.903	-75.95
335.116	-8.36
335.329	44.88
335.541	20.31
335.754	12.12
335.966	-12.46
336.179	71.51
336.392	-57.51
336.604	3.93
336.817	-12.46
337.029	61.27
337.242	-18.6
337.454	96.08
337.667	14.17
337.88	65.36
338.092	22.36
338.305	57.17
338.517	32.6
338.729	-12.46
338.942	55.12
339.154	-24.75
339.367	-18.6
339.579	26.45
339.792	-51.37
340.004	128.85
340.217	24.4
340.429	61.27
340.641	-2.22
340.854	30.55
341.066	-45.23
341.278	71.51
341.491	34.64
341.703	-10.41
341.915	14.17
342.128	24.4
342.34	40.79
342.552	16.21
342.764	-77.99
342.977	-53.42
343.189	36.69
343.401	57.17
343.613	-41.13
343.826	71.51
344.038	12.12
344.25	-4.27
344.462	-4.27
344.674	12.12
344.886	-53.42
345.099	63.32
345.311	53.08
345.523	10.07
345.735	-0.17
345.947	-2.22
346.159	14.17
346.371	69.46
346.583	12.12
346.795	40.79
347.007	61.27
347.219	-45.23
347.431	-4.27
347.643	18.26
347.855	-30.89
348.067	-12.46
348.279	1.88
348.491	28.5
348.703	26.45
348.915	44.88
349.127	-8.36
349.339	46.93
349.551	-12.46
349.763	36.69
349.975	5.97
350.187	3.93
350.399	22.36
350.61	-18.6
350.822	-30.89
351.034	-32.94
351.246	91.99
351.458	16.21
351.669	104.28
351.881	44.88
352.093	16.21
352.305	-8.36
352.517	-12.46
352.728	-39.08
352.94	16.21
353.152	55.12
353.363	-6.31
353.575	20.31
353.787	73.56
353.999	-2.22
354.21	65.36
354.422	-94.38
354.633	-20.65
354.845	-8.36
355.057	3.93
355.268	-2.22
355.48	-12.46
355.692	-65.71
355.903	14.17
356.115	8.02
356.326	-28.84
356.538	14.17
356.749	-6.31
356.961	12.12
357.172	22.36
357.384	42.84
357.595	100.18
357.807	3.93
358.018	-69.8
358.23	3.93
358.441	36.69
358.653	91.99
358.864	-32.94
359.075	3.93
359.287	1.88
359.498	44.88
359.709	42.84
359.921	51.03
360.132	-37.03
360.344	3.93
360.555	26.45
360.766	46.93
360.977	-32.94
361.189	32.6
361.4	-28.84
361.611	53.08
361.823	46.93
362.034	28.5
362.245	-45.23
362.456	46.93
362.667	44.88
362.879	-20.65
363.09	-61.61
363.301	-77.99
363.512	20.31
363.723	-18.6
363.935	-45.23
364.146	8.02
364.357	-20.65
364.568	61.27
364.779	-82.09
364.99	44.88
365.201	-92.33
365.412	61.27
365.623	-18.6
365.834	24.4
366.045	3.93
366.256	22.36
366.467	77.65
366.678	38.74
366.889	-43.18
367.1	55.12
367.311	44.88
367.522	-32.94
367.733	28.5
367.944	44.88
368.155	-80.04
368.366	28.5
368.577	-57.51
368.788	85.84
368.999	20.31
369.209	-4.27
369.42	32.6
369.631	44.88
369.842	3.93
370.053	3.93
370.264	36.69
370.474	-26.79
370.685	53.08
370.896	-28.84
371.107	46.93
371.317	30.55
371.528	-37.03
371.739	44.88
371.95	-61.61
372.16	53.08
372.371	1.88
372.582	-16.55
372.792	10.07
373.003	63.32
373.214	-18.6
373.424	-37.03
373.635	16.21
373.846	73.56
374.056	20.31
374.267	-0.17
374.477	53.08
374.688	36.69
374.898	-86.19
375.109	36.69
375.319	-18.6
375.53	53.08
375.74	-4.27
375.951	-20.65
376.161	79.7
376.372	-8.36
376.582	22.36
376.793	-59.56
377.003	-4.27
377.214	12.12
377.424	24.4
377.635	53.08
377.845	69.46
378.055	5.97
378.266	61.27
378.476	-45.23
378.686	26.45
378.897	-24.75
379.107	24.4
379.317	44.88
379.528	48.98
379.738	20.31
379.948	-24.75
380.158	48.98
380.369	-4.27
380.579	44.88
380.789	-10.41
380.999	85.84
381.21	30.55
381.42	102.23
381.63	-18.6
381.84	53.08
382.05	44.88
382.261	3.93
382.471	89.94
382.681	3.93
382.891	102.23
383.101	-4.27
383.311	-12.46
383.521	-43.18
383.731	-28.84
383.941	28.5
384.151	-53.42
384.361	28.5
384.571	-8.36
384.781	46.93
384.991	59.22
385.201	69.46
385.411	104.28
385.621	36.69
385.831	63.32
386.041	96.08
386.251	14.17
386.461	61.27
386.671	28.5
386.881	-47.27
387.091	89.94
387.301	-67.75
387.511	48.98
387.72	38.74
387.93	3.93
388.14	-67.75
388.35	61.27
388.56	44.88
388.769	16.21
388.979	8.02
389.189	77.65
389.399	-12.46
389.609	61.27
389.818	3.93
390.028	44.88
390.238	51.03
390.447	-0.17
390.657	30.55
390.867	-10.41
391.076	14.17
391.286	-12.46
391.496	73.56
391.705	87.89
391.915	73.56
392.125	100.18
392.334	44.88
392.544	-0.17
392.753	-8.36
392.963	-94.38
393.172	3.93
393.382	44.88
393.591	44.88
393.801	10.07
394.01	53.08
394.22	118.61
394.429	1.88
394.639	36.69
394.848	145.24
395.058	44.88
395.267	48.98
395.477	-12.46
395.686	91.99
395.895	65.36
396.105	22.36
396.314	53.08
396.524	22.36
396.733	87.89
396.942	12.12
397.152	36.69
397.361	81.75
397.57	14.17
397.78	96.08
397.989	61.27
398.198	169.81
398.407	38.74
398.617	98.13
398.826	32.6
399.035	71.51
399.244	38.74
399.453	53.08
399.663	118.61
399.872	46.93
400.081	-4.27
400.29	65.36
400.499	20.31
400.708	44.88
400.917	65.36
401.127	118.61
401.336	12.12
401.545	151.38
401.754	96.08
401.963	44.88
402.172	28.5
402.381	12.12
402.59	-24.75
402.799	48.98
403.008	71.51
403.217	61.27
403.426	87.89
403.635	122.71
403.844	65.36
404.053	-18.6
404.262	65.36
404.471	135
404.68	135
404.888	71.51
405.097	32.6
405.306	77.65
405.515	63.32
405.724	135
405.933	79.7
406.142	122.71
406.35	130.9
406.559	118.61
406.768	61.27
406.977	114.52
407.185	85.84
407.394	223.06
407.603	83.8
407.812	102.23
408.02	180.05
408.229	139.09
408.438	137.04
408.646	118.61
408.855	147.28
409.064	151.38
409.272	130.9
409.481	165.71
409.69	167.76
409.898	175.95
410.107	178
410.315	122.71
410.524	178
410.733	208.72
410.941	147.28
411.15	204.63
411.358	200.53
411.567	218.96
411.775	235.35
411.984	188.24
412.192	180.05
412.401	284.5
412.609	237.39
412.818	282.45
413.026	261.97
413.234	304.98
413.443	225.11
413.651	356.18
413.86	298.83
414.068	358.22
414.276	405.33
414.485	468.81
414.693	413.52
414.901	429.9
415.11	423.76
415.318	417.61
415.526	456.53
415.734	456.53
415.943	487.25
416.151	499.53
416.359	454.48
416.567	520.01
416.776	563.02
416.984	536.4
417.192	630.6
417.4	497.49
417.608	513.87
417.817	577.36
418.025	636.75
418.233	708.43
418.441	603.98
418.649	728.91
418.857	782.15
419.065	784.2
419.273	759.63
419.481	808.78
419.689	798.54
419.897	870.22
420.105	915.27
420.313	1058.63
420.521	1064.77
420.729	995.14
420.937	1070.92
421.145	1027.91
421.353	1109.83
421.561	1177.41
421.769	1265.47
421.977	1224.51
422.185	1105.73
422.393	1267.52
422.601	1306.43
422.809	1345.34
423.017	1306.43
423.224	1421.12
423.432	1331.01
423.64	1529.66
423.848	1646.4
424.056	1578.81
424.263	1644.35
424.471	1732.41
424.679	1775.42
424.887	1742.65
425.094	1847.1
425.302	1847.1
425.51	1939.26
425.718	1980.22
425.925	2002.74
426.133	2068.28
426.341	2144.05
426.548	2418.48
426.756	2283.31
426.964	2395.95
427.171	2567.98
427.379	2576.17
427.586	2572.08
427.794	2746.16
428.001	2748.2
428.209	2850.6
428.417	2850.6
428.624	3022.63
428.832	2959.14
429.039	3028.78
429.247	2893.61
429.454	3276.58
429.662	3641.12
429.869	3340.07
430.076	3620.64
430.284	3454.75
430.491	3518.24
430.699	3720.99
430.906	3878.68
431.114	3890.97
431.321	4069.14
431.528	4099.86
431.736	4292.37
431.943	4681.49
432.15	4308.76
432.358	4558.61
432.565	4781.84
432.772	4585.23
432.979	4957.96
433.187	5123.85
433.394	4898.57
433.601	5414.66
433.808	5281.54
434.016	5314.31
434.223	5699.33
434.43	5762.81
434.637	5734.14
434.844	6239.99
435.052	6295.29
435.259	6272.76
435.466	6262.52
435.673	6373.11
435.88	6590.19
436.087	6993.64
436.294	6985.45
436.501	6971.11
436.708	7053.03
436.915	7173.86
437.122	7644.9
437.329	7638.75
437.537	7519.97
437.743	7950.04
437.95	7737.06
438.157	8369.88
438.364	8412.88
438.571	8584.91
438.778	8531.67
438.985	9406.15
439.192	8861.39
439.399	9164.49
439.606	8924.88
439.813	9563.84
440.02	10436.28
440.227	10090.17
440.433	9821.89
440.64	10211
440.847	10131.13
441.054	10309.3
441.261	11132.59
441.467	10833.58
441.674	11171.5
441.881	11521.7
442.088	11566.76
442.294	11718.31
442.501	11628.2
442.708	11773.6
442.914	12410.52
443.121	12932.75
443.328	12474.01
443.534	13618.82
443.741	13004.43
443.948	12945.04
444.154	13803.14
444.361	13975.17
444.568	13960.83
444.774	13850.24
444.981	14225.02
445.187	14587.51
445.394	15113.84
445.6	15070.83
445.807	16533.08
446.013	15597.16
446.22	15789.67
446.426	16731.73
446.633	16711.25
446.839	17378.89
447.046	16412.25
447.252	17806.92
447.459	17688.14
447.665	17690.18
447.871	18421.31
448.078	19250.74
448.284	18388.54
448.491	18837.05
448.697	19856.93
448.903	20002.34
449.11	19858.98
449.316	19789.35
449.522	19901.99
449.728	20629.02
449.935	20823.58
450.141	20827.67
450.347	21278.22
450.553	20858.39
450.76	20790.81
450.966	21714.44
451.172	21603.85
451.378	21954.05
451.584	21730.83
451.791	21984.77
451.997	22029.83
452.203	22210.05
452.409	22492.67
452.615	22541.82
452.821	21495.31
453.027	21552.65
453.233	22644.22
453.44	21859.85
453.646	21949.96
453.852	22011.4
454.058	22427.14
454.264	21792.26
454.47	22291.97
454.676	21757.45
454.882	22146.56
455.088	20753.94
455.294	20815.38
455.5	21028.37
455.705	21693.96
455.911	20551.2
456.117	20248.1
456.323	19949.09
456.529	18652.73
456.735	19715.62
456.941	19205.68
457.147	19150.39
457.352	18431.55
457.558	18175.55
457.764	18155.07
457.97	17802.82
458.176	17446.48
458.381	17643.08
458.587	16682.58
458.793	16752.21
458.999	16008.8
459.204	17206.86
459.41	16455.26
459.616	15316.59
459.821	15715.94
460.027	15408.75
460.233	14868.08
460.438	14581.37
460.644	14458.49
460.85	13862.53
461.055	13594.25
461.261	13753.99
461.466	12768.91
461.672	12250.78
461.878	13278.86
462.083	12324.51
462.289	12056.22
462.494	11906.72
462.7	11445.93
462.905	11185.83
463.111	11656.87
463.316	11548.33
463.522	11615.91
463.727	11286.19
463.932	11261.61
464.138	11357.86
464.343	11353.77
464.549	10811.06
464.754	11337.38
464.959	11228.84
465.165	11134.64
465.37	10747.57
465.575	10452.66
465.781	10958.51
465.986	10954.41
466.191	10350.26
466.397	10346.17
466.602	9948.86
466.807	10270.39
467.012	10299.06
467.218	10104.51
467.423	9889.47
467.628	10028.73
467.833	10391.22
468.038	10071.74
468.244	9842.37
468.449	10184.38
468.654	10000.06
468.859	9817.79
469.064	9737.92
469.269	9516.74
469.474	9481.92
469.679	9678.53
469.885	9395.91
470.09	9551.56
470.295	9596.61
470.5	9174.73
470.705	9240.26
470.91	9316.04
471.115	9060.04
471.32	9139.91
471.525	9049.8
471.73	8842.96
471.935	8877.77
472.139	8535.76
472.344	8521.43
472.549	8740.56
472.754	8531.67
472.959	8306.39
473.164	7968.48
473.369	8029.91
473.574	8296.15
473.778	8142.55
473.983	8107.74
474.188	8181.46
474.393	7737.06
474.598	7851.74
474.802	7784.16
475.007	7679.71
475.212	7845.6
475.417	7452.39
475.621	7384.8
475.826	7458.53
476.031	7433.96
476.235	7347.94
476.44	7212.78
476.645	7108.33
476.849	7196.39
477.054	7055.08
477.259	6950.64
477.463	7114.47
477.668	6917.87
477.872	6895.34
478.077	6833.9
478.282	6524.66
478.486	6631.15
478.691	6549.23
478.895	6559.47
479.1	6596.34
479.304	6559.47
479.509	6295.29
479.713	6434.55
479.918	6391.54
480.122	6297.33
480.326	6545.14
480.531	6248.18
480.735	6237.94
480.94	6272.76
481.144	6528.75
481.348	6164.22
481.553	6233.85
481.757	5887.74
481.961	6237.94
482.166	6178.55
482.37	5926.65
482.574	6027
482.778	6108.92
482.983	5975.8
483.187	6168.31
483.391	6037.24
483.595	6219.51
483.8	6043.39
484.004	6117.11
484.208	6199.03
484.412	6049.53
484.616	5930.75
484.821	6158.07
485.025	6016.76
485.229	6008.57
485.433	6125.3
485.637	6018.81
485.841	6090.49
486.045	6131.45
486.249	6055.67
486.453	5902.08
486.657	5934.84
486.861	5961.47
487.065	6027
487.269	6125.3
487.473	5969.66
487.677	6139.64
487.881	6137.59
488.085	6061.82
488.289	6233.85
488.493	5887.74
488.697	6074.1
488.901	6194.93
489.105	6225.65
489.309	6184.69
489.512	6076.15
489.716	6156.02
489.92	6098.68
490.124	6088.44
490.328	6305.53
490.531	6129.4
490.735	6264.57
490.939	6270.71
491.143	6401.78
491.346	6303.48
491.55	6354.68
491.754	6364.92
491.958	6344.44
492.161	6571.76
492.365	6551.28
492.569	6498.03
492.772	6565.62
492.976	6526.71
493.18	6622.96
493.383	6672.11
493.587	6721.26
493.79	6829.81
493.994	6620.91
494.197	6864.62
494.401	6803.18
494.605	6985.45
494.808	7137
495.012	7042.79
495.215	7007.98
495.419	7206.63
495.622	6954.73
495.825	7337.7
496.029	7286.5
496.232	7448.29
496.436	7360.23
496.639	7757.53
496.843	7585.51
497.046	7753.44
497.249	7896.8
497.453	7710.43
497.656	7823.07
497.859	7950.04
498.063	8042.2
498.266	8128.22
498.469	8183.51
498.673	8122.07
498.876	8597.2
499.079	8584.91
499.282	8529.62
499.485	8949.45
499.689	8859.34
499.892	8748.75
500.095	8961.74
500.298	9213.64
500.501	9021.13
500.705	9387.72
500.908	9629.38
501.111	9600.71
501.314	9594.56
501.517	9819.84
501.72	9979.58
501.923	9983.68
502.126	10106.56
502.329	10407.61
502.532	10524.34
502.735	10366.65
502.938	10663.6
503.141	10735.28
503.344	10796.72
503.547	11116.2
503.75	11206.31
503.953	11308.71
504.156	11462.31
504.359	11525.8
504.562	11675.3
504.765	12041.89
504.968	12111.52
505.17	12218.01
505.373	11984.54
505.576	12545.69
505.779	12756.63
505.982	12471.96
506.185	12928.66
506.387	13135.5
506.59	13311.63
506.793	13344.39
506.996	13239.95
507.198	13846.15
507.401	13647.49
507.604	13792.9
507.807	14323.32
508.009	14114.43
508.212	14325.37
508.415	14657.14
508.617	14964.34
508.82	14880.37
509.022	14978.67
509.225	15091.31
509.428	15453.8
509.63	15689.32
509.833	15910.5
510.035	16127.58
510.238	16072.29
510.44	16260.7
510.643	16500.31
510.845	16715.35
511.048	16621.14
511.25	16940.63
511.453	17292.88
511.655	17526.35
511.858	17858.12
512.06	17593.93
512.262	18034.24
512.465	17874.5
512.667	18492.99
512.87	18323.01
513.072	18570.81
513.274	19021.36
513.477	19093.04
513.679	19207.73
513.881	19648.04
514.084	19746.34
514.286	19568.17
514.488	19844.65
514.69	20424.22
514.893	20600.35
515.095	20663.83
515.297	20618.78
515.499	20981.27
515.701	21124.63
515.904	21427.73
516.106	21583.37
516.308	21831.18
516.51	22083.08
516.712	22339.07
516.914	22359.55
517.116	22707.71
517.318	22894.07
517.52	22930.94
517.722	23059.96
517.925	23678.44
518.127	23930.34
518.329	24210.92
518.531	23827.95
518.733	24380.9
518.935	24569.31
519.136	24686.04
519.338	25218.52
519.54	25128.41
519.742	25527.76
519.944	25644.49
520.146	25990.6
520.348	25978.31
520.55	26402.24
520.752	26541.5
520.954	26707.39
521.155	26889.66
521.357	27221.43
521.559	27243.96
521.761	27938.22
521.963	27731.37
522.164	28202.41
522.366	28159.4
522.568	28147.11
522.77	28534.18
522.971	28890.52
523.173	28925.34
523.375	28761.5
523.576	29271.45
523.778	29101.47
523.98	29414.8
524.181	29623.7
524.383	29781.39
524.584	29924.75
524.786	30233.99
524.988	30066.06
525.189	30469.51
525.391	30793.09
525.592	30576
525.794	30733.7
525.995	30780.8
526.197	31038.84
526.398	31176.06
526.6	31503.73
526.801	31712.63
527.003	31753.58
527.204	31884.65
527.406	32017.77
527.607	32085.36
527.808	32281.96
528.01	32320.87
528.211	32089.45
528.412	32642.4
528.614	32425.32
528.815	32607.59
529.016	32935.26
529.218	32718.18
529.419	32525.67
529.62	33090.91
529.822	32828.77
530.023	32828.77
530.224	32802.14
530.425	32845.15
530.626	32963.93
530.828	32728.42
531.029	33586.52
531.23	32791.9
531.431	33242.46
531.632	33518.93
531.833	33455.45
532.035	33549.65
532.236	33514.84
532.437	33965.39
532.638	33398.1
532.839	33932.62
533.04	34106.7
533.241	33529.17
533.442	34202.96
533.643	34028.88
533.844	33944.91
534.045	34047.31
534.246	33736.02
534.447	33813.84
534.648	33799.51
534.849	33922.38
535.05	33607
535.251	34082.13
535.451	33811.79
535.652	34172.24
535.853	33883.47
536.054	34110.8
536.255	33977.68
536.456	33650
536.657	34256.2
536.857	33897.81
537.058	34090.32
537.259	34092.37
537.46	34121.04
537.66	34245.96
537.861	34118.99
538.062	34000.21
538.263	34141.52
538.463	33940.82
538.664	34213.2
538.865	34190.67
539.065	34678.08
539.266	33793.36
539.466	34407.75
539.667	33690.96
539.868	34078.03
540.068	34116.94
540.269	34108.75
540.469	34202.96
540.67	34299.21
540.87	34293.07
541.071	34104.65
541.271	34205
541.472	34000.21
541.672	33912.14
541.873	34123.08
542.073	33615.19
542.274	34170.19
542.474	34043.21
542.675	33615.19
542.875	34198.86
543.075	33901.9
543.276	33781.07
543.476	33953.1
543.676	33959.25
543.877	33752.4
544.077	34209.1
544.277	34137.42
544.478	33910.1
544.678	34342.22
544.878	34207.05
545.078	34000.21
545.279	33877.33
545.479	33746.26
545.679	34153.8
545.879	34014.54
546.079	33826.13
546.28	33781.07
546.48	33539.41
546.68	34264.39
546.88	33643.86
547.08	33975.63
547.28	33752.4
547.48	33482.07
547.68	33813.84
547.88	33490.26
548.081	34094.41
548.281	33715.54
548.481	33924.43
548.681	34358.6
548.881	33912.14
549.081	33641.81
549.28	33662.29
549.48	34114.89
549.68	33629.52
549.88	34278.73
550.08	33525.08
550.28	34041.17
550.48	33989.97
550.68	34207.05
550.88	33572.18
551.08	33623.38
551.279	33680.72
551.479	33240.41
551.679	34006.35
551.879	33713.49
552.079	33711.44
552.278	33600.85
552.478	33699.16
552.678	33574.23
552.878	33752.4
553.077	33580.37
553.277	33523.03
553.477	33850.7
553.676	33672.53
553.876	33291.61
554.076	33445.21
554.275	33291.61
554.475	33162.59
554.674	33422.68
554.874	33572.18
555.074	33211.74
555.273	33416.54
555.473	33203.55
555.672	33258.84
555.872	33111.39
556.071	33258.84
556.271	33215.83
556.47	33043.81
556.67	32787.81
556.869	33076.57
557.068	32980.32
557.268	32816.48
557.467	33183.07
557.667	32959.84
557.866	33035.61
558.065	32912.74
558.265	32738.66
558.464	32621.92
558.663	32984.41
558.863	32703.84
559.062	33025.37
559.261	32404.84
559.461	32871.78
559.66	32243.05
559.859	32689.51
560.058	32421.22
560.258	32464.23
560.457	31882.61
560.656	32722.27
560.855	32267.62
561.054	32759.14
561.253	32107.88
561.453	32503.14
561.652	32439.65
561.851	32427.37
562.05	32386.41
562.249	31817.07
562.448	32355.69
562.647	32122.22
562.846	31907.18
563.045	32095.6
563.244	31698.29
563.443	32081.26
563.642	31354.23
563.841	31855.98
564.04	31470.97
564.239	31827.31
564.438	31360.37
564.637	31374.71
564.836	31649.14
565.035	31475.06
565.234	31602.04
565.432	31260.02
565.631	31319.42
565.83	31239.54
566.029	30987.64
566.228	30766.46
566.427	31147.39
566.625	30809.47
566.824	30537.09
567.023	31235.45
567.222	30424.45
567.42	30666.11
567.619	30930.3
567.818	30659.97
568.016	30309.77
568.215	30440.84
568.414	30346.63
568.612	30756.22
568.811	30010.76
569.01	30557.57
569.208	29783.44
569.407	30403.97
569.605	29941.13
569.804	30250.38
570.002	29592.98
570.201	30072.2
570.4	29416.85
570.598	29607.31
570.797	29687.18
570.995	29447.57
571.193	28943.77
571.392	29504.92
571.59	29330.84
571.789	29324.69
571.987	29142.42
572.186	28863.9
572.384	29027.74
572.582	29228.44
572.781	29150.62
572.979	28708.26
573.177	28743.07
573.376	29193.62
573.574	28587.43
573.772	28892.57
573.971	28652.96
574.169	28263.85
574.367	28226.98
574.565	28439.97
574.763	28265.89
574.962	28206.5
575.16	27710.89
575.358	27868.59
575.556	27790.77
575.754	28009.9
575.952	27794.86
576.151	27710.89
576.349	27596.21
576.547	27801.01
576.745	27485.62
576.943	27418.03
577.141	27438.51
577.339	27583.92
577.537	27172.28
577.735	27133.37
577.933	27145.66
578.131	27162.04
578.329	26899.9
578.527	26840.51
578.725	26781.12
578.923	26797.5
579.121	26377.67
579.319	26604.99
579.516	26631.61
579.714	26813.88
579.912	26488.26
580.11	26740.16
580.308	26029.51
580.506	26385.86
580.704	25837
580.901	26133.96
581.099	25857.48
581.297	25853.39
581.495	25998.79
581.692	25937.35
581.89	25445.84
582.088	25933.26
582.285	25648.59
582.483	26027.46
582.681	25546.19
582.878	25560.53
583.076	25195.99
583.274	25662.93
583.471	25255.38
583.669	25204.18
583.866	25236.95
584.064	24997.34
584.262	24796.63
584.459	25150.93
584.657	24571.36
584.854	25345.49
585.052	24436.19
585.249	24575.45
585.447	24679.9
585.644	24145.38
585.841	24507.87
586.039	24618.46
586.236	24004.07
586.434	24294.88
586.631	24172
586.828	24110.57
587.026	24196.58
587.223	23934.44
587.42	23797.23
587.618	24038.89
587.815	23721.45
588.012	23647.72
588.21	23676.4
588.407	23860.71
588.604	23543.28
588.801	23184.88
588.999	23195.12
589.196	23338.48
589.393	23473.65
589.59	23131.64
589.787	23354.86
589.984	23096.82
590.182	22832.63
590.379	22887.93
590.576	22679.04
590.773	22617.6
590.97	22910.46
591.167	22490.62
591.364	22433.28
591.561	22517.25
591.758	22269.44
591.955	22281.73
592.152	22644.22
592.349	22203.91
592.546	22220.29
592.743	22130.18
592.94	21716.49
593.137	22023.69
593.334	22285.83
593.531	21593.61
593.727	21829.13
593.924	21782.02
594.121	21523.98
594.318	21593.61
594.515	21444.11
594.712	21767.69
594.908	21347.86
595.105	21573.13
595.302	21231.12
595.499	21259.79
595.696	20950.55
595.892	21108.24
596.089	21253.65
596.286	20784.66
596.482	20960.79
596.679	20811.29
596.876	21022.23
597.072	20891.16
597.269	20674.07
597.466	20739.61
597.662	20336.16
597.859	20776.47
598.055	20362.78
598.252	20237.86
598.448	20301.34
598.645	20330.02
598.841	20207.14
599.038	20383.26
599.234	20190.75
599.431	19990.05
599.627	20110.88
599.824	20008.48
600.02	19901.99
600.217	19889.7
600.413	19674.67
600.609	19639.85
600.806	19605.03
601.002	19656.23
601.198	19609.13
601.395	19353.13
601.591	19267.12
601.787	19310.13
601.984	19140.15
602.18	19586.6
602.376	18738.74
602.572	18835
602.769	19181.1
602.965	19107.38
603.161	18828.85
603.357	18757.18
603.553	18806.33
603.75	18871.86
603.946	18476.6
604.142	19039.79
604.338	18189.89
604.534	18441.79
604.73	18343.49
604.926	18343.49
605.122	18320.96
605.318	18075.2
605.514	18024
605.71	18077.25
605.906	18073.15
606.102	17954.37
606.298	18017.86
606.494	17933.89
606.69	18116.16
606.886	17716.81
607.082	17645.13
607.278	17831.49
607.474	17413.71
607.67	17620.55
607.866	17305.17
608.062	17831.49
608.257	17260.11
608.453	17575.5
608.649	17581.64
608.845	17159.76
609.041	17112.66
609.236	17198.67
609.432	17364.56
609.628	17110.61
609.824	16914
610.019	17106.51
610.215	17290.83
610.411	17069.65
610.606	16911.96
610.802	17104.46
610.998	16922.2
611.193	16971.35
611.389	16731.73
611.584	16594.52
611.78	16528.99
611.976	16438.87
612.171	16856.66
612.367	16629.34
612.562	16598.62
612.758	16371.29
612.953	16168.54
613.149	16451.16
613.344	16258.65
613.539	16477.79
613.735	16494.17
613.93	16223.84
614.126	16125.54
614.321	16328.28
614.517	16123.49
614.712	16356.96
614.907	16068.19
615.103	16256.61
615.298	15904.35
615.493	16156.25
615.688	15867.49
615.884	16217.69
616.079	15961.7
616.274	15922.79
616.47	15879.78
616.665	15916.64
616.86	15838.82
617.055	15867.49
617.25	15734.37
617.445	15871.59
617.641	15476.33
617.836	15658.6
618.031	15511.14
618.226	15470.19
618.421	15447.66
618.616	15148.65
618.811	15199.85
619.006	15505
619.201	14878.32
619.396	15066.74
619.591	14739.06
619.786	15091.31
619.981	14906.99
620.176	14925.43
620.371	14790.26
620.566	14913.14
620.761	14642.81
620.956	14753.4
621.151	14380.67
621.346	14397.05
621.541	14499.45
621.735	14399.1
621.93	14120.57
622.125	14292.6
622.32	14046.85
622.515	14376.57
622.709	13909.63
622.904	14104.19
623.099	13831.81
623.294	13782.66
623.488	13405.83
623.683	13514.38
623.878	13659.78
624.072	13651.59
624.267	13356.68
624.462	13409.93
624.656	13285
624.851	13221.52
625.046	12918.42
625.24	13250.19
625.435	12805.78
625.629	12953.23
625.824	12701.33
626.018	12879.5
626.213	12621.46
626.407	12519.06
626.602	12590.74
626.796	12746.39
626.991	12394.14
627.185	12414.62
627.38	12312.22
627.574	12168.86
627.768	12115.61
627.963	12056.22
628.157	11945.63
628.352	12187.29
628.546	11681.44
628.74	11898.53
628.935	11523.75
629.129	11620
629.323	11515.56
629.517	11378.34
629.712	11644.58
629.906	11497.13
630.1	11417.26
630.294	11536.04
630.489	11296.42
630.683	11392.68
630.877	11218.6
631.071	10968.75
631.265	11042.48
631.459	10960.56
631.653	10907.31
631.848	10743.47
632.042	10714.8
632.236	10624.69
632.43	10802.86
632.624	10628.79
632.818	10606.26
633.012	10464.95
633.206	10309.3
633.4	10399.41
633.594	10278.58
633.788	10395.32
633.982	10229.43
634.176	10092.22
634.369	10008.25
634.563	10100.41
634.757	10051.26
634.951	10045.12
635.145	9989.82
635.339	9924.29
635.533	9711.3
635.726	9682.63
635.92	9615.04
636.114	9563.84
636.308	9672.39
636.501	9543.36
636.695	9762.5
636.889	9426.63
637.083	9486.02
637.276	9330.37
637.47	9293.51
637.664	9369.29
637.857	9316.04
638.051	9148.11
638.244	9211.59
638.438	9043.66
638.632	9019.08
638.825	8802
639.019	9045.71
639.212	8783.57
639.406	8779.47
639.599	8761.04
639.793	8629.97
639.986	8613.59
640.18	8476.37
640.373	8627.92
640.567	8570.58
640.76	8494.8
640.954	8318.68
641.147	8306.39
641.34	8228.57
641.534	8253.14
641.727	8220.38
641.92	8171.22
642.114	8130.27
642.307	8167.13
642.5	8124.12
642.694	7823.07
642.887	8068.83
643.08	7876.32
643.273	7864.03
643.467	7792.35
643.66	7681.76
643.853	7687.9
644.046	7507.68
644.239	7687.9
644.432	7599.84
644.626	7608.03
644.819	7540.45
645.012	7491.3
645.205	7681.76
645.398	7450.34
645.591	7313.13
645.784	7169.77
645.977	7192.3
646.17	7413.48
646.363	7319.27
646.556	7102.18
646.749	7018.22
646.942	7118.57
647.135	7018.22
647.328	7053.03
647.521	6895.34
647.714	6782.7
647.907	6868.72
648.099	6770.41
648.292	6713.07
648.485	6737.65
648.678	6541.04
648.871	6582
649.064	6514.42
649.256	6631.15
649.449	6594.29
649.642	6369.01
649.835	6541.04
650.027	6336.24
650.22	6561.52
650.413	6289.14
650.605	6362.87
650.798	6395.64
650.991	6184.69
651.183	6278.9
651.376	6059.77
651.568	6033.15
651.761	6086.39
651.954	6033.15
652.146	6082.3
652.339	6043.39
652.531	5953.27
652.724	5951.23
652.916	5814.01
653.109	5918.46
653.301	5838.59
653.494	5854.97
653.686	5758.72
653.879	5828.35
654.071	5779.2
654.263	5713.66
654.456	5633.79
654.648	5629.7
654.84	5535.49
655.033	5662.46
655.225	5494.53
655.417	5492.48
655.61	5285.64
655.802	5461.76
655.994	5558.02
656.186	5091.08
656.379	5250.82
656.571	5273.35
656.763	5246.73
656.955	5076.74
657.148	5017.35
657.34	5037.83
657.532	5179.14
657.724	4847.37
657.916	5025.54
658.108	4957.96
658.3	4894.47
658.492	4939.53
658.684	4828.94
658.876	4763.4
659.068	4757.26
659.26	4904.71
659.452	4806.41
659.644	4781.84
659.836	4814.6
660.028	4781.84
660.22	4652.81
660.412	4624.14
660.604	4525.84
660.796	4550.42
660.988	4650.77
661.18	4488.98
661.372	4554.51
661.563	4497.17
661.755	4470.55
661.947	4319
662.139	4284.18
662.331	4308.76
662.522	4405.01
662.714	4398.87
662.906	4421.39
663.097	4183.83
663.289	4232.98
663.481	4259.6
663.673	4081.43
663.864	4159.25
664.056	4097.81
664.247	4194.07
664.439	4126.49
664.631	4157.21
664.822	4044.57
665.014	3981.08
665.205	3878.68
665.397	3860.25
665.588	3952.41
665.78	3921.69
665.971	3817.24
666.163	3909.4
666.354	3768.09
666.546	3680.03
666.737	3821.34
666.929	3747.61
667.12	3710.75
667.311	3723.04
667.503	3700.51
667.694	3657.5
667.885	3616.54
668.077	3759.9
668.268	3536.67
668.459	3571.49
668.651	3553.06
668.842	3546.91
669.033	3313.44
669.224	3536.67
669.416	3471.14
669.607	3528.48
669.798	3456.8
669.989	3440.42
670.18	3391.27
670.371	3499.81
670.563	3305.25
670.754	3321.63
670.945	3264.29
671.136	3438.37
671.327	3346.21
671.518	3407.65
671.709	3256.1
671.9	3239.72
672.091	3237.67
672.282	3301.15
672.473	3329.83
672.664	3149.61
672.855	3329.83
673.046	3223.33
673.237	3225.38
673.428	3135.27
673.619	3104.55
673.809	2996.01
674	3172.13
674.191	3165.99
674.382	3075.88
674.573	3082.02
674.764	3018.54
674.954	3092.26
675.145	2946.86
675.336	3075.88
675.527	3059.49
675.717	2955.05
675.908	2932.52
676.099	2993.96
676.289	2848.55
676.48	2922.28
676.671	2901.8
676.861	2977.58
677.052	3004.2
677.243	2830.12
677.433	3010.34
677.624	2895.66
677.814	2891.56
678.005	2840.36
678.195	2987.82
678.386	2856.75
678.576	2895.66
678.767	2838.31
678.957	2744.11
679.148	2848.55
679.338	2922.28
679.529	2836.27
679.719	2873.13
679.909	2989.86
680.1	2922.28
680.29	2813.74
680.481	2748.2
680.671	2735.92
680.861	2768.68
681.052	2838.31
681.242	2780.97
681.432	2711.34
681.622	2690.86
681.813	2635.57
682.003	2686.76
682.193	2658.09
682.383	2764.59
682.573	2654
682.764	2658.09
682.954	2647.85
683.144	2735.92
683.334	2715.44
683.524	2766.64
683.714	2619.18
683.904	2678.57
684.094	2643.76
684.284	2674.48
684.474	2715.44
684.664	2676.52
684.854	2600.75
685.044	2662.19
685.234	2621.23
685.424	2701.1
685.614	2619.18
685.804	2617.13
685.994	2674.48
686.184	2721.58
686.374	2518.83
686.564	2594.61
686.753	2625.33
686.943	2631.47
687.133	2649.9
687.323	2592.56
687.513	2608.94
687.702	2690.86
687.892	2705.2
688.082	2543.41
688.272	2535.21
688.461	2570.03
688.651	2610.99
688.841	2531.12
689.03	2465.58
689.22	2535.21
689.41	2408.24
689.599	2567.98
689.789	2471.73
689.979	2488.11
690.168	2567.98
690.358	2395.95
690.547	2506.54
690.737	2414.38
690.926	2463.54
691.116	2422.58
691.305	2508.59
691.495	2422.58
691.684	2314.03
691.874	2342.71
692.063	2375.47
692.252	2395.95
692.442	2412.34
692.631	2398
692.82	2510.64
693.01	2361.14
693.199	2375.47
693.388	2338.61
693.578	2322.23
693.767	2336.56
693.956	2350.9
694.146	2410.29
694.335	2373.43
694.524	2279.22
694.713	2354.99
694.902	2346.8
695.092	2250.55
695.281	2436.91
695.47	2363.19
695.659	2322.23
695.848	2350.9
696.037	2205.49
696.226	2400.05
696.415	2240.31
696.604	2400.05
696.793	2359.09
696.982	2207.54
697.171	2346.8
697.36	2240.31
697.549	2236.21
697.738	2178.87
697.927	2246.45
698.116	2248.5
698.305	2318.13
698.494	2244.4
698.683	2244.4
698.872	2303.79
699.061	2281.27
699.25	2207.54
699.438	2187.06
699.627	2111.29
699.816	2228.02
700.005	2256.69
700.193	2191.16
700.382	2162.48
700.571	2162.48
700.76	2182.96
700.948	2170.68
701.137	2185.01
701.326	2158.39
701.514	2119.48
701.703	2129.72
701.892	2160.44
702.08	2182.96
702.269	2152.24
702.457	2146.1
702.646	2094.9
702.834	2096.95
703.023	2068.28
703.212	2230.07
703.4	1990.45
703.589	2105.14
703.777	2017.08
703.965	2055.99
704.154	2096.95
704.342	2053.94
704.531	2004.79
704.719	2176.82
704.907	2119.48
705.096	1969.98
705.284	2086.71
705.472	2068.28
705.661	2012.98
705.849	2047.8
706.037	2135.86
706.226	2199.35
706.414	2174.77
706.602	2060.09
706.79	2232.12
706.979	2072.37
707.167	2133.81
707.355	2078.52
707.543	2107.19
707.731	2064.18
707.919	2002.74
708.107	2027.32
708.296	2068.28
708.484	2029.37
708.672	2070.33
708.86	2060.09
709.048	2058.04
709.236	1892.15
709.424	2099
709.612	2023.22
709.8	1941.3
709.988	2103.09
710.176	2019.13
710.364	1959.74
710.551	1898.3
710.739	1986.36
710.927	2006.84
711.115	2019.13
711.303	1929.02
711.491	1953.59
711.679	1929.02
711.866	2002.74
712.054	1855.29
712.242	1953.59
712.43	1972.02
712.617	1922.87
712.805	1892.15
712.993	1906.49
713.181	1908.54
713.368	1937.21
713.556	1873.72
713.744	1890.1
713.931	1953.59
714.119	1898.3
714.306	1855.29
714.494	1980.22
714.682	1906.49
714.869	1822.52
715.057	1865.53
715.244	1789.75
715.432	2043.7
715.619	1863.48
715.807	1922.87
715.994	1879.86
716.182	1986.36
716.369	1843
716.556	1986.36
716.744	1943.35
716.931	1783.61
717.119	1847.1
717.306	1744.7
717.493	1896.25
717.681	1873.72
717.868	1920.82
718.055	1892.15
718.242	1892.15
718.43	1847.1
718.617	1840.95
718.804	1855.29
718.991	1873.72
719.179	1838.91
719.366	1783.61
719.553	1812.28
719.74	1718.08
719.927	1802.04
720.114	1799.99
720.301	1761.08
720.488	1793.85
720.676	1787.71
720.863	1797.95
721.05	1738.55
721.237	1857.34
721.424	1849.15
721.611	1840.95
721.798	1832.76
721.985	1773.37
722.172	1699.64
722.358	1761.08
722.545	1806.14
722.732	1875.77
722.919	1769.27
723.106	1642.3
723.293	1691.45
723.48	1777.47
723.667	1695.55
723.853	1773.37
724.04	1720.12
724.227	1724.22
724.414	1701.69
724.6	1738.55
724.787	1773.37
724.974	1773.37
725.161	1650.49
725.347	1648.44
725.534	1699.64
725.72	1742.65
725.907	1806.14
726.094	1711.93
726.28	1650.49
726.467	1691.45
726.653	1632.06
726.84	1748.79
727.027	1701.69
727.213	1695.55
727.4	1701.69
727.586	1767.23
727.773	1826.62
727.959	1654.59
728.145	1675.07
728.332	1728.31
728.518	1591.1
728.705	1636.16
728.891	1650.49
729.077	1625.92
729.264	1544
729.45	1728.31
729.636	1740.6
729.823	1642.3
730.009	1687.36
730.195	1740.6
730.382	1562.43
730.568	1605.44
730.754	1560.38
730.94	1634.11
731.126	1666.88
731.313	1707.84
731.499	1548.09
731.685	1722.17
731.871	1535.81
732.057	1775.42
732.243	1552.19
732.429	1584.96
732.615	1660.73
732.801	1662.78
732.987	1603.39
733.173	1611.58
733.359	1568.57
733.545	1505.09
733.731	1593.15
733.917	1597.24
734.103	1595.2
734.289	1566.53
734.475	1584.96
734.661	1644.35
734.847	1615.68
735.033	1679.16
735.219	1625.92
735.404	1515.33
735.59	1544
735.776	1601.34
735.962	1548.09
736.148	1701.69
736.333	1496.89
736.519	1685.31
736.705	1515.33
736.89	1494.85
737.076	1406.78
737.262	1521.47
737.447	1435.46
737.633	1550.14
737.819	1537.85
738.004	1517.37
738.19	1494.85
738.375	1507.13
738.561	1584.96
738.747	1584.96
738.932	1408.83
739.118	1486.65
739.303	1611.58
739.489	1470.27
739.674	1537.85
739.859	1537.85
740.045	1599.29
740.23	1414.98
740.416	1359.68
740.601	1453.89
740.786	1503.04
740.972	1466.17
741.157	1353.54
741.342	1394.5
741.528	1412.93
741.713	1480.51
741.898	1365.82
742.084	1337.15
742.269	1371.97
742.454	1406.78
742.639	1408.83
742.824	1369.92
743.01	1455.94
743.195	1457.98
743.38	1341.25
743.565	1380.16
743.75	1386.3
743.935	1396.54
744.12	1455.94
744.305	1347.39
744.49	1306.43
744.675	1298.24
744.86	1273.67
745.045	1355.58
745.23	1320.77
745.415	1414.98
745.6	1298.24
745.785	1318.72
745.97	1302.34
746.155	1277.76
746.34	1326.91
746.525	1175.36
746.71	1251.14
746.895	1273.67
747.079	1294.15
747.264	1236.8
747.449	1242.95
747.634	1265.47
747.819	1251.14
748.003	1224.51
748.188	1273.67
748.373	1126.21
748.557	1222.47
748.742	1163.08
748.927	1201.99
749.111	1158.98
749.296	1032.01
749.481	1163.08
749.665	1136.45
749.85	1138.5
750.034	1181.51
750.219	1085.25
750.404	1118.02
750.588	1175.36
750.773	1054.53
750.957	999.24
751.141	1132.36
751.326	1150.79
751.51	1089.35
751.695	1111.88
751.879	1105.73
752.064	1038.15
752.248	1054.53
752.432	1085.25
752.617	1021.77
752.801	1040.2
752.985	997.19
753.17	978.76
753.354	939.85
753.538	1142.6
753.722	948.04
753.907	954.18
754.091	929.61
754.275	966.47
754.459	923.46
754.643	929.61
754.828	993.09
755.012	945.99
755.196	1017.67
755.38	835.4
755.564	995.14
755.748	905.03
755.932	925.51
756.116	896.84
756.3	839.5
756.484	872.26
756.668	839.5
756.852	812.87
757.036	831.3
757.22	872.26
757.404	890.7
757.588	843.59
757.772	829.26
757.956	862.02
758.14	907.08
758.323	806.73
758.507	933.7
758.691	806.73
758.875	798.54
759.059	769.87
759.242	966.47
759.426	794.44
759.61	743.24
759.794	804.68
759.977	735.05
760.161	843.59
760.345	888.65
760.528	800.59
760.712	642.89
760.895	784.2
761.079	776.01
761.263	687.95
761.446	761.67
761.63	800.59
761.813	739.15
761.997	749.39
762.18	737.1
762.364	683.85
762.547	671.56
762.731	653.13
762.914	759.63
763.098	659.28
763.281	687.95
763.464	667.47
763.648	769.87
763.831	669.52
764.015	649.04
764.198	675.66
764.381	642.89
764.564	626.51
764.748	669.52
764.931	659.28
765.114	755.53
765.297	661.32
765.481	757.58
765.664	632.65
765.847	612.17
766.03	661.32
766.213	692.04
766.397	626.51
766.58	659.28
766.763	667.47
766.946	710.47
767.129	663.37
767.312	696.14
767.495	694.09
767.678	663.37
767.861	634.7
768.044	622.41
768.227	642.89
768.41	614.22
768.593	646.99
768.776	651.08
768.959	522.06
769.142	644.94
769.324	601.93
769.507	646.99
769.69	677.71
769.873	634.7
770.056	616.27
770.239	620.36
770.421	661.32
770.604	610.12
770.787	669.52
770.97	626.51
771.152	532.3
771.335	499.53
771.518	601.93
771.7	628.56
771.883	628.56
772.066	595.79
772.248	552.78
772.431	718.67
772.613	577.36
772.796	540.49
772.978	569.16
773.161	665.42
773.343	569.16
773.526	571.21
773.708	466.77
773.891	472.91
774.073	618.32
774.256	513.87
774.438	595.79
774.621	550.73
774.803	515.92
774.985	438.09
775.168	481.1
775.35	560.97
775.532	579.4
775.715	513.87
775.897	624.46
776.079	479.05
776.261	507.73
776.444	495.44
776.626	487.25
776.808	524.11
776.99	417.61
777.173	515.92
777.355	511.82
777.537	421.71
777.719	507.73
777.901	448.33
778.083	446.29
778.265	474.96
778.447	501.58
778.629	462.67
778.811	397.14
778.993	407.38
779.175	458.57
779.357	350.03
779.539	343.89
779.721	491.34
779.903	464.72
780.085	429.9
780.267	444.24
780.449	390.99
780.631	495.44
780.812	448.33
780.994	413.52
781.176	397.14
781.358	397.14
781.54	364.37
781.721	388.94
781.903	341.84
782.085	339.79
782.267	372.56
782.448	366.42
782.63	298.83
782.812	356.18
782.993	356.18
783.175	399.18
783.357	395.09
783.538	360.27
783.72	323.41
783.901	380.75
784.083	413.52
784.264	380.75
784.446	339.79
784.627	329.55
784.809	397.14
784.99	309.07
785.172	290.64
785.353	339.79
785.535	409.42
785.716	266.07
785.897	266.07
786.079	376.66
786.26	276.31
786.441	358.22
786.623	257.87
786.804	339.79
786.985	335.7
787.167	329.55
787.348	327.5
787.529	333.65
787.71	288.59
787.891	249.68
788.073	229.2
788.254	225.11
788.435	288.59
788.616	231.25
788.797	294.74
788.978	282.45
789.159	223.06
789.34	323.41
789.522	266.07
789.703	270.16
789.884	315.22
790.065	239.44
790.246	350.03
790.427	210.77
790.607	253.78
790.788	319.31
790.969	225.11
791.15	257.87
791.331	229.2
791.512	237.39
791.693	247.63
791.874	182.1
792.054	296.78
792.235	276.31
792.416	274.26
792.597	188.24
792.778	202.58
792.958	225.11
793.139	196.43
793.32	212.82
793.5	200.53
793.681	278.35
793.862	149.33
794.042	190.29
794.223	175.95
794.404	233.3
794.584	204.63
794.765	186.19
794.945	167.76
795.126	208.72
795.306	202.58
795.487	204.63
795.667	151.38
795.848	171.86
796.028	161.62
796.209	184.15
796.389	188.24
796.57	208.72
796.75	245.59
796.93	178
797.111	184.15
797.291	171.86
797.471	163.67
797.652	210.77
797.832	114.52
798.012	233.3
798.192	143.19
798.373	192.34
798.553	178
798.733	200.53
798.913	192.34
799.093	155.47
799.274	135
799.454	227.15
799.634	147.28
799.814	196.43
799.994	114.52
800.174	261.97
800.354	102.23
800.534	89.94
800.714	153.43
800.894	118.61
801.074	159.57
801.254	143.19
801.434	225.11
801.614	112.47
801.794	112.47
801.974	687.95
802.154	89.94
802.334	167.76
802.514	135
802.693	208.72
802.873	159.57
803.053	153.43
803.233	200.53
803.413	77.65
803.592	132.95
803.772	167.76
803.952	110.42
804.131	216.91
804.311	110.42
804.491	135
804.67	130.9
804.85	126.8
805.03	135
805.209	175.95
805.389	194.39
805.568	108.37
805.748	87.89
805.928	143.19
806.107	167.76
806.287	126.8
806.466	110.42
806.646	130.9
806.825	169.81
807.004	53.08
807.184	89.94
807.363	139.09
807.543	186.19
807.722	14.17
807.901	161.62
808.081	118.61
808.26	178
808.439	180.05
808.619	124.76
808.798	124.76
808.977	83.8
809.156	147.28
809.336	139.09
809.515	118.61
809.694	98.13
809.873	104.28
810.052	161.62
810.231	178
810.411	85.84
810.59	118.61
810.769	159.57
810.948	114.52
811.127	69.46
811.306	102.23
811.485	118.61
811.664	135
811.843	118.61
812.022	102.23
812.201	46.93
812.38	63.32
812.559	94.04
812.737	89.94
812.916	79.7
813.095	77.65
813.274	137.04
813.453	28.5
813.632	143.19
813.811	204.63
813.989	44.88
814.168	71.51
814.347	67.41
814.526	145.24
814.704	126.8
814.883	96.08
815.062	73.56
815.24	87.89
815.419	87.89
815.598	46.93
815.776	79.7
815.955	46.93
816.133	77.65
816.312	98.13
816.49	106.32
816.669	63.32
816.847	30.55
817.026	120.66
817.204	141.14
817.383	55.12
817.561	12.12
817.74	98.13
817.918	118.61
818.097	100.18
818.275	20.31
818.453	135
818.632	87.89
818.81	61.27
818.988	108.37
819.167	44.88
819.345	98.13
819.523	122.71
819.701	61.27
819.879	61.27
820.058	128.85
820.236	79.7
820.414	91.99
820.592	128.85
820.77	48.98
820.948	69.46
821.127	34.64
821.305	91.99
821.483	71.51
821.661	110.42
821.839	128.85
822.017	22.36
822.195	3.93
822.373	77.65
822.551	53.08
822.729	8.02
822.907	71.51
823.085	69.46
823.262	85.84
823.44	102.23
823.618	63.32
823.796	96.08
823.974	-8.36
824.152	53.08
824.329	3.93
824.507	48.98
824.685	38.74
824.863	40.79
825.04	79.7
825.218	48.98
825.396	73.56
825.574	-6.31
825.751	102.23
825.929	77.65
826.107	77.65
826.284	36.69
826.462	28.5
826.639	-4.27
826.817	20.31
826.994	147.28
827.172	-4.27
827.349	42.84
827.527	-6.31
827.704	55.12
827.882	100.18
828.059	94.04
828.237	53.08
828.414	55.12
828.591	61.27
828.769	139.09
828.946	-41.13
829.124	20.31
829.301	81.75
829.478	77.65
829.655	-51.37
829.833	20.31
830.01	26.45
830.187	28.5
830.364	3.93
830.542	-20.65
830.719	102.23
830.896	87.89
831.073	44.88
831.25	8.02
831.427	-10.41
831.604	40.79
831.782	-37.03
831.959	77.65
832.136	65.36
832.313	63.32
832.49	73.56
832.667	38.74
832.844	38.74
833.021	-16.55
833.198	110.42
833.374	-24.75
833.551	57.17
833.728	57.17
833.905	85.84
834.082	-20.65
834.259	-20.65
834.436	98.13
834.612	8.02
834.789	40.79
834.966	28.5
835.143	12.12
835.319	3.93
835.496	71.51
835.673	42.84
835.85	16.21
836.026	-0.17
836.203	32.6
836.38	44.88
836.556	20.31
836.733	22.36
836.909	44.88
837.086	3.93
837.262	-49.32
837.439	-4.27
837.616	12.12
837.792	18.26
837.968	73.56
838.145	65.36
838.321	-4.27
838.498	-16.55
838.674	-4.27
838.851	3.93
839.027	55.12
839.203	3.93
839.38	-43.18
839.556	16.21
839.732	96.08
839.909	26.45
840.085	61.27
840.261	-18.6
840.437	-2.22
840.614	-6.31
840.79	89.94
840.966	40.79
841.142	55.12
841.318	85.84
841.494	30.55
841.671	-4.27
841.847	61.27
842.023	-20.65
842.199	-16.55
842.375	8.02
842.551	26.45
842.727	-4.27
842.903	5.97
843.079	61.27
843.255	20.31
843.431	18.26
843.607	28.5
843.783	57.17
843.959	73.56
844.134	22.36
844.31	53.08
844.486	-37.03
844.662	-4.27
844.838	-20.65
845.013	-53.42
845.189	73.56
845.365	-45.23
845.541	-0.17
845.716	-32.94
845.892	46.93
846.068	30.55
846.244	-51.37
846.419	12.12
846.595	75.6
846.77	-8.36
846.946	46.93
847.122	-53.42
847.297	67.41
847.473	69.46
847.648	1.88
847.824	5.97
847.999	44.88
848.175	3.93
848.35	36.69
848.526	89.94
848.701	8.02
848.876	57.17
849.052	-8.36
849.227	-32.94
849.403	53.08
849.578	26.45
849.753	55.12
849.929	-30.89
850.104	3.93
850.279	-41.13
850.454	46.93
850.63	94.04
850.805	-4.27
850.98	12.12
851.155	14.17
851.33	38.74
851.505	34.64
851.681	65.36
851.856	8.02
852.031	36.69
852.206	-32.94
852.381	14.17
852.556	-51.37
852.731	55.12
852.906	24.4
853.081	81.75
853.256	48.98
853.431	20.31
853.606	1.88
853.781	14.17
853.956	-90.28
854.131	14.17
854.305	-45.23
854.48	44.88
854.655	-12.46
854.83	3.93
855.005	-43.18
855.18	46.93
855.354	36.69
855.529	3.93
855.704	-39.08
855.879	20.31
856.053	12.12
856.228	24.4
856.403	20.31
856.577	36.69
856.752	-4.27
856.926	-67.75
857.101	-39.08
857.276	22.36
857.45	20.31
857.625	-0.17
857.799	1.88
857.974	-12.46
858.148	-18.6
858.323	71.51
858.497	40.79
858.672	-14.51
858.846	44.88
859.02	3.93
859.195	28.5
859.369	-26.79
859.543	-49.32
859.718	10.07
859.892	55.12
860.066	-16.55
860.241	-61.61
860.415	-2.22
860.589	-28.84
860.763	44.88
860.938	-32.94
861.112	14.17
861.286	-18.6
861.46	36.69
861.634	-34.99
861.808	20.31
861.982	14.17
862.157	30.55
862.331	-86.19
862.505	-28.84
862.679	-53.42
862.853	-4.27
863.027	40.79
863.201	-32.94
863.375	65.36
863.549	44.88
863.722	36.69
863.896	14.17
864.07	1.88
864.244	-51.37
864.418	-32.94
864.592	40.79
864.766	-12.46
864.939	-12.46
865.113	-2.22
865.287	20.31
865.461	24.4
865.634	1.88
865.808	-51.37
865.982	-26.79
866.156	-8.36
866.329	-90.28
866.503	-34.99
866.676	22.36
866.85	16.21
867.024	-2.22
867.197	-32.94
867.371	59.22
867.544	44.88
867.718	-2.22
867.891	12.12
868.065	-55.47
868.238	-6.31
868.412	-20.65
868.585	36.69
868.759	69.46
868.932	20.31
869.105	-28.84
869.279	-24.75
869.452	-53.42
869.625	53.08
869.799	-34.99
869.972	-69.8
870.145	-2.22
870.319	65.36
870.492	-12.46
870.665	-61.61
870.838	-12.46
871.011	-61.61
871.185	3.93
871.358	-82.09
871.531	-12.46
871.704	-18.6
871.877	-20.65
872.05	-55.47
872.223	-94.38
872.396	44.88
872.569	-53.42
872.742	-8.36
872.915	20.31
873.088	-10.41
873.261	-8.36
873.434	-37.03
873.607	-4.27
873.78	12.12
873.953	-2.22
874.126	-10.41
874.299	16.21
874.471	-43.18
874.644	16.21
874.817	81.75
874.99	28.5
875.163	-55.47
875.335	67.41
875.508	14.17
875.681	26.45
875.853	-45.23
876.026	-22.7
876.199	-12.46
876.371	-18.6
876.544	-61.61
876.717	-69.8
876.889	-37.03
877.062	3.93
877.234	-49.32
877.407	-69.8
877.579	-67.75
877.752	30.55
877.924	3.93
878.097	-47.27
878.269	5.97
878.442	-0.17
878.614	-77.99
878.786	-10.41
878.959	-24.75
879.131	16.21
879.303	-61.61
879.476	28.5
879.648	-45.23
879.82	-34.99
879.993	3.93
880.165	-37.03
880.337	-69.8
880.509	-53.42
880.681	-37.03
880.854	3.93
881.026	-2.22
881.198	48.98
881.37	-45.23
881.542	-12.46
881.714	-28.84
881.886	-4.27
882.058	-28.84
882.23	-12.46
882.402	48.98
882.574	20.31
882.746	-4.27
882.918	48.98
883.09	-41.13
883.262	-59.56
883.434	-12.46
883.606	-43.18
883.778	-0.17
883.95	20.31
884.122	-16.55
884.293	36.69
884.465	-69.8
884.637	30.55
884.809	16.21
884.98	-18.6
885.152	28.5
885.324	20.31
885.496	-53.42
885.667	51.03
885.839	-65.71
886.011	12.12
886.182	-51.37
886.354	-24.75
886.525	-8.36
886.697	118.61
886.869	-24.75
887.04	-80.04
887.212	42.84
887.383	24.4
887.555	-2.22
887.726	69.46
887.897	-32.94
888.069	-20.65
888.24	1.88
888.412	-24.75
888.583	-53.42
888.754	-77.99
888.926	-88.23
889.097	1.88
889.268	-94.38
889.44	-8.36
889.611	-82.09
889.782	-32.94
889.953	-92.33
890.125	-12.46
890.296	-49.32
890.467	-20.65
890.638	-37.03
890.809	20.31
890.98	-77.99
891.151	20.31
891.323	53.08
891.494	8.02
891.665	-18.6
891.836	3.93
892.007	-71.85
892.178	-6.31
892.349	3.93
892.52	-0.17
892.691	-104.62
892.862	-26.79
893.032	-30.89
893.203	-45.23
893.374	-16.55
893.545	-12.46
893.716	-80.04
893.887	-61.61
894.057	-43.18
894.228	69.46
894.399	-57.51
894.57	5.97
894.74	12.12
894.911	24.4
895.082	-45.23
895.253	-8.36
895.423	48.98
895.594	38.74
895.764	12.12
895.935	-10.41
896.106	-8.36
896.276	-61.61
896.447	20.31
896.617	-20.65
896.788	-45.23
896.958	-45.23
897.129	-26.79
897.299	-22.7
897.47	38.74
897.64	8.02
897.81	-55.47
897.981	-28.84
898.151	-69.8
898.322	-18.6
898.492	20.31
898.662	-24.75
898.832	-53.42
899.003	-28.84
899.173	30.55
899.343	55.12
899.513	-55.47
