Data from USB4F104151__304__14-46-39-891.txt Node

Date: Thu Mar 13 14:46:39 EDT 2025
User: louis
Spectrometer: USB4F10415
Trigger mode: 4
Integration Time (sec): 2.000000E-2
Scans to average: 1
Electric dark correction enabled: true
Nonlinearity correction enabled: false
Boxcar width: 0
XAxis mode: Wavelengths
Number of Pixels in Spectrum: 3648
>>>>>Begin Spectral Data<<<<<
178.204	-145.75
178.424	-145.75
178.644	-145.75
178.864	-35.16
179.084	-125.27
179.304	-14.68
179.524	-35.16
179.744	-24.92
179.964	71.34
180.184	-59.73
180.404	40.62
180.624	-26.96
180.844	20.14
181.064	3.75
181.283	16.04
181.503	-0.34
181.723	9.9
181.943	-51.54
182.163	59.05
182.383	7.85
182.602	61.1
182.822	24.23
183.042	-2.39
183.262	5.8
183.482	-18.77
183.701	34.47
183.921	87.72
184.141	63.15
184.361	11.95
184.58	-41.3
184.8	16.04
185.02	-18.77
185.239	13.99
185.459	34.47
185.679	87.72
185.898	-10.58
186.118	52.91
186.338	-4.44
186.557	95.91
186.777	24.23
186.997	-0.34
187.216	-14.68
187.436	40.62
187.655	30.38
187.875	93.87
188.095	112.3
188.314	54.95
188.534	97.96
188.753	32.43
188.973	65.19
189.192	50.86
189.412	50.86
189.631	-8.53
189.851	24.23
190.07	59.05
190.29	-10.58
190.509	-14.68
190.729	42.67
190.948	120.49
191.168	114.34
191.387	67.24
191.607	-35.16
191.826	69.29
192.045	36.52
192.265	81.58
192.484	38.57
192.704	79.53
192.923	13.99
193.142	75.43
193.362	13.99
193.581	67.24
193.8	-18.77
194.02	22.19
194.239	-41.3
194.458	-18.77
194.678	83.63
194.897	26.28
195.116	22.19
195.335	54.95
195.555	50.86
195.774	40.62
195.993	22.19
196.212	48.81
196.432	46.76
196.651	63.15
196.87	5.8
197.089	71.34
197.308	40.62
197.528	30.38
197.747	1.71
197.966	-18.77
198.185	30.38
198.404	9.9
198.623	104.11
198.842	-26.96
199.062	116.39
199.281	54.95
199.5	-10.58
199.719	-2.39
199.938	-43.35
200.157	24.23
200.376	34.47
200.595	22.19
200.814	24.23
201.033	54.95
201.252	91.82
201.471	61.1
201.69	54.95
201.909	75.43
202.128	73.39
202.347	5.8
202.566	-6.49
202.785	-6.49
203.004	22.19
203.223	106.15
203.442	-0.34
203.661	-39.25
203.879	114.34
204.098	108.2
204.317	32.43
204.536	63.15
204.755	38.57
204.974	85.67
205.193	24.23
205.411	120.49
205.63	40.62
205.849	38.57
206.068	36.52
206.287	-10.58
206.505	140.97
206.724	-39.25
206.943	85.67
207.162	38.57
207.381	38.57
207.599	71.34
207.818	36.52
208.037	22.19
208.255	-51.54
208.474	79.53
208.693	73.39
208.911	20.14
209.13	9.9
209.349	100.01
209.567	-4.44
209.786	42.67
210.005	46.76
210.223	46.76
210.442	61.1
210.661	75.43
210.879	-49.49
211.098	-6.49
211.316	5.8
211.535	46.76
211.753	34.47
211.972	48.81
212.191	16.04
212.409	48.81
212.628	-2.39
212.846	-6.49
213.065	71.34
213.283	24.23
213.502	-16.73
213.72	30.38
213.938	61.1
214.157	44.71
214.375	120.49
214.594	32.43
214.812	38.57
215.031	32.43
215.249	26.28
215.467	16.04
215.686	95.91
215.904	87.72
216.122	-8.53
216.341	38.57
216.559	-2.39
216.778	79.53
216.996	61.1
217.214	16.04
217.432	57
217.651	9.9
217.869	50.86
218.087	30.38
218.306	83.63
218.524	87.72
218.742	40.62
218.96	46.76
219.179	-43.35
219.397	108.2
219.615	28.33
219.833	79.53
220.051	11.95
220.27	110.25
220.488	85.67
220.706	67.24
220.924	38.57
221.142	46.76
221.36	30.38
221.578	81.58
221.796	46.76
222.015	104.11
222.233	-10.58
222.451	57
222.669	32.43
222.887	26.28
223.105	-35.16
223.323	24.23
223.541	1.71
223.759	91.82
223.977	-20.82
224.195	87.72
224.413	67.24
224.631	136.87
224.849	9.9
225.067	130.73
225.285	-0.34
225.503	79.53
225.721	22.19
225.939	100.01
226.157	57
226.375	57
226.592	-26.96
226.81	28.33
227.028	30.38
227.246	69.29
227.464	48.81
227.682	81.58
227.9	7.85
228.117	57
228.335	83.63
228.553	-43.35
228.771	89.77
228.989	120.49
229.206	44.71
229.424	22.19
229.642	13.99
229.86	40.62
230.077	57
230.295	13.99
230.513	13.99
230.731	83.63
230.948	81.58
231.166	108.2
231.384	38.57
231.601	48.81
231.819	44.71
232.037	-51.54
232.254	5.8
232.472	48.81
232.689	-26.96
232.907	48.81
233.125	5.8
233.342	16.04
233.56	1.71
233.777	34.47
233.995	11.95
234.213	79.53
234.43	-14.68
234.648	-14.68
234.865	57
235.083	30.38
235.3	71.34
235.518	-39.25
235.735	54.95
235.953	89.77
236.17	-18.77
236.388	102.06
236.605	71.34
236.822	95.91
237.04	22.19
237.257	50.86
237.475	-0.34
237.692	65.19
237.909	34.47
238.127	-14.68
238.344	24.23
238.562	46.76
238.779	42.67
238.996	-86.36
239.214	67.24
239.431	63.15
239.648	108.2
239.865	5.8
240.083	48.81
240.3	9.9
240.517	-67.92
240.735	52.91
240.952	112.3
241.169	-10.58
241.386	44.71
241.603	65.19
241.821	-24.92
242.038	71.34
242.255	42.67
242.472	57
242.689	50.86
242.907	22.19
243.124	5.8
243.341	34.47
243.558	30.38
243.775	-43.35
243.992	38.57
244.209	-6.49
244.426	40.62
244.643	108.2
244.86	38.57
245.078	-24.92
245.295	40.62
245.512	-55.64
245.729	30.38
245.946	46.76
246.163	5.8
246.38	26.28
246.597	46.76
246.814	32.43
247.031	-10.58
247.248	57
247.464	57
247.681	-22.87
247.898	9.9
248.115	67.24
248.332	-12.63
248.549	87.72
248.766	79.53
248.983	30.38
249.2	44.71
249.417	42.67
249.633	54.95
249.85	40.62
250.067	42.67
250.284	-8.53
250.501	87.72
250.717	48.81
250.934	-2.39
251.151	81.58
251.368	79.53
251.585	67.24
251.801	75.43
252.018	-6.49
252.235	52.91
252.451	44.71
252.668	-2.39
252.885	57
253.102	1.71
253.318	-0.34
253.535	22.19
253.752	91.82
253.968	30.38
254.185	-6.49
254.401	34.47
254.618	32.43
254.835	-16.73
255.051	54.95
255.268	42.67
255.484	73.39
255.701	42.67
255.917	89.77
256.134	24.23
256.351	32.43
256.567	-22.87
256.784	32.43
257	22.19
257.217	71.34
257.433	61.1
257.65	73.39
257.866	65.19
258.082	1.71
258.299	42.67
258.515	-26.96
258.732	40.62
258.948	42.67
259.165	34.47
259.381	63.15
259.597	100.01
259.814	46.76
260.03	22.19
260.246	46.76
260.463	38.57
260.679	46.76
260.895	20.14
261.112	-4.44
261.328	44.71
261.544	40.62
261.761	132.78
261.977	54.95
262.193	-14.68
262.409	104.11
262.626	95.91
262.842	16.04
263.058	30.38
263.274	46.76
263.49	16.04
263.707	54.95
263.923	67.24
264.139	22.19
264.355	87.72
264.571	124.58
264.787	36.52
265.004	54.95
265.22	46.76
265.436	-18.77
265.652	54.95
265.868	24.23
266.084	34.47
266.3	67.24
266.516	13.99
266.732	46.76
266.948	59.05
267.164	24.23
267.38	63.15
267.596	81.58
267.812	116.39
268.028	-12.63
268.244	18.09
268.46	87.72
268.676	-47.44
268.892	22.19
269.108	36.52
269.324	-6.49
269.54	22.19
269.756	79.53
269.972	-22.87
270.188	38.57
270.403	-10.58
270.619	46.76
270.835	91.82
271.051	36.52
271.267	24.23
271.483	22.19
271.698	-43.35
271.914	50.86
272.13	-33.11
272.346	40.62
272.562	-31.06
272.777	42.67
272.993	87.72
273.209	63.15
273.425	116.39
273.64	-2.39
273.856	97.96
274.072	59.05
274.287	3.75
274.503	22.19
274.719	-18.77
274.934	59.05
275.15	44.71
275.366	32.43
275.581	38.57
275.797	54.95
276.012	30.38
276.228	28.33
276.444	59.05
276.659	122.54
276.875	18.09
277.09	32.43
277.306	-0.34
277.521	26.28
277.737	57
277.952	106.15
278.168	-26.96
278.383	89.77
278.599	38.57
278.814	48.81
279.03	32.43
279.245	5.8
279.461	36.52
279.676	169.64
279.892	69.29
280.107	73.39
280.322	-8.53
280.538	9.9
280.753	75.43
280.969	118.44
281.184	130.73
281.399	77.48
281.615	46.76
281.83	32.43
282.045	13.99
282.26	7.85
282.476	-10.58
282.691	42.67
282.906	16.04
283.122	38.57
283.337	16.04
283.552	54.95
283.767	75.43
283.983	42.67
284.198	-2.39
284.413	116.39
284.628	32.43
284.843	-26.96
285.058	75.43
285.274	42.67
285.489	-43.35
285.704	89.77
285.919	-55.64
286.134	20.14
286.349	42.67
286.564	-8.53
286.779	54.95
286.995	1.71
287.21	1.71
287.425	79.53
287.64	26.28
287.855	-24.92
288.07	26.28
288.285	48.81
288.5	57
288.715	63.15
288.93	54.95
289.145	54.95
289.36	73.39
289.575	40.62
289.79	81.58
290.004	20.14
290.219	110.25
290.434	48.81
290.649	59.05
290.864	16.04
291.079	61.1
291.294	-59.73
291.509	63.15
291.724	34.47
291.938	-2.39
292.153	116.39
292.368	46.76
292.583	89.77
292.798	63.15
293.012	63.15
293.227	40.62
293.442	46.76
293.657	59.05
293.871	71.34
294.086	71.34
294.301	87.72
294.516	38.57
294.73	114.34
294.945	-8.53
295.16	30.38
295.374	65.19
295.589	52.91
295.804	71.34
296.018	-2.39
296.233	104.11
296.447	22.19
296.662	1.71
296.877	71.34
297.091	63.15
297.306	13.99
297.52	46.76
297.735	63.15
297.949	-10.58
298.164	97.96
298.378	38.57
298.593	22.19
298.807	-33.11
299.022	42.67
299.236	130.73
299.451	65.19
299.665	26.28
299.88	-24.92
300.094	73.39
300.309	26.28
300.523	20.14
300.737	73.39
300.952	54.95
301.166	50.86
301.381	38.57
301.595	-16.73
301.809	16.04
302.024	24.23
302.238	20.14
302.452	54.95
302.667	65.19
302.881	67.24
303.095	7.85
303.309	87.72
303.524	69.29
303.738	100.01
303.952	59.05
304.166	-41.3
304.381	-10.58
304.595	38.57
304.809	52.91
305.023	11.95
305.237	-4.44
305.452	85.67
305.666	42.67
305.88	9.9
306.094	104.11
306.308	30.38
306.522	28.33
306.736	83.63
306.95	-6.49
307.164	65.19
307.379	50.86
307.593	93.87
307.807	95.91
308.021	30.38
308.235	63.15
308.449	-16.73
308.663	63.15
308.877	81.58
309.091	73.39
309.305	46.76
309.519	-2.39
309.733	104.11
309.947	54.95
310.161	36.52
310.374	87.72
310.588	1.71
310.802	22.19
311.016	34.47
311.23	91.82
311.444	-10.58
311.658	-22.87
311.872	93.87
312.085	112.3
312.299	32.43
312.513	-2.39
312.727	13.99
312.941	79.53
313.154	46.76
313.368	46.76
313.582	-14.68
313.796	46.76
314.009	59.05
314.223	79.53
314.437	-2.39
314.651	136.87
314.864	-18.77
315.078	42.67
315.292	32.43
315.505	83.63
315.719	46.76
315.933	30.38
316.146	-100.69
316.36	-0.34
316.573	24.23
316.787	48.81
317.001	20.14
317.214	46.76
317.428	30.38
317.641	13.99
317.855	36.52
318.068	67.24
318.282	130.73
318.495	112.3
318.709	57
318.922	63.15
319.136	136.87
319.349	24.23
319.563	1.71
319.776	67.24
319.99	57
320.203	73.39
320.417	75.43
320.63	9.9
320.843	46.76
321.057	38.57
321.27	30.38
321.483	3.75
321.697	63.15
321.91	95.91
322.124	18.09
322.337	65.19
322.55	34.47
322.763	46.76
322.977	42.67
323.19	63.15
323.403	65.19
323.617	69.29
323.83	16.04
324.043	46.76
324.256	63.15
324.469	38.57
324.683	120.49
324.896	18.09
325.109	67.24
325.322	44.71
325.535	34.47
325.748	40.62
325.962	87.72
326.175	52.91
326.388	13.99
326.601	106.15
326.814	57
327.027	30.38
327.24	42.67
327.453	-20.82
327.666	106.15
327.879	73.39
328.092	79.53
328.305	-16.73
328.518	73.39
328.731	59.05
328.944	93.87
329.157	79.53
329.37	-16.73
329.583	73.39
329.796	46.76
330.009	128.68
330.222	-14.68
330.435	91.82
330.648	18.09
330.861	57
331.073	77.48
331.286	9.9
331.499	59.05
331.712	87.72
331.925	63.15
332.138	71.34
332.35	67.24
332.563	48.81
332.776	71.34
332.989	61.1
333.202	40.62
333.414	46.76
333.627	71.34
333.84	54.95
334.053	71.34
334.265	91.82
334.478	57
334.691	-8.53
334.903	18.09
335.116	5.8
335.329	67.24
335.541	-4.44
335.754	122.54
335.966	95.91
336.179	85.67
336.392	18.09
336.604	75.43
336.817	63.15
337.029	145.06
337.242	5.8
337.454	128.68
337.667	5.8
337.88	32.43
338.092	38.57
338.305	136.87
338.517	32.43
338.729	-14.68
338.942	128.68
339.154	108.2
339.367	-2.39
339.579	1.71
339.792	9.9
340.004	75.43
340.217	22.19
340.429	16.04
340.641	18.09
340.854	-26.96
341.066	32.43
341.278	63.15
341.491	122.54
341.703	13.99
341.915	-22.87
342.128	134.82
342.34	38.57
342.552	22.19
342.764	36.52
342.977	59.05
343.189	132.78
343.401	128.68
343.613	-0.34
343.826	30.38
344.038	50.86
344.25	34.47
344.462	83.63
344.674	-8.53
344.886	104.11
345.099	65.19
345.311	79.53
345.523	59.05
345.735	-8.53
345.947	57
346.159	79.53
346.371	44.71
346.583	42.67
346.795	122.54
347.007	-35.16
347.219	122.54
347.431	71.34
347.643	71.34
347.855	13.99
348.067	30.38
348.279	140.97
348.491	57
348.703	40.62
348.915	65.19
349.127	36.52
349.339	57
349.551	65.19
349.763	85.67
349.975	71.34
350.187	61.1
350.399	124.58
350.61	13.99
350.822	65.19
351.034	46.76
351.246	46.76
351.458	79.53
351.669	71.34
351.881	89.77
352.093	81.58
352.305	95.91
352.517	38.57
352.728	124.58
352.94	26.28
353.152	114.34
353.363	40.62
353.575	122.54
353.787	50.86
353.999	61.1
354.21	71.34
354.422	122.54
354.633	36.52
354.845	65.19
355.057	40.62
355.268	9.9
355.48	77.48
355.692	11.95
355.903	28.33
356.115	28.33
356.326	50.86
356.538	102.06
356.749	50.86
356.961	42.67
357.172	3.75
357.384	-18.77
357.595	118.44
357.807	69.29
358.018	73.39
358.23	87.72
358.441	50.86
358.653	77.48
358.864	106.15
359.075	-2.39
359.287	46.76
359.498	128.68
359.709	65.19
359.921	81.58
360.132	147.11
360.344	100.01
360.555	75.43
360.766	89.77
360.977	91.82
361.189	97.96
361.4	40.62
361.611	30.38
361.823	79.53
362.034	22.19
362.245	-20.82
362.456	52.91
362.667	46.76
362.879	54.95
363.09	54.95
363.301	7.85
363.512	28.33
363.723	5.8
363.935	7.85
364.146	71.34
364.357	-47.44
364.568	24.23
364.779	40.62
364.99	102.06
365.201	-31.06
365.412	104.11
365.623	106.15
365.834	95.91
366.045	81.58
366.256	73.39
366.467	57
366.678	104.11
366.889	63.15
367.1	38.57
367.311	54.95
367.522	-8.53
367.733	59.05
367.944	132.78
368.155	-45.4
368.366	36.52
368.577	57
368.788	-4.44
368.999	102.06
369.209	50.86
369.42	59.05
369.631	112.3
369.842	54.95
370.053	-0.34
370.264	57
370.474	79.53
370.685	65.19
370.896	7.85
371.107	143.02
371.317	128.68
371.528	71.34
371.739	83.63
371.95	67.24
372.16	95.91
372.371	32.43
372.582	73.39
372.792	79.53
373.003	34.47
373.214	40.62
373.424	108.2
373.635	52.91
373.846	71.34
374.056	71.34
374.267	65.19
374.477	46.76
374.688	63.15
374.898	32.43
375.109	40.62
375.319	48.81
375.53	140.97
375.74	69.29
375.951	114.34
376.161	48.81
376.372	136.87
376.582	79.53
376.793	95.91
377.003	63.15
377.214	30.38
377.424	104.11
377.635	32.43
377.845	13.99
378.055	54.95
378.266	9.9
378.476	100.01
378.686	71.34
378.897	57
379.107	128.68
379.317	65.19
379.528	40.62
379.738	79.53
379.948	-8.53
380.158	87.72
380.369	120.49
380.579	79.53
380.789	57
380.999	48.81
381.21	120.49
381.42	85.67
381.63	-35.16
381.84	165.54
382.05	89.77
382.261	40.62
382.471	46.76
382.681	1.71
382.891	26.28
383.101	91.82
383.311	65.19
383.521	36.52
383.731	54.95
383.941	79.53
384.151	-24.92
384.361	38.57
384.571	50.86
384.781	54.95
384.991	149.16
385.201	106.15
385.411	87.72
385.621	63.15
385.831	122.54
386.041	100.01
386.251	34.47
386.461	97.96
386.671	38.57
386.881	-29.01
387.091	40.62
387.301	177.83
387.511	54.95
387.72	32.43
387.93	143.02
388.14	-10.58
388.35	9.9
388.56	83.63
388.769	112.3
388.979	-6.49
389.189	24.23
389.399	46.76
389.609	106.15
389.818	16.04
390.028	32.43
390.238	83.63
390.447	65.19
390.657	120.49
390.867	20.14
391.076	-18.77
391.286	-2.39
391.496	79.53
391.705	5.8
391.915	104.11
392.125	73.39
392.334	48.81
392.544	161.45
392.753	100.01
392.963	79.53
393.172	91.82
393.382	50.86
393.591	116.39
393.801	69.29
394.01	114.34
394.22	128.68
394.429	89.77
394.639	87.72
394.848	81.58
395.058	132.78
395.267	87.72
395.477	126.63
395.686	73.39
395.895	138.92
396.105	157.35
396.314	97.96
396.524	100.01
396.733	95.91
396.942	54.95
397.152	104.11
397.361	120.49
397.57	100.01
397.78	263.85
397.989	97.96
398.198	186.02
398.407	169.64
398.617	95.91
398.826	87.72
399.035	120.49
399.244	118.44
399.453	89.77
399.663	140.97
399.872	73.39
400.081	104.11
400.29	179.88
400.499	95.91
400.708	204.46
400.917	122.54
401.127	140.97
401.336	116.39
401.545	173.74
401.754	138.92
401.963	108.2
402.172	97.96
402.381	192.17
402.59	79.53
402.799	169.64
403.008	120.49
403.217	153.26
403.426	194.22
403.635	104.11
403.844	224.94
404.053	136.87
404.262	124.58
404.471	198.31
404.68	128.68
404.888	163.5
405.097	163.5
405.306	136.87
405.515	237.22
405.724	181.93
405.933	177.83
406.142	224.94
406.35	329.38
406.559	192.17
406.768	130.73
406.977	210.6
407.185	226.98
407.394	216.74
407.603	79.53
407.812	247.46
408.02	218.79
408.229	179.88
408.438	280.23
408.646	220.84
408.855	204.46
409.064	304.81
409.272	276.13
409.481	308.9
409.69	274.09
409.898	259.75
410.107	347.81
410.315	315.05
410.524	366.25
410.733	325.29
410.941	374.44
411.15	349.86
411.358	448.16
411.567	409.25
411.775	452.26
411.984	349.86
412.192	401.06
412.401	392.87
412.609	550.56
412.818	491.17
413.026	497.32
413.234	624.29
413.443	476.84
413.651	554.66
413.86	542.37
414.068	663.2
414.276	753.31
414.485	718.5
414.693	761.5
414.901	734.88
415.11	734.88
415.318	704.16
415.526	736.93
415.734	755.36
415.943	829.09
416.151	886.43
416.359	894.62
416.567	900.76
416.776	945.82
416.984	1015.45
417.192	1005.21
417.4	1062.55
417.608	1070.75
417.817	1070.75
418.025	1173.14
418.233	1154.71
418.441	1156.76
418.649	1205.91
418.857	1328.79
419.065	1377.94
419.273	1367.7
419.481	1441.43
419.689	1584.79
419.897	1517.2
420.105	1513.11
420.313	1687.18
420.521	1681.04
420.729	1713.81
420.937	1744.53
421.145	1746.58
421.353	1889.93
421.561	1982.09
421.769	1926.8
421.977	2098.83
422.185	2045.58
422.393	2322.06
422.601	2297.48
422.809	2424.45
423.017	2397.83
423.224	2414.21
423.432	2453.13
423.64	2541.19
423.848	2848.38
424.056	2670.21
424.263	2932.35
424.471	2893.44
424.679	2948.73
424.887	3098.24
425.094	3225.21
425.302	3163.77
425.51	3417.72
425.718	3415.67
425.925	3589.75
426.133	3677.81
426.341	3718.77
426.548	4021.87
426.756	4134.51
426.964	4064.88
427.171	4245.1
427.379	4372.07
427.586	4458.09
427.794	4671.08
428.001	4742.75
428.209	5043.81
428.417	4904.54
428.624	5275.23
428.832	5299.8
429.039	5291.61
429.247	5156.44
429.454	5629.52
429.662	6166.09
429.869	5774.93
430.076	6229.58
430.284	5967.44
430.491	6127.18
430.699	6561.35
430.906	6575.69
431.114	6651.46
431.321	7018.05
431.528	7083.58
431.736	7454.26
431.943	7644.73
432.15	7628.34
432.358	7626.29
432.565	8095.28
432.772	8025.65
432.979	8459.82
433.187	8508.97
433.394	8762.92
433.601	9358.88
433.808	9352.73
434.016	9031.2
434.223	9721.37
434.43	10257.93
434.637	9897.49
434.844	10649.1
435.052	10819.08
435.259	10704.39
435.466	10974.72
435.673	10796.55
435.88	11359.74
436.087	11990.52
436.294	11884.02
436.501	11687.42
436.708	12008.95
436.915	12318.19
437.122	12873.19
437.329	12901.86
437.537	13280.74
437.743	13497.82
437.95	13383.13
438.157	14157.27
438.364	14345.68
438.571	14601.68
438.778	14552.52
438.985	16039.35
439.192	15283.65
439.399	15576.51
439.606	15279.55
439.813	16119.22
440.02	17298.85
440.227	16829.87
440.433	16899.5
440.64	17364.39
440.847	17323.43
441.054	17798.56
441.261	18668.94
441.467	18642.32
441.674	18810.25
441.881	19707.26
442.088	19402.11
442.294	19271.04
442.501	19801.47
442.708	20376.95
442.914	21071.21
443.121	21667.17
443.328	21280.1
443.534	22793.55
443.741	21982.56
443.948	21658.98
444.154	23752
444.361	23162.19
444.568	23334.21
444.774	23616.83
444.981	23881.02
445.187	24573.24
445.394	25351.46
445.6	25087.28
445.807	27477.26
446.013	26172.7
446.22	26967.31
446.426	27829.51
446.633	28011.78
446.839	29017.33
447.046	27997.44
447.252	29338.86
447.459	29611.24
447.665	29164.78
447.871	30287.07
448.078	31825.09
448.284	30319.84
448.491	31167.7
448.697	32345.28
448.903	32931
449.11	33033.39
449.316	32554.17
449.522	32994.48
449.728	33963.17
449.935	34178.21
450.141	34505.88
450.347	35237.01
450.553	33834.15
450.76	34333.85
450.966	35767.43
451.172	35353.74
451.378	36183.17
451.584	35144.85
451.791	36387.97
451.997	36023.43
452.203	36500.61
452.409	36742.27
452.615	36762.75
452.821	35589.26
453.027	35005.59
453.233	37026.93
453.44	35603.6
453.646	35896.45
453.852	36121.73
454.058	36654.2
454.264	35411.09
454.47	36418.69
454.676	35398.8
454.882	36609.15
455.088	33332.4
455.294	34055.33
455.5	34534.56
455.705	35081.36
455.911	33537.19
456.117	33090.74
456.323	32146.62
456.529	30631.13
456.735	32330.94
456.941	31212.75
457.147	30893.27
457.352	30065.89
457.558	30108.9
457.764	29813.99
457.97	29209.84
458.176	28194.04
458.381	28884.21
458.587	27243.79
458.793	27497.74
458.999	26041.63
459.204	28142.85
459.41	27004.17
459.616	25490.73
459.821	25027.88
460.027	25228.59
460.233	24519.99
460.438	23444.8
460.644	23893.31
460.85	22717.78
461.055	22134.1
461.261	22256.98
461.466	20469.11
461.672	20026.75
461.878	21439.84
462.083	20225.4
462.289	19352.96
462.494	19389.83
462.7	18832.78
462.905	17866.14
463.111	18699.66
463.316	18746.76
463.522	18412.95
463.727	18089.37
463.932	18312.6
464.138	17958.3
464.343	18273.68
464.549	17767.84
464.754	18079.13
464.959	18122.13
465.165	17993.11
465.37	17284.51
465.575	16725.42
465.781	17331.62
465.986	17771.93
466.191	16850.35
466.397	16459.18
466.602	15840.7
466.807	16473.52
467.012	16526.77
467.218	16356.79
467.423	15816.12
467.628	16293.3
467.833	16952.74
468.038	16121.27
468.244	15539.65
468.449	16442.8
468.654	15912.38
468.859	15455.68
469.064	15717.82
469.269	14810.57
469.474	15130.05
469.679	15449.53
469.885	14831.05
470.09	15414.72
470.295	15152.58
470.5	14808.52
470.705	14648.78
470.91	14550.48
471.115	14519.76
471.32	14636.49
471.525	14552.52
471.73	14114.26
471.935	14177.75
472.139	13637.08
472.344	14009.81
472.549	13661.66
472.754	13669.85
472.959	13276.64
473.164	12809.7
473.369	12770.79
473.574	13215.2
473.778	13342.18
473.983	12955.11
474.188	13229.54
474.393	12479.98
474.598	12604.91
474.802	12561.9
475.007	12359.15
475.212	12606.95
475.417	11761.14
475.621	11818.49
475.826	12015.09
476.031	11646.46
476.235	11404.8
476.44	11666.94
476.645	11384.32
476.849	11355.65
477.054	11306.49
477.259	11249.15
477.463	11079.17
477.668	10901
477.872	10970.63
478.077	10655.24
478.282	10485.26
478.486	10274.32
478.691	10493.45
478.895	10090
479.1	10327.57
479.304	10249.74
479.509	9979.41
479.713	10210.83
479.918	9844.24
480.122	9707.03
480.326	10036.75
480.531	9946.64
480.735	9819.67
480.94	9844.24
481.144	10165.78
481.348	9600.54
481.553	9721.37
481.757	9334.3
481.961	9578.01
482.166	9606.68
482.37	9524.76
482.574	9256.48
482.778	9405.98
482.983	9811.48
483.187	9446.94
483.391	9676.31
483.595	9369.12
483.8	9524.76
484.004	9678.36
484.208	9823.76
484.412	9444.89
484.616	9608.73
484.821	9713.17
485.025	9283.1
485.229	9801.24
485.433	9618.97
485.637	9590.3
485.841	9418.27
486.045	9213.47
486.249	9508.38
486.453	9262.62
486.657	9498.14
486.861	9295.39
487.065	9119.26
487.269	9285.15
487.473	9328.16
487.677	9537.05
487.881	9676.31
488.085	9362.97
488.289	9649.69
488.493	9508.38
488.697	9522.71
488.901	9598.49
489.105	9479.71
489.309	9623.06
489.512	9469.47
489.716	9715.22
489.92	9414.17
490.124	9586.2
490.328	9580.06
490.531	9549.34
490.735	9590.3
490.939	9747.99
491.143	9721.37
491.346	9778.71
491.55	9950.74
491.754	9803.29
491.958	9672.22
492.161	9893.4
492.365	9887.25
492.569	9690.65
492.772	9922.07
492.976	9999.89
493.18	10114.58
493.383	10171.92
493.587	10368.52
493.79	10225.17
493.994	10278.41
494.197	10210.83
494.401	10575.37
494.605	10403.34
494.808	10618.38
495.012	10575.37
495.215	10655.24
495.419	10733.06
495.622	10755.59
495.825	10872.32
496.029	10872.32
496.232	11197.95
496.436	11177.47
496.639	11361.79
496.843	11218.43
497.046	11515.39
497.249	11671.03
497.453	11601.4
497.656	11605.5
497.859	11666.94
498.063	11859.45
498.266	12353.01
498.469	12107.25
498.673	12365.29
498.876	12441.07
499.079	12418.54
499.282	12377.58
499.485	12865
499.689	12856.81
499.892	12983.78
500.095	12934.63
500.298	13213.15
500.501	13180.39
500.705	13706.71
500.908	13657.56
501.111	13993.43
501.314	13768.15
501.517	14239.19
501.72	14456.27
501.923	13923.8
502.126	14564.81
502.329	14894.54
502.532	14849.48
502.735	15019.46
502.938	15093.19
503.141	15463.87
503.344	15355.33
503.547	15517.12
503.75	15832.51
503.953	16172.47
504.156	16092.6
504.359	16354.74
504.562	16385.46
504.765	16569.77
504.968	16930.22
505.17	16956.84
505.373	17151.4
505.576	17354.15
505.779	17474.98
505.982	17470.88
506.185	17974.68
506.387	18199.96
506.59	18386.32
506.793	18744.72
506.996	18611.6
507.198	18757
507.401	18707.85
507.604	19152.26
507.807	19629.44
508.009	19742.08
508.212	19479.94
508.415	19891.58
508.617	20202.87
508.82	20333.94
509.022	20174.2
509.225	20745.58
509.428	21081.45
509.63	21194.09
509.833	21425.51
510.035	21869.92
510.238	21560.67
510.44	21804.38
510.643	22361.43
510.845	22150.49
511.048	22033.75
511.25	22424.92
511.453	22586.71
511.655	23618.88
511.858	23240.01
512.06	23665.99
512.262	23819.58
512.465	23493.96
512.667	23944.51
512.87	24323.38
513.072	24374.58
513.274	24898.86
513.477	25126.19
513.679	25328.94
513.881	25582.88
514.084	25605.41
514.286	25926.94
514.488	26064.16
514.69	26656.02
514.893	26461.46
515.095	26926.35
515.297	27260.17
515.499	27192.59
515.701	27243.79
515.904	27680
516.106	27927.81
516.308	28239.1
516.51	28615.93
516.712	28517.62
516.914	28816.63
517.116	29177.07
517.318	29514.98
517.52	29678.82
517.722	29779.17
517.925	30182.62
518.127	30561.5
518.329	30573.78
518.531	30356.7
518.733	31202.51
518.935	31734.98
519.136	31450.31
519.338	31757.51
519.54	31847.62
519.742	32347.33
519.944	32076.99
520.146	32857.27
520.348	33037.49
520.55	32742.58
520.752	33494.19
520.954	33825.96
521.155	33535.15
521.357	33942.69
521.559	34227.36
521.761	34901.14
521.963	34634.91
522.164	35019.92
522.366	35093.65
522.568	35732.62
522.77	35177.62
522.971	36052.1
523.173	35921.03
523.375	36101.25
523.576	36215.94
523.778	36091.01
523.98	36557.95
524.181	36924.54
524.383	37000.31
524.584	37700.72
524.786	37508.21
524.988	37377.14
525.189	37991.53
525.391	37704.81
525.592	38286.43
525.794	38235.24
525.995	38751.32
526.197	38157.41
526.398	38499.42
526.6	39040.09
526.801	38939.74
527.003	39361.62
527.204	39255.12
527.406	39650.38
527.607	39177.3
527.808	39818.32
528.01	39242.84
528.211	39486.54
528.412	40397.89
528.614	40223.81
528.815	40229.96
529.016	40279.11
529.218	40090.69
529.419	40545.34
529.62	40416.32
529.822	40225.86
530.023	40524.86
530.224	40272.96
530.425	40815.68
530.626	40455.23
530.828	40049.74
531.029	41192.5
531.23	40512.58
531.431	40891.45
531.632	40739.9
531.833	41018.42
532.035	41081.91
532.236	41151.54
532.437	41387.06
532.638	40373.31
532.839	41415.73
533.04	41403.44
533.241	40610.88
533.442	41794.6
533.643	41505.84
533.844	41116.73
534.045	41307.19
534.246	40979.51
534.447	41673.77
534.648	41088.06
534.849	41608.24
535.05	41303.09
535.251	41329.72
535.451	41276.47
535.652	41108.54
535.853	41565.23
536.054	41448.5
536.255	41505.84
536.456	40944.7
536.657	41671.73
536.857	41270.32
537.058	41247.8
537.259	41538.61
537.46	41667.63
537.66	41335.86
537.861	41354.29
538.062	41161.78
538.263	41301.04
538.463	41198.65
538.664	41319.48
538.865	41505.84
539.065	41499.7
539.266	40864.83
539.466	41780.27
539.667	41094.2
539.868	41735.21
540.068	40936.51
540.269	41118.78
540.469	41645.1
540.67	41501.75
540.87	41208.89
541.071	40993.85
541.271	41290.8
541.472	41030.71
541.672	40983.61
541.873	40932.41
542.073	40602.69
542.274	41602.1
542.474	41301.04
542.675	41151.54
542.875	41227.32
543.075	41458.74
543.276	40238.15
543.476	40963.13
543.676	40682.56
543.877	41573.42
544.077	41393.2
544.277	40760.38
544.478	40811.58
544.678	41102.39
544.878	41290.8
545.078	40909.88
545.279	40739.9
545.479	40834.11
545.679	40805.44
545.879	40893.5
546.079	41038.9
546.28	40918.07
546.48	40678.46
546.68	40961.08
546.88	41327.67
547.08	40901.69
547.28	40356.93
547.48	40340.55
547.68	40741.95
547.88	40494.14
548.081	40754.24
548.281	40135.75
548.481	40442.95
548.681	41270.32
548.881	40907.83
549.081	40905.79
549.28	40488
549.48	41018.42
549.68	40442.95
549.88	41120.82
550.08	40760.38
550.28	40754.24
550.48	40485.95
550.68	40838.2
550.88	40303.68
551.08	40744
551.279	40389.7
551.479	40313.92
551.679	40715.33
551.879	40363.07
552.079	40600.64
552.278	40215.62
552.478	40436.8
552.678	40291.4
552.878	40211.53
553.077	40592.45
553.277	40344.64
553.477	40784.96
553.676	39912.52
553.876	40166.47
554.076	39969.86
554.275	40119.37
554.475	39562.32
554.674	40127.56
554.874	40264.77
555.074	40340.55
555.273	40180.81
555.473	40234.05
555.672	39658.57
555.872	39701.58
556.071	39726.16
556.271	40504.38
556.47	39947.34
556.67	39521.36
556.869	39939.15
557.068	40002.63
557.268	39390.29
557.467	39842.89
557.667	39677.01
557.866	39474.26
558.065	39713.87
558.265	39470.16
558.464	39318.61
558.663	39695.44
558.863	39091.29
559.062	39515.22
559.261	38970.46
559.461	39427.15
559.66	38997.08
559.859	39079
560.058	39015.51
560.258	39085.14
560.457	38919.26
560.656	38825.05
560.855	38929.5
561.054	38966.36
561.253	38526.05
561.453	38751.32
561.652	38943.83
561.851	38759.52
562.05	38270.05
562.249	38489.18
562.448	38589.53
562.647	38691.93
562.846	38298.72
563.045	38325.35
563.244	37921.9
563.443	38433.89
563.642	37565.55
563.841	38061.16
564.04	37930.09
564.239	37999.72
564.438	37817.45
564.637	37964.9
564.836	37930.09
565.035	37409.9
565.234	37471.34
565.432	37616.75
565.631	37336.18
565.83	37737.58
566.029	36971.64
566.228	37221.49
566.427	37248.11
566.625	36799.61
566.824	36594.81
567.023	37108.85
567.222	36324.48
567.42	36963.45
567.619	37119.09
567.818	37039.22
568.016	36478.08
568.215	36574.33
568.414	36713.59
568.612	36725.88
568.811	36510.85
569.01	36455.55
569.208	35976.33
569.407	36289.66
569.605	36088.96
569.804	36514.94
570.002	35800.2
570.201	35847.3
570.4	35660.94
570.598	35415.18
570.797	35556.49
570.995	35622.03
571.193	35533.96
571.392	35699.85
571.59	35204.24
571.789	34950.29
571.987	35044.5
572.186	35202.19
572.384	35253.39
572.582	34897.05
572.781	34974.87
572.979	34518.17
573.177	34690.2
573.376	34686.11
573.574	34241.7
573.772	34505.88
573.971	34397.34
574.169	34167.97
574.367	34299.04
574.565	34129.06
574.763	33907.88
574.962	34186.4
575.16	33627.31
575.358	34163.87
575.556	33514.67
575.754	33957.03
575.952	33608.87
576.151	33363.12
576.349	33328.3
576.547	33477.8
576.745	33199.28
576.943	33361.07
577.141	33199.28
577.339	33379.5
577.537	32996.53
577.735	32664.76
577.933	32670.9
578.131	32900.28
578.329	32638.14
578.527	32339.13
578.725	32343.23
578.923	33004.72
579.121	32414.91
579.319	32193.73
579.516	32279.74
579.714	32269.5
579.912	32085.19
580.11	31937.73
580.308	32017.6
580.506	31995.07
580.704	31401.16
580.901	31909.06
581.099	32122.05
581.297	31577.29
581.495	31483.08
581.692	31372.49
581.89	30837.97
582.088	31464.65
582.285	31143.12
582.483	31286.48
582.681	31069.39
582.878	30792.92
583.076	30794.96
583.274	30813.4
583.471	30573.78
583.669	30799.06
583.866	30444.76
584.064	30665.94
584.262	30168.29
584.459	30418.14
584.657	29949.15
584.854	30414.04
585.052	29848.8
585.249	30117.09
585.447	29961.44
585.644	29756.64
585.841	30190.81
586.039	29926.63
586.236	29644.01
586.434	29803.75
586.631	29336.81
586.828	29166.83
587.026	29160.69
587.223	29138.16
587.42	28722.42
587.618	29215.98
587.815	28931.31
588.012	28949.74
588.21	28732.66
588.407	28818.67
588.604	28767.48
588.801	28914.93
588.999	28888.31
589.196	28404.99
589.393	28579.06
589.59	28214.52
589.787	28355.83
589.984	28247.29
590.182	27755.78
590.379	28089.6
590.576	27825.41
590.773	27882.75
590.97	27837.7
591.167	27856.13
591.364	27325.71
591.561	27501.83
591.758	27239.69
591.955	27211.02
592.152	27804.93
592.349	27182.35
592.546	27163.92
592.743	27168.01
592.94	26785.04
593.137	27104.53
593.334	27028.75
593.531	26354.97
593.727	26782.99
593.924	26744.08
594.121	26334.49
594.318	26821.91
594.515	26430.74
594.712	26397.98
594.908	26170.65
595.105	26305.82
595.302	26027.29
595.499	26180.89
595.696	26033.44
595.892	25726.24
596.089	25908.51
596.286	25996.57
596.482	25939.23
596.679	25636.13
596.876	25521.45
597.072	25275.69
597.269	25523.49
597.466	25240.87
597.662	25081.13
597.859	24919.34
598.055	25087.28
598.252	24814.9
598.448	25058.6
598.645	24655.15
598.841	24778.03
599.038	24913.2
599.234	24677.68
599.431	24317.24
599.627	24466.74
599.824	24458.55
600.02	24184.12
600.217	24192.31
600.413	24180.03
600.609	24100.15
600.806	24147.26
601.002	24003.9
601.198	23971.13
601.395	23551.3
601.591	23569.73
601.787	23512.39
601.984	23629.12
602.18	23911.74
602.376	23514.44
602.572	23446.85
602.769	23473.48
602.965	23102.79
603.161	23240.01
603.357	23051.59
603.553	23061.83
603.75	22916.43
603.946	22635.86
604.142	22953.29
604.338	22728.02
604.534	23180.62
604.73	22576.47
604.926	22742.35
605.122	22555.99
605.318	22310.23
605.514	22295.89
605.71	22340.95
605.906	22504.79
606.102	22187.35
606.298	22320.47
606.494	22492.5
606.69	22267.22
606.886	22267.22
607.082	22058.33
607.278	22125.91
607.474	22000.99
607.67	21912.92
607.866	21456.23
608.062	22158.68
608.257	21499.23
608.453	21493.09
608.649	21611.87
608.845	21525.86
609.041	21353.83
609.236	21968.22
609.432	21292.39
609.628	21230.95
609.824	21249.38
610.019	21071.21
610.215	20915.56
610.411	21396.84
610.606	21294.44
610.802	21241.19
610.998	21136.74
611.193	20993.39
611.389	20673.9
611.584	20823.4
611.78	20718.96
611.976	20878.7
612.171	20688.24
612.367	20952.43
612.562	20516.21
612.758	20671.86
612.953	20295.03
613.149	20938.09
613.344	20510.07
613.539	20596.08
613.735	20651.38
613.93	20508.02
614.126	20436.34
614.321	20497.78
614.517	20446.58
614.712	20393.33
614.907	20219.25
615.103	20374.9
615.298	20065.66
615.493	20358.52
615.688	19912.06
615.884	20481.39
616.079	19809.66
616.274	20168.05
616.47	20084.09
616.665	19942.78
616.86	19871.1
617.055	19789.18
617.25	19957.11
617.445	20077.94
617.641	19510.66
617.836	19486.08
618.031	19213.7
618.226	19289.48
618.421	19623.3
618.616	19449.22
618.811	19217.8
619.006	19422.59
619.201	18881.93
619.396	19316.1
619.591	18812.3
619.786	19174.79
619.981	18767.24
620.176	19133.83
620.371	18486.67
620.566	18808.2
620.761	18883.98
620.956	18492.82
621.151	18173.33
621.346	18496.91
621.541	18075.03
621.735	18365.84
621.93	17878.43
622.125	18011.54
622.32	17888.67
622.515	17911.19
622.709	17771.93
622.904	17614.24
623.099	17214.88
623.294	17812.89
623.488	17284.51
623.683	17278.37
623.878	17003.94
624.072	17286.56
624.267	17167.78
624.462	16995.75
624.656	16657.84
624.851	16926.12
625.046	16838.06
625.24	16680.36
625.435	16143.8
625.629	16512.43
625.824	16203.19
626.018	16330.16
626.213	16063.93
626.407	16106.93
626.602	15867.32
626.796	15883.7
626.991	16082.36
627.185	15697.34
627.38	15492.54
627.574	15707.58
627.768	15461.82
627.963	15603.13
628.157	15451.58
628.352	15478.21
628.546	14912.97
628.74	15316.42
628.935	15009.22
629.129	15046.09
629.323	14749.13
629.517	14695.88
629.712	14683.59
629.906	14527.95
630.1	14544.33
630.294	14499.28
630.489	14398.93
630.683	14339.54
630.877	14292.43
631.071	14130.64
631.265	14286.29
631.459	14054.87
631.653	13997.53
631.848	14026.2
632.042	13907.41
632.236	13891.03
632.43	13561.31
632.624	13616.6
632.818	13571.55
633.012	13114.85
633.206	13280.74
633.4	13399.52
633.594	13161.95
633.788	13098.47
633.982	13235.68
634.176	13143.52
634.369	12989.92
634.563	12989.92
634.757	12783.08
634.951	12719.59
635.145	12615.15
635.339	12781.03
635.533	12561.9
635.726	12369.39
635.92	12420.59
636.114	12353.01
636.308	12449.26
636.501	12207.6
636.695	12277.23
636.889	12217.84
637.083	12041.71
637.276	12031.48
637.47	11892.21
637.664	11881.97
637.857	11853.3
638.051	11662.84
638.244	11619.83
638.438	11714.04
638.632	11523.58
638.825	11386.36
639.019	11554.3
639.212	11329.02
639.406	11415.04
639.599	11120.13
639.793	11269.63
639.986	11259.39
640.18	11101.7
640.373	11122.18
640.567	11025.92
640.76	11163.14
640.954	10798.6
641.147	10823.17
641.34	10972.68
641.534	10841.61
641.727	10690.06
641.92	10532.36
642.114	10515.98
642.307	10442.25
642.5	10558.99
642.694	10190.35
642.887	10257.93
643.08	10393.1
643.273	10104.34
643.467	10264.08
643.66	9924.12
643.853	10081.81
644.046	9965.07
644.239	10108.43
644.432	9848.34
644.626	9797.14
644.819	9680.41
645.012	9874.96
645.205	9696.79
645.398	9694.74
645.591	9623.06
645.784	9588.25
645.977	9428.51
646.17	9481.75
646.363	9238.05
646.556	9328.16
646.749	9279.01
646.942	9342.49
647.135	9135.65
647.328	9115.17
647.521	9127.46
647.714	8959.52
647.907	8904.23
648.099	8871.46
648.292	9076.26
648.485	8873.51
648.678	8738.34
648.871	8785.44
649.064	8701.48
649.256	8648.23
649.449	8590.89
649.642	8705.57
649.835	8412.71
650.027	8459.82
650.22	8486.44
650.413	8517.16
650.605	8341.04
650.798	8209.97
650.991	8349.23
651.183	8445.48
651.376	8173.1
651.568	8316.46
651.761	8074.8
651.954	7919.15
652.146	8001.07
652.339	8029.74
652.531	8005.17
652.724	7777.84
652.916	7691.83
653.109	7773.75
653.301	7775.8
653.494	7878.19
653.686	7657.01
653.879	7849.52
654.071	7675.45
654.263	7525.94
654.456	7419.45
654.648	7470.65
654.84	7587.38
655.033	7493.18
655.225	7388.73
655.417	7317.05
655.61	7362.11
655.802	7429.69
655.994	7177.79
656.186	7306.81
656.379	7009.86
656.571	7093.82
656.763	6946.37
656.955	7116.35
657.148	7126.59
657.34	7136.83
657.532	6719.04
657.724	6899.27
657.916	6710.85
658.108	6876.74
658.3	6682.18
658.492	6868.55
658.684	6516.3
658.876	6659.65
659.068	6569.54
659.26	6585.93
659.452	6461
659.644	6432.33
659.836	6561.35
660.028	6504.01
660.22	6370.89
660.412	6444.62
660.604	6528.58
660.796	6399.56
660.988	6297.16
661.18	6059.6
661.372	6276.68
661.563	6174.28
661.755	6182.48
661.947	6137.42
662.139	6139.47
662.331	6067.79
662.522	5885.52
662.714	5944.91
662.906	5994.06
663.097	5832.27
663.289	5824.08
663.481	5889.62
663.673	5797.46
663.864	5678.68
664.056	5772.88
664.247	5799.51
664.439	5693.01
664.631	5674.58
664.822	5535.32
665.014	5543.51
665.205	5568.09
665.397	5375.58
665.588	5662.29
665.78	5475.93
665.971	5537.37
666.163	5371.48
666.354	5379.67
666.546	5398.1
666.737	5221.98
666.929	5365.34
667.12	5389.91
667.311	5381.72
667.503	5379.67
667.694	5142.11
667.885	4996.7
668.077	5127.77
668.268	5215.84
668.459	5109.34
668.651	5101.15
668.842	5119.58
669.033	5092.96
669.224	4947.55
669.416	5152.35
669.607	5088.86
669.798	5000.8
669.989	5011.04
670.18	4904.54
670.371	4929.12
670.563	4990.56
670.754	4912.74
670.945	4777.57
671.136	4714.08
671.327	4619.88
671.518	4839.01
671.709	4757.09
671.9	4773.47
672.091	4724.32
672.282	4630.12
672.473	4662.88
672.664	4542.05
672.855	4634.21
673.046	4652.64
673.237	4558.44
673.428	4470.37
673.619	4521.57
673.809	4505.19
674	4365.93
674.191	4400.74
674.382	4484.71
674.573	4460.13
674.764	4499.05
674.954	4384.36
675.145	4159.08
675.336	4306.54
675.527	4290.15
675.717	4421.22
675.908	4232.81
676.099	4357.74
676.289	4220.52
676.48	4236.91
676.671	4048.49
676.861	4339.3
677.052	4019.82
677.243	4277.87
677.433	4017.77
677.624	4216.43
677.814	4046.44
678.005	4044.4
678.195	4052.59
678.386	4081.26
678.576	3898.99
678.767	3860.08
678.957	4003.44
679.148	4126.32
679.338	4036.21
679.529	3880.56
679.719	3823.22
679.909	3925.61
680.1	3982.96
680.29	3970.67
680.481	3980.91
680.671	3935.85
680.861	3843.7
681.052	3745.39
681.242	3839.6
681.432	3692.15
681.622	3659.38
681.813	3831.41
682.003	3786.35
682.193	3655.28
682.383	3763.83
682.573	3733.11
682.764	3571.32
682.954	3663.47
683.144	3688.05
683.334	3565.17
683.524	3563.12
683.714	3716.72
683.904	3626.61
684.094	3765.87
684.284	3563.12
684.474	3597.94
684.664	3702.39
684.854	3653.23
685.044	3546.74
685.234	3579.51
685.424	3434.1
685.614	3487.35
685.804	3380.86
685.994	3411.57
686.184	3464.82
686.374	3477.11
686.564	3446.39
686.753	3503.73
686.943	3407.48
687.133	3419.77
687.323	3391.09
687.513	3350.14
687.702	3235.45
687.892	3370.62
688.082	3208.83
688.272	3243.64
688.461	3151.48
688.651	3251.83
688.841	3200.63
689.03	3272.31
689.22	3190.39
689.41	3241.59
689.599	3243.64
689.789	3274.36
689.979	3014.27
690.168	3163.77
690.358	3288.7
690.547	3067.52
690.737	3133.05
690.926	3163.77
691.116	3040.89
691.305	3055.23
691.495	3131
691.684	2897.53
691.874	3088
692.063	3016.32
692.252	3055.23
692.442	2975.36
692.631	2952.83
692.82	3012.22
693.01	3012.22
693.199	3012.22
693.388	2819.71
693.578	2938.49
693.767	2938.49
693.956	2807.42
694.146	2864.77
694.335	2772.61
694.524	2856.58
694.713	2832
694.902	2844.29
695.092	2872.96
695.281	2799.23
695.47	2825.86
695.659	2653.83
695.848	2762.37
696.037	2860.67
696.226	2815.62
696.415	2709.12
696.604	2784.9
696.793	2776.7
696.982	2631.3
697.171	2721.41
697.36	2743.94
697.549	2668.16
697.738	2647.68
697.927	2713.22
698.116	2688.64
698.305	2768.51
698.494	2715.27
698.683	2545.28
698.872	2596.48
699.061	2653.83
699.25	2592.39
699.438	2668.16
699.627	2602.63
699.816	2758.27
700.005	2598.53
700.193	2549.38
700.382	2674.31
700.571	2537.09
700.76	2533
700.948	2627.2
701.137	2510.47
701.326	2569.86
701.514	2545.28
701.703	2602.63
701.892	2514.56
702.08	2719.36
702.269	2526.85
702.457	2508.42
702.646	2512.52
702.834	2516.61
703.023	2512.52
703.212	2489.99
703.4	2438.79
703.589	2586.24
703.777	2627.2
703.965	2555.52
704.154	2446.98
704.342	2592.39
704.531	2475.65
704.719	2455.17
704.907	2504.32
705.096	2512.52
705.284	2483.84
705.472	2578.05
705.661	2526.85
705.849	2590.34
706.037	2576
706.226	2569.86
706.414	2530.95
706.602	2520.71
706.79	2479.75
706.979	2561.67
707.167	2401.93
707.355	2375.3
707.543	2520.71
707.731	2619.01
707.919	2481.8
708.107	2500.23
708.296	2502.28
708.484	2432.65
708.672	2459.27
708.86	2530.95
709.048	2383.49
709.236	2479.75
709.424	2506.37
709.612	2373.25
709.8	2279.05
709.988	2465.41
710.176	2416.26
710.364	2455.17
710.551	2285.19
710.739	2401.93
710.927	2504.32
711.115	2451.08
711.303	2268.81
711.491	2301.58
711.679	2393.73
711.866	2389.64
712.054	2375.3
712.242	2360.97
712.43	2340.49
712.617	2397.83
712.805	2430.6
712.993	2434.69
713.181	2367.11
713.368	2432.65
713.556	2422.41
713.744	2350.73
713.931	2315.91
714.119	2430.6
714.306	2354.82
714.494	2272.9
714.682	2350.73
714.869	2135.69
715.057	2473.6
715.244	2358.92
715.432	2315.91
715.619	2315.91
715.807	2391.69
715.994	2365.06
716.182	2342.53
716.369	2373.25
716.556	2330.25
716.744	2367.11
716.931	2408.07
717.119	2303.62
717.306	2422.41
717.493	2297.48
717.681	2389.64
717.868	2426.5
718.055	2332.3
718.242	2145.93
718.43	2506.37
718.617	2449.03
718.804	2287.24
718.991	2424.45
719.179	2309.77
719.366	2360.97
719.553	2342.53
719.74	2201.23
719.927	2373.25
720.114	2371.21
720.301	2283.14
720.488	2225.8
720.676	2242.18
720.863	2406.02
721.05	2330.25
721.237	2293.38
721.424	2303.62
721.611	2344.58
721.798	2262.66
721.985	2242.18
722.172	2295.43
722.358	2221.7
722.545	2315.91
722.732	2244.23
722.919	2264.71
723.106	2225.8
723.293	2260.62
723.48	2428.55
723.667	2260.62
723.853	2283.14
724.04	2299.53
724.227	2195.08
724.414	2303.62
724.6	2250.38
724.787	2340.49
724.974	2328.2
725.161	2301.58
725.347	2186.89
725.534	2219.66
725.72	2260.62
725.907	2301.58
726.094	2252.42
726.28	2250.38
726.467	2238.09
726.653	2156.17
726.84	2266.76
727.027	2242.18
727.213	2225.8
727.4	2225.8
727.586	2145.93
727.773	2236.04
727.959	2309.77
728.145	2252.42
728.332	2295.43
728.518	2287.24
728.705	2252.42
728.891	2201.23
729.077	2274.95
729.264	2283.14
729.45	2373.25
729.636	2221.7
729.823	2188.94
730.009	2268.81
730.195	2289.29
730.382	2129.55
730.568	2166.41
730.754	2219.66
730.94	2162.31
731.126	2221.7
731.313	2309.77
731.499	2332.3
731.685	2205.32
731.871	2160.27
732.057	2162.31
732.243	2236.04
732.429	2139.79
732.615	2283.14
732.801	2252.42
732.987	2225.8
733.173	2190.99
733.359	2297.48
733.545	2225.8
733.731	2262.66
733.917	2227.85
734.103	2047.63
734.289	2248.33
734.475	2166.41
734.661	2154.12
734.847	2190.99
735.033	2182.79
735.219	2162.31
735.404	2186.89
735.59	2137.74
735.776	2143.88
735.962	2176.65
736.148	2227.85
736.333	2197.13
736.519	2131.59
736.705	2238.09
736.89	2215.56
737.076	2129.55
737.262	2135.69
737.447	2141.83
737.633	2070.16
737.819	2195.08
738.004	2160.27
738.19	2143.88
738.375	2111.11
738.561	2201.23
738.747	2086.54
738.932	2104.97
739.118	2055.82
739.303	2088.59
739.489	1973.9
739.674	2016.91
739.859	2008.72
740.045	2078.35
740.23	2111.11
740.416	2000.52
740.601	2014.86
740.786	1996.43
740.972	2021
741.157	1939.09
741.342	1934.99
741.528	1945.23
741.713	1990.28
741.898	1908.37
742.084	2016.91
742.269	1939.09
742.454	1949.32
742.639	2023.05
742.824	1912.46
743.01	1990.28
743.195	2064.01
743.38	1934.99
743.565	2004.62
743.75	1949.32
743.935	1883.79
744.12	1926.8
744.305	1918.61
744.49	1959.56
744.675	1906.32
744.86	1826.45
745.045	1750.67
745.23	1918.61
745.415	1939.09
745.6	1842.83
745.785	1826.45
745.97	1816.21
746.155	1791.63
746.34	1848.97
746.525	1851.02
746.71	1894.03
746.895	1779.34
747.079	1726.1
747.264	1799.82
747.449	1734.29
747.634	1742.48
747.819	1709.71
748.003	1816.21
748.188	1652.37
748.373	1681.04
748.557	1607.31
748.742	1803.92
748.927	1621.65
749.111	1619.6
749.296	1709.71
749.481	1691.28
749.665	1605.27
749.85	1578.64
750.034	1644.18
750.219	1638.03
750.404	1547.92
750.588	1590.93
750.773	1543.83
750.957	1619.6
751.141	1554.07
751.326	1578.64
751.51	1498.77
751.695	1517.2
751.879	1431.19
752.064	1631.89
752.248	1611.41
752.432	1595.03
752.617	1529.49
752.801	1506.96
752.985	1382.04
753.17	1521.3
753.354	1472.15
753.538	1449.62
753.722	1410.71
753.907	1357.46
754.091	1418.9
754.275	1373.85
754.459	1494.68
754.643	1431.19
754.828	1373.85
755.012	1373.85
755.196	1349.27
755.38	1318.55
755.564	1218.2
755.748	1355.41
755.932	1398.42
756.116	1361.56
756.3	1414.81
756.484	1328.79
756.668	1238.68
756.852	1261.21
757.036	1240.73
757.22	1324.69
757.404	1189.53
757.588	1242.78
757.772	1277.59
757.956	1351.32
758.14	1216.15
758.323	1154.71
758.507	1242.78
758.691	1130.14
758.875	1138.33
759.059	1259.16
759.242	1226.39
759.426	1136.28
759.61	1111.71
759.794	1121.95
759.977	1148.57
760.161	1226.39
760.345	1146.52
760.528	1150.62
760.712	1064.6
760.895	1113.75
761.079	1111.71
761.263	1054.36
761.446	1099.42
761.63	1085.08
761.813	972.44
761.997	1054.36
762.18	1005.21
762.364	1070.75
762.547	992.92
762.731	1048.22
762.914	1017.5
763.098	1013.4
763.281	1005.21
763.464	1040.03
763.648	1017.5
763.831	1056.41
764.015	1029.79
764.198	1005.21
764.381	984.73
764.564	1058.46
764.748	964.25
764.931	1009.31
765.114	958.11
765.297	1058.46
765.481	956.06
765.664	939.68
765.847	1001.12
766.03	931.48
766.213	947.87
766.397	1005.21
766.58	972.44
766.763	972.44
766.946	915.1
767.129	906.91
767.312	974.49
767.495	931.48
767.678	906.91
767.861	913.05
768.044	956.06
768.227	923.29
768.41	853.66
768.593	906.91
768.776	911
768.959	966.3
769.142	990.88
769.324	865.95
769.507	929.44
769.69	859.81
769.873	870.05
770.056	898.72
770.239	931.48
770.421	964.25
770.604	851.61
770.787	853.66
770.97	923.29
771.152	816.8
771.335	874.14
771.518	933.53
771.7	911
771.883	827.04
772.066	818.85
772.248	827.04
772.431	784.03
772.613	767.65
772.796	712.35
772.978	886.43
773.161	738.98
773.343	704.16
773.526	800.41
773.708	843.42
773.891	759.46
774.073	851.61
774.256	753.31
774.438	863.9
774.621	775.84
774.803	833.18
774.985	718.5
775.168	767.65
775.35	720.54
775.532	738.98
775.715	788.13
775.897	859.81
776.079	728.74
776.261	734.88
776.444	710.3
776.626	738.98
776.808	738.98
776.99	671.39
777.173	679.58
777.355	693.92
777.537	706.21
777.719	636.58
777.901	698.02
778.083	677.54
778.265	667.3
778.447	712.35
778.629	663.2
778.811	661.15
778.993	695.97
779.175	743.07
779.357	646.82
779.539	618.15
779.721	612
779.903	640.67
780.085	661.15
780.267	595.62
780.449	661.15
780.631	665.25
780.812	667.3
780.994	556.71
781.176	612
781.358	603.81
781.54	515.75
781.721	591.52
781.903	501.41
782.085	550.56
782.267	534.18
782.448	476.84
782.63	528.03
782.812	583.33
782.993	562.85
783.175	622.24
783.357	536.23
783.538	544.42
783.72	587.43
783.901	571.04
784.083	534.18
784.264	489.12
784.446	480.93
784.627	487.08
784.809	517.79
784.99	493.22
785.172	456.36
785.353	525.99
785.535	482.98
785.716	521.89
785.897	489.12
786.079	435.88
786.26	503.46
786.441	439.97
786.623	372.39
786.804	399.01
786.985	433.83
787.167	480.93
787.348	378.53
787.529	331.43
787.71	513.7
787.891	388.77
788.073	462.5
788.254	466.6
788.435	456.36
788.616	362.15
788.797	411.3
788.978	452.26
789.159	382.63
789.34	446.12
789.522	394.92
789.703	417.44
789.884	384.68
790.065	407.2
790.246	374.44
790.427	351.91
790.607	505.51
790.788	437.92
790.969	345.77
791.15	409.25
791.331	374.44
791.512	302.76
791.693	298.66
791.874	382.63
792.054	413.35
792.235	335.53
792.416	353.96
792.597	360.1
792.778	247.46
792.958	374.44
793.139	345.77
793.32	388.77
793.5	300.71
793.681	374.44
793.862	366.25
794.042	327.33
794.223	233.13
794.404	370.34
794.584	210.6
794.765	274.09
794.945	247.46
795.126	411.3
795.306	325.29
795.487	325.29
795.667	308.9
795.848	333.48
796.028	358.05
796.209	345.77
796.389	284.33
796.57	280.23
796.75	241.32
796.93	276.13
797.111	292.52
797.291	296.61
797.471	218.79
797.652	339.62
797.832	212.65
798.012	347.81
798.192	255.65
798.373	235.18
798.553	288.42
798.733	327.33
798.913	261.8
799.093	210.6
799.274	267.94
799.454	272.04
799.634	321.19
799.814	292.52
799.994	204.46
800.174	220.84
800.354	310.95
800.534	210.6
800.714	300.71
800.894	276.13
801.074	263.85
801.254	194.22
801.434	366.25
801.614	243.37
801.794	226.98
801.974	796.32
802.154	206.5
802.334	202.41
802.514	210.6
802.693	255.65
802.873	200.36
803.053	265.89
803.233	282.28
803.413	212.65
803.592	251.56
803.772	259.75
803.952	220.84
804.131	122.54
804.311	296.61
804.491	319.14
804.67	237.22
804.85	212.65
805.03	226.98
805.209	214.7
805.389	147.11
805.568	181.93
805.748	186.02
805.928	204.46
806.107	181.93
806.287	224.94
806.466	237.22
806.646	128.68
806.825	226.98
807.004	171.69
807.184	222.89
807.363	243.37
807.543	235.18
807.722	140.97
807.901	212.65
808.081	188.07
808.26	169.64
808.439	124.58
808.619	261.8
808.798	161.45
808.977	226.98
809.156	220.84
809.336	253.61
809.515	208.55
809.694	212.65
809.873	173.74
810.052	255.65
810.231	245.41
810.411	304.81
810.59	222.89
810.769	126.63
810.948	286.37
811.127	181.93
811.306	124.58
811.485	163.5
811.664	259.75
811.843	138.92
812.022	153.26
812.201	38.57
812.38	165.54
812.559	181.93
812.737	235.18
812.916	100.01
813.095	186.02
813.274	202.41
813.453	163.5
813.632	210.6
813.811	204.46
813.989	159.4
814.168	194.22
814.347	128.68
814.526	200.36
814.704	177.83
814.883	212.65
815.062	190.12
815.24	194.22
815.419	42.67
815.598	267.94
815.776	100.01
815.955	136.87
816.133	128.68
816.312	112.3
816.49	120.49
816.669	165.54
816.847	190.12
817.026	95.91
817.204	104.11
817.383	253.61
817.561	159.4
817.74	65.19
817.918	155.3
818.097	95.91
818.275	67.24
818.453	183.98
818.632	157.35
818.81	183.98
818.988	71.34
819.167	87.72
819.345	112.3
819.523	145.06
819.701	112.3
819.879	130.73
820.058	116.39
820.236	173.74
820.414	155.3
820.592	63.15
820.77	89.77
820.948	116.39
821.127	120.49
821.305	104.11
821.483	147.11
821.661	155.3
821.839	120.49
822.017	108.2
822.195	120.49
822.373	179.88
822.551	161.45
822.729	163.5
822.907	81.58
823.085	122.54
823.262	124.58
823.44	153.26
823.618	132.78
823.796	87.72
823.974	136.87
824.152	71.34
824.329	120.49
824.507	124.58
824.685	112.3
824.863	87.72
825.04	112.3
825.218	177.83
825.396	130.73
825.574	165.54
825.751	118.44
825.929	93.87
826.107	46.76
826.284	118.44
826.462	120.49
826.639	24.23
826.817	69.29
826.994	104.11
827.172	104.11
827.349	112.3
827.527	128.68
827.704	126.63
827.882	188.07
828.059	136.87
828.237	71.34
828.414	104.11
828.591	46.76
828.769	132.78
828.946	136.87
829.124	120.49
829.301	112.3
829.478	108.2
829.655	87.72
829.833	153.26
830.01	83.63
830.187	63.15
830.364	104.11
830.542	73.39
830.719	157.35
830.896	22.19
831.073	145.06
831.25	95.91
831.427	18.09
831.604	153.26
831.782	81.58
831.959	83.63
832.136	54.95
832.313	106.15
832.49	81.58
832.667	95.91
832.844	18.09
833.021	83.63
833.198	-20.82
833.374	95.91
833.551	93.87
833.728	89.77
833.905	91.82
834.082	116.39
834.259	106.15
834.436	147.11
834.612	-10.58
834.789	46.76
834.966	79.53
835.143	106.15
835.319	61.1
835.496	54.95
835.673	67.24
835.85	91.82
836.026	20.14
836.203	132.78
836.38	65.19
836.556	89.77
836.733	81.58
836.909	52.91
837.086	114.34
837.262	73.39
837.439	42.67
837.616	13.99
837.792	83.63
837.968	59.05
838.145	-26.96
838.321	87.72
838.498	-22.87
838.674	48.81
838.851	97.96
839.027	138.92
839.203	95.91
839.38	73.39
839.556	67.24
839.732	114.34
839.909	145.06
840.085	73.39
840.261	73.39
840.437	50.86
840.614	63.15
840.79	100.01
840.966	52.91
841.142	151.21
841.318	65.19
841.494	97.96
841.671	46.76
841.847	73.39
842.023	34.47
842.199	132.78
842.375	79.53
842.551	9.9
842.727	73.39
842.903	153.26
843.079	-16.73
843.255	34.47
843.431	67.24
843.607	57
843.783	79.53
843.959	54.95
844.134	22.19
844.31	-24.92
844.486	26.28
844.662	24.23
844.838	145.06
845.013	75.43
845.189	71.34
845.365	85.67
845.541	87.72
845.716	81.58
845.892	169.64
846.068	100.01
846.244	16.04
846.419	87.72
846.595	5.8
846.77	22.19
846.946	57
847.122	77.48
847.297	48.81
847.473	81.58
847.648	54.95
847.824	38.57
847.999	11.95
848.175	54.95
848.35	79.53
848.526	134.82
848.701	61.1
848.876	85.67
849.052	1.71
849.227	71.34
849.403	-12.63
849.578	100.01
849.753	63.15
849.929	97.96
850.104	-16.73
850.279	114.34
850.454	69.29
850.63	87.72
850.805	36.52
850.98	114.34
851.155	91.82
851.33	50.86
851.505	32.43
851.681	42.67
851.856	-8.53
852.031	73.39
852.206	13.99
852.381	106.15
852.556	38.57
852.731	26.28
852.906	-31.06
853.081	95.91
853.256	-2.39
853.431	40.62
853.606	-12.63
853.781	13.99
853.956	34.47
854.131	7.85
854.305	34.47
854.48	22.19
854.655	34.47
854.83	91.82
855.005	7.85
855.18	5.8
855.354	69.29
855.529	102.06
855.704	44.71
855.879	52.91
856.053	9.9
856.228	38.57
856.403	-14.68
856.577	42.67
856.752	-8.53
856.926	73.39
857.101	73.39
857.276	-67.92
857.45	54.95
857.625	79.53
857.799	22.19
857.974	112.3
858.148	-6.49
858.323	26.28
858.497	-10.58
858.672	-24.92
858.846	22.19
859.02	120.49
859.195	22.19
859.369	-2.39
859.543	18.09
859.718	75.43
859.892	75.43
860.066	67.24
860.241	-2.39
860.415	22.19
860.589	11.95
860.763	71.34
860.938	32.43
861.112	50.86
861.286	26.28
861.46	81.58
861.634	87.72
861.808	81.58
861.982	46.76
862.157	-2.39
862.331	65.19
862.505	13.99
862.679	24.23
862.853	24.23
863.027	50.86
863.201	34.47
863.375	-29.01
863.549	52.91
863.722	22.19
863.896	5.8
864.07	-6.49
864.244	-26.96
864.418	-8.53
864.592	87.72
864.766	54.95
864.939	79.53
865.113	30.38
865.287	79.53
865.461	38.57
865.634	-12.63
865.808	-0.34
865.982	5.8
866.156	30.38
866.329	65.19
866.503	22.19
866.676	46.76
866.85	34.47
867.024	46.76
867.197	77.48
867.371	73.39
867.544	32.43
867.718	32.43
867.891	-2.39
868.065	46.76
868.238	24.23
868.412	83.63
868.585	-2.39
868.759	-18.77
868.932	30.38
869.105	-2.39
869.279	52.91
869.452	42.67
869.625	46.76
869.799	79.53
869.972	-10.58
870.145	16.04
870.319	18.09
870.492	-18.77
870.665	36.52
870.838	-0.34
871.011	-24.92
871.185	1.71
871.358	38.57
871.531	-4.44
871.704	18.09
871.877	81.58
872.05	48.81
872.223	22.19
872.396	67.24
872.569	38.57
872.742	-12.63
872.915	54.95
873.088	-8.53
873.261	87.72
873.434	85.67
873.607	50.86
873.78	122.54
873.953	22.19
874.126	79.53
874.299	-16.73
874.471	-41.3
874.644	-31.06
874.817	22.19
874.99	-31.06
875.163	-12.63
875.335	32.43
875.508	57
875.681	-18.77
875.853	-14.68
876.026	13.99
876.199	108.2
876.371	40.62
876.544	-33.11
876.717	20.14
876.889	42.67
877.062	63.15
877.234	-33.11
877.407	-10.58
877.579	30.38
877.752	-8.53
877.924	97.96
878.097	57
878.269	61.1
878.442	32.43
878.614	-67.92
878.786	-18.77
878.959	-8.53
879.131	81.58
879.303	-84.31
879.476	26.28
879.648	89.77
879.82	22.19
879.993	18.09
880.165	13.99
880.337	-26.96
880.509	65.19
880.681	28.33
880.854	-31.06
881.026	61.1
881.198	83.63
881.37	-0.34
881.542	57
881.714	-22.87
881.886	18.09
882.058	9.9
882.23	65.19
882.402	71.34
882.574	18.09
882.746	52.91
882.918	24.23
883.09	-18.77
883.262	24.23
883.434	32.43
883.606	5.8
883.778	-53.59
883.95	128.68
884.122	79.53
884.293	20.14
884.465	22.19
884.637	104.11
884.809	22.19
884.98	48.81
885.152	-2.39
885.324	26.28
885.496	26.28
885.667	-31.06
885.839	-35.16
886.011	79.53
886.182	-33.11
886.354	18.09
886.525	24.23
886.697	28.33
886.869	-26.96
887.04	13.99
887.212	38.57
887.383	83.63
887.555	5.8
887.726	-24.92
887.897	-59.73
888.069	9.9
888.24	93.87
888.412	-43.35
888.583	5.8
888.754	-14.68
888.926	-18.77
889.097	-31.06
889.268	3.75
889.44	30.38
889.611	-43.35
889.782	46.76
889.953	13.99
890.125	26.28
890.296	9.9
890.467	40.62
890.638	-74.07
890.809	34.47
890.98	26.28
891.151	63.15
891.323	73.39
891.494	48.81
891.665	24.23
891.836	54.95
892.007	18.09
892.178	-14.68
892.349	-8.53
892.52	73.39
892.691	54.95
892.862	-16.73
893.032	-18.77
893.203	11.95
893.374	1.71
893.545	-0.34
893.716	13.99
893.887	83.63
894.057	75.43
894.228	-74.07
894.399	-14.68
894.57	30.38
894.74	34.47
894.911	-74.07
895.082	5.8
895.253	-10.58
895.423	32.43
895.594	75.43
895.764	38.57
895.935	-33.11
896.106	-55.64
896.276	-59.73
896.447	1.71
896.617	22.19
896.788	-53.59
896.958	-2.39
897.129	-14.68
897.299	7.85
897.47	32.43
897.64	91.82
897.81	-80.21
897.981	116.39
898.151	38.57
898.322	44.71
898.492	87.72
898.662	40.62
898.832	52.91
899.003	36.52
899.173	-8.53
899.343	-33.11
899.513	-82.26
