Data from USB4F104151__229__14-45-37-205.txt Node

Date: Thu Mar 13 14:45:37 EDT 2025
User: louis
Spectrometer: USB4F10415
Trigger mode: 4
Integration Time (sec): 2.000000E-2
Scans to average: 1
Electric dark correction enabled: true
Nonlinearity correction enabled: false
Boxcar width: 0
XAxis mode: Wavelengths
Number of Pixels in Spectrum: 3648
>>>>>Begin Spectral Data<<<<<
178.204	-124.58
178.424	-124.58
178.644	-124.58
178.864	-132.78
179.084	-110.25
179.304	-36.52
179.524	-91.82
179.744	43.35
179.964	26.96
180.184	47.44
180.404	49.49
180.624	0.34
180.844	14.68
181.064	-26.28
181.283	18.77
181.503	-46.76
181.723	0.34
181.943	-40.62
182.163	125.27
182.383	-18.09
182.602	18.77
182.822	35.16
183.042	-36.52
183.262	10.58
183.482	24.92
183.701	-5.8
183.921	108.88
184.141	-124.58
184.361	29.01
184.58	29.01
184.8	22.87
185.02	41.3
185.239	51.54
185.459	43.35
185.679	2.39
185.898	-26.28
186.118	47.44
186.338	0.34
186.557	47.44
186.777	-50.86
186.997	6.49
187.216	24.92
187.436	0.34
187.655	-26.28
187.875	106.84
188.095	-48.81
188.314	-1.71
188.534	51.54
188.753	-40.62
188.973	51.54
189.192	57.68
189.412	-7.85
189.631	53.59
189.851	-3.75
190.07	104.79
190.29	16.73
190.509	43.35
190.729	0.34
190.948	67.92
191.168	100.69
191.387	76.12
191.607	8.53
191.826	14.68
192.045	2.39
192.265	45.4
192.484	18.77
192.704	-28.33
192.923	14.68
193.142	22.87
193.362	63.83
193.581	49.49
193.8	-46.76
194.02	63.83
194.239	24.92
194.458	59.73
194.678	6.49
194.897	31.06
195.116	-24.23
195.335	47.44
195.555	55.64
195.774	47.44
195.993	96.6
196.212	37.2
196.432	31.06
196.651	61.78
196.87	-24.23
197.089	135.51
197.308	35.16
197.528	-38.57
197.747	-18.09
197.966	39.25
198.185	0.34
198.404	0.34
198.623	31.06
198.842	-34.47
199.062	43.35
199.281	96.6
199.5	45.4
199.719	-42.67
199.938	49.49
200.157	104.79
200.376	-1.71
200.595	43.35
200.814	88.4
201.033	-11.95
201.252	0.34
201.471	6.49
201.69	41.3
201.909	117.08
202.128	2.39
202.347	80.21
202.566	57.68
202.785	4.44
203.004	2.39
203.223	104.79
203.442	10.58
203.661	63.83
203.879	14.68
204.098	22.87
204.317	-91.82
204.536	20.82
204.755	53.59
204.974	24.92
205.193	-40.62
205.411	61.78
205.63	88.4
205.849	0.34
206.068	14.68
206.287	-26.28
206.505	2.39
206.724	-83.63
206.943	-63.15
207.162	39.25
207.381	-5.8
207.599	-7.85
207.818	-5.8
208.037	0.34
208.255	8.53
208.474	39.25
208.693	49.49
208.911	10.58
209.13	41.3
209.349	-22.19
209.567	10.58
209.786	24.92
210.005	39.25
210.223	-20.14
210.442	-89.77
210.661	4.44
210.879	37.2
211.098	90.45
211.316	57.68
211.535	59.73
211.753	-40.62
211.972	49.49
212.191	-22.19
212.409	0.34
212.628	37.2
212.846	14.68
213.065	22.87
213.283	33.11
213.502	41.3
213.72	31.06
213.938	63.83
214.157	-11.95
214.375	4.44
214.594	41.3
214.812	37.2
215.031	39.25
215.249	33.11
215.467	80.21
215.686	47.44
215.904	47.44
216.122	59.73
216.341	88.4
216.559	29.01
216.778	63.83
216.996	-16.04
217.214	39.25
217.432	10.58
217.651	4.44
217.869	51.54
218.087	31.06
218.306	47.44
218.524	43.35
218.742	22.87
218.96	115.03
219.179	-1.71
219.397	10.58
219.615	14.68
219.833	96.6
220.051	2.39
220.27	92.5
220.488	31.06
220.706	96.6
220.924	8.53
221.142	16.73
221.36	39.25
221.578	14.68
221.796	8.53
222.015	-11.95
222.233	47.44
222.451	-18.09
222.669	-13.99
222.887	16.73
223.105	-30.38
223.323	31.06
223.541	41.3
223.759	-18.09
223.977	-24.23
224.195	31.06
224.413	61.78
224.631	104.79
224.849	74.07
225.067	125.27
225.285	10.58
225.503	-18.09
225.721	-22.19
225.939	-1.71
226.157	6.49
226.375	121.17
226.592	-22.19
226.81	6.49
227.028	26.96
227.246	22.87
227.464	-24.23
227.682	10.58
227.9	57.68
228.117	-5.8
228.335	10.58
228.553	69.97
228.771	31.06
228.989	26.96
229.206	63.83
229.424	108.88
229.642	-1.71
229.86	98.64
230.077	67.92
230.295	57.68
230.513	22.87
230.731	41.3
230.948	90.45
231.166	51.54
231.384	10.58
231.601	-24.23
231.819	49.49
232.037	2.39
232.254	-9.9
232.472	-28.33
232.689	-7.85
232.907	72.02
233.125	-9.9
233.342	-9.9
233.56	2.39
233.777	31.06
233.995	106.84
234.213	86.36
234.43	69.97
234.648	-9.9
234.865	2.39
235.083	69.97
235.3	14.68
235.518	57.68
235.735	90.45
235.953	-18.09
236.17	74.07
236.388	47.44
236.605	-13.99
236.822	0.34
237.04	31.06
237.257	37.2
237.475	39.25
237.692	8.53
237.909	43.35
238.127	20.82
238.344	24.92
238.562	45.4
238.779	72.02
238.996	-7.85
239.214	31.06
239.431	24.92
239.648	31.06
239.865	8.53
240.083	72.02
240.3	8.53
240.517	-42.67
240.735	-18.09
240.952	90.45
241.169	6.49
241.386	-7.85
241.603	-46.76
241.821	-9.9
242.038	22.87
242.255	39.25
242.472	-1.71
242.689	-26.28
242.907	88.4
243.124	51.54
243.341	0.34
243.558	0.34
243.775	76.12
243.992	-28.33
244.209	57.68
244.426	39.25
244.643	47.44
244.86	-1.71
245.078	35.16
245.295	39.25
245.512	31.06
245.729	-40.62
245.946	49.49
246.163	39.25
246.38	26.96
246.597	-59.05
246.814	-1.71
247.031	31.06
247.248	31.06
247.464	43.35
247.681	74.07
247.898	63.83
248.115	39.25
248.332	-38.57
248.549	74.07
248.766	35.16
248.983	61.78
249.2	0.34
249.417	10.58
249.633	41.3
249.85	-34.47
250.067	-13.99
250.284	-59.05
250.501	53.59
250.717	39.25
250.934	-34.47
251.151	80.21
251.368	18.77
251.585	82.26
251.801	2.39
252.018	33.11
252.235	12.63
252.451	6.49
252.668	-32.43
252.885	18.77
253.102	31.06
253.318	55.64
253.535	-48.81
253.752	22.87
253.968	-34.47
254.185	26.96
254.401	69.97
254.618	8.53
254.835	-73.39
255.051	88.4
255.268	33.11
255.484	-9.9
255.701	-1.71
255.917	8.53
256.134	2.39
256.351	57.68
256.567	-1.71
256.784	74.07
257	2.39
257.217	24.92
257.433	74.07
257.65	-9.9
257.866	18.77
258.082	-26.28
258.299	-1.71
258.515	63.83
258.732	-40.62
258.948	-34.47
259.165	16.73
259.381	31.06
259.597	47.44
259.814	63.83
260.03	33.11
260.246	41.3
260.463	84.31
260.679	57.68
260.895	-13.99
261.112	69.97
261.328	31.06
261.544	-1.71
261.761	92.5
261.977	0.34
262.193	-59.05
262.409	-65.19
262.626	2.39
262.842	41.3
263.058	-5.8
263.274	51.54
263.49	8.53
263.707	63.83
263.923	41.3
264.139	-24.23
264.355	-24.23
264.571	88.4
264.787	63.83
265.004	39.25
265.22	-18.09
265.436	63.83
265.652	-5.8
265.868	-32.43
266.084	24.92
266.3	72.02
266.516	51.54
266.732	33.11
266.948	-30.38
267.164	6.49
267.38	-34.47
267.596	10.58
267.812	49.49
268.028	26.96
268.244	-34.47
268.46	39.25
268.676	45.4
268.892	8.53
269.108	49.49
269.324	10.58
269.54	55.64
269.756	47.44
269.972	8.53
270.188	22.87
270.403	24.92
270.619	2.39
270.835	14.68
271.051	35.16
271.267	-9.9
271.483	-1.71
271.698	63.83
271.914	22.87
272.13	-5.8
272.346	49.49
272.562	74.07
272.777	53.59
272.993	16.73
273.209	10.58
273.425	-1.71
273.64	47.44
273.856	39.25
274.072	8.53
274.287	-20.14
274.503	84.31
274.719	-30.38
274.934	-44.71
275.15	-18.09
275.366	22.87
275.581	-22.19
275.797	41.3
276.012	-71.34
276.228	-46.76
276.444	22.87
276.659	41.3
276.875	-18.09
277.09	-32.43
277.306	-40.62
277.521	35.16
277.737	43.35
277.952	67.92
278.168	-5.8
278.383	49.49
278.599	10.58
278.814	41.3
279.03	88.4
279.245	29.01
279.461	76.12
279.676	24.92
279.892	33.11
280.107	90.45
280.322	-22.19
280.538	55.64
280.753	-65.19
280.969	47.44
281.184	35.16
281.399	98.64
281.615	-34.47
281.83	4.44
282.045	14.68
282.26	-13.99
282.476	-54.95
282.691	24.92
282.906	4.44
283.122	8.53
283.337	39.25
283.552	31.06
283.767	-1.71
283.983	10.58
284.198	45.4
284.413	10.58
284.628	-13.99
284.843	51.54
285.058	-71.34
285.274	76.12
285.489	6.49
285.704	33.11
285.919	57.68
286.134	-5.8
286.349	26.96
286.564	47.44
286.779	115.03
286.995	18.77
287.21	65.88
287.425	12.63
287.64	35.16
287.855	41.3
288.07	-42.67
288.285	63.83
288.5	22.87
288.715	90.45
288.93	49.49
289.145	-42.67
289.36	-18.09
289.575	31.06
289.79	41.3
290.004	-9.9
290.219	26.96
290.434	-34.47
290.649	10.58
290.864	-13.99
291.079	6.49
291.294	24.92
291.509	90.45
291.724	-28.33
291.938	-1.71
292.153	14.68
292.368	-18.09
292.583	31.06
292.798	63.83
293.012	65.88
293.227	29.01
293.442	-1.71
293.657	10.58
293.871	80.21
294.086	-42.67
294.301	57.68
294.516	8.53
294.73	72.02
294.945	18.77
295.16	88.4
295.374	67.92
295.589	-9.9
295.804	31.06
296.018	31.06
296.233	14.68
296.447	26.96
296.662	-46.76
296.877	96.6
297.091	-1.71
297.306	88.4
297.52	-7.85
297.735	-5.8
297.949	4.44
298.164	39.25
298.378	47.44
298.593	8.53
298.807	-9.9
299.022	-11.95
299.236	92.5
299.451	43.35
299.665	-30.38
299.88	22.87
300.094	35.16
300.309	-9.9
300.523	47.44
300.737	6.49
300.952	-1.71
301.166	67.92
301.381	14.68
301.595	22.87
301.809	-24.23
302.024	47.44
302.238	-34.47
302.452	29.01
302.667	-34.47
302.881	74.07
303.095	100.69
303.309	20.82
303.524	43.35
303.738	35.16
303.952	14.68
304.166	41.3
304.381	-48.81
304.595	39.25
304.809	26.96
305.023	53.59
305.237	-77.48
305.452	76.12
305.666	-18.09
305.88	-1.71
306.094	65.88
306.308	45.4
306.522	59.73
306.736	63.83
306.95	47.44
307.164	41.3
307.379	37.2
307.593	39.25
307.807	33.11
308.021	8.53
308.235	24.92
308.449	6.49
308.663	49.49
308.877	67.92
309.091	43.35
309.305	59.73
309.519	4.44
309.733	51.54
309.947	2.39
310.161	10.58
310.374	31.06
310.588	55.64
310.802	0.34
311.016	51.54
311.23	-16.04
311.444	86.36
311.658	24.92
311.872	57.68
312.085	55.64
312.299	47.44
312.513	49.49
312.727	-5.8
312.941	14.68
313.154	45.4
313.368	33.11
313.582	26.96
313.796	16.73
314.009	6.49
314.223	35.16
314.437	12.63
314.651	14.68
314.864	-9.9
315.078	31.06
315.292	10.58
315.505	-5.8
315.719	45.4
315.933	22.87
316.146	39.25
316.36	-13.99
316.573	33.11
316.787	6.49
317.001	92.5
317.214	0.34
317.428	96.6
317.641	4.44
317.855	-34.47
318.068	47.44
318.282	-1.71
318.495	123.22
318.709	-30.38
318.922	-18.09
319.136	31.06
319.349	117.08
319.563	8.53
319.776	43.35
319.99	-13.99
320.203	74.07
320.417	51.54
320.63	-1.71
320.843	72.02
321.057	59.73
321.27	55.64
321.483	72.02
321.697	72.02
321.91	33.11
322.124	-18.09
322.337	-32.43
322.55	-16.04
322.763	45.4
322.977	24.92
323.19	18.77
323.403	22.87
323.617	76.12
323.83	39.25
324.043	47.44
324.256	88.4
324.469	18.77
324.683	115.03
324.896	26.96
325.109	6.49
325.322	-24.23
325.535	35.16
325.748	-50.86
325.962	31.06
326.175	108.88
326.388	80.21
326.601	33.11
326.814	16.73
327.027	33.11
327.24	14.68
327.453	-48.81
327.666	-18.09
327.879	76.12
328.092	6.49
328.305	-5.8
328.518	-18.09
328.731	8.53
328.944	16.73
329.157	43.35
329.37	24.92
329.583	47.44
329.796	74.07
330.009	-63.15
330.222	90.45
330.435	57.68
330.648	59.73
330.861	129.36
331.073	0.34
331.286	-30.38
331.499	8.53
331.712	2.39
331.925	53.59
332.138	72.02
332.35	-24.23
332.563	22.87
332.776	104.79
332.989	35.16
333.202	31.06
333.414	2.39
333.627	-57
333.84	-52.91
334.053	55.64
334.265	39.25
334.478	-32.43
334.691	-9.9
334.903	31.06
335.116	35.16
335.329	2.39
335.541	80.21
335.754	125.27
335.966	-5.8
336.179	-7.85
336.392	-24.23
336.604	51.54
336.817	33.11
337.029	92.5
337.242	-13.99
337.454	61.78
337.667	26.96
337.88	59.73
338.092	45.4
338.305	47.44
338.517	12.63
338.729	106.84
338.942	67.92
339.154	6.49
339.367	-40.62
339.579	63.83
339.792	-63.15
340.004	-16.04
340.217	-42.67
340.429	10.58
340.641	55.64
340.854	-26.28
341.066	78.16
341.278	26.96
341.491	115.03
341.703	80.21
341.915	41.3
342.128	14.68
342.34	8.53
342.552	39.25
342.764	67.92
342.977	16.73
343.189	61.78
343.401	72.02
343.613	26.96
343.826	20.82
344.038	37.2
344.25	-13.99
344.462	-34.47
344.674	-5.8
344.886	-7.85
345.099	8.53
345.311	31.06
345.523	14.68
345.735	-57
345.947	-26.28
346.159	22.87
346.371	0.34
346.583	-11.95
346.795	96.6
347.007	14.68
347.219	129.36
347.431	37.2
347.643	129.36
347.855	-7.85
348.067	-5.8
348.279	-59.05
348.491	18.77
348.703	-7.85
348.915	63.83
349.127	14.68
349.339	47.44
349.551	-22.19
349.763	31.06
349.975	-40.62
350.187	49.49
350.399	63.83
350.61	43.35
350.822	-38.57
351.034	72.02
351.246	31.06
351.458	10.58
351.669	-18.09
351.881	41.3
352.093	125.27
352.305	26.96
352.517	88.4
352.728	47.44
352.94	31.06
353.152	39.25
353.363	-42.67
353.575	6.49
353.787	47.44
353.999	65.88
354.21	43.35
354.422	-42.67
354.633	-1.71
354.845	104.79
355.057	31.06
355.268	39.25
355.48	22.87
355.692	57.68
355.903	-5.8
356.115	6.49
356.326	-7.85
356.538	82.26
356.749	14.68
356.961	69.97
357.172	14.68
357.384	6.49
357.595	94.55
357.807	6.49
358.018	6.49
358.23	8.53
358.441	67.92
358.653	80.21
358.864	6.49
359.075	59.73
359.287	72.02
359.498	65.88
359.709	86.36
359.921	20.82
360.132	67.92
360.344	39.25
360.555	16.73
360.766	-34.47
360.977	37.2
361.189	104.79
361.4	16.73
361.611	14.68
361.823	39.25
362.034	67.92
362.245	-9.9
362.456	22.87
362.667	24.92
362.879	24.92
363.09	100.69
363.301	49.49
363.512	24.92
363.723	-18.09
363.935	43.35
364.146	72.02
364.357	16.73
364.568	90.45
364.779	31.06
364.99	57.68
365.201	72.02
365.412	55.64
365.623	-1.71
365.834	14.68
366.045	-9.9
366.256	16.73
366.467	31.06
366.678	43.35
366.889	29.01
367.1	74.07
367.311	-18.09
367.522	43.35
367.733	0.34
367.944	12.63
368.155	-7.85
368.366	6.49
368.577	35.16
368.788	84.31
368.999	-24.23
369.209	98.64
369.42	80.21
369.631	104.79
369.842	-11.95
370.053	18.77
370.264	-18.09
370.474	0.34
370.685	-30.38
370.896	18.77
371.107	47.44
371.317	14.68
371.528	22.87
371.739	45.4
371.95	63.83
372.16	88.4
372.371	-38.57
372.582	16.73
372.792	84.31
373.003	39.25
373.214	88.4
373.424	92.5
373.635	14.68
373.846	63.83
374.056	2.39
374.267	57.68
374.477	108.88
374.688	57.68
374.898	74.07
375.109	26.96
375.319	33.11
375.53	47.44
375.74	43.35
375.951	-16.04
376.161	-18.09
376.372	14.68
376.582	43.35
376.793	14.68
377.003	16.73
377.214	8.53
377.424	-32.43
377.635	-24.23
377.845	33.11
378.055	35.16
378.266	-7.85
378.476	55.64
378.686	16.73
378.897	39.25
379.107	-34.47
379.317	31.06
379.528	51.54
379.738	63.83
379.948	-28.33
380.158	4.44
380.369	35.16
380.579	72.02
380.789	51.54
380.999	0.34
381.21	14.68
381.42	86.36
381.63	-16.04
381.84	43.35
382.05	82.26
382.261	39.25
382.471	-9.9
382.681	55.64
382.891	47.44
383.101	35.16
383.311	-73.39
383.521	39.25
383.731	14.68
383.941	74.07
384.151	-24.23
384.361	104.79
384.571	29.01
384.781	67.92
384.991	76.12
385.201	74.07
385.411	39.25
385.621	2.39
385.831	31.06
386.041	22.87
386.251	84.31
386.461	43.35
386.671	78.16
386.881	104.79
387.091	78.16
387.301	112.98
387.511	14.68
387.72	98.64
387.93	47.44
388.14	-34.47
388.35	69.97
388.56	88.4
388.769	41.3
388.979	67.92
389.189	-50.86
389.399	39.25
389.609	-13.99
389.818	-7.85
390.028	80.21
390.238	55.64
390.447	55.64
390.657	10.58
390.867	6.49
391.076	39.25
391.286	31.06
391.496	47.44
391.705	26.96
391.915	41.3
392.125	33.11
392.334	29.01
392.544	61.78
392.753	33.11
392.963	51.54
393.172	47.44
393.382	47.44
393.591	74.07
393.801	35.16
394.01	96.6
394.22	37.2
394.429	53.59
394.639	37.2
394.848	-9.9
395.058	20.82
395.267	26.96
395.477	14.68
395.686	63.83
395.895	104.79
396.105	112.98
396.314	102.74
396.524	-5.8
396.733	39.25
396.942	69.97
397.152	0.34
397.361	45.4
397.57	106.84
397.78	74.07
397.989	94.55
398.198	123.22
398.407	35.16
398.617	16.73
398.826	100.69
399.035	-42.67
399.244	123.22
399.453	72.02
399.663	117.08
399.872	43.35
400.081	49.49
400.29	84.31
400.499	14.68
400.708	49.49
400.917	72.02
401.127	88.4
401.336	39.25
401.545	139.6
401.754	121.17
401.963	139.6
402.172	82.26
402.381	51.54
402.59	115.03
402.799	49.49
403.008	47.44
403.217	76.12
403.426	67.92
403.635	55.64
403.844	59.73
404.053	57.68
404.262	55.64
404.471	129.36
404.68	98.64
404.888	90.45
405.097	39.25
405.306	164.18
405.515	100.69
405.724	129.36
405.933	158.03
406.142	129.36
406.35	131.41
406.559	84.31
406.768	123.22
406.977	145.75
407.185	166.23
407.394	170.32
407.603	129.36
407.812	166.23
408.02	170.32
408.229	170.32
408.438	213.33
408.646	80.21
408.855	158.03
409.064	84.31
409.272	211.28
409.481	194.9
409.69	188.75
409.898	178.51
410.107	160.08
410.315	211.28
410.524	174.42
410.733	186.71
410.941	221.52
411.15	282.96
411.358	252.24
411.567	289.1
411.775	262.48
411.984	260.43
412.192	362.83
412.401	237.91
412.609	325.97
412.818	352.59
413.026	205.14
413.234	317.78
413.443	391.5
413.651	295.25
413.86	360.78
414.068	371.02
414.276	446.8
414.485	352.59
414.693	498
414.901	432.46
415.11	416.08
415.318	465.23
415.526	424.27
415.734	461.13
415.943	469.33
416.151	489.81
416.359	491.85
416.567	579.92
416.776	588.11
416.984	504.14
417.192	672.08
417.4	594.25
417.608	502.09
417.817	694.6
418.025	665.93
418.233	799.05
418.441	788.81
418.649	731.47
418.857	741.71
419.065	805.19
419.273	739.66
419.481	960.84
419.689	878.92
419.897	1014.09
420.105	1020.23
420.313	983.37
420.521	966.98
420.729	1048.9
420.937	1057.09
421.145	1079.62
421.353	1130.82
421.561	1306.95
421.769	1149.25
421.977	1259.84
422.185	1399.1
422.393	1374.53
422.601	1456.45
422.809	1347.9
423.017	1460.54
423.224	1476.93
423.432	1513.79
423.64	1491.26
423.848	1702.2
424.056	1677.63
424.263	1837.37
424.471	1759.55
424.679	1775.93
424.887	1820.99
425.094	2076.98
425.302	1952.06
425.51	2021.69
425.718	2119.99
425.925	2206
426.133	2261.3
426.341	2339.12
426.548	2543.92
426.756	2382.13
426.964	2531.63
427.171	2636.08
427.379	2650.41
427.586	2713.9
427.794	2818.35
428.001	2840.87
428.209	3068.2
428.417	3086.63
428.624	3254.56
428.832	3252.52
429.039	3129.64
429.247	3123.49
429.454	3465.5
429.662	3643.68
429.869	3455.26
430.076	3840.28
430.284	3629.34
430.491	3858.71
430.699	3993.88
430.906	4055.32
431.114	4053.27
431.321	4145.43
431.528	4266.26
431.736	4442.39
431.943	4774.16
432.15	4677.9
432.358	4548.88
432.565	4970.76
432.772	4950.28
432.979	5163.27
433.187	5306.63
433.394	5169.41
433.601	5613.82
433.808	5654.78
434.016	5701.89
434.223	5800.19
434.43	6076.66
434.637	6021.37
434.844	6263.03
435.052	6570.23
435.259	6566.13
435.466	6697.2
435.673	6521.07
435.88	6969.58
436.087	7381.22
436.294	7260.39
436.501	7264.49
436.708	7352.55
436.915	7475.43
437.122	7846.11
437.329	7715.04
437.537	8118.49
437.743	8186.07
437.95	8167.64
438.157	8630.48
438.364	8890.57
438.571	8657.11
438.778	8968.4
438.985	9740.48
439.192	9312.46
439.399	9599.17
439.606	9601.22
439.813	9799.87
440.02	10416.31
440.227	10387.64
440.433	10150.07
440.64	10582.2
440.847	10430.65
441.054	10799.28
441.261	11356.33
441.467	11425.96
441.674	11483.3
441.881	11915.42
442.088	11911.33
442.294	11772.07
442.501	12066.97
442.708	12425.37
442.914	12859.54
443.121	13539.46
443.328	12974.22
443.534	13887.62
443.741	13516.94
443.948	13154.44
444.154	14235.77
444.361	14133.37
444.568	14368.89
444.774	14231.68
444.981	14334.07
445.187	14899.31
445.394	15452.27
445.6	15186.03
445.807	16844.88
446.013	16068.7
446.22	16412.76
446.426	17184.85
446.633	17369.16
446.839	17659.98
447.046	16965.71
447.252	17991.75
447.459	18006.08
447.665	18145.34
447.871	18681.91
448.078	19531.82
448.284	18526.27
448.491	18944.05
448.697	19804.2
448.903	20344.86
449.11	20295.71
449.316	19793.96
449.522	20394.01
449.728	21159.95
449.935	21135.38
450.141	21047.32
450.347	21587.98
450.553	20822.04
450.76	21153.81
450.966	21913.61
451.172	21657.61
451.378	22468.61
451.584	21606.41
451.791	22075.4
451.997	21866.5
452.203	22562.81
452.409	22413.31
452.615	22593.53
452.821	21923.85
453.027	21547.02
453.233	22706.17
453.44	21829.64
453.646	22491.13
453.852	21968.9
454.058	22343.68
454.264	21641.23
454.47	22736.89
454.676	21774.35
454.882	22484.99
455.088	20602.91
455.294	20559.9
455.5	21491.73
455.705	21307.41
455.911	20391.97
456.117	20240.42
456.323	20039.72
456.529	18855.99
456.735	20115.49
456.941	19185.71
457.147	19120.18
457.352	18475.07
457.558	18022.47
457.764	18376.76
457.97	18049.09
458.176	17631.3
458.381	17641.54
458.587	16760.92
458.793	16642.14
458.999	16048.22
459.204	16930.9
459.41	16699.48
459.616	15587.43
459.821	15470.7
460.027	15466.6
460.233	15327.34
460.438	14559.35
460.644	14680.18
460.85	13809.79
461.055	13860.99
461.261	13768.84
461.466	12769.43
461.672	12314.78
461.878	13203.6
462.083	12241.05
462.289	12083.36
462.494	11847.84
462.7	11428.01
462.905	11034.8
463.111	11628.71
463.316	11339.94
463.522	11305.13
463.727	11331.75
463.932	11270.31
464.138	11118.76
464.343	11182.25
464.549	10932.4
464.754	11212.97
464.959	11055.28
465.165	10995.89
465.37	10531
465.575	10346.68
465.781	10631.35
465.986	10782.9
466.191	10217.66
466.397	10053.82
466.602	9502.92
466.807	9982.14
467.012	10115.26
467.218	10041.53
467.423	9846.98
467.628	9922.75
467.833	10107.07
468.038	9914.56
468.244	9611.46
468.449	9834.69
468.654	9584.84
468.859	9640.13
469.064	9423.05
469.269	9052.36
469.474	9330.89
469.679	9464
469.885	9271.5
470.09	9390.28
470.295	9238.73
470.5	8949.96
470.705	9111.75
470.91	8974.54
471.115	8675.54
471.32	9017.55
471.525	8888.53
471.73	8710.35
471.935	8657.11
472.139	8476.88
472.344	8448.21
472.549	8583.38
472.754	8255.7
472.959	8173.78
473.164	7987.42
473.369	7995.61
473.574	8206.55
473.778	8022.23
473.983	8036.57
474.188	8020.19
474.393	7629.02
474.598	7743.71
474.802	7528.67
475.007	7379.17
475.212	7551.2
475.417	7278.82
475.621	7381.22
475.826	7258.34
476.031	7215.34
476.235	7018.73
476.44	7192.81
476.645	6865.13
476.849	6871.28
477.054	6807.79
477.259	6871.28
477.463	6764.78
477.668	6738.16
477.872	6727.92
478.077	6439.16
478.282	6437.11
478.486	6373.62
478.691	6344.95
478.895	6373.62
479.1	6412.53
479.304	6330.61
479.509	6019.32
479.713	6252.79
479.918	6035.71
480.122	5961.98
480.326	6285.56
480.531	6191.35
480.735	5986.55
480.94	6019.32
481.144	6172.92
481.348	5767.42
481.553	5800.19
481.757	5925.11
481.961	5961.98
482.166	5859.58
482.37	5871.87
482.574	5890.3
482.778	5808.38
482.983	5904.64
483.187	5751.04
483.391	5966.07
483.595	5669.12
483.8	5605.63
484.004	5744.89
484.208	5955.83
484.412	5906.68
484.616	5918.97
484.821	5933.31
485.025	5777.66
485.229	5888.25
485.433	5886.2
485.637	5810.43
485.841	5837.05
486.045	5921.02
486.249	5800.19
486.453	5904.64
486.657	5615.87
486.861	5703.93
487.065	5734.65
487.269	5818.62
487.473	5671.17
487.677	5906.68
487.881	5787.9
488.085	5953.79
488.289	5843.2
488.493	5816.57
488.697	5783.81
488.901	5667.07
489.105	5744.89
489.309	5894.4
489.512	6035.71
489.716	5773.57
489.92	5880.06
490.124	5796.09
490.328	5892.35
490.531	5937.4
490.735	5857.53
490.939	6123.77
491.143	6007.03
491.346	5912.83
491.55	6156.54
491.754	6004.99
491.958	6023.42
492.161	6183.16
492.365	6150.39
492.569	6150.39
492.772	6265.08
492.976	6158.58
493.18	6301.94
493.383	6412.53
493.587	6224.12
493.79	6406.39
493.994	6076.66
494.197	6482.16
494.401	6373.62
494.605	6433.01
494.808	6641.9
495.012	6619.38
495.215	6691.06
495.419	6707.44
495.622	6559.99
495.825	6740.21
496.029	6744.3
496.232	6873.32
496.436	6893.8
496.639	6985.96
496.843	7139.56
497.046	7229.67
497.249	7209.19
497.453	7297.25
497.656	7233.77
497.859	7149.8
498.063	7395.56
498.266	7545.06
498.469	7381.22
498.673	7565.54
498.876	7915.74
499.079	7665.89
499.282	7821.53
499.485	8018.14
499.689	7983.32
499.892	8136.92
500.095	8114.39
500.298	8390.87
500.501	8249.56
500.705	8304.85
500.908	8550.61
501.111	8501.46
501.314	8736.98
501.517	8755.41
501.72	8954.06
501.923	8919.25
502.126	9126.09
502.329	9259.21
502.532	9334.98
502.735	9320.65
502.938	9599.17
503.141	9527.49
503.344	9636.03
503.547	9820.35
503.75	9853.12
503.953	10021.05
504.156	10168.51
504.359	10143.93
504.562	10389.69
504.765	10653.87
504.968	10717.36
505.17	10805.42
505.373	10651.83
505.576	11139.24
505.779	10989.74
505.982	11094.19
506.185	11475.11
506.387	11405.48
506.59	11577.51
506.793	11624.61
506.996	11694.24
507.198	11983.01
507.401	11950.24
507.604	12138.65
507.807	12165.28
508.009	12466.33
508.212	12437.66
508.415	12648.6
508.617	12822.67
508.82	12929.17
509.022	12789.91
509.225	13209.74
509.428	13121.68
509.63	13582.47
509.833	13529.22
510.035	13828.23
510.238	13891.71
510.44	13881.47
510.643	14250.11
510.845	14069.89
511.048	14071.93
511.25	14342.27
511.453	14469.24
511.655	15179.89
511.858	15093.87
512.06	15011.95
512.262	15276.14
512.465	15073.39
512.667	15468.65
512.87	15343.72
513.072	15747.17
513.274	15851.62
513.477	16146.53
513.679	16367.71
513.881	16568.41
514.084	16592.98
514.286	16480.35
514.488	16615.51
514.69	17432.65
514.893	17254.48
515.095	17254.48
515.297	17418.32
515.499	17573.96
515.701	17717.32
515.904	18020.42
516.106	18139.2
516.308	18397.24
516.51	18493.5
516.712	18679.86
516.914	18626.62
517.116	19038.26
517.318	19148.85
517.52	19095.6
517.722	19494.96
517.925	19503.15
518.127	19865.64
518.329	20148.26
518.531	19822.63
518.733	20412.45
518.935	20643.87
519.136	20557.85
519.338	20766.74
519.54	20795.42
519.742	21041.17
519.944	21237.78
520.146	21786.63
520.348	21731.34
520.55	21886.98
520.752	21809.16
520.954	22276.1
521.155	22114.31
521.357	22839.29
521.559	22595.58
521.761	22876.15
521.963	23039.99
522.164	23138.29
522.366	23306.23
522.568	23341.04
522.77	23799.79
522.971	23750.63
523.173	23601.13
523.375	23750.63
523.576	24012.77
523.778	24076.26
523.98	24455.14
524.181	24657.89
524.383	24535.01
524.584	25081.81
524.786	24911.83
524.988	24786.91
525.189	25274.32
525.391	25352.15
525.592	25393.11
525.794	25460.69
525.995	25501.65
526.197	25755.6
526.398	25743.31
526.6	26181.57
526.801	25962.44
527.003	25696.21
527.204	26429.38
527.406	26582.98
527.607	26607.55
527.808	27027.38
528.01	26204.1
528.211	26632.13
528.412	27078.58
528.614	26992.57
528.815	26593.22
529.016	27357.11
529.218	27113.4
529.419	27641.78
529.62	27252.66
529.822	27332.53
530.023	27150.26
530.224	27424.69
530.425	27113.4
530.626	27348.92
530.828	27103.16
531.029	27852.72
531.23	27717.55
531.431	27649.97
531.632	27725.74
531.833	27348.92
532.035	27707.31
532.236	27959.21
532.437	27711.41
532.638	27838.38
532.839	28102.57
533.04	27948.97
533.241	27869.1
533.442	28231.59
533.643	28178.34
533.844	27918.25
534.045	27895.72
534.246	28164.01
534.447	28110.76
534.648	28080.04
534.849	27975.59
535.05	27936.68
535.251	28041.13
535.451	28012.46
535.652	28659.62
535.853	27766.7
536.054	28170.15
536.255	28116.9
536.456	27852.72
536.657	28516.26
536.857	28037.03
537.058	28217.25
537.259	28237.73
537.46	28487.59
537.66	28055.47
537.861	28381.09
538.062	28057.51
538.263	28323.75
538.463	27955.11
538.664	28090.28
538.865	28247.97
539.065	28094.38
539.266	27701.17
539.466	28438.44
539.667	27727.79
539.868	28495.78
540.068	28084.14
540.269	28157.86
540.469	28116.9
540.67	28090.28
540.87	28430.24
541.071	28123.05
541.271	28190.63
541.472	28153.77
541.672	28133.29
541.873	28225.45
542.073	27908.01
542.274	28325.8
542.474	27838.38
542.675	27903.92
542.875	28327.85
543.075	27877.29
543.276	27762.61
543.476	28221.35
543.676	28051.37
543.877	28151.72
544.077	27819.95
544.277	27918.25
544.478	28014.51
544.678	27971.5
544.878	27697.07
545.078	28161.96
545.279	27942.83
545.479	27897.77
545.679	28127.14
545.879	27795.37
546.079	27725.74
546.28	27998.12
546.48	27375.54
546.68	27994.03
546.88	27912.11
547.08	28295.08
547.28	27778.99
547.48	27772.85
547.68	27815.85
547.88	27537.33
548.081	27746.22
548.281	27987.88
548.481	28045.23
548.681	27781.04
548.881	28137.38
549.081	27768.75
549.28	27867.05
549.48	27971.5
549.68	27389.88
549.88	28233.64
550.08	27713.45
550.28	27609.01
550.48	27408.31
550.68	27895.72
550.88	27230.13
551.08	27629.49
551.279	27772.85
551.479	27918.25
551.679	27799.47
551.879	27512.75
552.079	27748.27
552.278	27862.96
552.478	27518.9
552.678	27441.07
552.878	27697.07
553.077	27826.09
553.277	27557.81
553.477	27611.06
553.676	27735.98
553.876	27604.91
554.076	27150.26
554.275	27443.12
554.475	27236.28
554.674	27563.95
554.874	27576.24
555.074	27105.21
555.273	27049.91
555.473	27283.38
555.672	27283.38
555.872	27408.31
556.071	27502.51
556.271	27049.91
556.47	26974.14
556.67	27054.01
556.869	26804.16
557.068	27023.29
557.268	26859.45
557.467	27125.69
557.667	27201.46
557.866	26859.45
558.065	27058.1
558.265	26826.68
558.464	26763.2
558.663	26824.64
558.863	26611.65
559.062	26859.45
559.261	26531.78
559.461	26927.03
559.66	26607.55
559.859	26343.36
560.058	26683.33
560.258	26720.19
560.457	26597.31
560.656	26634.17
560.855	26347.46
561.054	26709.95
561.253	26404.8
561.453	26509.25
561.652	26187.72
561.851	26873.79
562.05	26183.62
562.249	25849.8
562.448	26171.33
562.647	25808.84
562.846	26304.45
563.045	26118.09
563.244	25737.16
563.443	26027.98
563.642	25657.29
563.841	26191.81
564.04	25343.95
564.239	25788.36
564.438	25771.98
564.637	25620.43
564.836	25606.09
565.035	25065.43
565.234	25464.78
565.432	25481.17
565.631	25243.6
565.83	25487.31
566.029	25208.79
566.228	25182.17
566.427	25067.48
566.625	25112.53
566.824	24805.34
567.023	25219.03
567.222	24592.35
567.42	24856.54
567.619	24602.59
567.818	24557.53
568.016	24535.01
568.215	24768.48
568.414	24395.75
568.612	24750.04
568.811	24094.69
569.01	24418.27
569.208	24186.85
569.407	24444.9
569.605	23824.36
569.804	24500.19
570.002	24012.77
570.201	24215.52
570.4	24023.01
570.598	23760.87
570.797	23812.07
570.995	23910.38
571.193	23355.38
571.392	23607.28
571.59	23476.21
571.789	23410.67
571.987	23549.93
572.186	23488.49
572.384	23128.05
572.582	23416.82
572.781	23386.1
572.979	22910.97
573.177	22949.88
573.376	23095.28
573.574	22902.78
573.772	22935.54
573.971	22765.56
574.169	22841.34
574.367	22689.79
574.565	22755.32
574.763	22695.93
574.962	22423.55
575.16	22341.63
575.358	22646.78
575.556	22325.25
575.754	22767.61
575.952	22194.18
576.151	22237.19
576.349	22134.79
576.547	22032.39
576.745	22173.7
576.943	21977.09
577.141	22181.89
577.339	21827.59
577.537	21932.04
577.735	21575.69
577.933	21573.64
578.131	21639.18
578.329	21719.05
578.527	21461.01
578.725	21463.05
578.923	21491.73
579.121	21485.58
579.319	21309.46
579.516	21182.48
579.714	21030.93
579.912	20996.12
580.11	21190.67
580.308	20838.42
580.506	21311.5
580.704	20729.88
580.901	20906.01
581.099	21014.55
581.297	20834.33
581.495	20666.39
581.692	20879.38
581.89	20238.37
582.088	20748.31
582.285	20277.28
582.483	20881.43
582.681	20447.26
582.878	20277.28
583.076	19984.42
583.274	20219.94
583.471	20056.1
583.669	19970.08
583.866	19937.32
584.064	20129.83
584.262	19787.82
584.459	19869.73
584.657	19644.46
584.854	19982.37
585.052	19525.68
585.249	19918.89
585.447	19666.99
585.644	19310.64
585.841	19540.01
586.039	19537.96
586.236	19071.03
586.434	19204.14
586.631	19259.44
586.828	19095.6
587.026	19232.82
587.223	19189.81
587.42	19118.13
587.618	18870.33
587.815	18860.09
588.012	18720.82
588.21	18946.1
588.407	18896.95
588.604	18423.87
588.801	18528.31
588.999	18886.71
589.196	18464.83
589.393	18300.99
589.59	18321.47
589.787	18460.73
589.984	18407.48
590.182	18147.39
590.379	18268.22
590.576	18257.98
590.773	18153.54
590.97	18032.71
591.167	18210.88
591.364	17922.12
591.561	17981.51
591.758	17940.55
591.955	17842.25
592.152	18061.38
592.349	17705.03
592.546	17610.82
592.743	17514.57
592.94	17502.28
593.137	17489.99
593.334	17492.04
593.531	17221.71
593.727	17358.92
593.924	17291.34
594.121	17172.56
594.318	17279.05
594.515	16988.24
594.712	17219.66
594.908	16898.13
595.105	16758.87
595.302	16783.45
595.499	17135.7
595.696	16842.84
595.892	16787.54
596.089	16656.47
596.286	16951.38
596.482	16640.09
596.679	16570.46
596.876	16523.35
597.072	16334.94
597.269	16445.53
597.466	16334.94
597.662	16263.26
597.859	16439.39
598.055	16234.59
598.252	15913.06
598.448	16289.88
598.645	16076.9
598.841	15790.18
599.038	16019.55
599.234	16185.44
599.431	15933.54
599.627	15915.11
599.824	15591.53
600.02	15786.08
600.217	15931.49
600.413	15667.3
600.609	15677.54
600.806	15648.87
601.002	15413.35
601.198	15431.79
601.395	15546.47
601.591	15480.94
601.787	15384.68
601.984	15304.81
602.18	15407.21
602.376	15003.76
602.572	15175.79
602.769	15315.05
602.965	14948.47
603.161	15319.15
603.357	14803.06
603.553	14942.32
603.75	14930.03
603.946	14966.9
604.142	14985.33
604.338	14461.05
604.534	14565.5
604.73	14549.11
604.926	14477.43
605.122	14690.42
605.318	14450.81
605.514	14547.06
605.71	14248.06
605.906	14200.96
606.102	14387.32
606.298	14289.02
606.494	14231.68
606.69	14387.32
606.886	14141.57
607.082	14139.52
607.278	14114.94
607.474	13885.57
607.67	14131.33
607.866	13580.42
608.062	14254.2
608.257	13858.95
608.453	13875.33
608.649	13867.14
608.845	13867.14
609.041	13901.95
609.236	13746.31
609.432	13676.68
609.628	13715.59
609.824	13680.77
610.019	13404.3
610.215	13551.75
610.411	13668.48
610.606	13719.68
610.802	13338.76
610.998	13508.74
611.193	13318.28
611.389	13346.95
611.584	13455.5
611.78	13273.23
611.976	13248.65
612.171	13168.78
612.367	13303.95
612.562	13463.69
612.758	13310.09
612.953	13152.4
613.149	13160.59
613.344	13023.37
613.539	13133.96
613.735	13295.75
613.93	13222.03
614.126	12894.35
614.321	13054.09
614.517	12898.45
614.712	12875.92
614.907	12830.87
615.103	12908.69
615.298	12705.94
615.493	13045.9
615.688	12621.97
615.884	12880.02
616.079	12630.16
616.274	12767.38
616.47	12654.74
616.665	12531.86
616.86	12701.84
617.055	12750.99
617.25	12677.27
617.445	12826.77
617.641	12390.55
617.836	12517.53
618.031	12173.47
618.226	12353.69
618.421	12187.8
618.616	12370.07
618.811	12302.49
619.006	12241.05
619.201	11960.48
619.396	12218.52
619.591	11896.99
619.786	11942.05
619.981	11827.36
620.176	12300.44
620.371	11761.83
620.566	12048.54
620.761	11894.94
620.956	11790.5
621.151	11690.15
621.346	11727.01
621.541	11430.05
621.735	11618.47
621.93	11301.03
622.125	11530.41
622.32	11294.89
622.515	11387.05
622.709	10975.41
622.904	11081.9
623.099	11434.15
623.294	10979.5
623.488	11133.1
623.683	10909.87
623.878	10977.45
624.072	10795.18
624.267	10873.01
624.462	10731.7
624.656	10660.02
624.851	10717.36
625.046	10418.36
625.24	10629.3
625.435	10453.17
625.629	10588.34
625.824	10444.98
626.018	10406.07
626.213	10078.4
626.407	10254.52
626.602	10154.17
626.796	10025.15
626.991	10135.74
627.185	10027.2
627.38	9920.7
627.574	9765.06
627.768	9720
627.963	9754.82
628.157	9533.64
628.352	9617.6
628.546	9365.7
628.74	9685.19
628.935	9386.18
629.129	9410.76
629.323	9468.1
629.517	9134.28
629.712	9224.39
629.906	9468.1
630.1	8972.49
630.294	9023.69
630.489	9087.18
630.683	8886.48
630.877	8866
631.071	8822.99
631.265	8952.01
631.459	8935.63
631.653	8765.65
631.848	8915.15
632.042	8712.4
632.236	8673.49
632.43	8444.12
632.624	8591.57
632.818	8665.3
633.012	8515.8
633.206	8378.58
633.4	8485.08
633.594	8214.74
633.788	8177.88
633.982	8325.33
634.176	8210.65
634.369	8104.15
634.563	8169.69
634.757	8138.97
634.951	8143.07
635.145	8157.4
635.339	8077.53
635.533	8038.62
635.726	7981.28
635.92	7756
636.114	7827.68
636.308	7641.31
636.501	7735.52
636.695	7717.09
636.889	7446.76
637.083	7571.68
637.276	7604.45
637.47	7516.39
637.664	7327.97
637.857	7497.95
638.051	7354.6
638.244	7489.76
638.438	7264.49
638.632	7338.21
638.825	7182.57
639.019	7231.72
639.212	7033.07
639.406	7121.13
639.599	6858.99
639.793	7205.1
639.986	6922.48
640.18	7067.88
640.373	6971.63
640.567	6813.93
640.76	7004.39
640.954	6824.17
641.147	6799.6
641.34	6617.33
641.534	6586.61
641.727	6576.37
641.92	6752.49
642.114	6455.54
642.307	6609.14
642.5	6605.04
642.694	6455.54
642.887	6340.85
643.08	6500.59
643.273	6306.04
643.467	6273.27
643.66	6359.28
643.853	6351.09
644.046	6273.27
644.239	6093.05
644.432	6211.83
644.626	6201.59
644.819	6097.14
645.012	5996.79
645.205	6093.05
645.398	5970.17
645.591	5910.78
645.784	5978.36
645.977	5824.76
646.17	5980.41
646.363	5701.89
646.556	5765.37
646.749	5765.37
646.942	5781.76
647.135	5736.7
647.328	5648.64
647.521	5658.88
647.714	5548.29
647.907	5724.41
648.099	5546.24
648.292	5437.7
648.485	5298.44
648.678	5490.95
648.871	5437.7
649.064	5409.03
649.256	5363.97
649.449	5396.74
649.642	5275.91
649.835	5314.82
650.027	5341.44
650.22	5267.72
650.413	5175.56
650.605	5302.53
650.798	5208.33
650.991	5204.23
651.183	5077.26
651.376	5044.49
651.568	5003.53
651.761	4806.92
651.954	4911.37
652.146	5120.26
652.339	4972.81
652.531	4843.79
652.724	5028.1
652.916	4823.31
653.109	4763.92
653.301	4774.16
653.494	4774.16
653.686	4675.85
653.879	4790.54
654.071	4749.58
654.263	4671.76
654.456	4626.7
654.648	4696.33
654.84	4636.94
655.033	4718.86
655.225	4462.87
655.417	4464.91
655.61	4436.24
655.802	4473.11
655.994	4473.11
656.186	4426
656.379	4391.19
656.571	4440.34
656.763	4327.7
656.955	4458.77
657.148	4350.23
657.34	4288.79
657.532	4188.44
657.724	4172.05
657.916	4331.8
658.108	4233.49
658.3	4208.92
658.492	4051.22
658.684	4047.13
658.876	3971.35
659.068	4092.18
659.26	4045.08
659.452	4092.18
659.644	3920.15
659.836	3995.93
660.028	4006.17
660.22	3967.26
660.412	4045.08
660.604	3879.19
660.796	3801.37
660.988	3936.54
661.18	3688.73
661.372	3772.7
661.563	3840.28
661.755	3684.64
661.947	3881.24
662.139	3758.36
662.331	3733.79
662.522	3729.69
662.714	3766.56
662.906	3729.69
663.097	3635.49
663.289	3637.53
663.481	3533.09
663.673	3639.58
663.864	3678.49
664.056	3588.38
664.247	3483.94
664.439	3531.04
664.631	3490.08
664.822	3553.57
665.014	3461.41
665.205	3565.85
665.397	3528.99
665.588	3326.24
665.78	3430.69
665.971	3373.35
666.163	3211.56
666.354	3422.5
666.546	3451.17
666.737	3342.63
666.929	3225.89
667.12	3262.76
667.311	3170.6
667.503	3217.7
667.694	3359.01
667.885	3152.17
668.077	3139.88
668.268	3213.6
668.459	3213.6
668.651	3176.74
668.842	3215.65
669.033	3156.26
669.224	3121.45
669.416	3295.52
669.607	3072.29
669.798	2967.85
669.989	3113.25
670.18	3053.86
670.371	3096.87
670.563	2971.94
670.754	3037.48
670.945	3006.76
671.136	3037.48
671.327	2992.42
671.518	3082.53
671.709	3012.9
671.9	2998.57
672.091	3021.1
672.282	2873.64
672.473	2808.11
672.664	2939.18
672.855	2832.68
673.046	2828.59
673.237	2963.75
673.428	2857.26
673.619	2767.15
673.809	2804.01
674	2775.34
674.191	2869.55
674.382	2865.45
674.573	2746.67
674.764	2789.67
674.954	2873.64
675.145	2709.8
675.336	2670.89
675.527	2746.67
675.717	2736.43
675.908	2711.85
676.099	2634.03
676.289	2646.32
676.48	2668.84
676.671	2648.36
676.861	2844.97
677.052	2586.93
677.243	2619.69
677.433	2607.41
677.624	2601.26
677.814	2517.29
678.005	2670.89
678.195	2644.27
678.386	2513.2
678.576	2580.78
678.767	2640.17
678.957	2455.86
679.148	2570.54
679.338	2613.55
679.529	2578.73
679.719	2515.25
679.909	2523.44
680.1	2507.06
680.29	2697.52
680.481	2636.08
680.671	2533.68
680.861	2576.69
681.052	2595.12
681.242	2564.4
681.432	2537.77
681.622	2423.09
681.813	2588.97
682.003	2607.41
682.193	2451.76
682.383	2586.93
682.573	2410.8
682.764	2410.8
682.954	2505.01
683.144	2369.84
683.334	2410.8
683.524	2531.63
683.714	2488.62
683.904	2431.28
684.094	2447.66
684.284	2482.48
684.474	2349.36
684.664	2304.31
684.854	2441.52
685.044	2402.61
685.234	2337.07
685.424	2476.34
685.614	2324.79
685.804	2253.11
685.994	2367.79
686.184	2306.35
686.374	2310.45
686.564	2259.25
686.753	2279.73
686.943	2244.92
687.133	2386.22
687.323	2324.79
687.513	2285.87
687.702	2292.02
687.892	2269.49
688.082	2283.83
688.272	2228.53
688.461	2285.87
688.651	2224.44
688.841	2128.18
689.03	2212.15
689.22	2099.51
689.41	2263.35
689.599	2189.62
689.789	2095.41
689.979	2115.89
690.168	2152.76
690.358	2173.24
690.547	2212.15
690.737	2144.56
690.926	2142.52
691.116	2052.41
691.305	2124.08
691.495	2079.03
691.684	1986.87
691.874	2142.52
692.063	2083.13
692.252	2060.6
692.442	2066.74
692.631	1917.24
692.82	1984.82
693.01	2058.55
693.199	2025.78
693.388	2025.78
693.578	1966.39
693.767	1993.01
693.956	1927.48
694.146	1956.15
694.335	1886.52
694.524	1939.77
694.713	1947.96
694.902	1984.82
695.092	1859.9
695.281	2009.4
695.47	1833.27
695.659	1929.53
695.848	1984.82
696.037	1876.28
696.226	1993.01
696.415	1939.77
696.604	1950.01
696.793	1997.11
696.982	1820.99
697.171	1937.72
697.36	1816.89
697.549	1933.62
697.738	1915.19
697.927	1767.74
698.116	1863.99
698.305	1728.83
698.494	1812.79
698.683	1837.37
698.872	1890.62
699.061	1872.18
699.25	1825.08
699.438	1796.41
699.627	1837.37
699.816	1876.28
700.005	1749.31
700.193	1640.76
700.382	1857.85
700.571	1857.85
700.76	1825.08
700.948	1833.27
701.137	1866.04
701.326	1786.17
701.514	1775.93
701.703	1767.74
701.892	1868.09
702.08	1874.23
702.269	1698.11
702.457	1743.16
702.646	1843.51
702.834	1726.78
703.023	1870.14
703.212	1775.93
703.4	1796.41
703.589	1743.16
703.777	1892.66
703.965	1782.07
704.154	1782.07
704.342	1739.07
704.531	1784.12
704.719	1739.07
704.907	1751.35
705.096	1788.22
705.284	1728.83
705.472	1788.22
705.661	1718.59
705.849	1730.87
706.037	1751.35
706.226	1687.87
706.414	1792.31
706.602	1898.81
706.79	1786.17
706.979	1808.7
707.167	1882.42
707.355	1669.44
707.543	1706.3
707.731	1843.51
707.919	1792.31
708.107	1734.97
708.296	1804.6
708.484	1771.83
708.672	1753.4
708.86	1835.32
709.048	1851.71
709.236	1689.92
709.424	1786.17
709.612	1833.27
709.8	1685.82
709.988	1747.26
710.176	1769.79
710.364	1747.26
710.551	1788.22
710.739	1759.55
710.927	1765.69
711.115	1726.78
711.303	1687.87
711.491	1734.97
711.679	1681.72
711.866	1710.4
712.054	1794.36
712.242	1816.89
712.43	1861.94
712.617	1800.51
712.805	1771.83
712.993	1771.83
713.181	1818.94
713.368	1794.36
713.556	1767.74
713.744	1784.12
713.931	1751.35
714.119	1820.99
714.306	1734.97
714.494	1775.93
714.682	1810.75
714.869	1657.15
715.057	1777.98
715.244	1808.7
715.432	1816.89
715.619	1808.7
715.807	1798.46
715.994	1925.43
716.182	1849.66
716.369	1900.86
716.556	1863.99
716.744	1816.89
716.931	1833.27
717.119	1771.83
717.306	1814.84
717.493	1775.93
717.681	1751.35
717.868	1800.51
718.055	1769.79
718.242	1773.88
718.43	1796.41
718.617	1866.04
718.804	1898.81
718.991	1829.18
719.179	1761.59
719.366	1804.6
719.553	1739.07
719.74	1646.91
719.927	1745.21
720.114	1849.66
720.301	1796.41
720.488	1798.46
720.676	1747.26
720.863	1868.09
721.05	1843.51
721.237	1749.31
721.424	1796.41
721.611	1833.27
721.798	1730.87
721.985	1823.03
722.172	1878.33
722.358	1874.23
722.545	1894.71
722.732	1884.47
722.919	1782.07
723.106	1792.31
723.293	1808.7
723.48	1825.08
723.667	1827.13
723.853	1739.07
724.04	1857.85
724.227	1890.62
724.414	1855.8
724.6	1784.12
724.787	1890.62
724.974	1794.36
725.161	1761.59
725.347	1794.36
725.534	1802.55
725.72	1851.71
725.907	1771.83
726.094	1820.99
726.28	1833.27
726.467	1806.65
726.653	1884.47
726.84	1800.51
727.027	1907
727.213	1837.37
727.4	1816.89
727.586	2003.25
727.773	1777.98
727.959	1751.35
728.145	1749.31
728.332	1714.49
728.518	1825.08
728.705	1919.29
728.891	1825.08
729.077	1769.79
729.264	1800.51
729.45	1792.31
729.636	1796.41
729.823	1734.97
730.009	1765.69
730.195	1890.62
730.382	1773.88
730.568	1837.37
730.754	1728.83
730.94	1698.11
731.126	1907
731.313	1917.24
731.499	1823.03
731.685	1849.66
731.871	1849.66
732.057	1825.08
732.243	1849.66
732.429	1925.43
732.615	1870.14
732.801	1894.71
732.987	1800.51
733.173	1825.08
733.359	1825.08
733.545	1823.03
733.731	1866.04
733.917	1825.08
734.103	1870.14
734.289	1710.4
734.475	1720.64
734.661	1810.75
734.847	1767.74
735.033	1892.66
735.219	1882.42
735.404	1784.12
735.59	1915.19
735.776	1780.03
735.962	1808.7
736.148	1841.47
736.333	1784.12
736.519	1829.18
736.705	1802.55
736.89	1777.98
737.076	1835.32
737.262	1712.44
737.447	1808.7
737.633	1671.48
737.819	1820.99
738.004	1720.64
738.19	1739.07
738.375	1796.41
738.561	1816.89
738.747	1737.02
738.932	1644.86
739.118	1866.04
739.303	1843.51
739.489	1759.55
739.674	1868.09
739.859	1722.68
740.045	1808.7
740.23	1751.35
740.416	1661.24
740.601	1827.13
740.786	1802.55
740.972	1694.01
741.157	1734.97
741.342	1704.25
741.528	1753.4
741.713	1800.51
741.898	1661.24
742.084	1747.26
742.269	1730.87
742.454	1710.4
742.639	1677.63
742.824	1696.06
743.01	1681.72
743.195	1681.72
743.38	1718.59
743.565	1679.68
743.75	1595.71
743.935	1581.37
744.12	1597.76
744.305	1669.44
744.49	1556.8
744.675	1571.13
744.86	1558.85
745.045	1616.19
745.23	1532.22
745.415	1530.17
745.6	1673.53
745.785	1532.22
745.97	1503.55
746.155	1587.52
746.34	1575.23
746.525	1464.64
746.71	1624.38
746.895	1427.78
747.079	1456.45
747.264	1472.83
747.449	1562.94
747.634	1493.31
747.819	1499.45
748.003	1507.65
748.188	1347.9
748.373	1380.67
748.557	1407.3
748.742	1485.12
748.927	1431.87
749.111	1421.63
749.296	1349.95
749.481	1397.06
749.665	1448.26
749.85	1360.19
750.034	1464.64
750.219	1329.47
750.404	1407.3
750.588	1435.97
750.773	1308.99
750.957	1399.1
751.141	1327.43
751.326	1352
751.51	1366.34
751.695	1417.54
751.879	1339.71
752.064	1345.86
752.248	1384.77
752.432	1321.28
752.617	1354.05
752.801	1331.52
752.985	1214.79
753.17	1278.27
753.354	1284.42
753.538	1237.31
753.722	1165.64
753.907	1231.17
754.091	1210.69
754.275	1220.93
754.459	1196.36
754.643	1118.53
754.828	1050.95
755.012	1235.27
755.196	1272.13
755.38	1210.69
755.564	1098.05
755.748	1014.09
755.932	1155.4
756.116	1136.96
756.3	1141.06
756.484	1055.05
756.668	1128.77
756.852	1059.14
757.036	1108.29
757.22	1063.24
757.404	1065.29
757.588	1005.89
757.772	1128.77
757.956	1022.28
758.14	1112.39
758.323	975.17
758.507	979.27
758.691	1014.09
758.875	1048.9
759.059	1067.33
759.242	1034.57
759.426	1087.81
759.61	964.93
759.794	1016.13
759.977	1046.85
760.161	1100.1
760.345	1014.09
760.528	926.02
760.712	944.45
760.895	1028.42
761.079	940.36
761.263	944.45
761.446	905.54
761.63	932.17
761.813	956.74
761.997	956.74
762.18	993.61
762.364	930.12
762.547	856.39
762.731	885.06
762.914	977.22
763.098	903.5
763.281	923.98
763.464	833.86
763.648	909.64
763.831	915.78
764.015	903.5
764.198	801.1
764.381	778.57
764.564	870.73
764.748	909.64
764.931	813.38
765.114	833.86
765.297	915.78
765.481	874.82
765.664	901.45
765.847	784.71
766.03	876.87
766.213	794.95
766.397	899.4
766.58	876.87
766.763	938.31
766.946	885.06
767.129	778.57
767.312	766.28
767.495	792.91
767.678	817.48
767.861	809.29
768.044	817.48
768.227	764.23
768.41	784.71
768.593	747.85
768.776	833.86
768.959	760.14
769.142	784.71
769.324	768.33
769.507	713.03
769.69	747.85
769.873	747.85
770.056	768.33
770.239	782.67
770.421	710.99
770.604	653.64
770.787	762.19
770.97	766.28
771.152	700.75
771.335	665.93
771.518	710.99
771.7	827.72
771.883	799.05
772.066	766.28
772.248	756.04
772.431	782.67
772.613	762.19
772.796	686.41
772.978	731.47
773.161	788.81
773.343	637.26
773.526	645.45
773.708	645.45
773.891	627.02
774.073	694.6
774.256	600.4
774.438	733.51
774.621	579.92
774.803	719.18
774.985	661.84
775.168	631.12
775.35	612.68
775.532	729.42
775.715	596.3
775.897	645.45
776.079	620.88
776.261	557.39
776.444	627.02
776.626	575.82
776.808	584.01
776.99	571.72
777.173	608.59
777.355	538.96
777.537	596.3
777.719	586.06
777.901	608.59
778.083	528.72
778.265	588.11
778.447	588.11
778.629	581.96
778.811	457.04
778.993	536.91
779.175	555.34
779.357	530.77
779.539	457.04
779.721	538.96
779.903	518.48
780.085	500.05
780.267	506.19
780.449	452.94
780.631	502.09
780.812	530.77
780.994	584.01
781.176	602.44
781.358	538.96
781.54	512.33
781.721	481.61
781.903	504.14
782.085	491.85
782.267	481.61
782.448	457.04
782.63	520.53
782.812	416.08
782.993	559.44
783.175	532.81
783.357	418.13
783.538	506.19
783.72	366.93
783.901	432.46
784.083	426.32
784.264	371.02
784.446	383.31
784.627	469.33
784.809	393.55
784.99	457.04
785.172	452.94
785.353	362.83
785.535	428.37
785.716	407.89
785.897	344.4
786.079	397.65
786.26	461.13
786.441	352.59
786.623	239.95
786.804	334.16
786.985	371.02
787.167	440.65
787.348	387.41
787.529	424.27
787.71	405.84
787.891	336.21
788.073	276.82
788.254	328.02
788.435	356.69
788.616	379.22
788.797	239.95
788.978	424.27
789.159	330.06
789.34	297.3
789.522	330.06
789.703	416.08
789.884	256.34
790.065	358.74
790.246	366.93
790.427	303.44
790.607	407.89
790.788	289.1
790.969	323.92
791.15	278.87
791.331	291.15
791.512	309.58
791.693	246.1
791.874	360.78
792.054	360.78
792.235	317.78
792.416	272.72
792.597	317.78
792.778	256.34
792.958	366.93
793.139	332.11
793.32	293.2
793.5	213.33
793.681	252.24
793.862	301.39
794.042	252.24
794.223	256.34
794.404	289.1
794.584	178.51
794.765	317.78
794.945	297.3
795.126	227.67
795.306	319.82
795.487	303.44
795.667	270.67
795.848	180.56
796.028	205.14
796.209	237.91
796.389	319.82
796.57	301.39
796.75	115.03
796.93	303.44
797.111	266.58
797.291	203.09
797.471	276.82
797.652	276.82
797.832	153.94
798.012	237.91
798.192	211.28
798.373	211.28
798.553	266.58
798.733	213.33
798.913	172.37
799.093	264.53
799.274	213.33
799.454	254.29
799.634	205.14
799.814	268.63
799.994	246.1
800.174	198.99
800.354	270.67
800.534	201.04
800.714	180.56
800.894	229.71
801.074	145.75
801.254	237.91
801.434	252.24
801.614	244.05
801.794	166.23
801.974	844.1
802.154	153.94
802.334	244.05
802.514	115.03
802.693	205.14
802.873	104.79
803.053	213.33
803.233	164.18
803.413	145.75
803.592	235.86
803.772	184.66
803.952	211.28
804.131	231.76
804.311	139.6
804.491	223.57
804.67	170.32
804.85	188.75
805.03	182.61
805.209	229.71
805.389	147.8
805.568	186.71
805.748	217.43
805.928	180.56
806.107	147.8
806.287	194.9
806.466	188.75
806.646	190.8
806.825	117.08
807.004	166.23
807.184	147.8
807.363	135.51
807.543	153.94
807.722	137.56
807.901	190.8
808.081	182.61
808.26	72.02
808.439	76.12
808.619	92.5
808.798	229.71
808.977	174.42
809.156	176.47
809.336	94.55
809.515	178.51
809.694	100.69
809.873	180.56
810.052	74.07
810.231	196.95
810.411	170.32
810.59	221.52
810.769	84.31
810.948	121.17
811.127	47.44
811.306	160.08
811.485	139.6
811.664	264.53
811.843	172.37
812.022	178.51
812.201	110.93
812.38	164.18
812.559	119.12
812.737	145.75
812.916	59.73
813.095	80.21
813.274	186.71
813.453	219.47
813.632	153.94
813.811	149.84
813.989	92.5
814.168	80.21
814.347	123.22
814.526	145.75
814.704	137.56
814.883	170.32
815.062	57.68
815.24	115.03
815.419	65.88
815.598	127.32
815.776	55.64
815.955	125.27
816.133	133.46
816.312	47.44
816.49	108.88
816.669	133.46
816.847	162.13
817.026	141.65
817.204	162.13
817.383	166.23
817.561	131.41
817.74	90.45
817.918	115.03
818.097	133.46
818.275	112.98
818.453	137.56
818.632	133.46
818.81	22.87
818.988	84.31
819.167	123.22
819.345	88.4
819.523	55.64
819.701	76.12
819.879	168.27
820.058	186.71
820.236	112.98
820.414	53.59
820.592	65.88
820.77	51.54
820.948	88.4
821.127	63.83
821.305	72.02
821.483	55.64
821.661	178.51
821.839	86.36
822.017	96.6
822.195	106.84
822.373	76.12
822.551	121.17
822.729	123.22
822.907	133.46
823.085	96.6
823.262	61.78
823.44	63.83
823.618	26.96
823.796	65.88
823.974	39.25
824.152	90.45
824.329	96.6
824.507	57.68
824.685	125.27
824.863	74.07
825.04	92.5
825.218	82.26
825.396	100.69
825.574	41.3
825.751	43.35
825.929	131.41
826.107	51.54
826.284	98.64
826.462	104.79
826.639	33.11
826.817	53.59
826.994	24.92
827.172	57.68
827.349	106.84
827.527	57.68
827.704	35.16
827.882	137.56
828.059	115.03
828.237	57.68
828.414	51.54
828.591	39.25
828.769	104.79
828.946	72.02
829.124	117.08
829.301	55.64
829.478	117.08
829.655	121.17
829.833	106.84
830.01	63.83
830.187	104.79
830.364	119.12
830.542	55.64
830.719	74.07
830.896	45.4
831.073	98.64
831.25	76.12
831.427	133.46
831.604	22.87
831.782	24.92
831.959	22.87
832.136	-32.43
832.313	35.16
832.49	78.16
832.667	170.32
832.844	72.02
833.021	12.63
833.198	108.88
833.374	74.07
833.551	80.21
833.728	112.98
833.905	55.64
834.082	65.88
834.259	59.73
834.436	80.21
834.612	53.59
834.789	63.83
834.966	45.4
835.143	86.36
835.319	-9.9
835.496	125.27
835.673	104.79
835.85	98.64
836.026	86.36
836.203	47.44
836.38	41.3
836.556	147.8
836.733	31.06
836.909	117.08
837.086	-44.71
837.262	92.5
837.439	55.64
837.616	-3.75
837.792	115.03
837.968	49.49
838.145	24.92
838.321	69.97
838.498	-26.28
838.674	51.54
838.851	155.99
839.027	31.06
839.203	14.68
839.38	0.34
839.556	6.49
839.732	137.56
839.909	90.45
840.085	-1.71
840.261	-16.04
840.437	14.68
840.614	47.44
840.79	125.27
840.966	69.97
841.142	43.35
841.318	-9.9
841.494	115.03
841.671	80.21
841.847	61.78
842.023	0.34
842.199	14.68
842.375	104.79
842.551	65.88
842.727	-18.09
842.903	90.45
843.079	-30.38
843.255	41.3
843.431	43.35
843.607	51.54
843.783	59.73
843.959	74.07
844.134	-61.1
844.31	137.56
844.486	-16.04
844.662	35.16
844.838	63.83
845.013	55.64
845.189	-9.9
845.365	47.44
845.541	0.34
845.716	55.64
845.892	59.73
846.068	49.49
846.244	-34.47
846.419	55.64
846.595	0.34
846.77	-30.38
846.946	-30.38
847.122	53.59
847.297	10.58
847.473	104.79
847.648	20.82
847.824	55.64
847.999	6.49
848.175	57.68
848.35	47.44
848.526	22.87
848.701	39.25
848.876	-26.28
849.052	88.4
849.227	49.49
849.403	31.06
849.578	22.87
849.753	33.11
849.929	24.92
850.104	33.11
850.279	33.11
850.454	6.49
850.63	63.83
850.805	0.34
850.98	41.3
851.155	29.01
851.33	31.06
851.505	-30.38
851.681	84.31
851.856	-18.09
852.031	-24.23
852.206	16.73
852.381	-18.09
852.556	51.54
852.731	65.88
852.906	22.87
853.081	22.87
853.256	2.39
853.431	110.93
853.606	-1.71
853.781	55.64
853.956	-46.76
854.131	-26.28
854.305	6.49
854.48	0.34
854.655	-65.19
854.83	-34.47
855.005	22.87
855.18	-34.47
855.354	47.44
855.529	-18.09
855.704	-5.8
855.879	33.11
856.053	-5.8
856.228	72.02
856.403	24.92
856.577	63.83
856.752	-22.19
856.926	33.11
857.101	55.64
857.276	-26.28
857.45	14.68
857.625	22.87
857.799	45.4
857.974	47.44
858.148	-81.58
858.323	-18.09
858.497	88.4
858.672	63.83
858.846	-26.28
859.02	41.3
859.195	-28.33
859.369	59.73
859.543	2.39
859.718	39.25
859.892	-7.85
860.066	39.25
860.241	22.87
860.415	14.68
860.589	-50.86
860.763	47.44
860.938	18.77
861.112	6.49
861.286	-20.14
861.46	22.87
861.634	-9.9
861.808	-59.05
861.982	-5.8
862.157	22.87
862.331	10.58
862.505	47.44
862.679	10.58
862.853	-18.09
863.027	35.16
863.201	39.25
863.375	59.73
863.549	2.39
863.722	18.77
863.896	47.44
864.07	39.25
864.244	35.16
864.418	33.11
864.592	8.53
864.766	-34.47
864.939	-50.86
865.113	0.34
865.287	-1.71
865.461	-57
865.634	-34.47
865.808	-54.95
865.982	-73.39
866.156	-18.09
866.329	-26.28
866.503	57.68
866.676	-18.09
866.85	39.25
867.024	-40.62
867.197	115.03
867.371	33.11
867.544	14.68
867.718	14.68
867.891	63.83
868.065	47.44
868.238	63.83
868.412	63.83
868.585	72.02
868.759	-7.85
868.932	-34.47
869.105	-26.28
869.279	24.92
869.452	39.25
869.625	31.06
869.799	53.59
869.972	22.87
870.145	-30.38
870.319	49.49
870.492	-81.58
870.665	41.3
870.838	-11.95
871.011	-24.23
871.185	63.83
871.358	22.87
871.531	-57
871.704	-40.62
871.877	67.92
872.05	35.16
872.223	16.73
872.396	51.54
872.569	39.25
872.742	-26.28
872.915	-1.71
873.088	-1.71
873.261	-75.43
873.434	-1.71
873.607	26.96
873.78	96.6
873.953	-42.67
874.126	57.68
874.299	74.07
874.471	-95.91
874.644	-1.71
874.817	35.16
874.99	80.21
875.163	22.87
875.335	57.68
875.508	47.44
875.681	4.44
875.853	-3.75
876.026	22.87
876.199	12.63
876.371	72.02
876.544	31.06
876.717	-46.76
876.889	86.36
877.062	6.49
877.234	-34.47
877.407	31.06
877.579	39.25
877.752	20.82
877.924	22.87
878.097	84.31
878.269	-16.04
878.442	108.88
878.614	0.34
878.786	24.92
878.959	59.73
879.131	24.92
879.303	-7.85
879.476	47.44
879.648	31.06
879.82	47.44
879.993	24.92
880.165	-7.85
880.337	-104.11
880.509	-3.75
880.681	-114.34
880.854	-1.71
881.026	24.92
881.198	104.79
881.37	-18.09
881.542	84.31
881.714	-9.9
881.886	-7.85
882.058	-26.28
882.23	-18.09
882.402	-7.85
882.574	14.68
882.746	-22.19
882.918	55.64
883.09	4.44
883.262	47.44
883.434	-26.28
883.606	-5.8
883.778	37.2
883.95	-7.85
884.122	6.49
884.293	121.17
884.465	-30.38
884.637	31.06
884.809	-32.43
884.98	0.34
885.152	31.06
885.324	63.83
885.496	-67.24
885.667	26.96
885.839	-26.28
886.011	49.49
886.182	8.53
886.354	31.06
886.525	-34.47
886.697	26.96
886.869	-85.67
887.04	-5.8
887.212	59.73
887.383	47.44
887.555	6.49
887.726	-54.95
887.897	-16.04
888.069	-20.14
888.24	12.63
888.412	16.73
888.583	-54.95
888.754	-42.67
888.926	-13.99
889.097	-9.9
889.268	35.16
889.44	-26.28
889.611	-24.23
889.782	10.58
889.953	-57
890.125	76.12
890.296	6.49
890.467	-3.75
890.638	6.49
890.809	-63.15
890.98	35.16
891.151	-5.8
891.323	100.69
891.494	-83.63
891.665	24.92
891.836	59.73
892.007	55.64
892.178	-38.57
892.349	51.54
892.52	-26.28
892.691	-34.47
892.862	-16.04
893.032	-22.19
893.203	-18.09
893.374	-30.38
893.545	-30.38
893.716	-1.71
893.887	47.44
894.057	-52.91
894.228	-40.62
894.399	-83.63
894.57	35.16
894.74	33.11
894.911	39.25
895.082	8.53
895.253	-9.9
895.423	-67.24
895.594	49.49
895.764	33.11
895.935	69.97
896.106	-1.71
896.276	31.06
896.447	41.3
896.617	26.96
896.788	-24.23
896.958	-28.33
897.129	47.44
897.299	12.63
897.47	-16.04
897.64	14.68
897.81	-9.9
897.981	-1.71
898.151	-32.43
898.322	84.31
898.492	22.87
898.662	14.68
898.832	-59.05
899.003	41.3
899.173	37.2
899.343	2.39
899.513	-67.24
