Data from USB4F104151__297__14-46-32-153.txt Node

Date: Thu Mar 13 14:46:32 EDT 2025
User: louis
Spectrometer: USB4F10415
Trigger mode: 4
Integration Time (sec): 2.000000E-2
Scans to average: 1
Electric dark correction enabled: true
Nonlinearity correction enabled: false
Boxcar width: 0
XAxis mode: Wavelengths
Number of Pixels in Spectrum: 3648
>>>>>Begin Spectral Data<<<<<
178.204	-104.11
178.424	-104.11
178.644	-104.11
178.864	-106.15
179.084	-93.87
179.304	-28.33
179.524	-24.23
179.744	16.73
179.964	29.01
180.184	2.39
180.404	57.68
180.624	-91.82
180.844	61.78
181.064	18.77
181.283	-3.75
181.503	-50.86
181.723	12.63
181.943	-65.19
182.163	-24.23
182.383	-7.85
182.602	51.54
182.822	-20.14
183.042	31.06
183.262	90.45
183.482	29.01
183.701	-13.99
183.921	-3.75
184.141	4.44
184.361	-20.14
184.58	57.68
184.8	20.82
185.02	57.68
185.239	57.68
185.459	33.11
185.679	18.77
185.898	8.53
186.118	51.54
186.338	8.53
186.557	35.16
186.777	-32.43
186.997	18.77
187.216	6.49
187.436	33.11
187.655	18.77
187.875	16.73
188.095	-26.28
188.314	110.93
188.534	59.73
188.753	-63.15
188.973	-1.71
189.192	76.12
189.412	45.4
189.631	8.53
189.851	0.34
190.07	43.35
190.29	-32.43
190.509	14.68
190.729	-20.14
190.948	59.73
191.168	160.08
191.387	14.68
191.607	20.82
191.826	24.92
192.045	22.87
192.265	-1.71
192.484	-24.23
192.704	80.21
192.923	-28.33
193.142	4.44
193.362	31.06
193.581	-3.75
193.8	49.49
194.02	41.3
194.239	39.25
194.458	61.78
194.678	22.87
194.897	51.54
195.116	-1.71
195.335	-24.23
195.555	6.49
195.774	119.12
195.993	47.44
196.212	4.44
196.432	-24.23
196.651	-18.09
196.87	-18.09
197.089	82.26
197.308	-7.85
197.528	78.16
197.747	-40.62
197.966	16.73
198.185	76.12
198.404	-13.99
198.623	88.4
198.842	86.36
199.062	43.35
199.281	92.5
199.5	43.35
199.719	-38.57
199.938	-11.95
200.157	98.64
200.376	4.44
200.595	61.78
200.814	41.3
201.033	26.96
201.252	16.73
201.471	26.96
201.69	55.64
201.909	16.73
202.128	69.97
202.347	24.92
202.566	-5.8
202.785	-22.19
203.004	-24.23
203.223	20.82
203.442	96.6
203.661	2.39
203.879	0.34
204.098	67.92
204.317	10.58
204.536	43.35
204.755	-38.57
204.974	53.59
205.193	59.73
205.411	33.11
205.63	-32.43
205.849	98.64
206.068	45.4
206.287	16.73
206.505	26.96
206.724	-32.43
206.943	8.53
207.162	61.78
207.381	65.88
207.599	33.11
207.818	29.01
208.037	74.07
208.255	16.73
208.474	-24.23
208.693	16.73
208.911	-20.14
209.13	-22.19
209.349	14.68
209.567	31.06
209.786	49.49
210.005	45.4
210.223	74.07
210.442	-24.23
210.661	35.16
210.879	16.73
211.098	94.55
211.316	12.63
211.535	41.3
211.753	41.3
211.972	43.35
212.191	20.82
212.409	47.44
212.628	2.39
212.846	10.58
213.065	10.58
213.283	45.4
213.502	2.39
213.72	84.31
213.938	18.77
214.157	12.63
214.375	57.68
214.594	-16.04
214.812	2.39
215.031	117.08
215.249	-16.04
215.467	-11.95
215.686	-20.14
215.904	125.27
216.122	51.54
216.341	74.07
216.559	41.3
216.778	55.64
216.996	-5.8
217.214	37.2
217.432	-7.85
217.651	8.53
217.869	-89.77
218.087	31.06
218.306	-16.04
218.524	-1.71
218.742	-32.43
218.96	16.73
219.179	-18.09
219.397	-20.14
219.615	61.78
219.833	45.4
220.051	10.58
220.27	151.89
220.488	-13.99
220.706	24.92
220.924	24.92
221.142	53.59
221.36	69.97
221.578	65.88
221.796	8.53
222.015	33.11
222.233	0.34
222.451	16.73
222.669	98.64
222.887	63.83
223.105	82.26
223.323	35.16
223.541	35.16
223.759	47.44
223.977	-24.23
224.195	29.01
224.413	65.88
224.631	10.58
224.849	-24.23
225.067	65.88
225.285	0.34
225.503	8.53
225.721	-16.04
225.939	57.68
226.157	74.07
226.375	53.59
226.592	41.3
226.81	-50.86
227.028	41.3
227.246	100.69
227.464	20.82
227.682	26.96
227.9	57.68
228.117	8.53
228.335	65.88
228.553	-40.62
228.771	26.96
228.989	100.69
229.206	24.92
229.424	-22.19
229.642	67.92
229.86	-40.62
230.077	92.5
230.295	108.88
230.513	20.82
230.731	61.78
230.948	53.59
231.166	76.12
231.384	78.16
231.601	-9.9
231.819	-24.23
232.037	24.92
232.254	20.82
232.472	41.3
232.689	-13.99
232.907	49.49
233.125	-22.19
233.342	39.25
233.56	16.73
233.777	8.53
233.995	14.68
234.213	35.16
234.43	61.78
234.648	94.55
234.865	51.54
235.083	41.3
235.3	-7.85
235.518	18.77
235.735	119.12
235.953	8.53
236.17	20.82
236.388	61.78
236.605	0.34
236.822	10.58
237.04	41.3
237.257	22.87
237.475	-7.85
237.692	16.73
237.909	20.82
238.127	0.34
238.344	57.68
238.562	-7.85
238.779	-46.76
238.996	-34.47
239.214	12.63
239.431	41.3
239.648	67.92
239.865	12.63
240.083	49.49
240.3	57.68
240.517	55.64
240.735	74.07
240.952	2.39
241.169	31.06
241.386	80.21
241.603	59.73
241.821	20.82
242.038	90.45
242.255	45.4
242.472	2.39
242.689	10.58
242.907	84.31
243.124	31.06
243.341	-3.75
243.558	-13.99
243.775	90.45
243.992	-52.91
244.209	88.4
244.426	20.82
244.643	57.68
244.86	12.63
245.078	0.34
245.295	8.53
245.512	41.3
245.729	26.96
245.946	-3.75
246.163	55.64
246.38	-26.28
246.597	51.54
246.814	2.39
247.031	39.25
247.248	41.3
247.464	74.07
247.681	29.01
247.898	45.4
248.115	57.68
248.332	-16.04
248.549	76.12
248.766	37.2
248.983	49.49
249.2	76.12
249.417	57.68
249.633	-77.48
249.85	-1.71
250.067	-36.52
250.284	-7.85
250.501	80.21
250.717	26.96
250.934	-40.62
251.151	12.63
251.368	-40.62
251.585	78.16
251.801	2.39
252.018	37.2
252.235	86.36
252.451	-16.04
252.668	24.92
252.885	16.73
253.102	8.53
253.318	8.53
253.535	-42.67
253.752	51.54
253.968	41.3
254.185	-16.04
254.401	24.92
254.618	61.78
254.835	35.16
255.051	16.73
255.268	84.31
255.484	115.03
255.701	74.07
255.917	67.92
256.134	14.68
256.351	31.06
256.567	69.97
256.784	22.87
257	-34.47
257.217	94.55
257.433	69.97
257.65	51.54
257.866	131.41
258.082	8.53
258.299	8.53
258.515	43.35
258.732	10.58
258.948	8.53
259.165	35.16
259.381	16.73
259.597	41.3
259.814	-3.75
260.03	41.3
260.246	-28.33
260.463	-30.38
260.679	43.35
260.895	-7.85
261.112	47.44
261.328	0.34
261.544	6.49
261.761	53.59
261.977	-13.99
262.193	47.44
262.409	90.45
262.626	24.92
262.842	-18.09
263.058	10.58
263.274	102.74
263.49	106.84
263.707	43.35
263.923	45.4
264.139	-16.04
264.355	0.34
264.571	90.45
264.787	26.96
265.004	78.16
265.22	84.31
265.436	6.49
265.652	-18.09
265.868	65.88
266.084	-69.29
266.3	53.59
266.516	35.16
266.732	-3.75
266.948	65.88
267.164	-7.85
267.38	-13.99
267.596	-11.95
267.812	45.4
268.028	4.44
268.244	-46.76
268.46	-5.8
268.676	6.49
268.892	49.49
269.108	-16.04
269.324	16.73
269.54	-16.04
269.756	26.96
269.972	-7.85
270.188	18.77
270.403	76.12
270.619	65.88
270.835	-3.75
271.051	-9.9
271.267	41.3
271.483	-22.19
271.698	-61.1
271.914	53.59
272.13	-16.04
272.346	8.53
272.562	4.44
272.777	-16.04
272.993	33.11
273.209	-57
273.425	-20.14
273.64	-36.52
273.856	67.92
274.072	-38.57
274.287	-13.99
274.503	57.68
274.719	115.03
274.934	45.4
275.15	10.58
275.366	82.26
275.581	-30.38
275.797	2.39
276.012	98.64
276.228	24.92
276.444	31.06
276.659	43.35
276.875	-30.38
277.09	67.92
277.306	10.58
277.521	8.53
277.737	-5.8
277.952	8.53
278.168	-61.1
278.383	0.34
278.599	-24.23
278.814	82.26
279.03	31.06
279.245	72.02
279.461	31.06
279.676	-7.85
279.892	43.35
280.107	53.59
280.322	57.68
280.538	74.07
280.753	78.16
280.969	-5.8
281.184	-48.81
281.399	18.77
281.615	12.63
281.83	29.01
282.045	-46.76
282.26	2.39
282.476	-7.85
282.691	117.08
282.906	35.16
283.122	-32.43
283.337	10.58
283.552	65.88
283.767	12.63
283.983	8.53
284.198	26.96
284.413	49.49
284.628	20.82
284.843	16.73
285.058	0.34
285.274	53.59
285.489	-13.99
285.704	35.16
285.919	-18.09
286.134	33.11
286.349	20.82
286.564	33.11
286.779	4.44
286.995	8.53
287.21	-22.19
287.425	39.25
287.64	-16.04
287.855	-7.85
288.07	74.07
288.285	69.97
288.5	57.68
288.715	72.02
288.93	63.83
289.145	-32.43
289.36	37.2
289.575	8.53
289.79	76.12
290.004	24.92
290.219	59.73
290.434	24.92
290.649	4.44
290.864	41.3
291.079	108.88
291.294	57.68
291.509	12.63
291.724	20.82
291.938	-24.23
292.153	18.77
292.368	-40.62
292.583	100.69
292.798	35.16
293.012	57.68
293.227	-24.23
293.442	-63.15
293.657	29.01
293.871	0.34
294.086	29.01
294.301	33.11
294.516	49.49
294.73	67.92
294.945	16.73
295.16	59.73
295.374	37.2
295.589	69.97
295.804	8.53
296.018	0.34
296.233	57.68
296.447	-30.38
296.662	18.77
296.877	-11.95
297.091	82.26
297.306	67.92
297.52	-46.76
297.735	90.45
297.949	0.34
298.164	16.73
298.378	49.49
298.593	65.88
298.807	-7.85
299.022	49.49
299.236	24.92
299.451	-36.52
299.665	59.73
299.88	151.89
300.094	22.87
300.309	121.17
300.523	45.4
300.737	-65.19
300.952	-61.1
301.166	67.92
301.381	0.34
301.595	8.53
301.809	-20.14
302.024	8.53
302.238	43.35
302.452	82.26
302.667	0.34
302.881	63.83
303.095	41.3
303.309	-9.9
303.524	-24.23
303.738	-13.99
303.952	-16.04
304.166	31.06
304.381	-16.04
304.595	65.88
304.809	82.26
305.023	61.78
305.237	35.16
305.452	33.11
305.666	26.96
305.88	90.45
306.094	115.03
306.308	88.4
306.522	108.88
306.736	-54.95
306.95	57.68
307.164	37.2
307.379	20.82
307.593	55.64
307.807	24.92
308.021	14.68
308.235	8.53
308.449	10.58
308.663	-16.04
308.877	55.64
309.091	-7.85
309.305	61.78
309.519	8.53
309.733	57.68
309.947	6.49
310.161	41.3
310.374	41.3
310.588	29.01
310.802	-44.71
311.016	-3.75
311.23	29.01
311.444	18.77
311.658	-18.09
311.872	59.73
312.085	0.34
312.299	29.01
312.513	35.16
312.727	67.92
312.941	-3.75
313.154	-18.09
313.368	4.44
313.582	84.31
313.796	39.25
314.009	72.02
314.223	72.02
314.437	65.88
314.651	49.49
314.864	-24.23
315.078	-28.33
315.292	29.01
315.505	-3.75
315.719	55.64
315.933	16.73
316.146	41.3
316.36	12.63
316.573	72.02
316.787	41.3
317.001	69.97
317.214	41.3
317.428	84.31
317.641	-7.85
317.855	106.84
318.068	-38.57
318.282	88.4
318.495	10.58
318.709	-79.53
318.922	76.12
319.136	18.77
319.349	76.12
319.563	94.55
319.776	-20.14
319.99	67.92
320.203	0.34
320.417	43.35
320.63	-85.67
320.843	61.78
321.057	51.54
321.27	33.11
321.483	98.64
321.697	82.26
321.91	-44.71
322.124	65.88
322.337	24.92
322.55	-40.62
322.763	65.88
322.977	24.92
323.19	31.06
323.403	8.53
323.617	16.73
323.83	65.88
324.043	65.88
324.256	78.16
324.469	-11.95
324.683	39.25
324.896	6.49
325.109	41.3
325.322	-28.33
325.535	133.46
325.748	49.49
325.962	31.06
326.175	-24.23
326.388	41.3
326.601	53.59
326.814	-16.04
327.027	49.49
327.24	49.49
327.453	-34.47
327.666	14.68
327.879	2.39
328.092	57.68
328.305	29.01
328.518	0.34
328.731	45.4
328.944	43.35
329.157	78.16
329.37	74.07
329.583	-20.14
329.796	92.5
330.009	-3.75
330.222	18.77
330.435	-11.95
330.648	-16.04
330.861	59.73
331.073	49.49
331.286	-7.85
331.499	24.92
331.712	-28.33
331.925	53.59
332.138	74.07
332.35	24.92
332.563	53.59
332.776	74.07
332.989	4.44
333.202	-48.81
333.414	33.11
333.627	16.73
333.84	51.54
334.053	65.88
334.265	-36.52
334.478	24.92
334.691	-40.62
334.903	47.44
335.116	18.77
335.329	-28.33
335.541	61.78
335.754	84.31
335.966	47.44
336.179	22.87
336.392	45.4
336.604	-30.38
336.817	35.16
337.029	106.84
337.242	-30.38
337.454	49.49
337.667	-1.71
337.88	43.35
338.092	41.3
338.305	26.96
338.517	0.34
338.729	74.07
338.942	12.63
339.154	29.01
339.367	6.49
339.579	18.77
339.792	-11.95
340.004	20.82
340.217	24.92
340.429	-30.38
340.641	24.92
340.854	-18.09
341.066	57.68
341.278	127.32
341.491	45.4
341.703	16.73
341.915	51.54
342.128	86.36
342.34	-11.95
342.552	35.16
342.764	78.16
342.977	4.44
343.189	8.53
343.401	-9.9
343.613	-5.8
343.826	8.53
344.038	-97.96
344.25	78.16
344.462	-65.19
344.674	41.3
344.886	37.2
345.099	45.4
345.311	63.83
345.523	-5.8
345.735	8.53
345.947	53.59
346.159	37.2
346.371	39.25
346.583	-11.95
346.795	100.69
347.007	43.35
347.219	8.53
347.431	74.07
347.643	123.22
347.855	33.11
348.067	49.49
348.279	74.07
348.491	14.68
348.703	72.02
348.915	33.11
349.127	-7.85
349.339	53.59
349.551	-5.8
349.763	61.78
349.975	74.07
350.187	100.69
350.399	41.3
350.61	106.84
350.822	-40.62
351.034	22.87
351.246	-22.19
351.458	31.06
351.669	12.63
351.881	74.07
352.093	53.59
352.305	65.88
352.517	51.54
352.728	115.03
352.94	45.4
353.152	65.88
353.363	8.53
353.575	98.64
353.787	84.31
353.999	10.58
354.21	65.88
354.422	94.55
354.633	-57
354.845	33.11
355.057	49.49
355.268	-7.85
355.48	20.82
355.692	2.39
355.903	16.73
356.115	-16.04
356.326	-32.43
356.538	94.55
356.749	88.4
356.961	37.2
357.172	4.44
357.384	20.82
357.595	53.59
357.807	69.97
358.018	29.01
358.23	8.53
358.441	59.73
358.653	47.44
358.864	41.3
359.075	37.2
359.287	49.49
359.498	67.92
359.709	29.01
359.921	55.64
360.132	26.96
360.344	74.07
360.555	6.49
360.766	20.82
360.977	84.31
361.189	94.55
361.4	65.88
361.611	82.26
361.823	45.4
362.034	-30.38
362.245	2.39
362.456	98.64
362.667	78.16
362.879	0.34
363.09	12.63
363.301	-28.33
363.512	-36.52
363.723	67.92
363.935	51.54
364.146	16.73
364.357	-40.62
364.568	90.45
364.779	-24.23
364.99	104.79
365.201	65.88
365.412	41.3
365.623	0.34
365.834	65.88
366.045	18.77
366.256	41.3
366.467	41.3
366.678	65.88
366.889	0.34
367.1	84.31
367.311	-16.04
367.522	18.77
367.733	45.4
367.944	65.88
368.155	45.4
368.366	74.07
368.577	29.01
368.788	57.68
368.999	26.96
369.209	67.92
369.42	41.3
369.631	106.84
369.842	18.77
370.053	43.35
370.264	65.88
370.474	-7.85
370.685	59.73
370.896	-3.75
371.107	74.07
371.317	61.78
371.528	-13.99
371.739	84.31
371.95	57.68
372.16	-1.71
372.371	-48.81
372.582	-71.34
372.792	29.01
373.003	49.49
373.214	24.92
373.424	-22.19
373.635	-3.75
373.846	78.16
374.056	-16.04
374.267	51.54
374.477	55.64
374.688	24.92
374.898	72.02
375.109	35.16
375.319	0.34
375.53	-5.8
375.74	-36.52
375.951	22.87
376.161	33.11
376.372	106.84
376.582	61.78
376.793	-40.62
377.003	-20.14
377.214	14.68
377.424	10.58
377.635	16.73
377.845	16.73
378.055	24.92
378.266	-44.71
378.476	26.96
378.686	14.68
378.897	82.26
379.107	98.64
379.317	92.5
379.528	29.01
379.738	47.44
379.948	0.34
380.158	72.02
380.369	31.06
380.579	35.16
380.789	33.11
380.999	96.6
381.21	82.26
381.42	49.49
381.63	24.92
381.84	76.12
382.05	67.92
382.261	14.68
382.471	45.4
382.681	49.49
382.891	24.92
383.101	37.2
383.311	12.63
383.521	-7.85
383.731	8.53
383.941	22.87
384.151	10.58
384.361	49.49
384.571	24.92
384.781	41.3
384.991	45.4
385.201	74.07
385.411	47.44
385.621	98.64
385.831	102.74
386.041	74.07
386.251	59.73
386.461	-3.75
386.671	16.73
386.881	65.88
387.091	-16.04
387.301	45.4
387.511	10.58
387.72	24.92
387.93	33.11
388.14	-30.38
388.35	98.64
388.56	57.68
388.769	45.4
388.979	16.73
389.189	-13.99
389.399	72.02
389.609	82.26
389.818	10.58
390.028	74.07
390.238	82.26
390.447	98.64
390.657	24.92
390.867	10.58
391.076	41.3
391.286	-5.8
391.496	100.69
391.705	39.25
391.915	29.01
392.125	53.59
392.334	-79.53
392.544	90.45
392.753	106.84
392.963	6.49
393.172	65.88
393.382	10.58
393.591	88.4
393.801	43.35
394.01	82.26
394.22	53.59
394.429	41.3
394.639	-34.47
394.848	98.64
395.058	-32.43
395.267	33.11
395.477	166.23
395.686	57.68
395.895	131.41
396.105	100.69
396.314	102.74
396.524	49.49
396.733	-16.04
396.942	69.97
397.152	90.45
397.361	82.26
397.57	41.3
397.78	78.16
397.989	131.41
398.198	127.32
398.407	29.01
398.617	41.3
398.826	102.74
399.035	49.49
399.244	74.07
399.453	76.12
399.663	59.73
399.872	67.92
400.081	69.97
400.29	74.07
400.499	20.82
400.708	84.31
400.917	149.84
401.127	67.92
401.336	-5.8
401.545	170.32
401.754	51.54
401.963	76.12
402.172	29.01
402.381	61.78
402.59	57.68
402.799	16.73
403.008	76.12
403.217	59.73
403.426	-32.43
403.635	18.77
403.844	96.6
404.053	39.25
404.262	82.26
404.471	133.46
404.68	153.94
404.888	94.55
405.097	168.27
405.306	65.88
405.515	121.17
405.724	90.45
405.933	74.07
406.142	84.31
406.35	106.84
406.559	82.26
406.768	135.51
406.977	98.64
407.185	127.32
407.394	65.88
407.603	92.5
407.812	127.32
408.02	151.89
408.229	76.12
408.438	149.84
408.646	190.8
408.855	74.07
409.064	287.06
409.272	168.27
409.481	108.88
409.69	131.41
409.898	180.56
410.107	164.18
410.315	180.56
410.524	160.08
410.733	164.18
410.941	180.56
411.15	246.1
411.358	239.95
411.567	239.95
411.775	246.1
411.984	313.68
412.192	131.41
412.401	182.61
412.609	256.34
412.818	242
413.026	217.43
413.234	315.73
413.443	311.63
413.651	289.1
413.86	256.34
414.068	303.44
414.276	332.11
414.485	334.16
414.693	336.21
414.901	354.64
415.11	389.46
415.318	395.6
415.526	360.78
415.734	409.94
415.943	430.41
416.151	467.28
416.359	426.32
416.567	452.94
416.776	469.33
416.984	549.2
417.192	469.33
417.4	483.66
417.608	471.37
417.817	469.33
418.025	534.86
418.233	633.16
418.441	614.73
418.649	606.54
418.857	575.82
419.065	717.13
419.273	614.73
419.481	737.61
419.689	676.17
419.897	813.38
420.105	762.19
420.313	827.72
420.521	880.97
420.729	848.2
420.937	833.86
421.145	901.45
421.353	928.07
421.561	987.46
421.769	983.37
421.977	991.56
422.185	1028.42
422.393	1077.57
422.601	1198.4
422.809	1194.31
423.017	1220.93
423.224	1208.64
423.432	1241.41
423.64	1229.12
423.848	1442.11
424.056	1343.81
424.263	1372.48
424.471	1485.12
424.679	1524.03
424.887	1605.95
425.094	1577.28
425.302	1630.52
425.51	1739.07
425.718	1657.15
425.925	1679.68
426.133	1730.87
426.341	1861.94
426.548	1950.01
426.756	1988.92
426.964	1931.58
427.171	2189.62
427.379	2142.52
427.586	2206
427.794	2378.03
428.001	2263.35
428.209	2556.21
428.417	2408.75
428.624	2674.99
428.832	2535.73
429.039	2662.7
429.247	2658.6
429.454	2847.02
429.662	3023.14
429.869	2869.55
430.076	2943.27
430.284	3105.06
430.491	3014.95
430.699	3158.31
430.906	3289.38
431.114	3363.11
431.321	3408.16
431.528	3473.7
431.736	3787.04
431.943	3909.91
432.15	3641.63
432.358	3711.26
432.565	3926.3
432.772	3899.67
432.979	4247.83
433.187	4194.58
433.394	4235.54
433.601	4655.37
433.808	4604.18
434.016	4423.95
434.223	4741.39
434.43	5087.5
434.637	4911.37
434.844	5312.77
435.052	5261.57
435.259	5261.57
435.466	5277.96
435.673	5353.73
435.88	5613.82
436.087	6072.57
436.294	6062.33
436.501	5794.04
436.708	5871.87
436.915	6213.88
437.122	6496.5
437.329	6463.73
437.537	6631.66
437.743	6686.96
437.95	6555.89
438.157	6920.43
438.364	7151.85
438.571	7129.32
438.778	7153.9
438.985	8100.06
439.192	7567.59
439.399	7784.67
439.606	7629.02
439.813	8134.87
440.02	8517.84
440.227	8372.44
440.433	8464.6
440.64	8814.8
440.847	8476.88
441.054	8653.01
441.261	9375.94
441.467	9251.02
441.674	9306.31
441.881	9629.89
442.088	9554.12
442.294	9636.03
442.501	9760.96
442.708	10234.04
442.914	10373.3
443.121	10948.78
443.328	10262.71
443.534	11196.59
443.741	11038.89
443.948	10643.63
444.154	11540.65
444.361	11702.43
444.568	11841.7
444.774	11847.84
444.981	11587.75
445.187	12169.37
445.394	12443.8
445.6	12462.23
445.807	13619.33
446.013	12898.45
446.22	13181.07
446.426	13625.48
446.633	13926.53
446.839	14583.93
447.046	13963.39
447.252	14428.28
447.459	14592.12
447.665	14471.29
447.871	15212.65
448.078	15845.48
448.284	15356.01
448.491	15470.7
448.697	16109.66
448.903	16355.42
449.11	16437.34
449.316	16179.29
449.522	16380
449.728	17088.59
449.935	17207.37
450.141	17121.36
450.347	17645.64
450.553	17049.68
450.76	17217.61
450.966	17760.33
451.172	17752.13
451.378	18053.19
451.584	17750.09
451.791	18270.27
451.997	18337.85
452.203	18335.81
452.409	18358.33
452.615	18604.09
452.821	17494.09
453.027	17625.16
453.233	18643
453.44	17985.6
453.646	17879.11
453.852	18120.77
454.058	18049.09
454.264	17729.61
454.47	18114.62
454.676	17768.52
454.882	18595.9
455.088	16629.85
455.294	17123.41
455.5	17571.91
455.705	17612.87
455.911	16754.77
456.117	16775.25
456.323	16425.05
456.529	15616.1
456.735	16130.14
456.941	15888.48
457.147	15523.94
457.352	14973.04
457.558	14768.24
457.764	15046.77
457.97	14927.99
458.176	14506.1
458.381	14444.66
458.587	13887.62
458.793	13686.92
458.999	13017.23
459.204	14147.71
459.41	13543.56
459.616	12607.64
459.821	12714.13
460.027	12656.79
460.233	12415.13
460.438	11722.91
460.644	12105.88
460.85	11591.84
461.055	11276.46
461.261	11354.28
461.466	10449.08
461.672	10029.24
461.878	10875.06
462.083	10305.72
462.289	9971.9
462.494	9806.02
462.7	9357.51
462.905	9230.54
463.111	9570.5
463.316	9439.43
463.522	9144.52
463.727	9371.85
463.932	9216.2
464.138	9216.2
464.343	9035.98
464.549	8843.47
464.754	9273.54
464.959	9023.69
465.165	8818.89
465.37	8661.2
465.575	8368.34
465.781	8673.49
465.986	8724.69
466.191	8569.04
466.397	8214.74
466.602	7952.6
466.807	8095.96
467.012	8358.1
467.218	8235.22
467.423	8003.8
467.628	8196.31
467.833	8585.43
468.038	8138.97
468.244	7897.31
468.449	8169.69
468.654	8028.38
468.859	7741.66
469.064	7911.64
469.269	7370.98
469.474	7579.87
469.679	7690.46
469.885	7504.1
470.09	7764.19
470.295	7465.19
470.5	7348.45
470.705	7549.15
470.91	7332.07
471.115	7422.18
471.32	7293.16
471.525	7160.04
471.73	7348.45
471.935	7209.19
472.139	6963.44
472.344	6957.29
472.549	6963.44
472.754	6818.03
472.959	6619.38
473.164	6471.92
473.369	6551.79
473.574	6725.87
473.778	6637.81
473.983	6527.22
474.188	6465.78
474.393	6295.8
474.598	6301.94
474.802	6338.8
475.007	6306.04
475.212	6230.26
475.417	5933.31
475.621	6023.42
475.826	5943.55
476.031	5843.2
476.235	5761.28
476.44	5935.35
476.645	5853.44
476.849	5779.71
477.054	5669.12
477.259	5751.04
477.463	5499.14
477.668	5423.36
477.872	5624.06
478.077	5415.17
478.282	5368.07
478.486	5177.61
478.691	5214.47
478.895	5196.04
479.1	5198.09
479.304	5167.37
479.509	5034.25
479.713	5210.37
479.918	5075.21
480.122	5073.16
480.326	4890.89
480.531	4956.43
480.735	4993.29
480.94	4831.5
481.144	4927.75
481.348	4841.74
481.553	4841.74
481.757	4770.06
481.961	4841.74
482.166	4866.32
482.37	4843.79
482.574	4841.74
482.778	4714.77
482.983	4802.83
483.187	4753.68
483.391	4739.34
483.595	4641.04
483.8	4725.01
484.004	4907.27
484.208	4727.05
484.412	4796.68
484.616	4860.17
484.821	4759.82
485.025	4688.14
485.229	4714.77
485.433	4739.34
485.637	4800.78
485.841	4759.82
486.045	4632.85
486.249	4841.74
486.453	4667.66
486.657	4630.8
486.861	4608.27
487.065	4819.21
487.269	4710.67
487.473	4505.87
487.677	4751.63
487.881	4768.01
488.085	4823.31
488.289	4862.22
488.493	4718.86
488.697	5021.96
488.901	4909.32
489.105	4776.2
489.309	4749.58
489.512	4874.51
489.716	4907.27
489.92	4915.47
490.124	4776.2
490.328	4968.71
490.531	4813.07
490.735	4999.43
490.939	4940.04
491.143	4929.8
491.346	4743.44
491.55	4997.39
491.754	4913.42
491.958	4942.09
492.161	5081.35
492.365	5009.67
492.569	5056.78
492.772	5062.92
492.976	4899.08
493.18	5089.54
493.383	5200.13
493.587	5267.72
493.79	5220.61
493.994	5087.5
494.197	5318.92
494.401	5155.08
494.605	5165.32
494.808	5259.53
495.012	5277.96
495.215	5316.87
495.419	5409.03
495.622	5386.5
495.825	5419.27
496.029	5456.13
496.232	5572.86
496.436	5556.48
496.639	5826.81
496.843	5562.62
497.046	5785.85
497.249	5906.68
497.453	6062.33
497.656	5902.59
497.859	5865.72
498.063	6097.14
498.266	6201.59
498.469	6111.48
498.673	6191.35
498.876	6062.33
499.079	6349.04
499.282	6310.13
499.485	6529.27
499.689	6594.8
499.892	6562.03
500.095	6512.88
500.298	6746.35
500.501	6719.73
500.705	7008.49
500.908	6947.05
501.111	6947.05
501.314	7106.79
501.517	7315.69
501.72	7241.96
501.923	7473.38
502.126	7612.64
502.329	7540.96
502.532	7561.44
502.735	7686.37
502.938	7717.09
503.141	7925.98
503.344	8028.38
503.547	8009.95
503.75	8081.63
503.953	8095.96
504.156	8335.57
504.359	8317.14
504.562	8407.25
504.765	8528.08
504.968	8569.04
505.17	8820.94
505.373	8601.81
505.576	8913.1
505.779	9052.36
505.982	9044.17
506.185	9298.12
506.387	9382.09
506.59	9191.63
506.793	9625.79
506.996	9660.61
507.198	9810.11
507.401	9713.86
507.604	9896.13
507.807	10330.3
508.009	10117.31
508.212	10291.38
508.415	10416.31
508.617	10381.49
508.82	10674.35
509.022	10440.89
509.225	10717.36
509.428	10866.86
509.63	11065.52
509.833	10862.77
510.035	11231.4
510.238	11264.17
510.44	11487.4
510.643	11477.16
510.845	11567.27
511.048	11733.15
511.25	11776.16
511.453	11980.96
511.655	12263.58
511.858	12116.12
512.06	12261.53
512.262	12345.5
512.465	12632.21
512.667	12845.2
512.87	12785.81
513.072	12837.01
513.274	13238.41
513.477	13441.16
513.679	13232.27
513.881	13502.6
514.084	13709.44
514.286	13813.89
514.488	13793.41
514.69	14360.7
514.893	14266.49
515.095	14239.87
515.297	14608.5
515.499	14540.92
515.701	14692.47
515.904	14997.62
516.106	15155.31
516.308	15376.49
516.51	15464.55
516.712	15433.83
516.914	15485.03
517.116	15747.17
517.318	15829.09
517.52	16167.01
517.722	16064.61
517.925	16195.68
518.127	16773.21
518.329	16709.72
518.531	16687.19
518.733	17104.98
518.935	17195.09
519.136	17162.32
519.338	17549.39
519.54	17483.85
519.742	17717.32
519.944	18047.04
520.146	18040.9
520.348	18339.9
520.55	18174.02
520.752	18413.63
520.954	18667.58
521.155	18825.27
521.357	19142.71
521.559	19253.3
521.761	19609.64
521.963	19335.21
522.164	19646.51
522.366	19544.11
522.568	19798.06
522.77	20324.38
522.971	20221.98
523.173	20140.07
523.375	20570.14
523.576	20545.56
523.778	20695.07
523.98	20875.29
524.181	21192.72
524.383	21059.6
524.584	21401.61
524.786	21399.57
524.988	21495.82
525.189	21784.58
525.391	21661.71
525.592	21819.4
525.794	22239.23
525.995	22202.37
526.197	22292.48
526.398	22368.26
526.6	22284.29
526.801	22511.61
527.003	22704.12
527.204	22437.89
527.406	22859.77
527.607	22831.1
527.808	23025.65
528.01	22925.3
528.211	22673.4
528.412	23216.12
528.614	23515.12
528.815	23468.02
529.016	23277.55
529.218	23478.26
529.419	23431.15
529.62	23627.76
529.822	23484.4
530.023	23719.92
530.224	24043.49
530.425	23867.37
530.626	23881.7
530.828	23394.29
531.029	24592.35
531.23	23785.45
531.431	24129.51
531.632	24047.59
531.833	24276.96
532.035	24362.98
532.236	24514.53
532.437	24354.79
532.638	23982.06
532.839	24592.35
533.04	24461.28
533.241	24301.54
533.442	24567.77
533.643	24809.43
533.844	24383.46
534.045	24573.92
534.246	24371.17
534.447	24815.58
534.648	24508.38
534.849	24477.66
535.05	24455.14
535.251	24649.69
535.451	24766.43
535.652	24760.28
535.853	24637.41
536.054	24895.45
536.255	24385.51
536.456	24621.02
536.657	24887.26
536.857	24659.93
537.058	24543.2
537.259	24850.39
537.46	24797.15
537.66	24610.78
537.861	24827.87
538.062	24717.28
538.263	24940.5
538.463	24729.56
538.664	24739.8
538.865	24817.63
539.065	24989.66
539.266	24608.73
539.466	24821.72
539.667	24623.07
539.868	24879.07
540.068	24709.08
540.269	24543.2
540.469	24727.52
540.67	24547.29
540.87	24719.32
541.071	24590.3
541.271	24793.05
541.472	24987.61
541.672	24567.77
541.873	24711.13
542.073	24338.4
542.274	25116.63
542.474	24512.48
542.675	24561.63
542.875	24969.18
543.075	24750.04
543.276	24270.82
543.476	25116.63
543.676	24535.01
543.877	24602.59
544.077	24893.4
544.277	24688.6
544.478	24827.87
544.678	24686.56
544.878	24711.13
545.078	24842.2
545.279	24557.53
545.479	24553.44
545.679	24809.43
545.879	24752.09
546.079	24756.19
546.28	24621.02
546.48	24575.97
546.68	24729.56
546.88	24930.26
547.08	24692.7
547.28	24471.52
547.48	24348.64
547.68	24696.8
547.88	24530.91
548.081	24678.36
548.281	24604.64
548.481	24420.32
548.681	24551.39
548.881	24596.45
549.081	24528.86
549.28	24397.79
549.48	24694.75
549.68	24614.88
549.88	24905.69
550.08	24440.8
550.28	24502.24
550.48	24420.32
550.68	25122.77
550.88	24575.97
551.08	24520.67
551.279	24553.44
551.479	24551.39
551.679	24516.58
551.879	24455.14
552.079	24909.79
552.278	24526.82
552.478	24625.12
552.678	24416.22
552.878	24633.31
553.077	24354.79
553.277	24408.03
553.477	24678.36
553.676	24262.63
553.876	24528.86
554.076	24236
554.275	24301.54
554.475	24287.2
554.674	24612.83
554.874	24365.03
555.074	24313.83
555.273	24127.46
555.473	24508.38
555.672	23939.05
555.872	24326.11
556.071	24354.79
556.271	24100.84
556.47	24080.36
556.67	23986.15
556.869	24334.31
557.068	24311.78
557.268	23994.34
557.467	23953.38
557.667	24154.08
557.866	24231.91
558.065	24170.47
558.265	23885.8
558.464	23570.41
558.663	23898.09
558.863	23316.47
559.062	23990.25
559.261	23615.47
559.461	24006.63
559.66	23728.11
559.859	23681
560.058	23648.24
560.258	23607.28
560.457	23130.1
560.656	23506.93
560.855	23146.48
561.054	23404.53
561.253	23150.58
561.453	23197.68
561.652	23332.85
561.851	23015.41
562.05	23132.15
562.249	23207.92
562.448	23164.92
562.647	23111.67
562.846	22886.39
563.045	22953.98
563.244	22761.47
563.443	23064.57
563.642	22609.92
563.841	22769.66
564.04	22675.45
564.239	22786.04
564.438	22224.9
564.637	22558.72
564.836	22730.75
565.035	22454.27
565.234	22405.12
565.432	22237.19
565.631	22394.88
565.83	22278.15
566.029	22052.87
566.228	21884.94
566.427	21993.48
566.625	22018.05
566.824	21551.12
567.023	21934.09
567.222	21528.59
567.42	21973
567.619	21633.04
567.818	21352.46
568.016	21508.11
568.215	21751.82
568.414	21612.56
568.612	21846.02
568.811	21452.81
569.01	21297.17
569.208	21041.17
569.407	21346.32
569.605	21149.71
569.804	21112.85
570.002	20807.7
570.201	21114.9
570.4	20676.63
570.598	20621.34
570.797	20461.6
570.995	20789.27
571.193	20512.8
571.392	20791.32
571.59	20385.82
571.789	20234.27
571.987	20377.63
572.186	20230.18
572.384	20105.25
572.582	20342.81
572.781	20162.59
572.979	19695.66
573.177	19963.94
573.376	20095.01
573.574	19736.62
573.772	19673.13
573.971	19793.96
574.169	19718.18
574.367	19456.04
574.565	19562.54
574.763	19458.09
574.962	19660.84
575.16	19380.27
575.358	19499.05
575.556	19253.3
575.754	19490.86
575.952	19073.07
576.151	19390.51
576.349	18858.04
576.547	18917.43
576.745	18729.02
576.943	18745.4
577.141	18743.35
577.339	18673.72
577.537	18501.69
577.735	18612.28
577.933	18540.6
578.131	18620.47
578.329	18419.77
578.527	18194.5
578.725	18427.96
578.923	18397.24
579.121	18190.4
579.319	18217.02
579.516	18286.65
579.714	18163.78
579.912	18038.85
580.11	18053.19
580.308	17973.32
580.506	17973.32
580.704	17784.9
580.901	17799.24
581.099	17895.49
581.297	17487.95
581.495	17688.65
581.692	17580.11
581.89	17653.83
582.088	17743.94
582.285	17408.08
582.483	17528.91
582.681	17354.83
582.878	17301.58
583.076	16848.98
583.274	17168.46
583.471	17195.09
583.669	17438.8
583.866	17021.01
584.064	17057.87
584.262	16889.94
584.459	16959.57
584.657	16762.97
584.854	16941.14
585.052	16377.95
585.249	16674.9
585.447	16687.19
585.644	16336.99
585.841	16590.94
586.039	16660.57
586.236	16410.71
586.434	16500.83
586.631	16470.11
586.828	16220.25
587.026	16201.82
587.223	16160.86
587.42	16150.62
587.618	16304.22
587.815	15847.52
588.012	16050.27
588.21	15749.22
588.407	16273.5
588.604	15589.48
588.801	15843.43
588.999	15560.81
589.196	15978.59
589.393	15734.89
589.59	15583.34
589.787	15599.72
589.984	15675.49
590.182	15282.28
590.379	15525.99
590.576	15106.16
590.773	15300.72
590.97	15114.35
591.167	15077.49
591.364	14979.18
591.561	15188.08
591.758	14948.47
591.955	15052.91
592.152	14927.99
592.349	14899.31
592.546	14852.21
592.743	14813.3
592.94	14633.08
593.137	14792.82
593.334	14860.4
593.531	14647.41
593.727	14725.24
593.924	14801.01
594.121	14614.65
594.318	14674.04
594.515	14397.56
594.712	14465.14
594.908	14211.2
595.105	14389.37
595.302	14211.2
595.499	14143.61
595.696	13949.06
595.892	14080.13
596.089	14008.45
596.286	14071.93
596.482	13963.39
596.679	14033.02
596.876	14215.29
597.072	13559.94
597.269	13918.34
597.466	13645.96
597.662	13779.08
597.859	13740.16
598.055	13996.16
598.252	13480.07
598.448	13492.36
598.645	13553.8
598.841	13336.71
599.038	13518.98
599.234	13447.3
599.431	13262.99
599.627	13430.92
599.824	13346.95
600.02	13185.16
600.217	12976.27
600.413	13437.06
600.609	12974.22
600.806	12976.27
601.002	13127.82
601.198	13050
601.395	12814.48
601.591	13002.89
601.787	12855.44
601.984	12742.8
602.18	12808.34
602.376	12724.37
602.572	12619.92
602.769	12560.53
602.965	12521.62
603.161	12673.17
603.357	12611.73
603.553	12574.87
603.75	12368.02
603.946	12480.66
604.142	12468.38
604.338	12300.44
604.534	12290.2
604.73	12279.96
604.926	12351.64
605.122	12218.52
605.318	12161.18
605.514	12091.55
605.71	11952.29
605.906	11896.99
606.102	12060.83
606.298	12071.07
606.494	11985.05
606.69	11946.14
606.886	11866.27
607.082	11749.54
607.278	11948.19
607.474	11636.9
607.67	11911.33
607.866	11509.93
608.062	11858.08
608.257	11339.94
608.453	11712.67
608.649	11716.77
608.845	11366.57
609.041	11370.66
609.236	11567.27
609.432	11477.16
609.628	11526.31
609.824	11407.53
610.019	11370.66
610.215	11280.55
610.411	11507.88
610.606	11442.34
610.802	11339.94
610.998	11217.07
611.193	11108.52
611.389	11042.99
611.584	11270.31
611.78	11141.29
611.976	11333.8
612.171	11155.63
612.367	11188.39
612.562	10942.64
612.758	11049.13
612.953	10750.13
613.149	10743.99
613.344	10838.19
613.539	10870.96
613.735	11040.94
613.93	10932.4
614.126	10954.93
614.321	10862.77
614.517	10954.93
614.712	10815.66
614.907	10725.55
615.103	10821.81
615.298	10733.75
615.493	10748.08
615.688	10492.09
615.884	10660.02
616.079	10617.01
616.274	10463.41
616.47	10715.31
616.665	10461.37
616.86	10453.17
617.055	10477.75
617.25	10395.83
617.445	10498.23
617.641	10244.28
617.836	10412.21
618.031	10240.19
618.226	10322.1
618.421	10350.78
618.616	10338.49
618.811	10107.07
619.006	10170.55
619.201	10051.77
619.396	10053.82
619.591	9980.09
619.786	10025.15
619.981	9822.4
620.176	9887.93
620.371	9795.78
620.566	10016.96
620.761	9914.56
620.956	9756.86
621.151	9613.51
621.346	9689.28
621.541	9416.9
621.735	9724.1
621.93	9552.07
622.125	9388.23
622.32	9367.75
622.515	9445.57
622.709	9423.05
622.904	9289.93
623.099	9261.26
623.294	9197.77
623.488	9126.09
623.683	9027.79
623.878	9013.45
624.072	9068.75
624.267	9019.6
624.462	9076.94
624.656	8878.29
624.851	9011.4
625.046	8728.78
625.24	8718.54
625.435	8716.5
625.629	8538.32
625.824	8515.8
626.018	8601.81
626.213	8200.41
626.407	8521.94
626.602	8554.71
626.796	8421.59
626.991	8372.44
627.185	8143.07
627.38	8202.46
627.574	8186.07
627.768	8243.42
627.963	8079.58
628.157	7880.93
628.352	8055
628.546	7717.09
628.74	7829.73
628.935	7882.97
629.129	7839.97
629.323	7878.88
629.517	7872.73
629.712	7645.41
629.906	7588.07
630.1	7635.17
630.294	7641.31
630.489	7620.83
630.683	7528.67
630.877	7407.84
631.071	7413.99
631.265	7479.52
631.459	7317.73
631.653	7473.38
631.848	7305.45
632.042	7217.38
632.236	7209.19
632.43	7096.55
632.624	7135.46
632.818	7078.12
633.012	6924.52
633.206	6949.1
633.4	7022.83
633.594	6945
633.788	7080.17
633.982	6856.94
634.176	6854.89
634.369	6795.5
634.563	6766.83
634.757	6701.3
634.951	6719.73
635.145	6787.31
635.339	6746.35
635.533	6697.2
635.726	6521.07
635.92	6465.78
636.114	6500.59
636.308	6480.11
636.501	6347
636.695	6369.52
636.889	6267.13
637.083	6226.17
637.276	6250.74
637.47	6209.78
637.664	6279.41
637.857	6021.37
638.051	6029.56
638.244	6162.68
638.438	6004.99
638.632	6045.95
638.825	5947.64
639.019	5865.72
639.212	5914.88
639.406	5869.82
639.599	5873.92
639.793	5865.72
639.986	5871.87
640.18	5861.63
640.373	5816.57
640.567	5718.27
640.76	5587.2
640.954	5579.01
641.147	5468.42
641.34	5515.52
641.534	5605.63
641.727	5402.88
641.92	5505.28
642.114	5384.45
642.307	5374.21
642.5	5474.56
642.694	5390.6
642.887	5193.99
643.08	5423.36
643.273	5398.79
643.467	5220.61
643.66	5257.48
643.853	5103.88
644.046	5128.46
644.239	5275.91
644.432	5112.07
644.626	5050.63
644.819	5030.15
645.012	5091.59
645.205	5038.34
645.398	4890.89
645.591	4835.6
645.784	4958.47
645.977	4884.75
646.17	4808.97
646.363	4856.08
646.556	4727.05
646.749	4708.62
646.942	4800.78
647.135	4696.33
647.328	4520.21
647.521	4636.94
647.714	4516.11
647.907	4565.26
648.099	4546.83
648.292	4598.03
648.485	4401.43
648.678	4495.63
648.871	4421.91
649.064	4342.04
649.256	4335.89
649.449	4432.15
649.642	4382.99
649.835	4438.29
650.027	4219.16
650.22	4266.26
650.413	4243.73
650.605	4366.61
650.798	4188.44
650.991	4194.58
651.183	4159.77
651.376	4122.9
651.568	4178.2
651.761	4122.9
651.954	4014.36
652.146	4124.95
652.339	4075.8
652.531	4065.56
652.724	3954.97
652.916	3940.63
653.109	4006.17
653.301	3805.47
653.494	3907.87
653.686	3866.91
653.879	3952.92
654.071	3852.57
654.263	3780.89
654.456	3891.48
654.648	3862.81
654.84	3764.51
655.033	3842.33
655.225	3809.56
655.417	3674.4
655.61	3672.35
655.802	3875.1
655.994	3721.5
656.186	3686.69
656.379	3615.01
656.571	3547.42
656.763	3551.52
656.955	3584.29
657.148	3551.52
657.34	3524.9
657.532	3438.88
657.724	3438.88
657.916	3617.05
658.108	3449.12
658.3	3350.82
658.492	3463.46
658.684	3354.91
658.876	3399.97
659.068	3479.84
659.26	3313.95
659.452	3141.93
659.644	3334.43
659.836	3166.5
660.028	3236.13
660.22	3174.69
660.412	3311.91
660.604	3174.69
660.796	3170.6
660.988	3223.84
661.18	3141.93
661.372	3121.45
661.563	3201.32
661.755	3195.17
661.947	3129.64
662.139	3014.95
662.331	3025.19
662.522	3180.84
662.714	3010.86
662.906	2959.66
663.097	2945.32
663.289	2896.17
663.481	2904.36
663.673	2984.23
663.864	2924.84
664.056	2871.59
664.247	2898.22
664.439	2828.59
664.631	2855.21
664.822	2937.13
665.014	2711.85
665.205	2742.57
665.397	2771.24
665.588	2842.92
665.78	2736.43
665.971	2779.43
666.163	2722.09
666.354	2808.11
666.546	2707.76
666.737	2787.63
666.929	2724.14
667.12	2752.81
667.311	2789.67
667.503	2572.59
667.694	2691.37
667.885	2582.83
668.077	2638.13
668.268	2478.38
668.459	2625.84
668.651	2560.3
668.842	2607.41
669.033	2548.01
669.224	2517.29
669.416	2556.21
669.607	2437.42
669.798	2541.87
669.989	2468.14
670.18	2466.1
670.371	2441.52
670.563	2378.03
670.754	2449.71
670.945	2466.1
671.136	2476.34
671.327	2292.02
671.518	2351.41
671.709	2513.2
671.9	2318.64
672.091	2453.81
672.282	2404.66
672.473	2335.03
672.664	2365.75
672.855	2400.56
673.046	2400.56
673.237	2466.1
673.428	2343.22
673.619	2427.18
673.809	2294.07
674	2306.35
674.191	2414.9
674.382	2294.07
674.573	2355.51
674.764	2261.3
674.954	2328.88
675.145	2289.97
675.336	2302.26
675.527	2163
675.717	2193.72
675.908	2163
676.099	2150.71
676.289	2185.52
676.48	2130.23
676.671	2203.96
676.861	2216.24
677.052	2195.76
677.243	2156.85
677.433	2132.28
677.624	2095.41
677.814	2183.48
678.005	2083.13
678.195	2138.42
678.386	2113.85
678.576	2126.13
678.767	2113.85
678.957	2226.48
679.148	2003.25
679.338	2052.41
679.529	2060.6
679.719	2099.51
679.909	2062.65
680.1	2027.83
680.29	2097.46
680.481	2025.78
680.671	2152.76
680.861	2003.25
681.052	2044.21
681.242	2027.83
681.432	2007.35
681.622	2048.31
681.813	2023.73
682.003	2007.35
682.193	2081.08
682.383	2058.55
682.573	2017.59
682.764	2011.45
682.954	2023.73
683.144	2007.35
683.334	1802.55
683.524	2044.21
683.714	1974.58
683.904	1919.29
684.094	1843.51
684.284	1941.82
684.474	2011.45
684.664	2003.25
684.854	1935.67
685.044	1999.16
685.234	1962.3
685.424	1835.32
685.614	1909.05
685.804	1894.71
685.994	1974.58
686.184	1921.34
686.374	1960.25
686.564	1878.33
686.753	1861.94
686.943	1835.32
687.133	1808.7
687.323	1892.66
687.513	1929.53
687.702	1902.9
687.892	1843.51
688.082	1814.84
688.272	1925.43
688.461	1909.05
688.651	1790.27
688.841	1902.9
689.03	1773.88
689.22	1806.65
689.41	1788.22
689.599	1837.37
689.789	1829.18
689.979	1687.87
690.168	1823.03
690.358	1741.11
690.547	1773.88
690.737	1696.06
690.926	1696.06
691.116	1790.27
691.305	1863.99
691.495	1734.97
691.684	1765.69
691.874	1618.24
692.063	1567.04
692.252	1730.87
692.442	1737.02
692.631	1675.58
692.82	1651
693.01	1661.24
693.199	1659.2
693.388	1636.67
693.578	1659.2
693.767	1732.92
693.956	1704.25
694.146	1634.62
694.335	1667.39
694.524	1704.25
694.713	1730.87
694.902	1659.2
695.092	1696.06
695.281	1655.1
695.47	1698.11
695.659	1624.38
695.848	1689.92
696.037	1648.96
696.226	1667.39
696.415	1691.96
696.604	1790.27
696.793	1622.33
696.982	1630.52
697.171	1859.9
697.36	1700.16
697.549	1575.23
697.738	1542.46
697.927	1556.8
698.116	1575.23
698.305	1671.48
698.494	1651
698.683	1651
698.872	1681.72
699.061	1608
699.25	1579.33
699.438	1618.24
699.627	1696.06
699.816	1638.72
700.005	1540.41
700.193	1655.1
700.382	1655.1
700.571	1626.43
700.76	1730.87
700.948	1730.87
701.137	1784.12
701.326	1663.29
701.514	1724.73
701.703	1689.92
701.892	1730.87
702.08	1814.84
702.269	1696.06
702.457	1634.62
702.646	1696.06
702.834	1646.91
703.023	1677.63
703.212	1716.54
703.4	1655.1
703.589	1614.14
703.777	1689.92
703.965	1534.27
704.154	1655.1
704.342	1681.72
704.531	1651
704.719	1755.45
704.907	1759.55
705.096	1597.76
705.284	1605.95
705.472	1714.49
705.661	1618.24
705.849	1706.3
706.037	1732.92
706.226	1737.02
706.414	1626.43
706.602	1681.72
706.79	1638.72
706.979	1663.29
707.167	1777.98
707.355	1626.43
707.543	1612.09
707.731	1655.1
707.919	1745.21
708.107	1681.72
708.296	1618.24
708.484	1589.57
708.672	1720.64
708.86	1679.68
709.048	1681.72
709.236	1737.02
709.424	1605.95
709.612	1730.87
709.8	1605.95
709.988	1745.21
710.176	1691.96
710.364	1769.79
710.551	1714.49
710.739	1732.92
710.927	1659.2
711.115	1622.33
711.303	1712.44
711.491	1696.06
711.679	1653.05
711.866	1622.33
712.054	1765.69
712.242	1747.26
712.43	1691.96
712.617	1675.58
712.805	1681.72
712.993	1704.25
713.181	1732.92
713.368	1737.02
713.556	1765.69
713.744	1646.91
713.931	1737.02
714.119	1777.98
714.306	1820.99
714.494	1630.52
714.682	1708.35
714.869	1679.68
715.057	1722.68
715.244	1753.4
715.432	1745.21
715.619	1737.02
715.807	1683.77
715.994	1765.69
716.182	1769.79
716.369	1898.81
716.556	1777.98
716.744	1657.15
716.931	1761.59
717.119	1734.97
717.306	1755.45
717.493	1651
717.681	1782.07
717.868	1655.1
718.055	1728.83
718.242	1737.02
718.43	1804.6
718.617	1696.06
718.804	1769.79
718.991	1749.31
719.179	1706.3
719.366	1681.72
719.553	1730.87
719.74	1720.64
719.927	1632.57
720.114	1616.19
720.301	1728.83
720.488	1728.83
720.676	1761.59
720.863	1769.79
721.05	1769.79
721.237	1730.87
721.424	1696.06
721.611	1638.72
721.798	1761.59
721.985	1712.44
722.172	1712.44
722.358	1657.15
722.545	1720.64
722.732	1685.82
722.919	1747.26
723.106	1679.68
723.293	1599.8
723.48	1691.96
723.667	1749.31
723.853	1722.68
724.04	1716.54
724.227	1734.97
724.414	1646.91
724.6	1712.44
724.787	1667.39
724.974	1823.03
725.161	1659.2
725.347	1728.83
725.534	1716.54
725.72	1655.1
725.907	1663.29
726.094	1640.76
726.28	1622.33
726.467	1603.9
726.653	1696.06
726.84	1761.59
727.027	1737.02
727.213	1687.87
727.4	1689.92
727.586	1673.53
727.773	1685.82
727.959	1630.52
728.145	1667.39
728.332	1616.19
728.518	1583.42
728.705	1679.68
728.891	1663.29
729.077	1591.61
729.264	1603.9
729.45	1681.72
729.636	1663.29
729.823	1659.2
730.009	1700.16
730.195	1573.18
730.382	1712.44
730.568	1657.15
730.754	1648.96
730.94	1548.61
731.126	1732.92
731.313	1644.86
731.499	1663.29
731.685	1679.68
731.871	1679.68
732.057	1745.21
732.243	1655.1
732.429	1636.67
732.615	1696.06
732.801	1630.52
732.987	1464.64
733.173	1562.94
733.359	1667.39
733.545	1626.43
733.731	1577.28
733.917	1696.06
734.103	1638.72
734.289	1618.24
734.475	1661.24
734.661	1671.48
734.847	1536.32
735.033	1704.25
735.219	1689.92
735.404	1517.89
735.59	1589.57
735.776	1655.1
735.962	1638.72
736.148	1605.95
736.333	1573.18
736.519	1655.1
736.705	1540.41
736.89	1636.67
737.076	1519.93
737.262	1556.8
737.447	1679.68
737.633	1501.5
737.819	1638.72
738.004	1618.24
738.19	1532.22
738.375	1642.81
738.561	1577.28
738.747	1599.8
738.932	1483.07
739.118	1591.61
739.303	1526.08
739.489	1560.89
739.674	1450.3
739.859	1458.5
740.045	1577.28
740.23	1499.45
740.416	1567.04
740.601	1542.46
740.786	1468.73
740.972	1487.17
741.157	1548.61
741.342	1509.69
741.528	1505.6
741.713	1564.99
741.898	1532.22
742.084	1542.46
742.269	1423.68
742.454	1491.26
742.639	1462.59
742.824	1485.12
743.01	1487.17
743.195	1519.93
743.38	1425.73
743.565	1452.35
743.75	1376.58
743.935	1491.26
744.12	1503.55
744.305	1427.78
744.49	1472.83
744.675	1411.39
744.86	1364.29
745.045	1384.77
745.23	1392.96
745.415	1335.62
745.6	1433.92
745.785	1335.62
745.97	1296.71
746.155	1343.81
746.34	1421.63
746.525	1370.43
746.71	1288.51
746.895	1280.32
747.079	1325.38
747.264	1272.13
747.449	1302.85
747.634	1333.57
747.819	1216.83
748.003	1341.76
748.188	1229.12
748.373	1270.08
748.557	1290.56
748.742	1214.79
748.927	1212.74
749.111	1335.62
749.296	1206.59
749.481	1163.59
749.665	1141.06
749.85	1202.5
750.034	1216.83
750.219	1132.87
750.404	1196.36
750.588	1167.68
750.773	1196.36
750.957	1136.96
751.141	1204.55
751.326	1149.25
751.51	1083.72
751.695	1179.97
751.879	1083.72
752.064	1165.64
752.248	1071.43
752.432	1151.3
752.617	1089.86
752.801	1067.33
752.985	1083.72
753.17	1134.92
753.354	1067.33
753.538	1141.06
753.722	1050.95
753.907	950.6
754.091	975.17
754.275	1007.94
754.459	1110.34
754.643	1009.99
754.828	1024.33
755.012	936.26
755.196	989.51
755.38	1009.99
755.564	1007.94
755.748	940.36
755.932	979.27
756.116	854.34
756.3	987.46
756.484	991.56
756.668	926.02
756.852	930.12
757.036	932.17
757.22	868.68
757.404	926.02
757.588	852.3
757.772	926.02
757.956	891.21
758.14	887.11
758.323	803.15
758.507	971.08
758.691	850.25
758.875	903.5
759.059	811.34
759.242	897.35
759.426	770.38
759.61	815.43
759.794	852.3
759.977	919.88
760.161	946.5
760.345	815.43
760.528	864.58
760.712	815.43
760.895	831.82
761.079	794.95
761.263	696.65
761.446	715.08
761.63	799.05
761.813	837.96
761.997	760.14
762.18	774.47
762.364	844.1
762.547	854.34
762.731	719.18
762.914	774.47
763.098	719.18
763.281	708.94
763.464	790.86
763.648	745.8
763.831	794.95
764.015	704.84
764.198	729.42
764.381	706.89
764.564	842.06
764.748	682.31
764.931	745.8
765.114	676.17
765.297	680.27
765.481	727.37
765.664	657.74
765.847	715.08
766.03	749.9
766.213	715.08
766.397	702.79
766.58	618.83
766.763	692.55
766.946	653.64
767.129	631.12
767.312	674.12
767.495	641.36
767.678	717.13
767.861	680.27
768.044	639.31
768.227	655.69
768.41	688.46
768.593	680.27
768.776	614.73
768.959	598.35
769.142	684.36
769.324	639.31
769.507	622.92
769.69	639.31
769.873	696.65
770.056	713.03
770.239	676.17
770.421	688.46
770.604	592.2
770.787	602.44
770.97	606.54
771.152	618.83
771.335	655.69
771.518	551.24
771.7	633.16
771.883	690.51
772.066	516.43
772.248	610.64
772.431	663.88
772.613	704.84
772.796	584.01
772.978	592.2
773.161	565.58
773.343	614.73
773.526	584.01
773.708	565.58
773.891	553.29
774.073	592.2
774.256	631.12
774.438	672.08
774.621	606.54
774.803	541.01
774.985	588.11
775.168	586.06
775.35	557.39
775.532	514.38
775.715	557.39
775.897	534.86
776.079	518.48
776.261	555.34
776.444	461.13
776.626	590.16
776.808	561.48
776.99	465.23
777.173	575.82
777.355	516.43
777.537	559.44
777.719	624.97
777.901	481.61
778.083	430.41
778.265	491.85
778.447	500.05
778.629	393.55
778.811	475.47
778.993	485.71
779.175	551.24
779.357	461.13
779.539	459.09
779.721	512.33
779.903	471.37
780.085	469.33
780.267	422.22
780.449	442.7
780.631	483.66
780.812	450.89
780.994	424.27
781.176	416.08
781.358	465.23
781.54	434.51
781.721	424.27
781.903	395.6
782.085	393.55
782.267	391.5
782.448	397.65
782.63	364.88
782.812	485.71
782.993	426.32
783.175	354.64
783.357	360.78
783.538	416.08
783.72	368.98
783.901	385.36
784.083	325.97
784.264	444.75
784.446	350.54
784.627	375.12
784.809	315.73
784.99	389.46
785.172	328.02
785.353	305.49
785.535	319.82
785.716	348.5
785.897	328.02
786.079	346.45
786.26	328.02
786.441	328.02
786.623	328.02
786.804	360.78
786.985	246.1
787.167	295.25
787.348	354.64
787.529	352.59
787.71	360.78
787.891	362.83
788.073	270.67
788.254	262.48
788.435	280.91
788.616	293.2
788.797	289.1
788.978	305.49
789.159	237.91
789.34	307.54
789.522	248.15
789.703	338.26
789.884	246.1
790.065	336.21
790.246	338.26
790.427	278.87
790.607	321.87
790.788	360.78
790.969	239.95
791.15	190.8
791.331	321.87
791.512	319.82
791.693	256.34
791.874	190.8
792.054	317.78
792.235	250.19
792.416	268.63
792.597	244.05
792.778	196.95
792.958	239.95
793.139	295.25
793.32	254.29
793.5	233.81
793.681	278.87
793.862	217.43
794.042	233.81
794.223	188.75
794.404	180.56
794.584	145.75
794.765	153.94
794.945	215.38
795.126	231.76
795.306	272.72
795.487	239.95
795.667	270.67
795.848	196.95
796.028	188.75
796.209	215.38
796.389	303.44
796.57	297.3
796.75	201.04
796.93	246.1
797.111	225.62
797.291	215.38
797.471	254.29
797.652	147.8
797.832	160.08
798.012	225.62
798.192	221.52
798.373	194.9
798.553	205.14
798.733	149.84
798.913	158.03
799.093	174.42
799.274	196.95
799.454	272.72
799.634	201.04
799.814	172.37
799.994	229.71
800.174	282.96
800.354	188.75
800.534	180.56
800.714	180.56
800.894	178.51
801.074	176.47
801.254	160.08
801.434	276.82
801.614	264.53
801.794	106.84
801.974	698.7
802.154	172.37
802.334	221.52
802.514	106.84
802.693	254.29
802.873	174.42
803.053	178.51
803.233	194.9
803.413	149.84
803.592	151.89
803.772	139.6
803.952	102.74
804.131	90.45
804.311	158.03
804.491	192.85
804.67	147.8
804.85	186.71
805.03	180.56
805.209	213.33
805.389	166.23
805.568	110.93
805.748	41.3
805.928	119.12
806.107	182.61
806.287	129.36
806.466	188.75
806.646	106.84
806.825	119.12
807.004	188.75
807.184	160.08
807.363	92.5
807.543	98.64
807.722	98.64
807.901	180.56
808.081	96.6
808.26	106.84
808.439	147.8
808.619	100.69
808.798	182.61
808.977	102.74
809.156	213.33
809.336	115.03
809.515	69.97
809.694	123.22
809.873	123.22
810.052	135.51
810.231	205.14
810.411	168.27
810.59	166.23
810.769	94.55
810.948	160.08
811.127	102.74
811.306	72.02
811.485	164.18
811.664	147.8
811.843	115.03
812.022	104.79
812.201	112.98
812.38	141.65
812.559	59.73
812.737	213.33
812.916	39.25
813.095	201.04
813.274	86.36
813.453	82.26
813.632	82.26
813.811	100.69
813.989	115.03
814.168	82.26
814.347	102.74
814.526	164.18
814.704	131.41
814.883	147.8
815.062	90.45
815.24	100.69
815.419	49.49
815.598	160.08
815.776	-7.85
815.955	143.7
816.133	102.74
816.312	90.45
816.49	82.26
816.669	98.64
816.847	149.84
817.026	139.6
817.204	84.31
817.383	82.26
817.561	76.12
817.74	119.12
817.918	61.78
818.097	110.93
818.275	121.17
818.453	123.22
818.632	119.12
818.81	143.7
818.988	117.08
819.167	82.26
819.345	78.16
819.523	76.12
819.701	76.12
819.879	129.36
820.058	51.54
820.236	117.08
820.414	35.16
820.592	166.23
820.77	20.82
820.948	102.74
821.127	47.44
821.305	115.03
821.483	123.22
821.661	41.3
821.839	57.68
822.017	92.5
822.195	31.06
822.373	117.08
822.551	90.45
822.729	106.84
822.907	57.68
823.085	82.26
823.262	141.65
823.44	2.39
823.618	74.07
823.796	43.35
823.974	59.73
824.152	151.89
824.329	-9.9
824.507	49.49
824.685	51.54
824.863	82.26
825.04	37.2
825.218	198.99
825.396	117.08
825.574	112.98
825.751	69.97
825.929	61.78
826.107	49.49
826.284	125.27
826.462	35.16
826.639	78.16
826.817	33.11
826.994	100.69
827.172	35.16
827.349	131.41
827.527	102.74
827.704	84.31
827.882	80.21
828.059	106.84
828.237	104.79
828.414	98.64
828.591	-67.24
828.769	127.32
828.946	2.39
829.124	76.12
829.301	51.54
829.478	108.88
829.655	57.68
829.833	98.64
830.01	24.92
830.187	100.69
830.364	61.78
830.542	57.68
830.719	82.26
830.896	57.68
831.073	76.12
831.25	49.49
831.427	82.26
831.604	61.78
831.782	61.78
831.959	33.11
832.136	74.07
832.313	131.41
832.49	-7.85
832.667	92.5
832.844	16.73
833.021	119.12
833.198	26.96
833.374	102.74
833.551	53.59
833.728	65.88
833.905	26.96
834.082	8.53
834.259	26.96
834.436	143.7
834.612	16.73
834.789	78.16
834.966	55.64
835.143	24.92
835.319	37.2
835.496	29.01
835.673	57.68
835.85	0.34
836.026	106.84
836.203	80.21
836.38	96.6
836.556	61.78
836.733	41.3
836.909	82.26
837.086	90.45
837.262	45.4
837.439	119.12
837.616	84.31
837.792	29.01
837.968	37.2
838.145	-30.38
838.321	69.97
838.498	4.44
838.674	92.5
838.851	96.6
839.027	104.79
839.203	84.31
839.38	41.3
839.556	8.53
839.732	92.5
839.909	74.07
840.085	41.3
840.261	0.34
840.437	131.41
840.614	-40.62
840.79	59.73
840.966	88.4
841.142	84.31
841.318	6.49
841.494	-13.99
841.671	158.03
841.847	29.01
842.023	-5.8
842.199	65.88
842.375	-32.43
842.551	16.73
842.727	-79.53
842.903	65.88
843.079	0.34
843.255	100.69
843.431	10.58
843.607	86.36
843.783	-28.33
843.959	49.49
844.134	33.11
844.31	115.03
844.486	-36.52
844.662	67.92
844.838	74.07
845.013	4.44
845.189	37.2
845.365	45.4
845.541	41.3
845.716	106.84
845.892	59.73
846.068	-3.75
846.244	102.74
846.419	37.2
846.595	-18.09
846.77	65.88
846.946	8.53
847.122	84.31
847.297	16.73
847.473	61.78
847.648	-18.09
847.824	41.3
847.999	33.11
848.175	8.53
848.35	94.55
848.526	82.26
848.701	29.01
848.876	33.11
849.052	4.44
849.227	26.96
849.403	10.58
849.578	131.41
849.753	57.68
849.929	26.96
850.104	-13.99
850.279	84.31
850.454	18.77
850.63	49.49
850.805	55.64
850.98	94.55
851.155	-5.8
851.33	2.39
851.505	24.92
851.681	55.64
851.856	8.53
852.031	35.16
852.206	67.92
852.381	-24.23
852.556	-7.85
852.731	74.07
852.906	72.02
853.081	80.21
853.256	33.11
853.431	29.01
853.606	10.58
853.781	33.11
853.956	-22.19
854.131	0.34
854.305	57.68
854.48	67.92
854.655	-85.67
854.83	67.92
855.005	57.68
855.18	61.78
855.354	-40.62
855.529	106.84
855.704	-5.8
855.879	16.73
856.053	33.11
856.228	53.59
856.403	0.34
856.577	-24.23
856.752	-30.38
856.926	43.35
857.101	-48.81
857.276	16.73
857.45	43.35
857.625	51.54
857.799	41.3
857.974	-5.8
858.148	12.63
858.323	51.54
858.497	24.92
858.672	24.92
858.846	20.82
859.02	57.68
859.195	-16.04
859.369	8.53
859.543	0.34
859.718	51.54
859.892	33.11
860.066	0.34
860.241	12.63
860.415	12.63
860.589	49.49
860.763	41.3
860.938	12.63
861.112	92.5
861.286	26.96
861.46	41.3
861.634	61.78
861.808	43.35
861.982	33.11
862.157	102.74
862.331	-7.85
862.505	29.01
862.679	0.34
862.853	31.06
863.027	-5.8
863.201	35.16
863.375	10.58
863.549	51.54
863.722	115.03
863.896	24.92
864.07	74.07
864.244	43.35
864.418	20.82
864.592	-16.04
864.766	-26.28
864.939	31.06
865.113	59.73
865.287	49.49
865.461	2.39
865.634	33.11
865.808	-13.99
865.982	53.59
866.156	0.34
866.329	41.3
866.503	29.01
866.676	31.06
866.85	6.49
867.024	-100.01
867.197	12.63
867.371	33.11
867.544	45.4
867.718	-24.23
867.891	-63.15
868.065	-38.57
868.238	20.82
868.412	29.01
868.585	-40.62
868.759	-7.85
868.932	55.64
869.105	-3.75
869.279	-28.33
869.452	53.59
869.625	-44.71
869.799	49.49
869.972	0.34
870.145	-7.85
870.319	-32.43
870.492	2.39
870.665	24.92
870.838	-40.62
871.011	-28.33
871.185	-32.43
871.358	-32.43
871.531	43.35
871.704	-24.23
871.877	-16.04
872.05	-24.23
872.223	-38.57
872.396	0.34
872.569	0.34
872.742	57.68
872.915	-52.91
873.088	-36.52
873.261	-52.91
873.434	74.07
873.607	4.44
873.78	123.22
873.953	-71.34
874.126	45.4
874.299	49.49
874.471	41.3
874.644	37.2
874.817	82.26
874.99	-24.23
875.163	2.39
875.335	33.11
875.508	4.44
875.681	8.53
875.853	6.49
876.026	43.35
876.199	-11.95
876.371	45.4
876.544	57.68
876.717	-24.23
876.889	-46.76
877.062	24.92
877.234	-11.95
877.407	-54.95
877.579	-20.14
877.752	53.59
877.924	96.6
878.097	29.01
878.269	43.35
878.442	45.4
878.614	24.92
878.786	131.41
878.959	98.64
879.131	22.87
879.303	-97.96
879.476	-16.04
879.648	-5.8
879.82	20.82
879.993	20.82
880.165	-3.75
880.337	49.49
880.509	29.01
880.681	-50.86
880.854	-22.19
881.026	8.53
881.198	108.88
881.37	-36.52
881.542	-13.99
881.714	-13.99
881.886	26.96
882.058	-32.43
882.23	2.39
882.402	-65.19
882.574	2.39
882.746	8.53
882.918	35.16
883.09	57.68
883.262	20.82
883.434	8.53
883.606	-24.23
883.778	26.96
883.95	18.77
884.122	51.54
884.293	55.64
884.465	-22.19
884.637	2.39
884.809	-69.29
884.98	2.39
885.152	59.73
885.324	-18.09
885.496	-40.62
885.667	-22.19
885.839	37.2
886.011	104.79
886.182	55.64
886.354	43.35
886.525	74.07
886.697	104.79
886.869	-50.86
887.04	-22.19
887.212	72.02
887.383	49.49
887.555	47.44
887.726	-9.9
887.897	-32.43
888.069	35.16
888.24	47.44
888.412	16.73
888.583	-24.23
888.754	74.07
888.926	4.44
889.097	41.3
889.268	0.34
889.44	-16.04
889.611	-30.38
889.782	45.4
889.953	4.44
890.125	49.49
890.296	49.49
890.467	74.07
890.638	-54.95
890.809	16.73
890.98	31.06
891.151	-50.86
891.323	-40.62
891.494	-73.39
891.665	-57
891.836	26.96
892.007	-54.95
892.178	20.82
892.349	-30.38
892.52	6.49
892.691	67.92
892.862	-52.91
893.032	-73.39
893.203	51.54
893.374	-5.8
893.545	47.44
893.716	-30.38
893.887	24.92
894.057	65.88
894.228	-7.85
894.399	12.63
894.57	-16.04
894.74	-11.95
894.911	-57
895.082	-36.52
895.253	-44.71
895.423	-24.23
895.594	-5.8
895.764	-16.04
895.935	33.11
896.106	24.92
896.276	-26.28
896.447	10.58
896.617	20.82
896.788	14.68
896.958	49.49
897.129	67.92
897.299	43.35
897.47	16.73
897.64	49.49
897.81	24.92
897.981	0.34
898.151	-32.43
898.322	0.34
898.492	82.26
898.662	-16.04
898.832	-38.57
899.003	-32.43
899.173	74.07
899.343	49.49
899.513	0.34
