Data from USB4F104151__309__14-46-42-870.txt Node

Date: Thu Mar 13 14:46:42 EDT 2025
User: louis
Spectrometer: USB4F10415
Trigger mode: 4
Integration Time (sec): 2.000000E-2
Scans to average: 1
Electric dark correction enabled: true
Nonlinearity correction enabled: false
Boxcar width: 0
XAxis mode: Wavelengths
Number of Pixels in Spectrum: 3648
>>>>>Begin Spectral Data<<<<<
178.204	-124.76
178.424	-124.76
178.644	-124.76
178.864	-157.52
179.084	-128.85
179.304	-5.97
179.524	39.08
179.744	0.17
179.964	57.51
180.184	-42.84
180.404	-38.74
180.624	37.03
180.844	-26.45
181.064	-83.8
181.283	45.23
181.503	14.51
181.723	4.27
181.943	22.7
182.163	10.41
182.383	2.22
182.602	65.71
182.822	96.43
183.042	63.66
183.262	-16.21
183.482	39.08
183.701	-18.26
183.921	-16.21
184.141	55.47
184.361	63.66
184.58	34.99
184.8	39.08
185.02	-24.4
185.239	65.71
185.459	14.51
185.679	43.18
185.898	45.23
186.118	106.67
186.338	-22.36
186.557	67.75
186.777	22.7
186.997	-34.64
187.216	39.08
187.436	88.23
187.655	75.95
187.875	39.08
188.095	-1.88
188.314	47.27
188.534	92.33
188.753	24.75
188.973	-10.07
189.192	116.9
189.412	14.51
189.631	10.41
189.851	-18.26
190.07	147.62
190.29	-1.88
190.509	6.31
190.729	-12.12
190.948	53.42
191.168	123.05
191.387	96.43
191.607	41.13
191.826	-14.17
192.045	34.99
192.265	-24.4
192.484	-40.79
192.704	96.43
192.923	18.6
193.142	71.85
193.362	22.7
193.581	71.85
193.8	43.18
194.02	90.28
194.239	-5.97
194.458	-42.84
194.678	8.36
194.897	37.03
195.116	-14.17
195.335	22.7
195.555	14.51
195.774	30.89
195.993	0.17
196.212	22.7
196.432	-42.84
196.651	55.47
196.87	24.75
197.089	57.51
197.308	30.89
197.528	51.37
197.747	-42.84
197.966	-5.97
198.185	121
198.404	-16.21
198.623	39.08
198.842	37.03
199.062	14.51
199.281	43.18
199.5	-1.88
199.719	16.55
199.938	6.31
200.157	84.14
200.376	4.27
200.595	-38.74
200.814	-26.45
201.033	-5.97
201.252	149.67
201.471	82.09
201.69	65.71
201.909	-30.55
202.128	22.7
202.347	-3.93
202.566	2.22
202.785	0.17
203.004	-48.98
203.223	123.05
203.442	10.41
203.661	77.99
203.879	34.99
204.098	12.46
204.317	6.31
204.536	43.18
204.755	-51.03
204.974	-5.97
205.193	41.13
205.411	92.33
205.63	37.03
205.849	51.37
206.068	32.94
206.287	-1.88
206.505	18.6
206.724	53.42
206.943	-5.97
207.162	-48.98
207.381	67.75
207.599	24.75
207.818	61.61
208.037	-1.88
208.255	-22.36
208.474	49.32
208.693	30.89
208.911	63.66
209.13	63.66
209.349	92.33
209.567	47.27
209.786	69.8
210.005	-18.26
210.223	75.95
210.442	16.55
210.661	-10.07
210.879	104.62
211.098	6.31
211.316	18.6
211.535	30.89
211.753	10.41
211.972	86.19
212.191	34.99
212.409	75.95
212.628	96.43
212.846	26.79
213.065	-14.17
213.283	69.8
213.502	-28.5
213.72	39.08
213.938	73.9
214.157	39.08
214.375	14.51
214.594	-14.17
214.812	14.51
215.031	55.47
215.249	22.7
215.467	-22.36
215.686	-10.07
215.904	32.94
216.122	82.09
216.341	-24.4
216.559	6.31
216.778	63.66
216.996	63.66
217.214	-3.93
217.432	-18.26
217.651	-16.21
217.869	22.7
218.087	-18.26
218.306	18.6
218.524	30.89
218.742	12.46
218.96	61.61
219.179	12.46
219.397	55.47
219.615	98.47
219.833	90.28
220.051	-3.93
220.27	98.47
220.488	24.75
220.706	59.56
220.924	88.23
221.142	-34.64
221.36	-24.4
221.578	67.75
221.796	71.85
222.015	82.09
222.233	2.22
222.451	69.8
222.669	-8.02
222.887	55.47
223.105	34.99
223.323	-1.88
223.541	-34.64
223.759	49.32
223.977	41.13
224.195	39.08
224.413	-16.21
224.631	20.65
224.849	-26.45
225.067	96.43
225.285	-10.07
225.503	2.22
225.721	-55.12
225.939	28.84
226.157	-34.64
226.375	22.7
226.592	-10.07
226.81	47.27
227.028	108.71
227.246	28.84
227.464	22.7
227.682	65.71
227.9	28.84
228.117	104.62
228.335	22.7
228.553	47.27
228.771	82.09
228.989	24.75
229.206	39.08
229.424	16.55
229.642	-14.17
229.86	37.03
230.077	39.08
230.295	41.13
230.513	63.66
230.731	49.32
230.948	22.7
231.166	88.23
231.384	22.7
231.601	49.32
231.819	39.08
232.037	-18.26
232.254	2.22
232.472	10.41
232.689	-63.32
232.907	73.9
233.125	-16.21
233.342	65.71
233.56	71.85
233.777	-18.26
233.995	8.36
234.213	22.7
234.43	-40.79
234.648	26.79
234.865	28.84
235.083	-10.07
235.3	30.89
235.518	55.47
235.735	100.52
235.953	57.51
236.17	-24.4
236.388	32.94
236.605	47.27
236.822	20.65
237.04	71.85
237.257	71.85
237.475	32.94
237.692	12.46
237.909	43.18
238.127	-1.88
238.344	0.17
238.562	63.66
238.779	-40.79
238.996	8.36
239.214	43.18
239.431	88.23
239.648	-36.69
239.865	6.31
240.083	43.18
240.3	-8.02
240.517	71.85
240.735	-22.36
240.952	47.27
241.169	96.43
241.386	53.42
241.603	-14.17
241.821	-24.4
242.038	-32.6
242.255	137.38
242.472	-30.55
242.689	26.79
242.907	-67.41
243.124	14.51
243.341	116.9
243.558	16.55
243.775	30.89
243.992	-10.07
244.209	139.43
244.426	30.89
244.643	39.08
244.86	-46.93
245.078	30.89
245.295	63.66
245.512	18.6
245.729	39.08
245.946	32.94
246.163	88.23
246.38	22.7
246.597	28.84
246.814	16.55
247.031	61.61
247.248	-24.4
247.464	-42.84
247.681	26.79
247.898	-14.17
248.115	90.28
248.332	47.27
248.549	88.23
248.766	71.85
248.983	51.37
249.2	57.51
249.417	73.9
249.633	178.34
249.85	22.7
250.067	-48.98
250.284	39.08
250.501	37.03
250.717	98.47
250.934	-40.79
251.151	43.18
251.368	26.79
251.585	16.55
251.801	22.7
252.018	-48.98
252.235	-10.07
252.451	45.23
252.668	-32.6
252.885	75.95
253.102	16.55
253.318	51.37
253.535	-16.21
253.752	94.38
253.968	22.7
254.185	73.9
254.401	-38.74
254.618	63.66
254.835	6.31
255.051	96.43
255.268	-51.03
255.484	-48.98
255.701	84.14
255.917	49.32
256.134	39.08
256.351	45.23
256.567	-5.97
256.784	55.47
257	55.47
257.217	34.99
257.433	14.51
257.65	-10.07
257.866	-10.07
258.082	32.94
258.299	6.31
258.515	-8.02
258.732	90.28
258.948	30.89
259.165	-38.74
259.381	-22.36
259.597	49.32
259.814	96.43
260.03	71.85
260.246	-5.97
260.463	75.95
260.679	30.89
260.895	12.46
261.112	57.51
261.328	90.28
261.544	-26.45
261.761	102.57
261.977	2.22
262.193	-91.99
262.409	16.55
262.626	47.27
262.842	-10.07
263.058	28.84
263.274	6.31
263.49	-34.64
263.707	32.94
263.923	-51.03
264.139	39.08
264.355	-34.64
264.571	114.86
264.787	14.51
265.004	69.8
265.22	-59.22
265.436	-10.07
265.652	-14.17
265.868	-10.07
266.084	-5.97
266.3	43.18
266.516	-20.31
266.732	10.41
266.948	100.52
267.164	16.55
267.38	71.85
267.596	-24.4
267.812	67.75
268.028	43.18
268.244	-51.03
268.46	51.37
268.676	32.94
268.892	39.08
269.108	-20.31
269.324	-26.45
269.54	-22.36
269.756	12.46
269.972	10.41
270.188	39.08
270.403	-40.79
270.619	-8.02
270.835	18.6
271.051	71.85
271.267	63.66
271.483	-1.88
271.698	104.62
271.914	43.18
272.13	39.08
272.346	-8.02
272.562	-5.97
272.777	88.23
272.993	-1.88
273.209	6.31
273.425	6.31
273.64	-8.02
273.856	39.08
274.072	96.43
274.287	-38.74
274.503	67.75
274.719	47.27
274.934	-24.4
275.15	47.27
275.366	71.85
275.581	43.18
275.797	26.79
276.012	49.32
276.228	10.41
276.444	2.22
276.659	55.47
276.875	86.19
277.09	96.43
277.306	-1.88
277.521	8.36
277.737	26.79
277.952	6.31
278.168	71.85
278.383	22.7
278.599	94.38
278.814	43.18
279.03	22.7
279.245	16.55
279.461	-1.88
279.676	43.18
279.892	34.99
280.107	-1.88
280.322	55.47
280.538	41.13
280.753	-42.84
280.969	98.47
281.184	28.84
281.399	102.57
281.615	37.03
281.83	39.08
282.045	-65.36
282.26	-38.74
282.476	2.22
282.691	55.47
282.906	-1.88
283.122	24.75
283.337	65.71
283.552	90.28
283.767	-16.21
283.983	82.09
284.198	12.46
284.413	63.66
284.628	-91.99
284.843	-16.21
285.058	39.08
285.274	71.85
285.489	41.13
285.704	63.66
285.919	43.18
286.134	-3.93
286.349	92.33
286.564	59.56
286.779	67.75
286.995	18.6
287.21	10.41
287.425	8.36
287.64	82.09
287.855	80.04
288.07	-42.84
288.285	125.1
288.5	43.18
288.715	129.19
288.93	57.51
289.145	43.18
289.36	22.7
289.575	28.84
289.79	34.99
290.004	55.47
290.219	49.32
290.434	88.23
290.649	-1.88
290.864	59.56
291.079	22.7
291.294	39.08
291.509	-59.22
291.724	24.75
291.938	-18.26
292.153	82.09
292.368	37.03
292.583	88.23
292.798	63.66
293.012	73.9
293.227	39.08
293.442	-12.12
293.657	45.23
293.871	104.62
294.086	-10.07
294.301	-26.45
294.516	75.95
294.73	51.37
294.945	32.94
295.16	49.32
295.374	59.56
295.589	16.55
295.804	39.08
296.018	127.14
296.233	82.09
296.447	24.75
296.662	-30.55
296.877	65.71
297.091	28.84
297.306	41.13
297.52	63.66
297.735	63.66
297.949	-3.93
298.164	12.46
298.378	104.62
298.593	73.9
298.807	30.89
299.022	49.32
299.236	22.7
299.451	80.04
299.665	4.27
299.88	47.27
300.094	12.46
300.309	6.31
300.523	39.08
300.737	10.41
300.952	80.04
301.166	80.04
301.381	49.32
301.595	63.66
301.809	30.89
302.024	-1.88
302.238	14.51
302.452	30.89
302.667	34.99
302.881	75.95
303.095	125.1
303.309	88.23
303.524	8.36
303.738	10.41
303.952	30.89
304.166	12.46
304.381	-8.02
304.595	39.08
304.809	80.04
305.023	57.51
305.237	2.22
305.452	45.23
305.666	39.08
305.88	63.66
306.094	82.09
306.308	73.9
306.522	88.23
306.736	47.27
306.95	61.61
307.164	51.37
307.379	57.51
307.593	51.37
307.807	28.84
308.021	39.08
308.235	82.09
308.449	-44.88
308.663	47.27
308.877	139.43
309.091	-8.02
309.305	125.1
309.519	-16.21
309.733	28.84
309.947	-57.17
310.161	90.28
310.374	55.47
310.588	63.66
310.802	-16.21
311.016	-14.17
311.23	6.31
311.444	37.03
311.658	30.89
311.872	63.66
312.085	6.31
312.299	51.37
312.513	80.04
312.727	41.13
312.941	51.37
313.154	88.23
313.368	-8.02
313.582	34.99
313.796	37.03
314.009	-10.07
314.223	63.66
314.437	84.14
314.651	57.51
314.864	94.38
315.078	-59.22
315.292	30.89
315.505	67.75
315.719	98.47
315.933	63.66
316.146	61.61
316.36	57.51
316.573	80.04
316.787	0.17
317.001	-18.26
317.214	47.27
317.428	8.36
317.641	94.38
317.855	63.66
318.068	-26.45
318.282	-18.26
318.495	43.18
318.709	77.99
318.922	41.13
319.136	104.62
319.349	47.27
319.563	47.27
319.776	30.89
319.99	57.51
320.203	-10.07
320.417	98.47
320.63	55.47
320.843	77.99
321.057	14.51
321.27	39.08
321.483	16.55
321.697	98.47
321.91	65.71
322.124	55.47
322.337	59.56
322.55	61.61
322.763	18.6
322.977	-3.93
323.19	6.31
323.403	14.51
323.617	47.27
323.83	32.94
324.043	6.31
324.256	80.04
324.469	47.27
324.683	-26.45
324.896	-3.93
325.109	22.7
325.322	2.22
325.535	8.36
325.748	47.27
325.962	22.7
326.175	71.85
326.388	73.9
326.601	77.99
326.814	77.99
327.027	2.22
327.24	65.71
327.453	-40.79
327.666	41.13
327.879	71.85
328.092	61.61
328.305	53.42
328.518	61.61
328.731	-3.93
328.944	69.8
329.157	75.95
329.37	71.85
329.583	80.04
329.796	55.47
330.009	-24.4
330.222	112.81
330.435	112.81
330.648	73.9
330.861	22.7
331.073	6.31
331.286	77.99
331.499	63.66
331.712	-22.36
331.925	37.03
332.138	41.13
332.35	125.1
332.563	49.32
332.776	63.66
332.989	8.36
333.202	37.03
333.414	51.37
333.627	6.31
333.84	55.47
334.053	92.33
334.265	51.37
334.478	16.55
334.691	30.89
334.903	-26.45
335.116	-14.17
335.329	104.62
335.541	41.13
335.754	57.51
335.966	-1.88
336.179	28.84
336.392	30.89
336.604	65.71
336.817	53.42
337.029	-34.64
337.242	12.46
337.454	43.18
337.667	51.37
337.88	98.47
338.092	67.75
338.305	22.7
338.517	-26.45
338.729	49.32
338.942	75.95
339.154	-5.97
339.367	2.22
339.579	61.61
339.792	14.51
340.004	63.66
340.217	71.85
340.429	24.75
340.641	8.36
340.854	-38.74
341.066	67.75
341.278	112.81
341.491	90.28
341.703	-8.02
341.915	41.13
342.128	51.37
342.34	49.32
342.552	41.13
342.764	-5.97
342.977	6.31
343.189	88.23
343.401	104.62
343.613	8.36
343.826	47.27
344.038	-10.07
344.25	49.32
344.462	-3.93
344.674	16.55
344.886	41.13
345.099	53.42
345.311	22.7
345.523	14.51
345.735	10.41
345.947	39.08
346.159	-3.93
346.371	8.36
346.583	30.89
346.795	88.23
347.007	96.43
347.219	10.41
347.431	49.32
347.643	59.56
347.855	-61.27
348.067	92.33
348.279	2.22
348.491	16.55
348.703	55.47
348.915	24.75
349.127	22.7
349.339	16.55
349.551	45.23
349.763	22.7
349.975	39.08
350.187	75.95
350.399	-5.97
350.61	14.51
350.822	47.27
351.034	-42.84
351.246	22.7
351.458	39.08
351.669	57.51
351.881	88.23
352.093	26.79
352.305	112.81
352.517	71.85
352.728	55.47
352.94	80.04
353.152	80.04
353.363	0.17
353.575	73.9
353.787	90.28
353.999	14.51
354.21	92.33
354.422	65.71
354.633	55.47
354.845	32.94
355.057	-8.02
355.268	94.38
355.48	32.94
355.692	-16.21
355.903	20.65
356.115	82.09
356.326	47.27
356.538	114.86
356.749	43.18
356.961	63.66
357.172	6.31
357.384	16.55
357.595	6.31
357.807	30.89
358.018	39.08
358.23	18.6
358.441	88.23
358.653	129.19
358.864	22.7
359.075	0.17
359.287	71.85
359.498	55.47
359.709	106.67
359.921	73.9
360.132	18.6
360.344	61.61
360.555	-61.27
360.766	55.47
360.977	112.81
361.189	-1.88
361.4	37.03
361.611	133.29
361.823	34.99
362.034	112.81
362.245	32.94
362.456	34.99
362.667	2.22
362.879	-1.88
363.09	71.85
363.301	34.99
363.512	71.85
363.723	-1.88
363.935	0.17
364.146	57.51
364.357	43.18
364.568	108.71
364.779	37.03
364.99	39.08
365.201	-26.45
365.412	114.86
365.623	34.99
365.834	49.32
366.045	22.7
366.256	102.57
366.467	71.85
366.678	39.08
366.889	45.23
367.1	0.17
367.311	80.04
367.522	69.8
367.733	47.27
367.944	67.75
368.155	47.27
368.366	24.75
368.577	106.67
368.788	176.3
368.999	41.13
369.209	-10.07
369.42	96.43
369.631	129.19
369.842	71.85
370.053	63.66
370.264	125.1
370.474	39.08
370.685	30.89
370.896	49.32
371.107	34.99
371.317	86.19
371.528	16.55
371.739	65.71
371.95	2.22
372.16	129.19
372.371	-18.26
372.582	45.23
372.792	8.36
373.003	8.36
373.214	39.08
373.424	121
373.635	20.65
373.846	98.47
374.056	67.75
374.267	32.94
374.477	41.13
374.688	37.03
374.898	96.43
375.109	161.96
375.319	-10.07
375.53	116.9
375.74	32.94
375.951	-1.88
376.161	47.27
376.372	84.14
376.582	67.75
376.793	114.86
377.003	96.43
377.214	24.75
377.424	32.94
377.635	14.51
377.845	47.27
378.055	108.71
378.266	26.79
378.476	14.51
378.686	-42.84
378.897	55.47
379.107	43.18
379.317	10.41
379.528	30.89
379.738	49.32
379.948	26.79
380.158	104.62
380.369	34.99
380.579	4.27
380.789	22.7
380.999	65.71
381.21	86.19
381.42	63.66
381.63	43.18
381.84	10.41
382.05	16.55
382.261	102.57
382.471	112.81
382.681	32.94
382.891	51.37
383.101	84.14
383.311	22.7
383.521	41.13
383.731	55.47
383.941	39.08
384.151	65.71
384.361	73.9
384.571	96.43
384.781	82.09
384.991	123.05
385.201	73.9
385.411	8.36
385.621	39.08
385.831	63.66
386.041	80.04
386.251	82.09
386.461	63.66
386.671	-32.6
386.881	82.09
387.091	63.66
387.301	47.27
387.511	125.1
387.72	51.37
387.93	67.75
388.14	24.75
388.35	0.17
388.56	73.9
388.769	69.8
388.979	39.08
389.189	22.7
389.399	108.71
389.609	96.43
389.818	22.7
390.028	106.67
390.238	41.13
390.447	75.95
390.657	96.43
390.867	63.66
391.076	8.36
391.286	51.37
391.496	2.22
391.705	69.8
391.915	30.89
392.125	80.04
392.334	14.51
392.544	67.75
392.753	121
392.963	24.75
393.172	61.61
393.382	73.9
393.591	129.19
393.801	-26.45
394.01	245.93
394.22	137.38
394.429	71.85
394.639	106.67
394.848	110.76
395.058	106.67
395.267	39.08
395.477	30.89
395.686	127.14
395.895	53.42
396.105	49.32
396.314	100.52
396.524	63.66
396.733	28.84
396.942	80.04
397.152	133.29
397.361	75.95
397.57	137.38
397.78	69.8
397.989	63.66
398.198	147.62
398.407	55.47
398.617	55.47
398.826	80.04
399.035	53.42
399.244	71.85
399.453	28.84
399.663	164.01
399.872	80.04
400.081	63.66
400.29	145.58
400.499	53.42
400.708	161.96
400.917	30.89
401.127	55.47
401.336	80.04
401.545	88.23
401.754	164.01
401.963	147.62
402.172	116.9
402.381	110.76
402.59	166.06
402.799	106.67
403.008	174.25
403.217	121
403.426	141.48
403.635	67.75
403.844	135.34
404.053	-20.31
404.262	123.05
404.471	172.2
404.68	164.01
404.888	82.09
405.097	108.71
405.306	98.47
405.515	131.24
405.724	215.21
405.933	157.86
406.142	104.62
406.35	190.63
406.559	172.2
406.768	262.31
406.977	182.44
407.185	260.26
407.394	112.81
407.603	204.97
407.812	129.19
408.02	178.34
408.229	194.73
408.438	225.45
408.646	190.63
408.855	217.26
409.064	260.26
409.272	192.68
409.481	299.17
409.69	245.93
409.898	256.17
410.107	229.54
410.315	252.07
410.524	309.41
410.733	243.88
410.941	303.27
411.15	295.08
411.358	354.47
411.567	422.05
411.775	350.37
411.984	362.66
412.192	385.19
412.401	377
412.609	377
412.818	516.26
413.026	370.85
413.234	465.06
413.443	434.34
413.651	489.64
413.86	526.5
414.068	598.18
414.276	645.28
414.485	516.26
414.693	692.38
414.901	575.65
415.11	592.03
415.318	549.03
415.526	702.62
415.734	686.24
415.943	682.14
416.151	776.35
416.359	682.14
416.567	739.49
416.776	800.93
416.984	819.36
417.192	766.11
417.4	854.17
417.608	876.7
417.817	901.28
418.025	1022.11
418.233	1011.87
418.441	981.15
418.649	1026.2
418.857	1155.23
419.065	1165.46
419.273	1095.83
419.481	1292.44
419.689	1224.86
419.897	1261.72
420.105	1255.58
420.313	1448.08
420.521	1427.6
420.729	1521.81
420.937	1554.58
421.145	1499.28
421.353	1562.77
421.561	1767.57
421.769	1718.42
421.977	1794.19
422.185	1722.51
422.393	1845.39
422.601	2123.91
422.809	2013.32
423.017	1927.31
423.224	2033.8
423.432	2205.83
423.64	2277.51
423.848	2302.09
424.056	2306.18
424.263	2508.93
424.471	2517.12
424.679	2531.46
424.887	2709.63
425.094	2656.39
425.302	2799.74
425.51	2900.09
425.718	3008.64
425.925	2990.21
426.133	2992.25
426.341	3260.54
426.548	3489.91
426.756	3307.64
426.964	3381.37
427.171	3690.61
427.379	3750
427.586	3713.14
427.794	3858.54
428.001	4208.75
428.209	4210.79
428.417	4274.28
428.624	4511.85
428.832	4444.26
429.039	4419.69
429.247	4393.06
429.454	4841.57
429.662	5159
429.869	4776.03
430.076	5261.4
430.284	5034.08
430.491	5240.92
430.699	5578.84
430.906	5728.34
431.114	5595.22
431.321	5935.18
431.528	6113.36
431.736	6234.19
431.943	6694.98
432.15	6389.83
432.358	6572.1
432.565	6946.88
432.772	6772.8
432.979	7159.87
433.187	7284.8
433.394	7252.03
433.601	7909.43
433.808	8159.28
434.016	7915.57
434.223	7960.63
434.43	8460.33
434.637	8282.16
434.844	8966.18
435.052	9117.73
435.259	9050.14
435.466	9168.93
435.673	9093.15
435.88	9658.39
436.087	10078.22
436.294	10043.41
436.501	9730.07
436.708	10237.97
436.915	10377.23
437.122	10954.76
437.329	10942.47
437.537	11171.84
437.743	11317.25
437.95	11407.36
438.157	11753.46
438.364	12271.6
438.571	12380.14
438.778	12193.78
438.985	13576.16
439.192	13109.22
439.399	13260.77
439.606	12990.44
439.813	13948.89
440.02	14692.3
440.227	14047.19
440.433	14327.76
440.64	14776.27
440.847	14587.85
441.054	15024.07
441.261	15962.04
441.467	15689.66
441.674	15990.71
441.881	16369.58
442.088	16361.39
442.294	16418.74
442.501	16764.84
442.708	17135.53
442.914	18044.82
443.121	18519.95
443.328	18118.55
443.534	19201.93
443.741	18745.23
443.948	18329.49
444.154	19906.43
444.361	19834.75
444.568	19920.76
444.774	19847.04
444.981	20113.27
445.187	20721.52
445.394	21405.54
445.6	21239.65
445.807	23334.73
446.013	22280.02
446.22	22384.47
446.426	23484.23
446.633	23889.73
446.839	24835.89
447.046	23306.06
447.252	24940.33
447.459	24760.11
447.665	24696.63
447.871	25796.39
448.078	26937.1
448.284	25745.19
448.491	26701.59
448.697	27356.94
448.903	28219.13
449.11	28405.5
449.316	27346.7
449.522	27989.76
449.728	28862.19
449.935	29183.73
450.141	28991.22
450.347	29714.15
450.553	28745.46
450.76	29124.33
450.966	30215.9
451.172	29705.96
451.378	30504.67
451.584	29677.29
451.791	30691.03
451.997	30813.91
452.203	31043.28
452.409	31252.17
452.615	31188.69
452.821	29933.28
453.027	29753.06
453.233	31074
453.44	30031.58
453.646	30535.38
453.852	30572.25
454.058	31098.58
454.264	30093.02
454.47	30639.83
454.676	29863.65
454.882	31227.6
455.088	28598.01
455.294	29347.56
455.5	29302.51
455.705	29628.13
455.911	28399.35
456.117	28006.14
456.323	27502.34
456.529	26113.82
456.735	27309.83
456.941	26449.69
457.147	26179.36
457.352	25644.84
457.558	25071.4
457.764	25354.02
457.97	25083.69
458.176	24399.67
458.381	24162.11
458.587	23232.33
458.793	23236.42
458.999	22021.98
459.204	23338.82
459.41	22699.86
459.616	21237.61
459.821	21641.06
460.027	21612.38
460.233	21034.86
460.438	19926.91
460.644	20340.6
460.85	19355.52
461.055	18556.82
461.261	18765.71
461.466	17493.92
461.672	16873.39
461.878	18257.81
462.083	16871.34
462.289	16736.17
462.494	16504.75
462.7	15769.53
462.905	15398.85
463.111	15945.66
463.316	16052.15
463.522	15275.97
463.727	15230.91
463.932	15613.88
464.138	15271.87
464.343	15548.35
464.549	14903.24
464.754	15437.76
464.959	15357.89
465.165	15130.56
465.37	14540.75
465.575	14155.73
465.781	14532.56
465.986	14858.18
466.191	14413.77
466.397	14067.67
466.602	13213.67
466.807	13862.87
467.012	13764.57
467.218	13748.18
467.423	13457.37
467.628	13660.12
467.833	14041.04
468.038	13719.51
468.244	13170.66
468.449	13621.21
468.654	13316.06
468.859	13301.73
469.064	13311.97
469.269	12675.05
469.474	12871.65
469.679	13203.43
469.885	12543.98
470.09	13096.93
470.295	12947.43
470.5	12404.72
470.705	12460.01
470.91	12320.75
471.115	12277.74
471.32	12253.17
471.525	12318.7
471.73	12095.47
471.935	11913.2
472.139	11409.4
472.344	11657.21
472.549	11548.67
472.754	11640.83
472.959	11155.46
473.164	10905.6
473.369	10995.71
473.574	11282.43
473.778	11034.63
473.983	10936.32
474.188	11063.3
474.393	10393.61
474.598	10557.45
474.802	10622.98
475.007	10319.89
475.212	10434.57
475.417	10037.27
475.621	10035.22
475.826	10297.36
476.031	9826.32
476.235	9783.32
476.44	9797.65
476.645	9750.55
476.849	9486.36
477.054	9580.57
477.259	9297.95
477.463	9213.98
477.668	9107.49
477.872	9234.46
478.077	9123.87
478.282	8650.79
478.486	8906.79
478.691	8953.89
478.895	8745
479.1	8771.62
479.304	8771.62
479.509	8306.73
479.713	8710.18
479.918	8460.33
480.122	8239.15
480.326	8548.39
480.531	8572.97
480.735	8112.17
480.94	8310.83
481.144	8558.63
481.348	8136.75
481.553	8177.71
481.757	8161.33
481.961	7966.77
482.166	8331.31
482.37	8173.61
482.574	7886.9
482.778	7997.49
482.983	8308.78
483.187	8101.94
483.391	8085.55
483.595	8024.11
483.8	7923.76
484.004	8067.12
484.208	7997.49
484.412	8067.12
484.616	7985.2
484.821	7845.94
485.025	7985.2
485.229	8161.33
485.433	8052.78
485.637	8007.73
485.841	8138.8
486.045	7794.74
486.249	7856.18
486.453	7845.94
486.657	7897.14
486.861	8013.87
487.065	7913.52
487.269	7981.1
487.473	7972.91
487.677	8067.12
487.881	8251.44
488.085	8020.02
488.289	8085.55
488.493	7854.13
488.697	8116.27
488.901	8087.6
489.105	7936.05
489.309	8161.33
489.512	8001.58
489.716	8169.52
489.92	8149.04
490.124	8288.3
490.328	8179.76
490.531	8190
490.735	8173.61
490.939	8247.34
491.143	8173.61
491.346	8155.18
491.55	8288.3
491.754	8288.3
491.958	8355.88
492.161	8339.5
492.365	8415.27
492.569	8454.19
492.772	8515.62
492.976	8570.92
493.18	8394.79
493.383	8554.54
493.587	8794.15
493.79	8816.68
493.994	8505.38
494.197	8673.32
494.401	8804.39
494.605	8962.08
494.808	8978.47
495.012	8943.65
495.215	8976.42
495.419	9033.76
495.622	9070.62
495.825	9304.09
496.029	9158.69
496.232	9218.08
496.436	9259.04
496.639	9652.25
496.843	9517.08
497.046	9709.59
497.249	9773.08
497.453	9693.21
497.656	10049.55
497.859	9932.82
498.063	9910.29
498.266	10483.72
498.469	10123.28
498.673	10428.43
498.876	10557.45
499.079	10737.67
499.282	10588.17
499.485	10682.38
499.689	11132.93
499.892	10805.25
500.095	10991.62
500.298	11350.01
500.501	10993.67
500.705	11409.4
500.908	11937.78
501.111	11601.91
501.314	11870.2
501.517	11786.23
501.72	12064.75
501.923	11982.84
502.126	12269.55
502.329	12414.96
502.532	12621.8
502.735	12341.23
502.938	12920.81
503.141	13047.78
503.344	13221.86
503.547	13197.28
503.75	13264.86
503.953	13488.09
504.156	13656.03
504.359	13793.24
504.562	13948.89
504.765	14112.72
504.968	14145.49
505.17	14368.72
505.373	14469.07
505.576	14677.96
505.779	14903.24
505.982	14931.91
506.185	15028.17
506.387	15579.07
506.59	15722.43
506.793	15650.75
506.996	15603.64
507.198	16265.14
507.401	16230.32
507.604	16273.33
507.807	16517.04
508.009	16598.96
508.212	16613.29
508.415	16873.39
508.617	17029.03
508.82	17076.13
509.022	17246.12
509.225	17827.74
509.428	17844.12
509.63	17764.25
509.833	18067.35
510.035	18448.27
510.238	18374.55
510.44	18732.94
510.643	18780.04
510.845	18706.32
511.048	18968.46
511.25	19056.52
511.453	19324.8
511.655	20100.98
511.858	19926.91
512.06	20113.27
512.262	20031.35
512.465	20123.51
512.667	20666.22
512.87	20911.98
513.072	20746.09
513.274	21354.34
513.477	21370.72
513.679	21548.9
513.881	21718.88
514.084	21974.88
514.286	22019.93
514.488	22316.89
514.69	22765.39
514.893	22753.1
515.095	22765.39
515.297	22968.14
515.499	23185.22
515.701	23523.14
515.904	23633.73
516.106	24037.18
516.308	24100.67
516.51	24309.56
516.712	23959.36
516.914	24532.79
517.116	25089.84
517.318	24839.98
517.52	25431.85
517.722	25276.2
517.925	25704.23
518.127	25859.87
518.329	26296.09
518.531	25976.61
518.733	26621.72
518.935	26879.76
519.136	26777.36
519.338	27047.69
519.54	27248.39
519.742	27504.39
519.944	27502.34
520.146	28016.38
520.348	28083.97
520.55	28301.05
520.752	28245.76
520.954	28780.28
521.155	29017.84
521.357	29322.99
521.559	29714.15
521.761	29609.7
521.963	29802.21
522.164	30220
522.366	30107.36
522.568	30506.71
522.77	30600.92
522.971	31020.75
523.173	30865.11
523.375	31080.14
523.576	31499.98
523.778	31346.38
523.98	31731.4
524.181	31901.38
524.383	31602.38
524.584	32255.68
524.786	32345.79
524.988	32257.73
525.189	32468.67
525.391	32616.12
525.592	32951.99
525.794	32947.89
525.995	33052.34
526.197	32964.28
526.398	33347.25
526.6	33705.64
526.801	33822.37
527.003	33793.7
527.204	33906.34
527.406	34137.76
527.607	33887.91
527.808	34092.71
528.01	33865.38
528.211	34479.77
528.412	34676.38
528.614	34483.87
528.815	34633.37
529.016	34956.95
529.218	34555.55
529.419	34991.76
529.62	34735.77
529.822	35069.59
530.023	35167.89
530.224	35317.39
530.425	35432.08
530.626	35141.27
530.828	34901.65
531.029	35575.44
531.23	34956.95
531.431	35440.27
531.632	35778.18
531.833	35669.64
532.035	35434.13
532.236	35249.81
532.437	35806.86
532.638	35559.05
532.839	35837.58
533.04	36101.76
533.241	35600.01
533.442	36247.17
533.643	35958.41
533.844	35806.86
534.045	35776.14
534.246	35679.88
534.447	36173.44
534.648	35759.75
534.849	36408.96
535.05	35337.87
535.251	36257.41
535.451	36007.56
535.652	35937.93
535.853	36089.48
536.054	36163.2
536.255	36142.72
536.456	35813
536.657	36435.58
536.857	35823.24
537.058	35823.24
537.259	35950.21
537.46	36347.52
537.66	35960.45
537.861	36185.73
538.062	36003.46
538.263	35827.34
538.463	35915.4
538.664	36050.56
538.865	35944.07
539.065	36230.79
539.266	35913.35
539.466	36019.85
539.667	35765.9
539.868	36359.81
540.068	35892.87
540.269	35888.78
540.469	36095.62
540.67	35810.95
540.87	35974.79
541.071	35982.98
541.271	36124.29
541.472	35733.13
541.672	35806.86
541.873	35761.8
542.073	35698.31
542.274	36171.39
542.474	35817.1
542.675	35423.89
542.875	36187.78
543.075	36073.09
543.276	35671.69
543.476	35956.36
543.676	35511.95
543.877	36054.66
544.077	35870.34
544.277	35638.92
544.478	35327.63
544.678	36095.62
544.878	35679.88
545.078	35772.04
545.279	35548.81
545.479	35868.3
545.679	35757.71
545.879	35915.4
546.079	35483.28
546.28	35610.25
546.48	35180.18
546.68	35745.42
546.88	35516.04
547.08	35552.91
547.28	35653.26
547.48	35282.58
547.68	35925.64
547.88	35350.16
548.081	35886.73
548.281	35425.93
548.481	35434.13
548.681	35579.53
548.881	35503.76
549.081	35090.07
549.28	35368.59
549.48	35718.79
549.68	35378.83
549.88	35686.03
550.08	35024.53
550.28	35460.75
550.48	35301.01
550.68	35565.2
550.88	35364.5
551.08	35464.85
551.279	35487.37
551.479	34954.9
551.679	35233.43
551.879	35296.91
552.079	35470.99
552.278	35206.8
552.478	35335.82
552.678	35198.61
552.878	35581.58
553.077	35251.86
553.277	34936.47
553.477	35350.16
553.676	35366.54
553.876	34870.93
554.076	34791.06
554.275	34918.04
554.475	34746.01
554.674	34576.03
554.874	35317.39
555.074	34870.93
555.273	34651.8
555.473	34856.6
555.672	34752.15
555.872	34696.86
556.071	34975.38
556.271	34795.16
556.47	34727.58
556.67	34447.01
556.869	34404
557.068	35186.32
557.268	34983.57
557.467	34670.23
557.667	34705.05
557.866	34508.44
558.065	34438.81
558.265	34135.71
558.464	34283.17
558.663	34530.97
558.863	34123.43
559.062	34827.93
559.261	33916.58
559.461	34625.18
559.66	33830.57
559.859	34395.81
560.058	33562.28
560.258	34002.6
560.457	33769.13
560.656	34059.94
560.855	33603.24
561.054	33898.15
561.253	33730.22
561.453	33873.57
561.652	33656.49
561.851	33697.45
562.05	33810.09
562.249	33308.33
562.448	33799.85
562.647	33713.83
562.846	33300.14
563.045	33441.45
563.244	33109.68
563.443	33306.29
563.642	32810.68
563.841	32966.32
564.04	32882.36
564.239	32988.85
564.438	32485.05
564.637	32728.76
564.836	32915.12
565.035	32370.36
565.234	32745.14
565.432	32595.64
565.631	32341.69
565.83	32519.87
566.029	32513.72
566.228	32270.01
566.427	32202.43
566.625	32112.32
566.824	31852.23
567.023	32237.25
567.222	31694.54
567.42	31626.95
567.619	31891.14
567.818	31887.04
568.016	31778.5
568.215	31938.24
568.414	31835.84
568.612	31860.42
568.811	31411.92
569.01	31305.42
569.208	31102.67
569.407	31399.63
569.605	30766.81
569.804	31418.06
570.002	30756.57
570.201	31354.57
570.4	30465.75
570.598	30588.63
570.797	30389.98
570.995	30779.09
571.193	30432.99
571.392	31037.14
571.59	30570.2
571.789	30349.02
571.987	30254.81
572.186	30301.92
572.384	30084.83
572.582	30162.65
572.781	30373.6
572.979	30039.78
573.177	29988.58
573.376	29920.99
573.574	29724.39
573.772	29933.28
573.971	29509.35
574.169	29509.35
574.367	29173.49
574.565	29748.96
574.763	29495.02
574.962	29239.02
575.16	29193.97
575.358	29376.23
575.556	29243.12
575.754	28972.78
575.952	28833.52
576.151	29103.85
576.349	28477.18
576.547	28714.74
576.745	28665.59
576.943	28864.24
577.141	28356.35
577.339	28706.55
577.537	28434.17
577.735	28229.37
577.933	28124.93
578.131	28378.87
578.329	27905.79
578.527	28108.54
578.725	28354.3
578.923	28299
579.121	27553.54
579.319	27787.01
579.516	27813.63
579.714	27649.8
579.912	27582.21
580.11	27496.2
580.308	27725.57
580.506	27428.62
580.704	26928.91
580.901	26900.24
581.099	27619.08
581.297	27221.77
581.495	26834.71
581.692	27154.19
581.89	26908.43
582.088	26916.62
582.285	26443.54
582.483	26699.54
582.681	26672.92
582.878	26701.59
583.076	26128.16
583.274	26619.67
583.471	26263.32
583.669	26146.59
583.866	26169.12
584.064	26457.88
584.262	25923.36
584.459	25829.15
584.657	25831.2
584.854	26279.71
585.052	25368.36
585.249	25827.1
585.447	25927.46
585.644	25229.1
585.841	25583.4
586.039	25896.74
586.236	25075.5
586.434	25147.18
586.631	25110.32
586.828	25196.33
587.026	25138.99
587.223	25104.17
587.42	25100.08
587.618	25349.93
587.815	24872.75
588.012	25020.2
588.21	24469.3
588.407	25108.27
588.604	24614.71
588.801	24299.32
588.999	24514.36
589.196	24452.92
589.393	24332.09
589.59	24221.5
589.787	24217.4
589.984	24151.87
590.182	23881.53
590.379	23945.02
590.576	23879.49
590.773	23805.76
590.97	23656.26
591.167	24006.46
591.364	23357.25
591.561	23594.82
591.758	23297.86
591.955	23295.82
592.152	23729.98
592.349	23492.42
592.546	23244.62
592.743	23383.88
592.94	22785.87
593.137	23261
593.334	23078.73
593.531	22576.98
593.727	22685.52
593.924	22761.3
594.121	22794.06
594.318	22837.07
594.515	22675.28
594.712	22677.33
594.908	22579.03
595.105	22585.17
595.302	22230.87
595.499	22179.67
595.696	21888.86
595.892	21888.86
596.089	22148.95
596.286	22400.85
596.482	21882.72
596.679	21997.4
596.876	21653.34
597.072	21845.85
597.269	21985.12
597.466	21813.09
597.662	21589.86
597.859	21485.41
598.055	21651.3
598.252	21221.22
598.448	21354.34
598.645	21370.72
598.841	21141.35
599.038	21362.53
599.234	21176.17
599.431	20811.63
599.627	20815.73
599.824	20858.73
600.02	20594.54
600.217	20940.65
600.413	20643.7
600.609	20387.7
600.806	20457.33
601.002	20424.56
601.198	20416.37
601.395	20193.14
601.591	20303.73
601.787	20305.78
601.984	20060.02
602.18	20363.12
602.376	19873.66
602.572	20133.75
602.769	19951.48
602.965	19894.14
603.161	19855.23
603.357	19789.69
603.553	19468.16
603.75	19550.08
603.946	19783.55
604.142	19648.38
604.338	19390.34
604.534	19384.19
604.73	19402.63
604.926	19015.56
605.122	19324.8
605.318	19302.28
605.514	18923.4
605.71	18943.88
605.906	19070.86
606.102	18691.98
606.298	19087.24
606.494	19011.46
606.69	18968.46
606.886	18687.89
607.082	18761.61
607.278	18644.88
607.474	18585.49
607.67	18575.25
607.866	18458.51
608.062	18732.94
608.257	18427.79
608.453	18145.17
608.649	18497.42
608.845	18331.54
609.041	18266
609.236	18126.74
609.432	18249.62
609.628	18169.75
609.824	18145.17
610.019	18030.49
610.215	17979.29
610.411	18313.11
610.606	17913.75
610.802	18087.83
610.998	18048.92
611.193	17907.61
611.389	17526.69
611.584	18096.02
611.78	17487.78
611.976	17680.28
612.171	17717.15
612.367	17706.91
612.562	17651.61
612.758	17280.93
612.953	17289.12
613.149	17555.36
613.344	17344.42
613.539	17633.18
613.735	17303.46
613.93	17495.97
614.126	17381.28
614.321	17620.89
614.517	17192.87
614.712	17121.19
614.907	17192.87
615.103	17289.12
615.298	16975.78
615.493	17276.84
615.688	16844.71
615.884	17391.52
616.079	16660.4
616.274	17074.09
616.47	17086.37
616.665	16711.6
616.86	16945.06
617.055	16828.33
617.25	16857
617.445	16680.88
617.641	16521.13
617.836	16672.68
618.031	16605.1
618.226	16549.81
618.421	16459.7
618.616	16580.53
618.811	16285.62
619.006	16701.36
619.201	16005.05
619.396	16261.04
619.591	16117.68
619.786	16164.79
619.981	16009.14
620.176	16048.05
620.371	15669.18
620.566	16048.05
620.761	15695.8
620.956	15878.07
621.151	15783.87
621.346	15570.88
621.541	15275.97
621.735	15697.85
621.93	15409.09
622.125	15474.62
622.32	15136.71
622.515	15452.09
622.709	15052.74
622.904	14948.29
623.099	14878.66
623.294	15050.69
623.488	14843.85
623.683	15032.26
623.878	14745.55
624.072	14694.35
624.267	14462.93
624.462	14198.74
624.656	14301.14
624.851	14157.78
625.046	14059.48
625.24	14018.52
625.435	14018.52
625.629	13989.85
625.824	13883.35
626.018	13774.81
626.213	13563.87
626.407	13756.38
626.602	13449.18
626.796	13610.97
626.991	13494.24
627.185	13238.24
627.38	13228
627.574	13168.61
627.768	13031.4
627.963	12972
628.157	12955.62
628.352	12945.38
628.546	12779.5
628.74	12910.57
628.935	12744.68
629.129	12675.05
629.323	12435.44
629.517	12572.65
629.712	12597.23
629.906	12566.51
630.1	12095.47
630.294	12369.9
630.489	12156.91
630.683	12224.5
630.877	12101.62
631.071	12052.47
631.265	12150.77
631.459	11745.27
631.653	11722.74
631.848	11769.85
632.042	11526.14
632.236	11694.07
632.43	11593.72
632.624	11417.6
632.818	11384.83
633.012	11411.45
633.206	11147.26
633.4	11540.47
633.594	11116.55
633.788	11089.92
633.982	11235.33
634.176	10983.43
634.369	10889.22
634.563	10999.81
634.757	10887.17
634.951	10866.69
635.145	10745.86
635.339	10889.22
635.533	10633.22
635.726	10469.39
635.92	10356.75
636.114	10512.39
636.308	10588.17
636.501	10448.91
636.695	10489.87
636.889	10326.03
637.083	10565.64
637.276	10272.78
637.47	10119.18
637.664	10070.03
637.857	10055.7
638.051	10110.99
638.244	9996.31
638.438	9797.65
638.632	9748.5
638.825	9736.21
639.019	9717.78
639.212	9633.82
639.406	9461.79
639.599	9656.34
639.793	9701.4
639.986	9381.92
640.18	9472.03
640.373	9357.34
640.567	9359.39
640.76	9326.62
640.954	9246.75
641.147	9375.77
641.34	9109.54
641.534	9142.3
641.727	9056.29
641.92	8890.4
642.114	8847.4
642.307	8890.4
642.5	8931.36
642.694	8685.61
642.887	8599.59
643.08	8771.62
643.273	8642.6
643.467	8742.95
643.66	8489
643.853	8337.45
644.046	8169.52
644.239	8658.98
644.432	8419.37
644.626	8302.64
644.819	8241.2
645.012	8290.35
645.205	8421.42
645.398	8177.71
645.591	8116.27
645.784	8118.32
645.977	8034.35
646.17	7962.67
646.363	8001.58
646.556	7895.09
646.749	7890.99
646.942	8032.3
647.135	7866.42
647.328	7761.97
647.521	7591.99
647.714	7766.07
647.907	7604.28
648.099	7505.98
648.292	7487.54
648.485	7436.35
648.678	7594.04
648.871	7514.17
649.064	7366.71
649.256	7313.47
649.449	7266.36
649.642	7184.45
649.835	7118.91
650.027	7098.43
650.22	7018.56
650.413	6959.17
650.605	7069.76
650.798	7043.14
650.991	7045.18
651.183	6946.88
651.376	6848.58
651.568	6852.67
651.761	6893.63
651.954	6793.28
652.146	6838.34
652.339	6666.31
652.531	6748.23
652.724	6666.31
652.916	6494.28
653.109	6645.83
653.301	6514.76
653.494	6494.28
653.686	6295.63
653.879	6426.7
654.071	6377.55
654.263	6479.94
654.456	6514.76
654.648	6496.33
654.84	6404.17
655.033	6213.71
655.225	6215.76
655.417	6205.52
655.61	6336.59
655.802	6174.8
655.994	6203.47
656.186	6070.35
656.379	6258.76
656.571	6170.7
656.763	6035.53
656.955	6013.01
657.148	6010.96
657.34	5941.33
657.532	5709.91
657.724	5888.08
657.916	5812.31
658.108	5685.33
658.3	5707.86
658.492	5757.01
658.684	5634.13
658.876	5584.98
659.068	5546.07
659.26	5664.85
659.452	5658.71
659.644	5498.97
659.836	5666.9
660.028	5652.56
660.22	5232.73
660.412	5306.46
660.604	5363.8
660.796	5384.28
660.988	5253.21
661.18	5339.23
661.372	5257.31
661.563	5167.2
661.755	5171.29
661.947	5109.85
662.139	5083.23
662.331	5134.43
662.522	4956.26
662.714	5101.66
662.906	5128.28
663.097	5109.85
663.289	5011.55
663.481	4946.02
663.673	5052.51
663.864	4876.38
664.056	4794.47
664.247	5050.46
664.439	4792.42
664.631	4862.05
664.822	4823.14
665.014	4759.65
665.205	4755.55
665.397	4720.74
665.588	4696.16
665.78	4675.68
665.971	4782.18
666.163	4552.81
666.354	4702.31
666.546	4528.23
666.737	4446.31
666.929	4675.68
667.12	4481.13
667.311	4524.13
667.503	4425.83
667.694	4372.58
667.885	4468.84
668.077	4393.06
668.268	4282.47
668.459	4397.16
668.651	4274.28
668.842	4282.47
669.033	4239.47
669.224	4251.75
669.416	4196.46
669.607	4149.36
669.798	4261.99
669.989	4036.72
670.18	4180.07
670.371	4151.4
670.563	4102.25
670.754	4161.64
670.945	4003.95
671.136	3944.56
671.327	3854.45
671.518	3995.76
671.709	4094.06
671.9	4094.06
672.091	3987.57
672.282	3913.84
672.473	3917.93
672.664	3907.7
672.855	3934.32
673.046	3831.92
673.237	3915.89
673.428	3813.49
673.619	3778.67
673.809	3635.32
674	3737.71
674.191	3907.7
674.382	3831.92
674.573	3774.58
674.764	3942.51
674.954	3672.18
675.145	3663.99
675.336	3647.6
675.527	3590.26
675.717	3571.83
675.908	3561.59
676.099	3659.89
676.289	3543.16
676.48	3526.77
676.671	3440.76
676.861	3584.12
677.052	3444.85
677.243	3537.01
677.433	3491.96
677.624	3422.33
677.814	3432.57
678.005	3582.07
678.195	3451
678.386	3332.22
678.576	3397.75
678.767	3291.26
678.957	3504.25
679.148	3420.28
679.338	3381.37
679.529	3336.31
679.719	3266.68
679.909	3373.18
680.1	3188.86
680.29	3285.11
680.481	3160.19
680.671	3233.91
680.861	3235.96
681.052	3203.19
681.242	3229.82
681.432	3180.67
681.622	3045.5
681.813	3195
682.003	3260.54
682.193	2979.97
682.383	3190.91
682.573	3119.23
682.764	3117.18
682.954	3065.98
683.144	3094.65
683.334	3072.12
683.524	3080.32
683.714	3065.98
683.904	3084.41
684.094	3014.78
684.284	3020.92
684.474	3123.32
684.664	2969.73
684.854	3039.36
685.044	3049.6
685.234	3000.44
685.424	2857.09
685.614	2990.21
685.804	2961.53
685.994	2955.39
686.184	2900.09
686.374	2832.51
686.564	2934.91
686.753	2910.33
686.943	2957.44
687.133	2955.39
687.323	2914.43
687.513	2859.14
687.702	2904.19
687.892	2869.37
688.082	2734.21
688.272	2771.07
688.461	2855.04
688.651	2857.09
688.841	2773.12
689.03	2709.63
689.22	2730.11
689.41	2717.83
689.599	2787.46
689.789	2750.59
689.979	2605.19
690.168	2666.63
690.358	2689.15
690.547	2611.33
690.737	2721.92
690.926	2629.76
691.116	2660.48
691.305	2713.73
691.495	2558.08
691.684	2545.8
691.874	2648.19
692.063	2492.55
692.252	2676.87
692.442	2662.53
692.631	2474.12
692.82	2484.36
693.01	2492.55
693.199	2455.69
693.388	2470.02
693.578	2433.16
693.767	2463.88
693.956	2443.4
694.146	2498.69
694.335	2443.4
694.524	2349.19
694.713	2580.61
694.902	2332.81
695.092	2422.92
695.281	2365.57
695.47	2394.25
695.659	2285.7
695.848	2324.62
696.037	2371.72
696.226	2445.45
696.415	2361.48
696.604	2449.54
696.793	2316.42
696.982	2359.43
697.171	2357.38
697.36	2390.15
697.549	2279.56
697.738	2341
697.927	2324.62
698.116	2404.49
698.305	2394.25
698.494	2367.62
698.683	2373.77
698.872	2234.5
699.061	2332.81
699.25	2359.43
699.438	2218.12
699.627	2414.73
699.816	2279.56
700.005	2246.79
700.193	2338.95
700.382	2365.57
700.571	2242.7
700.76	2121.87
700.948	2246.79
701.137	2287.75
701.326	2238.6
701.514	2265.22
701.703	2164.87
701.892	2324.62
702.08	2295.94
702.269	2254.98
702.457	2232.46
702.646	2343.05
702.834	2187.4
703.023	2197.64
703.212	2136.2
703.4	2187.4
703.589	2097.29
703.777	2201.74
703.965	2238.6
704.154	2146.44
704.342	2107.53
704.531	2234.5
704.719	2037.9
704.907	2244.74
705.096	2072.72
705.284	2254.98
705.472	2248.84
705.661	2177.16
705.849	2263.18
706.037	2121.87
706.226	2148.49
706.414	2152.59
706.602	2234.5
706.79	2171.02
706.979	2316.42
707.167	2162.83
707.355	2095.24
707.543	2111.63
707.731	2203.79
707.919	2275.46
708.107	2148.49
708.296	2074.76
708.484	2121.87
708.672	2121.87
708.86	2064.52
709.048	2105.48
709.236	2189.45
709.424	2209.93
709.612	2185.35
709.8	2138.25
709.988	2218.12
710.176	2193.55
710.364	2234.5
710.551	2222.22
710.739	2164.87
710.927	2101.39
711.115	2148.49
711.303	2048.14
711.491	2144.39
711.679	2119.82
711.866	2070.67
712.054	2091.15
712.242	2138.25
712.43	2087.05
712.617	2031.76
712.805	2185.35
712.993	2039.95
713.181	2066.57
713.368	2046.09
713.556	2173.07
713.744	2218.12
713.931	2185.35
714.119	2166.92
714.306	2185.35
714.494	2089.1
714.682	2173.07
714.869	2230.41
715.057	2107.53
715.244	2064.52
715.432	2246.79
715.619	2035.85
715.807	2080.91
715.994	2144.39
716.182	2025.61
716.369	2123.91
716.556	1960.08
716.744	2107.53
716.931	1964.17
717.119	2058.38
717.306	2136.2
717.493	2054.28
717.681	2062.48
717.868	2058.38
718.055	2046.09
718.242	2144.39
718.43	2037.9
718.617	2132.11
718.804	2115.72
718.991	1996.94
719.179	2025.61
719.366	2175.11
719.553	2111.63
719.74	2050.19
719.927	2058.38
720.114	2062.48
720.301	2078.86
720.488	2013.32
720.676	2160.78
720.863	2130.06
721.05	2062.48
721.237	2103.43
721.424	2173.07
721.611	2103.43
721.798	1972.36
721.985	2078.86
722.172	1974.41
722.358	2035.85
722.545	2111.63
722.732	1992.84
722.919	1998.99
723.106	1958.03
723.293	2005.13
723.48	1976.46
723.667	2011.28
723.853	2066.57
724.04	2168.97
724.227	2128.01
724.414	2119.82
724.6	1919.12
724.787	2078.86
724.974	2072.72
725.161	2021.52
725.347	2021.52
725.534	1951.88
725.72	2078.86
725.907	2050.19
726.094	2054.28
726.28	1900.69
726.467	1925.26
726.653	2062.48
726.84	1951.88
727.027	2091.15
727.213	2072.72
727.4	2007.18
727.586	1972.36
727.773	1998.99
727.959	2105.48
728.145	2062.48
728.332	2097.29
728.518	1939.6
728.705	1980.56
728.891	1982.6
729.077	1990.8
729.264	1857.68
729.45	1994.89
729.636	1898.64
729.823	1992.84
730.009	2007.18
730.195	2023.56
730.382	2101.39
730.568	1958.03
730.754	2033.8
730.94	1923.21
731.126	2037.9
731.313	1970.32
731.499	1984.65
731.685	1945.74
731.871	2013.32
732.057	1968.27
732.243	1998.99
732.429	1933.45
732.615	2074.76
732.801	1976.46
732.987	1933.45
733.173	1863.82
733.359	1964.17
733.545	1908.88
733.731	1958.03
733.917	2078.86
734.103	1945.74
734.289	1978.51
734.475	1882.25
734.661	2046.09
734.847	1872.01
735.033	1968.27
735.219	1896.59
735.404	1908.88
735.59	1945.74
735.776	1933.45
735.962	1992.84
736.148	1923.21
736.333	1976.46
736.519	1894.54
736.705	1841.29
736.89	1867.92
737.076	1894.54
737.262	1923.21
737.447	1894.54
737.633	1872.01
737.819	1835.15
738.004	1837.2
738.19	1915.02
738.375	1806.48
738.561	1888.4
738.747	1876.11
738.932	1837.2
739.118	1906.83
739.303	1808.53
739.489	1884.3
739.674	1724.56
739.859	1880.21
740.045	1890.45
740.23	1812.62
740.416	1704.08
740.601	1812.62
740.786	1841.29
740.972	1826.96
741.157	1847.44
741.342	1779.86
741.528	1730.7
741.713	1859.73
741.898	1722.51
742.084	1648.79
742.269	1792.14
742.454	1738.9
742.639	1843.34
742.824	1792.14
743.01	1706.13
743.195	1757.33
743.38	1726.61
743.565	1792.14
743.75	1702.03
743.935	1728.66
744.12	1695.89
744.305	1583.25
744.49	1583.25
744.675	1613.97
744.86	1659.03
745.045	1661.07
745.23	1599.63
745.415	1591.44
745.6	1671.31
745.785	1544.34
745.97	1568.91
746.155	1667.22
746.34	1613.97
746.525	1532.05
746.71	1603.73
746.895	1570.96
747.079	1564.82
747.264	1530
747.449	1523.86
747.634	1525.91
747.819	1464.47
748.003	1607.83
748.188	1484.95
748.373	1558.67
748.557	1474.71
748.742	1532.05
748.927	1317.01
749.111	1448.08
749.296	1464.47
749.481	1546.39
749.665	1521.81
749.85	1464.47
750.034	1491.09
750.219	1446.04
750.404	1370.26
750.588	1435.8
750.773	1441.94
750.957	1392.79
751.141	1400.98
751.326	1398.93
751.51	1333.4
751.695	1288.34
751.879	1327.25
752.064	1325.21
752.248	1392.79
752.432	1400.98
752.617	1366.17
752.801	1294.49
752.985	1259.67
753.17	1259.67
753.354	1286.3
753.538	1329.3
753.722	1247.38
753.907	1292.44
754.091	1226.9
754.275	1243.29
754.459	1331.35
754.643	1190.04
754.828	1247.38
755.012	1120.41
755.196	1224.86
755.38	1155.23
755.564	1032.35
755.748	1136.79
755.932	1196.18
756.116	1128.6
756.3	1161.37
756.484	1046.68
756.668	1153.18
756.852	1087.64
757.036	1142.94
757.22	1032.35
757.404	1140.89
757.588	1065.11
757.772	1097.88
757.956	1147.03
758.14	1095.83
758.323	1104.03
758.507	1075.35
758.691	1013.92
758.875	1011.87
759.059	1013.92
759.242	946.33
759.426	1020.06
759.61	956.57
759.794	977.05
759.977	1034.39
760.161	1009.82
760.345	1042.59
760.528	1013.92
760.712	979.1
760.895	934.04
761.079	964.76
761.263	919.71
761.446	958.62
761.63	864.41
761.813	977.05
761.997	909.47
762.18	858.27
762.364	968.86
762.547	893.09
762.731	876.7
762.914	934.04
763.098	964.76
763.281	940.19
763.464	874.65
763.648	897.18
763.831	932
764.015	948.38
764.198	917.66
764.381	919.71
764.564	921.76
764.748	870.56
764.931	841.89
765.114	868.51
765.297	841.89
765.481	719.01
765.664	870.56
765.847	880.8
766.03	852.13
766.213	827.55
766.397	868.51
766.58	831.65
766.763	811.17
766.946	899.23
767.129	907.42
767.312	805.02
767.495	868.51
767.678	745.63
767.861	895.13
768.044	768.16
768.227	825.5
768.41	829.6
768.593	819.36
768.776	878.75
768.959	772.25
769.142	868.51
769.324	727.2
769.507	802.97
769.69	751.78
769.873	776.35
770.056	858.27
770.239	768.16
770.421	778.4
770.604	780.45
770.787	719.01
770.97	739.49
771.152	702.62
771.335	792.73
771.518	731.3
771.7	800.93
771.883	848.03
772.066	737.44
772.248	688.29
772.431	694.43
772.613	764.06
772.796	661.66
772.978	729.25
773.161	735.39
773.343	727.2
773.526	632.99
773.708	688.29
773.891	639.14
774.073	686.24
774.256	673.95
774.438	817.31
774.621	645.28
774.803	680.1
774.985	647.33
775.168	645.28
775.35	659.62
775.532	712.86
775.715	770.21
775.897	669.86
776.079	587.94
776.261	665.76
776.444	678.05
776.626	639.14
776.808	587.94
776.99	612.51
777.173	563.36
777.355	624.8
777.537	575.65
777.719	661.66
777.901	645.28
778.083	526.5
778.265	589.99
778.447	669.86
778.629	551.07
778.811	610.47
778.993	557.22
779.175	667.81
779.357	524.45
779.539	530.59
779.721	579.75
779.903	567.46
780.085	581.79
780.267	526.5
780.449	514.21
780.631	581.79
780.812	649.38
780.994	532.64
781.176	571.55
781.358	512.16
781.54	497.83
781.721	481.44
781.903	583.84
782.085	485.54
782.267	473.25
782.448	434.34
782.63	518.31
782.812	491.68
782.993	542.88
783.175	458.92
783.357	415.91
783.538	524.45
783.72	399.52
783.901	442.53
784.083	475.3
784.264	460.96
784.446	426.15
784.627	325.8
784.809	391.33
784.99	368.81
785.172	473.25
785.353	442.53
785.535	342.18
785.716	497.83
785.897	348.33
786.079	407.72
786.26	391.33
786.441	465.06
786.623	348.33
786.804	379.04
786.985	436.39
787.167	516.26
787.348	313.51
787.529	399.52
787.71	426.15
787.891	440.48
788.073	313.51
788.254	387.24
788.435	422.05
788.616	407.72
788.797	256.17
788.978	360.61
789.159	264.36
789.34	284.84
789.522	346.28
789.703	350.37
789.884	305.32
790.065	311.46
790.246	336.04
790.427	387.24
790.607	348.33
790.788	321.7
790.969	340.13
791.15	413.86
791.331	313.51
791.512	333.99
791.693	366.76
791.874	344.23
792.054	374.95
792.235	366.76
792.416	317.61
792.597	350.37
792.778	346.28
792.958	303.27
793.139	338.09
793.32	333.99
793.5	233.64
793.681	336.04
793.862	260.26
794.042	317.61
794.223	276.65
794.404	333.99
794.584	274.6
794.765	245.93
794.945	256.17
795.126	245.93
795.306	270.5
795.487	194.73
795.667	207.02
795.848	268.45
796.028	317.61
796.209	317.61
796.389	243.88
796.57	317.61
796.75	243.88
796.93	358.57
797.111	161.96
797.291	200.87
797.471	211.11
797.652	247.97
797.832	243.88
798.012	317.61
798.192	219.3
798.373	221.35
798.553	252.07
798.733	198.82
798.913	235.69
799.093	194.73
799.274	207.02
799.454	350.37
799.634	321.7
799.814	286.89
799.994	198.82
800.174	266.41
800.354	168.1
800.534	204.97
800.714	247.97
800.894	164.01
801.074	133.29
801.254	172.2
801.434	266.41
801.614	217.26
801.794	211.11
801.974	882.85
802.154	174.25
802.334	215.21
802.514	204.97
802.693	233.64
802.873	155.82
803.053	215.21
803.233	258.21
803.413	247.97
803.592	174.25
803.772	196.78
803.952	227.5
804.131	211.11
804.311	254.12
804.491	293.03
804.67	139.43
804.85	161.96
805.03	188.58
805.209	231.59
805.389	174.25
805.568	170.15
805.748	268.45
805.928	178.34
806.107	155.82
806.287	194.73
806.466	166.06
806.646	172.2
806.825	114.86
807.004	153.77
807.184	186.54
807.363	274.6
807.543	153.77
807.722	202.92
807.901	194.73
808.081	170.15
808.26	219.3
808.439	129.19
808.619	239.78
808.798	123.05
808.977	149.67
809.156	159.91
809.336	254.12
809.515	229.54
809.694	149.67
809.873	172.2
810.052	141.48
810.231	239.78
810.411	170.15
810.59	188.58
810.769	129.19
810.948	149.67
811.127	106.67
811.306	82.09
811.485	149.67
811.664	198.82
811.843	147.62
812.022	112.81
812.201	168.1
812.38	137.38
812.559	98.47
812.737	174.25
812.916	49.32
813.095	14.51
813.274	112.81
813.453	100.52
813.632	123.05
813.811	172.2
813.989	90.28
814.168	157.86
814.347	174.25
814.526	161.96
814.704	223.4
814.883	204.97
815.062	125.1
815.24	75.95
815.419	96.43
815.598	174.25
815.776	174.25
815.955	153.77
816.133	63.66
816.312	102.57
816.49	133.29
816.669	172.2
816.847	151.72
817.026	133.29
817.204	96.43
817.383	145.58
817.561	108.71
817.74	149.67
817.918	80.04
818.097	141.48
818.275	131.24
818.453	71.85
818.632	77.99
818.81	178.34
818.988	10.41
819.167	127.14
819.345	121
819.523	172.2
819.701	137.38
819.879	102.57
820.058	170.15
820.236	104.62
820.414	82.09
820.592	116.9
820.77	121
820.948	73.9
821.127	86.19
821.305	65.71
821.483	67.75
821.661	137.38
821.839	90.28
822.017	129.19
822.195	116.9
822.373	71.85
822.551	112.81
822.729	104.62
822.907	75.95
823.085	149.67
823.262	6.31
823.44	57.51
823.618	133.29
823.796	168.1
823.974	6.31
824.152	110.76
824.329	22.7
824.507	98.47
824.685	71.85
824.863	63.66
825.04	102.57
825.218	112.81
825.396	65.71
825.574	112.81
825.751	71.85
825.929	129.19
826.107	20.65
826.284	114.86
826.462	106.67
826.639	34.99
826.817	49.32
826.994	123.05
827.172	39.08
827.349	157.86
827.527	88.23
827.704	55.47
827.882	77.99
828.059	80.04
828.237	75.95
828.414	98.47
828.591	22.7
828.769	57.51
828.946	80.04
829.124	82.09
829.301	186.54
829.478	69.8
829.655	131.24
829.833	129.19
830.01	43.18
830.187	141.48
830.364	16.55
830.542	80.04
830.719	63.66
830.896	114.86
831.073	57.51
831.25	118.95
831.427	129.19
831.604	131.24
831.782	-1.88
831.959	153.77
832.136	22.7
832.313	96.43
832.49	108.71
832.667	14.51
832.844	10.41
833.021	129.19
833.198	84.14
833.374	26.79
833.551	51.37
833.728	80.04
833.905	92.33
834.082	98.47
834.259	108.71
834.436	67.75
834.612	98.47
834.789	137.38
834.966	65.71
835.143	96.43
835.319	-10.07
835.496	96.43
835.673	65.71
835.85	49.32
836.026	110.76
836.203	61.61
836.38	22.7
836.556	49.32
836.733	45.23
836.909	67.75
837.086	63.66
837.262	-14.17
837.439	57.51
837.616	49.32
837.792	0.17
837.968	55.47
838.145	34.99
838.321	67.75
838.498	51.37
838.674	34.99
838.851	57.51
839.027	133.29
839.203	4.27
839.38	104.62
839.556	-5.97
839.732	32.94
839.909	61.61
840.085	63.66
840.261	61.61
840.437	49.32
840.614	-14.17
840.79	47.27
840.966	96.43
841.142	137.38
841.318	32.94
841.494	104.62
841.671	100.52
841.847	61.61
842.023	34.99
842.199	43.18
842.375	77.99
842.551	22.7
842.727	-5.97
842.903	110.76
843.079	2.22
843.255	41.13
843.431	141.48
843.607	47.27
843.783	-26.45
843.959	28.84
844.134	18.6
844.31	80.04
844.486	34.99
844.662	51.37
844.838	-16.21
845.013	82.09
845.189	22.7
845.365	51.37
845.541	32.94
845.716	14.51
845.892	80.04
846.068	-22.36
846.244	51.37
846.419	65.71
846.595	22.7
846.77	22.7
846.946	67.75
847.122	24.75
847.297	43.18
847.473	80.04
847.648	8.36
847.824	75.95
847.999	-32.6
848.175	47.27
848.35	65.71
848.526	86.19
848.701	51.37
848.876	6.31
849.052	100.52
849.227	106.67
849.403	16.55
849.578	80.04
849.753	73.9
849.929	16.55
850.104	-22.36
850.279	14.51
850.454	53.42
850.63	63.66
850.805	34.99
850.98	82.09
851.155	-14.17
851.33	-18.26
851.505	14.51
851.681	45.23
851.856	24.75
852.031	125.1
852.206	32.94
852.381	39.08
852.556	-5.97
852.731	16.55
852.906	30.89
853.081	67.75
853.256	92.33
853.431	6.31
853.606	-30.55
853.781	-8.02
853.956	-26.45
854.131	-28.5
854.305	32.94
854.48	75.95
854.655	-18.26
854.83	77.99
855.005	47.27
855.18	-22.36
855.354	51.37
855.529	0.17
855.704	55.47
855.879	108.71
856.053	34.99
856.228	10.41
856.403	-40.79
856.577	4.27
856.752	-8.02
856.926	41.13
857.101	10.41
857.276	22.7
857.45	34.99
857.625	84.14
857.799	-5.97
857.974	22.7
858.148	26.79
858.323	22.7
858.497	12.46
858.672	47.27
858.846	-28.5
859.02	55.47
859.195	65.71
859.369	47.27
859.543	-53.08
859.718	41.13
859.892	-5.97
860.066	-8.02
860.241	-1.88
860.415	39.08
860.589	-30.55
860.763	-14.17
860.938	-16.21
861.112	47.27
861.286	28.84
861.46	47.27
861.634	-12.12
861.808	73.9
861.982	-3.93
862.157	14.51
862.331	-5.97
862.505	4.27
862.679	-10.07
862.853	100.52
863.027	4.27
863.201	80.04
863.375	-22.36
863.549	-8.02
863.722	22.7
863.896	16.55
864.07	8.36
864.244	30.89
864.418	18.6
864.592	26.79
864.766	123.05
864.939	10.41
865.113	-46.93
865.287	39.08
865.461	-42.84
865.634	30.89
865.808	84.14
865.982	-8.02
866.156	108.71
866.329	-16.21
866.503	22.7
866.676	-32.6
866.85	28.84
867.024	6.31
867.197	-26.45
867.371	69.8
867.544	28.84
867.718	-42.84
867.891	8.36
868.065	59.56
868.238	26.79
868.412	-26.45
868.585	8.36
868.759	-24.4
868.932	22.7
869.105	-24.4
869.279	12.46
869.452	-34.64
869.625	-32.6
869.799	-42.84
869.972	8.36
870.145	59.56
870.319	24.75
870.492	14.51
870.665	-8.02
870.838	-20.31
871.011	-5.97
871.185	47.27
871.358	-12.12
871.531	14.51
871.704	-81.75
871.877	18.6
872.05	55.47
872.223	0.17
872.396	12.46
872.569	67.75
872.742	-67.41
872.915	65.71
873.088	14.51
873.261	16.55
873.434	22.7
873.607	22.7
873.78	45.23
873.953	-20.31
874.126	55.47
874.299	37.03
874.471	-22.36
874.644	-10.07
874.817	20.65
874.99	18.6
875.163	16.55
875.335	-1.88
875.508	47.27
875.681	-83.8
875.853	-59.22
876.026	24.75
876.199	32.94
876.371	-8.02
876.544	-55.12
876.717	-38.74
876.889	39.08
877.062	104.62
877.234	-32.6
877.407	8.36
877.579	14.51
877.752	-30.55
877.924	22.7
878.097	-12.12
878.269	0.17
878.442	49.32
878.614	67.75
878.786	49.32
878.959	-48.98
879.131	39.08
879.303	16.55
879.476	8.36
879.648	80.04
879.82	-8.02
879.993	39.08
880.165	2.22
880.337	-42.84
880.509	88.23
880.681	-24.4
880.854	77.99
881.026	39.08
881.198	16.55
881.37	-1.88
881.542	-18.26
881.714	-26.45
881.886	24.75
882.058	-14.17
882.23	32.94
882.402	-14.17
882.574	0.17
882.746	51.37
882.918	-81.75
883.09	-5.97
883.262	26.79
883.434	-1.88
883.606	45.23
883.778	63.66
883.95	6.31
884.122	-10.07
884.293	-34.64
884.465	0.17
884.637	16.55
884.809	88.23
884.98	22.7
885.152	16.55
885.324	77.99
885.496	4.27
885.667	-16.21
885.839	22.7
886.011	61.61
886.182	80.04
886.354	-42.84
886.525	88.23
886.697	53.42
886.869	-28.5
887.04	26.79
887.212	-18.26
887.383	14.51
887.555	30.89
887.726	-18.26
887.897	6.31
888.069	55.47
888.24	6.31
888.412	-24.4
888.583	39.08
888.754	-38.74
888.926	26.79
889.097	24.75
889.268	2.22
889.44	-67.41
889.611	-26.45
889.782	43.18
889.953	-34.64
890.125	53.42
890.296	67.75
890.467	-1.88
890.638	-32.6
890.809	-26.45
890.98	-91.99
891.151	22.7
891.323	2.22
891.494	39.08
891.665	41.13
891.836	32.94
892.007	39.08
892.178	-67.41
892.349	-40.79
892.52	-8.02
892.691	16.55
892.862	65.71
893.032	-42.84
893.203	37.03
893.374	34.99
893.545	39.08
893.716	-28.5
893.887	41.13
894.057	-10.07
894.228	0.17
894.399	-14.17
894.57	6.31
894.74	-22.36
894.911	16.55
895.082	0.17
895.253	0.17
895.423	-20.31
895.594	22.7
895.764	6.31
895.935	63.66
896.106	16.55
896.276	-1.88
896.447	-28.5
896.617	-57.17
896.788	2.22
896.958	-18.26
897.129	8.36
897.299	49.32
897.47	-5.97
897.64	-26.45
897.81	10.41
897.981	51.37
898.151	16.55
898.322	-18.26
898.492	-18.26
898.662	-34.64
898.832	-51.03
899.003	-24.4
899.173	10.41
899.343	-34.64
899.513	-8.02
