Data from USB4F104151__17__14-42-39-008.txt Node

Date: Thu Mar 13 14:42:39 EDT 2025
User: louis
Spectrometer: USB4F10415
Trigger mode: 4
Integration Time (sec): 2.000000E-2
Scans to average: 1
Electric dark correction enabled: true
Nonlinearity correction enabled: false
Boxcar width: 0
XAxis mode: Wavelengths
Number of Pixels in Spectrum: 3648
>>>>>Begin Spectral Data<<<<<
178.204	-140.29
178.424	-140.29
178.644	-140.29
178.864	-166.91
179.084	-101.37
179.304	-25.6
179.524	-44.03
179.744	54.27
179.964	27.65
180.184	-11.26
180.404	29.7
180.624	-19.46
180.844	19.46
181.064	-37.89
181.283	-19.46
181.503	27.65
181.723	-1.02
181.943	-25.6
182.163	13.31
182.383	-27.65
182.602	29.7
182.822	62.46
183.042	68.61
183.262	52.22
183.482	19.46
183.701	97.28
183.921	27.65
184.141	15.36
184.361	15.36
184.58	17.41
184.8	52.22
185.02	11.26
185.239	44.03
185.459	82.94
185.679	150.53
185.898	-29.7
186.118	60.42
186.338	27.65
186.557	-21.5
186.777	-50.18
186.997	-3.07
187.216	-11.26
187.436	80.89
187.655	74.75
187.875	23.55
188.095	27.65
188.314	93.18
188.534	-1.02
188.753	46.08
188.973	44.03
189.192	76.8
189.412	27.65
189.631	87.04
189.851	37.89
190.07	37.89
190.29	27.65
190.509	44.03
190.729	-3.07
190.948	33.79
191.168	109.57
191.387	95.23
191.607	54.27
191.826	46.08
192.045	-5.12
192.265	-62.46
192.484	15.36
192.704	62.46
192.923	56.32
193.142	113.66
193.362	35.84
193.581	95.23
193.8	56.32
194.02	60.42
194.239	105.47
194.458	39.94
194.678	19.46
194.897	48.13
195.116	-68.61
195.335	128
195.555	-1.02
195.774	84.99
195.993	21.5
196.212	-37.89
196.432	21.5
196.651	44.03
196.87	13.31
197.089	62.46
197.308	150.53
197.528	109.57
197.747	11.26
197.966	-3.07
198.185	48.13
198.404	-7.17
198.623	29.7
198.842	31.74
199.062	93.18
199.281	76.8
199.5	31.74
199.719	23.55
199.938	76.8
200.157	33.79
200.376	60.42
200.595	27.65
200.814	19.46
201.033	44.03
201.252	-1.02
201.471	44.03
201.69	80.89
201.909	-17.41
202.128	64.51
202.347	68.61
202.566	23.55
202.785	-3.07
203.004	3.07
203.223	80.89
203.442	64.51
203.661	35.84
203.879	-3.07
204.098	-5.12
204.317	-13.31
204.536	25.6
204.755	31.74
204.974	84.99
205.193	27.65
205.411	101.37
205.63	31.74
205.849	44.03
206.068	-70.65
206.287	35.84
206.505	44.03
206.724	-3.07
206.943	-46.08
207.162	-13.31
207.381	-19.46
207.599	21.5
207.818	-56.32
208.037	-44.03
208.255	3.07
208.474	54.27
208.693	78.85
208.911	3.07
209.13	68.61
209.349	78.85
209.567	-13.31
209.786	-9.22
210.005	58.37
210.223	-21.5
210.442	-91.13
210.661	-5.12
210.879	11.26
211.098	21.5
211.316	44.03
211.535	64.51
211.753	35.84
211.972	60.42
212.191	-29.7
212.409	-15.36
212.628	33.79
212.846	35.84
213.065	58.37
213.283	62.46
213.502	46.08
213.72	80.89
213.938	21.5
214.157	68.61
214.375	9.22
214.594	-37.89
214.812	3.07
215.031	48.13
215.249	48.13
215.467	-37.89
215.686	-25.6
215.904	48.13
216.122	101.37
216.341	84.99
216.559	115.71
216.778	60.42
216.996	101.37
217.214	-46.08
217.432	76.8
217.651	5.12
217.869	-1.02
218.087	66.56
218.306	7.17
218.524	31.74
218.742	-17.41
218.96	46.08
219.179	-29.7
219.397	21.5
219.615	46.08
219.833	-17.41
220.051	9.22
220.27	5.12
220.488	76.8
220.706	62.46
220.924	-41.98
221.142	3.07
221.36	68.61
221.578	5.12
221.796	78.85
222.015	-21.5
222.233	70.65
222.451	125.95
222.669	-17.41
222.887	19.46
223.105	5.12
223.323	3.07
223.541	19.46
223.759	31.74
223.977	-5.12
224.195	103.42
224.413	60.42
224.631	72.7
224.849	101.37
225.067	101.37
225.285	31.74
225.503	46.08
225.721	-29.7
225.939	-27.65
226.157	-31.74
226.375	97.28
226.592	-62.46
226.81	-15.36
227.028	35.84
227.246	93.18
227.464	70.65
227.682	44.03
227.9	58.37
228.117	56.32
228.335	19.46
228.553	60.42
228.771	13.31
228.989	60.42
229.206	115.71
229.424	52.22
229.642	19.46
229.86	-1.02
230.077	91.13
230.295	52.22
230.513	54.27
230.731	37.89
230.948	52.22
231.166	35.84
231.384	-33.79
231.601	-29.7
231.819	101.37
232.037	84.99
232.254	76.8
232.472	19.46
232.689	15.36
232.907	-3.07
233.125	21.5
233.342	-5.12
233.56	68.61
233.777	64.51
233.995	13.31
234.213	52.22
234.43	35.84
234.648	117.76
234.865	25.6
235.083	52.22
235.3	52.22
235.518	19.46
235.735	60.42
235.953	48.13
236.17	52.22
236.388	68.61
236.605	15.36
236.822	-25.6
237.04	-7.17
237.257	54.27
237.475	46.08
237.692	-13.31
237.909	15.36
238.127	-3.07
238.344	101.37
238.562	39.94
238.779	35.84
238.996	25.6
239.214	-13.31
239.431	48.13
239.648	17.41
239.865	60.42
240.083	52.22
240.3	46.08
240.517	-9.22
240.735	-5.12
240.952	56.32
241.169	72.7
241.386	13.31
241.603	19.46
241.821	44.03
242.038	76.8
242.255	29.7
242.472	-62.46
242.689	101.37
242.907	68.61
243.124	-13.31
243.341	87.04
243.558	-5.12
243.775	-23.55
243.992	5.12
244.209	66.56
244.426	56.32
244.643	35.84
244.86	19.46
245.078	35.84
245.295	54.27
245.512	99.33
245.729	-21.5
245.946	48.13
246.163	41.98
246.38	113.66
246.597	89.09
246.814	31.74
247.031	31.74
247.248	3.07
247.464	-41.98
247.681	21.5
247.898	17.41
248.115	60.42
248.332	-17.41
248.549	54.27
248.766	82.94
248.983	56.32
249.2	13.31
249.417	121.85
249.633	15.36
249.85	109.57
250.067	13.31
250.284	44.03
250.501	70.65
250.717	23.55
250.934	-13.31
251.151	-13.31
251.368	-29.7
251.585	60.42
251.801	84.99
252.018	125.95
252.235	60.42
252.451	11.26
252.668	19.46
252.885	125.95
253.102	27.65
253.318	-5.12
253.535	52.22
253.752	31.74
253.968	48.13
254.185	91.13
254.401	29.7
254.618	52.22
254.835	62.46
255.051	48.13
255.268	54.27
255.484	48.13
255.701	37.89
255.917	97.28
256.134	-1.02
256.351	31.74
256.567	31.74
256.784	15.36
257	9.22
257.217	52.22
257.433	82.94
257.65	48.13
257.866	44.03
258.082	-7.17
258.299	48.13
258.515	-21.5
258.732	7.17
258.948	19.46
259.165	70.65
259.381	29.7
259.597	15.36
259.814	27.65
260.03	62.46
260.246	103.42
260.463	15.36
260.679	101.37
260.895	3.07
261.112	-13.31
261.328	25.6
261.544	35.84
261.761	27.65
261.977	-54.27
262.193	-33.79
262.409	13.31
262.626	66.56
262.842	60.42
263.058	64.51
263.274	54.27
263.49	-29.7
263.707	101.37
263.923	13.31
264.139	-76.8
264.355	31.74
264.571	87.04
264.787	84.99
265.004	19.46
265.22	-50.18
265.436	-33.79
265.652	13.31
265.868	76.8
266.084	15.36
266.3	46.08
266.516	-29.7
266.732	-3.07
266.948	35.84
267.164	31.74
267.38	128
267.596	-33.79
267.812	68.61
268.028	60.42
268.244	72.7
268.46	3.07
268.676	31.74
268.892	44.03
269.108	37.89
269.324	5.12
269.54	-25.6
269.756	76.8
269.972	62.46
270.188	29.7
270.403	-15.36
270.619	-5.12
270.835	35.84
271.051	64.51
271.267	23.55
271.483	15.36
271.698	52.22
271.914	52.22
272.13	37.89
272.346	-19.46
272.562	17.41
272.777	93.18
272.993	33.79
273.209	35.84
273.425	44.03
273.64	-27.65
273.856	99.33
274.072	29.7
274.287	56.32
274.503	91.13
274.719	64.51
274.934	48.13
275.15	11.26
275.366	-19.46
275.581	58.37
275.797	19.46
276.012	21.5
276.228	-25.6
276.444	54.27
276.659	56.32
276.875	27.65
277.09	5.12
277.306	64.51
277.521	27.65
277.737	-33.79
277.952	21.5
278.168	48.13
278.383	44.03
278.599	56.32
278.814	-3.07
279.03	-9.22
279.245	27.65
279.461	37.89
279.676	84.99
279.892	3.07
280.107	35.84
280.322	-5.12
280.538	-3.07
280.753	15.36
280.969	21.5
281.184	52.22
281.399	113.66
281.615	111.61
281.83	13.31
282.045	3.07
282.26	-46.08
282.476	-50.18
282.691	76.8
282.906	44.03
283.122	84.99
283.337	1.02
283.552	23.55
283.767	-13.31
283.983	134.14
284.198	-25.6
284.413	21.5
284.628	23.55
284.843	62.46
285.058	60.42
285.274	-3.07
285.489	19.46
285.704	13.31
285.919	11.26
286.134	-35.84
286.349	-3.07
286.564	35.84
286.779	-23.55
286.995	5.12
287.21	-9.22
287.425	54.27
287.64	-33.79
287.855	7.17
288.07	-21.5
288.285	93.18
288.5	76.8
288.715	109.57
288.93	76.8
289.145	60.42
289.36	99.33
289.575	52.22
289.79	72.7
290.004	29.7
290.219	95.23
290.434	-11.26
290.649	-9.22
290.864	54.27
291.079	27.65
291.294	13.31
291.509	15.36
291.724	44.03
291.938	-19.46
292.153	27.65
292.368	64.51
292.583	46.08
292.798	11.26
293.012	52.22
293.227	31.74
293.442	-11.26
293.657	82.94
293.871	-3.07
294.086	-15.36
294.301	19.46
294.516	13.31
294.73	44.03
294.945	-3.07
295.16	-35.84
295.374	35.84
295.589	62.46
295.804	31.74
296.018	17.41
296.233	113.66
296.447	103.42
296.662	27.65
296.877	44.03
297.091	64.51
297.306	52.22
297.52	23.55
297.735	68.61
297.949	21.5
298.164	-13.31
298.378	-5.12
298.593	64.51
298.807	-3.07
299.022	56.32
299.236	-25.6
299.451	78.85
299.665	-1.02
299.88	19.46
300.094	48.13
300.309	19.46
300.523	76.8
300.737	27.65
300.952	-19.46
301.166	103.42
301.381	11.26
301.595	52.22
301.809	56.32
302.024	-31.74
302.238	21.5
302.452	39.94
302.667	23.55
302.881	21.5
303.095	74.75
303.309	97.28
303.524	25.6
303.738	21.5
303.952	-21.5
304.166	105.47
304.381	-3.07
304.595	84.99
304.809	-17.41
305.023	68.61
305.237	68.61
305.452	-5.12
305.666	-9.22
305.88	111.61
306.094	95.23
306.308	35.84
306.522	-37.89
306.736	17.41
306.95	52.22
307.164	-1.02
307.379	60.42
307.593	154.62
307.807	52.22
308.021	109.57
308.235	64.51
308.449	-25.6
308.663	39.94
308.877	158.72
309.091	-17.41
309.305	48.13
309.519	-54.27
309.733	76.8
309.947	-21.5
310.161	46.08
310.374	54.27
310.588	60.42
310.802	29.7
311.016	44.03
311.23	91.13
311.444	76.8
311.658	7.17
311.872	56.32
312.085	15.36
312.299	142.33
312.513	17.41
312.727	39.94
312.941	15.36
313.154	54.27
313.368	11.26
313.582	21.5
313.796	27.65
314.009	95.23
314.223	91.13
314.437	84.99
314.651	70.65
314.864	95.23
315.078	-11.26
315.292	37.89
315.505	74.75
315.719	62.46
315.933	39.94
316.146	13.31
316.36	60.42
316.573	78.85
316.787	70.65
317.001	56.32
317.214	-25.6
317.428	76.8
317.641	5.12
317.855	19.46
318.068	1.02
318.282	7.17
318.495	93.18
318.709	130.05
318.922	-54.27
319.136	115.71
319.349	60.42
319.563	80.89
319.776	-5.12
319.99	-27.65
320.203	46.08
320.417	37.89
320.63	35.84
320.843	56.32
321.057	3.07
321.27	130.05
321.483	37.89
321.697	17.41
321.91	74.75
322.124	60.42
322.337	80.89
322.55	-3.07
322.763	23.55
322.977	25.6
323.19	-7.17
323.403	-13.31
323.617	11.26
323.83	-29.7
324.043	-29.7
324.256	54.27
324.469	-3.07
324.683	84.99
324.896	84.99
325.109	70.65
325.322	19.46
325.535	70.65
325.748	80.89
325.962	19.46
326.175	27.65
326.388	117.76
326.601	66.56
326.814	27.65
327.027	25.6
327.24	91.13
327.453	-7.17
327.666	87.04
327.879	27.65
328.092	44.03
328.305	41.98
328.518	-46.08
328.731	29.7
328.944	68.61
329.157	9.22
329.37	80.89
329.583	48.13
329.796	74.75
330.009	-17.41
330.222	44.03
330.435	70.65
330.648	44.03
330.861	60.42
331.073	27.65
331.286	99.33
331.499	-13.31
331.712	-27.65
331.925	-39.94
332.138	60.42
332.35	60.42
332.563	15.36
332.776	109.57
332.989	134.14
333.202	60.42
333.414	13.31
333.627	70.65
333.84	84.99
334.053	60.42
334.265	44.03
334.478	76.8
334.691	11.26
334.903	93.18
335.116	9.22
335.329	46.08
335.541	72.7
335.754	97.28
335.966	84.99
336.179	142.33
336.392	48.13
336.604	3.07
336.817	27.65
337.029	80.89
337.242	35.84
337.454	99.33
337.667	35.84
337.88	35.84
338.092	19.46
338.305	80.89
338.517	39.94
338.729	64.51
338.942	48.13
339.154	19.46
339.367	27.65
339.579	109.57
339.792	44.03
340.004	35.84
340.217	136.19
340.429	-46.08
340.641	76.8
340.854	68.61
341.066	5.12
341.278	52.22
341.491	62.46
341.703	35.84
341.915	-54.27
342.128	72.7
342.34	89.09
342.552	37.89
342.764	46.08
342.977	27.65
343.189	46.08
343.401	89.09
343.613	-3.07
343.826	84.99
344.038	33.79
344.25	89.09
344.462	23.55
344.674	60.42
344.886	44.03
345.099	13.31
345.311	95.23
345.523	-3.07
345.735	35.84
345.947	103.42
346.159	66.56
346.371	52.22
346.583	35.84
346.795	80.89
347.007	80.89
347.219	82.94
347.431	46.08
347.643	37.89
347.855	48.13
348.067	64.51
348.279	70.65
348.491	60.42
348.703	-7.17
348.915	37.89
349.127	62.46
349.339	60.42
349.551	44.03
349.763	5.12
349.975	54.27
350.187	125.95
350.399	3.07
350.61	136.19
350.822	64.51
351.034	9.22
351.246	11.26
351.458	35.84
351.669	35.84
351.881	84.99
352.093	-21.5
352.305	138.24
352.517	35.84
352.728	76.8
352.94	27.65
353.152	101.37
353.363	-52.22
353.575	35.84
353.787	33.79
353.999	80.89
354.21	121.85
354.422	60.42
354.633	13.31
354.845	11.26
355.057	39.94
355.268	62.46
355.48	25.6
355.692	3.07
355.903	29.7
356.115	5.12
356.326	-1.02
356.538	134.14
356.749	48.13
356.961	44.03
357.172	15.36
357.384	82.94
357.595	111.61
357.807	76.8
358.018	31.74
358.23	-3.07
358.441	78.85
358.653	68.61
358.864	80.89
359.075	78.85
359.287	-5.12
359.498	27.65
359.709	66.56
359.921	93.18
360.132	35.84
360.344	62.46
360.555	50.18
360.766	-37.89
360.977	50.18
361.189	17.41
361.4	46.08
361.611	5.12
361.823	144.38
362.034	5.12
362.245	-25.6
362.456	89.09
362.667	54.27
362.879	82.94
363.09	44.03
363.301	-1.02
363.512	-46.08
363.723	37.89
363.935	-37.89
364.146	52.22
364.357	44.03
364.568	19.46
364.779	52.22
364.99	97.28
365.201	31.74
365.412	31.74
365.623	13.31
365.834	99.33
366.045	64.51
366.256	87.04
366.467	121.85
366.678	68.61
366.889	39.94
367.1	-21.5
367.311	31.74
367.522	9.22
367.733	121.85
367.944	5.12
368.155	121.85
368.366	62.46
368.577	44.03
368.788	84.99
368.999	27.65
369.209	56.32
369.42	70.65
369.631	15.36
369.842	72.7
370.053	54.27
370.264	35.84
370.474	3.07
370.685	144.38
370.896	39.94
371.107	-7.17
371.317	58.37
371.528	29.7
371.739	68.61
371.95	33.79
372.16	7.17
372.371	7.17
372.582	87.04
372.792	52.22
373.003	93.18
373.214	44.03
373.424	103.42
373.635	11.26
373.846	168.96
374.056	76.8
374.267	60.42
374.477	27.65
374.688	78.85
374.898	27.65
375.109	93.18
375.319	7.17
375.53	70.65
375.74	-5.12
375.951	23.55
376.161	80.89
376.372	60.42
376.582	-21.5
376.793	84.99
377.003	3.07
377.214	44.03
377.424	68.61
377.635	39.94
377.845	-21.5
378.055	121.85
378.266	-25.6
378.476	68.61
378.686	-29.7
378.897	93.18
379.107	72.7
379.317	52.22
379.528	70.65
379.738	35.84
379.948	60.42
380.158	99.33
380.369	35.84
380.579	97.28
380.789	7.17
380.999	99.33
381.21	60.42
381.42	68.61
381.63	50.18
381.84	109.57
382.05	74.75
382.261	93.18
382.471	80.89
382.681	15.36
382.891	54.27
383.101	3.07
383.311	-7.17
383.521	128
383.731	46.08
383.941	132.09
384.151	76.8
384.361	103.42
384.571	68.61
384.781	31.74
384.991	121.85
385.201	109.57
385.411	52.22
385.621	107.52
385.831	97.28
386.041	7.17
386.251	44.03
386.461	84.99
386.671	50.18
386.881	25.6
387.091	11.26
387.301	39.94
387.511	48.13
387.72	29.7
387.93	68.61
388.14	23.55
388.35	91.13
388.56	119.81
388.769	54.27
388.979	68.61
389.189	-56.32
389.399	56.32
389.609	35.84
389.818	93.18
390.028	-13.31
390.238	142.33
390.447	41.98
390.657	39.94
390.867	64.51
391.076	3.07
391.286	103.42
391.496	89.09
391.705	56.32
391.915	109.57
392.125	15.36
392.334	29.7
392.544	64.51
392.753	66.56
392.963	95.23
393.172	60.42
393.382	46.08
393.591	68.61
393.801	17.41
394.01	60.42
394.22	109.57
394.429	84.99
394.639	97.28
394.848	82.94
395.058	93.18
395.267	84.99
395.477	84.99
395.686	91.13
395.895	121.85
396.105	60.42
396.314	97.28
396.524	125.95
396.733	60.42
396.942	97.28
397.152	113.66
397.361	128
397.57	136.19
397.78	74.75
397.989	52.22
398.198	89.09
398.407	39.94
398.617	125.95
398.826	84.99
399.035	54.27
399.244	113.66
399.453	125.95
399.663	78.85
399.872	109.57
400.081	35.84
400.29	103.42
400.499	109.57
400.708	117.76
400.917	134.14
401.127	68.61
401.336	109.57
401.545	142.33
401.754	117.76
401.963	150.53
402.172	105.47
402.381	64.51
402.59	64.51
402.799	142.33
403.008	142.33
403.217	150.53
403.426	181.25
403.635	48.13
403.844	101.37
404.053	93.18
404.262	117.76
404.471	142.33
404.68	93.18
404.888	130.05
405.097	99.33
405.306	160.77
405.515	99.33
405.724	183.29
405.933	80.89
406.142	162.81
406.35	146.43
406.559	101.37
406.768	179.2
406.977	265.21
407.185	224.25
407.394	177.15
407.603	136.19
407.812	218.11
408.02	183.29
408.229	68.61
408.438	154.62
408.646	191.49
408.855	121.85
409.064	199.68
409.272	181.25
409.481	252.92
409.69	216.06
409.898	207.87
410.107	259.07
410.315	228.35
410.524	269.31
410.733	230.4
410.941	322.56
411.15	283.64
411.358	412.67
411.567	379.9
411.775	314.36
411.984	390.14
412.192	349.18
412.401	285.69
412.609	373.75
412.818	338.94
413.026	330.75
413.234	402.43
413.443	271.36
413.651	377.85
413.86	465.91
414.068	486.39
414.276	472.06
414.485	504.82
414.693	506.87
414.901	543.74
415.11	576.5
415.318	527.35
415.526	527.35
415.734	658.42
415.943	584.7
416.151	650.23
416.359	594.93
416.567	666.61
416.776	646.13
416.984	723.96
417.192	824.31
417.4	709.62
417.608	805.88
417.817	789.49
418.025	904.18
418.233	852.98
418.441	945.14
418.649	941.04
418.857	982
419.065	1018.86
419.273	1053.68
419.481	1010.67
419.689	1070.06
419.897	1121.26
420.105	1215.47
420.313	1240.05
420.521	1223.66
420.729	1264.62
420.937	1362.92
421.145	1289.2
421.353	1414.12
421.561	1487.85
421.769	1463.27
421.977	1577.96
422.185	1522.66
422.393	1709.03
422.601	1774.56
422.809	1856.48
423.017	1817.57
423.224	1817.57
423.432	1940.45
423.64	1934.31
423.848	2161.63
424.056	2061.28
424.263	2175.97
424.471	2227.17
424.679	2229.21
424.887	2444.25
425.094	2436.06
425.302	2419.68
425.51	2569.18
425.718	2692.05
425.925	2665.43
426.133	2788.31
426.341	3009.49
426.548	2958.29
426.756	2980.82
426.964	3177.42
427.171	3189.71
427.379	3242.96
427.586	3460.04
427.794	3599.31
428.001	3642.31
428.209	3838.92
428.417	3685.32
428.624	3994.56
428.832	3886.02
429.039	3963.84
429.247	3976.13
429.454	4377.53
429.662	4500.41
429.869	4262.85
430.076	4574.14
430.284	4402.11
430.491	4705.21
430.699	4950.96
430.906	4936.63
431.114	5002.16
431.321	5188.53
431.528	5360.56
431.736	5655.47
431.943	5860.26
432.15	5653.42
432.358	5690.28
432.565	6005.67
432.772	5927.85
432.979	6181.79
433.187	6534.04
433.394	6570.91
433.601	6982.55
433.808	7084.95
434.016	6826.9
434.223	7170.96
434.43	7809.93
434.637	7539.6
434.844	8090.5
435.052	8172.42
435.259	8092.55
435.466	8268.67
435.673	8055.69
435.88	8661.88
436.087	9194.36
436.294	8840.06
436.501	8823.67
436.708	9042.81
436.915	9366.39
437.122	9632.62
437.329	9671.53
437.537	10324.83
437.743	10296.16
437.95	10120.04
438.157	10873.69
438.364	10902.36
438.571	11203.41
438.778	11209.56
438.985	12135.24
439.192	11709.26
439.399	12274.5
439.606	11709.26
439.813	12290.88
440.02	13151.03
440.227	13011.77
440.433	12806.97
440.64	13259.57
440.847	13331.25
441.054	13376.31
441.261	14410.53
441.467	13951.79
441.674	14285.61
441.881	14986.01
442.088	15065.88
442.294	14977.82
442.501	15317.78
442.708	15639.31
442.914	16059.15
443.121	16829.18
443.328	16184.07
443.534	17539.83
443.741	17206.01
443.948	16812.8
444.154	18086.64
444.361	18111.21
444.568	18307.82
444.774	18186.99
444.981	18303.72
445.187	19098.33
445.394	19684.05
445.6	19507.93
445.807	21162.69
446.013	20499.14
446.22	21058.24
446.426	21623.48
446.633	21822.13
446.839	22780.58
447.046	21840.56
447.252	22911.65
447.459	23169.69
447.665	22872.74
447.871	23765.65
448.078	24677
448.284	24003.22
448.491	24380.04
448.697	25242.24
448.903	25766.52
449.11	25959.03
449.316	25567.87
449.522	25942.64
449.728	26634.86
449.935	27032.16
450.141	26802.79
450.347	27753.05
450.553	26597.99
450.76	27382.37
450.966	27953.75
451.172	28015.19
451.378	28480.08
451.584	27875.93
451.791	28779.08
451.997	28549.71
452.203	29135.43
452.409	29164.1
452.615	29061.7
452.821	27564.64
453.027	27730.52
453.233	29104.71
453.44	27804.25
453.646	28777.03
453.852	28344.91
454.058	28975.69
454.264	27787.86
454.47	28697.16
454.676	27765.34
454.882	28985.93
455.088	26432.11
455.294	26911.33
455.5	27343.45
455.705	27437.66
455.911	26206.83
456.117	25596.54
456.323	25467.52
456.529	24095.38
456.735	25549.43
456.941	24490.63
457.147	24388.24
457.352	23888.53
457.558	23368.35
457.764	23571.1
457.97	23263.9
458.176	22631.08
458.381	22645.41
458.587	21228.22
458.793	21535.42
458.999	20558.53
459.204	21803.7
459.41	21129.92
459.616	20028.11
459.821	19765.97
460.027	19600.08
460.233	19469.01
460.438	18545.38
460.644	18627.3
460.85	17640.18
461.055	17779.44
461.261	17726.19
461.466	16216.84
461.672	15823.63
461.878	17089.28
462.083	15889.17
462.289	15436.56
462.494	15495.96
462.7	14916.38
462.905	14424.87
463.111	14756.64
463.316	15069.98
463.522	14420.77
463.727	14783.26
463.932	14670.62
464.138	14377.76
464.343	14461.73
464.549	14060.33
464.754	14437.16
464.959	14199.59
465.165	14195.5
465.37	13708.08
465.575	13425.46
465.781	13902.64
465.986	14209.83
466.191	13306.68
466.397	13318.96
466.602	12675.9
466.807	13048.63
467.012	13208.37
467.218	12974.91
467.423	12757.82
467.628	13126.46
467.833	13646.64
468.038	12972.86
468.244	12903.23
468.449	13255.48
468.654	12749.63
468.859	12503.87
469.064	12512.07
469.269	12079.94
469.474	12241.73
469.679	12573.5
469.885	12145.48
470.09	12249.93
470.295	12202.82
470.5	11897.67
470.705	12094.28
470.91	11815.76
471.115	11602.77
471.32	11795.28
471.525	11809.61
471.73	11455.31
471.935	11295.57
472.139	11064.15
472.344	11238.23
472.549	11017.05
472.754	10998.62
472.959	10603.36
473.164	10623.84
473.369	10619.74
473.574	10765.15
473.778	10580.83
473.983	10613.6
474.188	10505.06
474.393	10005.35
474.598	10318.69
474.802	9956.2
475.007	9894.76
475.212	9929.58
475.417	9554.8
475.621	9739.12
475.826	9583.47
476.031	9458.54
476.235	9317.23
476.44	9474.93
476.645	9298.8
476.849	9366.39
477.054	9022.33
477.259	9087.86
477.463	9040.76
477.668	8729.47
477.872	8868.73
478.077	8674.17
478.282	8467.33
478.486	8436.61
478.691	8422.27
478.895	8610.68
479.1	8440.7
479.304	8366.98
479.509	8145.8
479.713	8244.1
479.918	8072.07
480.122	7996.29
480.326	8049.54
480.531	8174.47
480.735	8014.73
480.94	7889.8
481.144	8283.01
481.348	7875.46
481.553	7998.34
481.757	7646.09
481.961	7994.25
482.166	8061.83
482.37	7728.01
482.574	7742.35
482.778	7779.21
482.983	7959.43
483.187	7910.28
483.391	7916.42
483.595	7744.39
483.8	7721.87
484.004	7891.85
484.208	7844.74
484.412	7797.64
484.616	7656.33
484.821	7854.98
485.025	7758.73
485.229	7871.37
485.433	7678.86
485.637	8020.87
485.841	7877.51
486.045	7601.04
486.249	7934.85
486.453	7986.05
486.657	7793.55
486.861	7793.55
487.065	7627.66
487.269	7779.21
487.473	7744.39
487.677	7842.7
487.881	7891.85
488.085	7854.98
488.289	7916.42
488.493	8014.73
488.697	7990.15
488.901	7844.74
489.105	7803.78
489.309	7934.85
489.512	8127.36
489.716	7994.25
489.92	8051.59
490.124	7957.38
490.328	8080.26
490.531	8051.59
490.735	8041.35
490.939	8211.33
491.143	8227.71
491.346	8205.19
491.55	8440.7
491.754	8403.84
491.958	8264.58
492.161	8315.78
492.365	8434.56
492.569	8385.41
492.772	8319.87
492.976	8524.67
493.18	8743.8
493.383	8616.83
493.587	8608.64
493.79	8776.57
493.994	8768.38
494.197	8803.19
494.401	8930.17
494.605	8838.01
494.808	8993.65
495.012	9169.78
495.215	9186.16
495.419	9436.02
495.622	9223.03
495.825	9450.35
496.029	9259.89
496.232	9587.57
496.436	9628.53
496.639	9874.28
496.843	9825.13
497.046	10013.54
497.249	10279.78
497.453	9982.82
497.656	10191.72
497.859	10472.29
498.063	10517.34
498.266	10691.42
498.469	10556.25
498.673	10763.1
498.876	10906.46
499.079	11074.39
499.282	11105.11
499.485	11316.05
499.689	11275.09
499.892	11615.05
500.095	11670.35
500.298	11782.99
500.501	11809.61
500.705	12360.52
500.908	12157.77
501.111	12323.65
501.314	12544.83
501.517	12862.27
501.72	13062.97
501.923	12958.52
502.126	13284.15
502.329	13179.7
502.532	13282.1
502.735	13359.92
502.938	13925.16
503.141	13746.99
503.344	14086.95
503.547	14095.14
503.75	14406.44
503.953	14705.44
504.156	14584.61
504.359	15176.47
504.562	14977.82
504.765	15549.2
504.968	15704.85
505.17	15733.52
505.373	15672.08
505.576	15962.89
505.779	16188.17
505.982	16132.87
506.185	16651.01
506.387	16921.34
506.59	16902.91
506.793	16927.49
506.996	17289.98
507.198	17826.54
507.401	17664.75
507.604	18086.64
507.807	18209.51
508.009	18504.42
508.212	18635.49
508.415	18725.6
508.617	18987.74
508.82	18883.3
509.022	19378.9
509.225	19610.32
509.428	19446.49
509.63	20325.07
509.833	20075.21
510.035	20755.14
510.238	20615.88
510.44	20536.01
510.643	21088.96
510.845	21336.76
511.048	21287.61
511.25	21590.71
511.453	21564.09
511.655	22250.16
511.858	22239.92
512.06	22596.26
512.262	22811.3
512.465	22747.81
512.667	23065.25
512.87	23370.4
513.072	23779.99
513.274	23945.87
513.477	24484.49
513.679	24545.93
513.881	24998.53
514.084	25064.07
514.286	24808.07
514.488	25315.97
514.69	26272.37
514.893	26047.09
515.095	25989.75
515.297	26473.07
515.499	26618.47
515.701	26933.86
515.904	27122.27
516.106	27312.74
516.308	27673.18
516.51	27900.5
516.712	28258.9
516.914	28342.86
517.116	28861
517.318	29055.56
517.52	29223.49
517.722	28910.15
517.925	29510.21
518.127	29862.46
518.329	30003.77
518.531	29897.27
518.733	30804.52
518.935	31171.11
519.136	31167.01
519.338	31701.53
519.54	31754.78
519.742	32145.94
519.944	32283.16
520.146	32795.15
520.348	32451.09
520.55	33006.09
520.752	33120.77
520.954	33960.44
521.155	33255.94
521.357	33757.69
521.559	34410.99
521.761	34677.23
521.963	34904.56
522.164	34488.82
522.366	35267.05
522.568	35191.27
522.77	35666.4
522.971	35768.8
523.173	35535.33
523.375	35955.16
523.576	36200.92
523.778	36366.81
523.98	36751.82
524.181	36995.53
524.383	36956.62
524.584	37585.35
524.786	37710.27
524.988	37315.01
525.189	37609.92
525.391	37974.46
525.592	38291.9
525.794	38304.18
525.995	38697.39
526.197	38717.87
526.398	38517.17
526.6	39016.88
526.801	39197.1
527.003	38926.77
527.204	38975.92
527.406	39727.52
527.607	39348.65
527.808	39944.61
528.01	39195.05
528.211	39592.36
528.412	40432.02
528.614	40317.34
528.815	40395.16
529.016	40483.22
529.218	40296.86
529.419	40690.07
529.62	40565.14
529.822	40341.91
530.023	40456.6
530.224	40794.51
530.425	40831.38
530.626	40642.96
530.828	40534.42
531.029	41531.78
531.23	40708.5
531.431	40862.1
531.632	41308.55
531.833	41200.01
532.035	41046.41
532.236	41443.72
532.437	41845.12
532.638	41116.04
532.839	41712
533.04	41353.61
533.241	41488.77
533.442	41748.87
533.643	41351.56
533.844	41472.39
534.045	41730.44
534.246	41445.77
534.447	41859.46
534.648	41306.51
534.849	41644.42
535.05	40841.62
535.251	41935.23
535.451	41539.97
535.652	41724.29
535.853	41779.59
536.054	41763.2
536.255	41884.03
536.456	41558.41
536.657	41884.03
536.857	41578.89
537.058	41290.12
537.259	41746.82
537.46	41533.83
537.66	41886.08
537.861	41570.69
538.062	41671.04
538.263	41853.31
538.463	41279.88
538.664	41566.6
538.865	41888.13
539.065	42201.47
539.266	41560.45
539.466	42058.11
539.667	41263.5
539.868	42072.45
540.068	41779.59
540.269	41683.33
540.469	41746.82
540.67	41697.67
540.87	41288.07
541.071	41750.91
541.271	41884.03
541.472	41879.94
541.672	41642.37
541.873	41689.48
542.073	41206.16
542.274	41972.1
542.474	41564.55
542.675	41326.99
542.875	41720.2
543.075	41652.61
543.276	41290.12
543.476	41935.23
543.676	41304.46
543.877	41679.24
544.077	41650.56
544.277	41673.09
544.478	41343.37
544.678	41466.25
544.878	41200.01
545.078	41468.3
545.279	41517.45
545.479	41499.01
545.679	41722.24
545.879	41173.39
546.079	41795.97
546.28	41349.51
546.48	41666.95
546.68	41417.1
546.88	41341.32
547.08	41449.86
547.28	41345.42
547.48	40780.18
547.68	41380.23
547.88	41056.65
548.081	41705.86
548.281	41449.86
548.481	41634.18
548.681	41683.33
548.881	41011.6
549.081	41609.61
549.28	41173.39
549.48	41734.53
549.68	41492.87
549.88	41585.03
550.08	41154.96
550.28	41324.94
550.48	41138.57
550.68	41439.62
550.88	41136.52
551.08	41535.88
551.279	41283.98
551.479	41408.9
551.679	41236.87
551.879	40823.19
552.079	40980.88
552.278	40862.1
552.478	41202.06
552.678	41101.71
552.878	41707.91
553.077	40821.14
553.277	41042.32
553.477	41523.59
553.676	41265.55
553.876	41056.65
554.076	40843.66
554.275	40706.45
554.475	40393.11
554.674	40796.56
554.874	40642.96
555.074	40655.25
555.273	40812.95
555.473	40925.58
555.672	40634.77
555.872	41083.28
556.071	40735.12
556.271	41030.03
556.47	40550.81
556.67	40251.8
556.869	40575.38
557.068	40436.12
557.268	40372.63
557.467	40616.34
557.667	40432.02
557.866	40835.47
558.065	40436.12
558.265	40128.92
558.464	40542.61
558.663	40591.76
558.863	39741.86
559.062	40208.79
559.261	39874.98
559.461	40253.85
559.66	39682.47
559.859	39719.33
560.058	39616.93
560.258	40047
560.457	39602.6
560.656	40208.79
560.855	39469.48
561.054	39500.2
561.253	39645.6
561.453	39799.2
561.652	39602.6
561.851	40049.05
562.05	39616.93
562.249	39145.9
562.448	39610.79
562.647	39473.57
562.846	39489.96
563.045	39532.96
563.244	38926.77
563.443	39385.51
563.642	38443.45
563.841	39119.28
564.04	38687.15
564.239	39207.34
564.438	38992.3
564.637	38894
564.836	38529.46
565.035	38314.42
565.234	39088.56
565.432	38107.58
565.631	38500.79
565.83	38228.41
566.029	38201.79
566.228	38334.9
566.427	38414.77
566.625	38142.39
566.824	37745.09
567.023	38252.98
567.222	37673.41
567.42	38435.25
567.619	37982.65
567.818	37824.96
568.016	37646.79
568.215	38017.47
568.414	36985.29
568.612	37829.05
568.811	37329.35
569.01	37626.31
569.208	36684.24
569.407	37409.22
569.605	37183.94
569.804	37474.76
570.002	36698.58
570.201	37243.34
570.4	36651.47
570.598	36530.64
570.797	36714.96
570.995	36547.03
571.193	36055.51
571.392	36936.14
571.59	36299.22
571.789	36645.33
571.987	35875.29
572.186	36221.4
572.384	35977.69
572.582	36049.37
572.781	36125.14
572.979	35643.87
573.177	35926.49
573.376	35803.61
573.574	35299.81
573.772	35830.24
573.971	35504.61
574.169	35385.83
574.367	34783.73
574.565	35629.54
574.763	35092.97
574.962	35199.46
575.16	34468.34
575.358	34949.61
575.556	34736.62
575.754	34965.99
575.952	34482.67
576.151	34640.37
576.349	34183.67
576.547	34200.05
576.745	34626.03
576.943	34267.64
577.141	34097.66
577.339	34519.54
577.537	34159.09
577.735	34310.64
577.933	33577.47
578.131	34327.03
578.329	33231.36
578.527	33223.17
578.725	33391.11
578.923	33618.43
579.121	33421.83
579.319	33098.25
579.516	33688.06
579.714	33468.93
579.912	33042.95
580.11	32879.11
580.308	32795.15
580.506	33014.28
580.704	32234
580.901	32680.46
581.099	32770.57
581.297	32410.13
581.495	32258.58
581.692	32922.12
581.89	31891.99
582.088	32209.43
582.285	32158.23
582.483	32410.13
582.681	32221.72
582.878	31967.77
583.076	31760.92
583.274	32039.45
583.471	31582.75
583.669	31547.93
583.866	31296.03
584.064	31574.56
584.262	31101.48
584.459	31455.78
584.657	30962.22
584.854	31586.85
585.052	30681.64
585.249	30788.14
585.447	31152.68
585.644	30566.96
585.841	30847.53
586.039	30892.58
586.236	30138.93
586.434	30241.33
586.631	30138.93
586.828	30272.05
587.026	30341.68
587.223	30192.18
587.42	29977.14
587.618	29882.94
587.815	29831.74
588.012	30048.82
588.21	29692.47
588.407	29813.31
588.604	29581.88
588.801	29205.06
588.999	29360.7
589.196	29463.1
589.393	29094.47
589.59	29274.69
589.787	29303.36
589.984	28748.36
590.182	28588.62
590.379	28996.17
590.576	28492.37
590.773	28703.31
590.97	28826.18
591.167	28736.07
591.364	28148.31
591.561	28152.4
591.758	28078.68
591.955	28195.41
592.152	28238.42
592.349	27851.35
592.546	27988.56
592.743	28011.09
592.94	27636.31
593.137	27920.98
593.334	27646.55
593.531	27423.33
593.727	27478.62
593.924	27513.44
594.121	26974.82
594.318	27425.37
594.515	26948.2
594.712	27279.97
594.908	26968.68
595.105	27175.52
595.302	26511.98
595.499	26890.85
595.696	26344.05
595.892	26432.11
596.089	26526.32
596.286	26331.76
596.482	26409.58
596.679	26479.21
596.876	26110.58
597.072	26323.57
597.269	26014.32
597.466	25950.84
597.662	25821.81
597.859	25883.25
598.055	26131.06
598.252	25592.44
598.448	25610.87
598.645	25965.17
598.841	25279.1
599.038	25719.42
599.234	25473.66
599.431	25277.05
599.627	25027.2
599.824	25248.38
600.02	24930.95
600.217	24861.32
600.413	24861.32
600.609	24455.82
600.806	24644.23
601.002	24857.22
601.198	24246.93
601.395	24308.37
601.591	24537.74
601.787	24472.2
601.984	24382.09
602.18	24271.5
602.376	24099.47
602.572	24210.06
602.769	24392.33
602.965	23704.21
603.161	23866
603.357	23507.61
603.553	23745.17
603.75	23835.28
603.946	23335.58
604.142	23493.27
604.338	23059.1
604.534	23577.24
604.73	22952.61
604.926	23229.09
605.122	23038.62
605.318	23083.68
605.514	23071.39
605.71	22850.21
605.906	22909.6
606.102	22911.65
606.298	22436.52
606.494	22919.84
606.69	22758.05
606.886	22753.96
607.082	22350.51
607.278	22377.13
607.474	22305.45
607.67	22446.76
607.866	22147.76
608.062	22434.47
608.257	22125.23
608.453	22045.36
608.649	22096.56
608.845	21873.33
609.041	21977.78
609.236	21852.85
609.432	21957.3
609.628	21770.93
609.824	21691.06
610.019	21605.05
610.215	21443.26
610.411	21603
610.606	21250.75
610.802	21623.48
610.998	21641.91
611.193	21340.86
611.389	21297.85
611.584	21172.92
611.78	21048
611.976	21580.47
612.171	21121.73
612.367	21093.05
612.562	21017.28
612.758	20718.28
612.953	20581.06
613.149	21195.45
613.344	20763.33
613.539	21267.13
613.735	20902.59
613.93	21045.95
614.126	20779.71
614.321	20669.12
614.517	20783.81
614.712	20441.8
614.907	20716.23
615.103	20562.63
615.298	20302.54
615.493	20525.77
615.688	20097.74
615.884	20302.54
616.079	20130.51
616.274	20687.56
616.47	20472.52
616.665	20169.42
616.86	20095.69
617.055	20038.35
617.25	19686.1
617.445	19886.8
617.641	19722.96
617.836	19731.15
618.031	19663.57
618.226	19831.51
618.421	19544.79
618.616	19716.82
618.811	19337.94
619.006	19655.38
619.201	19012.32
619.396	19376.86
619.591	18985.69
619.786	19296.99
619.981	18842.34
620.176	19004.13
620.371	18739.94
620.566	18934.5
620.761	18635.49
620.956	18615.01
621.151	18555.62
621.346	18238.19
621.541	18109.16
621.735	18410.22
621.93	17949.42
622.125	18043.63
622.32	17758.96
622.515	18006.77
622.709	17797.87
622.904	17808.11
623.099	17535.73
623.294	17638.13
623.488	17558.26
623.683	17263.35
623.878	17304.31
624.072	17304.31
624.267	16790.27
624.462	17044.22
624.656	16913.15
624.851	16759.55
625.046	16669.44
625.24	16472.84
625.435	16603.91
625.629	16405.25
625.824	16470.79
626.018	16397.06
626.213	16055.05
626.407	16069.39
626.602	15837.97
626.796	15704.85
626.991	16010
627.185	15643.41
627.38	15706.9
627.574	15678.22
627.768	15594.26
627.963	15311.64
628.157	15104.79
628.352	15131.42
628.546	15051.55
628.74	15080.22
628.935	14877.47
629.129	14977.82
629.323	14770.97
629.517	14871.33
629.712	14764.83
629.906	14684.96
630.1	14486.31
630.294	14332.71
630.489	14254.89
630.683	14514.98
630.877	13927.21
631.071	14289.7
631.265	14158.63
631.459	13998.89
631.653	13968.17
631.848	13894.44
632.042	13798.19
632.236	13982.51
632.43	13558.58
632.624	13638.45
632.818	13697.84
633.012	13335.35
633.206	13073.21
633.4	13470.51
633.594	13245.24
633.788	13249.33
633.982	13015.87
634.176	13241.14
634.369	13058.87
634.563	12815.16
634.757	13071.16
634.951	12854.08
635.145	12759.87
635.339	12892.99
635.533	12546.88
635.726	12479.3
635.92	12530.5
636.114	12192.58
636.308	12415.81
636.501	12213.06
636.695	12278.6
636.889	12307.27
637.083	12141.38
637.276	11920.2
637.47	12004.17
637.664	11940.68
637.857	11727.69
638.051	11989.83
638.244	11651.92
638.438	11414.35
638.632	11635.53
638.825	11604.81
639.019	11514.7
639.212	11305.81
639.406	11307.86
639.599	11367.25
639.793	11391.83
639.986	10939.23
640.18	11121.49
640.373	10922.84
640.567	10828.63
640.76	10916.7
640.954	10857.31
641.147	10595.17
641.34	10775.39
641.534	10582.88
641.727	10787.68
641.92	10486.62
642.114	10623.84
642.307	10326.88
642.5	10281.83
642.694	10218.34
642.887	10120.04
643.08	10210.15
643.273	10031.97
643.467	10038.12
643.66	9821.03
643.853	9751.4
644.046	9759.6
644.239	9921.38
644.432	9726.83
644.626	9673.58
644.819	9773.93
645.012	9468.78
645.205	9436.02
645.398	9472.88
645.591	9507.69
645.784	9454.45
645.977	9188.21
646.17	9350
646.363	9188.21
646.556	9044.85
646.749	9036.66
646.942	9022.33
647.135	8817.53
647.328	8915.83
647.521	8833.91
647.714	8786.81
647.907	8846.2
648.099	8807.29
648.292	8838.01
648.485	8567.68
648.678	8571.77
648.871	8483.71
649.064	8665.98
649.256	8590.2
649.449	8403.84
649.642	8426.37
649.835	8332.16
650.027	8334.21
650.22	8047.49
650.413	8274.82
650.605	8115.08
650.798	8080.26
650.991	8010.63
651.183	8010.63
651.376	8022.92
651.568	8000.39
651.761	7670.67
651.954	7924.62
652.146	7805.83
652.339	7656.33
652.531	7621.52
652.724	7625.61
652.916	7539.6
653.109	7297.94
653.301	7486.35
653.494	7519.12
653.686	7291.79
653.879	7566.22
654.071	7287.7
654.263	7162.77
654.456	7377.81
654.648	7279.5
654.84	7310.22
655.033	7150.48
655.225	7072.66
655.417	7035.8
655.61	7154.58
655.802	7048.08
655.994	6777.75
656.186	6966.17
656.379	6796.18
656.571	6699.93
656.763	6704.03
656.955	6693.79
657.148	6630.3
657.34	6501.28
657.532	6613.92
657.724	6671.26
657.916	6441.89
658.108	6542.24
658.3	6325.15
658.492	6382.49
658.684	6450.08
658.876	6245.28
659.068	6345.63
659.26	6167.46
659.452	6144.93
659.644	6298.53
659.836	6067.11
660.028	6099.87
660.22	5944.23
660.412	5886.89
660.604	5966.76
660.796	5815.21
660.988	5942.18
661.18	5909.41
661.372	5673.9
661.563	5761.96
661.755	5684.14
661.947	5684.14
662.139	5610.41
662.331	5647.27
662.522	5655.47
662.714	5501.87
662.906	5505.96
663.097	5352.37
663.289	5440.43
663.481	5280.69
663.673	5346.22
663.864	5499.82
664.056	5352.37
664.247	5288.88
664.439	5209.01
664.631	5262.26
664.822	5016.5
665.014	5305.26
665.205	5184.43
665.397	5157.81
665.588	5106.61
665.78	4940.72
665.971	4844.47
666.163	4815.8
666.354	4887.48
666.546	5049.27
666.737	4643.77
666.929	4649.91
667.12	4883.38
667.311	4666.3
667.503	4641.72
667.694	4705.21
667.885	4649.91
668.077	4797.37
668.268	4600.76
668.459	4615.1
668.651	4559.8
668.842	4391.87
669.033	4385.73
669.224	4467.64
669.416	4592.57
669.607	4533.18
669.798	4385.73
669.989	4473.79
670.18	4441.02
670.371	4436.92
670.563	4273.09
670.754	4246.46
670.945	4264.89
671.136	4225.98
671.327	4189.12
671.518	4320.19
671.709	4260.8
671.9	4303.81
672.091	4197.31
672.282	4012.99
672.473	4062.15
672.664	4115.39
672.855	4131.78
673.046	4174.78
673.237	4086.72
673.428	4076.48
673.619	4150.21
673.809	4066.24
674	3947.46
674.191	4004.8
674.382	3820.49
674.573	3933.12
674.764	3802.05
674.954	3918.79
675.145	3800.01
675.336	3855.3
675.527	3808.2
675.717	3804.1
675.908	3836.87
676.099	3670.98
676.289	3771.33
676.48	3730.38
676.671	3707.85
676.861	3730.38
677.052	3664.84
677.243	3644.36
677.433	3707.85
677.624	3681.22
677.814	3648.46
678.005	3548.11
678.195	3593.16
678.386	3505.1
678.576	3537.87
678.767	3521.48
678.957	3447.76
679.148	3691.46
679.338	3615.69
679.529	3501
679.719	3638.22
679.909	3513.29
680.1	3615.69
680.29	3648.46
680.481	3419.08
680.671	3462.09
680.861	3320.78
681.052	3445.71
681.242	3486.67
681.432	3474.38
681.622	3517.39
681.813	3517.39
682.003	3408.84
682.193	3560.39
682.383	3388.36
682.573	3507.15
682.764	3451.85
682.954	3410.89
683.144	3484.62
683.334	3371.98
683.524	3161.04
683.714	3328.97
683.904	3308.49
684.094	3398.6
684.284	3412.94
684.474	3328.97
684.664	3328.97
684.854	3288.01
685.044	3228.62
685.234	3204.05
685.424	3206.1
685.614	3240.91
685.804	3169.23
685.994	3115.98
686.184	3343.31
686.374	3312.59
686.564	3140.56
686.753	3060.69
686.943	3163.09
687.133	3195.86
687.323	3075.03
687.513	3130.32
687.702	3259.34
687.892	3118.03
688.082	3103.7
688.272	3290.06
688.461	3165.14
688.651	3142.61
688.841	3167.18
689.03	3281.87
689.22	3138.51
689.41	3015.63
689.599	3130.32
689.789	2962.39
689.979	3091.41
690.168	3044.31
690.358	3029.97
690.547	2956.24
690.737	3011.54
690.926	3068.88
691.116	2984.91
691.305	3107.79
691.495	3017.68
691.684	2872.28
691.874	3038.16
692.063	2976.72
692.252	2927.57
692.442	2943.96
692.631	2878.42
692.82	2862.04
693.01	2853.84
693.199	2986.96
693.388	2950.1
693.578	2943.96
693.767	2851.8
693.956	2857.94
694.146	2884.56
694.335	2898.9
694.524	2784.21
694.713	2952.15
694.902	2896.85
695.092	2823.12
695.281	2726.87
695.47	2765.78
695.659	2782.17
695.848	2651.1
696.037	2876.37
696.226	2763.73
696.415	2919.38
696.604	2866.13
696.793	2819.03
696.982	2780.12
697.171	2786.26
697.36	2730.97
697.549	2647
697.738	2796.5
697.927	2612.18
698.116	2644.95
698.305	2741.21
698.494	2720.73
698.683	2753.49
698.872	2802.65
699.061	2601.94
699.25	2653.14
699.438	2690.01
699.627	2673.62
699.816	2718.68
700.005	2548.7
700.193	2657.24
700.382	2632.66
700.571	2669.53
700.76	2642.9
700.948	2579.42
701.137	2552.79
701.326	2599.9
701.514	2595.8
701.703	2542.55
701.892	2569.18
702.08	2601.94
702.269	2599.9
702.457	2628.57
702.646	2595.8
702.834	2489.31
703.023	2591.7
703.212	2534.36
703.4	2354.14
703.589	2560.98
703.777	2436.06
703.965	2411.48
704.154	2401.24
704.342	2427.87
704.531	2409.44
704.719	2319.32
704.907	2460.63
705.096	2481.11
705.284	2415.58
705.472	2364.38
705.661	2407.39
705.849	2378.72
706.037	2337.76
706.226	2380.76
706.414	2395.1
706.602	2378.72
706.79	2403.29
706.979	2307.04
707.167	2481.11
707.355	2378.72
707.543	2431.96
707.731	2425.82
707.919	2354.14
708.107	2280.41
708.296	2470.87
708.484	2284.51
708.672	2378.72
708.86	2264.03
709.048	2425.82
709.236	2319.32
709.424	2517.98
709.612	2307.04
709.8	2249.69
709.988	2241.5
710.176	2145.25
710.364	2255.84
710.551	2313.18
710.739	2157.54
710.927	2214.88
711.115	2388.96
711.303	2249.69
711.491	2249.69
711.679	2214.88
711.866	2313.18
712.054	2208.73
712.242	2141.15
712.43	2079.71
712.617	2223.07
712.805	2143.2
712.993	2069.47
713.181	2085.86
713.368	2264.03
713.556	2116.58
713.744	2128.86
713.931	2165.73
714.119	2167.77
714.306	2108.38
714.494	2186.21
714.682	2171.87
714.869	2157.54
715.057	2044.9
715.244	2165.73
715.432	2073.57
715.619	2159.58
715.807	2110.43
715.994	2046.94
716.182	2087.9
716.369	2137.06
716.556	2042.85
716.744	2159.58
716.931	2003.94
717.119	2192.35
717.306	2149.34
717.493	2098.14
717.681	2077.66
717.868	2014.18
718.055	1962.98
718.242	1969.12
718.43	2048.99
718.617	2001.89
718.804	2022.37
718.991	2032.61
719.179	2106.34
719.366	2051.04
719.553	1985.51
719.74	2005.99
719.927	1899.49
720.114	1958.88
720.301	2026.47
720.488	1971.17
720.676	2010.08
720.863	2036.7
721.05	1987.55
721.237	1952.74
721.424	1985.51
721.611	1977.31
721.798	1965.03
721.985	1797.09
722.172	1809.38
722.358	1870.82
722.545	1862.63
722.732	1979.36
722.919	1907.68
723.106	1915.87
723.293	2089.95
723.48	1829.86
723.667	1913.83
723.853	1930.21
724.04	1911.78
724.227	1960.93
724.414	1821.67
724.6	1840.1
724.787	1948.64
724.974	1930.21
725.161	1817.57
725.347	1790.95
725.534	1815.52
725.72	1797.09
725.907	1905.63
726.094	1813.48
726.28	1821.67
726.467	1747.94
726.653	1752.04
726.84	1782.76
727.027	1809.38
727.213	1702.89
727.4	1801.19
727.586	1778.66
727.773	1854.44
727.959	1903.59
728.145	1709.03
728.332	1842.15
728.518	1815.52
728.705	1715.17
728.891	1780.71
729.077	1768.42
729.264	1657.83
729.45	1772.52
729.636	1887.2
729.823	1674.21
730.009	1817.57
730.195	1825.76
730.382	1680.36
730.568	1561.58
730.754	1672.17
730.94	1604.58
731.126	1754.09
731.313	1731.56
731.499	1674.21
731.685	1776.61
731.871	1643.49
732.057	1682.41
732.243	1575.91
732.429	1706.98
732.615	1733.61
732.801	1618.92
732.987	1657.83
733.173	1637.35
733.359	1653.73
733.545	1623.02
733.731	1545.19
733.917	1641.45
734.103	1706.98
734.289	1661.93
734.475	1567.72
734.661	1641.45
734.847	1627.11
735.033	1557.48
735.219	1666.02
735.404	1739.75
735.59	1584.1
735.776	1643.49
735.962	1555.43
736.148	1553.38
736.333	1600.49
736.519	1631.21
736.705	1608.68
736.89	1549.29
737.076	1604.58
737.262	1561.58
737.447	1653.73
737.633	1567.72
737.819	1653.73
738.004	1453.03
738.19	1520.62
738.375	1547.24
738.561	1657.83
738.747	1477.61
738.932	1444.84
739.118	1563.62
739.303	1455.08
739.489	1530.86
739.674	1469.42
739.859	1399.79
740.045	1463.27
740.23	1471.47
740.416	1455.08
740.601	1440.75
740.786	1444.84
740.972	1457.13
741.157	1391.59
741.342	1360.88
741.528	1268.72
741.713	1432.55
741.898	1493.99
742.084	1463.27
742.269	1436.65
742.454	1463.27
742.639	1321.96
742.824	1432.55
743.01	1549.29
743.195	1375.21
743.38	1346.54
743.565	1317.87
743.75	1405.93
743.935	1362.92
744.12	1364.97
744.305	1311.72
744.49	1264.62
744.675	1389.55
744.86	1346.54
745.045	1256.43
745.23	1385.45
745.415	1250.28
745.6	1319.92
745.785	1340.4
745.97	1381.35
746.155	1348.59
746.34	1272.81
746.525	1272.81
746.71	1340.4
746.895	1178.61
747.079	1199.09
747.264	1190.89
747.449	1315.82
747.634	1235.95
747.819	1238
748.003	1252.33
748.188	1215.47
748.373	1190.89
748.557	1266.67
748.742	1176.56
748.927	1192.94
749.111	1227.76
749.296	1174.51
749.481	1131.5
749.665	1184.75
749.85	1117.17
750.034	1172.46
750.219	1192.94
750.404	1100.78
750.588	1076.21
750.773	1068.02
750.957	1053.68
751.141	1156.08
751.326	1100.78
751.51	1065.97
751.695	1076.21
751.879	1061.87
752.064	1151.98
752.248	1035.25
752.432	1068.02
752.617	1059.82
752.801	986.1
752.985	953.33
753.17	1104.88
753.354	1027.06
753.538	1084.4
753.722	895.99
753.907	879.6
754.091	908.27
754.275	938.99
754.459	928.75
754.643	936.95
754.828	988.14
755.012	955.38
755.196	912.37
755.38	898.03
755.564	920.56
755.748	938.99
755.932	969.71
756.116	994.29
756.3	818.16
756.484	867.31
756.668	914.42
756.852	826.36
757.036	855.03
757.22	871.41
757.404	793.59
757.588	967.67
757.772	793.59
757.956	887.79
758.14	895.99
758.323	793.59
758.507	883.7
758.691	732.15
758.875	832.5
759.059	875.51
759.242	869.36
759.426	898.03
759.61	830.45
759.794	822.26
759.977	830.45
760.161	914.42
760.345	812.02
760.528	728.05
760.712	781.3
760.895	801.78
761.079	715.77
761.263	783.35
761.446	779.25
761.63	693.24
761.813	766.96
761.997	674.81
762.18	717.81
762.364	676.85
762.547	619.51
762.731	728.05
762.914	668.66
763.098	685.05
763.281	799.73
763.464	773.11
763.648	738.29
763.831	652.28
764.015	644.09
764.198	795.64
764.381	691.19
764.564	732.15
764.748	834.55
764.931	832.5
765.114	691.19
765.297	709.62
765.481	676.85
765.664	760.82
765.847	621.56
766.03	683
766.213	646.13
766.397	642.04
766.58	631.8
766.763	658.42
766.946	646.13
767.129	678.9
767.312	607.22
767.495	662.52
767.678	674.81
767.861	664.57
768.044	644.09
768.227	590.84
768.41	637.94
768.593	625.65
768.776	642.04
768.959	642.04
769.142	670.71
769.324	642.04
769.507	596.98
769.69	650.23
769.873	566.26
770.056	650.23
770.239	642.04
770.421	592.89
770.604	584.7
770.787	568.31
770.97	621.56
771.152	625.65
771.335	582.65
771.518	588.79
771.7	596.98
771.883	633.85
772.066	582.65
772.248	558.07
772.431	611.32
772.613	482.3
772.796	617.46
772.978	478.2
773.161	586.74
773.343	578.55
773.526	533.5
773.708	513.02
773.891	510.97
774.073	654.33
774.256	504.82
774.438	621.56
774.621	568.31
774.803	564.22
774.985	459.77
775.168	515.06
775.35	500.73
775.532	543.74
775.715	478.2
775.897	576.5
776.079	486.39
776.261	560.12
776.444	570.36
776.626	566.26
776.808	494.58
776.99	470.01
777.173	527.35
777.355	461.82
777.537	433.15
777.719	531.45
777.901	416.76
778.083	496.63
778.265	388.09
778.447	543.74
778.629	453.63
778.811	519.16
778.993	510.97
779.175	510.97
779.357	394.23
779.539	367.61
779.721	461.82
779.903	474.1
780.085	453.63
780.267	535.54
780.449	396.28
780.631	400.38
780.812	609.27
780.994	519.16
781.176	412.67
781.358	355.32
781.54	404.47
781.721	453.63
781.903	373.75
782.085	429.05
782.267	388.09
782.448	445.43
782.63	447.48
782.812	381.95
782.993	375.8
783.175	486.39
783.357	324.6
783.538	355.32
783.72	406.52
783.901	379.9
784.083	447.48
784.264	470.01
784.446	324.6
784.627	338.94
784.809	326.65
784.99	461.82
785.172	308.22
785.353	406.52
785.535	371.71
785.716	414.71
785.897	334.84
786.079	252.92
786.26	375.8
786.441	381.95
786.623	291.84
786.804	310.27
786.985	351.23
787.167	300.03
787.348	312.32
787.529	336.89
787.71	375.8
787.891	267.26
788.073	300.03
788.254	277.5
788.435	347.13
788.616	297.98
788.797	285.69
788.978	267.26
789.159	275.45
789.34	197.63
789.522	254.97
789.703	248.83
789.884	281.6
790.065	338.94
790.246	377.85
790.427	275.45
790.607	199.68
790.788	338.94
790.969	269.31
791.15	269.31
791.331	308.22
791.512	269.31
791.693	199.68
791.874	240.64
792.054	318.46
792.235	297.98
792.416	246.78
792.597	158.72
792.778	224.25
792.958	242.68
793.139	250.88
793.32	308.22
793.5	248.83
793.681	257.02
793.862	248.83
794.042	216.06
794.223	171.01
794.404	224.25
794.584	158.72
794.765	185.34
794.945	214.01
795.126	291.84
795.306	236.54
795.487	183.29
795.667	242.68
795.848	230.4
796.028	250.88
796.209	267.26
796.389	203.77
796.57	285.69
796.75	130.05
796.93	267.26
797.111	242.68
797.291	228.35
797.471	259.07
797.652	265.21
797.832	205.82
798.012	232.44
798.192	236.54
798.373	150.53
798.553	183.29
798.733	209.92
798.913	248.83
799.093	207.87
799.274	211.96
799.454	166.91
799.634	218.11
799.814	216.06
799.994	232.44
800.174	252.92
800.354	105.47
800.534	158.72
800.714	125.95
800.894	142.33
801.074	89.09
801.254	168.96
801.434	230.4
801.614	236.54
801.794	199.68
801.974	707.57
802.154	158.72
802.334	224.25
802.514	128
802.693	175.1
802.873	93.18
803.053	201.72
803.233	203.77
803.413	134.14
803.592	125.95
803.772	130.05
803.952	218.11
804.131	189.44
804.311	136.19
804.491	142.33
804.67	138.24
804.85	113.66
805.03	111.61
805.209	218.11
805.389	195.58
805.568	117.76
805.748	125.95
805.928	168.96
806.107	158.72
806.287	191.49
806.466	138.24
806.646	207.87
806.825	183.29
807.004	144.38
807.184	224.25
807.363	87.04
807.543	162.81
807.722	84.99
807.901	197.63
808.081	175.1
808.26	3.07
808.439	125.95
808.619	171.01
808.798	91.13
808.977	162.81
809.156	166.91
809.336	93.18
809.515	150.53
809.694	132.09
809.873	144.38
810.052	95.23
810.231	146.43
810.411	117.76
810.59	125.95
810.769	134.14
810.948	117.76
811.127	101.37
811.306	54.27
811.485	132.09
811.664	162.81
811.843	177.15
812.022	195.58
812.201	95.23
812.38	144.38
812.559	109.57
812.737	154.62
812.916	95.23
813.095	76.8
813.274	189.44
813.453	121.85
813.632	142.33
813.811	175.1
813.989	58.37
814.168	80.89
814.347	105.47
814.526	68.61
814.704	97.28
814.883	183.29
815.062	105.47
815.24	158.72
815.419	144.38
815.598	179.2
815.776	93.18
815.955	117.76
816.133	68.61
816.312	76.8
816.49	84.99
816.669	97.28
816.847	76.8
817.026	175.1
817.204	134.14
817.383	111.61
817.561	138.24
817.74	95.23
817.918	64.51
818.097	179.2
818.275	72.7
818.453	89.09
818.632	76.8
818.81	138.24
818.988	44.03
819.167	48.13
819.345	105.47
819.523	87.04
819.701	76.8
819.879	166.91
820.058	93.18
820.236	109.57
820.414	101.37
820.592	78.85
820.77	-27.65
820.948	62.46
821.127	70.65
821.305	60.42
821.483	121.85
821.661	187.39
821.839	97.28
822.017	93.18
822.195	64.51
822.373	72.7
822.551	80.89
822.729	119.81
822.907	27.65
823.085	87.04
823.262	15.36
823.44	78.85
823.618	99.33
823.796	117.76
823.974	64.51
824.152	52.22
824.329	93.18
824.507	105.47
824.685	64.51
824.863	103.42
825.04	74.75
825.218	130.05
825.396	109.57
825.574	68.61
825.751	91.13
825.929	35.84
826.107	80.89
826.284	21.5
826.462	97.28
826.639	91.13
826.817	9.22
826.994	3.07
827.172	52.22
827.349	105.47
827.527	109.57
827.704	130.05
827.882	58.37
828.059	111.61
828.237	66.56
828.414	76.8
828.591	41.98
828.769	64.51
828.946	101.37
829.124	146.43
829.301	76.8
829.478	68.61
829.655	105.47
829.833	84.99
830.01	37.89
830.187	72.7
830.364	103.42
830.542	60.42
830.719	-3.07
830.896	101.37
831.073	109.57
831.25	111.61
831.427	78.85
831.604	78.85
831.782	31.74
831.959	62.46
832.136	19.46
832.313	111.61
832.49	95.23
832.667	21.5
832.844	31.74
833.021	15.36
833.198	60.42
833.374	78.85
833.551	87.04
833.728	119.81
833.905	130.05
834.082	-1.02
834.259	74.75
834.436	44.03
834.612	68.61
834.789	21.5
834.966	50.18
835.143	64.51
835.319	9.22
835.496	62.46
835.673	23.55
835.85	80.89
836.026	60.42
836.203	140.29
836.38	93.18
836.556	48.13
836.733	21.5
836.909	109.57
837.086	84.99
837.262	52.22
837.439	29.7
837.616	80.89
837.792	-9.22
837.968	95.23
838.145	-1.02
838.321	33.79
838.498	84.99
838.674	37.89
838.851	78.85
839.027	27.65
839.203	76.8
839.38	19.46
839.556	68.61
839.732	44.03
839.909	78.85
840.085	27.65
840.261	-39.94
840.437	-21.5
840.614	7.17
840.79	-5.12
840.966	109.57
841.142	21.5
841.318	37.89
841.494	76.8
841.671	95.23
841.847	-19.46
842.023	-13.31
842.199	95.23
842.375	93.18
842.551	19.46
842.727	-1.02
842.903	60.42
843.079	-21.5
843.255	62.46
843.431	87.04
843.607	125.95
843.783	-1.02
843.959	62.46
844.134	-5.12
844.31	89.09
844.486	95.23
844.662	48.13
844.838	33.79
845.013	80.89
845.189	60.42
845.365	23.55
845.541	17.41
845.716	128
845.892	52.22
846.068	27.65
846.244	11.26
846.419	60.42
846.595	84.99
846.77	19.46
846.946	76.8
847.122	68.61
847.297	44.03
847.473	64.51
847.648	-25.6
847.824	121.85
847.999	-35.84
848.175	72.7
848.35	7.17
848.526	68.61
848.701	58.37
848.876	68.61
849.052	60.42
849.227	5.12
849.403	19.46
849.578	37.89
849.753	64.51
849.929	87.04
850.104	60.42
850.279	15.36
850.454	103.42
850.63	62.46
850.805	68.61
850.98	52.22
851.155	9.22
851.33	19.46
851.505	-1.02
851.681	68.61
851.856	11.26
852.031	19.46
852.206	3.07
852.381	13.31
852.556	21.5
852.731	39.94
852.906	78.85
853.081	115.71
853.256	35.84
853.431	3.07
853.606	35.84
853.781	27.65
853.956	-21.5
854.131	154.62
854.305	-1.02
854.48	101.37
854.655	-29.7
854.83	-21.5
855.005	3.07
855.18	48.13
855.354	-13.31
855.529	19.46
855.704	48.13
855.879	-29.7
856.053	54.27
856.228	74.75
856.403	27.65
856.577	68.61
856.752	-87.04
856.926	-3.07
857.101	52.22
857.276	-35.84
857.45	39.94
857.625	76.8
857.799	68.61
857.974	72.7
858.148	-13.31
858.323	70.65
858.497	-21.5
858.672	-29.7
858.846	-33.79
859.02	31.74
859.195	-11.26
859.369	46.08
859.543	31.74
859.718	-35.84
859.892	60.42
860.066	54.27
860.241	29.7
860.415	25.6
860.589	17.41
860.763	44.03
860.938	5.12
861.112	31.74
861.286	64.51
861.46	33.79
861.634	-78.85
861.808	15.36
861.982	7.17
862.157	-31.74
862.331	80.89
862.505	-3.07
862.679	46.08
862.853	39.94
863.027	-15.36
863.201	109.57
863.375	64.51
863.549	44.03
863.722	21.5
863.896	3.07
864.07	3.07
864.244	56.32
864.418	60.42
864.592	7.17
864.766	-1.02
864.939	11.26
865.113	15.36
865.287	66.56
865.461	-37.89
865.634	-54.27
865.808	-29.7
865.982	-21.5
866.156	-29.7
866.329	-11.26
866.503	68.61
866.676	29.7
866.85	33.79
867.024	35.84
867.197	13.31
867.371	-21.5
867.544	87.04
867.718	-144.38
867.891	101.37
868.065	46.08
868.238	29.7
868.412	11.26
868.585	29.7
868.759	46.08
868.932	37.89
869.105	44.03
869.279	-5.12
869.452	-37.89
869.625	48.13
869.799	27.65
869.972	-21.5
870.145	-37.89
870.319	64.51
870.492	39.94
870.665	39.94
870.838	60.42
871.011	48.13
871.185	11.26
871.358	-5.12
871.531	52.22
871.704	31.74
871.877	35.84
872.05	-37.89
872.223	-35.84
872.396	37.89
872.569	48.13
872.742	-33.79
872.915	31.74
873.088	-21.5
873.261	-1.02
873.434	109.57
873.607	33.79
873.78	21.5
873.953	-27.65
874.126	99.33
874.299	68.61
874.471	70.65
874.644	-41.98
874.817	23.55
874.99	60.42
875.163	33.79
875.335	-19.46
875.508	27.65
875.681	27.65
875.853	-19.46
876.026	-3.07
876.199	54.27
876.371	41.98
876.544	23.55
876.717	23.55
876.889	-9.22
877.062	-29.7
877.234	11.26
877.407	115.71
877.579	64.51
877.752	-103.42
877.924	23.55
878.097	-13.31
878.269	35.84
878.442	-5.12
878.614	52.22
878.786	-1.02
878.959	48.13
879.131	52.22
879.303	21.5
879.476	5.12
879.648	-19.46
879.82	5.12
879.993	9.22
880.165	-29.7
880.337	-19.46
880.509	13.31
880.681	-21.5
880.854	7.17
881.026	11.26
881.198	48.13
881.37	-37.89
881.542	21.5
881.714	-5.12
881.886	-29.7
882.058	9.22
882.23	27.65
882.402	48.13
882.574	1.02
882.746	48.13
882.918	37.89
883.09	-44.03
883.262	68.61
883.434	21.5
883.606	-17.41
883.778	-31.74
883.95	-62.46
884.122	-23.55
884.293	11.26
884.465	27.65
884.637	48.13
884.809	-37.89
884.98	52.22
885.152	7.17
885.324	-54.27
885.496	-9.22
885.667	21.5
885.839	11.26
886.011	60.42
886.182	25.6
886.354	15.36
886.525	23.55
886.697	60.42
886.869	-13.31
887.04	-29.7
887.212	-19.46
887.383	68.61
887.555	-21.5
887.726	56.32
887.897	29.7
888.069	82.94
888.24	37.89
888.412	11.26
888.583	-1.02
888.754	11.26
888.926	-21.5
889.097	44.03
889.268	-103.42
889.44	82.94
889.611	-84.99
889.782	29.7
889.953	62.46
890.125	52.22
890.296	29.7
890.467	-21.5
890.638	31.74
890.809	21.5
890.98	-46.08
891.151	-1.02
891.323	-13.31
891.494	115.71
891.665	50.18
891.836	-37.89
892.007	-37.89
892.178	105.47
892.349	11.26
892.52	-33.79
892.691	109.57
892.862	35.84
893.032	-19.46
893.203	27.65
893.374	21.5
893.545	46.08
893.716	5.12
893.887	27.65
894.057	48.13
894.228	-23.55
894.399	15.36
894.57	109.57
894.74	-50.18
894.911	-25.6
895.082	-35.84
895.253	35.84
895.423	19.46
895.594	-1.02
895.764	66.56
895.935	17.41
896.106	87.04
896.276	56.32
896.447	25.6
896.617	-27.65
896.788	-1.02
896.958	-5.12
897.129	29.7
897.299	-37.89
897.47	48.13
897.64	-21.5
897.81	3.07
897.981	68.61
898.151	-17.41
898.322	5.12
898.492	29.7
898.662	-70.65
898.832	13.31
899.003	-62.46
899.173	64.51
899.343	-52.22
899.513	-25.6
