Data from USB4F104151__294__14-46-29-493.txt Node

Date: Thu Mar 13 14:46:29 EDT 2025
User: louis
Spectrometer: USB4F10415
Trigger mode: 4
Integration Time (sec): 2.000000E-2
Scans to average: 1
Electric dark correction enabled: true
Nonlinearity correction enabled: false
Boxcar width: 0
XAxis mode: Wavelengths
Number of Pixels in Spectrum: 3648
>>>>>Begin Spectral Data<<<<<
178.204	-105.64
178.424	-105.64
178.644	-105.64
178.864	-115.88
179.084	-83.11
179.304	-7.34
179.524	-46.25
179.744	52.05
179.964	-27.82
180.184	60.24
180.404	4.95
180.624	37.72
180.844	-31.91
181.064	-60.59
181.283	-23.72
181.503	0.85
181.723	41.81
181.943	-68.78
182.163	99.16
182.383	64.34
182.602	140.12
182.822	99.16
183.042	33.62
183.262	45.91
183.482	-9.39
183.701	33.62
183.921	0.85
184.141	-1.19
184.361	29.52
184.58	-52.39
184.8	2.9
185.02	-21.67
185.239	54.1
185.459	43.86
185.679	27.48
185.898	0.85
186.118	-7.34
186.338	-15.53
186.557	17.24
186.777	-7.34
186.997	29.52
187.216	-44.2
187.436	90.96
187.655	13.14
187.875	33.62
188.095	-31.91
188.314	101.2
188.534	27.48
188.753	2.9
188.973	0.85
189.192	-5.29
189.412	-42.15
189.631	111.44
189.851	52.05
190.07	11.09
190.29	-23.72
190.509	-13.48
190.729	9.05
190.948	39.76
191.168	90.96
191.387	25.43
191.607	-7.34
191.826	0.85
192.045	43.86
192.265	2.9
192.484	-19.63
192.704	-23.72
192.923	33.62
193.142	84.82
193.362	70.48
193.581	82.77
193.8	11.09
194.02	41.81
194.239	17.24
194.458	78.68
194.678	47.96
194.897	-5.29
195.116	74.58
195.335	-5.29
195.555	-13.48
195.774	11.09
195.993	27.48
196.212	-70.83
196.432	-15.53
196.651	-74.92
196.87	-21.67
197.089	45.91
197.308	50
197.528	17.24
197.747	-64.68
197.966	-7.34
198.185	29.52
198.404	-25.77
198.623	93.01
198.842	-15.53
199.062	41.81
199.281	13.14
199.5	-29.87
199.719	88.92
199.938	50
200.157	11.09
200.376	25.43
200.595	74.58
200.814	119.64
201.033	0.85
201.252	70.48
201.471	17.24
201.69	-27.82
201.909	17.24
202.128	64.34
202.347	0.85
202.566	-40.11
202.785	11.09
203.004	-40.11
203.223	27.48
203.442	-9.39
203.661	7
203.879	43.86
204.098	41.81
204.317	-19.63
204.536	13.14
204.755	43.86
204.974	-11.43
205.193	-23.72
205.411	64.34
205.63	60.24
205.849	33.62
206.068	11.09
206.287	-15.53
206.505	9.05
206.724	-7.34
206.943	17.24
207.162	-25.77
207.381	29.52
207.599	9.05
207.818	-15.53
208.037	27.48
208.255	0.85
208.474	82.77
208.693	76.63
208.911	-7.34
209.13	-29.87
209.349	2.9
209.567	0.85
209.786	58.2
210.005	33.62
210.223	58.2
210.442	29.52
210.661	56.15
210.879	54.1
211.098	19.29
211.316	27.48
211.535	2.9
211.753	11.09
211.972	0.85
212.191	54.1
212.409	-7.34
212.628	-3.24
212.846	-40.11
213.065	-11.43
213.283	17.24
213.502	25.43
213.72	35.67
213.938	-21.67
214.157	-19.63
214.375	86.87
214.594	-72.87
214.812	0.85
215.031	76.63
215.249	27.48
215.467	58.2
215.686	0.85
215.904	60.24
216.122	105.3
216.341	78.68
216.559	70.48
216.778	68.44
216.996	-13.48
217.214	33.62
217.432	58.2
217.651	-40.11
217.869	-19.63
218.087	11.09
218.306	11.09
218.524	50
218.742	-7.34
218.96	9.05
219.179	-9.39
219.397	9.05
219.615	-5.29
219.833	-7.34
220.051	-15.53
220.27	31.57
220.488	66.39
220.706	29.52
220.924	45.91
221.142	84.82
221.36	60.24
221.578	33.62
221.796	101.2
222.015	11.09
222.233	-11.43
222.451	35.67
222.669	-15.53
222.887	52.05
223.105	-48.3
223.323	-15.53
223.541	21.33
223.759	70.48
223.977	0.85
224.195	41.81
224.413	68.44
224.631	35.67
224.849	37.72
225.067	66.39
225.285	-31.91
225.503	60.24
225.721	-101.55
225.939	-33.96
226.157	-5.29
226.375	99.16
226.592	-48.3
226.81	68.44
227.028	80.72
227.246	56.15
227.464	2.9
227.682	0.85
227.9	45.91
228.117	70.48
228.335	-7.34
228.553	9.05
228.771	19.29
228.989	41.81
229.206	4.95
229.424	0.85
229.642	-13.48
229.86	41.81
230.077	86.87
230.295	33.62
230.513	-7.34
230.731	-11.43
230.948	88.92
231.166	62.29
231.384	17.24
231.601	33.62
231.819	78.68
232.037	-48.3
232.254	11.09
232.472	64.34
232.689	-11.43
232.907	7
233.125	17.24
233.342	45.91
233.56	-3.24
233.777	43.86
233.995	17.24
234.213	84.82
234.43	17.24
234.648	101.2
234.865	35.67
235.083	70.48
235.3	29.52
235.518	27.48
235.735	70.48
235.953	29.52
236.17	-15.53
236.388	29.52
236.605	41.81
236.822	21.33
237.04	37.72
237.257	-17.58
237.475	9.05
237.692	33.62
237.909	35.67
238.127	0.85
238.344	29.52
238.562	-31.91
238.779	37.72
238.996	-79.02
239.214	27.48
239.431	58.2
239.648	2.9
239.865	-15.53
240.083	50
240.3	74.58
240.517	-29.87
240.735	41.81
240.952	11.09
241.169	31.57
241.386	68.44
241.603	78.68
241.821	11.09
242.038	107.35
242.255	-13.48
242.472	-1.19
242.689	84.82
242.907	27.48
243.124	45.91
243.341	74.58
243.558	-15.53
243.775	11.09
243.992	17.24
244.209	11.09
244.426	11.09
244.643	9.05
244.86	-1.19
245.078	-54.44
245.295	50
245.512	19.29
245.729	-48.3
245.946	19.29
246.163	-13.48
246.38	56.15
246.597	70.48
246.814	76.63
247.031	54.1
247.248	35.67
247.464	33.62
247.681	21.33
247.898	33.62
248.115	74.58
248.332	-31.91
248.549	-40.11
248.766	109.4
248.983	11.09
249.2	2.9
249.417	33.62
249.633	-40.11
249.85	-38.06
250.067	19.29
250.284	2.9
250.501	25.43
250.717	60.24
250.934	31.57
251.151	-11.43
251.368	-23.72
251.585	11.09
251.801	-46.25
252.018	-19.63
252.235	19.29
252.451	33.62
252.668	2.9
252.885	25.43
253.102	142.16
253.318	29.52
253.535	54.1
253.752	9.05
253.968	-21.67
254.185	-31.91
254.401	4.95
254.618	66.39
254.835	-3.24
255.051	70.48
255.268	45.91
255.484	50
255.701	60.24
255.917	58.2
256.134	21.33
256.351	11.09
256.567	21.33
256.784	41.81
257	-11.43
257.217	52.05
257.433	68.44
257.65	0.85
257.866	50
258.082	27.48
258.299	9.05
258.515	11.09
258.732	-23.72
258.948	-9.39
259.165	62.29
259.381	50
259.597	-40.11
259.814	35.67
260.03	-40.11
260.246	-15.53
260.463	21.33
260.679	47.96
260.895	29.52
261.112	-19.63
261.328	-36.01
261.544	17.24
261.761	156.5
261.977	52.05
262.193	-27.82
262.409	-27.82
262.626	35.67
262.842	35.67
263.058	-44.2
263.274	68.44
263.49	-46.25
263.707	50
263.923	-31.91
264.139	35.67
264.355	11.09
264.571	93.01
264.787	66.39
265.004	21.33
265.22	82.77
265.436	0.85
265.652	11.09
265.868	35.67
266.084	13.14
266.3	41.81
266.516	-56.49
266.732	60.24
266.948	43.86
267.164	27.48
267.38	113.49
267.596	17.24
267.812	-5.29
268.028	17.24
268.244	-19.63
268.46	17.24
268.676	-9.39
268.892	2.9
269.108	-42.15
269.324	-3.24
269.54	-27.82
269.756	-5.29
269.972	11.09
270.188	-31.91
270.403	45.91
270.619	9.05
270.835	66.39
271.051	-7.34
271.267	2.9
271.483	50
271.698	31.57
271.914	-74.92
272.13	99.16
272.346	4.95
272.562	-5.29
272.777	-9.39
272.993	7
273.209	11.09
273.425	-7.34
273.64	72.53
273.856	7
274.072	-13.48
274.287	-21.67
274.503	35.67
274.719	17.24
274.934	25.43
275.15	-13.48
275.366	60.24
275.581	-93.35
275.797	27.48
276.012	21.33
276.228	-13.48
276.444	115.54
276.659	-7.34
276.875	-62.63
277.09	-31.91
277.306	-21.67
277.521	50
277.737	66.39
277.952	-23.72
278.168	76.63
278.383	11.09
278.599	35.67
278.814	64.34
279.03	-21.67
279.245	2.9
279.461	-9.39
279.676	95.06
279.892	-56.49
280.107	76.63
280.322	19.29
280.538	66.39
280.753	-5.29
280.969	29.52
281.184	-11.43
281.399	50
281.615	68.44
281.83	33.62
282.045	13.14
282.26	-3.24
282.476	13.14
282.691	82.77
282.906	-5.29
283.122	-48.3
283.337	11.09
283.552	9.05
283.767	60.24
283.983	39.76
284.198	33.62
284.413	35.67
284.628	-7.34
284.843	-13.48
285.058	66.39
285.274	25.43
285.489	56.15
285.704	41.81
285.919	43.86
286.134	-11.43
286.349	-11.43
286.564	41.81
286.779	72.53
286.995	35.67
287.21	-48.3
287.425	60.24
287.64	-36.01
287.855	4.95
288.07	-29.87
288.285	43.86
288.5	25.43
288.715	13.14
288.93	107.35
289.145	-56.49
289.36	56.15
289.575	-40.11
289.79	43.86
290.004	-64.68
290.219	82.77
290.434	-5.29
290.649	45.91
290.864	-54.44
291.079	86.87
291.294	19.29
291.509	13.14
291.724	9.05
291.938	47.96
292.153	-31.91
292.368	-27.82
292.583	41.81
292.798	21.33
293.012	-9.39
293.227	-11.43
293.442	25.43
293.657	76.63
293.871	68.44
294.086	29.52
294.301	74.58
294.516	-17.58
294.73	54.1
294.945	23.38
295.16	-21.67
295.374	41.81
295.589	-23.72
295.804	-27.82
296.018	62.29
296.233	82.77
296.447	41.81
296.662	-50.35
296.877	-5.29
297.091	27.48
297.306	17.24
297.52	23.38
297.735	-17.58
297.949	19.29
298.164	43.86
298.378	-23.72
298.593	-5.29
298.807	-15.53
299.022	82.77
299.236	25.43
299.451	62.29
299.665	101.2
299.88	-15.53
300.094	78.68
300.309	43.86
300.523	43.86
300.737	54.1
300.952	0.85
301.166	-1.19
301.381	50
301.595	-23.72
301.809	-15.53
302.024	-31.91
302.238	-5.29
302.452	107.35
302.667	4.95
302.881	68.44
303.095	60.24
303.309	19.29
303.524	19.29
303.738	-29.87
303.952	-15.53
304.166	33.62
304.381	-46.25
304.595	-7.34
304.809	-60.59
305.023	-23.72
305.237	-19.63
305.452	74.58
305.666	17.24
305.88	50
306.094	84.82
306.308	-13.48
306.522	2.9
306.736	-13.48
306.95	27.48
307.164	33.62
307.379	-21.67
307.593	17.24
307.807	39.76
308.021	-40.11
308.235	13.14
308.449	72.53
308.663	21.33
308.877	99.16
309.091	58.2
309.305	43.86
309.519	11.09
309.733	99.16
309.947	2.9
310.161	62.29
310.374	-21.67
310.588	25.43
310.802	-36.01
311.016	-9.39
311.23	9.05
311.444	-31.91
311.658	56.15
311.872	103.25
312.085	37.72
312.299	37.72
312.513	84.82
312.727	99.16
312.941	-29.87
313.154	35.67
313.368	-27.82
313.582	50
313.796	-5.29
314.009	50
314.223	37.72
314.437	93.01
314.651	-40.11
314.864	-23.72
315.078	-56.49
315.292	-64.68
315.505	37.72
315.719	43.86
315.933	4.95
316.146	60.24
316.36	27.48
316.573	47.96
316.787	35.67
317.001	74.58
317.214	31.57
317.428	25.43
317.641	39.76
317.855	17.24
318.068	66.39
318.282	-23.72
318.495	105.3
318.709	101.2
318.922	-7.34
319.136	-5.29
319.349	4.95
319.563	-5.29
319.776	21.33
319.99	17.24
320.203	27.48
320.417	0.85
320.63	35.67
320.843	82.77
321.057	9.05
321.27	27.48
321.483	43.86
321.697	2.9
321.91	50
322.124	33.62
322.337	90.96
322.55	9.05
322.763	11.09
322.977	-36.01
323.19	39.76
323.403	11.09
323.617	31.57
323.83	17.24
324.043	19.29
324.256	-9.39
324.469	17.24
324.683	60.24
324.896	-31.91
325.109	4.95
325.322	0.85
325.535	-11.43
325.748	-27.82
325.962	4.95
326.175	35.67
326.388	17.24
326.601	-9.39
326.814	0.85
327.027	-21.67
327.24	74.58
327.453	19.29
327.666	-64.68
327.879	58.2
328.092	119.64
328.305	52.05
328.518	45.91
328.731	58.2
328.944	33.62
329.157	66.39
329.37	70.48
329.583	86.87
329.796	19.29
330.009	9.05
330.222	97.11
330.435	31.57
330.648	37.72
330.861	99.16
331.073	0.85
331.286	60.24
331.499	13.14
331.712	-48.3
331.925	17.24
332.138	-15.53
332.35	45.91
332.563	4.95
332.776	33.62
332.989	13.14
333.202	62.29
333.414	-70.83
333.627	66.39
333.84	17.24
334.053	60.24
334.265	39.76
334.478	27.48
334.691	-81.07
334.903	-11.43
335.116	-15.53
335.329	-11.43
335.541	11.09
335.754	25.43
335.966	19.29
336.179	-7.34
336.392	80.72
336.604	-13.48
336.817	4.95
337.029	-11.43
337.242	21.33
337.454	-13.48
337.667	123.73
337.88	88.92
338.092	64.34
338.305	68.44
338.517	33.62
338.729	101.2
338.942	50
339.154	37.72
339.367	0.85
339.579	140.12
339.792	33.62
340.004	78.68
340.217	82.77
340.429	23.38
340.641	-40.11
340.854	-48.3
341.066	23.38
341.278	90.96
341.491	41.81
341.703	29.52
341.915	-21.67
342.128	43.86
342.34	-13.48
342.552	13.14
342.764	9.05
342.977	19.29
343.189	29.52
343.401	99.16
343.613	27.48
343.826	47.96
344.038	-11.43
344.25	68.44
344.462	-36.01
344.674	58.2
344.886	35.67
345.099	68.44
345.311	37.72
345.523	27.48
345.735	17.24
345.947	72.53
346.159	0.85
346.371	9.05
346.583	-31.91
346.795	31.57
347.007	-15.53
347.219	86.87
347.431	9.05
347.643	54.1
347.855	35.67
348.067	78.68
348.279	19.29
348.491	-23.72
348.703	25.43
348.915	-21.67
349.127	21.33
349.339	-62.63
349.551	25.43
349.763	19.29
349.975	-40.11
350.187	111.44
350.399	27.48
350.61	68.44
350.822	-23.72
351.034	11.09
351.246	62.29
351.458	4.95
351.669	19.29
351.881	33.62
352.093	99.16
352.305	82.77
352.517	78.68
352.728	21.33
352.94	25.43
353.152	35.67
353.363	-36.01
353.575	58.2
353.787	0.85
353.999	74.58
354.21	58.2
354.422	9.05
354.633	43.86
354.845	-46.25
355.057	43.86
355.268	19.29
355.48	25.43
355.692	23.38
355.903	-15.53
356.115	-44.2
356.326	-33.96
356.538	-42.15
356.749	33.62
356.961	123.73
357.172	4.95
357.384	41.81
357.595	27.48
357.807	31.57
358.018	-11.43
358.23	66.39
358.441	-15.53
358.653	17.24
358.864	111.44
359.075	25.43
359.287	33.62
359.498	66.39
359.709	82.77
359.921	9.05
360.132	-15.53
360.344	-5.29
360.555	19.29
360.766	-38.06
360.977	9.05
361.189	50
361.4	-38.06
361.611	-23.72
361.823	47.96
362.034	50
362.245	9.05
362.456	27.48
362.667	37.72
362.879	21.33
363.09	9.05
363.301	68.44
363.512	7
363.723	-13.48
363.935	-1.19
364.146	140.12
364.357	58.2
364.568	-40.11
364.779	72.53
364.99	58.2
365.201	-54.44
365.412	39.76
365.623	-19.63
365.834	4.95
366.045	9.05
366.256	-3.24
366.467	-5.29
366.678	45.91
366.889	25.43
367.1	43.86
367.311	25.43
367.522	37.72
367.733	62.29
367.944	0.85
368.155	-13.48
368.366	29.52
368.577	19.29
368.788	25.43
368.999	25.43
369.209	-54.44
369.42	123.73
369.631	62.29
369.842	9.05
370.053	33.62
370.264	115.54
370.474	11.09
370.685	9.05
370.896	43.86
371.107	58.2
371.317	33.62
371.528	50
371.739	93.01
371.95	117.59
372.16	33.62
372.371	-105.64
372.582	-48.3
372.792	66.39
373.003	66.39
373.214	41.81
373.424	-5.29
373.635	-7.34
373.846	66.39
374.056	41.81
374.267	74.58
374.477	11.09
374.688	11.09
374.898	41.81
375.109	17.24
375.319	37.72
375.53	72.53
375.74	50
375.951	25.43
376.161	70.48
376.372	68.44
376.582	-1.19
376.793	-7.34
377.003	25.43
377.214	-5.29
377.424	70.48
377.635	45.91
377.845	13.14
378.055	17.24
378.266	-13.48
378.476	41.81
378.686	54.1
378.897	82.77
379.107	-46.25
379.317	2.9
379.528	19.29
379.738	17.24
379.948	33.62
380.158	95.06
380.369	66.39
380.579	76.63
380.789	23.38
380.999	41.81
381.21	66.39
381.42	2.9
381.63	-9.39
381.84	9.05
382.05	95.06
382.261	95.06
382.471	35.67
382.681	2.9
382.891	35.67
383.101	-25.77
383.311	4.95
383.521	33.62
383.731	23.38
383.941	76.63
384.151	4.95
384.361	43.86
384.571	-7.34
384.781	82.77
384.991	74.58
385.201	140.12
385.411	101.2
385.621	111.44
385.831	-19.63
386.041	-46.25
386.251	-15.53
386.461	70.48
386.671	17.24
386.881	35.67
387.091	15.19
387.301	41.81
387.511	4.95
387.72	76.63
387.93	-56.49
388.14	21.33
388.35	17.24
388.56	45.91
388.769	17.24
388.979	78.68
389.189	-48.3
389.399	0.85
389.609	43.86
389.818	7
390.028	-15.53
390.238	41.81
390.447	-13.48
390.657	66.39
390.867	0.85
391.076	25.43
391.286	21.33
391.496	41.81
391.705	29.52
391.915	37.72
392.125	41.81
392.334	-64.68
392.544	35.67
392.753	47.96
392.963	-60.59
393.172	35.67
393.382	-7.34
393.591	60.24
393.801	90.96
394.01	93.01
394.22	84.82
394.429	52.05
394.639	76.63
394.848	37.72
395.058	74.58
395.267	60.24
395.477	54.1
395.686	41.81
395.895	15.19
396.105	144.21
396.314	107.35
396.524	54.1
396.733	21.33
396.942	74.58
397.152	70.48
397.361	136.02
397.57	0.85
397.78	80.72
397.989	86.87
398.198	136.02
398.407	-23.72
398.617	62.29
398.826	72.53
399.035	107.35
399.244	52.05
399.453	60.24
399.663	78.68
399.872	74.58
400.081	13.14
400.29	39.76
400.499	52.05
400.708	101.2
400.917	43.86
401.127	78.68
401.336	72.53
401.545	103.25
401.754	72.53
401.963	90.96
402.172	54.1
402.381	17.24
402.59	117.59
402.799	45.91
403.008	123.73
403.217	86.87
403.426	103.25
403.635	41.81
403.844	47.96
404.053	76.63
404.262	27.48
404.471	148.31
404.68	70.48
404.888	50
405.097	45.91
405.306	66.39
405.515	33.62
405.724	56.15
405.933	66.39
406.142	25.43
406.35	107.35
406.559	107.35
406.768	41.81
406.977	203.6
407.185	115.54
407.394	86.87
407.603	37.72
407.812	27.48
408.02	107.35
408.229	88.92
408.438	133.97
408.646	62.29
408.855	168.79
409.064	172.88
409.272	197.46
409.481	203.6
409.69	43.86
409.898	82.77
410.107	246.61
410.315	191.31
410.524	125.78
410.733	191.31
410.941	219.99
411.15	287.57
411.358	183.12
411.567	189.27
411.775	224.08
411.984	224.08
412.192	191.31
412.401	232.27
412.609	213.84
412.818	232.27
413.026	238.42
413.234	240.47
413.443	267.09
413.651	156.5
413.86	295.76
414.068	371.54
414.276	363.34
414.485	320.34
414.693	344.91
414.901	346.96
415.11	367.44
415.318	293.71
415.526	328.53
415.734	389.97
415.943	254.8
416.151	455.5
416.359	404.3
416.567	410.45
416.776	432.97
416.984	459.6
417.192	478.03
417.4	559.95
417.608	406.35
417.817	441.17
418.025	535.37
418.233	578.38
418.441	449.36
418.649	566.09
418.857	590.67
419.065	578.38
419.273	615.24
419.481	670.54
419.689	648.01
419.897	805.71
420.105	734.03
420.313	713.55
420.521	803.66
420.729	811.85
420.937	824.14
421.145	836.42
421.353	901.96
421.561	940.87
421.769	854.86
421.977	1033.03
422.185	967.49
422.393	967.49
422.601	1117
422.809	1082.18
423.017	1139.52
423.224	1170.24
423.432	1149.76
423.64	1157.96
423.848	1313.6
424.056	1217.35
424.263	1336.13
424.471	1323.84
424.679	1215.3
424.887	1370.94
425.094	1452.86
425.302	1514.3
425.51	1442.62
425.718	1534.78
425.925	1524.54
426.133	1690.43
426.341	1803.07
426.548	1925.94
426.756	1968.95
426.964	1831.74
427.171	1934.14
427.379	2007.86
427.586	2071.35
427.794	1975.1
428.001	2200.37
428.209	2337.59
428.417	2294.58
428.624	2431.79
428.832	2442.03
429.039	2294.58
429.247	2356.02
429.454	2665.26
429.662	2786.09
429.869	2605.87
430.076	2796.33
430.284	2661.16
430.491	2781.99
430.699	2982.7
430.906	2943.78
431.114	3031.85
431.321	3124.01
431.528	3195.68
431.736	3482.4
431.943	3556.13
432.15	3420.96
432.358	3466.02
432.565	3779.36
432.772	3791.64
432.979	3935
433.187	3855.13
433.394	3908.38
433.601	4147.99
433.808	4272.92
434.016	4014.87
434.223	4406.03
434.43	4576.02
434.637	4522.77
434.844	4760.33
435.052	4809.48
435.259	4909.83
435.466	4799.24
435.673	4815.63
435.88	5251.85
436.087	5415.68
436.294	5442.31
436.501	5350.15
436.708	5251.85
436.915	5679.87
437.122	5944.06
437.329	5657.34
437.537	5954.3
437.743	6099.7
437.95	5894.91
438.157	6202.1
438.364	6482.67
438.571	6546.16
438.778	6513.39
438.985	7154.41
439.192	6976.23
439.399	7152.36
439.606	6873.84
439.813	7152.36
440.02	7953.12
440.227	7539.43
440.433	7590.63
440.64	7807.71
440.847	7940.83
441.054	8018.65
441.261	8438.48
441.467	8331.99
441.674	8467.16
441.881	8856.27
442.088	8708.82
442.294	8692.43
442.501	8979.15
442.708	9054.92
442.914	9607.87
443.121	9839.3
443.328	9480.9
443.534	10373.82
443.741	9831.1
443.948	9687.75
444.154	10480.31
444.361	10437.3
444.568	10601.14
444.774	10351.29
444.981	10666.67
445.187	11004.59
445.394	11332.26
445.6	11188.91
445.807	12415.64
446.013	11731.62
446.22	11981.47
446.426	12903.06
446.633	12593.81
446.839	13142.67
447.046	12475.03
447.252	13103.76
447.459	13163.15
447.665	13331.08
447.871	13712
448.078	14385.79
448.284	13847.17
448.491	14131.84
448.697	14557.82
448.903	14928.5
449.11	14686.84
449.316	14695.03
449.522	15026.8
449.728	15387.24
449.935	15626.85
450.141	15463.02
450.347	15708.77
450.553	15313.52
450.76	15684.2
450.966	16106.08
451.172	15833.7
451.378	16157.28
451.584	16028.26
451.791	16599.64
451.997	16544.34
452.203	16847.44
452.409	16808.53
452.615	16693.85
452.821	15962.72
453.027	15850.08
453.233	16806.48
453.44	15989.35
453.646	16224.86
453.852	16460.38
454.058	16628.31
454.264	16099.94
454.47	16290.4
454.676	15843.94
454.882	16497.24
455.088	15082.1
455.294	15303.28
455.5	15731.3
455.705	15735.4
455.911	15053.42
456.117	14674.55
456.323	14774.9
456.529	13959.81
456.735	14377.59
456.941	14160.51
457.147	14267
457.352	13562.5
457.558	13290.12
457.764	13509.26
457.97	13165.2
458.176	12814.99
458.381	12817.04
458.587	12348.06
458.793	12165.79
458.999	11711.14
459.204	12556.95
459.41	12044.96
459.616	11336.36
459.821	11416.23
460.027	11408.04
460.233	11219.63
460.438	10572.47
460.644	10689.2
460.85	10193.59
461.055	10218.17
461.261	10056.38
461.466	9327.3
461.672	8993.48
461.878	9456.33
462.083	9069.26
462.289	8798.93
462.494	8741.58
462.7	8426.2
462.905	8145.63
463.111	8567.51
463.316	8381.14
463.522	8372.95
463.727	8358.61
463.932	8188.63
464.138	8176.34
464.343	8250.07
464.549	8000.22
464.754	8131.29
464.959	8209.11
465.165	8035.03
465.37	7660.26
465.575	7631.58
465.781	8057.56
465.986	8004.32
466.191	7609.06
466.397	7434.98
466.602	7193.32
466.807	7391.97
467.012	7449.32
467.218	7359.21
467.423	7295.72
467.628	7402.21
467.833	7604.96
468.038	7365.35
468.244	7154.41
468.449	7494.37
468.654	7203.56
468.859	7115.5
469.064	6998.76
469.269	6771.44
469.474	6951.66
469.679	6982.38
469.885	6808.3
470.09	6845.16
470.295	6886.12
470.5	6656.75
470.705	6632.18
470.91	6730.48
471.115	6587.12
471.32	6578.93
471.525	6509.3
471.73	6558.45
471.935	6370.04
472.139	6048.51
472.344	6181.62
472.549	6185.72
472.754	6124.28
472.959	5968.63
473.164	5778.17
473.369	5886.72
473.574	6195.96
473.778	6005.5
473.983	5954.3
474.188	5931.77
474.393	5571.33
474.598	5565.18
474.802	5606.14
475.007	5604.1
475.212	5647.1
475.417	5468.93
475.621	5407.49
475.826	5415.68
476.031	5409.54
476.235	5151.49
476.44	5344
476.645	5116.68
476.849	5100.3
477.054	5104.39
477.259	5088.01
477.463	5114.63
477.668	4975.37
477.872	5063.43
478.077	4956.94
478.282	4934.41
478.486	4827.92
478.691	4727.57
478.895	4680.46
479.1	4829.96
479.304	4549.39
479.509	4530.96
479.713	4707.09
479.918	4551.44
480.122	4506.38
480.326	4606.74
480.531	4461.33
480.735	4549.39
480.94	4465.43
481.144	4582.16
481.348	4393.75
481.553	4459.28
481.757	4281.11
481.961	4416.27
482.166	4414.23
482.37	4379.41
482.574	4440.85
482.778	4346.64
482.983	4571.92
483.187	4451.09
483.391	4373.27
483.595	4377.36
483.8	4387.6
484.004	4238.1
484.208	4367.12
484.412	4451.09
484.616	4418.32
484.821	4440.85
485.025	4182.81
485.229	4500.24
485.433	4444.95
485.637	4401.94
485.841	4403.99
486.045	4393.75
486.249	4297.49
486.453	4211.48
486.657	4473.62
486.861	4434.71
487.065	4223.76
487.269	4287.25
487.473	4258.58
487.677	4391.7
487.881	4485.9
488.085	4401.94
488.289	4457.23
488.493	4299.54
488.697	4385.55
488.901	4264.72
489.105	4320.02
489.309	4500.24
489.512	4490
489.716	4315.92
489.92	4334.36
490.124	4514.58
490.328	4457.23
490.531	4440.85
490.735	4561.68
490.939	4485.9
491.143	4395.79
491.346	4479.76
491.55	4690.7
491.754	4475.67
491.958	4606.74
492.161	4543.25
492.365	4408.08
492.569	4467.47
492.772	4621.07
492.976	4784.91
493.18	4670.22
493.383	4612.88
493.587	4649.74
493.79	4862.73
493.994	4774.67
494.197	4756.24
494.401	5014.28
494.605	4854.54
494.808	4928.27
495.012	5034.76
495.215	5014.28
495.419	5042.95
495.622	4981.51
495.825	4999.95
496.029	5088.01
496.232	5292.8
496.436	5098.25
496.639	5456.64
496.843	5128.97
497.046	5165.83
497.249	5587.71
497.453	5497.6
497.656	5563.14
497.859	5432.07
498.063	5464.83
498.266	5556.99
498.469	5640.96
498.673	5864.19
498.876	5808.89
499.079	5862.14
499.282	5853.95
499.485	5985.02
499.689	6202.1
499.892	6052.6
500.095	6208.25
500.298	6216.44
500.501	6251.25
500.705	6533.87
500.908	6587.12
501.111	6464.24
501.314	6669.04
501.517	6654.7
501.72	6871.79
501.923	6789.87
502.126	6929.13
502.329	6882.03
502.532	7101.16
502.735	7074.54
502.938	7303.91
503.141	7252.71
503.344	7402.21
503.547	7463.65
503.75	7471.84
503.953	7625.44
504.156	7797.47
504.359	7668.45
504.562	7879.39
504.765	7983.84
504.968	7953.12
505.17	8110.81
505.373	8078.04
505.576	8225.5
505.779	8399.57
505.982	8540.88
506.185	8692.43
506.387	8547.03
506.59	8717.01
506.793	8878.8
506.996	8995.53
507.198	9030.35
507.401	8882.89
507.604	9192.14
507.807	9417.41
508.009	9446.09
508.212	9446.09
508.415	9599.68
508.617	9786.05
508.82	9925.31
509.022	9618.11
509.225	10078.91
509.428	10234.55
509.63	10046.14
509.833	10287.8
510.035	10425.01
510.238	10668.72
510.44	10506.93
510.643	10666.67
510.845	10742.45
511.048	10785.46
511.25	10971.82
511.453	11117.23
511.655	11600.55
511.858	11465.38
512.06	11496.1
512.262	11649.7
512.465	11770.53
512.667	11995.81
512.87	12010.14
513.072	11862.69
513.274	12317.34
513.477	12266.14
513.679	12587.67
513.881	12679.83
514.084	12665.49
514.286	12683.92
514.488	12780.18
514.69	13093.52
514.893	13140.62
515.095	13374.09
515.297	13550.21
515.499	13474.44
515.701	13832.83
515.904	14008.96
516.106	14086.78
516.308	14107.26
516.51	14025.34
516.712	14600.82
516.914	14529.14
517.116	14828.15
517.318	14938.74
517.52	14787.19
517.722	15149.68
517.925	15329.9
518.127	15350.38
518.329	15532.65
518.531	15426.15
518.733	15706.73
518.935	16044.64
519.136	15991.39
519.338	16134.75
519.54	16261.73
519.742	16552.54
519.944	16638.55
520.146	16982.61
520.348	17187.41
520.55	17187.41
520.752	17046.1
520.954	17508.94
521.155	17531.47
521.357	17760.84
521.559	17711.69
521.761	18076.23
521.963	18170.43
522.164	18039.36
522.366	18229.82
522.568	18491.96
522.77	18797.11
522.971	18809.4
523.173	18631.23
523.375	18868.79
523.576	19012.15
523.778	18897.46
523.98	19589.67
524.181	19331.63
524.383	19550.76
524.584	19595.82
524.786	19675.69
524.988	19706.41
525.189	20306.46
525.391	20490.78
525.592	20247.07
525.794	20148.77
525.995	20472.35
526.197	20412.96
526.398	20597.28
526.6	20783.64
526.801	20851.22
527.003	21086.74
527.204	20945.43
527.406	21285.39
527.607	21148.18
527.808	21438.99
528.01	21121.56
528.211	21314.06
528.412	21359.12
528.614	21115.41
528.815	21492.24
529.016	21852.68
529.218	21496.33
529.419	21766.67
529.62	21842.44
529.822	21662.22
530.023	22018.57
530.224	22106.63
530.425	22114.82
530.626	21789.19
530.828	22125.06
531.029	22305.28
531.23	21783.05
531.431	22147.59
531.632	22628.86
531.833	22344.19
532.035	22135.3
532.236	22419.97
532.437	22469.12
532.638	22436.35
532.839	22446.59
533.04	22393.34
533.241	22331.9
533.442	22596.09
533.643	22399.49
533.844	22739.45
534.045	22850.04
534.246	22424.06
534.447	22661.63
534.648	22653.44
534.849	22729.21
535.05	22530.56
535.251	22665.72
535.451	22794.75
535.652	22897.14
535.853	22589.95
536.054	22743.55
536.255	22815.23
536.456	22520.32
536.657	22999.54
536.857	22735.35
537.058	22770.17
537.259	22790.65
537.46	22815.23
537.66	22786.55
537.861	23124.47
538.062	22551.04
538.263	22792.7
538.463	22716.92
538.664	22772.22
538.865	22856.18
539.065	23136.76
539.266	22407.68
539.466	22815.23
539.667	22637.05
539.868	23212.53
540.068	22807.03
540.269	22800.89
540.469	22600.19
540.67	22526.46
540.87	23075.32
541.071	22598.14
541.271	23073.27
541.472	22698.49
541.672	22929.91
541.873	22632.96
542.073	22561.28
542.274	22628.86
542.474	23052.79
542.675	22886.9
542.875	22811.13
543.075	22757.88
543.276	22467.07
543.476	22710.78
543.676	22536.7
543.877	22569.47
544.077	22649.34
544.277	22503.93
544.478	22745.59
544.678	22577.66
544.878	22874.62
545.078	22628.86
545.279	22749.69
545.479	22794.75
545.679	22782.46
545.879	22807.03
546.079	22432.26
546.28	22395.39
546.48	22559.23
546.68	22854.14
546.88	22639.1
547.08	22700.54
547.28	22635
547.48	22336
547.68	22927.86
547.88	22340.1
548.081	22905.34
548.281	22809.08
548.481	22757.88
548.681	23030.26
548.881	22534.65
549.081	22643.2
549.28	22772.22
549.48	22970.87
549.68	22452.73
549.88	22796.79
550.08	22710.78
550.28	22565.37
550.48	22850.04
550.68	22551.04
550.88	22364.67
551.08	22860.28
551.279	22667.77
551.479	22573.56
551.679	22764.03
551.879	22501.89
552.079	22716.92
552.278	22292.99
552.478	22823.42
552.678	22604.28
552.878	22669.82
553.077	22495.74
553.277	22266.37
553.477	22698.49
553.676	22397.44
553.876	22503.93
554.076	22440.45
554.275	22286.85
554.475	22217.22
554.674	22479.36
554.874	22632.96
555.074	22336
555.273	22206.98
555.473	22415.87
555.672	22106.63
555.872	22432.26
556.071	22413.82
556.271	22037
556.47	22249.99
556.67	21801.48
556.869	21858.82
557.068	22110.72
557.268	21979.65
557.467	21936.65
557.667	22393.34
557.866	21916.17
558.065	22002.18
558.265	21938.69
558.464	21893.64
558.663	22041.09
558.863	21647.88
559.062	22123.01
559.261	21758.47
559.461	21895.69
559.66	21432.85
559.859	21627.4
560.058	21234.19
560.258	21568.01
560.457	21359.12
560.656	21635.6
560.855	21019.16
561.054	21686.79
561.253	21352.98
561.453	21324.3
561.652	21455.37
561.851	21117.46
562.05	21078.55
562.249	21101.08
562.448	21363.22
562.647	21131.79
562.846	21053.97
563.045	21031.44
563.244	21023.25
563.443	21090.84
563.642	20578.84
563.841	21045.78
564.04	20857.37
564.239	21039.64
564.438	20541.98
564.637	20916.76
564.836	20730.39
565.035	20539.93
565.234	20816.41
565.432	20787.74
565.631	20525.6
565.83	20523.55
566.029	20550.17
566.228	20171.3
566.427	20285.98
566.625	20156.96
566.824	19874.34
567.023	20130.34
567.222	20021.8
567.42	20081.19
567.619	20177.44
567.818	19851.81
568.016	19851.81
568.215	20058.66
568.414	19747.37
568.612	19880.49
568.811	19630.63
569.01	19685.93
569.208	19479.08
569.407	19712.55
569.605	19737.13
569.804	19358.25
570.002	19350.06
570.201	19554.86
570.4	19341.87
570.598	19102.26
570.797	19247.66
570.995	19161.65
571.193	18963
571.392	19087.92
571.59	19038.77
571.789	18985.52
571.987	18819.64
572.186	18731.58
572.384	18549.31
572.582	18770.49
572.781	18764.34
572.979	18473.53
573.177	18563.64
573.376	18252.35
573.574	18174.53
573.772	18387.52
573.971	18256.45
574.169	18254.4
574.367	17977.92
574.565	18125.38
574.763	17740.36
574.962	17906.24
575.16	17640.01
575.358	17994.31
575.556	17758.79
575.754	17867.33
575.952	17556.04
576.151	17709.64
576.349	17510.99
576.547	17691.21
576.745	17510.99
576.943	17508.94
577.141	17465.93
577.339	17197.65
577.537	17197.65
577.735	17486.41
577.933	17017.43
578.131	17185.36
578.329	17042
578.527	17119.82
578.725	17011.28
578.923	16937.55
579.121	16775.77
579.319	16757.33
579.516	17199.69
579.714	16751.19
579.912	16613.98
580.11	16562.78
580.308	16912.98
580.506	16648.79
580.704	16646.74
580.901	16654.94
581.099	16333.4
581.297	16243.29
581.495	16591.45
581.692	16280.16
581.89	16190.05
582.088	16544.34
582.285	16122.46
582.483	16067.17
582.681	16124.51
582.878	15942.24
583.076	15981.15
583.274	15825.51
583.471	15745.64
583.669	15858.28
583.866	15610.47
584.064	15712.87
584.262	15428.2
584.459	15850.08
584.657	15516.26
584.854	15725.16
585.052	15370.86
585.249	15360.62
585.447	15499.88
585.644	15428.2
585.841	15190.64
586.039	15551.08
586.236	15352.43
586.434	15057.52
586.631	15114.86
586.828	14983.79
587.026	15041.14
587.223	14967.41
587.42	14977.65
587.618	15028.85
587.815	14967.41
588.012	14813.81
588.21	14426.75
588.407	14817.91
588.604	14822
588.801	14754.42
588.999	14600.82
589.196	14561.91
589.393	14451.32
589.59	14342.78
589.787	14264.96
589.984	14533.24
590.182	14131.84
590.379	14383.74
590.576	14150.27
590.773	14254.72
590.97	14013.06
591.167	14416.51
591.364	13965.95
591.561	14156.41
591.758	13853.31
591.955	13914.75
592.152	13894.27
592.349	13755.01
592.546	13947.52
592.743	14002.82
592.94	13453.96
593.137	13869.7
593.334	13898.37
593.531	13505.16
593.727	13744.77
593.924	13814.4
594.121	13222.54
594.318	13365.9
594.515	13408.9
594.712	13277.83
594.908	13333.13
595.105	13320.84
595.302	13253.26
595.499	13185.68
595.696	13165.2
595.892	13159.05
596.089	13185.68
596.286	13085.33
596.482	13019.79
596.679	13114
596.876	12886.67
597.072	12931.73
597.269	12921.49
597.466	12550.81
597.662	12823.19
597.859	12757.65
598.055	12853.91
598.252	12716.69
598.448	12583.57
598.645	12597.91
598.841	12685.97
599.038	12501.65
599.234	12366.49
599.431	12239.51
599.627	12239.51
599.824	12460.7
600.02	12135.07
600.217	12159.64
600.413	12282.52
600.609	12233.37
600.806	12257.95
601.002	12198.56
601.198	12264.09
601.395	11938.46
601.591	12061.34
601.787	12151.45
601.984	11969.18
602.18	12012.19
602.376	12001.95
602.572	11911.84
602.769	11750.05
602.965	11819.68
603.161	11680.42
603.357	11690.66
603.553	11770.53
603.75	11721.38
603.946	11342.5
604.142	11518.63
604.338	11551.4
604.534	11477.67
604.73	11451.05
604.926	11371.18
605.122	11405.99
605.318	11006.64
605.514	11381.42
605.71	11256.49
605.906	11256.49
606.102	11258.54
606.298	11190.95
606.494	10992.3
606.69	11092.65
606.886	11070.12
607.082	11166.38
607.278	11051.69
607.474	10879.66
607.67	10969.77
607.866	10724.02
608.062	11084.46
608.257	10973.87
608.453	10711.73
608.649	10916.53
608.845	10642.1
609.041	10830.51
609.236	10805.94
609.432	10734.26
609.628	10541.75
609.824	10588.85
610.019	10441.4
610.215	10580.66
610.411	10660.53
610.606	10488.5
610.802	10551.99
610.998	10420.92
611.193	10551.99
611.389	10355.38
611.584	10488.5
611.78	10207.93
611.976	10302.14
612.171	10554.04
612.367	10298.04
612.562	10429.11
612.758	10175.16
612.953	10142.39
613.149	10339
613.344	10156.73
613.539	10289.85
613.735	10066.62
613.93	9994.94
614.126	10013.37
614.321	10218.17
614.517	10015.42
614.712	9960.13
614.907	9974.46
615.103	9876.16
615.298	9913.02
615.493	10056.38
615.688	9816.77
615.884	9999.04
616.079	9859.77
616.274	9921.21
616.47	9900.73
616.665	9953.98
616.86	9820.86
617.055	9605.83
617.25	9784
617.445	9796.29
617.641	9595.59
617.836	9677.51
618.031	9671.36
618.226	9536.2
618.421	9667.27
618.616	9407.17
618.811	9272.01
619.006	9595.59
619.201	9224.9
619.396	9474.76
619.591	9298.63
619.786	9550.53
619.981	9198.28
620.176	9556.68
620.371	9175.75
620.566	9253.58
620.761	8907.47
620.956	9071.31
621.151	9114.31
621.346	9128.65
621.541	9016.01
621.735	9185.99
621.93	8803.02
622.125	8825.55
622.32	8649.43
622.515	8741.58
622.709	8727.25
622.904	8614.61
623.099	8514.26
623.294	8790.74
623.488	8641.23
623.683	8520.4
623.878	8245.98
624.072	8389.33
624.267	8219.35
624.462	8350.42
624.656	8205.02
624.851	8286.93
625.046	8225.5
625.24	8186.58
625.435	8018.65
625.629	7963.36
625.824	8147.67
626.018	7877.34
626.213	7820
626.407	7889.63
626.602	7840.48
626.796	7715.55
626.991	7836.38
627.185	7760.61
627.38	7613.15
627.574	7690.98
627.768	7705.31
627.963	7432.93
628.157	7459.56
628.352	7555.81
628.546	7258.85
628.74	7496.42
628.935	7412.45
629.129	7219.94
629.323	7269.09
629.517	7127.78
629.712	6980.33
629.906	7291.62
630.1	7021.29
630.294	6935.28
630.489	6959.85
630.683	7084.78
630.877	6865.64
631.071	6849.26
631.265	6920.94
631.459	6906.6
631.653	6681.33
631.848	6689.52
632.042	6812.4
632.236	6699.76
632.43	6554.35
632.624	6669.04
632.818	6671.09
633.012	6513.39
633.206	6685.42
633.4	6456.05
633.594	6259.45
633.788	6312.69
633.982	6513.39
634.176	6341.36
634.369	6382.32
634.563	6314.74
634.757	6267.64
634.951	6202.1
635.145	6443.76
635.339	6175.48
635.533	6224.63
635.726	6017.79
635.92	6079.22
636.114	6130.42
636.308	6042.36
636.501	5942.01
636.695	5997.31
636.889	5819.13
637.083	5833.47
637.276	5817.08
637.47	5651.2
637.664	5763.84
637.857	5939.96
638.051	5669.63
638.244	5884.67
638.438	5620.48
638.632	5595.9
638.825	5464.83
639.019	5552.9
639.212	5405.44
639.406	5417.73
639.599	5567.23
639.793	5321.48
639.986	5362.44
640.18	5403.39
640.373	5415.68
640.567	5202.69
640.76	5327.62
640.954	5348.1
641.147	5223.17
641.34	5212.93
641.534	5268.23
641.727	5255.94
641.92	4989.71
642.114	5010.18
642.307	5217.03
642.5	5055.24
642.694	4946.7
642.887	4952.84
643.08	5030.66
643.273	4875.02
643.467	4907.79
643.66	4803.34
643.853	4891.4
644.046	4862.73
644.239	4778.76
644.432	4735.76
644.626	4666.13
644.819	4477.71
645.012	4598.54
645.205	4727.57
645.398	4670.22
645.591	4563.73
645.784	4424.47
645.977	4440.85
646.17	4444.95
646.363	4432.66
646.556	4360.98
646.749	4422.42
646.942	4524.82
647.135	4360.98
647.328	4311.83
647.521	4293.4
647.714	4133.65
647.907	4270.87
648.099	4350.74
648.292	4109.08
648.485	4272.92
648.678	4168.47
648.871	4080.41
649.064	3975.96
649.256	4270.87
649.449	4234
649.642	3973.91
649.835	4074.26
650.027	4014.87
650.22	3943.19
650.413	3859.23
650.605	3994.39
650.798	3953.43
650.991	3877.66
651.183	3935
651.376	3939.1
651.568	3867.42
651.761	3752.73
651.954	3732.25
652.146	3787.55
652.339	3877.66
652.531	3658.53
652.724	3722.01
652.916	3582.75
653.109	3656.48
653.301	3687.2
653.494	3785.5
653.686	3484.45
653.879	3654.43
654.071	3715.87
654.263	3482.4
654.456	3443.49
654.648	3631.9
654.84	3392.29
655.033	3470.11
655.225	3466.02
655.417	3353.38
655.61	3498.78
655.802	3433.25
655.994	3371.81
656.186	3281.7
656.379	3380
656.571	3375.91
656.763	3318.56
656.955	3304.23
657.148	3296.04
657.34	3261.22
657.532	3285.8
657.724	3183.4
657.916	3259.17
658.108	3121.96
658.3	3164.97
658.492	3154.73
658.684	3132.2
658.876	3035.94
659.068	3197.73
659.26	3097.38
659.452	3236.64
659.644	3187.49
659.836	3107.62
660.028	2941.74
660.22	2988.84
660.412	2970.41
660.604	2925.35
660.796	2945.83
660.988	3060.52
661.18	2908.97
661.372	2933.54
661.563	2976.55
661.755	2806.57
661.947	2868.01
662.139	2876.2
662.331	2870.06
662.522	2818.86
662.714	2781.99
662.906	2917.16
663.097	2890.54
663.289	2736.94
663.481	2802.47
663.673	2810.67
663.864	2734.89
664.056	2720.56
664.247	2757.42
664.439	2779.95
664.631	2667.31
664.822	2745.13
665.014	2593.58
665.205	2538.29
665.397	2673.45
665.588	2564.91
665.78	2556.72
665.971	2648.88
666.163	2532.14
666.354	2534.19
666.546	2556.72
666.737	2583.34
666.929	2495.28
667.12	2468.66
667.311	2452.27
667.503	2509.62
667.694	2491.18
667.885	2564.91
668.077	2523.95
668.268	2433.84
668.459	2493.23
668.651	2362.16
668.842	2448.18
669.033	2286.39
669.224	2294.58
669.416	2442.03
669.607	2351.92
669.798	2229.04
669.989	2341.68
670.18	2370.35
670.371	2364.21
670.563	2319.15
670.754	2255.67
670.945	2356.02
671.136	2188.08
671.327	2276.15
671.518	2200.37
671.709	2368.31
671.9	2212.66
672.091	2310.96
672.282	2140.98
672.473	2220.85
672.664	2263.86
672.855	2204.47
673.046	2173.75
673.237	2204.47
673.428	2192.18
673.619	2130.74
673.809	2229.04
674	2149.17
674.191	2134.84
674.382	2097.97
674.573	2222.9
674.764	2081.59
674.954	2200.37
675.145	2116.41
675.336	2126.64
675.527	2186.04
675.717	2130.74
675.908	2059.06
676.099	2112.31
676.289	2161.46
676.48	2026.29
676.671	2159.41
676.861	2097.97
677.052	2069.3
677.243	1938.23
677.433	2009.91
677.624	2151.22
677.814	2024.25
678.005	2040.63
678.195	2079.54
678.386	2044.73
678.576	2032.44
678.767	1993.53
678.957	2093.88
679.148	2155.32
679.338	2026.29
679.529	2016.05
679.719	1973.05
679.909	2011.96
680.1	1946.42
680.29	1979.19
680.481	1975.1
680.671	1964.86
680.861	1977.14
681.052	2003.77
681.242	1958.71
681.432	1958.71
681.622	1968.95
681.813	1925.94
682.003	1979.19
682.193	1973.05
682.383	2009.91
682.573	1893.18
682.764	1925.94
682.954	2018.1
683.144	2020.15
683.334	1878.84
683.524	2009.91
683.714	2007.86
683.904	1811.26
684.094	1946.42
684.284	1909.56
684.474	1835.83
684.664	1811.26
684.854	1903.42
685.044	1829.69
685.234	1852.22
685.424	1891.13
685.614	1790.78
685.804	1805.11
685.994	1856.31
686.184	1846.07
686.374	1876.79
686.564	1954.62
686.753	1758.01
686.943	1829.69
687.133	1848.12
687.323	1844.03
687.513	1825.59
687.702	1848.12
687.892	1772.35
688.082	1891.13
688.272	1741.63
688.461	1788.73
688.651	1715
688.841	1803.07
689.03	1815.35
689.22	1723.2
689.41	1721.15
689.599	1708.86
689.789	1674.04
689.979	1760.06
690.168	1758.01
690.358	1729.34
690.547	1659.71
690.737	1659.71
690.926	1655.61
691.116	1651.52
691.305	1731.39
691.495	1743.67
691.684	1715
691.874	1641.28
692.063	1696.57
692.252	1647.42
692.442	1731.39
692.631	1622.84
692.82	1616.7
693.01	1686.33
693.199	1622.84
693.388	1672
693.578	1573.69
693.767	1686.33
693.956	1594.17
694.146	1590.08
694.335	1604.41
694.524	1622.84
694.713	1610.56
694.902	1577.79
695.092	1635.13
695.281	1565.5
695.47	1639.23
695.659	1585.98
695.848	1475.39
696.037	1608.51
696.226	1637.18
696.415	1536.83
696.604	1631.04
696.793	1518.4
696.982	1532.73
697.171	1712.96
697.36	1547.07
697.549	1692.48
697.738	1618.75
697.927	1532.73
698.116	1532.73
698.305	1604.41
698.494	1475.39
698.683	1639.23
698.872	1631.04
699.061	1614.65
699.25	1569.6
699.438	1557.31
699.627	1577.79
699.816	1612.6
700.005	1592.13
700.193	1606.46
700.382	1633.08
700.571	1643.32
700.76	1583.93
700.948	1614.65
701.137	1682.24
701.326	1655.61
701.514	1557.31
701.703	1672
701.892	1608.51
702.08	1502.01
702.269	1721.15
702.457	1612.6
702.646	1540.93
702.834	1549.12
703.023	1581.89
703.212	1715
703.4	1585.98
703.589	1555.26
703.777	1608.51
703.965	1665.85
704.154	1598.27
704.342	1608.51
704.531	1493.82
704.719	1688.38
704.907	1680.19
705.096	1559.36
705.284	1573.69
705.472	1622.84
705.661	1499.97
705.849	1647.42
706.037	1573.69
706.226	1516.35
706.414	1577.79
706.602	1551.17
706.79	1620.8
706.979	1674.04
707.167	1565.5
707.355	1565.5
707.543	1518.4
707.731	1569.6
707.919	1608.51
708.107	1610.56
708.296	1524.54
708.484	1536.83
708.672	1575.74
708.86	1561.41
709.048	1659.71
709.236	1491.77
709.424	1594.17
709.612	1585.98
709.8	1540.93
709.988	1608.51
710.176	1573.69
710.364	1600.32
710.551	1540.93
710.739	1573.69
710.927	1504.06
711.115	1534.78
711.303	1645.37
711.491	1600.32
711.679	1616.7
711.866	1624.89
712.054	1590.08
712.242	1606.46
712.43	1596.22
712.617	1553.21
712.805	1551.17
712.993	1567.55
713.181	1551.17
713.368	1622.84
713.556	1598.27
713.744	1600.32
713.931	1545.02
714.119	1608.51
714.306	1618.75
714.494	1667.9
714.682	1665.85
714.869	1536.83
715.057	1672
715.244	1524.54
715.432	1741.63
715.619	1704.76
715.807	1563.45
715.994	1567.55
716.182	1639.23
716.369	1643.32
716.556	1653.56
716.744	1600.32
716.931	1577.79
717.119	1616.7
717.306	1721.15
717.493	1590.08
717.681	1540.93
717.868	1592.13
718.055	1620.8
718.242	1631.04
718.43	1610.56
718.617	1608.51
718.804	1631.04
718.991	1684.28
719.179	1688.38
719.366	1651.52
719.553	1620.8
719.74	1557.31
719.927	1649.47
720.114	1526.59
720.301	1626.94
720.488	1581.89
720.676	1581.89
720.863	1674.04
721.05	1696.57
721.237	1631.04
721.424	1598.27
721.611	1669.95
721.798	1633.08
721.985	1698.62
722.172	1610.56
722.358	1624.89
722.545	1614.65
722.732	1592.13
722.919	1633.08
723.106	1633.08
723.293	1608.51
723.48	1592.13
723.667	1680.19
723.853	1651.52
724.04	1698.62
724.227	1651.52
724.414	1581.89
724.6	1772.35
724.787	1536.83
724.974	1600.32
725.161	1655.61
725.347	1573.69
725.534	1614.65
725.72	1663.8
725.907	1626.94
726.094	1583.93
726.28	1575.74
726.467	1497.92
726.653	1573.69
726.84	1667.9
727.027	1624.89
727.213	1600.32
727.4	1655.61
727.586	1633.08
727.773	1497.92
727.959	1735.48
728.145	1565.5
728.332	1590.08
728.518	1643.32
728.705	1672
728.891	1678.14
729.077	1606.46
729.264	1516.35
729.45	1594.17
729.636	1661.76
729.823	1551.17
730.009	1643.32
730.195	1491.77
730.382	1649.47
730.568	1733.43
730.754	1622.84
730.94	1561.41
731.126	1590.08
731.313	1493.82
731.499	1581.89
731.685	1653.56
731.871	1663.8
732.057	1606.46
732.243	1684.28
732.429	1633.08
732.615	1547.07
732.801	1514.3
732.987	1602.36
733.173	1608.51
733.359	1612.6
733.545	1499.97
733.731	1514.3
733.917	1596.22
734.103	1612.6
734.289	1487.68
734.475	1596.22
734.661	1655.61
734.847	1534.78
735.033	1491.77
735.219	1545.02
735.404	1528.64
735.59	1565.5
735.776	1463.1
735.962	1641.28
736.148	1639.23
736.333	1641.28
736.519	1602.36
736.705	1493.82
736.89	1510.21
737.076	1540.93
737.262	1557.31
737.447	1499.97
737.633	1508.16
737.819	1555.26
738.004	1487.68
738.19	1491.77
738.375	1518.4
738.561	1604.41
738.747	1379.14
738.932	1487.68
739.118	1575.74
739.303	1516.35
739.489	1536.83
739.674	1405.76
739.859	1493.82
740.045	1532.73
740.23	1485.63
740.416	1534.78
740.601	1499.97
740.786	1526.59
740.972	1485.63
741.157	1577.79
741.342	1459.01
741.528	1467.2
741.713	1583.93
741.898	1506.11
742.084	1397.57
742.269	1487.68
742.454	1403.71
742.639	1483.58
742.824	1389.38
743.01	1430.34
743.195	1424.19
743.38	1360.7
743.565	1434.43
743.75	1336.13
743.935	1372.99
744.12	1407.81
744.305	1370.94
744.49	1366.85
744.675	1385.28
744.86	1375.04
745.045	1387.33
745.23	1338.18
745.415	1303.36
745.6	1364.8
745.785	1313.6
745.97	1344.32
746.155	1258.31
746.34	1311.55
746.525	1303.36
746.71	1448.77
746.895	1207.11
747.079	1295.17
747.264	1225.54
747.449	1299.27
747.634	1270.59
747.819	1272.64
748.003	1254.21
748.188	1307.46
748.373	1266.5
748.557	1299.27
748.742	1266.5
748.927	1182.53
749.111	1237.83
749.296	1225.54
749.481	1200.96
749.665	1239.87
749.85	1149.76
750.034	1252.16
750.219	1149.76
750.404	1153.86
750.588	1164.1
750.773	1028.93
750.957	1139.52
751.141	1168.2
751.326	1149.76
751.51	1104.71
751.695	1131.33
751.879	1098.56
752.064	1131.33
752.248	1051.46
752.432	1117
752.617	1080.13
752.801	1164.1
752.985	1061.7
753.17	1018.69
753.354	1127.24
753.538	975.69
753.722	1043.27
753.907	1125.19
754.091	981.83
754.275	992.07
754.459	1041.22
754.643	1012.55
754.828	1016.65
755.012	1018.69
755.196	942.92
755.38	934.73
755.564	961.35
755.748	996.17
755.932	1002.31
756.116	1000.26
756.3	959.3
756.484	906.06
756.668	934.73
756.852	881.48
757.036	912.2
757.22	869.19
757.404	893.77
757.588	983.88
757.772	856.9
757.956	856.9
758.14	916.3
758.323	830.28
758.507	863.05
758.691	861
758.875	846.66
759.059	813.9
759.242	914.25
759.426	754.51
759.61	774.99
759.794	803.66
759.977	754.51
760.161	815.94
760.345	820.04
760.528	736.07
760.712	846.66
760.895	770.89
761.079	820.04
761.263	705.35
761.446	781.13
761.63	861
761.813	746.31
761.997	697.16
762.18	738.12
762.364	783.18
762.547	756.55
762.731	852.81
762.914	731.98
763.098	721.74
763.281	760.65
763.464	817.99
763.648	717.64
763.831	795.47
764.015	731.98
764.198	805.71
764.381	707.4
764.564	697.16
764.748	734.03
764.931	742.22
765.114	762.7
765.297	721.74
765.481	672.59
765.664	676.68
765.847	742.22
766.03	762.7
766.213	639.82
766.397	627.53
766.58	672.59
766.763	705.35
766.946	650.06
767.129	725.83
767.312	699.21
767.495	697.16
767.678	648.01
767.861	725.83
768.044	648.01
768.227	656.2
768.41	656.2
768.593	686.92
768.776	684.87
768.959	672.59
769.142	693.07
769.324	637.77
769.507	594.76
769.69	578.38
769.873	627.53
770.056	705.35
770.239	586.57
770.421	617.29
770.604	664.4
770.787	748.36
770.97	590.67
771.152	600.91
771.335	600.91
771.518	607.05
771.7	738.12
771.883	631.63
772.066	551.76
772.248	574.28
772.431	559.95
772.613	512.85
772.796	594.76
772.978	504.65
773.161	611.15
773.343	545.61
773.526	510.8
773.708	570.19
773.891	549.71
774.073	516.94
774.256	510.8
774.438	611.15
774.621	559.95
774.803	578.38
774.985	447.31
775.168	549.71
775.35	529.23
775.532	562
775.715	510.8
775.897	480.08
776.079	584.52
776.261	549.71
776.444	506.7
776.626	494.41
776.808	467.79
776.99	521.04
777.173	516.94
777.355	449.36
777.537	562
777.719	453.45
777.901	467.79
778.083	529.23
778.265	498.51
778.447	525.13
778.629	424.78
778.811	484.17
778.993	480.08
779.175	512.85
779.357	418.64
779.539	387.92
779.721	426.83
779.903	535.37
780.085	435.02
780.267	516.94
780.449	396.11
780.631	504.65
780.812	449.36
780.994	420.69
781.176	373.58
781.358	328.53
781.54	422.73
781.721	410.45
781.903	451.41
782.085	373.58
782.267	406.35
782.448	402.26
782.63	381.78
782.812	389.97
782.993	344.91
783.175	392.02
783.357	414.54
783.538	387.92
783.72	369.49
783.901	355.15
784.083	308.05
784.264	369.49
784.446	414.54
784.627	357.2
784.809	279.38
784.99	402.26
785.172	398.16
785.353	271.19
785.535	373.58
785.716	332.62
785.897	365.39
786.079	330.58
786.26	387.92
786.441	334.67
786.623	250.71
786.804	303.95
786.985	314.19
787.167	281.43
787.348	256.85
787.529	279.38
787.71	338.77
787.891	387.92
788.073	314.19
788.254	262.99
788.435	277.33
788.616	299.86
788.797	281.43
788.978	215.89
789.159	232.27
789.34	287.57
789.522	197.46
789.703	320.34
789.884	322.38
790.065	316.24
790.246	308.05
790.427	191.31
790.607	332.62
790.788	353.1
790.969	357.2
791.15	228.18
791.331	191.31
791.512	201.55
791.693	262.99
791.874	222.03
792.054	234.32
792.235	275.28
792.416	262.99
792.597	215.89
792.778	201.55
792.958	279.38
793.139	295.76
793.32	183.12
793.5	224.08
793.681	197.46
793.862	201.55
794.042	222.03
794.223	123.73
794.404	230.23
794.584	183.12
794.765	207.7
794.945	181.07
795.126	328.53
795.306	273.23
795.487	181.07
795.667	217.94
795.848	279.38
796.028	291.66
796.209	207.7
796.389	207.7
796.57	191.31
796.75	168.79
796.93	195.41
797.111	224.08
797.291	185.17
797.471	234.32
797.652	156.5
797.832	238.42
798.012	215.89
798.192	191.31
798.373	205.65
798.553	211.79
798.733	213.84
798.913	131.92
799.093	156.5
799.274	224.08
799.454	207.7
799.634	158.55
799.814	125.78
799.994	119.64
800.174	265.04
800.354	181.07
800.534	193.36
800.714	226.13
800.894	99.16
801.074	117.59
801.254	115.54
801.434	250.71
801.614	152.4
801.794	93.01
801.974	721.74
802.154	148.31
802.334	136.02
802.514	54.1
802.693	123.73
802.873	181.07
803.053	201.55
803.233	68.44
803.413	154.45
803.592	246.61
803.772	166.74
803.952	211.79
804.131	160.59
804.311	140.12
804.491	166.74
804.67	111.44
804.85	146.26
805.03	140.12
805.209	115.54
805.389	136.02
805.568	156.5
805.748	176.98
805.928	158.55
806.107	154.45
806.287	185.17
806.466	185.17
806.646	136.02
806.825	84.82
807.004	172.88
807.184	125.78
807.363	207.7
807.543	152.4
807.722	144.21
807.901	174.93
808.081	166.74
808.26	60.24
808.439	99.16
808.619	111.44
808.798	90.96
808.977	113.49
809.156	66.39
809.336	125.78
809.515	150.36
809.694	203.6
809.873	152.4
810.052	144.21
810.231	168.79
810.411	140.12
810.59	148.31
810.769	199.51
810.948	103.25
811.127	43.86
811.306	82.77
811.485	90.96
811.664	150.36
811.843	82.77
812.022	138.07
812.201	101.2
812.38	66.39
812.559	39.76
812.737	64.34
812.916	74.58
813.095	115.54
813.274	74.58
813.453	131.92
813.632	174.93
813.811	129.88
813.989	99.16
814.168	133.97
814.347	90.96
814.526	90.96
814.704	187.22
814.883	136.02
815.062	33.62
815.24	99.16
815.419	90.96
815.598	164.69
815.776	23.38
815.955	90.96
816.133	86.87
816.312	74.58
816.49	72.53
816.669	123.73
816.847	74.58
817.026	115.54
817.204	39.76
817.383	11.09
817.561	93.01
817.74	70.48
817.918	140.12
818.097	54.1
818.275	0.85
818.453	146.26
818.632	50
818.81	0.85
818.988	84.82
819.167	152.4
819.345	99.16
819.523	82.77
819.701	66.39
819.879	125.78
820.058	144.21
820.236	109.4
820.414	-3.24
820.592	78.68
820.77	90.96
820.948	29.52
821.127	19.29
821.305	80.72
821.483	27.48
821.661	168.79
821.839	13.14
822.017	58.2
822.195	54.1
822.373	95.06
822.551	66.39
822.729	80.72
822.907	66.39
823.085	119.64
823.262	31.57
823.44	95.06
823.618	35.67
823.796	58.2
823.974	37.72
824.152	11.09
824.329	41.81
824.507	84.82
824.685	95.06
824.863	45.91
825.04	50
825.218	33.62
825.396	113.49
825.574	17.24
825.751	21.33
825.929	56.15
826.107	4.95
826.284	74.58
826.462	115.54
826.639	50
826.817	37.72
826.994	101.2
827.172	-46.25
827.349	74.58
827.527	62.29
827.704	60.24
827.882	140.12
828.059	33.62
828.237	-31.91
828.414	66.39
828.591	-44.2
828.769	58.2
828.946	54.1
829.124	107.35
829.301	99.16
829.478	52.05
829.655	125.78
829.833	58.2
830.01	33.62
830.187	148.31
830.364	82.77
830.542	68.44
830.719	131.92
830.896	144.21
831.073	107.35
831.25	31.57
831.427	17.24
831.604	82.77
831.782	74.58
831.959	82.77
832.136	45.91
832.313	82.77
832.49	25.43
832.667	97.11
832.844	66.39
833.021	54.1
833.198	58.2
833.374	58.2
833.551	-38.06
833.728	68.44
833.905	70.48
834.082	-19.63
834.259	41.81
834.436	95.06
834.612	0.85
834.789	166.74
834.966	52.05
835.143	41.81
835.319	4.95
835.496	62.29
835.673	27.48
835.85	-7.34
836.026	105.3
836.203	9.05
836.38	66.39
836.556	29.52
836.733	-15.53
836.909	123.73
837.086	45.91
837.262	115.54
837.439	25.43
837.616	-31.91
837.792	29.52
837.968	52.05
838.145	-31.91
838.321	90.96
838.498	2.9
838.674	107.35
838.851	25.43
839.027	50
839.203	27.48
839.38	41.81
839.556	64.34
839.732	-13.48
839.909	19.29
840.085	86.87
840.261	93.01
840.437	78.68
840.614	50
840.79	43.86
840.966	62.29
841.142	52.05
841.318	25.43
841.494	7
841.671	33.62
841.847	103.25
842.023	-15.53
842.199	68.44
842.375	76.63
842.551	-74.92
842.727	7
842.903	58.2
843.079	-27.82
843.255	47.96
843.431	76.63
843.607	95.06
843.783	-44.2
843.959	54.1
844.134	0.85
844.31	74.58
844.486	56.15
844.662	23.38
844.838	19.29
845.013	99.16
845.189	41.81
845.365	43.86
845.541	17.24
845.716	90.96
845.892	45.91
846.068	50
846.244	-23.72
846.419	88.92
846.595	27.48
846.77	-1.19
846.946	99.16
847.122	95.06
847.297	9.05
847.473	25.43
847.648	19.29
847.824	56.15
847.999	50
848.175	-81.07
848.35	-9.39
848.526	29.52
848.701	25.43
848.876	58.2
849.052	19.29
849.227	52.05
849.403	25.43
849.578	43.86
849.753	19.29
849.929	97.11
850.104	37.72
850.279	52.05
850.454	43.86
850.63	25.43
850.805	66.39
850.98	0.85
851.155	90.96
851.33	15.19
851.505	-21.67
851.681	23.38
851.856	19.29
852.031	29.52
852.206	62.29
852.381	-19.63
852.556	35.67
852.731	50
852.906	74.58
853.081	-21.67
853.256	76.63
853.431	-1.19
853.606	0.85
853.781	-13.48
853.956	-3.24
854.131	50
854.305	52.05
854.48	-89.26
854.655	-40.11
854.83	58.2
855.005	-50.35
855.18	25.43
855.354	60.24
855.529	-7.34
855.704	-46.25
855.879	74.58
856.053	82.77
856.228	107.35
856.403	-23.72
856.577	-3.24
856.752	4.95
856.926	17.24
857.101	-31.91
857.276	60.24
857.45	-3.24
857.625	27.48
857.799	72.53
857.974	2.9
858.148	50
858.323	99.16
858.497	11.09
858.672	-3.24
858.846	-19.63
859.02	0.85
859.195	-3.24
859.369	-21.67
859.543	27.48
859.718	-5.29
859.892	17.24
860.066	-7.34
860.241	-52.39
860.415	43.86
860.589	-27.82
860.763	50
860.938	-7.34
861.112	131.92
861.286	27.48
861.46	9.05
861.634	37.72
861.808	0.85
861.982	-40.11
862.157	-40.11
862.331	37.72
862.505	-21.67
862.679	25.43
862.853	-11.43
863.027	37.72
863.201	60.24
863.375	-15.53
863.549	-23.72
863.722	-19.63
863.896	56.15
864.07	-13.48
864.244	50
864.418	-15.53
864.592	-1.19
864.766	19.29
864.939	58.2
865.113	19.29
865.287	17.24
865.461	-33.96
865.634	82.77
865.808	27.48
865.982	-7.34
866.156	-54.44
866.329	17.24
866.503	4.95
866.676	2.9
866.85	25.43
867.024	-21.67
867.197	23.38
867.371	2.9
867.544	17.24
867.718	-42.15
867.891	111.44
868.065	4.95
868.238	82.77
868.412	84.82
868.585	54.1
868.759	-7.34
868.932	-44.2
869.105	31.57
869.279	25.43
869.452	47.96
869.625	37.72
869.799	-9.39
869.972	41.81
870.145	58.2
870.319	-7.34
870.492	-19.63
870.665	-17.58
870.838	29.52
871.011	-38.06
871.185	-40.11
871.358	-36.01
871.531	27.48
871.704	15.19
871.877	-7.34
872.05	-29.87
872.223	-7.34
872.396	17.24
872.569	-19.63
872.742	-21.67
872.915	56.15
873.088	9.05
873.261	33.62
873.434	43.86
873.607	9.05
873.78	52.05
873.953	66.39
874.126	4.95
874.299	58.2
874.471	33.62
874.644	21.33
874.817	-15.53
874.99	17.24
875.163	4.95
875.335	23.38
875.508	15.19
875.681	29.52
875.853	27.48
876.026	-72.87
876.199	21.33
876.371	45.91
876.544	2.9
876.717	41.81
876.889	-44.2
877.062	0.85
877.234	-81.07
877.407	-40.11
877.579	-38.06
877.752	-31.91
877.924	2.9
878.097	50
878.269	13.14
878.442	25.43
878.614	11.09
878.786	-11.43
878.959	-38.06
879.131	33.62
879.303	41.81
879.476	-7.34
879.648	-38.06
879.82	-33.96
879.993	-40.11
880.165	-79.02
880.337	-48.3
880.509	11.09
880.681	-25.77
880.854	-15.53
881.026	31.57
881.198	33.62
881.37	-40.11
881.542	-64.68
881.714	-31.91
881.886	17.24
882.058	-9.39
882.23	-7.34
882.402	-40.11
882.574	21.33
882.746	-9.39
882.918	27.48
883.09	-21.67
883.262	-40.11
883.434	-5.29
883.606	-70.83
883.778	-27.82
883.95	99.16
884.122	17.24
884.293	-27.82
884.465	7
884.637	23.38
884.809	19.29
884.98	27.48
885.152	37.72
885.324	35.67
885.496	31.57
885.667	27.48
885.839	45.91
886.011	23.38
886.182	9.05
886.354	50
886.525	-72.87
886.697	29.52
886.869	-11.43
887.04	-50.35
887.212	68.44
887.383	117.59
887.555	-25.77
887.726	56.15
887.897	-40.11
888.069	21.33
888.24	-31.91
888.412	-29.87
888.583	9.05
888.754	15.19
888.926	-29.87
889.097	-46.25
889.268	-89.26
889.44	41.81
889.611	-48.3
889.782	-3.24
889.953	9.05
890.125	43.86
890.296	-13.48
890.467	23.38
890.638	17.24
890.809	84.82
890.98	-33.96
891.151	-5.29
891.323	-44.2
891.494	-15.53
891.665	54.1
891.836	58.2
892.007	25.43
892.178	90.96
892.349	11.09
892.52	-23.72
892.691	11.09
892.862	-21.67
893.032	-64.68
893.203	29.52
893.374	-31.91
893.545	7
893.716	17.24
893.887	54.1
894.057	-44.2
894.228	50
894.399	-13.48
894.57	47.96
894.74	17.24
894.911	54.1
895.082	27.48
895.253	-81.07
895.423	-79.02
895.594	17.24
895.764	23.38
895.935	-3.24
896.106	-29.87
896.276	11.09
896.447	-48.3
896.617	-7.34
896.788	2.9
896.958	29.52
897.129	-9.39
897.299	-15.53
897.47	19.29
897.64	-33.96
897.81	-23.72
897.981	-58.54
898.151	-62.63
898.322	-15.53
898.492	21.33
898.662	-54.44
898.832	-21.67
899.003	-19.63
899.173	50
899.343	-19.63
899.513	-11.43
