Data from USB4F104151__11__14-42-34-989.txt Node

Date: Thu Mar 13 14:42:34 EDT 2025
User: louis
Spectrometer: USB4F10415
Trigger mode: 4
Integration Time (sec): 2.000000E-2
Scans to average: 1
Electric dark correction enabled: true
Nonlinearity correction enabled: false
Boxcar width: 0
XAxis mode: Wavelengths
Number of Pixels in Spectrum: 3648
>>>>>Begin Spectral Data<<<<<
178.204	-85.16
178.424	-85.16
178.644	-85.16
178.864	-128.17
179.084	-130.22
179.304	-31.91
179.524	17.24
179.744	21.33
179.964	2.9
180.184	0.85
180.404	-17.58
180.624	52.05
180.844	0.85
181.064	-25.77
181.283	-13.48
181.503	-3.24
181.723	-3.24
181.943	-15.53
182.163	74.58
182.383	0.85
182.602	-3.24
182.822	-5.29
183.042	93.01
183.262	-31.91
183.482	72.53
183.701	21.33
183.921	-7.34
184.141	80.72
184.361	58.2
184.58	35.67
184.8	21.33
185.02	68.44
185.239	13.14
185.459	9.05
185.679	27.48
185.898	45.91
186.118	47.96
186.338	29.52
186.557	101.2
186.777	43.86
186.997	43.86
187.216	21.33
187.436	115.54
187.655	64.34
187.875	13.14
188.095	54.1
188.314	13.14
188.534	80.72
188.753	9.05
188.973	4.95
189.192	90.96
189.412	115.54
189.631	23.38
189.851	-3.24
190.07	52.05
190.29	-36.01
190.509	-5.29
190.729	-25.77
190.948	58.2
191.168	66.39
191.387	99.16
191.607	-48.3
191.826	9.05
192.045	121.68
192.265	33.62
192.484	-13.48
192.704	21.33
192.923	-38.06
193.142	152.4
193.362	37.72
193.581	84.82
193.8	19.29
194.02	111.44
194.239	17.24
194.458	66.39
194.678	41.81
194.897	66.39
195.116	-19.63
195.335	109.4
195.555	58.2
195.774	9.05
195.993	54.1
196.212	17.24
196.432	60.24
196.651	27.48
196.87	47.96
197.089	86.87
197.308	35.67
197.528	17.24
197.747	41.81
197.966	58.2
198.185	109.4
198.404	29.52
198.623	66.39
198.842	2.9
199.062	88.92
199.281	99.16
199.5	117.59
199.719	35.67
199.938	58.2
200.157	95.06
200.376	90.96
200.595	9.05
200.814	54.1
201.033	13.14
201.252	82.77
201.471	17.24
201.69	95.06
201.909	74.58
202.128	86.87
202.347	127.83
202.566	82.77
202.785	35.67
203.004	-70.83
203.223	84.82
203.442	74.58
203.661	19.29
203.879	-27.82
204.098	90.96
204.317	-11.43
204.536	84.82
204.755	95.06
204.974	52.05
205.193	107.35
205.411	78.68
205.63	41.81
205.849	9.05
206.068	15.19
206.287	56.15
206.505	-23.72
206.724	-11.43
206.943	43.86
207.162	25.43
207.381	17.24
207.599	-36.01
207.818	58.2
208.037	62.29
208.255	-33.96
208.474	9.05
208.693	95.06
208.911	41.81
209.13	156.5
209.349	43.86
209.567	41.81
209.786	78.68
210.005	15.19
210.223	-29.87
210.442	37.72
210.661	17.24
210.879	52.05
211.098	107.35
211.316	41.81
211.535	103.25
211.753	-23.72
211.972	50
212.191	13.14
212.409	19.29
212.628	19.29
212.846	31.57
213.065	117.59
213.283	86.87
213.502	52.05
213.72	50
213.938	4.95
214.157	109.4
214.375	97.11
214.594	-5.29
214.812	78.68
215.031	86.87
215.249	78.68
215.467	68.44
215.686	41.81
215.904	95.06
216.122	13.14
216.341	78.68
216.559	25.43
216.778	84.82
216.996	50
217.214	-5.29
217.432	115.54
217.651	-70.83
217.869	-11.43
218.087	33.62
218.306	62.29
218.524	101.2
218.742	54.1
218.96	37.72
219.179	37.72
219.397	25.43
219.615	90.96
219.833	-19.63
220.051	17.24
220.27	41.81
220.488	131.92
220.706	54.1
220.924	4.95
221.142	74.58
221.36	90.96
221.578	68.44
221.796	33.62
222.015	52.05
222.233	27.48
222.451	129.88
222.669	-31.91
222.887	70.48
223.105	11.09
223.323	31.57
223.541	-15.53
223.759	43.86
223.977	-36.01
224.195	111.44
224.413	138.07
224.631	19.29
224.849	82.77
225.067	105.3
225.285	15.19
225.503	37.72
225.721	23.38
225.939	37.72
226.157	45.91
226.375	82.77
226.592	43.86
226.81	-3.24
227.028	33.62
227.246	123.73
227.464	-9.39
227.682	86.87
227.9	74.58
228.117	103.25
228.335	93.01
228.553	33.62
228.771	74.58
228.989	25.43
229.206	-5.29
229.424	105.3
229.642	33.62
229.86	-19.63
230.077	74.58
230.295	-31.91
230.513	115.54
230.731	84.82
230.948	41.81
231.166	103.25
231.384	-1.19
231.601	-48.3
231.819	99.16
232.037	76.63
232.254	25.43
232.472	60.24
232.689	39.76
232.907	95.06
233.125	29.52
233.342	-44.2
233.56	19.29
233.777	58.2
233.995	37.72
234.213	160.59
234.43	60.24
234.648	33.62
234.865	21.33
235.083	56.15
235.3	-7.34
235.518	164.69
235.735	41.81
235.953	133.97
236.17	50
236.388	25.43
236.605	-79.02
236.822	113.49
237.04	58.2
237.257	68.44
237.475	13.14
237.692	43.86
237.909	31.57
238.127	-3.24
238.344	58.2
238.562	25.43
238.779	84.82
238.996	74.58
239.214	37.72
239.431	109.4
239.648	-3.24
239.865	84.82
240.083	50
240.3	27.48
240.517	13.14
240.735	25.43
240.952	93.01
241.169	2.9
241.386	-5.29
241.603	0.85
241.821	54.1
242.038	90.96
242.255	86.87
242.472	-36.01
242.689	82.77
242.907	93.01
243.124	58.2
243.341	78.68
243.558	25.43
243.775	107.35
243.992	54.1
244.209	74.58
244.426	146.26
244.643	62.29
244.86	-19.63
245.078	78.68
245.295	90.96
245.512	33.62
245.729	9.05
245.946	86.87
246.163	54.1
246.38	25.43
246.597	0.85
246.814	-11.43
247.031	-23.72
247.248	23.38
247.464	29.52
247.681	27.48
247.898	41.81
248.115	33.62
248.332	-13.48
248.549	88.92
248.766	80.72
248.983	31.57
249.2	66.39
249.417	35.67
249.633	-7.34
249.85	72.53
250.067	-38.06
250.284	101.2
250.501	43.86
250.717	82.77
250.934	27.48
251.151	2.9
251.368	-11.43
251.585	78.68
251.801	76.63
252.018	-15.53
252.235	125.78
252.451	97.11
252.668	60.24
252.885	23.38
253.102	82.77
253.318	-5.29
253.535	-17.58
253.752	-54.44
253.968	-56.49
254.185	-29.87
254.401	54.1
254.618	82.77
254.835	-19.63
255.051	39.76
255.268	21.33
255.484	50
255.701	-36.01
255.917	117.59
256.134	-31.91
256.351	35.67
256.567	15.19
256.784	25.43
257	74.58
257.217	43.86
257.433	50
257.65	82.77
257.866	21.33
258.082	25.43
258.299	123.73
258.515	58.2
258.732	-52.39
258.948	-36.01
259.165	50
259.381	-42.15
259.597	-31.91
259.814	-23.72
260.03	68.44
260.246	-1.19
260.463	86.87
260.679	33.62
260.895	19.29
261.112	70.48
261.328	74.58
261.544	0.85
261.761	127.83
261.977	13.14
262.193	4.95
262.409	25.43
262.626	64.34
262.842	19.29
263.058	33.62
263.274	23.38
263.49	-7.34
263.707	50
263.923	41.81
264.139	62.29
264.355	95.06
264.571	17.24
264.787	17.24
265.004	82.77
265.22	103.25
265.436	109.4
265.652	62.29
265.868	58.2
266.084	33.62
266.3	29.52
266.516	-9.39
266.732	29.52
266.948	21.33
267.164	62.29
267.38	64.34
267.596	41.81
267.812	29.52
268.028	23.38
268.244	0.85
268.46	21.33
268.676	115.54
268.892	68.44
269.108	29.52
269.324	74.58
269.54	-40.11
269.756	68.44
269.972	58.2
270.188	43.86
270.403	95.06
270.619	35.67
270.835	37.72
271.051	50
271.267	-27.82
271.483	-11.43
271.698	86.87
271.914	41.81
272.13	-38.06
272.346	72.53
272.562	9.05
272.777	97.11
272.993	31.57
273.209	0.85
273.425	4.95
273.64	29.52
273.856	66.39
274.072	41.81
274.287	17.24
274.503	33.62
274.719	15.19
274.934	47.96
275.15	9.05
275.366	25.43
275.581	52.05
275.797	76.63
276.012	-19.63
276.228	74.58
276.444	50
276.659	50
276.875	66.39
277.09	15.19
277.306	47.96
277.521	-36.01
277.737	39.76
277.952	50
278.168	60.24
278.383	47.96
278.599	66.39
278.814	23.38
279.03	88.92
279.245	86.87
279.461	82.77
279.676	54.1
279.892	-64.68
280.107	9.05
280.322	66.39
280.538	66.39
280.753	60.24
280.969	76.63
281.184	9.05
281.399	144.21
281.615	66.39
281.83	58.2
282.045	33.62
282.26	29.52
282.476	70.48
282.691	33.62
282.906	29.52
283.122	13.14
283.337	43.86
283.552	50
283.767	13.14
283.983	82.77
284.198	45.91
284.413	82.77
284.628	19.29
284.843	58.2
285.058	52.05
285.274	25.43
285.489	33.62
285.704	95.06
285.919	-9.39
286.134	58.2
286.349	68.44
286.564	-21.67
286.779	101.2
286.995	-1.19
287.21	13.14
287.425	78.68
287.64	39.76
287.855	-50.35
288.07	9.05
288.285	68.44
288.5	95.06
288.715	109.4
288.93	66.39
289.145	68.44
289.36	66.39
289.575	-23.72
289.79	-3.24
290.004	43.86
290.219	58.2
290.434	82.77
290.649	11.09
290.864	17.24
291.079	31.57
291.294	68.44
291.509	43.86
291.724	78.68
291.938	-60.59
292.153	9.05
292.368	4.95
292.583	62.29
292.798	31.57
293.012	37.72
293.227	19.29
293.442	50
293.657	125.78
293.871	90.96
294.086	66.39
294.301	74.58
294.516	82.77
294.73	66.39
294.945	19.29
295.16	-5.29
295.374	45.91
295.589	66.39
295.804	35.67
296.018	43.86
296.233	50
296.447	60.24
296.662	76.63
296.877	117.59
297.091	93.01
297.306	-60.59
297.52	82.77
297.735	88.92
297.949	72.53
298.164	105.3
298.378	9.05
298.593	11.09
298.807	35.67
299.022	45.91
299.236	11.09
299.451	47.96
299.665	41.81
299.88	66.39
300.094	31.57
300.309	43.86
300.523	-15.53
300.737	66.39
300.952	45.91
301.166	27.48
301.381	-17.58
301.595	0.85
301.809	11.09
302.024	-19.63
302.238	33.62
302.452	41.81
302.667	-29.87
302.881	9.05
303.095	50
303.309	52.05
303.524	7
303.738	99.16
303.952	25.43
304.166	54.1
304.381	2.9
304.595	84.82
304.809	27.48
305.023	68.44
305.237	35.67
305.452	41.81
305.666	60.24
305.88	66.39
306.094	86.87
306.308	19.29
306.522	33.62
306.736	23.38
306.95	41.81
307.164	45.91
307.379	39.76
307.593	90.96
307.807	127.83
308.021	43.86
308.235	-38.06
308.449	19.29
308.663	54.1
308.877	37.72
309.091	41.81
309.305	56.15
309.519	-9.39
309.733	29.52
309.947	-36.01
310.161	117.59
310.374	66.39
310.588	84.82
310.802	-5.29
311.016	37.72
311.23	142.16
311.444	54.1
311.658	76.63
311.872	74.58
312.085	27.48
312.299	109.4
312.513	35.67
312.727	50
312.941	-23.72
313.154	45.91
313.368	-31.91
313.582	62.29
313.796	41.81
314.009	54.1
314.223	41.81
314.437	58.2
314.651	66.39
314.864	17.24
315.078	-13.48
315.292	-5.29
315.505	74.58
315.719	111.44
315.933	39.76
316.146	74.58
316.36	95.06
316.573	125.78
316.787	86.87
317.001	72.53
317.214	52.05
317.428	35.67
317.641	58.2
317.855	50
318.068	95.06
318.282	66.39
318.495	111.44
318.709	50
318.922	-29.87
319.136	107.35
319.349	45.91
319.563	17.24
319.776	60.24
319.99	31.57
320.203	95.06
320.417	25.43
320.63	107.35
320.843	150.36
321.057	23.38
321.27	21.33
321.483	68.44
321.697	50
321.91	58.2
322.124	93.01
322.337	23.38
322.55	-38.06
322.763	-3.24
322.977	58.2
323.19	17.24
323.403	43.86
323.617	-40.11
323.83	107.35
324.043	56.15
324.256	9.05
324.469	13.14
324.683	62.29
324.896	33.62
325.109	29.52
325.322	13.14
325.535	66.39
325.748	80.72
325.962	58.2
326.175	62.29
326.388	17.24
326.601	84.82
326.814	7
327.027	27.48
327.24	99.16
327.453	17.24
327.666	136.02
327.879	25.43
328.092	64.34
328.305	58.2
328.518	68.44
328.731	9.05
328.944	101.2
329.157	88.92
329.37	56.15
329.583	39.76
329.796	119.64
330.009	0.85
330.222	70.48
330.435	54.1
330.648	45.91
330.861	74.58
331.073	45.91
331.286	37.72
331.499	-13.48
331.712	17.24
331.925	33.62
332.138	107.35
332.35	86.87
332.563	62.29
332.776	62.29
332.989	11.09
333.202	68.44
333.414	131.92
333.627	0.85
333.84	82.77
334.053	17.24
334.265	35.67
334.478	29.52
334.691	37.72
334.903	29.52
335.116	9.05
335.329	19.29
335.541	84.82
335.754	80.72
335.966	25.43
336.179	62.29
336.392	17.24
336.604	50
336.817	50
337.029	125.78
337.242	9.05
337.454	90.96
337.667	88.92
337.88	41.81
338.092	25.43
338.305	33.62
338.517	37.72
338.729	33.62
338.942	25.43
339.154	50
339.367	9.05
339.579	29.52
339.792	-23.72
340.004	47.96
340.217	43.86
340.429	37.72
340.641	-11.43
340.854	70.48
341.066	54.1
341.278	11.09
341.491	62.29
341.703	25.43
341.915	-76.97
342.128	82.77
342.34	25.43
342.552	74.58
342.764	70.48
342.977	-1.19
343.189	4.95
343.401	99.16
343.613	-5.29
343.826	45.91
344.038	50
344.25	115.54
344.462	-29.87
344.674	74.58
344.886	9.05
345.099	54.1
345.311	72.53
345.523	29.52
345.735	-5.29
345.947	45.91
346.159	60.24
346.371	70.48
346.583	-15.53
346.795	107.35
347.007	25.43
347.219	45.91
347.431	-7.34
347.643	58.2
347.855	-62.63
348.067	123.73
348.279	0.85
348.491	82.77
348.703	45.91
348.915	50
349.127	82.77
349.339	60.24
349.551	17.24
349.763	25.43
349.975	50
350.187	90.96
350.399	119.64
350.61	64.34
350.822	35.67
351.034	66.39
351.246	50
351.458	58.2
351.669	107.35
351.881	133.97
352.093	115.54
352.305	88.92
352.517	66.39
352.728	68.44
352.94	27.48
353.152	35.67
353.363	66.39
353.575	76.63
353.787	78.68
353.999	58.2
354.21	76.63
354.422	50
354.633	41.81
354.845	117.59
355.057	21.33
355.268	66.39
355.48	140.12
355.692	2.9
355.903	52.05
356.115	-11.43
356.326	-5.29
356.538	33.62
356.749	35.67
356.961	140.12
357.172	17.24
357.384	76.63
357.595	133.97
357.807	74.58
358.018	82.77
358.23	90.96
358.441	150.36
358.653	58.2
358.864	105.3
359.075	56.15
359.287	9.05
359.498	156.5
359.709	-5.29
359.921	78.68
360.132	105.3
360.344	33.62
360.555	62.29
360.766	35.67
360.977	17.24
361.189	119.64
361.4	29.52
361.611	111.44
361.823	174.93
362.034	9.05
362.245	15.19
362.456	90.96
362.667	88.92
362.879	84.82
363.09	60.24
363.301	68.44
363.512	107.35
363.723	-11.43
363.935	19.29
364.146	50
364.357	-5.29
364.568	62.29
364.779	-19.63
364.99	101.2
365.201	19.29
365.412	107.35
365.623	74.58
365.834	-11.43
366.045	50
366.256	70.48
366.467	7
366.678	37.72
366.889	23.38
367.1	33.62
367.311	-54.44
367.522	19.29
367.733	107.35
367.944	68.44
368.155	39.76
368.366	86.87
368.577	60.24
368.788	-13.48
368.999	-15.53
369.209	68.44
369.42	121.68
369.631	133.97
369.842	60.24
370.053	86.87
370.264	82.77
370.474	41.81
370.685	35.67
370.896	105.3
371.107	115.54
371.317	80.72
371.528	99.16
371.739	140.12
371.95	93.01
372.16	119.64
372.371	-13.48
372.582	90.96
372.792	99.16
373.003	93.01
373.214	84.82
373.424	119.64
373.635	50
373.846	29.52
374.056	68.44
374.267	62.29
374.477	95.06
374.688	54.1
374.898	101.2
375.109	90.96
375.319	50
375.53	99.16
375.74	-25.77
375.951	25.43
376.161	86.87
376.372	179.03
376.582	82.77
376.793	50
377.003	45.91
377.214	-23.72
377.424	90.96
377.635	78.68
377.845	0.85
378.055	64.34
378.266	54.1
378.476	33.62
378.686	45.91
378.897	93.01
379.107	50
379.317	123.73
379.528	56.15
379.738	25.43
379.948	27.48
380.158	54.1
380.369	66.39
380.579	74.58
380.789	64.34
380.999	74.58
381.21	0.85
381.42	115.54
381.63	-15.53
381.84	123.73
382.05	68.44
382.261	19.29
382.471	90.96
382.681	76.63
382.891	74.58
383.101	27.48
383.311	90.96
383.521	29.52
383.731	35.67
383.941	121.68
384.151	76.63
384.361	54.1
384.571	-5.29
384.781	78.68
384.991	-3.24
385.201	158.55
385.411	27.48
385.621	17.24
385.831	17.24
386.041	88.92
386.251	45.91
386.461	93.01
386.671	50
386.881	117.59
387.091	25.43
387.301	58.2
387.511	52.05
387.72	74.58
387.93	-7.34
388.14	33.62
388.35	43.86
388.56	60.24
388.769	60.24
388.979	50
389.189	-15.53
389.399	29.52
389.609	125.78
389.818	131.92
390.028	27.48
390.238	25.43
390.447	97.11
390.657	58.2
390.867	11.09
391.076	43.86
391.286	35.67
391.496	35.67
391.705	101.2
391.915	17.24
392.125	78.68
392.334	90.96
392.544	99.16
392.753	74.58
392.963	86.87
393.172	148.31
393.382	-52.39
393.591	156.5
393.801	45.91
394.01	150.36
394.22	60.24
394.429	101.2
394.639	119.64
394.848	54.1
395.058	103.25
395.267	54.1
395.477	90.96
395.686	103.25
395.895	148.31
396.105	76.63
396.314	86.87
396.524	-52.39
396.733	76.63
396.942	133.97
397.152	105.3
397.361	74.58
397.57	93.01
397.78	25.43
397.989	133.97
398.198	107.35
398.407	60.24
398.617	43.86
398.826	41.81
399.035	64.34
399.244	82.77
399.453	84.82
399.663	121.68
399.872	107.35
400.081	0.85
400.29	99.16
400.499	58.2
400.708	133.97
400.917	99.16
401.127	76.63
401.336	95.06
401.545	111.44
401.754	62.29
401.963	174.93
402.172	35.67
402.381	43.86
402.59	78.68
402.799	90.96
403.008	43.86
403.217	121.68
403.426	144.21
403.635	117.59
403.844	72.53
404.053	125.78
404.262	148.31
404.471	140.12
404.68	86.87
404.888	74.58
405.097	136.02
405.306	82.77
405.515	101.2
405.724	166.74
405.933	150.36
406.142	95.06
406.35	103.25
406.559	66.39
406.768	90.96
406.977	205.65
407.185	183.12
407.394	131.92
407.603	37.72
407.812	158.55
408.02	176.98
408.229	265.04
408.438	197.46
408.646	103.25
408.855	164.69
409.064	207.7
409.272	172.88
409.481	172.88
409.69	181.07
409.898	136.02
410.107	195.41
410.315	279.38
410.524	123.73
410.733	230.23
410.941	205.65
411.15	342.86
411.358	279.38
411.567	297.81
411.775	156.5
411.984	338.77
412.192	279.38
412.401	242.51
412.609	369.49
412.818	320.34
413.026	328.53
413.234	258.9
413.443	283.47
413.651	336.72
413.86	402.26
414.068	344.91
414.276	389.97
414.485	377.68
414.693	437.07
414.901	465.74
415.11	465.74
415.318	467.79
415.526	443.21
415.734	500.56
415.943	537.42
416.151	516.94
416.359	533.33
416.567	527.18
416.776	576.33
416.984	562
417.192	658.25
417.4	598.86
417.608	625.48
417.817	566.09
418.025	721.74
418.233	697.16
418.441	680.78
418.649	682.83
418.857	920.39
419.065	840.52
419.273	713.55
419.481	828.23
419.689	869.19
419.897	840.52
420.105	881.48
420.313	1004.36
420.521	975.69
420.729	918.34
420.937	1004.36
421.145	1063.75
421.353	1114.95
421.561	1219.39
421.769	1088.32
421.977	1258.31
422.185	1225.54
422.393	1237.83
422.601	1411.9
422.809	1385.28
423.017	1315.65
423.224	1407.81
423.432	1450.82
423.64	1622.84
423.848	1639.23
424.056	1575.74
424.263	1614.65
424.471	1663.8
424.679	1803.07
424.887	1856.31
425.094	1876.79
425.302	1962.81
425.51	2069.3
425.718	2140.98
425.925	2003.77
426.133	2140.98
426.341	2239.28
426.548	2370.35
426.756	2319.15
426.964	2345.78
427.171	2534.19
427.379	2485.04
427.586	2622.25
427.794	2714.41
428.001	2837.29
428.209	3031.85
428.417	2906.92
428.624	2978.6
428.832	3023.66
429.039	3142.44
429.247	3048.23
429.454	3304.23
429.662	3498.78
429.869	3420.96
430.076	3609.37
430.284	3494.69
430.491	3658.53
430.699	3746.59
430.906	3760.92
431.114	3877.66
431.321	4119.32
431.528	4033.3
431.736	4199.19
431.943	4524.82
432.15	4449.04
432.358	4401.94
432.565	4715.28
432.772	4547.34
432.979	4885.26
433.187	4977.42
433.394	5030.66
433.601	5432.07
433.808	5393.16
434.016	5288.71
434.223	5538.56
434.43	5899
434.637	5622.53
434.844	6023.93
435.052	6173.43
435.259	6161.14
435.466	6359.8
435.673	6118.14
435.88	6587.12
436.087	6922.99
436.294	7000.81
436.501	6869.74
436.708	6867.69
436.915	7170.79
437.122	7389.92
437.329	7449.32
437.537	7586.53
437.743	7555.81
437.95	7725.79
438.157	8121.05
438.364	8213.21
438.571	8456.92
438.778	8225.5
438.985	9378.5
439.192	8950.48
439.399	9013.96
439.606	9196.23
439.813	9396.93
440.02	9972.41
440.227	9949.89
440.433	9724.61
440.64	10035.9
440.847	9890.49
441.054	10011.32
441.261	10711.73
441.467	10506.93
441.674	10640.05
441.881	11264.68
442.088	11661.99
442.294	11076.27
442.501	11307.69
442.708	11774.63
442.914	12165.79
443.121	12847.76
443.328	12255.9
443.534	13060.75
443.741	12812.95
443.948	12710.55
444.154	13453.96
444.361	13580.93
444.568	13714.05
444.774	13505.16
444.981	13961.86
445.187	14144.13
445.394	14695.03
445.6	14623.35
445.807	16058.98
446.013	15503.98
446.22	15657.57
446.426	16415.32
446.633	16400.99
446.839	16970.32
447.046	16155.23
447.252	17179.22
447.459	17216.08
447.665	17105.49
447.871	18143.81
448.078	18747.96
448.284	17654.34
448.491	18082.37
448.697	19057.2
448.903	19216.94
449.11	19577.39
449.316	18993.72
449.522	19276.34
449.728	19868.2
449.935	20077.09
450.141	20001.32
450.347	20445.73
450.553	19921.45
450.76	20107.81
450.966	21154.32
451.172	20415.01
451.378	21076.5
451.584	20578.84
451.791	21402.13
451.997	21041.68
452.203	21475.85
452.409	21613.07
452.615	21367.31
452.821	20820.5
453.027	20312.61
453.233	21778.95
453.44	20558.36
453.646	20853.27
453.852	20881.94
454.058	21518.86
454.264	20910.61
454.47	21498.38
454.676	20707.87
454.882	21373.46
455.088	19522.09
455.294	20185.63
455.5	20572.7
455.705	20242.98
455.911	19483.18
456.117	18928.18
456.323	18954.8
456.529	17951.3
456.735	18704.95
456.941	18301.5
457.147	18156.1
457.352	17504.84
457.558	17091.15
457.764	17181.26
457.97	17044.05
458.176	16708.18
458.381	16771.67
458.587	15714.92
458.793	15878.76
458.999	15034.99
459.204	16142.94
459.41	15688.29
459.616	14566.01
459.821	14795.38
460.027	14846.58
460.233	14385.79
460.438	13757.06
460.644	13726.34
460.85	13200.01
461.055	13140.62
461.261	13089.42
461.466	11920.03
461.672	11711.14
461.878	12403.35
462.083	11526.82
462.289	11410.09
462.494	11371.18
462.7	10850.99
462.905	10603.19
463.111	10896.05
463.316	10713.78
463.522	10660.53
463.727	10519.22
463.932	10736.31
464.138	10517.17
464.343	10545.84
464.549	10392.25
464.754	10705.59
464.959	10453.69
465.165	10363.58
465.37	10048.19
465.575	9677.51
465.781	10365.62
465.986	10255.03
466.191	9880.25
466.397	9505.48
466.602	9339.59
466.807	9427.65
467.012	9661.12
467.218	9495.24
467.423	9171.66
467.628	9464.52
467.833	9814.72
468.038	9644.74
468.244	9155.27
468.449	9603.78
468.654	9173.71
468.859	9048.78
469.064	9040.59
469.269	8835.79
469.474	8979.15
469.679	8946.38
469.885	8860.37
470.09	8970.96
470.295	8717.01
470.5	8628.95
470.705	8688.34
470.91	8407.77
471.115	8544.98
471.32	8657.62
471.525	8518.36
471.73	8364.76
471.935	8309.46
472.139	8059.61
472.344	7875.29
472.549	7903.96
472.754	7848.67
472.959	7766.75
473.164	7570.15
473.369	7553.76
473.574	7760.61
473.778	7752.42
473.983	7627.49
474.188	7701.22
474.393	7162.6
474.598	7308.01
474.802	7381.73
475.007	7148.26
475.212	7326.44
475.417	7029.48
475.621	7017.19
475.826	6943.47
476.031	6832.88
476.235	6640.37
476.44	6740.72
476.645	6808.3
476.849	6574.83
477.054	6615.79
477.259	6529.78
477.463	6456.05
477.668	6316.79
477.872	6335.22
478.077	6382.32
478.282	6075.13
478.486	5923.58
478.691	6177.53
478.895	6169.34
479.1	6083.32
479.304	6071.03
479.509	5759.74
479.713	5792.51
479.918	5878.52
480.122	5772.03
480.326	5833.47
480.531	5704.45
480.735	5804.8
480.94	5755.65
481.144	5847.8
481.348	5600
481.553	5628.67
481.757	5712.64
481.961	5554.94
482.166	5792.51
482.37	5628.67
482.574	5661.44
482.778	5679.87
482.983	5673.73
483.187	5630.72
483.391	5636.86
483.595	5645.06
483.8	5595.9
484.004	5645.06
484.208	5620.48
484.412	5444.35
484.616	5653.25
484.821	5591.81
485.025	5436.16
485.229	5544.7
485.433	5554.94
485.637	5665.53
485.841	5542.66
486.045	5595.9
486.249	5509.89
486.453	5600
486.657	5587.71
486.861	5673.73
487.065	5415.68
487.269	5548.8
487.473	5366.53
487.677	5690.11
487.881	5712.64
488.085	5526.27
488.289	5718.78
488.493	5473.03
488.697	5743.36
488.901	5673.73
489.105	5751.55
489.309	5481.22
489.512	5741.31
489.716	5589.76
489.92	5726.97
490.124	5634.82
490.328	5894.91
490.531	5690.11
490.735	5679.87
490.939	5726.97
491.143	5735.17
491.346	5698.3
491.55	5901.05
491.754	5628.67
491.958	5985.02
492.161	5780.22
492.365	5964.54
492.569	5751.55
492.772	5931.77
492.976	5925.63
493.18	6005.5
493.383	6038.27
493.587	6138.62
493.79	6245.11
493.994	6064.89
494.197	6212.34
494.401	6144.76
494.605	6269.69
494.808	6306.55
495.012	6417.14
495.215	6234.87
495.419	6363.89
495.622	6378.23
495.825	6494.96
496.029	6513.39
496.232	6890.22
496.436	6503.15
496.639	6849.26
496.843	6681.33
497.046	6873.84
497.249	6959.85
497.453	7123.69
497.656	7111.4
497.859	6898.41
498.063	7201.51
498.266	7236.33
498.469	7232.23
498.673	7312.1
498.876	7582.43
499.079	7619.3
499.282	7484.13
499.485	7795.42
499.689	7791.33
499.892	7678.69
500.095	7621.35
500.298	8086.23
500.501	8028.89
500.705	8063.71
500.908	8377.05
501.111	8477.4
501.314	8612.56
501.517	8690.38
501.72	8737.49
501.923	8587.99
502.126	8800.98
502.329	8862.41
502.532	9040.59
502.735	9102.03
502.938	9196.23
503.141	9224.9
503.344	9384.65
503.547	9648.83
503.75	9759.42
503.953	9874.11
504.156	9835.2
504.359	10177.21
504.562	10134.2
504.765	10203.83
504.968	10216.12
505.17	10476.21
505.373	10633.91
505.576	10627.76
505.779	10674.87
505.982	11023.02
506.185	11068.08
506.387	11051.69
506.59	11289.26
506.793	11473.57
506.996	11229.87
507.198	11887.26
507.401	11641.51
507.604	11842.21
507.807	12178.08
508.009	12331.67
508.212	12262.04
508.415	12505.75
508.617	12495.51
508.82	12569.24
509.022	12741.27
509.225	12964.5
509.428	13075.09
509.63	13193.87
509.833	13320.84
510.035	13417.1
510.238	13417.1
510.44	13496.97
510.643	13765.25
510.845	14113.41
511.048	13914.75
511.25	14381.69
511.453	14475.9
511.655	14938.74
511.858	14666.36
512.06	14783.09
512.262	14975.6
512.465	14916.21
512.667	15401.58
512.87	15231.6
513.072	15331.95
513.274	15712.87
513.477	16147.04
513.679	16147.04
513.881	16259.68
514.084	16339.55
514.286	16511.58
514.488	16616.02
514.69	16808.53
514.893	17128.02
515.095	17283.66
515.297	17549.9
515.499	17570.38
515.701	17396.3
515.904	17885.76
516.106	18102.85
516.308	18317.89
516.51	18346.56
516.712	18397.76
516.914	18559.55
517.116	18768.44
517.318	19042.87
517.52	19114.55
517.722	19003.96
517.925	19464.75
518.127	19943.97
518.329	19685.93
518.531	19710.5
518.733	20298.27
518.935	20271.65
519.136	20728.35
519.338	20687.39
519.54	21029.4
519.742	21430.8
519.944	21316.11
520.146	21586.44
520.348	21625.36
520.55	21651.98
520.752	21893.64
520.954	22190.59
521.155	22325.76
521.357	22315.52
521.559	22782.46
521.761	22845.94
521.963	22974.97
522.164	23058.93
522.366	23167.48
522.568	23394.8
522.77	23702
522.971	24070.63
523.173	24150.5
523.375	23847.4
523.576	23978.47
523.778	24236.52
523.98	24676.83
524.181	24824.28
524.383	24818.14
524.584	24932.82
524.786	25293.27
524.988	25180.63
525.189	25448.91
525.391	25334.23
525.592	25688.53
525.794	25752.01
525.995	25831.88
526.197	25711.05
526.398	25899.47
526.6	26382.79
526.801	26124.74
527.003	26333.64
527.204	26538.43
527.406	27025.85
527.607	26859.96
527.808	27025.85
528.01	26110.41
528.211	26819
528.412	27593.14
528.614	27079.1
528.815	27300.28
529.016	27529.65
529.218	27312.56
529.419	27462.07
529.62	27425.2
529.822	27656.62
530.023	27853.23
530.224	27543.99
530.425	27849.13
530.626	27484.59
530.828	27662.77
531.029	27830.7
531.23	27812.27
531.431	27836.84
531.632	27972.01
531.833	28076.46
532.035	28094.89
532.236	28404.13
532.437	28244.39
532.638	28426.66
532.839	28567.97
533.04	28586.4
533.241	28015.02
533.442	28533.15
533.643	28479.91
533.844	28455.33
534.045	28322.21
534.246	28017.07
534.447	28471.71
534.648	28211.62
534.849	28602.78
535.05	27924.91
535.251	28438.95
535.451	28395.94
535.652	28625.31
535.853	28514.72
536.054	28684.7
536.255	28883.36
536.456	28567.97
536.657	29141.4
536.857	28531.11
537.058	28623.26
537.259	28656.03
537.46	28514.72
537.66	28262.82
537.861	28559.78
538.062	28625.31
538.263	28952.99
538.463	28393.89
538.664	28375.46
538.865	28486.05
539.065	28490.15
539.266	28320.17
539.466	28795.29
539.667	28238.25
539.868	28723.62
540.068	28410.28
540.269	28379.56
540.469	29028.76
540.67	28709.28
540.87	28416.42
541.071	28492.19
541.271	28856.73
541.472	28416.42
541.672	28756.38
541.873	28238.25
542.073	28359.08
542.274	28815.77
542.474	28311.97
542.675	28281.25
542.875	28709.28
543.075	28703.14
543.276	28369.32
543.476	28512.67
543.676	28301.73
543.877	28840.35
544.077	28166.57
544.277	28268.97
544.478	28449.19
544.678	28359.08
544.878	28295.59
545.078	28318.12
545.279	28422.56
545.479	28176.81
545.679	28385.7
545.879	28447.14
546.079	28373.41
546.28	28221.86
546.48	28090.79
546.68	28408.23
546.88	28463.52
547.08	28506.53
547.28	28348.84
547.48	28094.89
547.68	28363.17
547.88	28287.4
548.081	28271.01
548.281	27914.67
548.481	27924.91
548.681	28557.73
548.881	28469.67
549.081	28150.18
549.28	28334.5
549.48	28613.02
549.68	28322.21
549.88	28346.79
550.08	28148.14
550.28	27980.2
550.48	28529.06
550.68	28307.88
550.88	28109.22
551.08	28256.68
551.279	28416.42
551.479	27990.44
551.679	28352.93
551.879	28180.9
552.079	28258.73
552.278	28008.87
552.478	28129.7
552.678	28244.39
552.878	28309.93
553.077	27961.77
553.277	27646.38
553.477	28144.04
553.676	28160.42
553.876	28107.18
554.076	28150.18
554.275	28121.51
554.475	27691.44
554.674	28311.97
554.874	27814.32
555.074	27513.27
555.273	28053.93
555.473	28211.62
555.672	27879.85
555.872	27679.15
556.071	27922.86
556.271	27959.72
556.47	27746.73
556.67	27308.47
556.869	27410.87
557.068	27779.5
557.268	27427.25
557.467	27255.22
557.667	27787.69
557.866	27357.62
558.065	27570.61
558.265	27287.99
558.464	27531.7
558.663	27664.82
558.863	27036.09
559.062	27509.17
559.261	27077.05
559.461	27355.57
559.66	26964.41
559.859	27187.64
560.058	26847.68
560.258	27120.06
560.457	26769.85
560.656	27165.11
560.855	26839.48
561.054	26878.4
561.253	26509.76
561.453	26618.3
561.652	26833.34
561.851	26829.24
562.05	26337.73
562.249	26493.38
562.448	26567.1
562.647	26839.48
562.846	26534.34
563.045	26460.61
563.244	26200.52
563.443	26599.87
563.642	25944.52
563.841	26296.77
564.04	26202.57
564.239	26239.43
564.438	25895.37
564.637	25797.07
564.836	25950.67
565.035	25725.39
565.234	26069.45
565.432	25942.47
565.631	25684.43
565.83	25926.09
566.029	25508.3
566.228	25371.09
566.427	25702.86
566.625	25625.04
566.824	25104.85
567.023	25518.54
567.222	24670.68
567.42	25721.29
567.619	25094.61
567.818	25160.15
568.016	25194.96
568.215	25074.13
568.414	24916.44
568.612	25215.44
568.811	24623.58
569.01	24672.73
569.208	24343.01
569.407	24748.51
569.605	24396.26
569.804	24234.47
570.002	24386.02
570.201	24304.1
570.4	24273.38
570.598	24044.01
570.797	24121.83
570.995	24039.91
571.193	23728.62
571.392	24144.36
571.59	23857.64
571.789	23974.38
571.987	24080.87
572.186	23753.19
572.384	23351.79
572.582	23464.43
572.781	23380.46
572.979	23345.65
573.177	23529.97
573.376	23431.66
573.574	23114.23
573.772	23446
573.971	22901.24
574.169	23103.99
574.367	22864.38
574.565	23190
574.763	22761.98
574.962	23136.76
575.16	22032.9
575.358	22548.99
575.556	22340.1
575.754	22553.09
575.952	22460.93
576.151	22477.31
576.349	22243.84
576.547	22266.37
576.745	21971.46
576.943	22284.8
577.141	21928.45
577.339	22053.38
577.537	21961.22
577.735	22227.46
577.933	21834.25
578.131	21883.4
578.329	21705.23
578.527	21525
578.725	21725.71
578.923	21805.58
579.121	21735.95
579.319	21314.06
579.516	21418.51
579.714	21500.43
579.912	21060.12
580.11	21168.66
580.308	21152.27
580.506	21027.35
580.704	20963.86
580.901	21148.18
581.099	21230.1
581.297	21006.87
581.495	20738.58
581.692	20636.19
581.89	20627.99
582.088	20849.18
582.285	20521.5
582.483	20582.94
582.681	20802.07
582.878	20505.12
583.076	20281.89
583.274	20707.87
583.471	20095.52
583.669	20394.53
583.866	20066.85
584.064	20398.62
584.262	19978.79
584.459	19823.14
584.657	19898.92
584.854	20038.18
585.052	19735.08
585.249	19681.83
585.447	19925.54
585.644	19601.96
585.841	19733.03
586.039	19866.15
586.236	19567.15
586.434	19278.38
586.631	19167.79
586.828	19237.42
587.026	19262
587.223	19057.2
587.42	19167.79
587.618	19245.62
587.815	18979.38
588.012	18700.86
588.21	18913.84
588.407	18887.22
588.604	18645.56
588.801	18688.57
588.999	18647.61
589.196	18823.73
589.393	18678.33
589.59	18610.75
589.787	18778.68
589.984	18391.61
590.182	18229.82
590.379	18408
590.576	18285.12
590.773	18340.41
590.97	17916.48
591.167	18080.32
591.364	18031.17
591.561	18113.09
591.758	17762.89
591.955	17924.68
592.152	17900.1
592.349	17818.18
592.546	17916.48
592.743	17850.95
592.94	17400.4
593.137	17857.09
593.334	17734.21
593.531	17488.46
593.727	17279.57
593.924	17490.51
594.121	17197.65
594.318	17599.05
594.515	17017.43
594.712	17359.44
594.908	16937.55
595.105	17003.09
595.302	16939.6
595.499	16872.02
595.696	17060.43
595.892	16781.91
596.089	16851.54
596.286	17138.26
596.482	16818.77
596.679	16829.01
596.876	16759.38
597.072	16654.94
597.269	16566.87
597.466	16515.67
597.662	16183.9
597.859	16165.47
598.055	16370.27
598.252	16118.37
598.448	16327.26
598.645	16423.51
598.841	16110.18
599.038	16298.59
599.234	16376.41
599.431	15983.2
599.627	15927.91
599.824	16009.83
600.02	15630.95
600.217	15843.94
600.413	15518.31
600.609	15852.13
600.806	15686.25
601.002	15546.98
601.198	15495.78
601.395	15463.02
601.591	15737.45
601.787	15407.72
601.984	15440.49
602.18	15164.01
602.376	15344.24
602.572	15184.49
602.769	15372.91
602.965	15073.9
603.161	15198.83
603.357	15149.68
603.553	14967.41
603.75	14953.07
603.946	14633.59
604.142	14869.11
604.338	14715.51
604.534	14750.32
604.73	14676.6
604.926	14639.73
605.122	14506.62
605.318	14627.45
605.514	14807.67
605.71	14582.39
605.906	14512.76
606.102	14469.75
606.298	14324.35
606.494	14396.03
606.69	14320.25
606.886	14455.42
607.082	13955.71
607.278	14201.47
607.474	13974.14
607.67	14213.76
607.866	13994.62
608.062	14047.87
608.257	13959.81
608.453	13865.6
608.649	13863.55
608.845	13886.08
609.041	13855.36
609.236	13879.94
609.432	13775.49
609.628	13724.29
609.824	13671.04
610.019	13462.15
610.215	13546.12
610.411	13580.93
610.606	13628.04
610.802	13488.78
610.998	13640.33
611.193	13456.01
611.389	13413
611.584	13472.39
611.78	13318.79
611.976	13212.3
612.171	13517.45
612.367	13304.46
612.562	13367.95
612.758	12987.02
612.953	13099.66
613.149	13345.42
613.344	13130.38
613.539	13261.45
613.735	13066.89
613.93	13234.83
614.126	13099.66
614.321	13169.29
614.517	13013.65
614.712	12909.2
614.907	13019.79
615.103	12948.11
615.298	12718.74
615.493	12886.67
615.688	12829.33
615.884	13083.28
616.079	12755.6
616.274	12798.61
616.47	12528.28
616.665	12755.6
616.86	12737.17
617.055	12460.7
617.25	12610.2
617.445	12741.27
617.641	12325.53
617.836	12534.42
618.031	12530.33
618.226	12540.57
618.421	12460.7
618.616	12444.31
618.811	12305.05
619.006	12294.81
619.201	12264.09
619.396	12257.95
619.591	11940.51
619.786	12092.06
619.981	11989.66
620.176	12077.73
620.371	11879.07
620.566	11938.46
620.761	11813.54
620.956	11743.91
621.151	11643.56
621.346	11815.59
621.541	11561.64
621.735	11768.48
621.93	11428.52
622.125	11479.72
622.32	11395.75
622.515	11414.18
622.709	11190.95
622.904	11301.54
623.099	11109.04
623.294	11322.02
623.488	11152.04
623.683	11045.55
623.878	11088.56
624.072	10951.34
624.267	10900.14
624.462	10807.98
624.656	10777.26
624.851	10838.7
625.046	10396.34
625.24	10373.82
625.435	10318.52
625.629	10363.58
625.824	10429.11
626.018	10347.19
626.213	10089.15
626.407	10136.25
626.602	10119.87
626.796	9876.16
626.991	10103.48
627.185	10040
627.38	9960.13
627.574	9935.55
627.768	9769.66
627.963	9697.99
628.157	9562.82
628.352	9771.71
628.546	9519.81
628.74	9507.52
628.935	9429.7
629.129	9507.52
629.323	9265.86
629.517	9224.9
629.712	9206.47
629.906	9239.24
630.1	9073.35
630.294	9192.14
630.489	8981.2
630.683	9181.9
630.877	9005.77
631.071	8790.74
631.265	8848.08
631.459	8807.12
631.653	8663.76
631.848	8700.62
632.042	8671.95
632.236	8751.82
632.43	8678.1
632.624	8350.42
632.818	8598.23
633.012	8485.59
633.206	8489.68
633.4	8452.82
633.594	8178.39
633.788	8254.17
633.982	8375
634.176	8340.18
634.369	8155.86
634.563	8303.32
634.757	7940.83
634.951	8008.41
635.145	8086.23
635.339	8028.89
635.533	7971.55
635.726	7897.82
635.92	7858.91
636.114	7934.68
636.308	7824.09
636.501	7883.49
636.695	7744.22
636.889	7719.65
637.083	7514.85
637.276	7662.3
637.47	7488.23
637.664	7422.69
637.857	7348.97
638.051	7451.36
638.244	7537.38
638.438	7426.79
638.632	7334.63
638.825	7254.76
639.019	7326.44
639.212	7361.25
639.406	7148.26
639.599	7176.94
639.793	7080.68
639.986	7023.34
640.18	6824.69
640.373	6855.4
640.567	6798.06
640.76	6908.65
640.954	6855.4
641.147	6714.09
641.34	6710
641.534	6791.92
641.727	6710
641.92	6810.35
642.114	6648.56
642.307	6595.31
642.5	6515.44
642.694	6236.92
642.887	6308.6
643.08	6554.35
643.273	6439.67
643.467	6267.64
643.66	6298.36
643.853	6300.41
644.046	6253.3
644.239	6249.21
644.432	6312.69
644.626	6058.74
644.819	6023.93
645.012	6163.19
645.205	6077.18
645.398	5933.82
645.591	5964.54
645.784	5933.82
645.977	5853.95
646.17	5907.2
646.363	5931.77
646.556	5661.44
646.749	5896.96
646.942	5935.87
647.135	5858.04
647.328	5729.02
647.521	5640.96
647.714	5608.19
647.907	5702.4
648.099	5614.34
648.292	5673.73
648.485	5542.66
648.678	5516.03
648.871	5464.83
649.064	5370.63
649.256	5178.12
649.449	5489.41
649.642	5366.53
649.835	5149.45
650.027	5182.21
650.22	5317.38
650.413	5069.58
650.605	5253.89
650.798	5182.21
650.991	5063.43
651.183	5131.02
651.376	5008.14
651.568	5171.97
651.761	5012.23
651.954	5051.14
652.146	4950.79
652.339	4909.83
652.531	4932.36
652.724	4973.32
652.916	4809.48
653.109	4875.02
653.301	4885.26
653.494	4870.92
653.686	4817.68
653.879	4784.91
654.071	4664.08
654.263	4662.03
654.456	4723.47
654.648	4604.69
654.84	4659.98
655.033	4623.12
655.225	4594.45
655.417	4557.58
655.61	4635.41
655.802	4533.01
655.994	4424.47
656.186	4469.52
656.379	4410.13
656.571	4326.16
656.763	4322.07
656.955	4354.83
657.148	4379.41
657.34	4430.61
657.532	4195.09
657.724	4164.37
657.916	4412.18
658.108	4352.79
658.3	4334.36
658.492	4297.49
658.684	4113.17
658.876	4231.96
659.068	4186.9
659.26	4104.98
659.452	3998.49
659.644	4162.33
659.836	4047.64
660.028	3998.49
660.22	4082.46
660.412	3920.67
660.604	3855.13
660.796	3916.57
660.988	3957.53
661.18	3853.08
661.372	3785.5
661.563	3793.69
661.755	3836.7
661.947	3820.32
662.139	3810.08
662.331	3855.13
662.522	3744.54
662.714	3732.25
662.906	3760.92
663.097	3621.66
663.289	3646.24
663.481	3564.32
663.673	3490.59
663.864	3629.85
664.056	3552.03
664.247	3494.69
664.439	3482.4
664.631	3574.56
664.822	3392.29
665.014	3492.64
665.205	3349.28
665.397	3420.96
665.588	3455.78
665.78	3310.37
665.971	3263.27
666.163	3498.78
666.354	3361.57
666.546	3285.8
666.737	3261.22
666.929	3394.34
667.12	3343.14
667.311	3222.31
667.503	3246.88
667.694	3277.6
667.885	3164.97
668.077	3162.92
668.268	3181.35
668.459	3244.84
668.651	3312.42
668.842	3138.34
669.033	3124.01
669.224	3164.97
669.416	3187.49
669.607	3105.57
669.798	3130.15
669.989	3081
670.18	3076.9
670.371	3052.33
670.563	3097.38
670.754	3048.23
670.945	3083.05
671.136	3072.81
671.327	2908.97
671.518	3031.85
671.709	2958.12
671.9	2999.08
672.091	3089.19
672.282	2970.41
672.473	2902.83
672.664	3015.46
672.855	2863.91
673.046	2884.39
673.237	2913.06
673.428	2896.68
673.619	2790.19
673.809	2831.15
674	2827.05
674.191	2904.87
674.382	2804.52
674.573	2943.78
674.764	2794.28
674.954	2802.47
675.145	2814.76
675.336	2730.8
675.527	2777.9
675.717	2687.79
675.908	2769.71
676.099	2753.32
676.289	2732.84
676.48	2777.9
676.671	2702.12
676.861	2769.71
677.052	2700.08
677.243	2761.52
677.433	2851.63
677.624	2661.16
677.814	2673.45
678.005	2714.41
678.195	2708.27
678.386	2605.87
678.576	2657.07
678.767	2818.86
678.957	2698.03
679.148	2706.22
679.338	2519.85
679.529	2657.07
679.719	2575.15
679.909	2620.21
680.1	2616.11
680.29	2648.88
680.481	2704.17
680.671	2634.54
680.861	2720.56
681.052	2626.35
681.242	2673.45
681.432	2720.56
681.622	2509.62
681.813	2509.62
682.003	2579.25
682.193	2583.34
682.383	2595.63
682.573	2593.58
682.764	2599.73
682.954	2628.4
683.144	2515.76
683.334	2511.66
683.524	2601.77
683.714	2528.05
683.904	2401.07
684.094	2569.01
684.284	2507.57
684.474	2663.21
684.664	2546.48
684.854	2614.06
685.044	2468.66
685.234	2476.85
685.424	2614.06
685.614	2413.36
685.804	2501.42
685.994	2448.18
686.184	2478.9
686.374	2480.94
686.564	2450.22
686.753	2341.68
686.943	2399.02
687.133	2442.03
687.323	2384.69
687.513	2345.78
687.702	2507.57
687.892	2333.49
688.082	2433.84
688.272	2423.6
688.461	2319.15
688.651	2462.51
688.841	2286.39
689.03	2294.58
689.22	2308.91
689.41	2419.5
689.599	2255.67
689.789	2362.16
689.979	2466.61
690.168	2306.87
690.358	2288.43
690.547	2265.91
690.737	2198.32
690.926	2222.9
691.116	2261.81
691.305	2286.39
691.495	2237.24
691.684	2224.95
691.874	2159.41
692.063	2198.32
692.252	2181.94
692.442	2188.08
692.631	2179.89
692.82	2085.69
693.01	2253.62
693.199	2231.09
693.388	2097.97
693.578	2208.56
693.767	2196.28
693.956	2116.41
694.146	2155.32
694.335	2124.6
694.524	2114.36
694.713	2122.55
694.902	2085.69
695.092	2097.97
695.281	2175.8
695.47	2143.03
695.659	2179.89
695.848	2040.63
696.037	2073.4
696.226	2026.29
696.415	2087.73
696.604	2106.17
696.793	2054.97
696.982	2024.25
697.171	2073.4
697.36	1999.67
697.549	2093.88
697.738	1923.9
697.927	1979.19
698.116	1917.75
698.305	2040.63
698.494	2034.49
698.683	1993.53
698.872	2040.63
699.061	1968.95
699.25	1995.57
699.438	2011.96
699.627	1975.1
699.816	2167.6
700.005	1950.52
700.193	2032.44
700.382	1932.09
700.571	2018.1
700.76	1950.52
700.948	2151.22
701.137	2153.27
701.326	1971
701.514	2016.05
701.703	2040.63
701.892	2048.82
702.08	1960.76
702.269	2075.45
702.457	1934.14
702.646	1966.9
702.834	1985.34
703.023	2067.25
703.212	2048.82
703.4	1884.98
703.589	1884.98
703.777	2026.29
703.965	1985.34
704.154	2040.63
704.342	2001.72
704.531	2057.01
704.719	1975.1
704.907	2024.25
705.096	1852.22
705.284	2016.05
705.472	1979.19
705.661	1944.38
705.849	1987.38
706.037	2132.79
706.226	1993.53
706.414	1940.28
706.602	1952.57
706.79	1968.95
706.979	1901.37
707.167	1925.94
707.355	1923.9
707.543	2003.77
707.731	1942.33
707.919	2087.73
708.107	1962.81
708.296	1858.36
708.484	1985.34
708.672	2106.17
708.86	2040.63
709.048	2032.44
709.236	2097.97
709.424	1919.8
709.612	1983.29
709.8	1876.79
709.988	1971
710.176	1911.61
710.364	1952.57
710.551	2024.25
710.739	1977.14
710.927	1966.9
711.115	1872.7
711.303	2024.25
711.491	1958.71
711.679	1950.52
711.866	1944.38
712.054	1987.38
712.242	1999.67
712.43	2024.25
712.617	2077.49
712.805	1848.12
712.993	2026.29
713.181	2075.45
713.368	1942.33
713.556	2032.44
713.744	1925.94
713.931	2016.05
714.119	1958.71
714.306	2102.07
714.494	2106.17
714.682	2057.01
714.869	2007.86
715.057	2089.78
715.244	1868.6
715.432	1989.43
715.619	1948.47
715.807	1934.14
715.994	2011.96
716.182	1993.53
716.369	2007.86
716.556	2061.11
716.744	1893.18
716.931	1917.75
717.119	1895.22
717.306	1977.14
717.493	1995.57
717.681	1997.62
717.868	1964.86
718.055	1952.57
718.242	1934.14
718.43	1999.67
718.617	1958.71
718.804	1999.67
718.991	1964.86
719.179	2026.29
719.366	2007.86
719.553	1983.29
719.74	1981.24
719.927	1983.29
720.114	2050.87
720.301	1938.23
720.488	1909.56
720.676	2067.25
720.863	2024.25
721.05	2071.35
721.237	2011.96
721.424	2059.06
721.611	1966.9
721.798	2007.86
721.985	1936.18
722.172	2032.44
722.358	2011.96
722.545	1960.76
722.732	2048.82
722.919	2067.25
723.106	1966.9
723.293	2087.73
723.48	1919.8
723.667	1921.85
723.853	2034.49
724.04	1956.66
724.227	1985.34
724.414	1964.86
724.6	1911.61
724.787	2016.05
724.974	2089.78
725.161	1960.76
725.347	1927.99
725.534	2040.63
725.72	1958.71
725.907	2020.15
726.094	2093.88
726.28	2005.81
726.467	1958.71
726.653	1981.24
726.84	2097.97
727.027	2067.25
727.213	1995.57
727.4	1987.38
727.586	1981.24
727.773	1971
727.959	1971
728.145	2097.97
728.332	2059.06
728.518	1991.48
728.705	2057.01
728.891	1946.42
729.077	2028.34
729.264	1960.76
729.45	1903.42
729.636	1989.43
729.823	2077.49
730.009	1985.34
730.195	2057.01
730.382	2077.49
730.568	1930.04
730.754	2071.35
730.94	1952.57
731.126	2063.16
731.313	2073.4
731.499	1993.53
731.685	2061.11
731.871	1952.57
732.057	2059.06
732.243	1999.67
732.429	2009.91
732.615	2044.73
732.801	1966.9
732.987	2057.01
733.173	2022.2
733.359	2097.97
733.545	1975.1
733.731	2132.79
733.917	1993.53
734.103	1940.28
734.289	2065.21
734.475	1878.84
734.661	2034.49
734.847	2038.58
735.033	1973.05
735.219	2014.01
735.404	2028.34
735.59	2040.63
735.776	1919.8
735.962	2003.77
736.148	2110.26
736.333	2034.49
736.519	2005.81
736.705	2063.16
736.89	1901.37
737.076	1962.81
737.262	1934.14
737.447	1860.41
737.633	2028.34
737.819	2001.72
738.004	1788.73
738.19	1862.46
738.375	1977.14
738.561	1876.79
738.747	1905.46
738.932	1960.76
739.118	1936.18
739.303	1893.18
739.489	1985.34
739.674	1942.33
739.859	1753.91
740.045	1862.46
740.23	1837.88
740.416	1895.22
740.601	1907.51
740.786	1956.66
740.972	1934.14
741.157	1864.5
741.342	1862.46
741.528	1962.81
741.713	1887.03
741.898	1913.66
742.084	1794.87
742.269	1805.11
742.454	1868.6
742.639	1725.24
742.824	1790.78
743.01	1819.45
743.195	1901.37
743.38	1831.74
743.565	1844.03
743.75	1872.7
743.935	1772.35
744.12	1856.31
744.305	1747.77
744.49	1846.07
744.675	1782.59
744.86	1694.52
745.045	1745.72
745.23	1813.31
745.415	1721.15
745.6	1665.85
745.785	1696.57
745.97	1733.43
746.155	1739.58
746.34	1805.11
746.525	1700.67
746.71	1741.63
746.895	1661.76
747.079	1633.08
747.264	1567.55
747.449	1649.47
747.634	1585.98
747.819	1622.84
748.003	1547.07
748.188	1559.36
748.373	1614.65
748.557	1647.42
748.742	1583.93
748.927	1624.89
749.111	1422.14
749.296	1618.75
749.481	1555.26
749.665	1583.93
749.85	1575.74
750.034	1577.79
750.219	1497.92
750.404	1418.05
750.588	1434.43
750.773	1499.97
750.957	1557.31
751.141	1420.1
751.326	1475.39
751.51	1475.39
751.695	1428.29
751.879	1536.83
752.064	1448.77
752.248	1377.09
752.432	1434.43
752.617	1387.33
752.801	1475.39
752.985	1387.33
753.17	1321.79
753.354	1379.14
753.538	1418.05
753.722	1327.94
753.907	1315.65
754.091	1401.66
754.275	1311.55
754.459	1289.03
754.643	1327.94
754.828	1170.24
755.012	1217.35
755.196	1262.4
755.38	1254.21
755.564	1213.25
755.748	1207.11
755.932	1184.58
756.116	1235.78
756.3	1129.28
756.484	1188.68
756.668	1155.91
756.852	1174.34
757.036	1164.1
757.22	1246.02
757.404	1155.91
757.588	1117
757.772	1164.1
757.956	1168.2
758.14	1231.68
758.323	1131.33
758.507	1168.2
758.691	1180.48
758.875	1151.81
759.059	1131.33
759.242	1071.94
759.426	1037.13
759.61	1033.03
759.794	1067.85
759.977	1067.85
760.161	1117
760.345	1037.13
760.528	1051.46
760.712	963.4
760.895	1012.55
761.079	1057.61
761.263	953.16
761.446	1035.08
761.63	1016.65
761.813	1098.56
761.997	844.62
762.18	940.87
762.364	1024.84
762.547	983.88
762.731	912.2
762.914	969.54
763.098	930.63
763.281	959.3
763.464	934.73
763.648	885.58
763.831	1000.26
764.015	904.01
764.198	992.07
764.381	983.88
764.564	953.16
764.748	959.3
764.931	895.82
765.114	820.04
765.297	893.77
765.481	920.39
765.664	906.06
765.847	930.63
766.03	926.54
766.213	863.05
766.397	852.81
766.58	877.38
766.763	889.67
766.946	885.58
767.129	951.11
767.312	858.95
767.495	815.94
767.678	824.14
767.861	764.75
768.044	897.86
768.227	838.47
768.41	787.27
768.593	871.24
768.776	887.62
768.959	838.47
769.142	885.58
769.324	908.1
769.507	836.42
769.69	869.19
769.873	787.27
770.056	852.81
770.239	840.52
770.421	858.95
770.604	764.75
770.787	789.32
770.97	756.55
771.152	822.09
771.335	807.75
771.518	711.5
771.7	803.66
771.883	774.99
772.066	756.55
772.248	795.47
772.431	797.51
772.613	770.89
772.796	672.59
772.978	768.84
773.161	779.08
773.343	699.21
773.526	705.35
773.708	725.83
773.891	715.59
774.073	811.85
774.256	664.4
774.438	770.89
774.621	734.03
774.803	672.59
774.985	684.87
775.168	797.51
775.35	682.83
775.532	723.79
775.715	697.16
775.897	633.68
776.079	611.15
776.261	641.87
776.444	727.88
776.626	641.87
776.808	707.4
776.99	598.86
777.173	648.01
777.355	590.67
777.537	623.44
777.719	607.05
777.901	566.09
778.083	598.86
778.265	518.99
778.447	617.29
778.629	570.19
778.811	566.09
778.993	594.76
779.175	562
779.357	631.63
779.539	500.56
779.721	602.96
779.903	537.42
780.085	600.91
780.267	648.01
780.449	598.86
780.631	602.96
780.812	516.94
780.994	566.09
781.176	484.17
781.358	484.17
781.54	453.45
781.721	557.9
781.903	496.46
782.085	527.18
782.267	576.33
782.448	406.35
782.63	508.75
782.812	453.45
782.993	605
783.175	471.89
783.357	451.41
783.538	488.27
783.72	463.69
783.901	385.87
784.083	478.03
784.264	473.93
784.446	508.75
784.627	392.02
784.809	432.97
784.99	469.84
785.172	437.07
785.353	394.06
785.535	426.83
785.716	373.58
785.897	398.16
786.079	428.88
786.26	437.07
786.441	361.3
786.623	344.91
786.804	387.92
786.985	410.45
787.167	402.26
787.348	377.68
787.529	443.21
787.71	467.79
787.891	344.91
788.073	381.78
788.254	361.3
788.435	394.06
788.616	475.98
788.797	400.21
788.978	377.68
789.159	346.96
789.34	435.02
789.522	312.14
789.703	369.49
789.884	349.01
790.065	361.3
790.246	322.38
790.427	369.49
790.607	402.26
790.788	336.72
790.969	275.28
791.15	363.34
791.331	322.38
791.512	404.3
791.693	314.19
791.874	375.63
792.054	404.3
792.235	361.3
792.416	322.38
792.597	320.34
792.778	349.01
792.958	340.82
793.139	285.52
793.32	324.43
793.5	336.72
793.681	344.91
793.862	271.19
794.042	314.19
794.223	306
794.404	312.14
794.584	338.77
794.765	279.38
794.945	271.19
795.126	303.95
795.306	435.02
795.487	295.76
795.667	338.77
795.848	275.28
796.028	287.57
796.209	324.43
796.389	265.04
796.57	222.03
796.75	140.12
796.93	291.66
797.111	256.85
797.291	250.71
797.471	291.66
797.652	269.14
797.832	224.08
798.012	295.76
798.192	144.21
798.373	262.99
798.553	250.71
798.733	303.95
798.913	242.51
799.093	207.7
799.274	254.8
799.454	246.61
799.634	295.76
799.814	230.23
799.994	238.42
800.174	207.7
800.354	222.03
800.534	262.99
800.714	254.8
800.894	166.74
801.074	136.02
801.254	244.56
801.434	287.57
801.614	248.66
801.794	248.66
801.974	795.47
802.154	181.07
802.334	324.43
802.514	254.8
802.693	215.89
802.873	172.88
803.053	246.61
803.233	213.84
803.413	185.17
803.592	191.31
803.772	246.61
803.952	312.14
804.131	172.88
804.311	279.38
804.491	189.27
804.67	191.31
804.85	138.07
805.03	250.71
805.209	158.55
805.389	150.36
805.568	277.33
805.748	248.66
805.928	195.41
806.107	222.03
806.287	183.12
806.466	213.84
806.646	201.55
806.825	152.4
807.004	271.19
807.184	181.07
807.363	246.61
807.543	215.89
807.722	136.02
807.901	183.12
808.081	232.27
808.26	152.4
808.439	148.31
808.619	201.55
808.798	156.5
808.977	219.99
809.156	125.78
809.336	189.27
809.515	236.37
809.694	183.12
809.873	183.12
810.052	152.4
810.231	254.8
810.411	111.44
810.59	168.79
810.769	158.55
810.948	174.93
811.127	133.97
811.306	189.27
811.485	152.4
811.664	136.02
811.843	211.79
812.022	168.79
812.201	183.12
812.38	164.69
812.559	189.27
812.737	148.31
812.916	174.93
813.095	160.59
813.274	238.42
813.453	136.02
813.632	217.94
813.811	113.49
813.989	68.44
814.168	123.73
814.347	136.02
814.526	150.36
814.704	131.92
814.883	166.74
815.062	156.5
815.24	174.93
815.419	140.12
815.598	234.32
815.776	66.39
815.955	195.41
816.133	115.54
816.312	142.16
816.49	129.88
816.669	82.77
816.847	133.97
817.026	148.31
817.204	131.92
817.383	152.4
817.561	125.78
817.74	117.59
817.918	148.31
818.097	90.96
818.275	74.58
818.453	148.31
818.632	183.12
818.81	148.31
818.988	99.16
819.167	90.96
819.345	156.5
819.523	133.97
819.701	90.96
819.879	234.32
820.058	113.49
820.236	107.35
820.414	90.96
820.592	146.26
820.77	215.89
820.948	84.82
821.127	133.97
821.305	125.78
821.483	123.73
821.661	121.68
821.839	164.69
822.017	113.49
822.195	74.58
822.373	93.01
822.551	115.54
822.729	90.96
822.907	58.2
823.085	142.16
823.262	78.68
823.44	148.31
823.618	99.16
823.796	179.03
823.974	127.83
824.152	78.68
824.329	123.73
824.507	179.03
824.685	131.92
824.863	109.4
825.04	189.27
825.218	111.44
825.396	76.63
825.574	23.38
825.751	185.17
825.929	109.4
826.107	0.85
826.284	90.96
826.462	68.44
826.639	95.06
826.817	101.2
826.994	76.63
827.172	103.25
827.349	164.69
827.527	150.36
827.704	131.92
827.882	74.58
828.059	99.16
828.237	90.96
828.414	158.55
828.591	103.25
828.769	54.1
828.946	82.77
829.124	66.39
829.301	103.25
829.478	117.59
829.655	123.73
829.833	62.29
830.01	50
830.187	176.98
830.364	123.73
830.542	29.52
830.719	109.4
830.896	99.16
831.073	54.1
831.25	99.16
831.427	76.63
831.604	119.64
831.782	19.29
831.959	107.35
832.136	84.82
832.313	131.92
832.49	90.96
832.667	90.96
832.844	4.95
833.021	123.73
833.198	45.91
833.374	52.05
833.551	35.67
833.728	140.12
833.905	68.44
834.082	37.72
834.259	43.86
834.436	82.77
834.612	93.01
834.789	86.87
834.966	101.2
835.143	107.35
835.319	115.54
835.496	109.4
835.673	68.44
835.85	74.58
836.026	84.82
836.203	123.73
836.38	164.69
836.556	66.39
836.733	64.34
836.909	103.25
837.086	136.02
837.262	103.25
837.439	181.07
837.616	47.96
837.792	13.14
837.968	80.72
838.145	25.43
838.321	107.35
838.498	82.77
838.674	179.03
838.851	43.86
839.027	-11.43
839.203	0.85
839.38	25.43
839.556	78.68
839.732	11.09
839.909	103.25
840.085	33.62
840.261	99.16
840.437	82.77
840.614	27.48
840.79	47.96
840.966	99.16
841.142	103.25
841.318	50
841.494	45.91
841.671	33.62
841.847	-21.67
842.023	103.25
842.199	90.96
842.375	50
842.551	21.33
842.727	54.1
842.903	93.01
843.079	109.4
843.255	56.15
843.431	-19.63
843.607	107.35
843.783	13.14
843.959	90.96
844.134	27.48
844.31	33.62
844.486	58.2
844.662	29.52
844.838	68.44
845.013	-29.87
845.189	60.24
845.365	123.73
845.541	25.43
845.716	27.48
845.892	15.19
846.068	158.55
846.244	-19.63
846.419	66.39
846.595	-13.48
846.77	84.82
846.946	47.96
847.122	52.05
847.297	60.24
847.473	54.1
847.648	27.48
847.824	113.49
847.999	15.19
848.175	-19.63
848.35	99.16
848.526	66.39
848.701	95.06
848.876	33.62
849.052	45.91
849.227	86.87
849.403	-17.58
849.578	76.63
849.753	-7.34
849.929	90.96
850.104	23.38
850.279	33.62
850.454	35.67
850.63	60.24
850.805	15.19
850.98	90.96
851.155	4.95
851.33	58.2
851.505	82.77
851.681	78.68
851.856	29.52
852.031	95.06
852.206	93.01
852.381	56.15
852.556	80.72
852.731	84.82
852.906	101.2
853.081	60.24
853.256	107.35
853.431	37.72
853.606	35.67
853.781	29.52
853.956	43.86
854.131	43.86
854.305	60.24
854.48	25.43
854.655	-13.48
854.83	54.1
855.005	76.63
855.18	66.39
855.354	-23.72
855.529	-13.48
855.704	15.19
855.879	50
856.053	47.96
856.228	54.1
856.403	52.05
856.577	-13.48
856.752	62.29
856.926	29.52
857.101	13.14
857.276	90.96
857.45	-13.48
857.625	70.48
857.799	13.14
857.974	88.92
858.148	4.95
858.323	45.91
858.497	74.58
858.672	-7.34
858.846	45.91
859.02	103.25
859.195	99.16
859.369	45.91
859.543	13.14
859.718	66.39
859.892	27.48
860.066	60.24
860.241	-7.34
860.415	27.48
860.589	50
860.763	41.81
860.938	45.91
861.112	17.24
861.286	37.72
861.46	-17.58
861.634	23.38
861.808	101.2
861.982	62.29
862.157	52.05
862.331	-44.2
862.505	-46.25
862.679	0.85
862.853	86.87
863.027	45.91
863.201	58.2
863.375	2.9
863.549	13.14
863.722	37.72
863.896	78.68
864.07	86.87
864.244	60.24
864.418	107.35
864.592	62.29
864.766	74.58
864.939	0.85
865.113	13.14
865.287	17.24
865.461	-11.43
865.634	50
865.808	2.9
865.982	45.91
866.156	4.95
866.329	72.53
866.503	78.68
866.676	52.05
866.85	39.76
867.024	-19.63
867.197	17.24
867.371	119.64
867.544	-36.01
867.718	21.33
867.891	95.06
868.065	17.24
868.238	-15.53
868.412	82.77
868.585	58.2
868.759	54.1
868.932	29.52
869.105	-33.96
869.279	72.53
869.452	-21.67
869.625	70.48
869.799	66.39
869.972	15.19
870.145	11.09
870.319	146.26
870.492	90.96
870.665	-3.24
870.838	23.38
871.011	-52.39
871.185	11.09
871.358	15.19
871.531	109.4
871.704	72.53
871.877	58.2
872.05	99.16
872.223	-40.11
872.396	58.2
872.569	101.2
872.742	58.2
872.915	60.24
873.088	17.24
873.261	25.43
873.434	29.52
873.607	-7.34
873.78	35.67
873.953	86.87
874.126	-40.11
874.299	41.81
874.471	33.62
874.644	0.85
874.817	60.24
874.99	123.73
875.163	4.95
875.335	95.06
875.508	9.05
875.681	56.15
875.853	107.35
876.026	21.33
876.199	45.91
876.371	58.2
876.544	50
876.717	19.29
876.889	90.96
877.062	25.43
877.234	45.91
877.407	-31.91
877.579	-17.58
877.752	0.85
877.924	-23.72
878.097	60.24
878.269	-36.01
878.442	23.38
878.614	74.58
878.786	82.77
878.959	43.86
879.131	50
879.303	-13.48
879.476	50
879.648	15.19
879.82	-31.91
879.993	37.72
880.165	-17.58
880.337	-36.01
880.509	25.43
880.681	-25.77
880.854	4.95
881.026	11.09
881.198	82.77
881.37	9.05
881.542	50
881.714	52.05
881.886	74.58
882.058	-25.77
882.23	29.52
882.402	72.53
882.574	19.29
882.746	54.1
882.918	164.69
883.09	-27.82
883.262	95.06
883.434	17.24
883.606	-36.01
883.778	33.62
883.95	58.2
884.122	105.3
884.293	25.43
884.465	7
884.637	117.59
884.809	50
884.98	113.49
885.152	19.29
885.324	68.44
885.496	21.33
885.667	62.29
885.839	50
886.011	82.77
886.182	29.52
886.354	58.2
886.525	29.52
886.697	-9.39
886.869	45.91
887.04	93.01
887.212	13.14
887.383	117.59
887.555	9.05
887.726	0.85
887.897	-7.34
888.069	33.62
888.24	82.77
888.412	-21.67
888.583	-27.82
888.754	0.85
888.926	4.95
889.097	35.67
889.268	-93.35
889.44	2.9
889.611	4.95
889.782	7
889.953	-27.82
890.125	58.2
890.296	-5.29
890.467	27.48
890.638	58.2
890.809	15.19
890.98	54.1
891.151	19.29
891.323	41.81
891.494	41.81
891.665	50
891.836	66.39
892.007	37.72
892.178	4.95
892.349	117.59
892.52	-1.19
892.691	25.43
892.862	54.1
893.032	-56.49
893.203	31.57
893.374	11.09
893.545	74.58
893.716	27.48
893.887	66.39
894.057	35.67
894.228	50
894.399	-1.19
894.57	105.3
894.74	95.06
894.911	93.01
895.082	2.9
895.253	-31.91
895.423	-23.72
895.594	107.35
895.764	27.48
895.935	-31.91
896.106	19.29
896.276	-31.91
896.447	31.57
896.617	68.44
896.788	29.52
896.958	-7.34
897.129	11.09
897.299	52.05
897.47	23.38
897.64	95.06
897.81	17.24
897.981	78.68
898.151	50
898.322	76.63
898.492	39.76
898.662	-40.11
898.832	7
899.003	-27.82
899.173	54.1
899.343	-29.87
899.513	-23.72
