Data from USB4F104151__283__14-46-22-615.txt Node

Date: Thu Mar 13 14:46:22 EDT 2025
User: louis
Spectrometer: USB4F10415
Trigger mode: 4
Integration Time (sec): 2.000000E-2
Scans to average: 1
Electric dark correction enabled: true
Nonlinearity correction enabled: false
Boxcar width: 0
XAxis mode: Wavelengths
Number of Pixels in Spectrum: 3648
>>>>>Begin Spectral Data<<<<<
178.204	-149.5
178.424	-149.5
178.644	-149.5
178.864	-110.59
179.084	-102.4
179.304	-67.58
179.524	-30.72
179.744	-6.14
179.964	28.67
180.184	88.06
180.404	38.91
180.624	38.91
180.844	-18.43
181.064	-47.1
181.283	-63.49
181.503	12.29
181.723	26.62
181.943	-63.49
182.163	-18.43
182.383	-22.53
182.602	38.91
182.822	65.53
183.042	59.39
183.262	-28.67
183.482	51.2
183.701	-18.43
183.921	51.2
184.141	-30.72
184.361	6.14
184.58	43.01
184.8	36.86
185.02	-12.29
185.239	4.1
185.459	36.86
185.679	10.24
185.898	-14.34
186.118	63.49
186.338	-18.43
186.557	-4.1
186.777	-2.05
186.997	-10.24
187.216	40.96
187.436	63.49
187.655	20.48
187.875	26.62
188.095	-14.34
188.314	67.58
188.534	-0
188.753	43.01
188.973	26.62
189.192	79.87
189.412	20.48
189.631	83.97
189.851	10.24
190.07	47.1
190.29	-12.29
190.509	-6.14
190.729	18.43
190.948	10.24
191.168	137.21
191.387	-4.1
191.607	-51.2
191.826	83.97
192.045	45.06
192.265	-2.05
192.484	26.62
192.704	61.44
192.923	-38.91
193.142	90.11
193.362	28.67
193.581	90.11
193.8	96.25
194.02	40.96
194.239	92.16
194.458	28.67
194.678	26.62
194.897	71.68
195.116	-26.62
195.335	36.86
195.555	63.49
195.774	-38.91
195.993	-10.24
196.212	-6.14
196.432	-6.14
196.651	2.05
196.87	26.62
197.089	83.97
197.308	-28.67
197.528	10.24
197.747	67.58
197.966	-30.72
198.185	2.05
198.404	-4.1
198.623	8.19
198.842	43.01
199.062	18.43
199.281	38.91
199.5	-10.24
199.719	26.62
199.938	-6.14
200.157	43.01
200.376	67.58
200.595	30.72
200.814	34.82
201.033	-20.48
201.252	96.25
201.471	-10.24
201.69	-16.38
201.909	47.1
202.128	30.72
202.347	59.39
202.566	34.82
202.785	-2.05
203.004	20.48
203.223	135.17
203.442	51.2
203.661	-2.05
203.879	126.97
204.098	20.48
204.317	-26.62
204.536	47.1
204.755	-57.34
204.974	49.15
205.193	-0
205.411	16.38
205.63	83.97
205.849	59.39
206.068	18.43
206.287	28.67
206.505	75.77
206.724	-22.53
206.943	-34.82
207.162	-10.24
207.381	45.06
207.599	-30.72
207.818	-30.72
208.037	6.14
208.255	38.91
208.474	34.82
208.693	67.58
208.911	2.05
209.13	38.91
209.349	-14.34
209.567	43.01
209.786	26.62
210.005	32.77
210.223	55.3
210.442	34.82
210.661	57.34
210.879	-36.86
211.098	-20.48
211.316	30.72
211.535	10.24
211.753	-12.29
211.972	-34.82
212.191	-18.43
212.409	51.2
212.628	79.87
212.846	-94.21
213.065	22.53
213.283	65.53
213.502	-34.82
213.72	14.34
213.938	2.05
214.157	69.63
214.375	26.62
214.594	10.24
214.812	-6.14
215.031	-30.72
215.249	-36.86
215.467	10.24
215.686	-6.14
215.904	43.01
216.122	34.82
216.341	94.21
216.559	-10.24
216.778	61.44
216.996	2.05
217.214	14.34
217.432	-51.2
217.651	-12.29
217.869	-4.1
218.087	26.62
218.306	71.68
218.524	98.3
218.742	-36.86
218.96	2.05
219.179	20.48
219.397	18.43
219.615	51.2
219.833	-43.01
220.051	4.1
220.27	18.43
220.488	83.97
220.706	2.05
220.924	4.1
221.142	-10.24
221.36	-55.3
221.578	51.2
221.796	34.82
222.015	18.43
222.233	-47.1
222.451	69.63
222.669	12.29
222.887	79.87
223.105	45.06
223.323	12.29
223.541	2.05
223.759	65.53
223.977	-71.68
224.195	73.73
224.413	-6.14
224.631	51.2
224.849	-96.25
225.067	38.91
225.285	-98.3
225.503	45.06
225.721	-34.82
225.939	-2.05
226.157	10.24
226.375	100.35
226.592	2.05
226.81	28.67
227.028	73.73
227.246	47.1
227.464	-6.14
227.682	69.63
227.9	-14.34
228.117	10.24
228.335	61.44
228.553	-10.24
228.771	18.43
228.989	12.29
229.206	4.1
229.424	14.34
229.642	59.39
229.86	2.05
230.077	67.58
230.295	67.58
230.513	43.01
230.731	4.1
230.948	14.34
231.166	83.97
231.384	-18.43
231.601	59.39
231.819	75.77
232.037	-34.82
232.254	8.19
232.472	14.34
232.689	-18.43
232.907	10.24
233.125	-6.14
233.342	55.3
233.56	-22.53
233.777	51.2
233.995	59.39
234.213	55.3
234.43	-2.05
234.648	28.67
234.865	61.44
235.083	22.53
235.3	-30.72
235.518	61.44
235.735	18.43
235.953	71.68
236.17	51.2
236.388	36.86
236.605	65.53
236.822	129.02
237.04	34.82
237.257	51.2
237.475	-47.1
237.692	-6.14
237.909	-4.1
238.127	30.72
238.344	6.14
238.562	-28.67
238.779	-45.06
238.996	-18.43
239.214	47.1
239.431	22.53
239.648	4.1
239.865	51.2
240.083	38.91
240.3	59.39
240.517	-14.34
240.735	-0
240.952	2.05
241.169	12.29
241.386	-2.05
241.603	47.1
241.821	-36.86
242.038	59.39
242.255	36.86
242.472	10.24
242.689	77.82
242.907	26.62
243.124	-63.49
243.341	49.15
243.558	-18.43
243.775	100.35
243.992	-43.01
244.209	75.77
244.426	26.62
244.643	43.01
244.86	-34.82
245.078	47.1
245.295	51.2
245.512	38.91
245.729	-51.2
245.946	28.67
246.163	30.72
246.38	-22.53
246.597	-71.68
246.814	26.62
247.031	16.38
247.248	-61.44
247.464	81.92
247.681	63.49
247.898	63.49
248.115	86.01
248.332	22.53
248.549	45.06
248.766	43.01
248.983	92.16
249.2	45.06
249.417	4.1
249.633	98.3
249.85	20.48
250.067	-47.1
250.284	59.39
250.501	59.39
250.717	30.72
250.934	-32.77
251.151	75.77
251.368	83.97
251.585	51.2
251.801	69.63
252.018	2.05
252.235	55.3
252.451	-2.05
252.668	12.29
252.885	2.05
253.102	2.05
253.318	24.58
253.535	12.29
253.752	-47.1
253.968	-6.14
254.185	-10.24
254.401	-2.05
254.618	53.25
254.835	92.16
255.051	6.14
255.268	47.1
255.484	36.86
255.701	30.72
255.917	75.77
256.134	-22.53
256.351	61.44
256.567	10.24
256.784	43.01
257	2.05
257.217	10.24
257.433	28.67
257.65	67.58
257.866	32.77
258.082	43.01
258.299	61.44
258.515	-14.34
258.732	-18.43
258.948	-10.24
259.165	-14.34
259.381	26.62
259.597	-10.24
259.814	34.82
260.03	47.1
260.246	10.24
260.463	65.53
260.679	38.91
260.895	-0
261.112	71.68
261.328	20.48
261.544	4.1
261.761	6.14
261.977	-18.43
262.193	-4.1
262.409	43.01
262.626	67.58
262.842	67.58
263.058	20.48
263.274	28.67
263.49	34.82
263.707	-96.25
263.923	59.39
264.139	-71.68
264.355	38.91
264.571	71.68
264.787	10.24
265.004	59.39
265.22	6.14
265.436	51.2
265.652	22.53
265.868	55.3
266.084	6.14
266.3	2.05
266.516	51.2
266.732	18.43
266.948	16.38
267.164	10.24
267.38	-6.14
267.596	63.49
267.812	112.64
268.028	16.38
268.244	12.29
268.46	86.01
268.676	12.29
268.892	69.63
269.108	-2.05
269.324	-18.43
269.54	-22.53
269.756	83.97
269.972	43.01
270.188	114.69
270.403	-20.48
270.619	12.29
270.835	8.19
271.051	-22.53
271.267	-16.38
271.483	75.77
271.698	47.1
271.914	24.58
272.13	-6.14
272.346	26.62
272.562	26.62
272.777	98.3
272.993	20.48
273.209	-14.34
273.425	-6.14
273.64	-59.39
273.856	38.91
274.072	10.24
274.287	36.86
274.503	28.67
274.719	69.63
274.934	-6.14
275.15	-57.34
275.366	26.62
275.581	-2.05
275.797	26.62
276.012	51.2
276.228	77.82
276.444	51.2
276.659	45.06
276.875	49.15
277.09	28.67
277.306	32.77
277.521	-38.91
277.737	79.87
277.952	100.35
278.168	30.72
278.383	83.97
278.599	-6.14
278.814	61.44
279.03	86.01
279.245	43.01
279.461	-2.05
279.676	22.53
279.892	-34.82
280.107	49.15
280.322	10.24
280.538	-16.38
280.753	83.97
280.969	51.2
281.184	104.45
281.399	69.63
281.615	-4.1
281.83	8.19
282.045	-79.87
282.26	-34.82
282.476	69.63
282.691	28.67
282.906	12.29
283.122	-14.34
283.337	34.82
283.552	2.05
283.767	12.29
283.983	75.77
284.198	53.25
284.413	71.68
284.628	-43.01
284.843	-2.05
285.058	32.77
285.274	-26.62
285.489	-30.72
285.704	18.43
285.919	63.49
286.134	59.39
286.349	-18.43
286.564	-0
286.779	83.97
286.995	-2.05
287.21	6.14
287.425	51.2
287.64	2.05
287.855	-32.77
288.07	-47.1
288.285	59.39
288.5	32.77
288.715	12.29
288.93	59.39
289.145	14.34
289.36	43.01
289.575	-2.05
289.79	141.31
290.004	75.77
290.219	106.49
290.434	-6.14
290.649	55.3
290.864	40.96
291.079	45.06
291.294	43.01
291.509	14.34
291.724	-4.1
291.938	-2.05
292.153	-4.1
292.368	18.43
292.583	26.62
292.798	45.06
293.012	6.14
293.227	75.77
293.442	4.1
293.657	43.01
293.871	12.29
294.086	38.91
294.301	26.62
294.516	20.48
294.73	55.3
294.945	18.43
295.16	6.14
295.374	38.91
295.589	59.39
295.804	-14.34
296.018	18.43
296.233	55.3
296.447	26.62
296.662	59.39
296.877	34.82
297.091	100.35
297.306	24.58
297.52	26.62
297.735	-0
297.949	10.24
298.164	43.01
298.378	22.53
298.593	26.62
298.807	88.06
299.022	10.24
299.236	4.1
299.451	28.67
299.665	-59.39
299.88	-12.29
300.094	18.43
300.309	45.06
300.523	2.05
300.737	34.82
300.952	59.39
301.166	63.49
301.381	32.77
301.595	55.3
301.809	30.72
302.024	32.77
302.238	-14.34
302.452	30.72
302.667	49.15
302.881	73.73
303.095	30.72
303.309	53.25
303.524	-10.24
303.738	-63.49
303.952	-49.15
304.166	-22.53
304.381	18.43
304.595	51.2
304.809	34.82
305.023	96.25
305.237	6.14
305.452	51.2
305.666	51.2
305.88	26.62
306.094	67.58
306.308	-14.34
306.522	36.86
306.736	67.58
306.95	118.78
307.164	92.16
307.379	-53.25
307.593	-4.1
307.807	40.96
308.021	65.53
308.235	63.49
308.449	26.62
308.663	38.91
308.877	90.11
309.091	34.82
309.305	32.77
309.519	-12.29
309.733	51.2
309.947	-47.1
310.161	43.01
310.374	100.35
310.588	100.35
310.802	4.1
311.016	12.29
311.23	2.05
311.444	10.24
311.658	53.25
311.872	6.14
312.085	96.25
312.299	36.86
312.513	4.1
312.727	32.77
312.941	-47.1
313.154	16.38
313.368	28.67
313.582	71.68
313.796	-61.44
314.009	-18.43
314.223	75.77
314.437	40.96
314.651	4.1
314.864	-30.72
315.078	-45.06
315.292	4.1
315.505	-14.34
315.719	-14.34
315.933	45.06
316.146	-71.68
316.36	-24.58
316.573	55.3
316.787	55.3
317.001	30.72
317.214	-8.19
317.428	67.58
317.641	-30.72
317.855	40.96
318.068	53.25
318.282	98.3
318.495	143.36
318.709	86.01
318.922	22.53
319.136	90.11
319.349	-14.34
319.563	34.82
319.776	18.43
319.99	6.14
320.203	81.92
320.417	69.63
320.63	26.62
320.843	43.01
321.057	12.29
321.27	59.39
321.483	-43.01
321.697	59.39
321.91	40.96
322.124	6.14
322.337	36.86
322.55	28.67
322.763	14.34
322.977	-14.34
323.19	-45.06
323.403	69.63
323.617	55.3
323.83	43.01
324.043	2.05
324.256	-8.19
324.469	92.16
324.683	94.21
324.896	18.43
325.109	47.1
325.322	2.05
325.535	67.58
325.748	28.67
325.962	63.49
326.175	43.01
326.388	34.82
326.601	53.25
326.814	14.34
327.027	16.38
327.24	67.58
327.453	10.24
327.666	59.39
327.879	143.36
328.092	75.77
328.305	-4.1
328.518	34.82
328.731	-22.53
328.944	26.62
329.157	47.1
329.37	-28.67
329.583	77.82
329.796	51.2
330.009	18.43
330.222	26.62
330.435	-6.14
330.648	34.82
330.861	14.34
331.073	12.29
331.286	-14.34
331.499	26.62
331.712	10.24
331.925	18.43
332.138	63.49
332.35	-22.53
332.563	10.24
332.776	26.62
332.989	14.34
333.202	69.63
333.414	-2.05
333.627	38.91
333.84	-6.14
334.053	104.45
334.265	-53.25
334.478	65.53
334.691	86.01
334.903	-59.39
335.116	-32.77
335.329	-6.14
335.541	10.24
335.754	108.54
335.966	26.62
336.179	-14.34
336.392	-51.2
336.604	14.34
336.817	96.25
337.029	-6.14
337.242	63.49
337.454	83.97
337.667	14.34
337.88	32.77
338.092	81.92
338.305	65.53
338.517	77.82
338.729	55.3
338.942	59.39
339.154	-10.24
339.367	8.19
339.579	57.34
339.792	-20.48
340.004	110.59
340.217	108.54
340.429	88.06
340.641	24.58
340.854	4.1
341.066	36.86
341.278	67.58
341.491	73.73
341.703	10.24
341.915	-22.53
342.128	45.06
342.34	53.25
342.552	75.77
342.764	-2.05
342.977	2.05
343.189	45.06
343.401	-30.72
343.613	2.05
343.826	116.73
344.038	63.49
344.25	-6.14
344.462	57.34
344.674	45.06
344.886	22.53
345.099	92.16
345.311	4.1
345.523	-6.14
345.735	-36.86
345.947	67.58
346.159	-53.25
346.371	12.29
346.583	18.43
346.795	61.44
347.007	8.19
347.219	75.77
347.431	47.1
347.643	118.78
347.855	88.06
348.067	86.01
348.279	10.24
348.491	47.1
348.703	141.31
348.915	71.68
349.127	-2.05
349.339	129.02
349.551	4.1
349.763	18.43
349.975	108.54
350.187	67.58
350.399	18.43
350.61	-6.14
350.822	53.25
351.034	-12.29
351.246	-22.53
351.458	-4.1
351.669	67.58
351.881	22.53
352.093	98.3
352.305	112.64
352.517	53.25
352.728	14.34
352.94	4.1
353.152	10.24
353.363	30.72
353.575	53.25
353.787	135.17
353.999	-53.25
354.21	43.01
354.422	2.05
354.633	18.43
354.845	59.39
355.057	-12.29
355.268	26.62
355.48	4.1
355.692	-45.06
355.903	79.87
356.115	59.39
356.326	-12.29
356.538	75.77
356.749	57.34
356.961	63.49
357.172	18.43
357.384	-6.14
357.595	67.58
357.807	24.58
358.018	18.43
358.23	-47.1
358.441	67.58
358.653	20.48
358.864	43.01
359.075	20.48
359.287	55.3
359.498	59.39
359.709	-16.38
359.921	83.97
360.132	51.2
360.344	51.2
360.555	-16.38
360.766	110.59
360.977	-30.72
361.189	34.82
361.4	59.39
361.611	69.63
361.823	94.21
362.034	22.53
362.245	-4.1
362.456	43.01
362.667	38.91
362.879	79.87
363.09	36.86
363.301	45.06
363.512	75.77
363.723	108.54
363.935	40.96
364.146	8.19
364.357	38.91
364.568	116.73
364.779	8.19
364.99	45.06
365.201	6.14
365.412	59.39
365.623	88.06
365.834	24.58
366.045	-22.53
366.256	79.87
366.467	14.34
366.678	116.73
366.889	-28.67
367.1	18.43
367.311	18.43
367.522	8.19
367.733	59.39
367.944	43.01
368.155	69.63
368.366	45.06
368.577	47.1
368.788	-2.05
368.999	4.1
369.209	55.3
369.42	75.77
369.631	77.82
369.842	-2.05
370.053	45.06
370.264	67.58
370.474	30.72
370.685	18.43
370.896	77.82
371.107	184.32
371.317	45.06
371.528	-40.96
371.739	137.21
371.95	14.34
372.16	-4.1
372.371	-18.43
372.582	18.43
372.792	30.72
373.003	16.38
373.214	22.53
373.424	32.77
373.635	45.06
373.846	86.01
374.056	18.43
374.267	69.63
374.477	172.03
374.688	110.59
374.898	32.77
375.109	67.58
375.319	75.77
375.53	30.72
375.74	38.91
375.951	18.43
376.161	22.53
376.372	94.21
376.582	10.24
376.793	86.01
377.003	-30.72
377.214	26.62
377.424	67.58
377.635	83.97
377.845	14.34
378.055	71.68
378.266	59.39
378.476	22.53
378.686	18.43
378.897	61.44
379.107	83.97
379.317	53.25
379.528	28.67
379.738	69.63
379.948	-10.24
380.158	45.06
380.369	59.39
380.579	45.06
380.789	77.82
380.999	47.1
381.21	34.82
381.42	145.41
381.63	43.01
381.84	51.2
382.05	88.06
382.261	43.01
382.471	75.77
382.681	83.97
382.891	51.2
383.101	14.34
383.311	-12.29
383.521	-6.14
383.731	63.49
383.941	92.16
384.151	36.86
384.361	20.48
384.571	98.3
384.781	141.31
384.991	71.68
385.201	59.39
385.411	18.43
385.621	18.43
385.831	10.24
386.041	73.73
386.251	45.06
386.461	75.77
386.671	55.3
386.881	24.58
387.091	-6.14
387.301	108.54
387.511	81.92
387.72	28.67
387.93	-12.29
388.14	-12.29
388.35	59.39
388.56	43.01
388.769	34.82
388.979	-30.72
389.189	20.48
389.399	8.19
389.609	147.45
389.818	61.44
390.028	86.01
390.238	34.82
390.447	77.82
390.657	67.58
390.867	67.58
391.076	34.82
391.286	43.01
391.496	51.2
391.705	-10.24
391.915	79.87
392.125	2.05
392.334	45.06
392.544	47.1
392.753	47.1
392.963	102.4
393.172	65.53
393.382	45.06
393.591	69.63
393.801	-12.29
394.01	83.97
394.22	77.82
394.429	71.68
394.639	57.34
394.848	49.15
395.058	38.91
395.267	-24.58
395.477	47.1
395.686	77.82
395.895	57.34
396.105	108.54
396.314	151.55
396.524	53.25
396.733	2.05
396.942	174.08
397.152	75.77
397.361	61.44
397.57	79.87
397.78	26.62
397.989	71.68
398.198	122.88
398.407	178.17
398.617	96.25
398.826	59.39
399.035	108.54
399.244	194.56
399.453	133.12
399.663	118.78
399.872	137.21
400.081	26.62
400.29	141.31
400.499	65.53
400.708	135.17
400.917	88.06
401.127	126.97
401.336	45.06
401.545	159.74
401.754	169.98
401.963	59.39
402.172	98.3
402.381	77.82
402.59	20.48
402.799	120.83
403.008	135.17
403.217	120.83
403.426	110.59
403.635	69.63
403.844	116.73
404.053	100.35
404.262	159.74
404.471	145.41
404.68	79.87
404.888	212.99
405.097	169.98
405.306	190.46
405.515	92.16
405.724	206.84
405.933	188.41
406.142	194.56
406.35	186.37
406.559	126.97
406.768	233.47
406.977	190.46
407.185	106.49
407.394	225.28
407.603	133.12
407.812	159.74
408.02	196.6
408.229	190.46
408.438	174.08
408.646	147.45
408.855	167.93
409.064	223.23
409.272	174.08
409.481	290.81
409.69	215.04
409.898	92.16
410.107	315.39
410.315	296.96
410.524	299
410.733	223.23
410.941	296.96
411.15	323.58
411.358	272.38
411.567	333.82
411.775	350.2
411.984	342.01
412.192	354.3
412.401	374.78
412.609	425.98
412.818	462.84
413.026	374.78
413.234	456.7
413.443	366.59
413.651	387.07
413.86	374.78
414.068	491.51
414.276	536.57
414.485	440.31
414.693	479.22
414.901	632.82
415.11	540.66
415.318	591.86
415.526	534.52
415.734	565.24
415.943	624.63
416.151	686.07
416.359	704.5
416.567	694.26
416.776	755.7
416.984	763.89
417.192	829.43
417.4	880.63
417.608	737.27
417.817	919.54
418.025	804.85
418.233	935.92
418.441	937.97
418.649	927.73
418.857	1134.57
419.065	1009.65
419.273	1001.46
419.481	1116.14
419.689	1218.54
419.897	1320.94
420.105	1226.73
420.313	1232.88
420.521	1288.17
420.729	1396.71
420.937	1253.36
421.145	1521.64
421.353	1546.22
421.561	1652.71
421.769	1642.47
421.977	1673.19
422.185	1767.4
422.393	1781.73
422.601	1947.62
422.809	1939.43
423.017	1851.36
423.224	1986.53
423.432	2082.78
423.64	2025.44
423.848	2338.78
424.056	2209.76
424.263	2359.26
424.471	2353.12
424.679	2570.2
424.887	2648.02
425.094	2627.54
425.302	2557.91
425.51	2697.17
425.718	2826.2
425.925	2772.95
426.133	3008.47
426.341	3188.69
426.548	3385.29
426.756	3237.84
426.964	3254.22
427.171	3440.59
427.379	3737.54
427.586	3688.39
427.794	3827.65
428.001	3860.42
428.209	4313.02
428.417	4089.79
428.624	4442.04
428.832	4192.19
429.039	4251.58
429.247	4435.9
429.454	4872.12
429.662	5101.49
429.869	4888.5
430.076	4984.76
430.284	4962.23
430.491	4995
430.699	5408.69
430.906	5504.94
431.114	5498.8
431.321	5670.83
431.528	5736.36
431.736	6104.99
431.943	6522.78
432.15	6367.13
432.358	6295.46
432.565	6645.66
432.772	6606.75
432.979	7075.73
433.187	7081.88
433.394	7151.51
433.601	7645.07
433.808	7788.43
434.016	7655.31
434.223	7837.58
434.43	8447.87
434.637	8241.03
434.844	8644.48
435.052	8904.57
435.259	8937.34
435.466	9041.78
435.673	8812.41
435.88	9287.54
436.087	10121.06
436.294	10030.95
436.501	9875.31
436.708	9940.84
436.915	10366.82
437.122	10610.53
437.329	10704.73
437.537	11282.26
437.743	11482.96
437.95	11288.4
438.157	11763.53
438.364	12068.68
438.571	12283.72
438.778	12302.15
438.985	13324.08
439.192	12867.39
439.399	13336.37
439.606	12947.26
439.813	13764.4
440.02	14421.8
440.227	14280.49
440.433	14141.22
440.64	14614.31
440.847	14393.12
441.054	14743.33
441.261	15730.45
441.467	15451.92
441.674	15697.68
441.881	16314.12
442.088	16453.38
442.294	16385.8
442.501	16908.03
442.708	17155.83
442.914	17633.01
443.121	18493.16
443.328	18147.05
443.534	19576.53
443.741	18851.55
443.948	18564.84
444.154	19889.87
444.361	19701.46
444.568	19904.21
444.774	19857.1
444.981	20313.8
445.187	20756.16
445.394	21495.48
445.6	21161.66
445.807	23525.02
446.013	22349.48
446.22	22548.14
446.426	23809.68
446.633	23953.04
446.839	24891.01
447.046	23608.98
447.252	25142.91
447.459	25169.54
447.665	24968.83
447.871	26381.93
448.078	27272.8
448.284	26011.25
448.491	26893.93
448.697	27575.9
448.903	28350.03
449.11	28255.82
449.316	28020.31
449.522	28497.49
449.728	29189.7
449.935	28999.24
450.141	29447.74
450.347	30387.76
450.553	29404.74
450.76	29783.61
450.966	30666.28
451.172	30398
451.378	31082.02
451.584	30572.08
451.791	31198.76
451.997	31284.77
452.203	31880.73
452.409	31938.07
452.615	31694.36
452.821	30989.86
453.027	30514.73
453.233	32185.88
453.44	30959.14
453.646	30971.43
453.852	31413.79
454.058	31893.02
454.264	30752.3
454.47	31833.63
454.676	30776.87
454.882	31864.35
455.088	29050.44
455.294	29902.39
455.5	30055.99
455.705	30641.71
455.911	29077.06
456.117	28612.17
456.323	28309.07
456.529	27186.79
456.735	28137.04
456.941	27403.87
457.147	26859.11
457.352	26226.29
457.558	25915
457.764	26162.8
457.97	25534.07
458.176	24948.36
458.381	25083.52
458.587	23565.98
458.793	23813.78
458.999	22498.98
459.204	24321.68
459.41	23447.19
459.616	21923.51
459.821	22228.65
460.027	21857.97
460.233	21370.55
460.438	20383.43
460.644	20799.17
460.85	19982.03
461.055	19719.89
461.261	19527.38
461.466	17934.06
461.672	17557.24
461.878	18849.5
462.083	17587.96
462.289	17186.55
462.494	17256.18
462.7	16301.83
462.905	15812.37
463.111	16445.19
463.316	16463.62
463.522	16322.31
463.727	16320.26
463.932	16279.3
464.138	15699.73
464.343	16074.51
464.549	15755.02
464.754	16039.69
464.959	15992.59
465.165	15963.92
465.37	15134.49
465.575	14681.89
465.781	15552.27
465.986	15511.32
466.191	14804.77
466.397	14708.51
466.602	14180.14
466.807	14432.04
467.012	14440.23
467.218	14448.42
467.423	14096.17
467.628	14329.64
467.833	15191.83
468.038	14473
468.244	14014.25
468.449	14626.59
468.654	14081.83
468.859	13913.9
469.064	13940.52
469.269	13377.33
469.474	13522.74
469.679	13690.67
469.885	13401.91
470.09	13502.26
470.295	13297.46
470.5	12910.4
470.705	13332.28
470.91	13039.42
471.115	12799.8
471.32	13229.88
471.525	13176.63
471.73	12597.06
471.935	12599.1
472.139	12181.32
472.344	12535.62
472.549	12189.51
472.754	12218.18
472.959	11800.4
473.164	11648.85
473.369	11458.39
473.574	11904.84
473.778	11730.76
473.983	11644.75
474.188	11669.33
474.393	11241.3
474.598	11259.73
474.802	11081.56
475.007	11077.46
475.212	10981.21
475.417	10790.75
475.621	10723.16
475.826	10598.24
476.031	10557.28
476.235	10440.54
476.44	10512.22
476.645	10274.66
476.849	10299.23
477.054	10147.69
477.259	10192.74
477.463	9942.89
477.668	9881.45
477.872	9699.18
478.077	9621.36
478.282	9539.44
478.486	9461.62
478.691	9506.67
478.895	9500.53
479.1	9179
479.304	9387.89
479.509	9004.92
479.713	9308.02
479.918	9004.92
480.122	8816.51
480.326	9078.65
480.531	8892.28
480.735	8894.33
480.94	8759.16
481.144	8914.81
481.348	8658.81
481.553	8773.5
481.757	8689.53
481.961	8669.05
482.166	8935.29
482.37	8652.67
482.574	8554.37
482.778	8593.28
482.983	8703.87
483.187	8679.29
483.391	8683.39
483.595	8617.85
483.8	8433.54
484.004	8630.14
484.208	8697.72
484.412	8480.64
484.616	8734.59
484.821	8789.88
485.025	8441.73
485.229	8568.7
485.433	8497.02
485.637	8613.76
485.841	8415.1
486.045	8462.21
486.249	8720.25
486.453	8589.18
486.657	8738.68
486.861	8529.79
487.065	8296.32
487.269	8603.52
487.473	8415.1
487.677	8640.38
487.881	8816.51
488.085	8533.89
488.289	8542.08
488.493	8791.93
488.697	8861.56
488.901	8830.84
489.105	8636.28
489.309	8920.95
489.512	8834.94
489.716	8654.72
489.92	8796.03
490.124	8796.03
490.328	8896.38
490.531	8595.32
490.735	8998.77
490.939	9152.37
491.143	8791.93
491.346	8857.46
491.55	9017.21
491.754	9097.08
491.958	9195.38
492.161	9283.44
492.365	9131.89
492.569	9172.85
492.772	9004.92
492.976	9248.63
493.18	9465.71
493.383	9416.56
493.587	9492.34
493.79	9631.6
493.994	9582.45
494.197	9527.15
494.401	9766.76
494.605	9877.35
494.808	10028.9
495.012	9932.65
495.215	10006.38
495.419	10360.67
495.622	10073.96
495.825	10121.06
496.029	10110.82
496.232	10377.06
496.436	10501.98
496.639	10631.01
496.843	10622.81
497.046	10880.86
497.249	10882.91
497.453	11110.23
497.656	11380.56
497.859	11454.29
498.063	11384.66
498.266	11579.22
498.469	11509.58
498.673	11679.57
498.876	11759.44
499.079	12150.6
499.282	11978.57
499.485	12232.52
499.689	12349.25
499.892	12734.27
500.095	12599.1
500.298	12842.81
500.501	12621.63
500.705	13311.8
500.908	13217.59
501.111	13578.03
501.314	13711.15
501.517	13625.14
501.72	13946.67
501.923	14067.5
502.126	14391.08
502.329	14665.5
502.532	14470.95
502.735	14712.61
502.938	14845.73
503.141	15154.97
503.344	15140.63
503.547	15238.94
503.75	15470.36
503.953	15902.48
504.156	16090.89
504.359	16119.56
504.562	16254.73
504.765	16514.82
504.968	16596.74
505.17	16979.71
505.373	17078.01
505.576	17420.02
505.779	17417.97
505.982	17714.93
506.185	17802.99
506.387	17938.16
506.59	18142.96
506.793	18736.87
506.996	18679.52
507.198	19238.62
507.401	19093.21
507.604	19566.29
507.807	19891.92
508.009	19697.36
508.212	19699.41
508.415	20152.01
508.617	20219.6
508.82	20788.93
509.022	20682.44
509.225	21132.99
509.428	21343.93
509.63	21284.54
509.833	21774
510.035	22298.28
510.238	22167.21
510.44	22400.68
510.643	22718.12
510.845	22910.63
511.048	23080.61
511.25	23281.31
511.453	23576.22
511.655	24514.19
511.858	23936.66
512.06	24512.14
512.262	24874.63
512.465	24448.65
512.667	25013.89
512.87	25364.09
513.072	25376.38
513.274	25933.43
513.477	26295.92
513.679	26275.44
513.881	26734.18
514.084	27145.83
514.286	26938.98
514.488	27285.09
514.69	28110.42
514.893	28286.54
515.095	28229.2
515.297	28835.4
515.499	28747.34
515.701	29128.26
515.904	29451.84
516.106	29615.68
516.308	29865.53
516.51	30039.61
516.712	30463.54
516.914	30529.07
517.116	31297.06
517.318	31135.27
517.52	31505.95
517.722	31819.29
517.925	32071.19
518.127	32728.59
518.329	32642.57
518.531	32335.38
518.733	33293.83
518.935	33684.99
519.136	33644.03
519.338	34100.73
519.54	34119.16
519.742	34919.92
519.944	35032.55
520.146	35526.11
520.348	35249.64
520.55	35775.97
520.752	35945.95
520.954	36421.08
521.155	36339.16
521.357	36818.38
521.559	37232.07
521.761	37535.17
521.963	37434.82
522.164	37608.9
522.366	37850.56
522.568	38643.12
522.77	38688.18
522.971	38806.96
523.173	38960.56
523.375	39171.5
523.576	38899.12
523.778	39419.3
523.98	39890.34
524.181	40025.5
524.383	40727.95
524.584	40621.46
524.786	40603.03
524.988	40394.14
525.189	41313.67
525.391	41573.77
525.592	41463.18
525.794	41596.29
525.995	42112.38
526.197	41758.08
526.398	42034.56
526.6	42147.2
526.801	42184.06
527.003	42583.41
527.204	42507.64
527.406	43144.56
527.607	42548.6
527.808	43122.03
528.01	42769.78
528.211	43228.52
528.412	43930.98
528.614	43705.7
528.815	43969.89
529.016	44143.97
529.218	43742.56
529.419	44289.37
529.62	43914.59
529.822	44088.67
530.023	44258.65
530.224	44451.16
530.425	43877.73
530.626	44100.96
530.828	44348.76
531.029	45227.34
531.23	44361.05
531.431	44412.25
531.632	44561.75
531.833	44799.32
532.035	44774.74
532.236	44678.49
532.437	45155.66
532.638	44914
532.839	45141.33
533.04	45323.6
533.241	45010.26
533.442	45538.63
533.643	45180.24
533.844	44989.78
534.045	45219.15
534.246	45313.36
534.447	45612.36
534.648	45088.08
534.849	45845.83
535.05	44889.43
535.251	45536.59
535.451	45241.68
535.652	45342.03
535.853	45333.84
536.054	45323.6
536.255	45808.96
536.456	44920.15
536.657	45874.5
536.857	45327.69
537.058	45385.04
537.259	45374.8
537.46	45358.41
537.66	45225.29
537.861	45974.85
538.062	45350.22
538.263	45364.56
538.463	45380.94
538.664	45520.2
538.865	45739.33
539.065	45901.12
539.266	45047.12
539.466	45903.17
539.667	44918.1
539.868	45931.84
540.068	45565.26
540.269	45684.04
540.469	45489.48
540.67	45344.08
540.87	45518.15
541.071	45442.38
541.271	45864.26
541.472	45309.26
541.672	45249.87
541.873	45501.77
542.073	45282.64
542.274	45532.49
542.474	45309.26
542.675	45114.7
542.875	45552.97
543.075	45299.02
543.276	44948.82
543.476	45559.11
543.676	45026.64
543.877	45669.7
544.077	45100.37
544.277	44899.67
544.478	45399.37
544.678	45425.99
544.878	45423.95
545.078	45178.19
545.279	44809.56
545.479	45049.17
545.679	45405.52
545.879	45401.42
546.079	45247.82
546.28	44819.8
546.48	44936.53
546.68	45114.7
546.88	45532.49
547.08	45266.25
547.28	45344.08
547.48	44744.02
547.68	45286.73
547.88	45010.26
548.081	45178.19
548.281	44901.71
548.481	45161.81
548.681	45487.43
548.881	45018.45
549.081	45190.48
549.28	44965.2
549.48	45501.77
549.68	44842.32
549.88	45391.18
550.08	44852.56
550.28	45096.27
550.48	44838.23
550.68	45038.93
550.88	44873.04
551.08	44973.39
551.279	45231.44
551.479	44701.01
551.679	45135.18
551.879	44944.72
552.079	45235.53
552.278	44662.1
552.478	45157.71
552.678	44864.85
552.878	45061.46
553.077	44461.4
553.277	44467.55
553.477	45022.54
553.676	45014.35
553.876	44750.17
554.076	44864.85
554.275	44594.52
554.475	44309.85
554.674	44615
554.874	44901.71
555.074	44365.15
555.273	44281.18
555.473	44721.49
555.672	44201.31
555.872	44436.83
556.071	44565.85
556.271	44731.73
556.47	44467.55
556.67	43939.17
556.869	44250.46
557.068	44170.59
557.268	44291.42
557.467	44094.82
557.667	44127.58
557.866	44303.71
558.065	44121.44
558.265	43613.54
558.464	43640.17
558.663	44361.05
558.863	43736.42
559.062	44352.86
559.261	43652.45
559.461	44397.91
559.66	43130.22
559.859	43677.03
560.058	43165.04
560.258	43474.28
560.457	43384.17
560.656	43486.57
560.855	43318.64
561.054	43689.32
561.253	43365.74
561.453	43038.06
561.652	43275.63
561.851	43390.31
562.05	42943.86
562.249	42906.99
562.448	43550.06
562.647	42716.53
562.846	43316.59
563.045	43130.22
563.244	42401.14
563.443	42925.43
563.642	42263.93
563.841	42644.85
564.04	42657.14
564.239	42571.13
564.438	41829.76
564.637	42474.87
564.836	42808.69
565.035	41975.17
565.234	42042.75
565.432	41581.96
565.631	41868.67
565.83	41706.88
566.029	41366.92
566.228	41694.6
566.427	42122.62
566.625	41835.91
566.824	41225.61
567.023	41508.23
567.222	40953.23
567.42	41794.95
567.619	41569.67
567.818	41004.43
568.016	41141.64
568.215	41158.03
568.414	41057.68
568.612	40912.27
568.811	40455.57
569.01	40811.92
569.208	40066.46
569.407	40639.89
569.605	40248.73
569.804	40639.89
570.002	40275.35
570.201	40543.64
570.4	40177.05
570.598	39984.54
570.797	39687.59
570.995	39724.45
571.193	39296.42
571.392	39964.06
571.59	39679.39
571.789	39568.8
571.987	39638.44
572.186	39818.66
572.384	38829.49
572.582	39005.61
572.781	39226.79
572.979	38872.49
573.177	38929.84
573.376	39323.05
573.574	38557.11
573.772	38976.94
573.971	38550.96
574.169	38356.41
574.367	38081.98
574.565	38753.71
574.763	38110.65
574.962	37938.62
575.16	38012.35
575.358	38055.36
575.556	37752.26
575.754	38405.56
575.952	37731.78
576.151	37813.69
576.349	37443.01
576.547	37633.47
576.745	37418.44
576.943	37318.09
577.141	37539.27
577.339	37047.75
577.537	37031.37
577.735	36885.97
577.933	36834.77
578.131	37070.28
578.329	36519.38
578.527	36330.97
578.725	36376.02
578.923	36699.6
579.121	36300.25
579.319	36017.63
579.516	36423.12
579.714	36318.68
579.912	35821.02
580.11	35769.82
580.308	36019.67
580.506	35380.71
580.704	35175.91
580.901	35546.59
581.099	36060.63
581.297	35096.04
581.495	35249.64
581.692	35579.36
581.89	34780.65
582.088	34954.73
582.285	34807.28
582.483	35233.25
582.681	34940.39
582.878	34561.52
583.076	34065.91
583.274	34934.25
583.471	33996.28
583.669	34119.16
583.866	34098.68
584.064	34303.48
584.262	33705.47
584.459	34291.19
584.657	33734.14
584.854	33906.17
585.052	33302.02
585.249	33498.62
585.447	33652.22
585.644	33005.06
585.841	33648.13
586.039	33938.94
586.236	32892.43
586.434	32931.34
586.631	32718.35
586.828	33224.2
587.026	32861.71
587.223	32540.18
587.42	32480.78
587.618	32855.56
587.815	32063
588.012	32128.53
588.21	32425.49
588.407	32439.82
588.604	32095.77
588.801	32001.56
588.999	31649.31
589.196	31704.6
589.393	32019.99
589.59	31426.08
589.787	31512.1
589.984	31366.69
590.182	31133.22
590.379	31125.03
590.576	30912.04
590.773	31215.14
590.97	30895.66
591.167	31069.73
591.364	30729.77
591.561	30678.57
591.758	30404.14
591.955	30543.41
592.152	30610.99
592.349	30252.59
592.546	30453.3
592.743	30287.41
592.94	29896.25
593.137	30191.16
593.334	30101.04
593.531	29607.48
593.727	30041.65
593.924	29609.53
594.121	29488.7
594.318	29457.98
594.515	29148.74
594.712	29609.53
594.908	29181.51
595.105	28989
595.302	28952.13
595.499	29324.86
595.696	28819.02
595.892	28737.1
596.089	28712.52
596.286	28757.58
596.482	28743.24
596.679	28567.12
596.876	28563.02
597.072	28272.21
597.269	28231.25
597.466	28048.98
597.662	28382.8
597.859	27987.54
598.055	27817.56
598.252	27565.66
598.448	27842.14
598.645	27774.55
598.841	27461.21
599.038	27264.61
599.234	27584.09
599.431	27424.35
599.627	27446.88
599.824	27172.45
600.02	27266.66
600.217	27059.81
600.413	27348.57
600.609	26840.68
600.806	26842.73
601.002	26752.62
601.198	26453.61
601.395	26390.13
601.591	26558.06
601.787	26617.45
601.984	26134.13
602.18	26463.85
602.376	26070.64
602.572	26031.73
602.769	25884.28
602.965	25845.37
603.161	26025.59
603.357	25722.49
603.553	25831.03
603.75	25880.18
603.946	25679.48
604.142	25560.7
604.338	25032.32
604.534	25339.52
604.73	25114.24
604.926	25032.32
605.122	25077.38
605.318	25144.96
605.514	24929.92
605.71	24888.96
605.906	24604.3
606.102	24657.54
606.298	24835.72
606.494	24745.61
606.69	24632.97
606.886	24460.94
607.082	24278.67
607.278	24288.91
607.474	24133.26
607.67	24567.43
607.866	23561.88
608.062	24198.8
608.257	24039.06
608.453	24016.53
608.649	24155.79
608.845	23529.11
609.041	23832.21
609.236	23840.4
609.432	23363.23
609.628	23645.85
609.824	23725.72
610.019	23359.13
610.215	23504.54
610.411	23363.23
610.606	23078.56
610.802	23094.94
610.998	22783.65
611.193	23162.53
611.389	23027.36
611.584	23166.62
611.78	22875.81
611.976	22984.35
612.171	23049.89
612.367	22812.32
612.562	22640.29
612.758	22372.01
612.953	22478.5
613.149	22699.69
613.344	22531.75
613.539	22648.49
613.735	22648.49
613.93	22376.11
614.126	22324.91
614.321	22337.2
614.517	22488.74
614.712	22421.16
614.907	22357.67
615.103	22206.13
615.298	22197.93
615.493	22259.37
615.688	21798.58
615.884	22091.44
616.079	22007.47
616.274	21831.35
616.47	21702.32
616.665	21913.27
616.86	21761.72
617.055	21667.51
617.25	21622.45
617.445	21876.4
617.641	21173.95
617.836	21630.65
618.031	20932.29
618.226	21540.54
618.421	21173.95
618.616	21407.42
618.811	20674.24
619.006	21239.48
619.201	20938.43
619.396	21276.35
619.591	20721.35
619.786	20633.29
619.981	20307.66
620.176	20833.99
620.371	20113.1
620.566	20508.36
620.761	20311.75
620.956	20250.31
621.151	20244.17
621.346	19836.63
621.541	19531.48
621.735	19859.15
621.93	19619.54
622.125	19338.97
622.32	19154.65
622.515	19523.29
622.709	18982.62
622.904	19244.76
623.099	19173.08
623.294	18939.61
623.488	18650.85
623.683	18841.31
623.878	18585.32
624.072	18908.9
624.267	18587.36
624.462	18460.39
624.656	18224.87
624.851	18339.56
625.046	17921.77
625.24	18067.18
625.435	17762.03
625.629	17950.45
625.824	17870.58
626.018	17565.43
626.213	17383.16
626.407	17362.68
626.602	17098.49
626.796	17391.35
626.991	17202.94
627.185	16809.73
627.38	16813.82
627.574	17049.34
627.768	16697.09
627.963	16574.21
628.157	16477.96
628.352	16656.13
628.546	16310.02
628.74	16307.98
628.935	15988.49
629.129	16119.56
629.323	15968.01
629.517	16058.12
629.712	15990.54
629.906	15744.78
630.1	15591.19
630.294	15689.49
630.489	15595.28
630.683	15542.03
630.877	15372.05
631.071	15138.59
631.265	15331.09
631.459	15089.43
631.653	15019.8
631.848	14956.32
632.042	14919.45
632.236	14923.55
632.43	14733.09
632.624	14966.56
632.818	14642.98
633.012	14372.64
633.206	14624.54
633.4	14370.6
633.594	14534.43
633.788	14047.02
633.982	14335.78
634.176	14130.98
634.369	13901.61
634.563	14042.92
634.757	13844.27
634.951	14014.25
635.145	13823.79
635.339	13719.34
635.533	13463.35
635.726	13504.31
635.92	13193.01
636.114	13365.04
636.308	13539.12
636.501	13055.8
636.695	13223.73
636.889	13154.1
637.083	13088.57
637.276	13006.65
637.47	12838.72
637.664	12822.33
637.857	12855.1
638.051	12560.19
638.244	12642.11
638.438	12533.57
638.632	12298.05
638.825	12357.44
639.019	12433.22
639.212	12314.44
639.406	12287.81
639.599	11958.09
639.793	12023.62
639.986	11880.27
640.18	11855.69
640.373	11784.01
640.567	11726.67
640.76	11956.04
640.954	11736.91
641.147	11544.4
641.34	11568.98
641.534	11454.29
641.727	11353.94
641.92	11210.58
642.114	11306.84
642.307	11302.74
642.5	11046.74
642.694	10950.49
642.887	11079.51
643.08	11032.41
643.273	10827.61
643.467	10874.71
643.66	10696.54
643.853	10614.62
644.046	10721.12
644.239	10639.2
644.432	10463.07
644.626	10364.77
644.819	10352.48
645.012	10358.63
645.205	10436.45
645.398	10159.97
645.591	10157.92
645.784	10266.47
645.977	9877.35
646.17	9987.94
646.363	9799.53
646.556	10028.9
646.749	9789.29
646.942	9750.38
647.135	9627.5
647.328	9684.84
647.521	9451.38
647.714	9580.4
647.907	9545.58
648.099	9357.17
648.292	9455.47
648.485	9326.45
648.678	9086.84
648.871	9207.67
649.064	9095.03
649.256	9113.46
649.449	9045.88
649.642	8957.82
649.835	8963.96
650.027	8951.67
650.22	8699.77
650.413	8724.35
650.605	8607.61
650.798	8605.56
650.991	8435.58
651.183	8361.86
651.376	8505.21
651.568	8605.56
651.761	8343.42
651.954	8484.73
652.146	8388.48
652.339	7982.98
652.531	8216.45
652.724	8228.74
652.916	7948.17
653.109	8052.61
653.301	8081.28
653.494	8152.96
653.686	7683.98
653.879	8048.52
654.071	8025.99
654.263	7817.1
654.456	7890.82
654.648	7823.24
654.84	7804.81
655.033	7618.44
655.225	7704.46
655.417	7530.38
655.61	7606.16
655.802	7534.48
655.994	7583.63
656.186	7411.6
656.379	7403.41
656.571	7399.31
656.763	7335.82
656.955	7186.32
657.148	7081.88
657.34	6975.38
657.532	7028.63
657.724	7075.73
657.916	7040.92
658.108	6952.85
658.3	6834.07
658.492	6842.26
658.684	6678.43
658.876	6743.96
659.068	6989.72
659.26	6549.4
659.452	6834.07
659.644	6567.84
659.836	6705.05
660.028	6852.5
660.22	6334.37
660.412	6395.81
660.604	6412.19
660.796	6356.89
660.988	6352.8
661.18	6211.49
661.372	6199.2
661.563	6256.54
661.755	6127.52
661.947	6242.21
662.139	6141.86
662.331	5932.97
662.522	5961.64
662.714	5949.35
662.906	6096.8
663.097	5957.54
663.289	5885.86
663.481	5801.9
663.673	5851.05
663.864	5529.52
664.056	5760.94
664.247	5689.26
664.439	5676.97
664.631	5629.87
664.822	5590.95
665.014	5683.11
665.205	5433.26
665.397	5490.6
665.588	5531.56
665.78	5461.93
665.971	5322.67
666.163	5234.61
666.354	5265.33
666.546	5398.45
666.737	5238.7
666.929	5228.46
667.12	5148.59
667.311	5148.59
667.503	5167.03
667.694	5081.01
667.885	5142.45
668.077	5023.67
668.268	4927.41
668.459	5050.29
668.651	4949.94
668.842	4825.01
669.033	4978.61
669.224	4777.91
669.416	4913.08
669.607	4827.06
669.798	4761.53
669.989	4876.21
670.18	4734.9
670.371	4874.17
670.563	4671.42
670.754	4669.37
670.945	4622.27
671.136	4726.71
671.327	4573.11
671.518	4573.11
671.709	4700.09
671.9	4630.46
672.091	4605.88
672.282	4566.97
672.473	4427.71
672.664	4384.7
672.855	4452.28
673.046	4419.52
673.237	4437.95
673.428	4450.24
673.619	4405.18
673.809	4409.28
674	4255.68
674.191	4380.61
674.382	4257.73
674.573	4364.22
674.764	4259.77
674.954	4249.54
675.145	4130.75
675.336	4132.8
675.527	4163.52
675.717	4108.23
675.908	4155.33
676.099	4202.43
676.289	4173.76
676.48	4171.71
676.671	4177.86
676.861	4253.63
677.052	4054.98
677.243	4040.64
677.433	4059.07
677.624	4003.78
677.814	4001.73
678.005	4081.6
678.195	3958.72
678.386	3872.71
678.576	4077.51
678.767	3829.7
678.957	3964.87
679.148	3887.04
679.338	3837.89
679.529	3876.8
679.719	3809.22
679.909	3909.57
680.1	3968.96
680.29	3852.23
680.481	3899.33
680.671	3880.9
680.861	3821.51
681.052	3747.78
681.242	3753.93
681.432	3823.56
681.622	3729.35
681.813	3649.48
682.003	3733.45
682.193	3682.25
682.383	3788.74
682.573	3758.02
682.764	3581.9
682.954	3737.54
683.144	3575.75
683.334	3696.58
683.524	3612.62
683.714	3780.55
683.904	3549.13
684.094	3602.38
684.284	3639.24
684.474	3678.15
684.664	3776.45
684.854	3725.26
685.044	3590.09
685.234	3540.94
685.424	3643.34
685.614	3571.66
685.804	3489.74
685.994	3629
686.184	3510.22
686.374	3567.56
686.564	3401.68
686.753	3622.86
686.943	3489.74
687.133	3526.6
687.323	3506.12
687.513	3506.12
687.702	3614.66
687.892	3436.49
688.082	3557.32
688.272	3569.61
688.461	3356.62
688.651	3450.83
688.841	3434.44
689.03	3354.57
689.22	3377.1
689.41	3393.48
689.599	3327.95
689.789	3434.44
689.979	3373
690.168	3303.37
690.358	3348.43
690.547	3221.45
690.737	3313.61
690.926	3291.09
691.116	3225.55
691.305	3325.9
691.495	3293.13
691.684	3250.13
691.874	3313.61
692.063	3205.07
692.252	3264.46
692.442	3295.18
692.631	3229.65
692.82	3182.54
693.01	3207.12
693.199	3100.62
693.388	3147.73
693.578	3178.45
693.767	3184.59
693.956	3108.82
694.146	3176.4
694.335	3221.45
694.524	3256.27
694.713	3172.3
694.902	3057.62
695.092	3082.19
695.281	3106.77
695.47	3139.54
695.659	2961.36
695.848	2947.03
696.037	3123.15
696.226	3055.57
696.415	3018.71
696.604	3241.93
696.793	3057.62
696.982	2932.69
697.171	3043.28
697.36	3102.67
697.549	2922.45
697.738	2936.79
697.927	2951.12
698.116	2963.41
698.305	2901.97
698.494	3012.56
698.683	2959.31
698.872	3043.28
699.061	2852.82
699.25	2838.48
699.438	2938.84
699.627	2953.17
699.816	2936.79
700.005	2908.12
700.193	2836.44
700.382	2861.01
700.571	2822.1
700.76	2934.74
700.948	2914.26
701.137	2824.15
701.326	3006.42
701.514	2955.22
701.703	2914.26
701.892	2807.77
702.08	2838.48
702.269	2828.24
702.457	2762.71
702.646	2914.26
702.834	2758.61
703.023	2701.27
703.212	2789.33
703.4	2824.15
703.589	2721.75
703.777	2762.71
703.965	2740.18
704.154	2707.41
704.342	2680.79
704.531	2760.66
704.719	2734.04
704.907	2688.98
705.096	2582.49
705.284	2670.55
705.472	2721.75
705.661	2748.37
705.849	2652.12
706.037	2725.85
706.226	2660.31
706.414	2650.07
706.602	2627.54
706.79	2619.35
706.979	2559.96
707.167	2672.6
707.355	2668.5
707.543	2715.61
707.731	2676.7
707.919	2533.34
708.107	2627.54
708.296	2430.94
708.484	2521.05
708.672	2586.58
708.86	2658.26
709.048	2535.39
709.236	2496.47
709.424	2623.45
709.612	2607.06
709.8	2428.89
709.988	2519
710.176	2488.28
710.364	2551.77
710.551	2484.19
710.739	2508.76
710.927	2486.23
711.115	2471.9
711.303	2576.34
711.491	2494.43
711.679	2328.54
711.866	2494.43
712.054	2529.24
712.242	2473.95
712.43	2420.7
712.617	2492.38
712.805	2465.75
712.993	2353.12
713.181	2430.94
713.368	2394.08
713.556	2475.99
713.744	2324.44
713.931	2457.56
714.119	2410.46
714.306	2287.58
714.494	2402.27
714.682	2320.35
714.869	2353.12
715.057	2377.69
715.244	2308.06
715.432	2437.08
715.619	2344.92
715.807	2418.65
715.994	2308.06
716.182	2291.68
716.369	2271.2
716.556	2375.64
716.744	2260.96
716.931	2220
717.119	2369.5
717.306	2369.5
717.493	2224.09
717.681	2303.96
717.868	2344.92
718.055	2201.57
718.242	2258.91
718.43	2353.12
718.617	2197.47
718.804	2154.46
718.991	2260.96
719.179	2181.09
719.366	2181.09
719.553	2199.52
719.74	2193.37
719.927	2234.33
720.114	2031.58
720.301	2263.01
720.488	2181.09
720.676	2082.78
720.863	2230.24
721.05	2234.33
721.237	2156.51
721.424	2115.55
721.611	2224.09
721.798	2109.41
721.985	2033.63
722.172	1988.58
722.358	2027.49
722.545	2148.32
722.732	2107.36
722.919	2117.6
723.106	2041.82
723.293	2068.45
723.48	1998.82
723.667	2076.64
723.853	1984.48
724.04	2105.31
724.227	2156.51
724.414	2105.31
724.6	2158.56
724.787	2054.11
724.974	2164.7
725.161	1988.58
725.347	2013.15
725.534	2027.49
725.72	2033.63
725.907	2117.6
726.094	2025.44
726.28	2043.87
726.467	1904.61
726.653	1886.18
726.84	2066.4
727.027	2011.11
727.213	1900.51
727.4	1949.67
727.586	1992.67
727.773	1904.61
727.959	1949.67
728.145	1910.75
728.332	2041.82
728.518	1929.19
728.705	1910.75
728.891	1959.91
729.077	1828.84
729.264	1916.9
729.45	1939.43
729.636	1910.75
729.823	1839.08
730.009	1978.34
730.195	1863.65
730.382	1886.18
730.568	1902.56
730.754	1994.72
730.94	1910.75
731.126	1837.03
731.313	1839.08
731.499	1920.99
731.685	1931.23
731.871	1869.8
732.057	1855.46
732.243	1939.43
732.429	1871.84
732.615	1861.6
732.801	1822.69
732.987	1806.31
733.173	1877.99
733.359	1724.39
733.545	1751.01
733.731	1765.35
733.917	1855.46
734.103	1804.26
734.289	1923.04
734.475	1699.81
734.661	1910.75
734.847	1648.61
735.033	1730.53
735.219	1773.54
735.404	1847.27
735.59	1806.31
735.776	1730.53
735.962	1714.15
736.148	1751.01
736.333	1763.3
736.519	1775.59
736.705	1814.5
736.89	1697.77
737.076	1703.91
737.262	1611.75
737.447	1740.77
737.633	1863.65
737.819	1771.49
738.004	1628.14
738.19	1630.18
738.375	1601.51
738.561	1693.67
738.747	1708.01
738.932	1626.09
739.118	1626.09
739.303	1624.04
739.489	1673.19
739.674	1656.81
739.859	1595.37
740.045	1630.18
740.23	1628.14
740.416	1519.59
740.601	1724.39
740.786	1652.71
740.972	1603.56
741.157	1517.54
741.342	1574.89
741.528	1566.7
741.713	1609.7
741.898	1550.31
742.084	1615.85
742.269	1466.35
742.454	1574.89
742.639	1621.99
742.824	1525.74
743.01	1542.12
743.195	1515.5
743.38	1486.83
743.565	1435.63
743.75	1443.82
743.935	1574.89
744.12	1533.93
744.305	1452.01
744.49	1517.54
744.675	1404.91
744.86	1325.04
745.045	1445.87
745.23	1435.63
745.415	1437.67
745.6	1423.34
745.785	1415.15
745.97	1456.11
746.155	1396.71
746.34	1419.24
746.525	1445.87
746.71	1304.56
746.895	1359.85
747.079	1257.45
747.264	1396.71
747.449	1368.04
747.634	1353.71
747.819	1415.15
748.003	1361.9
748.188	1316.84
748.373	1265.64
748.557	1298.41
748.742	1282.03
748.927	1361.9
749.111	1189.87
749.296	1325.04
749.481	1341.42
749.665	1200.11
749.85	1255.4
750.034	1163.25
750.219	1173.49
750.404	1198.06
750.588	1193.97
750.773	1126.38
750.957	1218.54
751.141	1128.43
751.326	1216.49
751.51	1157.1
751.695	1150.96
751.879	1183.73
752.064	1173.49
752.248	1136.62
752.432	1198.06
752.617	1130.48
752.801	1189.87
752.985	1150.96
753.17	1058.8
753.354	1103.86
753.538	1134.57
753.722	1079.28
753.907	1161.2
754.091	1013.74
754.275	1099.76
754.459	1091.57
754.643	1003.5
754.828	1103.86
755.012	1042.42
755.196	1001.46
755.38	1044.46
755.564	974.83
755.748	976.88
755.932	1042.42
756.116	1028.08
756.3	1013.74
756.484	968.69
756.668	927.73
756.852	989.17
757.036	952.31
757.22	978.93
757.404	870.39
757.588	964.59
757.772	839.67
757.956	985.07
758.14	927.73
758.323	897.01
758.507	886.77
758.691	851.95
758.875	911.35
759.059	954.35
759.242	837.62
759.426	854
759.61	872.43
759.794	821.24
759.977	792.56
760.161	813.04
760.345	921.59
760.528	878.58
760.712	901.11
760.895	788.47
761.079	854
761.263	841.72
761.446	763.89
761.63	794.61
761.813	919.54
761.997	788.47
762.18	878.58
762.364	708.6
762.547	757.75
762.731	735.22
762.914	835.57
763.098	788.47
763.281	772.08
763.464	659.45
763.648	874.48
763.831	798.71
764.015	739.32
764.198	796.66
764.381	788.47
764.564	706.55
764.748	811
764.931	733.17
765.114	751.6
765.297	796.66
765.481	763.89
765.664	761.84
765.847	724.98
766.03	790.52
766.213	700.41
766.397	763.89
766.58	712.69
766.763	794.61
766.946	741.36
767.129	665.59
767.312	677.88
767.495	655.35
767.678	714.74
767.861	776.18
768.044	739.32
768.227	634.87
768.41	665.59
768.593	724.98
768.776	698.36
768.959	593.91
769.142	780.28
769.324	694.26
769.507	636.92
769.69	759.8
769.873	708.6
770.056	673.78
770.239	612.34
770.421	714.74
770.604	698.36
770.787	729.08
770.97	755.7
771.152	653.3
771.335	673.78
771.518	702.45
771.7	698.36
771.883	690.17
772.066	643.06
772.248	667.64
772.431	696.31
772.613	681.97
772.796	606.2
772.978	614.39
773.161	702.45
773.343	679.93
773.526	694.26
773.708	583.67
773.891	514.04
774.073	616.44
774.256	575.48
774.438	673.78
774.621	645.11
774.803	624.63
774.985	614.39
775.168	657.4
775.35	583.67
775.532	612.34
775.715	585.72
775.897	540.66
776.079	544.76
776.261	577.53
776.444	552.95
776.626	591.86
776.808	552.95
776.99	563.19
777.173	528.38
777.355	583.67
777.537	552.95
777.719	567.29
777.901	485.37
778.083	555
778.265	446.46
778.447	477.18
778.629	462.84
778.811	514.04
778.993	493.56
779.175	511.99
779.357	536.57
779.539	444.41
779.721	542.71
779.903	440.31
780.085	495.61
780.267	518.14
780.449	432.12
780.631	421.88
780.812	511.99
780.994	487.42
781.176	468.98
781.358	452.6
781.54	403.45
781.721	477.18
781.903	372.73
782.085	391.16
782.267	546.81
782.448	387.07
782.63	378.87
782.812	452.6
782.993	405.5
783.175	448.51
783.357	362.49
783.538	372.73
783.72	477.18
783.901	419.83
784.083	450.55
784.264	321.53
784.446	346.11
784.627	411.64
784.809	417.79
784.99	364.54
785.172	356.35
785.353	346.11
785.535	391.16
785.716	333.82
785.897	370.68
786.079	331.77
786.26	346.11
786.441	337.91
786.623	303.1
786.804	313.34
786.985	313.34
787.167	342.01
787.348	366.59
787.529	344.06
787.71	346.11
787.891	411.64
788.073	311.29
788.254	296.96
788.435	280.57
788.616	331.77
788.797	299
788.978	315.39
789.159	256
789.34	282.62
789.522	292.86
789.703	305.15
789.884	311.29
790.065	296.96
790.246	272.38
790.427	315.39
790.607	288.76
790.788	378.87
790.969	258.04
791.15	321.53
791.331	325.63
791.512	260.09
791.693	243.71
791.874	299
792.054	389.11
792.235	223.23
792.416	284.67
792.597	264.19
792.778	245.76
792.958	243.71
793.139	182.27
793.32	358.39
793.5	219.13
793.681	243.71
793.862	258.04
794.042	233.47
794.223	237.56
794.404	241.66
794.584	315.39
794.765	225.28
794.945	215.04
795.126	280.57
795.306	212.99
795.487	321.53
795.667	233.47
795.848	237.56
796.028	204.8
796.209	305.15
796.389	245.76
796.57	249.85
796.75	208.89
796.93	266.24
797.111	215.04
797.291	178.17
797.471	270.33
797.652	299
797.832	223.23
798.012	221.18
798.192	241.66
798.373	200.7
798.553	124.93
798.733	182.27
798.913	206.84
799.093	204.8
799.274	313.34
799.454	231.42
799.634	231.42
799.814	247.8
799.994	249.85
800.174	122.88
800.354	186.37
800.534	190.46
800.714	192.51
800.894	206.84
801.074	137.21
801.254	192.51
801.434	206.84
801.614	163.84
801.794	133.12
801.974	714.74
802.154	141.31
802.334	247.8
802.514	102.4
802.693	174.08
802.873	139.26
803.053	143.36
803.233	221.18
803.413	190.46
803.592	163.84
803.772	124.93
803.952	198.65
804.131	90.11
804.311	196.6
804.491	196.6
804.67	75.77
804.85	165.89
805.03	161.79
805.209	151.55
805.389	167.93
805.568	124.93
805.748	159.74
805.928	157.69
806.107	141.31
806.287	208.89
806.466	178.17
806.646	141.31
806.825	61.44
807.004	124.93
807.184	161.79
807.363	212.99
807.543	200.7
807.722	149.5
807.901	169.98
808.081	204.8
808.26	206.84
808.439	231.42
808.619	157.69
808.798	145.41
808.977	96.25
809.156	165.89
809.336	215.04
809.515	133.12
809.694	88.06
809.873	133.12
810.052	182.27
810.231	98.3
810.411	186.37
810.59	141.31
810.769	147.45
810.948	198.65
811.127	83.97
811.306	137.21
811.485	129.02
811.664	194.56
811.843	159.74
812.022	184.32
812.201	102.4
812.38	116.73
812.559	63.49
812.737	124.93
812.916	167.93
813.095	145.41
813.274	131.07
813.453	133.12
813.632	112.64
813.811	151.55
813.989	133.12
814.168	18.43
814.347	159.74
814.526	30.72
814.704	124.93
814.883	96.25
815.062	157.69
815.24	110.59
815.419	61.44
815.598	75.77
815.776	28.67
815.955	45.06
816.133	-24.58
816.312	129.02
816.49	81.92
816.669	145.41
816.847	83.97
817.026	112.64
817.204	126.97
817.383	120.83
817.561	65.53
817.74	145.41
817.918	30.72
818.097	108.54
818.275	151.55
818.453	126.97
818.632	129.02
818.81	20.48
818.988	51.2
819.167	131.07
819.345	88.06
819.523	100.35
819.701	112.64
819.879	169.98
820.058	75.77
820.236	133.12
820.414	51.2
820.592	100.35
820.77	63.49
820.948	22.53
821.127	114.69
821.305	133.12
821.483	59.39
821.661	135.17
821.839	112.64
822.017	83.97
822.195	106.49
822.373	73.73
822.551	161.79
822.729	112.64
822.907	55.3
823.085	108.54
823.262	36.86
823.44	71.68
823.618	24.58
823.796	67.58
823.974	90.11
824.152	53.25
824.329	94.21
824.507	43.01
824.685	26.62
824.863	129.02
825.04	110.59
825.218	73.73
825.396	63.49
825.574	114.69
825.751	124.93
825.929	36.86
826.107	122.88
826.284	149.5
826.462	28.67
826.639	83.97
826.817	53.25
826.994	96.25
827.172	26.62
827.349	81.92
827.527	81.92
827.704	100.35
827.882	59.39
828.059	124.93
828.237	10.24
828.414	59.39
828.591	47.1
828.769	53.25
828.946	6.14
829.124	63.49
829.301	96.25
829.478	-22.53
829.655	10.24
829.833	141.31
830.01	14.34
830.187	59.39
830.364	104.45
830.542	57.34
830.719	83.97
830.896	65.53
831.073	131.07
831.25	75.77
831.427	10.24
831.604	94.21
831.782	28.67
831.959	92.16
832.136	112.64
832.313	43.01
832.49	77.82
832.667	-16.38
832.844	-2.05
833.021	75.77
833.198	96.25
833.374	98.3
833.551	65.53
833.728	108.54
833.905	96.25
834.082	43.01
834.259	36.86
834.436	6.14
834.612	38.91
834.789	108.54
834.966	69.63
835.143	26.62
835.319	-38.91
835.496	61.44
835.673	34.82
835.85	104.45
836.026	-2.05
836.203	126.97
836.38	32.77
836.556	83.97
836.733	22.53
836.909	43.01
837.086	43.01
837.262	47.1
837.439	36.86
837.616	53.25
837.792	108.54
837.968	38.91
838.145	51.2
838.321	40.96
838.498	22.53
838.674	94.21
838.851	-20.48
839.027	18.43
839.203	18.43
839.38	2.05
839.556	40.96
839.732	129.02
839.909	-4.1
840.085	90.11
840.261	14.34
840.437	24.58
840.614	18.43
840.79	16.38
840.966	28.67
841.142	-38.91
841.318	38.91
841.494	88.06
841.671	61.44
841.847	-28.67
842.023	20.48
842.199	67.58
842.375	59.39
842.551	-51.2
842.727	-2.05
842.903	135.17
843.079	28.67
843.255	40.96
843.431	106.49
843.607	90.11
843.783	-55.3
843.959	86.01
844.134	-10.24
844.31	75.77
844.486	-14.34
844.662	2.05
844.838	18.43
845.013	6.14
845.189	90.11
845.365	-34.82
845.541	12.29
845.716	20.48
845.892	133.12
846.068	10.24
846.244	26.62
846.419	43.01
846.595	32.77
846.77	22.53
846.946	38.91
847.122	34.82
847.297	18.43
847.473	88.06
847.648	-2.05
847.824	102.4
847.999	2.05
848.175	6.14
848.35	77.82
848.526	51.2
848.701	118.78
848.876	92.16
849.052	79.87
849.227	26.62
849.403	30.72
849.578	-2.05
849.753	-2.05
849.929	108.54
850.104	18.43
850.279	-18.43
850.454	30.72
850.63	98.3
850.805	75.77
850.98	38.91
851.155	32.77
851.33	2.05
851.505	-67.58
851.681	61.44
851.856	20.48
852.031	67.58
852.206	51.2
852.381	-26.62
852.556	-57.34
852.731	-22.53
852.906	51.2
853.081	-6.14
853.256	43.01
853.431	14.34
853.606	2.05
853.781	20.48
853.956	-0
854.131	34.82
854.305	-10.24
854.48	69.63
854.655	6.14
854.83	69.63
855.005	38.91
855.18	-12.29
855.354	86.01
855.529	77.82
855.704	92.16
855.879	2.05
856.053	-14.34
856.228	18.43
856.403	30.72
856.577	14.34
856.752	8.19
856.926	-12.29
857.101	34.82
857.276	-0
857.45	34.82
857.625	-2.05
857.799	18.43
857.974	20.48
858.148	43.01
858.323	71.68
858.497	-20.48
858.672	-55.3
858.846	20.48
859.02	24.58
859.195	-38.91
859.369	-6.14
859.543	-28.67
859.718	-53.25
859.892	-43.01
860.066	4.1
860.241	-30.72
860.415	59.39
860.589	49.15
860.763	-22.53
860.938	-67.58
861.112	-14.34
861.286	55.3
861.46	-14.34
861.634	10.24
861.808	2.05
861.982	-20.48
862.157	-6.14
862.331	40.96
862.505	-71.68
862.679	-32.77
862.853	32.77
863.027	12.29
863.201	61.44
863.375	51.2
863.549	-61.44
863.722	90.11
863.896	49.15
864.07	-38.91
864.244	-14.34
864.418	-22.53
864.592	-55.3
864.766	36.86
864.939	26.62
865.113	43.01
865.287	51.2
865.461	2.05
865.634	49.15
865.808	14.34
865.982	59.39
866.156	36.86
866.329	-100.35
866.503	-4.1
866.676	26.62
866.85	47.1
867.024	2.05
867.197	-30.72
867.371	63.49
867.544	102.4
867.718	10.24
867.891	-38.91
868.065	-43.01
868.238	22.53
868.412	-53.25
868.585	83.97
868.759	-47.1
868.932	-43.01
869.105	18.43
869.279	61.44
869.452	43.01
869.625	55.3
869.799	-20.48
869.972	-69.63
870.145	-2.05
870.319	-6.14
870.492	-4.1
870.665	-36.86
870.838	34.82
871.011	-61.44
871.185	-28.67
871.358	-30.72
871.531	-55.3
871.704	-20.48
871.877	-12.29
872.05	-28.67
872.223	12.29
872.396	59.39
872.569	-45.06
872.742	-14.34
872.915	-26.62
873.088	16.38
873.261	-14.34
873.434	102.4
873.607	-10.24
873.78	63.49
873.953	-2.05
874.126	-4.1
874.299	8.19
874.471	26.62
874.644	-26.62
874.817	-22.53
874.99	51.2
875.163	6.14
875.335	90.11
875.508	30.72
875.681	59.39
875.853	-10.24
876.026	-6.14
876.199	14.34
876.371	34.82
876.544	-4.1
876.717	-6.14
876.889	-40.96
877.062	-36.86
877.234	2.05
877.407	6.14
877.579	-14.34
877.752	4.1
877.924	36.86
878.097	59.39
878.269	-22.53
878.442	34.82
878.614	-18.43
878.786	-6.14
878.959	43.01
879.131	18.43
879.303	-20.48
879.476	-2.05
879.648	2.05
879.82	-32.77
879.993	-16.38
880.165	4.1
880.337	30.72
880.509	34.82
880.681	-22.53
880.854	-14.34
881.026	14.34
881.198	59.39
881.37	-2.05
881.542	-55.3
881.714	-22.53
881.886	-18.43
882.058	16.38
882.23	2.05
882.402	43.01
882.574	30.72
882.746	40.96
882.918	-30.72
883.09	75.77
883.262	53.25
883.434	-28.67
883.606	-36.86
883.778	36.86
883.95	-4.1
884.122	-20.48
884.293	4.1
884.465	-30.72
884.637	18.43
884.809	-2.05
884.98	28.67
885.152	83.97
885.324	38.91
885.496	-2.05
885.667	-6.14
885.839	63.49
886.011	69.63
886.182	-10.24
886.354	-2.05
886.525	-51.2
886.697	18.43
886.869	-96.25
887.04	28.67
887.212	61.44
887.383	28.67
887.555	-22.53
887.726	-38.91
887.897	24.58
888.069	26.62
888.24	118.78
888.412	63.49
888.583	-16.38
888.754	26.62
888.926	-124.93
889.097	-16.38
889.268	18.43
889.44	-32.77
889.611	-26.62
889.782	-55.3
889.953	12.29
890.125	63.49
890.296	51.2
890.467	-20.48
890.638	-51.2
890.809	20.48
890.98	-55.3
891.151	43.01
891.323	-45.06
891.494	-6.14
891.665	28.67
891.836	-30.72
892.007	14.34
892.178	18.43
892.349	45.06
892.52	-32.77
892.691	-2.05
892.862	12.29
893.032	-102.4
893.203	-12.29
893.374	-12.29
893.545	30.72
893.716	30.72
893.887	-47.1
894.057	-14.34
894.228	10.24
894.399	-61.44
894.57	-43.01
894.74	-59.39
894.911	-20.48
895.082	-104.45
895.253	51.2
895.423	12.29
895.594	12.29
895.764	-0
895.935	55.3
896.106	-34.82
896.276	22.53
896.447	-28.67
896.617	-24.58
896.788	53.25
896.958	-67.58
897.129	-14.34
897.299	-20.48
897.47	-20.48
897.64	-32.77
897.81	-28.67
897.981	36.86
898.151	-10.24
898.322	-20.48
898.492	-22.53
898.662	-28.67
898.832	-30.72
899.003	2.05
899.173	-18.43
899.343	2.05
899.513	-86.01
