Data from USB4F104151__107__14-43-44-652.txt Node

Date: Thu Mar 13 14:43:44 EDT 2025
User: louis
Spectrometer: USB4F10415
Trigger mode: 4
Integration Time (sec): 2.000000E-2
Scans to average: 1
Electric dark correction enabled: true
Nonlinearity correction enabled: false
Boxcar width: 0
XAxis mode: Wavelengths
Number of Pixels in Spectrum: 3648
>>>>>Begin Spectral Data<<<<<
178.204	-131.07
178.424	-131.07
178.644	-131.07
178.864	-100.35
179.084	-88.06
179.304	30.72
179.524	-40.96
179.744	40.96
179.964	10.24
180.184	2.05
180.404	2.05
180.624	24.58
180.844	8.19
181.064	-92.16
181.283	-2.05
181.503	-32.77
181.723	49.15
181.943	-12.29
182.163	94.21
182.383	10.24
182.602	75.77
182.822	67.58
183.042	83.97
183.262	16.38
183.482	10.24
183.701	8.19
183.921	16.38
184.141	-16.38
184.361	118.78
184.58	49.15
184.8	18.43
185.02	30.72
185.239	65.54
185.459	-8.19
185.679	32.77
185.898	32.77
186.118	96.25
186.338	83.97
186.557	163.84
186.777	-53.25
186.997	57.34
187.216	2.05
187.436	114.69
187.655	51.2
187.875	32.77
188.095	-12.29
188.314	45.06
188.534	-4.1
188.753	-57.34
188.973	43.01
189.192	131.07
189.412	32.77
189.631	8.19
189.851	8.19
190.07	114.69
190.29	-8.19
190.509	16.38
190.729	90.11
190.948	51.2
191.168	165.89
191.387	49.15
191.607	-6.14
191.826	75.77
192.045	-20.48
192.265	88.06
192.484	65.54
192.704	-24.58
192.923	-73.73
193.142	-2.05
193.362	28.67
193.581	61.44
193.8	36.86
194.02	-4.1
194.239	71.68
194.458	24.58
194.678	51.2
194.897	61.44
195.116	12.29
195.335	90.11
195.555	28.67
195.774	24.58
195.993	126.97
196.212	-4.1
196.432	71.68
196.651	4.1
196.87	30.72
197.089	57.34
197.308	24.58
197.528	38.91
197.747	53.25
197.966	14.34
198.185	73.73
198.404	20.48
198.623	8.19
198.842	106.49
199.062	59.39
199.281	100.35
199.5	22.53
199.719	8.19
199.938	94.21
200.157	77.82
200.376	10.24
200.595	81.92
200.814	4.1
201.033	92.16
201.252	131.07
201.471	22.53
201.69	10.24
201.909	45.06
202.128	38.91
202.347	4.1
202.566	14.34
202.785	-8.19
203.004	16.38
203.223	32.77
203.442	45.06
203.661	40.96
203.879	-6.14
204.098	16.38
204.317	-57.34
204.536	36.86
204.755	49.15
204.974	75.77
205.193	67.58
205.411	108.54
205.63	18.43
205.849	-26.62
206.068	71.68
206.287	24.58
206.505	49.15
206.724	-6.14
206.943	43.01
207.162	73.73
207.381	-12.29
207.599	-2.05
207.818	73.73
208.037	10.24
208.255	-34.82
208.474	53.25
208.693	-57.34
208.911	-69.63
209.13	-8.19
209.349	51.2
209.567	8.19
209.786	90.11
210.005	45.06
210.223	106.49
210.442	0
210.661	-16.38
210.879	73.73
211.098	69.63
211.316	81.92
211.535	83.97
211.753	18.43
211.972	67.58
212.191	92.16
212.409	-8.19
212.628	43.01
212.846	4.1
213.065	0
213.283	90.11
213.502	26.62
213.72	-32.77
213.938	65.54
214.157	12.29
214.375	2.05
214.594	40.96
214.812	14.34
215.031	-8.19
215.249	24.58
215.467	0
215.686	73.73
215.904	59.39
216.122	2.05
216.341	-45.06
216.559	0
216.778	40.96
216.996	-24.58
217.214	45.06
217.432	30.72
217.651	-8.19
217.869	71.68
218.087	-6.14
218.306	49.15
218.524	75.77
218.742	16.38
218.96	36.86
219.179	-30.72
219.397	106.49
219.615	124.93
219.833	57.34
220.051	12.29
220.27	2.05
220.488	24.58
220.706	63.49
220.924	43.01
221.142	43.01
221.36	79.87
221.578	69.63
221.796	49.15
222.015	-4.1
222.233	-20.48
222.451	26.62
222.669	4.1
222.887	98.3
223.105	36.86
223.323	-2.05
223.541	40.96
223.759	55.3
223.977	24.58
224.195	20.48
224.413	83.97
224.631	18.43
224.849	-24.58
225.067	81.92
225.285	26.62
225.503	-8.19
225.721	40.96
225.939	43.01
226.157	43.01
226.375	81.92
226.592	8.19
226.81	16.38
227.028	0
227.246	32.77
227.464	61.44
227.682	59.39
227.9	45.06
228.117	65.54
228.335	16.38
228.553	16.38
228.771	40.96
228.989	-6.14
229.206	49.15
229.424	73.73
229.642	73.73
229.86	-20.48
230.077	69.63
230.295	73.73
230.513	-40.96
230.731	2.05
230.948	106.49
231.166	38.91
231.384	124.93
231.601	59.39
231.819	49.15
232.037	8.19
232.254	-28.67
232.472	4.1
232.689	24.58
232.907	28.67
233.125	18.43
233.342	20.48
233.56	-16.38
233.777	57.34
233.995	63.49
234.213	106.49
234.43	2.05
234.648	61.44
234.865	-4.1
235.083	32.77
235.3	26.62
235.518	100.35
235.735	40.96
235.953	102.4
236.17	24.58
236.388	122.88
236.605	40.96
236.822	57.34
237.04	75.77
237.257	81.92
237.475	75.77
237.692	67.58
237.909	49.15
238.127	40.96
238.344	47.1
238.562	36.86
238.779	40.96
238.996	22.53
239.214	-14.34
239.431	77.82
239.648	26.62
239.865	-45.06
240.083	40.96
240.3	73.73
240.517	18.43
240.735	-28.67
240.952	36.86
241.169	69.63
241.386	18.43
241.603	0
241.821	-26.62
242.038	73.73
242.255	4.1
242.472	-24.58
242.689	18.43
242.907	69.63
243.124	40.96
243.341	34.82
243.558	-20.48
243.775	22.53
243.992	110.59
244.209	36.86
244.426	106.49
244.643	81.92
244.86	-16.38
245.078	53.25
245.295	51.2
245.512	-16.38
245.729	-18.43
245.946	63.49
246.163	2.05
246.38	57.34
246.597	67.58
246.814	92.16
247.031	102.4
247.248	67.58
247.464	53.25
247.681	63.49
247.898	28.67
248.115	65.54
248.332	-65.53
248.549	34.82
248.766	59.39
248.983	145.41
249.2	61.44
249.417	77.82
249.633	20.48
249.85	10.24
250.067	73.73
250.284	49.15
250.501	67.58
250.717	22.53
250.934	26.62
251.151	26.62
251.368	-16.38
251.585	-8.19
251.801	12.29
252.018	32.77
252.235	71.68
252.451	49.15
252.668	12.29
252.885	57.34
253.102	98.3
253.318	-20.48
253.535	-24.58
253.752	34.82
253.968	40.96
254.185	30.72
254.401	2.05
254.618	10.24
254.835	18.43
255.051	-30.72
255.268	-32.77
255.484	10.24
255.701	2.05
255.917	94.21
256.134	28.67
256.351	2.05
256.567	24.58
256.784	24.58
257	-40.96
257.217	57.34
257.433	114.69
257.65	75.77
257.866	69.63
258.082	49.15
258.299	-4.1
258.515	55.3
258.732	26.62
258.948	102.4
259.165	12.29
259.381	-49.15
259.597	57.34
259.814	0
260.03	0
260.246	49.15
260.463	96.25
260.679	77.82
260.895	83.97
261.112	92.16
261.328	75.77
261.544	30.72
261.761	65.54
261.977	12.29
262.193	32.77
262.409	-6.14
262.626	55.3
262.842	51.2
263.058	53.25
263.274	4.1
263.49	77.82
263.707	83.97
263.923	94.21
264.139	0
264.355	36.86
264.571	45.06
264.787	-24.58
265.004	24.58
265.22	49.15
265.436	24.58
265.652	-65.53
265.868	0
266.084	2.05
266.3	51.2
266.516	18.43
266.732	71.68
266.948	28.67
267.164	57.34
267.38	36.86
267.596	67.58
267.812	20.48
268.028	110.59
268.244	45.06
268.46	16.38
268.676	28.67
268.892	63.49
269.108	0
269.324	65.54
269.54	24.58
269.756	38.91
269.972	12.29
270.188	10.24
270.403	28.67
270.619	36.86
270.835	40.96
271.051	20.48
271.267	26.62
271.483	30.72
271.698	65.54
271.914	45.06
272.13	40.96
272.346	92.16
272.562	8.19
272.777	135.17
272.993	24.58
273.209	98.3
273.425	-73.73
273.64	-14.34
273.856	24.58
274.072	36.86
274.287	-16.38
274.503	65.54
274.719	-28.67
274.934	36.86
275.15	-18.43
275.366	69.63
275.581	16.38
275.797	65.54
276.012	63.49
276.228	12.29
276.444	-8.19
276.659	67.58
276.875	24.58
277.09	49.15
277.306	32.77
277.521	2.05
277.737	40.96
277.952	59.39
278.168	49.15
278.383	43.01
278.599	-20.48
278.814	51.2
279.03	57.34
279.245	94.21
279.461	0
279.676	28.67
279.892	-79.87
280.107	43.01
280.322	20.48
280.538	43.01
280.753	110.59
280.969	43.01
281.184	67.58
281.399	47.1
281.615	-32.77
281.83	43.01
282.045	-6.14
282.26	-6.14
282.476	53.25
282.691	49.15
282.906	34.82
283.122	51.2
283.337	30.72
283.552	145.41
283.767	32.77
283.983	57.34
284.198	10.24
284.413	-6.14
284.628	16.38
284.843	86.01
285.058	34.82
285.274	47.1
285.489	-53.25
285.704	118.78
285.919	-12.29
286.134	-4.1
286.349	24.58
286.564	40.96
286.779	67.58
286.995	75.77
287.21	59.39
287.425	16.38
287.64	28.67
287.855	67.58
288.07	75.77
288.285	40.96
288.5	55.3
288.715	53.25
288.93	81.92
289.145	-2.05
289.36	36.86
289.575	-16.38
289.79	92.16
290.004	49.15
290.219	73.73
290.434	57.34
290.649	2.05
290.864	18.43
291.079	57.34
291.294	49.15
291.509	51.2
291.724	43.01
291.938	-12.29
292.153	57.34
292.368	-8.19
292.583	18.43
292.798	69.63
293.012	57.34
293.227	49.15
293.442	-22.53
293.657	16.38
293.871	38.91
294.086	81.92
294.301	24.58
294.516	51.2
294.73	-36.86
294.945	14.34
295.16	86.01
295.374	96.25
295.589	16.38
295.804	88.06
296.018	53.25
296.233	4.1
296.447	30.72
296.662	98.3
296.877	67.58
297.091	32.77
297.306	16.38
297.52	28.67
297.735	32.77
297.949	26.62
298.164	75.77
298.378	-45.06
298.593	-40.96
298.807	12.29
299.022	24.58
299.236	43.01
299.451	8.19
299.665	40.96
299.88	32.77
300.094	81.92
300.309	90.11
300.523	20.48
300.737	63.49
300.952	40.96
301.166	24.58
301.381	2.05
301.595	43.01
301.809	-14.34
302.024	2.05
302.238	4.1
302.452	12.29
302.667	18.43
302.881	126.97
303.095	8.19
303.309	61.44
303.524	65.54
303.738	65.54
303.952	-32.77
304.166	-28.67
304.381	-57.34
304.595	106.49
304.809	30.72
305.023	49.15
305.237	45.06
305.452	-32.77
305.666	45.06
305.88	77.82
306.094	12.29
306.308	49.15
306.522	30.72
306.736	24.58
306.95	73.73
307.164	81.92
307.379	45.06
307.593	51.2
307.807	116.73
308.021	40.96
308.235	20.48
308.449	16.38
308.663	-6.14
308.877	124.93
309.091	18.43
309.305	69.63
309.519	-4.1
309.733	34.82
309.947	-32.77
310.161	94.21
310.374	69.63
310.588	36.86
310.802	55.3
311.016	51.2
311.23	38.91
311.444	0
311.658	57.34
311.872	57.34
312.085	47.1
312.299	43.01
312.513	-6.14
312.727	98.3
312.941	-63.49
313.154	75.77
313.368	90.11
313.582	2.05
313.796	-22.53
314.009	-38.91
314.223	69.63
314.437	-30.72
314.651	36.86
314.864	-32.77
315.078	59.39
315.292	38.91
315.505	10.24
315.719	49.15
315.933	40.96
316.146	110.59
316.36	-28.67
316.573	32.77
316.787	-30.72
317.001	77.82
317.214	55.3
317.428	32.77
317.641	-12.29
317.855	18.43
318.068	-12.29
318.282	126.97
318.495	94.21
318.709	20.48
318.922	-16.38
319.136	79.87
319.349	24.58
319.563	49.15
319.776	102.4
319.99	4.1
320.203	79.87
320.417	75.77
320.63	61.44
320.843	36.86
321.057	28.67
321.27	49.15
321.483	-14.34
321.697	98.3
321.91	24.58
322.124	0
322.337	67.58
322.55	36.86
322.763	65.54
322.977	26.62
323.19	18.43
323.403	26.62
323.617	24.58
323.83	88.06
324.043	49.15
324.256	90.11
324.469	40.96
324.683	57.34
324.896	-30.72
325.109	67.58
325.322	-16.38
325.535	110.59
325.748	49.15
325.962	36.86
326.175	104.45
326.388	49.15
326.601	36.86
326.814	-34.82
327.027	45.06
327.24	24.58
327.453	65.54
327.666	81.92
327.879	94.21
328.092	4.1
328.305	18.43
328.518	-4.1
328.731	16.38
328.944	81.92
329.157	16.38
329.37	81.92
329.583	40.96
329.796	92.16
330.009	-6.14
330.222	92.16
330.435	-47.1
330.648	81.92
330.861	26.62
331.073	61.44
331.286	71.68
331.499	57.34
331.712	16.38
331.925	0
332.138	69.63
332.35	155.65
332.563	20.48
332.776	81.92
332.989	-98.3
333.202	18.43
333.414	40.96
333.627	32.77
333.84	-32.77
334.053	188.41
334.265	0
334.478	100.35
334.691	69.63
334.903	-24.58
335.116	45.06
335.329	110.59
335.541	81.92
335.754	90.11
335.966	26.62
336.179	81.92
336.392	49.15
336.604	49.15
336.817	94.21
337.029	40.96
337.242	57.34
337.454	71.68
337.667	75.77
337.88	124.93
338.092	24.58
338.305	-14.34
338.517	-2.05
338.729	135.17
338.942	49.15
339.154	-6.14
339.367	32.77
339.579	32.77
339.792	43.01
340.004	32.77
340.217	18.43
340.429	45.06
340.641	6.14
340.854	65.54
341.066	49.15
341.278	172.03
341.491	47.1
341.703	40.96
341.915	-34.82
342.128	102.4
342.34	51.2
342.552	49.15
342.764	4.1
342.977	110.59
343.189	43.01
343.401	0
343.613	22.53
343.826	57.34
344.038	32.77
344.25	20.48
344.462	69.63
344.674	28.67
344.886	40.96
345.099	53.25
345.311	16.38
345.523	-32.77
345.735	53.25
345.947	69.63
346.159	16.38
346.371	71.68
346.583	43.01
346.795	73.73
347.007	6.14
347.219	90.11
347.431	92.16
347.643	69.63
347.855	59.39
348.067	34.82
348.279	-16.38
348.491	36.86
348.703	114.69
348.915	69.63
349.127	-2.05
349.339	8.19
349.551	45.06
349.763	26.62
349.975	38.91
350.187	59.39
350.399	81.92
350.61	57.34
350.822	40.96
351.034	114.69
351.246	-14.34
351.458	8.19
351.669	16.38
351.881	110.59
352.093	118.78
352.305	59.39
352.517	92.16
352.728	98.3
352.94	88.06
353.152	4.1
353.363	0
353.575	10.24
353.787	73.73
353.999	53.25
354.21	110.59
354.422	-16.38
354.633	28.67
354.845	32.77
355.057	51.2
355.268	8.19
355.48	86.01
355.692	-12.29
355.903	100.35
356.115	57.34
356.326	-12.29
356.538	129.02
356.749	36.86
356.961	69.63
357.172	43.01
357.384	114.69
357.595	110.59
357.807	51.2
358.018	73.73
358.23	26.62
358.441	100.35
358.653	20.48
358.864	40.96
359.075	81.92
359.287	24.58
359.498	-4.1
359.709	40.96
359.921	59.39
360.132	30.72
360.344	57.34
360.555	16.38
360.766	90.11
360.977	4.1
361.189	57.34
361.4	86.01
361.611	67.58
361.823	110.59
362.034	32.77
362.245	10.24
362.456	8.19
362.667	20.48
362.879	16.38
363.09	100.35
363.301	32.77
363.512	65.54
363.723	28.67
363.935	98.3
364.146	49.15
364.357	18.43
364.568	61.44
364.779	8.19
364.99	100.35
365.201	-12.29
365.412	53.25
365.623	-16.38
365.834	116.73
366.045	34.82
366.256	116.73
366.467	40.96
366.678	49.15
366.889	26.62
367.1	28.67
367.311	106.49
367.522	-4.1
367.733	26.62
367.944	98.3
368.155	12.29
368.366	-59.39
368.577	126.97
368.788	81.92
368.999	8.19
369.209	0
369.42	51.2
369.631	49.15
369.842	32.77
370.053	-24.58
370.264	102.4
370.474	-47.1
370.685	118.78
370.896	51.2
371.107	96.25
371.317	28.67
371.528	57.34
371.739	20.48
371.95	12.29
372.16	157.69
372.371	-4.1
372.582	122.88
372.792	59.39
373.003	75.77
373.214	-14.34
373.424	86.01
373.635	53.25
373.846	131.07
374.056	77.82
374.267	73.73
374.477	88.06
374.688	59.39
374.898	-12.29
375.109	55.3
375.319	98.3
375.53	118.78
375.74	57.34
375.951	49.15
376.161	98.3
376.372	94.21
376.582	-4.1
376.793	51.2
377.003	81.92
377.214	124.93
377.424	75.77
377.635	73.73
377.845	65.54
378.055	182.27
378.266	-30.72
378.476	61.44
378.686	86.01
378.897	81.92
379.107	38.91
379.317	81.92
379.528	51.2
379.738	49.15
379.948	53.25
380.158	75.77
380.369	49.15
380.579	32.77
380.789	-12.29
380.999	90.11
381.21	94.21
381.42	106.49
381.63	-32.77
381.84	40.96
382.05	57.34
382.261	73.73
382.471	98.3
382.681	2.05
382.891	90.11
383.101	-8.19
383.311	8.19
383.521	75.77
383.731	45.06
383.941	96.25
384.151	10.24
384.361	73.73
384.571	71.68
384.781	36.86
384.991	126.97
385.201	92.16
385.411	28.67
385.621	67.58
385.831	90.11
386.041	32.77
386.251	71.68
386.461	16.38
386.671	53.25
386.881	45.06
387.091	-34.82
387.301	40.96
387.511	67.58
387.72	122.88
387.93	49.15
388.14	16.38
388.35	73.73
388.56	73.73
388.769	96.25
388.979	22.53
389.189	24.58
389.399	59.39
389.609	40.96
389.818	67.58
390.028	88.06
390.238	32.77
390.447	65.54
390.657	69.63
390.867	67.58
391.076	34.82
391.286	49.15
391.496	45.06
391.705	102.4
391.915	116.73
392.125	57.34
392.334	16.38
392.544	32.77
392.753	57.34
392.963	53.25
393.172	30.72
393.382	122.88
393.591	110.59
393.801	75.77
394.01	69.63
394.22	67.58
394.429	143.36
394.639	-2.05
394.848	118.78
395.058	51.2
395.267	94.21
395.477	92.16
395.686	108.54
395.895	79.87
396.105	110.59
396.314	131.07
396.524	114.69
396.733	43.01
396.942	73.73
397.152	139.26
397.361	81.92
397.57	36.86
397.78	94.21
397.989	49.15
398.198	69.63
398.407	-14.34
398.617	131.07
398.826	81.92
399.035	43.01
399.244	122.88
399.453	155.65
399.663	67.58
399.872	75.77
400.081	4.1
400.29	122.88
400.499	49.15
400.708	100.35
400.917	155.65
401.127	106.49
401.336	8.19
401.545	141.31
401.754	65.54
401.963	65.54
402.172	73.73
402.381	49.15
402.59	83.97
402.799	131.07
403.008	129.02
403.217	137.21
403.426	83.97
403.635	96.25
403.844	47.1
404.053	83.97
404.262	108.54
404.471	120.83
404.68	151.55
404.888	108.54
405.097	75.77
405.306	204.8
405.515	182.27
405.724	124.93
405.933	174.08
406.142	116.73
406.35	159.74
406.559	184.32
406.768	126.97
406.977	118.78
407.185	67.58
407.394	200.7
407.603	98.3
407.812	311.29
408.02	198.65
408.229	221.18
408.438	180.22
408.646	149.5
408.855	141.31
409.064	190.46
409.272	198.65
409.481	247.8
409.69	249.85
409.898	180.22
410.107	204.8
410.315	327.67
410.524	245.76
410.733	190.46
410.941	200.7
411.15	319.48
411.358	286.72
411.567	409.59
411.775	274.43
411.984	288.76
412.192	313.34
412.401	251.9
412.609	335.87
412.818	483.32
413.026	360.44
413.234	348.15
413.443	436.22
413.651	417.79
413.86	417.79
414.068	458.75
414.276	573.43
414.485	466.94
414.693	550.9
414.901	559.1
415.11	518.14
415.318	499.7
415.526	501.75
415.734	602.1
415.943	630.77
416.151	606.2
416.359	573.43
416.567	581.62
416.776	657.4
416.984	735.22
417.192	786.42
417.4	638.97
417.608	704.5
417.817	737.27
418.025	847.86
418.233	868.34
418.441	794.61
418.649	845.81
418.857	940.02
419.065	946.16
419.273	960.5
419.481	933.87
419.689	1032.18
419.897	1110
420.105	1202.16
420.313	1173.49
420.521	1228.78
420.729	1241.07
420.937	1232.88
421.145	1241.07
421.353	1335.28
421.561	1351.66
421.769	1525.74
421.977	1501.16
422.185	1460.2
422.393	1572.84
422.601	1683.43
422.809	1607.66
423.017	1638.37
423.224	1642.47
423.432	1771.49
423.64	1665
423.848	2113.5
424.056	1925.09
424.263	2047.97
424.471	2105.31
424.679	2166.75
424.887	2220
425.094	2297.82
425.302	2287.58
425.51	2349.02
425.718	2408.41
425.925	2410.46
426.133	2752.47
426.341	2746.33
426.548	2795.48
426.756	2869.2
426.964	3006.42
427.171	3049.43
427.379	3055.57
427.586	3190.74
427.794	3229.65
428.001	3532.75
428.209	3407.82
428.417	3403.72
428.624	3823.56
428.832	3794.89
429.039	3631.05
429.247	3696.58
429.454	4073.41
429.662	4325.31
429.869	4087.75
430.076	4290.49
430.284	4351.93
430.491	4448.19
430.699	4720.57
430.906	4616.12
431.114	4810.68
431.321	4890.55
431.528	4890.55
431.736	5250.99
431.943	5636.01
432.15	5431.21
432.358	5402.54
432.565	5623.72
432.772	5609.39
432.979	6170.53
433.187	5941.16
433.394	6070.18
433.601	6569.88
433.808	6596.51
434.016	6379.42
434.223	6807.45
434.43	7145.36
434.637	7049.11
434.844	7606.16
435.052	7755.66
435.259	7554.96
435.466	7583.63
435.673	7526.29
435.88	8011.65
436.087	8286.08
436.294	8505.21
436.501	8234.88
436.708	8468.35
436.915	8736.63
437.122	9250.67
437.329	9035.64
437.537	9441.14
437.743	9449.33
437.95	9289.59
438.157	9842.54
438.364	10198.88
438.571	10276.71
438.778	10172.26
438.985	11239.25
439.192	11061.08
439.399	11102.04
439.606	10858.33
439.813	11411.28
440.02	12287.81
440.227	12150.6
440.433	11892.55
440.64	12271.43
440.847	12312.39
441.054	12369.73
441.261	13281.08
441.467	13008.7
441.674	13532.98
441.881	13983.53
442.088	13727.53
442.294	13567.79
442.501	13834.03
442.708	14239.53
442.914	15177.5
443.121	15437.59
443.328	14978.84
443.534	16488.2
443.741	15619.86
443.948	15494.93
444.154	16770.82
444.361	16422.66
444.568	16527.11
444.774	16631.55
444.981	16832.26
445.187	17354.49
445.394	18210.54
445.6	17991.41
445.807	19637.97
446.013	18800.35
446.22	19427.03
446.426	20045.52
446.633	20430.54
446.839	20858.56
447.046	20049.61
447.252	21112.51
447.459	21141.18
447.665	21034.69
447.871	21982.9
448.078	22943.39
448.284	21626.55
448.491	22687.4
448.697	23729.81
448.903	23889.56
449.11	23971.47
449.316	23516.83
449.522	23893.65
449.728	24602.25
449.935	24725.13
450.141	24954.5
450.347	25384.57
450.553	24657.54
450.76	25095.81
450.966	25990.77
451.172	25435.77
451.378	26386.03
451.584	25826.93
451.791	26318.45
451.997	26185.33
452.203	26658.41
452.409	26805.86
452.615	26906.21
452.821	26027.63
453.027	25431.68
453.233	26941.03
453.44	25974.39
453.646	26355.31
453.852	26369.65
454.058	26596.97
454.264	26056.31
454.47	26766.95
454.676	25757.3
454.882	27020.9
455.088	24499.85
455.294	24848
455.5	25273.98
455.705	25826.93
455.911	24520.33
456.117	24250
456.323	23776.92
456.529	22521.51
456.735	23813.78
456.941	22937.25
457.147	22744.74
457.352	22060.72
457.558	21655.22
457.764	22023.86
457.97	21612.21
458.176	20897.47
458.381	21003.97
458.587	19807.95
458.793	19836.63
458.999	18923.23
459.204	20371.15
459.41	19943.12
459.616	18517.73
459.821	18497.25
460.027	18398.95
460.233	18222.83
460.438	17241.85
460.644	17497.85
460.85	16342.79
461.055	16389.89
461.261	16490.24
461.466	14958.36
461.672	14718.75
461.878	15871.76
462.083	14618.4
462.289	14485.28
462.494	14425.89
462.7	13684.53
462.905	13319.99
463.111	13858.6
463.316	13764.4
463.522	13604.66
463.727	13610.8
463.932	13520.69
464.138	13131.58
464.343	13487.92
464.549	13178.68
464.754	13274.93
464.959	13492.02
465.165	13201.21
465.37	12672.83
465.575	12193.61
465.781	12787.52
465.986	12959.55
466.191	12402.5
466.397	12050.25
466.602	11650.89
466.807	12048.2
467.012	12191.56
467.218	11878.22
467.423	11755.34
467.628	11972.43
467.833	12472.13
468.038	11890.51
468.244	11515.73
468.449	12226.37
468.654	11657.04
468.859	11640.65
469.064	11575.12
469.269	11265.88
469.474	11161.43
469.679	11415.38
469.885	11206.48
470.09	11425.62
470.295	11384.66
470.5	10927.96
470.705	11118.42
470.91	10913.63
471.115	10702.68
471.32	10854.23
471.525	10708.83
471.73	10583.9
471.935	10551.13
472.139	10178.4
472.344	10282.85
472.549	10131.3
472.754	10016.62
472.959	9938.79
473.164	9572.21
473.369	9391.98
473.574	9848.68
473.778	9633.64
473.983	9703.28
474.188	9668.46
474.393	9224.05
474.598	9389.94
474.802	9289.59
475.007	9176.95
475.212	9109.36
475.417	8839.03
475.621	9037.69
475.826	9009.01
476.031	8728.44
476.235	8710.01
476.44	8529.79
476.645	8382.34
476.849	8482.69
477.054	8392.58
477.259	8222.59
477.463	8380.29
477.668	8130.44
477.872	8120.2
478.077	8044.42
478.282	7737.23
478.486	7845.77
478.691	7698.31
478.895	7677.83
479.1	7780.23
479.304	7677.83
479.509	7454.61
479.713	7479.18
479.918	7487.37
480.122	7294.86
480.326	7507.85
480.531	7579.53
480.735	7380.88
480.94	7116.69
481.144	7331.73
481.348	7217.04
481.553	7169.94
481.757	7018.39
481.961	7128.98
482.166	7249.81
482.37	7120.79
482.574	7159.7
482.778	7061.4
482.983	7282.58
483.187	7102.36
483.391	7104.4
483.595	7094.16
483.8	7026.58
484.004	7167.89
484.208	6979.48
484.412	7145.36
484.616	7126.93
484.821	7022.48
485.025	7014.29
485.229	7174.03
485.433	7094.16
485.637	7079.83
485.841	7112.6
486.045	6942.61
486.249	7053.2
486.453	7010.2
486.657	7196.56
486.861	7079.83
487.065	7042.96
487.269	7020.44
487.473	6907.8
487.677	7229.33
487.881	7151.51
488.085	7114.64
488.289	7288.72
488.493	6959
488.697	7225.23
488.901	7110.55
489.105	7122.84
489.309	7298.96
489.512	7102.36
489.716	7481.23
489.92	7288.72
490.124	7288.72
490.328	7364.5
490.531	7176.08
490.735	7376.78
490.939	7208.85
491.143	7339.92
491.346	7270.29
491.55	7438.22
491.754	7413.65
491.958	7290.77
492.161	7514
492.365	7722.89
492.569	7643.02
492.772	7593.87
492.976	7694.22
493.18	7651.21
493.383	7882.63
493.587	7821.19
493.79	7716.75
493.994	7700.36
494.197	7724.94
494.401	7982.98
494.605	8069
494.808	8007.56
495.012	8118.15
495.215	8058.76
495.419	8109.96
495.622	8101.76
495.825	8331.14
496.029	8458.11
496.232	8617.85
496.436	8564.61
496.639	8968.06
496.843	8669.05
497.046	8916.86
497.249	8923
497.453	9076.6
497.656	9068.41
497.859	9213.81
498.063	9498.48
498.266	9502.57
498.469	9482.1
498.673	9568.11
498.876	9756.52
499.079	9793.39
499.282	9879.4
499.485	10063.72
499.689	10094.44
499.892	10301.28
500.095	10209.12
500.298	10624.86
500.501	10544.99
500.705	10948.44
500.908	10817.37
501.111	10950.49
501.314	11030.36
501.517	11337.55
501.72	11538.26
501.923	11374.42
502.126	11505.49
502.329	11796.3
502.532	11738.96
502.735	11884.36
502.938	12074.82
503.141	12146.5
503.344	12427.07
503.547	12562.24
503.75	12676.93
503.953	12924.73
504.156	13199.16
504.359	13190.97
504.562	13266.74
504.765	13418.29
504.968	13819.69
505.17	13547.31
505.373	13825.84
505.576	14094.12
505.779	14346.02
505.982	14368.55
506.185	14421.8
506.387	14710.56
506.59	15218.46
506.793	14974.75
506.996	15122.2
507.198	15611.67
507.401	15318.81
507.604	15431.44
507.807	16189.19
508.009	16146.19
508.212	16137.99
508.415	16355.08
508.617	16850.69
508.82	16660.23
509.022	16590.59
509.225	17256.18
509.428	17143.55
509.63	17399.54
509.833	17753.84
510.035	18005.74
510.238	17743.6
510.44	18257.64
510.643	18357.99
510.845	18673.38
511.048	18527.97
511.25	18921.18
511.453	19173.08
511.655	19904.21
511.858	19300.06
512.06	19670.74
512.262	19967.7
512.465	20076.24
512.667	20324.04
512.87	20504.26
513.072	20596.42
513.274	20864.71
513.477	21247.68
513.679	21595.83
513.881	21712.56
514.084	21745.33
514.286	21575.35
514.488	22283.95
514.69	22726.31
514.893	22918.82
515.095	22896.29
515.297	23002.78
515.499	23420.57
515.701	23766.68
515.904	23699.09
516.106	23752.34
516.308	24313.49
516.51	24669.83
516.712	24376.97
516.914	24741.51
517.116	24993.41
517.318	25257.6
517.52	25411.2
517.722	25802.36
517.925	26039.92
518.127	26185.33
518.329	26660.46
518.531	26209.9
518.733	27078.24
518.935	26994.28
519.136	27133.54
519.338	27598.43
519.54	27801.18
519.742	27815.51
519.944	27913.81
520.146	28059.22
520.348	28851.78
520.55	28622.41
520.752	28896.84
520.954	29271.62
521.155	29042.24
521.357	29554.24
521.559	29795.9
521.761	30311.99
521.963	30314.03
522.164	30293.55
522.366	30354.99
522.568	30623.28
522.77	30678.57
522.971	31284.77
523.173	31139.36
523.375	31655.45
523.576	31538.72
523.778	31585.82
523.98	32028.18
524.181	32046.61
524.383	32196.12
524.584	32785.93
524.786	32945.67
524.988	32429.59
525.189	33553.92
525.391	33199.62
525.592	33859.07
525.794	33492.48
525.995	33695.23
526.197	33678.85
526.398	33766.91
526.6	34166.26
526.801	33986.04
527.003	34295.28
527.204	34252.28
527.406	34436.59
527.607	34299.38
527.808	35147.24
528.01	34364.92
528.211	34926.06
528.412	35526.11
528.614	35202.53
528.815	35413.48
529.016	35720.67
529.218	35134.95
529.419	35384.8
529.62	35685.86
529.822	35311.08
530.023	35993.05
530.224	35331.56
530.425	35798.49
530.626	35339.75
530.828	35218.92
531.029	35915.23
531.23	36126.17
531.431	35943.9
531.632	36007.39
531.833	36130.26
532.035	36124.12
532.236	36077.02
532.437	36261.33
532.638	35714.53
532.839	36294.1
533.04	36373.97
533.241	35812.83
533.442	36853.2
533.643	36578.77
533.844	36437.46
534.045	36292.05
534.246	36382.16
534.447	36654.54
534.648	36267.48
534.849	36943.31
535.05	36404.69
535.251	36294.1
535.451	36341.21
535.652	36808.14
535.853	36279.77
536.054	36464.08
536.255	36890.06
536.456	36382.16
536.657	36648.4
536.857	36537.81
537.058	36455.89
537.259	36920.78
537.46	36564.43
537.66	36652.5
537.861	36822.48
538.062	36707.79
538.263	36541.91
538.463	36079.07
538.664	36455.89
538.865	36634.07
539.065	36974.03
539.266	36312.53
539.466	36783.57
539.667	36218.33
539.868	36873.68
540.068	36132.31
540.269	36310.49
540.469	36892.11
540.67	36474.32
540.87	36363.73
541.071	36083.16
541.271	36636.11
541.472	36269.53
541.672	36632.02
541.873	36296.15
542.073	35831.26
542.274	36584.91
542.474	36546
542.675	36154.84
542.875	36840.91
543.075	36283.86
543.276	36234.71
543.476	36472.28
543.676	36269.53
543.877	36804.05
544.077	36257.24
544.277	36400.6
544.478	36091.35
544.678	36589.01
544.878	36445.65
545.078	36351.45
545.279	36212.18
545.479	36335.06
545.679	36480.47
545.879	35974.62
546.079	36085.21
546.28	36255.19
546.48	35950.04
546.68	36560.34
546.88	36294.1
547.08	36064.73
547.28	36191.7
547.48	35821.02
547.68	36414.93
547.88	35831.26
548.081	36296.15
548.281	36298.2
548.481	35802.59
548.681	36228.57
548.881	36181.46
549.081	35907.04
549.28	35796.45
549.48	36513.23
549.68	35997.15
549.88	36472.28
550.08	35673.57
550.28	35849.69
550.48	35773.92
550.68	36171.22
550.88	35608.03
551.08	35683.81
551.279	35861.98
551.479	35847.64
551.679	35745.25
551.879	35761.63
552.079	36203.99
552.278	35431.91
552.478	35818.97
552.678	35708.38
552.878	36232.66
553.077	35653.09
553.277	35438.05
553.477	36439.51
553.676	35317.22
553.876	36148.7
554.076	35460.58
554.275	35571.17
554.475	35120.62
554.674	35698.14
554.874	35929.56
555.074	35620.32
555.273	35841.5
555.473	35694.05
555.672	35417.57
555.872	35438.05
556.071	35562.98
556.271	35511.78
556.47	35104.23
556.67	34838
556.869	35120.62
557.068	35184.1
557.268	34991.59
557.467	35233.25
557.667	35196.39
557.866	35042.79
558.065	35255.78
558.265	34868.72
558.464	34868.72
558.663	35472.87
558.863	34913.77
559.062	35313.13
559.261	34467.31
559.461	35456.48
559.66	34575.86
559.859	34692.59
560.058	34639.34
560.258	34799.08
560.457	34221.56
560.656	34899.44
560.855	34149.88
561.054	34471.41
561.253	34323.96
561.453	34377.2
561.652	34475.51
561.851	34340.34
562.05	34297.33
562.249	34211.32
562.448	34379.25
562.647	34086.39
562.846	34313.72
563.045	34051.58
563.244	33854.97
563.443	34301.43
563.642	33644.03
563.841	33748.48
564.04	33523.2
564.239	33787.39
564.438	33644.03
564.637	33379.84
564.836	33844.73
565.035	33500.67
565.234	33115.65
565.432	33179.14
565.631	33183.24
565.83	33187.33
566.029	33259.01
566.228	33287.68
566.427	32890.38
566.625	32931.34
566.824	32837.13
567.023	33050.12
567.222	32376.34
567.42	33119.75
567.619	33082.89
567.818	32740.88
568.016	32372.24
568.215	33263.11
568.414	32101.91
568.612	32857.61
568.811	32273.94
569.01	32589.33
569.208	31903.26
569.407	32312.85
569.605	32146.97
569.804	32101.91
570.002	32011.8
570.201	32065.05
570.4	31852.06
570.598	31565.34
570.797	31313.44
570.995	31778.33
571.193	31571.49
571.392	31667.74
571.59	31204.9
571.789	31206.95
571.987	31186.47
572.186	31122.98
572.384	30776.87
572.582	31211.04
572.781	30969.38
572.979	30832.17
573.177	30805.55
573.376	30840.36
573.574	30670.38
573.772	30950.95
573.971	30426.67
574.169	30074.42
574.367	30047.8
574.565	30287.41
574.763	30367.28
574.962	30379.57
575.16	29513.28
575.358	30342.71
575.556	29802.04
575.754	29951.54
575.952	29455.93
576.151	29912.63
576.349	29670.97
576.547	29464.13
576.745	29574.72
576.943	29277.76
577.141	29251.14
577.339	29302.34
577.537	29079.11
577.735	29333.06
577.933	29005.38
578.131	29468.22
578.329	29265.47
578.527	28544.59
578.725	28542.54
578.923	28646.99
579.121	28646.99
579.319	28524.11
579.516	28620.36
579.714	28382.8
579.912	27985.49
580.11	28481.1
580.308	28655.18
580.506	28057.17
580.704	27670.11
580.901	28012.12
581.099	27889.24
581.297	27999.83
581.495	27866.71
581.692	27997.78
581.89	27473.5
582.088	27561.56
582.285	27512.41
582.483	27645.53
582.681	27418.21
582.878	27338.33
583.076	27264.61
583.274	27248.22
583.471	26877.54
583.669	26922.6
583.866	26891.88
584.064	27190.88
584.262	26666.6
584.459	27041.38
584.657	26447.47
584.854	27029.09
585.052	26369.65
585.249	26400.37
585.447	26510.96
585.644	26007.16
585.841	26084.98
586.039	26361.45
586.236	26005.11
586.434	25609.85
586.631	25871.99
586.828	25722.49
587.026	26119.79
587.223	25634.42
587.42	25546.36
587.618	25611.9
587.815	25423.48
588.012	25339.52
588.21	25278.08
588.407	25683.58
588.604	25017.99
588.801	24929.92
588.999	25187.97
589.196	25181.82
589.393	25327.23
589.59	24862.34
589.787	24755.85
589.984	24608.39
590.182	24440.46
590.379	24624.78
590.576	24225.42
590.773	24301.2
590.97	24221.33
591.167	24426.12
591.364	24250
591.561	24391.31
591.758	24026.77
591.955	24161.94
592.152	24196.75
592.349	24045.2
592.546	24012.43
592.743	23924.37
592.94	23545.5
593.137	23565.98
593.334	23635.61
593.531	23342.75
593.727	23688.85
593.924	23402.14
594.121	23154.33
594.318	23404.19
594.515	23105.18
594.712	23015.07
594.908	22720.17
595.105	23115.42
595.302	22890.15
595.499	22896.29
595.696	22896.29
595.892	22466.22
596.089	22814.37
596.286	22765.22
596.482	22474.41
596.679	22376.11
596.876	22611.62
597.072	22402.73
597.269	22482.6
597.466	22236.84
597.662	22097.58
597.859	22062.77
598.055	22202.03
598.252	21700.28
598.448	21870.26
598.645	21907.12
598.841	21524.15
599.038	21485.24
599.234	21724.85
599.431	21405.37
599.627	21427.9
599.824	21288.64
600.02	21255.87
600.217	21399.23
600.413	21374.65
600.609	21325.5
600.806	21077.69
601.002	21044.93
601.198	20727.49
601.395	20782.79
601.591	20887.23
601.787	20881.09
601.984	20803.27
602.18	20993.73
602.376	20485.83
602.572	20506.31
602.769	20688.58
602.965	20305.61
603.161	20403.91
603.357	20389.58
603.553	19982.03
603.75	20084.43
603.946	19832.53
604.142	20201.16
604.338	19902.16
604.534	19734.23
604.73	19758.8
604.926	19504.85
605.122	19861.2
605.318	19463.9
605.514	19359.45
605.71	19416.79
605.906	19377.88
606.102	19318.49
606.298	19582.68
606.494	19420.89
606.69	19437.27
606.886	19146.46
607.082	18986.72
607.278	19130.08
607.474	18878.18
607.67	19125.98
607.866	18886.37
608.062	19027.68
608.257	18691.81
608.453	18876.13
608.649	18882.27
608.845	18538.21
609.041	18456.29
609.236	18638.56
609.432	18804.45
609.628	18556.64
609.824	18532.07
610.019	18228.97
610.215	18317.03
610.411	18480.87
610.606	18210.54
610.802	18462.44
610.998	18294.5
611.193	18439.91
611.389	18026.22
611.584	18075.37
611.78	17860.34
611.976	18120.43
612.171	18075.37
612.367	18042.6
612.562	17946.35
612.758	17772.27
612.953	17766.13
613.149	17909.49
613.344	17606.39
613.539	17833.71
613.735	17749.75
613.93	17899.25
614.126	17440.5
614.321	17673.97
614.517	17587.96
614.712	17510.13
614.907	17458.93
615.103	17395.45
615.298	17293.05
615.493	17604.34
615.688	17252.09
615.884	17370.87
616.079	17053.44
616.274	17182.46
616.47	17186.55
616.665	17252.09
616.86	17080.06
617.055	16922.37
617.25	16850.69
617.445	16994.04
617.641	16721.66
617.836	16951.04
618.031	16649.99
618.226	16637.7
618.421	16686.85
618.616	16531.2
618.811	16598.79
619.006	16815.87
619.201	16346.89
619.396	16342.79
619.591	16043.79
619.786	16510.72
619.981	16094.99
620.176	15992.59
620.371	15865.61
620.566	16060.17
620.761	15898.38
620.956	15961.87
621.151	15537.94
621.346	15845.13
621.541	15386.39
621.735	15595.28
621.93	15167.26
622.125	15488.79
622.32	15036.19
622.515	15255.32
622.709	15044.38
622.904	15130.39
623.099	14898.97
623.294	15034.14
623.488	14737.18
623.683	14649.12
623.878	14655.26
624.072	14724.9
624.267	14509.86
624.462	14518.05
624.656	14350.12
624.851	14413.6
625.046	14155.56
625.24	14124.84
625.435	13909.8
625.629	13975.34
625.824	13934.38
626.018	13918
626.213	13766.45
626.407	13688.62
626.602	13530.93
626.796	13698.86
626.991	13438.77
627.185	13479.73
627.38	13332.28
627.574	13311.8
627.768	13107
627.963	13000.51
628.157	12900.16
628.352	13049.66
628.546	12910.39
628.74	12922.68
628.935	12660.54
629.129	13000.51
629.323	12689.21
629.517	12488.51
629.712	12459.84
629.906	12494.66
630.1	12330.82
630.294	12492.61
630.489	12031.82
630.683	12199.75
630.877	11933.51
631.071	12181.32
631.265	12146.5
631.459	11910.99
631.653	11779.92
631.848	11876.17
632.042	11800.4
632.236	11822.92
632.43	11556.69
632.624	11781.96
632.818	11652.94
633.012	11351.89
633.206	11370.32
633.4	11386.71
633.594	10944.34
633.788	11186.01
633.982	11079.51
634.176	11202.39
634.369	11038.55
634.563	11073.37
634.757	10680.16
634.951	11065.18
635.145	10700.64
635.339	10927.96
635.533	10542.94
635.726	10782.56
635.92	10422.11
636.114	10399.59
636.308	10444.64
636.501	10315.62
636.695	10354.53
636.889	10393.44
637.083	10223.46
637.276	10190.69
637.47	10127.21
637.664	10047.33
637.857	10037.09
638.051	9879.4
638.244	9938.79
638.438	9903.98
638.632	9871.21
638.825	9582.45
639.019	9641.84
639.212	9678.7
639.406	9586.54
639.599	9574.25
639.793	9328.5
639.986	9275.25
640.18	9432.94
640.373	9396.08
640.567	9289.59
640.76	9222
640.954	9131.89
641.147	9129.84
641.34	9072.5
641.534	9109.36
641.727	9072.5
641.92	9049.97
642.114	9056.12
642.307	8863.61
642.5	8609.66
642.694	8507.26
642.887	8572.8
643.08	8628.09
643.273	8683.39
643.467	8501.12
643.66	8437.63
643.853	8339.33
644.046	8333.18
644.239	8324.99
644.432	8355.71
644.626	8298.37
644.819	8191.88
645.012	8013.7
645.205	8169.35
645.398	8116.1
645.591	8069
645.784	8052.61
645.977	7671.69
646.17	7710.6
646.363	7802.76
646.556	7741.32
646.749	7741.32
646.942	7683.98
647.135	7741.32
647.328	7659.4
647.521	7479.18
647.714	7348.11
647.907	7554.96
648.099	7391.12
648.292	7389.07
648.485	7239.57
648.678	7223.19
648.871	7149.46
649.064	7341.97
649.256	7315.34
649.449	7116.69
649.642	6860.7
649.835	6975.38
650.027	7153.55
650.22	6987.67
650.413	6985.62
650.605	6940.57
650.798	6776.73
650.991	6881.17
651.183	6764.44
651.376	6662.04
651.568	6746.01
651.761	6651.8
651.954	6557.6
652.146	6500.25
652.339	6483.87
652.531	6571.93
652.724	6485.92
652.916	6422.43
653.109	6193.06
653.301	6487.97
653.494	6406.05
653.686	6293.41
653.879	6332.32
654.071	6229.92
654.263	6168.48
654.456	6207.39
654.648	6227.87
654.84	5971.88
655.033	5963.68
655.225	6047.65
655.417	5998.5
655.61	5885.86
655.802	6012.84
655.994	5965.73
656.186	5926.82
656.379	5812.14
656.571	5855.14
656.763	5695.4
656.955	5652.39
657.148	5830.57
657.34	5646.25
657.532	5681.07
657.724	5533.61
657.916	5578.67
658.108	5597.1
658.3	5398.45
658.492	5511.08
658.684	5431.21
658.876	5441.45
659.068	5425.07
659.26	5332.91
659.452	5337.01
659.644	5281.71
659.836	5134.26
660.028	5283.76
660.22	5156.79
660.412	4980.66
660.604	5119.92
660.796	5029.81
660.988	5115.83
661.18	5115.83
661.372	5078.96
661.563	4972.47
661.755	4931.51
661.947	4790.2
662.139	4753.34
662.331	4882.36
662.522	4812.73
662.714	4972.47
662.906	4734.9
663.097	4827.06
663.289	4612.03
663.481	4620.22
663.673	4804.53
663.864	4550.59
664.056	4575.16
664.247	4624.31
664.439	4358.08
664.631	4294.59
664.822	4450.24
665.014	4423.61
665.205	4415.42
665.397	4409.28
665.588	4472.76
665.78	4442.04
665.971	4480.96
666.163	4292.54
666.354	4210.62
666.546	4108.23
666.737	4251.58
666.929	4167.62
667.12	4263.87
667.311	4161.47
667.503	3979.2
667.694	4202.43
667.885	4024.26
668.077	4198.34
668.268	4065.22
668.459	3893.19
668.651	4112.32
668.842	4052.93
669.033	3905.48
669.224	3973.06
669.416	3975.11
669.607	3895.24
669.798	3852.23
669.989	3934.15
670.18	3827.65
670.371	3846.09
670.563	3846.09
670.754	3678.15
670.945	3837.89
671.136	3864.52
671.327	3653.58
671.518	3731.4
671.709	3710.92
671.9	3764.17
672.091	3622.86
672.282	3741.64
672.473	3629
672.664	3712.97
672.855	3579.85
673.046	3598.28
673.237	3561.42
673.428	3579.85
673.619	3493.83
673.809	3727.3
674	3571.66
674.191	3626.95
674.382	3442.64
674.573	3592.14
674.764	3383.24
674.954	3506.12
675.145	3411.92
675.336	3420.11
675.527	3387.34
675.717	3475.4
675.908	3428.3
676.099	3223.5
676.289	3342.28
676.48	3456.97
676.671	3307.47
676.861	3215.31
677.052	3352.52
677.243	3264.46
677.433	3297.23
677.624	3407.82
677.814	3198.93
678.005	3252.17
678.195	3178.45
678.386	3151.82
678.576	3178.45
678.767	3256.27
678.957	3215.31
679.148	3188.69
679.338	3284.94
679.529	3207.12
679.719	3170.26
679.909	3270.61
680.1	3198.93
680.29	3147.73
680.481	3276.75
680.671	3358.67
680.861	3155.92
681.052	3352.52
681.242	3149.78
681.432	3149.78
681.622	3194.83
681.813	3149.78
682.003	3143.63
682.193	3055.57
682.383	3110.86
682.573	3221.45
682.764	3074
682.954	3076.05
683.144	3235.79
683.334	3016.66
683.524	3076.05
683.714	3096.53
683.904	3084.24
684.094	3055.57
684.284	3063.76
684.474	3110.86
684.664	3051.47
684.854	3131.34
685.044	3055.57
685.234	3164.11
685.424	3153.87
685.614	2930.64
685.804	3061.71
685.994	3074
686.184	3039.19
686.374	3026.9
686.564	3033.04
686.753	2889.68
686.943	2957.27
687.133	2926.55
687.323	2901.97
687.513	3069.91
687.702	3008.47
687.892	2883.54
688.082	2846.68
688.272	2971.6
688.461	2899.92
688.651	3088.34
688.841	2924.5
689.03	2897.88
689.22	2805.72
689.41	2899.92
689.599	2934.74
689.789	2799.57
689.979	2793.43
690.168	2858.96
690.358	2842.58
690.547	2772.95
690.737	2752.47
690.926	2756.57
691.116	2707.41
691.305	2729.94
691.495	2785.24
691.684	2662.36
691.874	2637.78
692.063	2775
692.252	2678.74
692.442	2793.43
692.631	2719.7
692.82	2682.84
693.01	2711.51
693.199	2746.33
693.388	2592.73
693.578	2746.33
693.767	2631.64
693.956	2736.09
694.146	2645.98
694.335	2617.3
694.524	2598.87
694.713	2633.69
694.902	2631.64
695.092	2457.56
695.281	2633.69
695.47	2736.09
695.659	2613.21
695.848	2576.34
696.037	2580.44
696.226	2547.67
696.415	2514.91
696.604	2557.91
696.793	2533.34
696.982	2621.4
697.171	2584.54
697.36	2494.43
697.549	2484.19
697.738	2492.38
697.927	2318.3
698.116	2516.95
698.305	2486.23
698.494	2455.51
698.683	2432.99
698.872	2502.62
699.061	2490.33
699.25	2344.92
699.438	2461.66
699.627	2465.75
699.816	2428.89
700.005	2414.56
700.193	2406.36
700.382	2408.41
700.571	2355.16
700.76	2422.75
700.948	2445.27
701.137	2400.22
701.326	2471.9
701.514	2291.68
701.703	2410.46
701.892	2263.01
702.08	2328.54
702.269	2318.3
702.457	2441.18
702.646	2324.44
702.834	2363.36
703.023	2371.55
703.212	2432.99
703.4	2471.9
703.589	2369.5
703.777	2213.85
703.965	2238.43
704.154	2332.64
704.342	2369.5
704.531	2353.12
704.719	2277.34
704.907	2396.12
705.096	2287.58
705.284	2303.96
705.472	2301.92
705.661	2269.15
705.849	2314.2
706.037	2224.09
706.226	2240.48
706.414	2248.67
706.602	2222.05
706.79	2224.09
706.979	2260.96
707.167	2275.29
707.355	2162.65
707.543	2250.72
707.731	2238.43
707.919	2179.04
708.107	2275.29
708.296	2138.08
708.484	2287.58
708.672	2254.81
708.86	2127.84
709.048	2252.77
709.236	2170.85
709.424	2117.6
709.612	2146.27
709.8	2181.09
709.988	2103.26
710.176	2344.92
710.364	2271.2
710.551	2127.84
710.739	1978.34
710.927	2170.85
711.115	2224.09
711.303	2133.98
711.491	2199.52
711.679	2166.75
711.866	2238.43
712.054	2193.37
712.242	2187.23
712.43	2224.09
712.617	2113.5
712.805	2121.7
712.993	2101.22
713.181	2115.55
713.368	2121.7
713.556	2095.07
713.744	2166.75
713.931	2211.81
714.119	2228.19
714.306	2097.12
714.494	2138.08
714.682	2050.02
714.869	2076.64
715.057	2158.56
715.244	2121.7
715.432	2105.31
715.619	2050.02
715.807	2076.64
715.994	2031.58
716.182	2056.16
716.369	2170.85
716.556	2244.57
716.744	1980.39
716.931	2043.87
717.119	2076.64
717.306	2009.06
717.493	2080.74
717.681	2050.02
717.868	2031.58
718.055	2127.84
718.242	2064.35
718.43	2090.98
718.617	2039.78
718.804	2043.87
718.991	2090.98
719.179	2164.7
719.366	2080.74
719.553	2027.49
719.74	2088.93
719.927	2066.4
720.114	2027.49
720.301	2015.2
720.488	2023.39
720.676	1966.05
720.863	2082.78
721.05	2097.12
721.237	2093.02
721.424	2052.06
721.611	2013.15
721.798	2039.78
721.985	1957.86
722.172	1990.63
722.358	1988.58
722.545	2007.01
722.732	2117.6
722.919	2015.2
723.106	2072.54
723.293	1957.86
723.48	1961.95
723.667	1918.95
723.853	2031.58
724.04	2009.06
724.227	2052.06
724.414	2043.87
724.6	2029.54
724.787	2082.78
724.974	1953.76
725.161	1974.24
725.347	1994.72
725.534	2072.54
725.72	1949.67
725.907	1978.34
726.094	2070.5
726.28	2060.26
726.467	2031.58
726.653	2011.11
726.84	2082.78
727.027	2121.7
727.213	1990.63
727.4	2127.84
727.586	1925.09
727.773	2052.06
727.959	1957.86
728.145	1933.28
728.332	1941.47
728.518	2004.96
728.705	2107.36
728.891	2011.11
729.077	1888.23
729.264	2076.64
729.45	1877.99
729.636	1968.1
729.823	2015.2
730.009	1984.48
730.195	1984.48
730.382	2050.02
730.568	2047.97
730.754	1949.67
730.94	1998.82
731.126	2043.87
731.313	2015.2
731.499	2027.49
731.685	2056.16
731.871	1918.95
732.057	1953.76
732.243	2031.58
732.429	1929.19
732.615	1904.61
732.801	1943.52
732.987	1947.62
733.173	1925.09
733.359	1920.99
733.545	1984.48
733.731	1910.75
733.917	1955.81
734.103	1898.47
734.289	1920.99
734.475	1900.52
734.661	1974.24
734.847	2000.87
735.033	2090.98
735.219	2068.45
735.404	2007.01
735.59	1916.9
735.776	1998.82
735.962	2015.2
736.148	1972.19
736.333	1916.9
736.519	2017.25
736.705	1937.38
736.89	1812.45
737.076	1961.95
737.262	1810.4
737.447	1834.98
737.633	1943.52
737.819	1916.9
738.004	1867.75
738.19	1925.09
738.375	1990.63
738.561	1957.86
738.747	1908.71
738.932	1892.32
739.118	1867.75
739.303	1834.98
739.489	1816.55
739.674	1775.59
739.859	1859.56
740.045	1746.92
740.23	1863.65
740.416	1740.77
740.601	1867.75
740.786	1859.56
740.972	1884.13
741.157	1806.31
741.342	1880.04
741.528	1886.18
741.713	1908.71
741.898	1877.99
742.084	1796.07
742.269	1753.06
742.454	1787.88
742.639	1816.55
742.824	1884.13
743.01	1757.16
743.195	1859.56
743.38	1769.44
743.565	1736.68
743.75	1742.82
743.935	1779.68
744.12	1720.29
744.305	1654.76
744.49	1581.03
744.675	1667.05
744.86	1638.37
745.045	1751.01
745.23	1728.49
745.415	1787.88
745.6	1728.49
745.785	1654.76
745.97	1681.38
746.155	1556.46
746.34	1667.05
746.525	1712.1
746.71	1783.78
746.895	1581.03
747.079	1642.47
747.264	1605.61
747.449	1603.56
747.634	1722.34
747.819	1621.99
748.003	1638.37
748.188	1589.22
748.373	1640.42
748.557	1515.5
748.742	1525.74
748.927	1550.31
749.111	1568.74
749.296	1513.45
749.481	1527.78
749.665	1435.63
749.85	1433.58
750.034	1386.47
750.219	1409
750.404	1404.91
750.588	1449.96
750.773	1435.63
750.957	1443.82
751.141	1359.85
751.326	1431.53
751.51	1441.77
751.695	1302.51
751.879	1411.05
752.064	1478.63
752.248	1419.24
752.432	1320.94
752.617	1372.14
752.801	1363.95
752.985	1333.23
753.17	1380.33
753.354	1347.56
753.538	1388.52
753.722	1327.08
753.907	1279.98
754.091	1277.93
754.275	1179.63
754.459	1267.69
754.643	1226.73
754.828	1333.23
755.012	1228.78
755.196	1236.97
755.38	1155.05
755.564	1198.06
755.748	1193.97
755.932	1116.14
756.116	1214.45
756.3	1126.38
756.484	1183.73
756.668	1089.52
756.852	1138.67
757.036	1122.29
757.22	1130.48
757.404	1118.19
757.588	1116.14
757.772	1167.34
757.956	1114.1
758.14	1101.81
758.323	1105.9
758.507	1157.1
758.691	1171.44
758.875	1105.9
759.059	1124.33
759.242	1093.62
759.426	993.26
759.61	1073.14
759.794	1101.81
759.977	987.12
760.161	1034.22
760.345	1021.94
760.528	993.26
760.712	1083.38
760.895	1036.27
761.079	960.5
761.263	968.69
761.446	905.2
761.63	952.31
761.813	876.53
761.997	937.97
762.18	1017.84
762.364	1056.75
762.547	868.34
762.731	1042.42
762.914	968.69
763.098	954.35
763.281	944.11
763.464	960.5
763.648	882.67
763.831	909.3
764.015	897.01
764.198	909.3
764.381	880.63
764.564	897.01
764.748	917.49
764.931	894.96
765.114	790.52
765.297	884.72
765.481	892.91
765.664	831.48
765.847	894.96
766.03	933.87
766.213	903.15
766.397	858.1
766.58	835.57
766.763	884.72
766.946	815.09
767.129	870.39
767.312	843.76
767.495	872.43
767.678	815.09
767.861	892.91
768.044	765.94
768.227	878.58
768.41	821.24
768.593	874.48
768.776	780.28
768.959	776.18
769.142	847.86
769.324	806.9
769.507	804.85
769.69	743.41
769.873	749.56
770.056	825.33
770.239	790.52
770.421	907.25
770.604	886.77
770.787	720.88
770.97	888.82
771.152	819.19
771.335	868.34
771.518	749.56
771.7	704.5
771.883	839.67
772.066	770.04
772.248	757.75
772.431	714.74
772.613	815.09
772.796	772.08
772.978	729.08
773.161	722.93
773.343	778.23
773.526	671.73
773.708	671.73
773.891	704.5
774.073	722.93
774.256	704.5
774.438	731.12
774.621	669.69
774.803	714.74
774.985	651.25
775.168	706.55
775.35	598.01
775.532	714.74
775.715	667.64
775.897	638.97
776.079	659.45
776.261	692.21
776.444	544.76
776.626	634.87
776.808	679.93
776.99	581.62
777.173	667.64
777.355	626.68
777.537	681.97
777.719	681.97
777.901	634.87
778.083	595.96
778.265	552.95
778.447	606.2
778.629	583.67
778.811	507.9
778.993	626.68
779.175	581.62
779.357	591.86
779.539	509.94
779.721	608.25
779.903	557.05
780.085	544.76
780.267	483.32
780.449	485.37
780.631	495.61
780.812	604.15
780.994	581.62
781.176	448.51
781.358	559.1
781.54	536.57
781.721	550.9
781.903	536.57
782.085	460.79
782.267	483.32
782.448	503.8
782.63	446.46
782.812	421.88
782.993	485.37
783.175	477.18
783.357	438.27
783.538	475.13
783.72	425.98
783.901	487.42
784.083	550.9
784.264	440.31
784.446	360.44
784.627	434.17
784.809	511.99
784.99	462.84
785.172	479.22
785.353	362.49
785.535	421.88
785.716	399.35
785.897	364.54
786.079	434.17
786.26	372.73
786.441	415.74
786.623	393.21
786.804	389.11
786.985	403.45
787.167	368.63
787.348	368.63
787.529	401.4
787.71	387.07
787.891	382.97
788.073	266.24
788.254	399.35
788.435	425.98
788.616	413.69
788.797	311.29
788.978	385.02
789.159	323.58
789.34	460.79
789.522	411.64
789.703	368.63
789.884	307.2
790.065	385.02
790.246	360.44
790.427	360.44
790.607	393.21
790.788	444.41
790.969	294.91
791.15	335.87
791.331	368.63
791.512	335.87
791.693	327.67
791.874	323.58
792.054	393.21
792.235	385.02
792.416	305.15
792.597	290.81
792.778	317.44
792.958	311.29
793.139	335.87
793.32	294.91
793.5	288.76
793.681	329.72
793.862	294.91
794.042	344.06
794.223	294.91
794.404	348.15
794.584	243.71
794.765	202.75
794.945	235.52
795.126	344.06
795.306	278.52
795.487	348.15
795.667	256
795.848	305.15
796.028	296.96
796.209	313.34
796.389	299
796.57	337.91
796.75	245.76
796.93	299
797.111	286.72
797.291	305.15
797.471	348.15
797.652	319.48
797.832	231.42
798.012	270.33
798.192	262.14
798.373	204.8
798.553	217.08
798.733	327.67
798.913	258.04
799.093	239.61
799.274	237.56
799.454	237.56
799.634	290.81
799.814	270.33
799.994	233.47
800.174	225.28
800.354	221.18
800.534	206.84
800.714	253.95
800.894	182.27
801.074	229.37
801.254	188.41
801.434	315.39
801.614	239.61
801.794	182.27
801.974	841.72
802.154	278.52
802.334	237.56
802.514	176.13
802.693	245.76
802.873	194.56
803.053	266.24
803.233	290.81
803.413	165.89
803.592	219.13
803.772	196.61
803.952	196.61
804.131	196.61
804.311	200.7
804.491	221.18
804.67	192.51
804.85	247.8
805.03	194.56
805.209	225.28
805.389	159.74
805.568	131.07
805.748	143.36
805.928	249.85
806.107	182.27
806.287	172.03
806.466	215.04
806.646	247.8
806.825	172.03
807.004	190.46
807.184	159.74
807.363	167.93
807.543	243.71
807.722	157.69
807.901	190.46
808.081	210.94
808.26	57.34
808.439	126.97
808.619	139.26
808.798	98.3
808.977	155.65
809.156	251.9
809.336	108.54
809.515	210.94
809.694	57.34
809.873	163.84
810.052	198.65
810.231	124.93
810.411	165.89
810.59	196.61
810.769	200.7
810.948	190.46
811.127	118.78
811.306	143.36
811.485	139.26
811.664	188.41
811.843	192.51
812.022	163.84
812.201	110.59
812.38	147.45
812.559	106.49
812.737	145.41
812.916	139.26
813.095	40.96
813.274	190.46
813.453	212.99
813.632	135.17
813.811	239.61
813.989	184.32
814.168	172.03
814.347	122.88
814.526	155.65
814.704	174.08
814.883	172.03
815.062	104.45
815.24	217.08
815.419	169.98
815.598	184.32
815.776	69.63
815.955	167.93
816.133	157.69
816.312	110.59
816.49	114.69
816.669	155.65
816.847	137.21
817.026	96.25
817.204	90.11
817.383	51.2
817.561	32.77
817.74	180.22
817.918	237.56
818.097	147.45
818.275	83.97
818.453	174.08
818.632	131.07
818.81	51.2
818.988	-24.58
819.167	75.77
819.345	120.83
819.523	141.31
819.701	65.54
819.879	120.83
820.058	98.3
820.236	108.54
820.414	133.12
820.592	98.3
820.77	90.11
820.948	139.26
821.127	122.88
821.305	102.4
821.483	131.07
821.661	151.55
821.839	151.55
822.017	20.48
822.195	57.34
822.373	163.84
822.551	139.26
822.729	108.54
822.907	43.01
823.085	157.69
823.262	147.45
823.44	145.41
823.618	86.01
823.796	124.93
823.974	59.39
824.152	106.49
824.329	114.69
824.507	51.2
824.685	114.69
824.863	65.54
825.04	108.54
825.218	40.96
825.396	51.2
825.574	81.92
825.751	12.29
825.929	94.21
826.107	12.29
826.284	75.77
826.462	73.73
826.639	16.38
826.817	98.3
826.994	57.34
827.172	57.34
827.349	204.8
827.527	102.4
827.704	118.78
827.882	32.77
828.059	81.92
828.237	122.88
828.414	92.16
828.591	90.11
828.769	65.54
828.946	8.19
829.124	43.01
829.301	100.35
829.478	28.67
829.655	143.36
829.833	133.12
830.01	120.83
830.187	143.36
830.364	73.73
830.542	137.21
830.719	131.07
830.896	163.84
831.073	118.78
831.25	108.54
831.427	86.01
831.604	106.49
831.782	65.54
831.959	86.01
832.136	77.82
832.313	96.25
832.49	14.34
832.667	43.01
832.844	83.97
833.021	106.49
833.198	147.45
833.374	16.38
833.551	118.78
833.728	141.31
833.905	73.73
834.082	65.54
834.259	73.73
834.436	151.55
834.612	129.02
834.789	94.21
834.966	67.58
835.143	65.54
835.319	-32.77
835.496	116.73
835.673	59.39
835.85	143.36
836.026	122.88
836.203	108.54
836.38	32.77
836.556	36.86
836.733	40.96
836.909	133.12
837.086	90.11
837.262	63.49
837.439	79.87
837.616	65.54
837.792	59.39
837.968	6.14
838.145	73.73
838.321	67.58
838.498	30.72
838.674	137.21
838.851	131.07
839.027	40.96
839.203	32.77
839.38	65.54
839.556	40.96
839.732	59.39
839.909	40.96
840.085	73.73
840.261	47.1
840.437	45.06
840.614	81.92
840.79	65.54
840.966	-12.29
841.142	67.58
841.318	6.14
841.494	65.54
841.671	77.82
841.847	83.97
842.023	-28.67
842.199	133.12
842.375	77.82
842.551	18.43
842.727	10.24
842.903	73.73
843.079	81.92
843.255	143.36
843.431	2.05
843.607	122.88
843.783	20.48
843.959	100.35
844.134	81.92
844.31	10.24
844.486	0
844.662	34.82
844.838	88.06
845.013	124.93
845.189	129.02
845.365	65.54
845.541	-8.19
845.716	0
845.892	53.25
846.068	-6.14
846.244	51.2
846.419	69.63
846.595	38.91
846.77	90.11
846.946	32.77
847.122	32.77
847.297	0
847.473	86.01
847.648	34.82
847.824	40.96
847.999	53.25
848.175	57.34
848.35	32.77
848.526	73.73
848.701	16.38
848.876	104.45
849.052	57.34
849.227	10.24
849.403	34.82
849.578	75.77
849.753	53.25
849.929	73.73
850.104	-16.38
850.279	77.82
850.454	-43.01
850.63	36.86
850.805	49.15
850.98	57.34
851.155	65.54
851.33	14.34
851.505	12.29
851.681	69.63
851.856	4.1
852.031	65.54
852.206	40.96
852.381	-8.19
852.556	14.34
852.731	122.88
852.906	-6.14
853.081	16.38
853.256	14.34
853.431	8.19
853.606	40.96
853.781	24.58
853.956	-51.2
854.131	106.49
854.305	-90.11
854.48	-14.34
854.655	69.63
854.83	45.06
855.005	67.58
855.18	38.91
855.354	18.43
855.529	55.3
855.704	10.24
855.879	90.11
856.053	43.01
856.228	16.38
856.403	53.25
856.577	34.82
856.752	-4.1
856.926	57.34
857.101	65.54
857.276	-2.05
857.45	28.67
857.625	32.77
857.799	-43.01
857.974	36.86
858.148	40.96
858.323	67.58
858.497	-18.43
858.672	-12.29
858.846	28.67
859.02	174.08
859.195	-22.53
859.369	40.96
859.543	36.86
859.718	16.38
859.892	-20.48
860.066	-32.77
860.241	20.48
860.415	83.97
860.589	-36.86
860.763	45.06
860.938	-2.05
861.112	32.77
861.286	57.34
861.46	43.01
861.634	-86.01
861.808	-22.53
861.982	86.01
862.157	20.48
862.331	36.86
862.505	-53.25
862.679	-10.24
862.853	47.1
863.027	8.19
863.201	53.25
863.375	0
863.549	34.82
863.722	40.96
863.896	77.82
864.07	4.1
864.244	20.48
864.418	-79.87
864.592	12.29
864.766	36.86
864.939	-14.34
865.113	-55.3
865.287	102.4
865.461	53.25
865.634	45.06
865.808	47.1
865.982	59.39
866.156	-40.96
866.329	34.82
866.503	-28.67
866.676	36.86
866.85	18.43
867.024	32.77
867.197	112.64
867.371	108.54
867.544	12.29
867.718	57.34
867.891	26.62
868.065	-8.19
868.238	45.06
868.412	65.54
868.585	2.05
868.759	-24.58
868.932	8.19
869.105	57.34
869.279	57.34
869.452	-16.38
869.625	49.15
869.799	-38.91
869.972	-79.87
870.145	-2.05
870.319	36.86
870.492	47.1
870.665	-12.29
870.838	10.24
871.011	81.92
871.185	28.67
871.358	24.58
871.531	-32.77
871.704	16.38
871.877	65.54
872.05	0
872.223	43.01
872.396	47.1
872.569	73.73
872.742	-40.96
872.915	40.96
873.088	-55.3
873.261	-2.05
873.434	73.73
873.607	-18.43
873.78	65.54
873.953	-12.29
874.126	14.34
874.299	28.67
874.471	-16.38
874.644	51.2
874.817	16.38
874.99	12.29
875.163	43.01
875.335	10.24
875.508	57.34
875.681	53.25
875.853	-6.14
876.026	57.34
876.199	86.01
876.371	73.73
876.544	32.77
876.717	2.05
876.889	-24.58
877.062	10.24
877.234	20.48
877.407	43.01
877.579	81.92
877.752	-4.1
877.924	-8.19
878.097	18.43
878.269	-12.29
878.442	18.43
878.614	4.1
878.786	16.38
878.959	-12.29
879.131	69.63
879.303	51.2
879.476	8.19
879.648	-22.53
879.82	-47.1
879.993	36.86
880.165	6.14
880.337	-57.34
880.509	16.38
880.681	-18.43
880.854	14.34
881.026	43.01
881.198	43.01
881.37	-28.67
881.542	16.38
881.714	-16.38
881.886	-77.82
882.058	73.73
882.23	-32.77
882.402	-59.39
882.574	18.43
882.746	32.77
882.918	94.21
883.09	45.06
883.262	26.62
883.434	10.24
883.606	-12.29
883.778	24.58
883.95	92.16
884.122	-16.38
884.293	4.1
884.465	12.29
884.637	73.73
884.809	-36.86
884.98	-6.14
885.152	6.14
885.324	0
885.496	-26.62
885.667	108.54
885.839	12.29
886.011	61.44
886.182	69.63
886.354	118.78
886.525	69.63
886.697	30.72
886.869	24.58
887.04	51.2
887.212	83.97
887.383	51.2
887.555	-8.19
887.726	-20.48
887.897	-8.19
888.069	106.49
888.24	40.96
888.412	-24.58
888.583	-30.72
888.754	16.38
888.926	-6.14
889.097	-28.67
889.268	-16.38
889.44	-14.34
889.611	-45.06
889.782	12.29
889.953	-90.11
890.125	32.77
890.296	-49.15
890.467	34.82
890.638	40.96
890.809	-6.14
890.98	-14.34
891.151	59.39
891.323	-28.67
891.494	83.97
891.665	65.54
891.836	-73.73
892.007	-92.16
892.178	63.49
892.349	40.96
892.52	-73.73
892.691	-55.3
892.862	-38.91
893.032	-81.92
893.203	8.19
893.374	14.34
893.545	83.97
893.716	32.77
893.887	90.11
894.057	-20.48
894.228	-4.1
894.399	32.77
894.57	67.58
894.74	24.58
894.911	65.54
895.082	47.1
895.253	-43.01
895.423	32.77
895.594	49.15
895.764	12.29
895.935	26.62
896.106	79.87
896.276	86.01
896.447	-12.29
896.617	-6.14
896.788	-57.34
896.958	-38.91
897.129	8.19
897.299	8.19
897.47	75.77
897.64	14.34
897.81	69.63
897.981	34.82
898.151	-49.15
898.322	43.01
898.492	-8.19
898.662	-4.1
898.832	34.82
899.003	28.67
899.173	-36.86
899.343	-30.72
899.513	-14.34
