Data from USB4F104151__130__14-44-04-208.txt Node

Date: Thu Mar 13 14:44:04 EDT 2025
User: louis
Spectrometer: USB4F10415
Trigger mode: 4
Integration Time (sec): 2.000000E-2
Scans to average: 1
Electric dark correction enabled: true
Nonlinearity correction enabled: false
Boxcar width: 0
XAxis mode: Wavelengths
Number of Pixels in Spectrum: 3648
>>>>>Begin Spectral Data<<<<<
178.204	-93.87
178.424	-93.87
178.644	-93.87
178.864	-157.35
179.084	-118.44
179.304	49.49
179.524	-22.19
179.744	-79.53
179.964	-7.85
180.184	-32.43
180.404	-81.58
180.624	43.35
180.844	65.88
181.064	-46.76
181.283	24.92
181.503	16.73
181.723	69.97
181.943	-13.99
182.163	26.96
182.383	24.92
182.602	49.49
182.822	57.68
183.042	74.07
183.262	6.49
183.482	76.12
183.701	90.45
183.921	76.12
184.141	-40.62
184.361	115.03
184.58	59.73
184.8	69.97
185.02	8.53
185.239	8.53
185.459	24.92
185.679	41.3
185.898	61.78
186.118	80.21
186.338	24.92
186.557	92.5
186.777	76.12
186.997	18.77
187.216	-52.91
187.436	8.53
187.655	59.73
187.875	53.59
188.095	2.39
188.314	-16.04
188.534	43.35
188.753	-5.8
188.973	69.97
189.192	145.75
189.412	51.54
189.631	108.88
189.851	59.73
190.07	100.69
190.29	16.73
190.509	69.97
190.729	59.73
190.948	33.11
191.168	94.55
191.387	53.59
191.607	-24.23
191.826	65.88
192.045	31.06
192.265	106.84
192.484	55.64
192.704	80.21
192.923	10.58
193.142	84.31
193.362	51.54
193.581	35.16
193.8	49.49
194.02	74.07
194.239	-48.81
194.458	41.3
194.678	117.08
194.897	74.07
195.116	26.96
195.335	-3.75
195.555	8.53
195.774	51.54
195.993	18.77
196.212	-7.85
196.432	45.4
196.651	16.73
196.87	24.92
197.089	94.55
197.308	29.01
197.528	151.89
197.747	-16.04
197.966	-7.85
198.185	78.16
198.404	-3.75
198.623	-3.75
198.842	84.31
199.062	49.49
199.281	-16.04
199.5	65.88
199.719	100.69
199.938	63.83
200.157	59.73
200.376	57.68
200.595	-7.85
200.814	-44.71
201.033	-9.9
201.252	76.12
201.471	24.92
201.69	67.92
201.909	98.64
202.128	80.21
202.347	94.55
202.566	29.01
202.785	4.44
203.004	26.96
203.223	90.45
203.442	20.82
203.661	86.36
203.879	41.3
204.098	117.08
204.317	-22.19
204.536	51.54
204.755	82.26
204.974	16.73
205.193	29.01
205.411	82.26
205.63	47.44
205.849	12.63
206.068	8.53
206.287	35.16
206.505	41.3
206.724	10.58
206.943	115.03
207.162	74.07
207.381	69.97
207.599	65.88
207.818	24.92
208.037	65.88
208.255	47.44
208.474	37.2
208.693	49.49
208.911	16.73
209.13	0.34
209.349	49.49
209.567	98.64
209.786	84.31
210.005	24.92
210.223	26.96
210.442	2.39
210.661	24.92
210.879	26.96
211.098	98.64
211.316	31.06
211.535	24.92
211.753	49.49
211.972	49.49
212.191	108.88
212.409	84.31
212.628	74.07
212.846	24.92
213.065	61.78
213.283	76.12
213.502	-11.95
213.72	0.34
213.938	-3.75
214.157	43.35
214.375	37.2
214.594	84.31
214.812	16.73
215.031	35.16
215.249	24.92
215.467	37.2
215.686	-40.62
215.904	37.2
216.122	94.55
216.341	-24.23
216.559	4.44
216.778	55.64
216.996	78.16
217.214	33.11
217.432	-24.23
217.651	82.26
217.869	4.44
218.087	14.68
218.306	41.3
218.524	45.4
218.742	51.54
218.96	-18.09
219.179	57.68
219.397	35.16
219.615	78.16
219.833	65.88
220.051	26.96
220.27	125.27
220.488	67.92
220.706	90.45
220.924	-69.29
221.142	22.87
221.36	29.01
221.578	61.78
221.796	24.92
222.015	43.35
222.233	0.34
222.451	147.8
222.669	18.77
222.887	33.11
223.105	84.31
223.323	35.16
223.541	45.4
223.759	-34.47
223.977	4.44
224.195	49.49
224.413	59.73
224.631	104.79
224.849	24.92
225.067	41.3
225.285	14.68
225.503	61.78
225.721	49.49
225.939	78.16
226.157	37.2
226.375	82.26
226.592	63.83
226.81	4.44
227.028	-7.85
227.246	108.88
227.464	18.77
227.682	51.54
227.9	45.4
228.117	86.36
228.335	143.7
228.553	55.64
228.771	61.78
228.989	37.2
229.206	37.2
229.424	63.83
229.642	-7.85
229.86	2.39
230.077	20.82
230.295	6.49
230.513	82.26
230.731	49.49
230.948	98.64
231.166	129.36
231.384	20.82
231.601	33.11
231.819	51.54
232.037	-22.19
232.254	8.53
232.472	41.3
232.689	61.78
232.907	100.69
233.125	39.25
233.342	16.73
233.56	45.4
233.777	24.92
233.995	24.92
234.213	55.64
234.43	59.73
234.648	65.88
234.865	55.64
235.083	16.73
235.3	100.69
235.518	31.06
235.735	88.4
235.953	82.26
236.17	65.88
236.388	2.39
236.605	-30.38
236.822	35.16
237.04	35.16
237.257	55.64
237.475	24.92
237.692	41.3
237.909	94.55
238.127	16.73
238.344	53.59
238.562	82.26
238.779	14.68
238.996	74.07
239.214	31.06
239.431	35.16
239.648	100.69
239.865	74.07
240.083	94.55
240.3	16.73
240.517	-63.15
240.735	57.68
240.952	35.16
241.169	92.5
241.386	98.64
241.603	57.68
241.821	18.77
242.038	125.27
242.255	43.35
242.472	-71.34
242.689	-20.14
242.907	61.78
243.124	-7.85
243.341	-11.95
243.558	26.96
243.775	43.35
243.992	-54.95
244.209	102.74
244.426	47.44
244.643	61.78
244.86	-1.71
245.078	67.92
245.295	49.49
245.512	41.3
245.729	0.34
245.946	12.63
246.163	86.36
246.38	8.53
246.597	29.01
246.814	61.78
247.031	-38.57
247.248	43.35
247.464	67.92
247.681	-65.19
247.898	12.63
248.115	49.49
248.332	57.68
248.549	74.07
248.766	16.73
248.983	35.16
249.2	125.27
249.417	100.69
249.633	31.06
249.85	57.68
250.067	63.83
250.284	74.07
250.501	-26.28
250.717	65.88
250.934	8.53
251.151	8.53
251.368	4.44
251.585	57.68
251.801	76.12
252.018	18.77
252.235	-1.71
252.451	-22.19
252.668	12.63
252.885	82.26
253.102	-30.38
253.318	69.97
253.535	47.44
253.752	41.3
253.968	49.49
254.185	37.2
254.401	55.64
254.618	49.49
254.835	65.88
255.051	16.73
255.268	14.68
255.484	76.12
255.701	-9.9
255.917	82.26
256.134	37.2
256.351	74.07
256.567	69.97
256.784	76.12
257	-48.81
257.217	43.35
257.433	26.96
257.65	133.46
257.866	90.45
258.082	4.44
258.299	-38.57
258.515	82.26
258.732	24.92
258.948	24.92
259.165	16.73
259.381	16.73
259.597	24.92
259.814	61.78
260.03	24.92
260.246	57.68
260.463	69.97
260.679	43.35
260.895	65.88
261.112	57.68
261.328	49.49
261.544	74.07
261.761	53.59
261.977	10.58
262.193	20.82
262.409	45.4
262.626	-13.99
262.842	-5.8
263.058	16.73
263.274	31.06
263.49	143.7
263.707	16.73
263.923	59.73
264.139	0.34
264.355	51.54
264.571	102.74
264.787	65.88
265.004	67.92
265.22	59.73
265.436	26.96
265.652	16.73
265.868	72.02
266.084	-11.95
266.3	57.68
266.516	-26.28
266.732	35.16
266.948	51.54
267.164	43.35
267.38	88.4
267.596	74.07
267.812	125.27
268.028	-71.34
268.244	0.34
268.46	78.16
268.676	67.92
268.892	35.16
269.108	12.63
269.324	35.16
269.54	-57
269.756	110.93
269.972	20.82
270.188	57.68
270.403	14.68
270.619	65.88
270.835	84.31
271.051	59.73
271.267	24.92
271.483	86.36
271.698	51.54
271.914	88.4
272.13	2.39
272.346	24.92
272.562	102.74
272.777	51.54
272.993	-5.8
273.209	102.74
273.425	86.36
273.64	35.16
273.856	26.96
274.072	29.01
274.287	33.11
274.503	82.26
274.719	94.55
274.934	82.26
275.15	18.77
275.366	16.73
275.581	61.78
275.797	-22.19
276.012	90.45
276.228	-5.8
276.444	61.78
276.659	115.03
276.875	20.82
277.09	49.49
277.306	-18.09
277.521	26.96
277.737	-32.43
277.952	49.49
278.168	86.36
278.383	-3.75
278.599	-3.75
278.814	82.26
279.03	-16.04
279.245	65.88
279.461	57.68
279.676	65.88
279.892	2.39
280.107	14.68
280.322	4.44
280.538	16.73
280.753	37.2
280.969	-48.81
281.184	65.88
281.399	67.92
281.615	65.88
281.83	65.88
282.045	22.87
282.26	37.2
282.476	45.4
282.691	92.5
282.906	65.88
283.122	51.54
283.337	4.44
283.552	33.11
283.767	57.68
283.983	49.49
284.198	22.87
284.413	59.73
284.628	29.01
284.843	33.11
285.058	51.54
285.274	24.92
285.489	16.73
285.704	59.73
285.919	-13.99
286.134	43.35
286.349	-26.28
286.564	4.44
286.779	98.64
286.995	-32.43
287.21	-24.23
287.425	63.83
287.64	24.92
287.855	33.11
288.07	92.5
288.285	-5.8
288.5	18.77
288.715	92.5
288.93	57.68
289.145	-20.14
289.36	-9.9
289.575	20.82
289.79	137.56
290.004	26.96
290.219	90.45
290.434	-1.71
290.649	10.58
290.864	41.3
291.079	26.96
291.294	-48.81
291.509	33.11
291.724	94.55
291.938	24.92
292.153	106.84
292.368	37.2
292.583	164.18
292.798	59.73
293.012	20.82
293.227	51.54
293.442	-13.99
293.657	86.36
293.871	43.35
294.086	72.02
294.301	131.41
294.516	35.16
294.73	74.07
294.945	-16.04
295.16	29.01
295.374	33.11
295.589	65.88
295.804	24.92
296.018	125.27
296.233	69.97
296.447	59.73
296.662	10.58
296.877	59.73
297.091	-9.9
297.306	90.45
297.52	82.26
297.735	88.4
297.949	78.16
298.164	51.54
298.378	65.88
298.593	-7.85
298.807	-42.67
299.022	63.83
299.236	43.35
299.451	35.16
299.665	31.06
299.88	57.68
300.094	88.4
300.309	0.34
300.523	61.78
300.737	43.35
300.952	24.92
301.166	24.92
301.381	82.26
301.595	-36.52
301.809	45.4
302.024	-13.99
302.238	37.2
302.452	108.88
302.667	41.3
302.881	65.88
303.095	35.16
303.309	51.54
303.524	26.96
303.738	108.88
303.952	78.16
304.166	65.88
304.381	24.92
304.595	67.92
304.809	65.88
305.023	24.92
305.237	69.97
305.452	57.68
305.666	67.92
305.88	84.31
306.094	98.64
306.308	-16.04
306.522	37.2
306.736	119.12
306.95	84.31
307.164	67.92
307.379	59.73
307.593	37.2
307.807	115.03
308.021	-7.85
308.235	125.27
308.449	-65.19
308.663	57.68
308.877	74.07
309.091	74.07
309.305	59.73
309.519	8.53
309.733	82.26
309.947	-75.43
310.161	147.8
310.374	76.12
310.588	45.4
310.802	24.92
311.016	8.53
311.23	16.73
311.444	61.78
311.658	53.59
311.872	74.07
312.085	74.07
312.299	8.53
312.513	80.21
312.727	43.35
312.941	41.3
313.154	41.3
313.368	33.11
313.582	86.36
313.796	6.49
314.009	98.64
314.223	106.84
314.437	24.92
314.651	47.44
314.864	57.68
315.078	67.92
315.292	53.59
315.505	-7.85
315.719	59.73
315.933	86.36
316.146	10.58
316.36	0.34
316.573	74.07
316.787	51.54
317.001	57.68
317.214	55.64
317.428	0.34
317.641	35.16
317.855	94.55
318.068	45.4
318.282	61.78
318.495	55.64
318.709	33.11
318.922	-38.57
319.136	127.32
319.349	59.73
319.563	76.12
319.776	0.34
319.99	131.41
320.203	24.92
320.417	41.3
320.63	24.92
320.843	65.88
321.057	24.92
321.27	26.96
321.483	57.68
321.697	57.68
321.91	57.68
322.124	-7.85
322.337	80.21
322.55	-24.23
322.763	67.92
322.977	-42.67
323.19	-40.62
323.403	94.55
323.617	35.16
323.83	61.78
324.043	-18.09
324.256	61.78
324.469	29.01
324.683	94.55
324.896	29.01
325.109	0.34
325.322	12.63
325.535	67.92
325.748	63.83
325.962	96.6
326.175	67.92
326.388	6.49
326.601	98.64
326.814	8.53
327.027	96.6
327.24	98.64
327.453	-13.99
327.666	94.55
327.879	0.34
328.092	57.68
328.305	90.45
328.518	29.01
328.731	-3.75
328.944	65.88
329.157	98.64
329.37	51.54
329.583	139.6
329.796	67.92
330.009	47.44
330.222	67.92
330.435	123.22
330.648	147.8
330.861	43.35
331.073	18.77
331.286	69.97
331.499	88.4
331.712	-7.85
331.925	-16.04
332.138	-22.19
332.35	131.41
332.563	24.92
332.776	35.16
332.989	106.84
333.202	16.73
333.414	-44.71
333.627	35.16
333.84	98.64
334.053	69.97
334.265	31.06
334.478	-3.75
334.691	74.07
334.903	16.73
335.116	102.74
335.329	16.73
335.541	102.74
335.754	102.74
335.966	20.82
336.179	45.4
336.392	74.07
336.604	69.97
336.817	35.16
337.029	45.4
337.242	43.35
337.454	57.68
337.667	57.68
337.88	41.3
338.092	88.4
338.305	43.35
338.517	-16.04
338.729	117.08
338.942	33.11
339.154	45.4
339.367	35.16
339.579	94.55
339.792	-16.04
340.004	78.16
340.217	80.21
340.429	92.5
340.641	41.3
340.854	-44.71
341.066	4.44
341.278	29.01
341.491	65.88
341.703	33.11
341.915	18.77
342.128	90.45
342.34	35.16
342.552	41.3
342.764	16.73
342.977	49.49
343.189	61.78
343.401	24.92
343.613	10.58
343.826	49.49
344.038	59.73
344.25	0.34
344.462	4.44
344.674	39.25
344.886	74.07
345.099	65.88
345.311	57.68
345.523	82.26
345.735	-11.95
345.947	94.55
346.159	53.59
346.371	74.07
346.583	8.53
346.795	127.32
347.007	2.39
347.219	12.63
347.431	49.49
347.643	65.88
347.855	24.92
348.067	59.73
348.279	-7.85
348.491	96.6
348.703	31.06
348.915	-3.75
349.127	41.3
349.339	35.16
349.551	10.58
349.763	74.07
349.975	-65.19
350.187	86.36
350.399	84.31
350.61	86.36
350.822	8.53
351.034	115.03
351.246	16.73
351.458	49.49
351.669	43.35
351.881	33.11
352.093	98.64
352.305	74.07
352.517	2.39
352.728	100.69
352.94	26.96
353.152	88.4
353.363	8.53
353.575	61.78
353.787	110.93
353.999	-16.04
354.21	147.8
354.422	29.01
354.633	-38.57
354.845	43.35
355.057	108.88
355.268	67.92
355.48	26.96
355.692	86.36
355.903	45.4
356.115	8.53
356.326	4.44
356.538	147.8
356.749	4.44
356.961	57.68
357.172	-13.99
357.384	57.68
357.595	153.94
357.807	53.59
358.018	-32.43
358.23	123.22
358.441	90.45
358.653	61.78
358.864	61.78
359.075	82.26
359.287	37.2
359.498	51.54
359.709	82.26
359.921	63.83
360.132	55.64
360.344	57.68
360.555	-38.57
360.766	8.53
360.977	0.34
361.189	131.41
361.4	-24.23
361.611	110.93
361.823	117.08
362.034	69.97
362.245	65.88
362.456	49.49
362.667	96.6
362.879	74.07
363.09	143.7
363.301	106.84
363.512	98.64
363.723	-30.38
363.935	18.77
364.146	123.22
364.357	59.73
364.568	33.11
364.779	35.16
364.99	-3.75
365.201	69.97
365.412	106.84
365.623	51.54
365.834	74.07
366.045	-48.81
366.256	-11.95
366.467	41.3
366.678	133.46
366.889	29.01
367.1	61.78
367.311	37.2
367.522	78.16
367.733	96.6
367.944	51.54
368.155	18.77
368.366	16.73
368.577	82.26
368.788	108.88
368.999	8.53
369.209	82.26
369.42	65.88
369.631	69.97
369.842	12.63
370.053	49.49
370.264	51.54
370.474	16.73
370.685	80.21
370.896	41.3
371.107	129.36
371.317	33.11
371.528	49.49
371.739	43.35
371.95	49.49
372.16	86.36
372.371	20.82
372.582	39.25
372.792	65.88
373.003	98.64
373.214	90.45
373.424	33.11
373.635	-57
373.846	67.92
374.056	49.49
374.267	63.83
374.477	51.54
374.688	86.36
374.898	98.64
375.109	90.45
375.319	51.54
375.53	43.35
375.74	53.59
375.951	26.96
376.161	82.26
376.372	8.53
376.582	-3.75
376.793	153.94
377.003	37.2
377.214	51.54
377.424	57.68
377.635	53.59
377.845	51.54
378.055	90.45
378.266	33.11
378.476	94.55
378.686	-7.85
378.897	94.55
379.107	84.31
379.317	98.64
379.528	78.16
379.738	69.97
379.948	41.3
380.158	49.49
380.369	88.4
380.579	76.12
380.789	-22.19
380.999	74.07
381.21	22.87
381.42	131.41
381.63	74.07
381.84	84.31
382.05	33.11
382.261	67.92
382.471	82.26
382.681	51.54
382.891	90.45
383.101	33.11
383.311	78.16
383.521	12.63
383.731	53.59
383.941	18.77
384.151	67.92
384.361	2.39
384.571	100.69
384.781	26.96
384.991	131.41
385.201	92.5
385.411	41.3
385.621	76.12
385.831	10.58
386.041	16.73
386.251	82.26
386.461	92.5
386.671	-20.14
386.881	123.22
387.091	18.77
387.301	137.56
387.511	90.45
387.72	10.58
387.93	37.2
388.14	-11.95
388.35	72.02
388.56	90.45
388.769	18.77
388.979	-9.9
389.189	29.01
389.399	49.49
389.609	-24.23
389.818	127.32
390.028	57.68
390.238	57.68
390.447	74.07
390.657	59.73
390.867	90.45
391.076	-7.85
391.286	80.21
391.496	57.68
391.705	59.73
391.915	86.36
392.125	33.11
392.334	82.26
392.544	67.92
392.753	74.07
392.963	-44.71
393.172	82.26
393.382	-13.99
393.591	117.08
393.801	67.92
394.01	100.69
394.22	24.92
394.429	65.88
394.639	8.53
394.848	82.26
395.058	45.4
395.267	69.97
395.477	125.27
395.686	117.08
395.895	49.49
396.105	155.99
396.314	137.56
396.524	102.74
396.733	24.92
396.942	127.32
397.152	207.19
397.361	155.99
397.57	127.32
397.78	12.63
397.989	115.03
398.198	153.94
398.407	20.82
398.617	65.88
398.826	63.83
399.035	76.12
399.244	123.22
399.453	67.92
399.663	49.49
399.872	115.03
400.081	94.55
400.29	123.22
400.499	65.88
400.708	133.46
400.917	55.64
401.127	29.01
401.336	90.45
401.545	221.52
401.754	84.31
401.963	139.6
402.172	145.75
402.381	127.32
402.59	84.31
402.799	106.84
403.008	205.14
403.217	82.26
403.426	135.51
403.635	82.26
403.844	190.8
404.053	141.65
404.262	110.93
404.471	209.23
404.68	133.46
404.888	106.84
405.097	76.12
405.306	153.94
405.515	151.89
405.724	137.56
405.933	108.88
406.142	147.8
406.35	194.9
406.559	100.69
406.768	106.84
406.977	217.43
407.185	176.47
407.394	166.23
407.603	123.22
407.812	258.39
408.02	270.67
408.229	174.42
408.438	227.67
408.646	151.89
408.855	172.37
409.064	242
409.272	182.61
409.481	229.71
409.69	209.23
409.898	270.67
410.107	213.33
410.315	299.34
410.524	285.01
410.733	266.58
410.941	285.01
411.15	321.87
411.358	303.44
411.567	328.02
411.775	311.63
411.984	360.78
412.192	381.26
412.401	381.26
412.609	401.74
412.818	377.17
413.026	430.41
413.234	467.28
413.443	364.88
413.651	373.07
413.86	538.96
414.068	483.66
414.276	491.85
414.485	471.37
414.693	545.1
414.901	598.35
415.11	622.92
415.318	551.24
415.526	557.39
415.734	553.29
415.943	561.48
416.151	706.89
416.359	569.68
416.567	647.5
416.776	659.79
416.984	694.6
417.192	756.04
417.4	708.94
417.608	733.51
417.817	823.62
418.025	741.71
418.233	874.82
418.441	844.1
418.649	913.74
418.857	915.78
419.065	993.61
419.273	942.41
419.481	995.65
419.689	1063.24
419.897	1098.05
420.105	995.65
420.313	1069.38
420.521	1214.79
420.729	1139.01
420.937	1239.36
421.145	1282.37
421.353	1276.23
421.561	1507.65
421.769	1450.3
421.977	1421.63
422.185	1435.97
422.393	1636.67
422.601	1782.07
422.809	1655.1
423.017	1728.83
423.224	1726.78
423.432	1814.84
423.64	1769.79
423.848	1868.09
424.056	1900.86
424.263	2083.13
424.471	1995.06
424.679	2187.57
424.887	2287.92
425.094	2320.69
425.302	2318.64
425.51	2345.27
425.718	2531.63
425.925	2556.21
426.133	2720.04
426.341	2656.56
426.548	2900.27
426.756	2756.91
426.964	2777.39
427.171	2930.98
427.379	3129.64
427.586	3174.69
427.794	3279.14
428.001	3424.55
428.209	3619.1
428.417	3514.66
428.624	3629.34
428.832	3737.88
429.039	3592.48
429.247	3737.88
429.454	3932.44
429.662	4428.05
429.869	3950.87
430.076	4256.02
430.284	4163.86
430.491	4550.93
430.699	4473.11
430.906	4686.09
431.114	4509.97
431.321	4753.68
431.528	5081.35
431.736	5132.55
431.943	5370.12
432.15	5216.52
432.358	5464.32
432.565	5570.82
432.772	5581.06
432.979	5869.82
433.187	5957.88
433.394	6123.77
433.601	6351.09
433.808	6525.17
434.016	6414.58
434.223	6555.89
434.43	7131.37
434.637	6916.33
434.844	7483.62
435.052	7409.89
435.259	7409.89
435.466	7737.57
435.673	7450.85
435.88	8001.76
436.087	8167.64
436.294	8390.87
436.501	8069.34
436.708	8300.76
436.915	8675.54
437.122	8964.3
437.329	9109.71
437.537	9185.48
437.743	9445.57
437.95	9277.64
438.157	9785.54
438.364	10123.45
438.571	10160.31
438.778	10195.13
438.985	11192.49
439.192	10729.65
439.399	11174.06
439.606	10901.68
439.813	11352.23
440.02	12116.12
440.227	11886.75
440.433	11720.87
440.64	12269.72
440.847	12023.97
441.054	12288.15
441.261	13162.64
441.467	13002.89
441.674	13185.16
441.881	13758.6
442.088	13803.65
442.294	13527.17
442.501	13901.95
442.708	13987.97
442.914	14706.8
443.121	15108.21
443.328	14901.36
443.534	15997.03
443.741	15851.62
443.948	15149.17
444.154	16359.52
444.361	16506.97
444.568	16490.59
444.774	16474.2
444.981	16564.31
445.187	17229.9
445.394	17915.97
445.6	17494.09
445.807	19132.47
446.013	18284.61
446.22	18868.28
446.426	19431.47
446.633	19705.9
446.839	20242.46
447.046	19236.91
447.252	20639.77
447.459	20807.7
447.665	20629.53
447.871	21202.96
448.078	22419.46
448.284	21098.52
448.491	21860.36
448.697	22751.23
448.903	22917.11
449.11	23240.69
449.316	22783.99
449.522	23375.86
449.728	24059.88
449.935	24358.88
450.141	24008.68
450.347	24592.35
450.553	23977.96
450.76	24164.32
450.966	25114.58
451.172	24637.41
451.378	25405.39
451.584	24645.6
451.791	25538.51
451.997	25497.55
452.203	25817.04
452.409	25771.98
452.615	25853.9
452.821	24690.65
453.027	24348.64
453.233	25980.87
453.44	24911.83
453.646	25153.49
453.852	25391.06
454.058	25616.33
454.264	24960.98
454.47	25294.8
454.676	24690.65
454.882	25622.48
455.088	23633.9
455.294	23965.67
455.5	24164.32
455.705	24422.37
455.911	23437.3
456.117	23388.14
456.323	22722.55
456.529	21610.51
456.735	22374.4
456.941	21733.39
457.147	21663.75
457.352	20566.04
457.558	20568.09
457.764	20717.59
457.97	20496.41
458.176	19943.46
458.381	20142.11
458.587	19005.49
458.793	18855.99
458.999	18194.5
459.204	19431.47
459.41	18782.26
459.616	17555.53
459.821	17631.3
460.027	17510.47
460.233	17248.33
460.438	16334.94
460.644	16605.27
460.85	15749.22
461.055	15319.15
461.261	15624.29
461.466	14547.06
461.672	13944.96
461.878	14723.19
462.083	13828.23
462.289	13707.4
462.494	13648.01
462.7	13025.42
462.905	12734.61
463.111	13152.4
463.316	13068.43
463.522	12673.17
463.727	12740.75
463.932	12845.2
464.138	12560.53
464.343	12531.86
464.549	12269.72
464.754	12681.36
464.959	12525.72
465.165	12451.99
465.37	11989.15
465.575	11638.95
465.781	12066.97
465.986	12222.62
466.191	11880.61
466.397	11606.18
466.602	10868.91
466.807	11477.16
467.012	11403.43
467.218	11362.47
467.423	11356.33
467.628	11358.38
467.833	11610.28
468.038	11389.1
468.244	11055.28
468.449	11485.35
468.654	10969.26
468.859	10862.77
469.064	10954.93
469.269	10666.16
469.474	10600.63
469.679	10836.14
469.885	10567.86
470.09	10686.64
470.295	10463.41
470.5	10510.52
470.705	10100.92
470.91	10258.62
471.115	10156.22
471.32	10469.56
471.525	10160.31
471.73	9738.43
471.935	9892.03
472.139	9476.29
472.344	9875.65
472.549	9478.34
472.754	9617.6
472.959	9322.7
473.164	9027.79
473.369	8866
473.574	9361.61
473.778	9261.26
473.983	9205.96
474.188	9035.98
474.393	8843.47
474.598	8743.12
474.802	8632.53
475.007	8610
475.212	8523.99
475.417	8200.41
475.621	8323.29
475.826	8417.49
476.031	8210.65
476.235	8003.8
476.44	8147.16
476.645	8085.72
476.849	8063.19
477.054	7975.13
477.259	7735.52
477.463	7903.45
477.668	7637.22
477.872	7825.63
478.077	7672.03
478.282	7477.48
478.486	7504.1
478.691	7383.27
478.895	7327.97
479.1	7241.96
479.304	7270.63
479.509	6992.11
479.713	7274.73
479.918	7088.36
480.122	6885.61
480.326	6932.72
480.531	6983.91
480.735	6709.49
480.94	6672.62
481.144	7002.35
481.348	6871.28
481.553	6807.79
481.757	6521.07
481.961	6727.92
482.166	6807.79
482.37	6629.62
482.574	6521.07
482.778	6758.64
482.983	6803.69
483.187	6865.13
483.391	6586.61
483.595	6832.37
483.8	6551.79
484.004	6707.44
484.208	6648.05
484.412	6791.41
484.616	6705.39
484.821	6799.6
485.025	6473.97
485.229	6850.8
485.433	6648.05
485.637	6783.21
485.841	6668.53
486.045	6672.62
486.249	6586.61
486.453	6555.89
486.657	6598.9
486.861	6582.51
487.065	6506.74
487.269	6693.1
487.473	6529.27
487.677	6926.57
487.881	6631.66
488.085	6680.82
488.289	6693.1
488.493	6646
488.697	6678.77
488.901	6770.93
489.105	6652.14
489.309	6711.53
489.512	6734.06
489.716	6732.01
489.92	6787.31
490.124	6809.84
490.328	6967.53
490.531	6707.44
490.735	6873.32
490.939	6828.27
491.143	6758.64
491.346	6822.13
491.55	6969.58
491.754	7045.35
491.958	7112.94
492.161	7098.6
492.365	7039.21
492.569	7063.79
492.772	6981.87
492.976	7117.03
493.18	7127.27
493.383	7217.38
493.587	7157.99
493.79	7330.02
493.994	7221.48
494.197	7356.65
494.401	7520.48
494.605	7364.84
494.808	7536.87
495.012	7706.85
495.215	7577.83
495.419	7532.77
495.622	7489.76
495.825	7706.85
496.029	7739.62
496.232	7946.46
496.436	8110.3
496.639	8102.11
496.843	8179.93
497.046	8227.03
497.249	8429.78
497.453	8194.26
497.656	8440.02
497.859	8356.05
498.063	8458.45
498.266	8669.39
498.469	8591.57
498.673	8569.04
498.876	8892.62
499.079	8736.98
499.282	8798.42
499.485	9347.27
499.689	9240.78
499.892	9433.29
500.095	9332.93
500.298	9758.91
500.501	9470.15
500.705	9650.37
500.908	10041.53
501.111	10051.77
501.314	10053.82
501.517	10006.72
501.72	10301.62
501.923	10113.21
502.126	10653.87
502.329	10690.74
502.532	10873.01
502.735	10692.79
502.938	11075.76
503.141	11133.1
503.344	11004.08
503.547	11086
503.75	11364.52
503.953	11600.04
504.156	11784.35
504.359	11772.07
504.562	11743.39
504.765	12040.35
504.968	12306.59
505.17	12284.06
505.373	12292.25
505.576	12632.21
505.779	12667.03
505.982	12814.48
506.185	12914.83
506.387	12953.74
506.59	13060.24
506.793	13566.09
506.996	13557.89
507.198	13723.78
507.401	13744.26
507.604	13947.01
507.807	14370.94
508.009	14174.33
508.212	14198.91
508.415	14422.14
508.617	14555.26
508.82	15036.53
509.022	14663.8
509.225	15204.46
509.428	15313
509.63	15183.98
509.833	15466.6
510.035	15972.45
510.238	15560.81
510.44	16019.55
510.643	16124
510.845	16228.45
511.048	16625.75
511.25	16564.31
511.453	16664.66
511.655	17158.22
511.858	16869.46
512.06	17147.98
512.262	17213.52
512.465	17459.27
512.667	17813.57
512.87	17782.85
513.072	17809.48
513.274	18401.34
513.477	18444.35
513.679	18556.99
513.881	18700.34
514.084	19003.44
514.286	18937.91
514.488	19152.95
514.69	19521.58
514.893	19517.48
515.095	19683.37
515.297	20135.97
515.499	19978.28
515.701	20301.86
515.904	20410.4
516.106	20770.84
516.308	21088.28
516.51	21157.91
516.712	20996.12
516.914	21508.11
517.116	21940.23
517.318	21698.57
517.52	21743.63
517.722	21950.47
517.925	22126.6
518.127	22605.82
518.329	22908.92
518.531	22700.03
518.733	22837.24
518.935	23226.35
519.136	23345.14
519.338	23433.2
519.54	23971.82
519.742	24145.89
519.944	24260.58
520.146	24584.16
520.348	24704.99
520.55	24508.38
520.752	25047
520.954	25204.69
521.155	25290.71
521.357	25706.45
521.559	25563.09
521.761	26087.37
521.963	25653.2
522.164	26042.31
522.366	26492.87
522.568	26445.76
522.77	27047.86
522.971	27168.69
523.173	27017.15
523.375	27197.37
523.576	27105.21
523.778	27432.88
523.98	27799.47
524.181	27895.72
524.383	28166.06
524.584	28110.76
524.786	28393.38
524.988	28315.56
525.189	28571.55
525.391	28587.94
525.592	29155.22
525.794	29226.9
525.995	29173.66
526.197	29456.28
526.398	29331.35
526.6	29267.86
526.801	29357.97
527.003	29810.57
527.204	29462.42
527.406	29966.22
527.607	29808.53
527.808	30218.12
528.01	29677.46
528.211	29933.45
528.412	30424.97
528.614	30502.79
528.815	30486.4
529.016	31111.03
529.218	30926.72
529.419	30519.17
529.62	30711.68
529.822	30670.72
530.023	31008.64
530.224	30988.16
530.425	30771.07
530.626	30855.04
530.828	30480.26
531.029	31743.86
531.23	31037.31
531.431	31289.21
531.632	31238.01
531.833	31399.8
532.035	31192.95
532.236	31006.59
532.437	31952.75
532.638	31430.52
532.839	31547.25
533.04	31727.47
533.241	31717.23
533.442	32069.48
533.643	31633.27
533.844	31715.19
534.045	31741.81
534.246	31469.43
534.447	31745.9
534.648	31723.38
534.849	31418.23
535.05	31412.09
535.251	31909.74
535.451	31569.78
535.652	31932.27
535.853	31553.4
536.054	32053.1
536.255	31766.38
536.456	31614.83
536.657	32001.9
536.857	31887.21
537.058	31537.01
537.259	31774.58
537.46	31946.61
537.66	31913.84
537.861	31989.61
538.062	31524.72
538.263	32155.5
538.463	31762.29
538.664	31803.25
538.865	31537.01
539.065	31797.1
539.266	31608.69
539.466	31870.83
539.667	31334.26
539.868	32143.21
540.068	31809.39
540.269	31586.16
540.469	32034.67
540.67	31600.5
540.87	31924.08
541.071	31940.46
541.271	31979.37
541.472	31709.04
541.672	31721.33
541.873	31432.57
542.073	31324.02
542.274	32085.87
542.474	31612.79
542.675	31244.15
542.875	31891.31
543.075	31868.78
543.276	31233.91
543.476	31919.98
543.676	31674.23
543.877	31952.75
544.077	31909.74
544.277	31397.75
544.478	31657.84
544.678	31836.02
544.878	31440.76
545.078	31319.93
545.279	31453.05
545.479	31469.43
545.679	31252.34
545.879	31512.44
546.079	31639.41
546.28	31514.48
546.48	31483.76
546.68	31709.04
546.88	31494
547.08	31410.04
547.28	31446.9
547.48	31391.61
547.68	31356.79
547.88	31487.86
548.081	31508.34
548.281	31348.6
548.481	31410.04
548.681	31661.94
548.881	31616.88
549.081	31369.08
549.28	31457.14
549.48	31412.09
549.68	31235.96
549.88	31766.38
550.08	31248.25
550.28	31297.4
550.48	31471.48
550.68	31434.61
550.88	31035.26
551.08	31254.39
551.279	31440.76
551.479	30951.29
551.679	31135.61
551.879	31264.63
552.079	31690.61
552.278	30998.4
552.478	31135.61
552.678	31604.6
552.878	31407.99
553.077	31086.46
553.277	31117.18
553.477	31446.9
553.676	31072.12
553.876	30957.44
554.076	31149.95
554.275	31037.31
554.475	30672.77
554.674	30867.33
554.874	31274.87
555.074	30703.49
555.273	31094.65
555.473	31268.73
555.672	30611.33
555.872	31215.48
556.071	30799.74
556.271	30715.78
556.47	30664.58
556.67	30578.56
556.869	30336.9
557.068	30580.61
557.268	30457.73
557.467	30640
557.667	30449.54
557.866	30455.68
558.065	30914.43
558.265	29939.6
558.464	30310.28
558.663	30957.44
558.863	30144.39
559.062	30781.31
559.261	30072.71
559.461	30660.48
559.66	30121.87
559.859	30140.3
560.058	29984.65
560.258	30347.14
560.457	29822.86
560.656	30324.61
560.855	29878.16
561.054	29976.46
561.253	29644.69
561.453	29841.29
561.652	30095.24
561.851	29892.49
562.05	29867.92
562.249	29527.95
562.448	29777.81
562.647	29433.75
562.846	29556.63
563.045	29638.55
563.244	29177.75
563.443	29738.9
563.642	29069.21
563.841	29556.63
564.04	29306.77
564.239	29257.62
564.438	29169.56
564.637	29345.69
564.836	29149.08
565.035	28825.5
565.234	29222.81
565.432	28923.8
565.631	28792.73
565.83	28716.96
566.029	28639.14
566.228	28237.73
566.427	28510.11
566.625	28362.66
566.824	28360.61
567.023	28454.82
567.222	27768.75
567.42	28669.86
567.619	28217.25
567.818	28209.06
568.016	28157.86
568.215	28293.03
568.414	27991.98
568.612	28583.84
568.811	27768.75
569.01	28059.56
569.208	27488.18
569.407	27918.25
569.605	27404.21
569.804	27621.3
570.002	27271.09
570.201	27170.74
570.4	27285.43
570.598	27064.25
570.797	27119.54
570.995	27312.05
571.193	26922.94
571.392	27217.85
571.59	26845.12
571.789	27035.58
571.987	26691.52
572.186	26564.54
572.384	26652.61
572.582	26712
572.781	26615.74
572.979	26335.17
573.177	26308.55
573.376	26599.36
573.574	26316.74
573.772	26445.76
573.971	26103.75
574.169	25917.39
574.367	25776.08
574.565	25853.9
574.763	26030.02
574.962	25397.2
575.16	25075.67
575.358	25483.22
575.556	25632.72
575.754	25718.73
575.952	25327.57
576.151	25458.64
576.349	25221.08
576.547	25014.23
576.745	25087.96
576.943	24944.6
577.141	24991.7
577.339	25192.4
577.537	24811.48
577.735	24823.77
577.933	24879.07
578.131	24922.07
578.329	24817.63
578.527	24307.68
578.725	24516.58
578.923	24584.16
579.121	24160.23
579.319	24661.98
579.516	24373.22
579.714	24276.96
579.912	24182.76
580.11	24141.8
580.308	24207.33
580.506	24023.01
580.704	23797.74
580.901	24027.11
581.099	24135.65
581.297	23820.27
581.495	23621.61
581.692	23904.23
581.89	23670.76
582.088	23826.41
582.285	23343.09
582.483	23474.16
582.681	23439.34
582.878	23316.47
583.076	23164.92
583.274	23212.02
583.471	22949.88
583.669	23201.78
583.866	22949.88
584.064	22874.1
584.262	22521.85
584.459	23042.04
584.657	22802.43
584.854	22808.57
585.052	22298.63
585.249	22624.25
585.447	22515.71
585.644	22501.37
585.841	22212.61
586.039	22267.91
586.236	22188.03
586.434	22077.44
586.631	21880.84
586.828	21991.43
587.026	21927.94
587.223	21782.54
587.42	21823.5
587.618	21809.16
587.815	21481.49
588.012	21803.02
588.21	21424.14
588.407	21663.75
588.604	21766.15
588.801	21458.96
588.999	21379.09
589.196	21108.76
589.393	21172.24
589.59	21205.01
589.787	20928.53
589.984	20934.68
590.182	20602.91
590.379	21057.56
590.576	20832.28
590.773	20897.81
590.97	20754.46
591.167	20852.76
591.364	20414.49
591.561	20766.74
591.758	20408.35
591.955	20355.1
592.152	20463.65
592.349	20351.01
592.546	19994.66
592.743	20473.88
592.94	19746.86
593.137	20226.08
593.334	20029.48
593.531	19886.12
593.727	19861.54
593.924	19961.89
594.121	19664.94
594.318	20019.24
594.515	19664.94
594.712	19769.38
594.908	19822.63
595.105	19712.04
595.302	19398.7
595.499	19480.62
595.696	19464.24
595.892	19230.77
596.089	19492.91
596.286	19396.65
596.482	19238.96
596.679	19021.88
596.876	18958.39
597.072	19042.35
597.269	18995.25
597.466	19124.27
597.662	18518.07
597.859	18829.37
598.055	18749.5
598.252	18542.65
598.448	18753.59
598.645	18319.42
598.841	18001.99
599.038	18473.02
599.234	18538.55
599.431	18358.33
599.627	18229.31
599.824	18235.46
600.02	18090.05
600.217	18247.74
600.413	18088
600.609	17940.55
600.806	17895.49
601.002	18055.23
601.198	17762.37
601.395	17588.3
601.591	17686.6
601.787	17426.51
601.984	17516.62
602.18	17596.49
602.376	17596.49
602.572	17651.78
602.769	17256.53
602.965	17137.74
603.161	17477.71
603.357	17100.88
603.553	17248.33
603.75	17354.83
603.946	17066.06
604.142	17209.42
604.338	16877.65
604.534	17076.3
604.73	16703.57
604.926	16889.94
605.122	16683.09
605.318	16697.43
605.514	16588.89
605.71	16887.89
605.906	16511.07
606.102	16736.34
606.298	16506.97
606.494	16470.11
606.69	16506.97
606.886	16578.65
607.082	16097.38
607.278	16615.51
607.474	16257.12
607.67	16132.19
607.866	15945.83
608.062	16253.02
608.257	16121.95
608.453	16152.67
608.649	16105.57
608.845	15810.66
609.041	15868
609.236	15829.09
609.432	15624.29
609.628	15825
609.824	15960.16
610.019	15728.74
610.215	15771.75
610.411	15732.84
610.606	15657.06
610.802	15532.14
610.998	15626.34
611.193	15564.9
611.389	15425.64
611.584	15396.97
611.78	15138.93
611.976	15452.27
612.171	15448.17
612.367	15444.07
612.562	15321.2
612.758	15237.23
612.953	15171.69
613.149	15327.34
613.344	15237.23
613.539	15317.1
613.735	15009.9
613.93	15102.06
614.126	14975.09
614.321	15022.19
614.517	14973.04
614.712	14946.42
614.907	14762.1
615.103	14915.7
615.298	14909.55
615.493	14860.4
615.688	14909.55
615.884	15167.6
616.079	14481.53
616.274	14938.23
616.47	14887.03
616.665	14649.46
616.86	14647.41
617.055	14715
617.25	14563.45
617.445	14598.26
617.641	14325.88
617.836	14502.01
618.031	14227.58
618.226	14354.55
618.421	14346.36
618.616	14362.75
618.811	14256.25
619.006	14401.66
619.201	14147.71
619.396	13850.75
619.591	13863.04
619.786	13971.58
619.981	13781.12
620.176	13965.44
620.371	13682.82
620.566	13781.12
620.761	13701.25
620.956	13709.44
621.151	13502.6
621.346	13695.11
621.541	13238.41
621.735	13213.84
621.93	13242.51
622.125	13230.22
622.32	13179.02
622.515	13013.13
622.709	13090.96
622.904	12943.5
623.099	12892.3
623.294	12951.7
623.488	12779.67
623.683	12712.08
623.878	12484.76
624.072	12490.9
624.267	12550.29
624.462	12503.19
624.656	12382.36
624.851	12413.08
625.046	12210.33
625.24	12253.34
625.435	11968.67
625.629	12091.55
625.824	11892.9
626.018	12107.93
626.213	11710.63
626.407	11827.36
626.602	11509.93
626.796	11724.96
626.991	11919.52
627.185	11608.23
627.38	11387.05
627.574	11360.42
627.768	11454.63
627.963	11098.28
628.157	11165.87
628.352	11321.51
628.546	11055.28
628.74	11221.16
628.935	11126.96
629.129	10897.58
629.323	10846.38
629.517	10774.7
629.712	10784.94
629.906	10723.51
630.1	10756.27
630.294	10727.6
630.489	10428.6
630.683	10692.79
630.877	10397.88
631.071	10551.48
631.265	10531
631.459	10328.25
631.653	10262.71
631.848	10358.97
632.042	10127.55
632.236	10105.02
632.43	9863.36
632.624	9834.69
632.818	9824.45
633.012	9865.41
633.206	9568.45
633.4	9912.51
633.594	9644.23
633.788	9818.3
633.982	9658.56
634.176	9552.07
634.369	9535.68
634.563	9404.61
634.757	9334.98
634.951	9418.95
635.145	9318.6
635.339	9289.93
635.533	9146.57
635.726	9183.43
635.92	9023.69
636.114	8984.78
636.308	9162.95
636.501	9019.6
636.695	9142.47
636.889	8962.25
637.083	8653.01
637.276	8937.68
637.47	8833.23
637.664	8435.92
637.857	8685.78
638.051	8726.74
638.244	8507.6
638.438	8577.23
638.632	8380.63
638.825	8444.12
639.019	8274.14
639.212	8405.21
639.406	8358.1
639.599	8425.68
639.793	8239.32
639.986	8102.11
640.18	7973.08
640.373	8110.3
640.567	8001.76
640.76	8018.14
640.954	7801.05
641.147	7815.39
641.34	7827.68
641.534	7909.6
641.727	7925.98
641.92	7913.69
642.114	7540.96
642.307	7659.74
642.5	7528.67
642.694	7411.94
642.887	7549.15
643.08	7561.44
643.273	7563.49
643.467	7241.96
643.66	7334.12
643.853	7356.65
644.046	7307.49
644.239	7327.97
644.432	7356.65
644.626	7102.7
644.819	7088.36
645.012	7157.99
645.205	6992.11
645.398	6992.11
645.591	7164.14
645.784	6873.32
645.977	6824.17
646.17	7004.39
646.363	6951.15
646.556	6740.21
646.749	6715.63
646.942	6848.75
647.135	6635.76
647.328	6543.6
647.521	6547.7
647.714	6486.26
647.907	6498.55
648.099	6570.23
648.292	6643.95
648.485	6414.58
648.678	6492.4
648.871	6328.56
649.064	6269.17
649.256	6213.88
649.449	6383.86
649.642	6332.66
649.835	6129.91
650.027	6185.21
650.22	6195.45
650.413	6021.37
650.605	6082.81
650.798	5945.59
650.991	6031.61
651.183	5918.97
651.376	6045.95
651.568	5792
651.761	5816.57
651.954	5892.35
652.146	5671.17
652.339	5751.04
652.531	5744.89
652.724	5734.65
652.916	5695.74
653.109	5742.85
653.301	5701.89
653.494	5658.88
653.686	5505.28
653.879	5695.74
654.071	5538.05
654.263	5497.09
654.456	5400.83
654.648	5593.34
654.84	5382.4
655.033	5425.41
655.225	5474.56
655.417	5452.03
655.61	5449.99
655.802	5290.24
655.994	5138.69
656.186	5349.64
656.379	5409.03
656.571	5241.09
656.763	5091.59
656.955	5165.32
657.148	5294.34
657.34	5163.27
657.532	4964.62
657.724	4987.15
657.916	5042.44
658.108	4913.42
658.3	4899.08
658.492	4999.43
658.684	4958.47
658.876	4845.84
659.068	4890.89
659.26	4874.51
659.452	4876.55
659.644	4739.34
659.836	4737.29
660.028	4741.39
660.22	4675.85
660.412	4540.69
660.604	4716.81
660.796	4612.37
660.988	4600.08
661.18	4489.49
661.372	4587.79
661.563	4436.24
661.755	4450.58
661.947	4497.68
662.139	4552.98
662.331	4370.71
662.522	4331.8
662.714	4370.71
662.906	4409.62
663.097	4317.46
663.289	4362.51
663.481	4251.92
663.673	4301.08
663.864	4272.4
664.056	4239.64
664.247	4389.14
664.439	4213.01
664.631	4202.77
664.822	4213.01
665.014	4176.15
665.205	4096.28
665.397	3987.74
665.588	4090.13
665.78	4155.67
665.971	4157.72
666.163	4038.94
666.354	4014.36
666.546	3981.59
666.737	4010.26
666.929	3934.49
667.12	3934.49
667.311	4086.04
667.503	3959.06
667.694	4051.22
667.885	3852.57
668.077	3737.88
668.268	3729.69
668.459	3768.6
668.651	3789.08
668.842	3649.82
669.033	3815.71
669.224	3662.11
669.416	3838.23
669.607	3660.06
669.798	3631.39
669.989	3842.33
670.18	3694.88
670.371	3670.3
670.563	3588.38
670.754	3750.17
670.945	3596.57
671.136	3711.26
671.327	3608.86
671.518	3574.05
671.709	3594.53
671.9	3680.54
672.091	3625.25
672.282	3432.74
672.473	3416.35
672.664	3477.79
672.855	3518.75
673.046	3410.21
673.237	3477.79
673.428	3574.05
673.619	3447.07
673.809	3418.4
674	3377.44
674.191	3516.7
674.382	3203.36
674.573	3412.26
674.764	3328.29
674.954	3385.63
675.145	3338.53
675.336	3244.32
675.527	3252.52
675.717	3305.76
675.908	3322.15
676.099	3281.19
676.289	3277.09
676.48	3123.49
676.671	3258.66
676.861	3203.36
677.052	3277.09
677.243	3125.54
677.433	3195.17
677.624	3094.82
677.814	3260.71
678.005	3260.71
678.195	3117.35
678.386	3273
678.576	3094.82
678.767	3096.87
678.957	3164.45
679.148	3152.17
679.338	3062.05
679.529	3049.77
679.719	3072.29
679.909	3158.31
680.1	3086.63
680.29	3121.45
680.481	3086.63
680.671	3109.16
680.861	2951.46
681.052	3082.53
681.242	3006.76
681.432	3014.95
681.622	3074.34
681.813	2988.33
682.003	3109.16
682.193	2971.94
682.383	3076.39
682.573	3107.11
682.764	2924.84
682.954	3033.38
683.144	2847.02
683.334	2965.8
683.524	3023.14
683.714	3076.39
683.904	3002.66
684.094	3023.14
684.284	2867.5
684.474	3041.57
684.664	2834.73
684.854	3017
685.044	3000.62
685.234	2847.02
685.424	2933.03
685.614	2998.57
685.804	2961.7
685.994	2933.03
686.184	2865.45
686.374	2875.69
686.564	3014.95
686.753	2777.39
686.943	2842.92
687.133	2736.43
687.323	2844.97
687.513	2904.36
687.702	2875.69
687.892	2801.96
688.082	2746.67
688.272	2750.76
688.461	2761
688.651	2822.44
688.841	2724.14
689.03	2683.18
689.22	2689.32
689.41	2754.86
689.599	2582.83
689.789	2670.89
689.979	2588.97
690.168	2695.47
690.358	2601.26
690.547	2660.65
690.737	2617.65
690.926	2562.35
691.116	2556.21
691.305	2685.23
691.495	2523.44
691.684	2535.73
691.874	2554.16
692.063	2564.4
692.252	2433.33
692.442	2449.71
692.631	2572.59
692.82	2605.36
693.01	2574.64
693.199	2423.09
693.388	2382.13
693.578	2492.72
693.767	2451.76
693.956	2466.1
694.146	2515.25
694.335	2457.9
694.524	2410.8
694.713	2433.33
694.902	2400.56
695.092	2437.42
695.281	2425.14
695.47	2439.47
695.659	2384.18
695.848	2416.94
696.037	2449.71
696.226	2371.89
696.415	2355.51
696.604	2341.17
696.793	2416.94
696.982	2396.46
697.171	2392.37
697.36	2351.41
697.549	2324.79
697.738	2218.29
697.927	2337.07
698.116	2441.52
698.305	2259.25
698.494	2380.08
698.683	2382.13
698.872	2306.35
699.061	2392.37
699.25	2394.42
699.438	2302.26
699.627	2416.94
699.816	2310.45
700.005	2349.36
700.193	2072.89
700.382	2265.39
700.571	2277.68
700.76	2228.53
700.948	2322.74
701.137	2249.01
701.326	2281.78
701.514	2203.96
701.703	2335.03
701.892	2236.72
702.08	2302.26
702.269	2281.78
702.457	2210.1
702.646	2236.72
702.834	2316.59
703.023	2269.49
703.212	2322.74
703.4	2263.35
703.589	2294.07
703.777	2220.34
703.965	2189.62
704.154	2326.83
704.342	2232.63
704.531	2281.78
704.719	2187.57
704.907	2265.39
705.096	2074.93
705.284	2173.24
705.472	2146.61
705.661	2255.15
705.849	2294.07
706.037	2287.92
706.226	2185.52
706.414	2312.5
706.602	2257.2
706.79	2292.02
706.979	2312.5
707.167	2126.13
707.355	2310.45
707.543	2206
707.731	2228.53
707.919	2257.2
708.107	2269.49
708.296	2154.8
708.484	2228.53
708.672	2165.04
708.86	2332.98
709.048	2281.78
709.236	2195.76
709.424	2261.3
709.612	2277.68
709.8	2345.27
709.988	2117.94
710.176	2244.92
710.364	2212.15
710.551	2251.06
710.739	2294.07
710.927	2146.61
711.115	2228.53
711.303	2191.67
711.491	2148.66
711.679	2089.27
711.866	2269.49
712.054	2339.12
712.242	2351.41
712.43	2287.92
712.617	2283.83
712.805	2171.19
712.993	2228.53
713.181	2083.13
713.368	2240.82
713.556	2253.11
713.744	2115.89
713.931	2273.59
714.119	2220.34
714.306	2240.82
714.494	2203.96
714.682	2253.11
714.869	2253.11
715.057	2244.92
715.244	2212.15
715.432	2179.38
715.619	2244.92
715.807	2253.11
715.994	2165.04
716.182	2287.92
716.369	2267.44
716.556	2210.1
716.744	2214.2
716.931	2214.2
717.119	2318.64
717.306	2253.11
717.493	2167.09
717.681	2203.96
717.868	2148.66
718.055	2242.87
718.242	2179.38
718.43	2242.87
718.617	2228.53
718.804	2304.31
718.991	2126.13
719.179	2136.37
719.366	2244.92
719.553	2249.01
719.74	2230.58
719.927	2271.54
720.114	2199.86
720.301	2220.34
720.488	2189.62
720.676	2226.48
720.863	2191.67
721.05	2222.39
721.237	2163
721.424	2101.56
721.611	2171.19
721.798	2242.87
721.985	2146.61
722.172	2224.44
722.358	2228.53
722.545	2216.24
722.732	2165.04
722.919	2189.62
723.106	2232.63
723.293	2193.72
723.48	2130.23
723.667	2109.75
723.853	2199.86
724.04	2132.28
724.227	2216.24
724.414	2259.25
724.6	2189.62
724.787	2230.58
724.974	2136.37
725.161	2238.77
725.347	2298.16
725.534	2322.74
725.72	2191.67
725.907	2292.02
726.094	2271.54
726.28	2025.78
726.467	2134.32
726.653	2154.8
726.84	2173.24
727.027	2314.55
727.213	2169.14
727.4	2169.14
727.586	2072.89
727.773	2265.39
727.959	2269.49
728.145	2212.15
728.332	2165.04
728.518	2173.24
728.705	2230.58
728.891	2167.09
729.077	2165.04
729.264	2132.28
729.45	2056.5
729.636	2195.76
729.823	2160.95
730.009	2263.35
730.195	2187.57
730.382	2238.77
730.568	2140.47
730.754	2236.72
730.94	2230.58
731.126	2181.43
731.313	2140.47
731.499	2158.9
731.685	2122.04
731.871	2107.7
732.057	2312.5
732.243	2165.04
732.429	2146.61
732.615	2197.81
732.801	2165.04
732.987	2134.32
733.173	2111.8
733.359	2187.57
733.545	2294.07
733.731	2208.05
733.917	2230.58
734.103	2154.8
734.289	2158.9
734.475	2158.9
734.661	2220.34
734.847	2199.86
735.033	2158.9
735.219	2206
735.404	2216.24
735.59	2124.08
735.776	2148.66
735.962	2130.23
736.148	2216.24
736.333	2206
736.519	2163
736.705	2089.27
736.89	2031.93
737.076	2130.23
737.262	2119.99
737.447	2105.65
737.633	2113.85
737.819	2130.23
738.004	2197.81
738.19	2236.72
738.375	2085.17
738.561	2163
738.747	2171.19
738.932	2033.97
739.118	2253.11
739.303	2087.22
739.489	2167.09
739.674	2146.61
739.859	2113.85
740.045	2054.45
740.23	2076.98
740.416	1962.3
740.601	2111.8
740.786	2076.98
740.972	1976.63
741.157	2019.64
741.342	2027.83
741.528	1911.1
741.713	1995.06
741.898	1927.48
742.084	2025.78
742.269	1909.05
742.454	2052.41
742.639	1988.92
742.824	1970.49
743.01	2064.69
743.195	1999.16
743.38	2003.25
743.565	1898.81
743.75	1880.38
743.935	1925.43
744.12	1900.86
744.305	1909.05
744.49	1909.05
744.675	1857.85
744.86	1933.62
745.045	1827.13
745.23	1960.25
745.415	1925.43
745.6	1866.04
745.785	1921.34
745.97	1868.09
746.155	1917.24
746.34	1886.52
746.525	1876.28
746.71	1845.56
746.895	1780.03
747.079	1847.61
747.264	1818.94
747.449	1804.6
747.634	1757.5
747.819	1765.69
748.003	1741.11
748.188	1734.97
748.373	1794.36
748.557	1743.16
748.742	1761.59
748.927	1741.11
749.111	1548.61
749.296	1640.76
749.481	1724.73
749.665	1610.04
749.85	1683.77
750.034	1614.14
750.219	1640.76
750.404	1642.81
750.588	1597.76
750.773	1538.37
750.957	1581.37
751.141	1591.61
751.326	1589.57
751.51	1524.03
751.695	1577.28
751.879	1589.57
752.064	1548.61
752.248	1501.5
752.432	1501.5
752.617	1515.84
752.801	1517.89
752.985	1534.27
753.17	1585.47
753.354	1481.02
753.538	1468.73
753.722	1397.06
753.907	1347.9
754.091	1360.19
754.275	1362.24
754.459	1343.81
754.643	1413.44
754.828	1370.43
755.012	1397.06
755.196	1214.79
755.38	1323.33
755.564	1366.34
755.748	1302.85
755.932	1329.47
756.116	1306.95
756.3	1171.78
756.484	1280.32
756.668	1290.56
756.852	1270.08
757.036	1296.71
757.22	1222.98
757.404	1194.31
757.588	1229.12
757.772	1280.32
757.956	1329.47
758.14	1233.22
758.323	1147.2
758.507	1114.44
758.691	1225.03
758.875	1073.48
759.059	1198.4
759.242	1179.97
759.426	1141.06
759.61	1179.97
759.794	1067.33
759.977	1175.88
760.161	1229.12
760.345	1175.88
760.528	1155.4
760.712	1102.15
760.895	1071.43
761.079	1065.29
761.263	1012.04
761.446	1053
761.63	1016.13
761.813	1122.63
761.997	1040.71
762.18	1050.95
762.364	938.31
762.547	999.75
762.731	1077.57
762.914	1009.99
763.098	1034.57
763.281	1118.53
763.464	1050.95
763.648	1079.62
763.831	1038.66
764.015	903.5
764.198	1032.52
764.381	1018.18
764.564	944.45
764.748	991.56
764.931	962.89
765.114	1016.13
765.297	952.65
765.481	995.65
765.664	938.31
765.847	1026.37
766.03	921.93
766.213	934.22
766.397	956.74
766.58	950.6
766.763	909.64
766.946	831.82
767.129	926.02
767.312	956.74
767.495	897.35
767.678	915.78
767.861	973.13
768.044	858.44
768.227	852.3
768.41	969.03
768.593	883.02
768.776	903.5
768.959	880.97
769.142	872.78
769.324	848.2
769.507	1024.33
769.69	942.41
769.873	823.62
770.056	876.87
770.239	819.53
770.421	901.45
770.604	803.15
770.787	805.19
770.97	762.19
771.152	756.04
771.335	803.15
771.518	708.94
771.7	917.83
771.883	858.44
772.066	729.42
772.248	846.15
772.431	846.15
772.613	811.34
772.796	762.19
772.978	891.21
773.161	735.56
773.343	774.47
773.526	704.84
773.708	770.38
773.891	655.69
774.073	811.34
774.256	706.89
774.438	868.68
774.621	807.24
774.803	747.85
774.985	772.43
775.168	700.75
775.35	731.47
775.532	764.23
775.715	713.03
775.897	739.66
776.079	753.99
776.261	647.5
776.444	629.07
776.626	717.13
776.808	702.79
776.99	614.73
777.173	641.36
777.355	610.64
777.537	622.92
777.719	700.75
777.901	688.46
778.083	555.34
778.265	584.01
778.447	586.06
778.629	586.06
778.811	629.07
778.993	631.12
779.175	686.41
779.357	602.44
779.539	624.97
779.721	674.12
779.903	635.21
780.085	639.31
780.267	674.12
780.449	594.25
780.631	610.64
780.812	659.79
780.994	543.05
781.176	602.44
781.358	631.12
781.54	534.86
781.721	545.1
781.903	530.77
782.085	516.43
782.267	520.53
782.448	541.01
782.63	512.33
782.812	516.43
782.993	512.33
783.175	475.47
783.357	434.51
783.538	543.05
783.72	502.09
783.901	487.76
784.083	536.91
784.264	487.76
784.446	444.75
784.627	424.27
784.809	516.43
784.99	409.94
785.172	366.93
785.353	524.62
785.535	414.03
785.716	450.89
785.897	461.13
786.079	469.33
786.26	420.17
786.441	471.37
786.623	358.74
786.804	414.03
786.985	454.99
787.167	407.89
787.348	420.17
787.529	426.32
787.71	450.89
787.891	508.24
788.073	387.41
788.254	426.32
788.435	414.03
788.616	358.74
788.797	328.02
788.978	403.79
789.159	387.41
789.34	360.78
789.522	328.02
789.703	344.4
789.884	399.7
790.065	338.26
790.246	381.26
790.427	330.06
790.607	387.41
790.788	397.65
790.969	270.67
791.15	303.44
791.331	311.63
791.512	352.59
791.693	393.55
791.874	338.26
792.054	373.07
792.235	360.78
792.416	332.11
792.597	332.11
792.778	282.96
792.958	313.68
793.139	389.46
793.32	379.22
793.5	315.73
793.681	375.12
793.862	278.87
794.042	272.72
794.223	295.25
794.404	278.87
794.584	233.81
794.765	301.39
794.945	291.15
795.126	409.94
795.306	313.68
795.487	330.06
795.667	338.26
795.848	295.25
796.028	293.2
796.209	313.68
796.389	315.73
796.57	264.53
796.75	188.75
796.93	309.58
797.111	254.29
797.291	262.48
797.471	289.1
797.652	323.92
797.832	344.4
798.012	315.73
798.192	262.48
798.373	282.96
798.553	248.15
798.733	289.1
798.913	233.81
799.093	194.9
799.274	287.06
799.454	246.1
799.634	342.35
799.814	344.4
799.994	209.23
800.174	229.71
800.354	264.53
800.534	217.43
800.714	270.67
800.894	201.04
801.074	198.99
801.254	219.47
801.434	264.53
801.614	207.19
801.794	233.81
801.974	651.6
802.154	192.85
802.334	203.09
802.514	174.42
802.693	287.06
802.873	270.67
803.053	262.48
803.233	246.1
803.413	272.72
803.592	231.76
803.772	172.37
803.952	176.47
804.131	160.08
804.311	287.06
804.491	201.04
804.67	190.8
804.85	213.33
805.03	258.39
805.209	246.1
805.389	166.23
805.568	196.95
805.748	174.42
805.928	219.47
806.107	168.27
806.287	221.52
806.466	231.76
806.646	192.85
806.825	153.94
807.004	256.34
807.184	246.1
807.363	198.99
807.543	180.56
807.722	164.18
807.901	250.19
808.081	139.6
808.26	182.61
808.439	289.1
808.619	188.75
808.798	149.84
808.977	233.81
809.156	209.23
809.336	182.61
809.515	194.9
809.694	164.18
809.873	102.74
810.052	196.95
810.231	223.57
810.411	127.32
810.59	139.6
810.769	100.69
810.948	172.37
811.127	143.7
811.306	139.6
811.485	158.03
811.664	207.19
811.843	198.99
812.022	158.03
812.201	123.22
812.38	164.18
812.559	106.84
812.737	131.41
812.916	166.23
813.095	182.61
813.274	194.9
813.453	133.46
813.632	198.99
813.811	211.28
813.989	131.41
814.168	168.27
814.347	57.68
814.526	160.08
814.704	221.52
814.883	182.61
815.062	190.8
815.24	242
815.419	213.33
815.598	141.65
815.776	90.45
815.955	164.18
816.133	24.92
816.312	176.47
816.49	106.84
816.669	170.32
816.847	176.47
817.026	155.99
817.204	119.12
817.383	131.41
817.561	196.95
817.74	158.03
817.918	65.88
818.097	141.65
818.275	100.69
818.453	137.56
818.632	80.21
818.81	86.36
818.988	74.07
819.167	131.41
819.345	147.8
819.523	155.99
819.701	135.51
819.879	182.61
820.058	112.98
820.236	180.56
820.414	65.88
820.592	164.18
820.77	125.27
820.948	106.84
821.127	92.5
821.305	176.47
821.483	90.45
821.661	74.07
821.839	80.21
822.017	162.13
822.195	133.46
822.373	76.12
822.551	98.64
822.729	137.56
822.907	41.3
823.085	158.03
823.262	37.2
823.44	108.88
823.618	98.64
823.796	131.41
823.974	78.16
824.152	59.73
824.329	106.84
824.507	133.46
824.685	123.22
824.863	106.84
825.04	106.84
825.218	145.75
825.396	35.16
825.574	141.65
825.751	160.08
825.929	127.32
826.107	74.07
826.284	102.74
826.462	139.6
826.639	65.88
826.817	35.16
826.994	69.97
827.172	67.92
827.349	155.99
827.527	76.12
827.704	86.36
827.882	102.74
828.059	61.78
828.237	115.03
828.414	125.27
828.591	20.82
828.769	41.3
828.946	65.88
829.124	106.84
829.301	131.41
829.478	100.69
829.655	135.51
829.833	139.6
830.01	20.82
830.187	108.88
830.364	67.92
830.542	180.56
830.719	45.4
830.896	127.32
831.073	63.83
831.25	65.88
831.427	104.79
831.604	74.07
831.782	96.6
831.959	164.18
832.136	80.21
832.313	106.84
832.49	98.64
832.667	33.11
832.844	-5.8
833.021	90.45
833.198	106.84
833.374	90.45
833.551	65.88
833.728	43.35
833.905	137.56
834.082	8.53
834.259	86.36
834.436	215.38
834.612	112.98
834.789	65.88
834.966	55.64
835.143	45.4
835.319	65.88
835.496	151.89
835.673	33.11
835.85	82.26
836.026	98.64
836.203	82.26
836.38	123.22
836.556	74.07
836.733	33.11
836.909	151.89
837.086	18.77
837.262	-3.75
837.439	24.92
837.616	51.54
837.792	155.99
837.968	90.45
838.145	51.54
838.321	8.53
838.498	41.3
838.674	104.79
838.851	49.49
839.027	94.55
839.203	76.12
839.38	61.78
839.556	131.41
839.732	-20.14
839.909	119.12
840.085	106.84
840.261	-13.99
840.437	33.11
840.614	106.84
840.79	108.88
840.966	100.69
841.142	-36.52
841.318	74.07
841.494	24.92
841.671	106.84
841.847	33.11
842.023	18.77
842.199	80.21
842.375	115.03
842.551	57.68
842.727	20.82
842.903	117.08
843.079	82.26
843.255	51.54
843.431	57.68
843.607	84.31
843.783	-1.71
843.959	98.64
844.134	39.25
844.31	84.31
844.486	78.16
844.662	37.2
844.838	-13.99
845.013	88.4
845.189	57.68
845.365	20.82
845.541	76.12
845.716	123.22
845.892	117.08
846.068	10.58
846.244	12.63
846.419	139.6
846.595	16.73
846.77	33.11
846.946	147.8
847.122	45.4
847.297	16.73
847.473	155.99
847.648	41.3
847.824	45.4
847.999	41.3
848.175	65.88
848.35	8.53
848.526	49.49
848.701	98.64
848.876	139.6
849.052	37.2
849.227	92.5
849.403	20.82
849.578	72.02
849.753	84.31
849.929	41.3
850.104	24.92
850.279	18.77
850.454	76.12
850.63	78.16
850.805	-9.9
850.98	90.45
851.155	-28.33
851.33	74.07
851.505	-40.62
851.681	-3.75
851.856	24.92
852.031	90.45
852.206	82.26
852.381	-5.8
852.556	57.68
852.731	98.64
852.906	49.49
853.081	74.07
853.256	123.22
853.431	137.56
853.606	39.25
853.781	41.3
853.956	-48.81
854.131	14.68
854.305	37.2
854.48	24.92
854.655	45.4
854.83	26.96
855.005	39.25
855.18	37.2
855.354	37.2
855.529	76.12
855.704	-1.71
855.879	78.16
856.053	2.39
856.228	-5.8
856.403	55.64
856.577	-1.71
856.752	18.77
856.926	49.49
857.101	18.77
857.276	55.64
857.45	67.92
857.625	96.6
857.799	0.34
857.974	49.49
858.148	-38.57
858.323	102.74
858.497	92.5
858.672	-13.99
858.846	-22.19
859.02	98.64
859.195	-44.71
859.369	67.92
859.543	65.88
859.718	35.16
859.892	43.35
860.066	26.96
860.241	35.16
860.415	100.69
860.589	90.45
860.763	100.69
860.938	78.16
861.112	33.11
861.286	29.01
861.46	123.22
861.634	8.53
861.808	65.88
861.982	-5.8
862.157	4.44
862.331	41.3
862.505	47.44
862.679	16.73
862.853	90.45
863.027	53.59
863.201	37.2
863.375	74.07
863.549	100.69
863.722	2.39
863.896	0.34
864.07	6.49
864.244	65.88
864.418	8.53
864.592	158.03
864.766	8.53
864.939	49.49
865.113	47.44
865.287	24.92
865.461	16.73
865.634	24.92
865.808	24.92
865.982	-3.75
866.156	65.88
866.329	12.63
866.503	-3.75
866.676	22.87
866.85	-20.14
867.024	90.45
867.197	37.2
867.371	174.42
867.544	57.68
867.718	16.73
867.891	-3.75
868.065	-7.85
868.238	-3.75
868.412	121.17
868.585	63.83
868.759	10.58
868.932	14.68
869.105	24.92
869.279	117.08
869.452	6.49
869.625	49.49
869.799	26.96
869.972	49.49
870.145	-61.1
870.319	4.44
870.492	35.16
870.665	49.49
870.838	8.53
871.011	-44.71
871.185	8.53
871.358	-13.99
871.531	61.78
871.704	29.01
871.877	33.11
872.05	24.92
872.223	-28.33
872.396	102.74
872.569	12.63
872.742	-67.24
872.915	104.79
873.088	41.3
873.261	24.92
873.434	33.11
873.607	-24.23
873.78	-52.91
873.953	8.53
874.126	-24.23
874.299	45.4
874.471	45.4
874.644	41.3
874.817	57.68
874.99	74.07
875.163	8.53
875.335	78.16
875.508	24.92
875.681	24.92
875.853	6.49
876.026	-18.09
876.199	65.88
876.371	2.39
876.544	33.11
876.717	10.58
876.889	67.92
877.062	74.07
877.234	8.53
877.407	59.73
877.579	59.73
877.752	29.01
877.924	6.49
878.097	12.63
878.269	53.59
878.442	-40.62
878.614	41.3
878.786	-22.19
878.959	39.25
879.131	41.3
879.303	0.34
879.476	41.3
879.648	61.78
879.82	26.96
879.993	2.39
880.165	69.97
880.337	-57
880.509	26.96
880.681	16.73
880.854	20.82
881.026	8.53
881.198	20.82
881.37	-20.14
881.542	74.07
881.714	4.44
881.886	0.34
882.058	53.59
882.23	8.53
882.402	18.77
882.574	-7.85
882.746	-32.43
882.918	86.36
883.09	74.07
883.262	16.73
883.434	78.16
883.606	0.34
883.778	10.58
883.95	-3.75
884.122	12.63
884.293	74.07
884.465	-20.14
884.637	-32.43
884.809	16.73
884.98	43.35
885.152	33.11
885.324	18.77
885.496	-63.15
885.667	0.34
885.839	-13.99
886.011	90.45
886.182	51.54
886.354	86.36
886.525	18.77
886.697	18.77
886.869	33.11
887.04	69.97
887.212	86.36
887.383	35.16
887.555	29.01
887.726	8.53
887.897	-40.62
888.069	65.88
888.24	35.16
888.412	65.88
888.583	20.82
888.754	117.08
888.926	12.63
889.097	-40.62
889.268	53.59
889.44	18.77
889.611	-54.95
889.782	-13.99
889.953	43.35
890.125	51.54
890.296	33.11
890.467	16.73
890.638	59.73
890.809	0.34
890.98	18.77
891.151	12.63
891.323	74.07
891.494	-24.23
891.665	-46.76
891.836	61.78
892.007	61.78
892.178	-3.75
892.349	90.45
892.52	61.78
892.691	74.07
892.862	47.44
893.032	-16.04
893.203	8.53
893.374	26.96
893.545	26.96
893.716	-18.09
893.887	90.45
894.057	-5.8
894.228	16.73
894.399	-34.47
894.57	12.63
894.74	35.16
894.911	-3.75
895.082	-1.71
895.253	47.44
895.423	-32.43
895.594	41.3
895.764	-7.85
895.935	-20.14
896.106	-3.75
896.276	-44.71
896.447	4.44
896.617	67.92
896.788	26.96
896.958	-44.71
897.129	-24.23
897.299	57.68
897.47	51.54
897.64	33.11
897.81	24.92
897.981	57.68
898.151	-7.85
898.322	29.01
898.492	59.73
898.662	0.34
898.832	41.3
899.003	37.2
899.173	35.16
899.343	29.01
899.513	-32.43
