Data from USB4F104151__281__14-46-21-975.txt Node

Date: Thu Mar 13 14:46:21 EDT 2025
User: louis
Spectrometer: USB4F10415
Trigger mode: 4
Integration Time (sec): 2.000000E-2
Scans to average: 1
Electric dark correction enabled: true
Nonlinearity correction enabled: false
Boxcar width: 0
XAxis mode: Wavelengths
Number of Pixels in Spectrum: 3648
>>>>>Begin Spectral Data<<<<<
178.204	-122.88
178.424	-122.88
178.644	-122.88
178.864	-141.31
179.084	-124.93
179.304	6.14
179.524	-10.24
179.744	-51.2
179.964	49.15
180.184	49.15
180.404	-34.82
180.624	-32.77
180.844	8.19
181.064	6.14
181.283	20.48
181.503	28.67
181.723	-38.91
181.943	-22.53
182.163	96.25
182.383	-26.62
182.602	53.25
182.822	38.91
183.042	67.58
183.262	28.67
183.482	26.62
183.701	-16.38
183.921	12.29
184.141	-49.15
184.361	-32.77
184.58	-75.77
184.8	61.44
185.02	-81.92
185.239	24.58
185.459	-12.29
185.679	57.34
185.898	-4.1
186.118	61.44
186.338	-14.34
186.557	55.3
186.777	40.96
186.997	-20.48
187.216	-43.01
187.436	36.86
187.655	45.06
187.875	-10.24
188.095	45.06
188.314	94.21
188.534	51.2
188.753	22.53
188.973	4.1
189.192	-4.1
189.412	2.05
189.631	16.38
189.851	0
190.07	36.86
190.29	-10.24
190.509	-61.44
190.729	36.86
190.948	-28.67
191.168	159.74
191.387	79.87
191.607	10.24
191.826	-12.29
192.045	-61.44
192.265	-34.82
192.484	16.38
192.704	32.77
192.923	-77.82
193.142	30.72
193.362	-6.14
193.581	96.25
193.8	-45.06
194.02	-20.48
194.239	26.62
194.458	16.38
194.678	-8.19
194.897	10.24
195.116	40.96
195.335	118.78
195.555	30.72
195.774	6.14
195.993	30.72
196.212	-45.06
196.432	40.96
196.651	30.72
196.87	26.62
197.089	159.74
197.308	88.06
197.528	20.48
197.747	-32.77
197.966	0
198.185	34.82
198.404	6.14
198.623	32.77
198.842	49.15
199.062	28.67
199.281	20.48
199.5	20.48
199.719	12.29
199.938	57.34
200.157	106.49
200.376	45.06
200.595	40.96
200.814	55.3
201.033	38.91
201.252	32.77
201.471	16.38
201.69	45.06
201.909	57.34
202.128	57.34
202.347	69.63
202.566	-51.2
202.785	10.24
203.004	69.63
203.223	114.69
203.442	-61.44
203.661	-20.48
203.879	0
204.098	96.25
204.317	55.3
204.536	55.3
204.755	65.54
204.974	36.86
205.193	4.1
205.411	118.78
205.63	102.4
205.849	49.15
206.068	38.91
206.287	-26.62
206.505	28.67
206.724	-4.1
206.943	-28.67
207.162	0
207.381	36.86
207.599	14.34
207.818	-18.43
208.037	43.01
208.255	28.67
208.474	43.01
208.693	-4.1
208.911	14.34
209.13	47.1
209.349	20.48
209.567	2.05
209.786	69.63
210.005	14.34
210.223	63.49
210.442	-32.77
210.661	-28.67
210.879	40.96
211.098	24.58
211.316	12.29
211.535	6.14
211.753	20.48
211.972	57.34
212.191	24.58
212.409	83.97
212.628	104.45
212.846	28.67
213.065	6.14
213.283	4.1
213.502	65.54
213.72	61.44
213.938	16.38
214.157	40.96
214.375	73.73
214.594	45.06
214.812	-34.82
215.031	-61.44
215.249	4.1
215.467	4.1
215.686	-69.63
215.904	30.72
216.122	6.14
216.341	77.82
216.559	30.72
216.778	53.25
216.996	-16.38
217.214	4.1
217.432	-36.86
217.651	4.1
217.869	-20.48
218.087	55.3
218.306	73.73
218.524	12.29
218.742	8.19
218.96	-12.29
219.179	-14.34
219.397	69.63
219.615	49.15
219.833	73.73
220.051	38.91
220.27	6.14
220.488	40.96
220.706	45.06
220.924	38.91
221.142	32.77
221.36	43.01
221.578	-22.53
221.796	-65.53
222.015	-30.72
222.233	-22.53
222.451	71.68
222.669	28.67
222.887	118.78
223.105	-61.44
223.323	-69.63
223.541	-40.96
223.759	-20.48
223.977	-24.58
224.195	-4.1
224.413	40.96
224.631	10.24
224.849	53.25
225.067	77.82
225.285	28.67
225.503	-61.44
225.721	-26.62
225.939	94.21
226.157	20.48
226.375	55.3
226.592	20.48
226.81	12.29
227.028	36.86
227.246	38.91
227.464	-2.05
227.682	45.06
227.9	98.3
228.117	-4.1
228.335	36.86
228.553	129.02
228.771	53.25
228.989	20.48
229.206	-2.05
229.424	22.53
229.642	-28.67
229.86	-4.1
230.077	49.15
230.295	36.86
230.513	36.86
230.731	53.25
230.948	10.24
231.166	-20.48
231.384	12.29
231.601	-8.19
231.819	61.44
232.037	-49.15
232.254	-40.96
232.472	83.97
232.689	45.06
232.907	47.1
233.125	32.77
233.342	8.19
233.56	-61.44
233.777	16.38
233.995	32.77
234.213	4.1
234.43	0
234.648	-49.15
234.865	-34.82
235.083	94.21
235.3	-36.86
235.518	28.67
235.735	69.63
235.953	81.92
236.17	38.91
236.388	75.77
236.605	45.06
236.822	69.63
237.04	4.1
237.257	-73.73
237.475	-30.72
237.692	77.82
237.909	122.88
238.127	-4.1
238.344	6.14
238.562	40.96
238.779	20.48
238.996	30.72
239.214	-4.1
239.431	47.1
239.648	-94.21
239.865	61.44
240.083	77.82
240.3	20.48
240.517	65.54
240.735	53.25
240.952	88.06
241.169	30.72
241.386	75.77
241.603	-30.72
241.821	-14.34
242.038	34.82
242.255	-12.29
242.472	4.1
242.689	-26.62
242.907	14.34
243.124	51.2
243.341	79.87
243.558	8.19
243.775	49.15
243.992	-30.72
244.209	73.73
244.426	20.48
244.643	47.1
244.86	0
245.078	-4.1
245.295	63.49
245.512	12.29
245.729	24.58
245.946	-32.77
246.163	18.43
246.38	16.38
246.597	63.49
246.814	36.86
247.031	32.77
247.248	-4.1
247.464	-12.29
247.681	-45.06
247.898	38.91
248.115	38.91
248.332	0
248.549	49.15
248.766	22.53
248.983	12.29
249.2	26.62
249.417	-2.05
249.633	-32.77
249.85	-36.86
250.067	-30.72
250.284	34.82
250.501	-77.82
250.717	-32.77
250.934	8.19
251.151	-32.77
251.368	28.67
251.585	149.5
251.801	-40.96
252.018	61.44
252.235	112.64
252.451	-26.62
252.668	-10.24
252.885	-22.53
253.102	40.96
253.318	12.29
253.535	-28.67
253.752	2.05
253.968	63.49
254.185	-2.05
254.401	16.38
254.618	53.25
254.835	-40.96
255.051	77.82
255.268	28.67
255.484	69.63
255.701	18.43
255.917	55.3
256.134	-2.05
256.351	22.53
256.567	-28.67
256.784	12.29
257	-20.48
257.217	36.86
257.433	20.48
257.65	-4.1
257.866	-12.29
258.082	6.14
258.299	-28.67
258.515	83.97
258.732	-53.25
258.948	-18.43
259.165	-4.1
259.381	20.48
259.597	-4.1
259.814	32.77
260.03	-16.38
260.246	18.43
260.463	59.39
260.679	45.06
260.895	-45.06
261.112	28.67
261.328	-59.39
261.544	-45.06
261.761	-22.53
261.977	6.14
262.193	8.19
262.409	4.1
262.626	22.53
262.842	0
263.058	-45.06
263.274	77.82
263.49	22.53
263.707	63.49
263.923	49.15
264.139	32.77
264.355	-12.29
264.571	90.11
264.787	49.15
265.004	61.44
265.22	96.25
265.436	-10.24
265.652	-2.05
265.868	20.48
266.084	45.06
266.3	53.25
266.516	32.77
266.732	55.3
266.948	49.15
267.164	112.64
267.38	30.72
267.596	6.14
267.812	137.21
268.028	-16.38
268.244	14.34
268.46	81.92
268.676	-10.24
268.892	2.05
269.108	6.14
269.324	20.48
269.54	57.34
269.756	104.45
269.972	24.58
270.188	-34.82
270.403	20.48
270.619	55.3
270.835	20.48
271.051	77.82
271.267	-57.34
271.483	-45.06
271.698	14.34
271.914	65.54
272.13	-20.48
272.346	30.72
272.562	20.48
272.777	-2.05
272.993	-16.38
273.209	-20.48
273.425	73.73
273.64	-43.01
273.856	53.25
274.072	-2.05
274.287	69.63
274.503	-20.48
274.719	102.4
274.934	49.15
275.15	36.86
275.366	-4.1
275.581	59.39
275.797	61.44
276.012	-10.24
276.228	-12.29
276.444	14.34
276.659	-12.29
276.875	-36.86
277.09	32.77
277.306	79.87
277.521	86.01
277.737	-28.67
277.952	22.53
278.168	28.67
278.383	10.24
278.599	-26.62
278.814	75.77
279.03	12.29
279.245	22.53
279.461	61.44
279.676	51.2
279.892	12.29
280.107	10.24
280.322	16.38
280.538	83.97
280.753	6.14
280.969	81.92
281.184	16.38
281.399	28.67
281.615	-2.05
281.83	104.45
282.045	-40.96
282.26	-69.63
282.476	24.58
282.691	45.06
282.906	-16.38
283.122	45.06
283.337	49.15
283.552	92.16
283.767	28.67
283.983	-20.48
284.198	8.19
284.413	159.74
284.628	32.77
284.843	8.19
285.058	45.06
285.274	2.05
285.489	4.1
285.704	88.06
285.919	43.01
286.134	86.01
286.349	47.1
286.564	-18.43
286.779	34.82
286.995	30.72
287.21	-36.86
287.425	38.91
287.64	20.48
287.855	-12.29
288.07	28.67
288.285	-6.14
288.5	30.72
288.715	79.87
288.93	-63.49
289.145	26.62
289.36	55.3
289.575	-2.05
289.79	55.3
290.004	36.86
290.219	86.01
290.434	8.19
290.649	47.1
290.864	-38.91
291.079	-16.38
291.294	-2.05
291.509	28.67
291.724	36.86
291.938	63.49
292.153	143.36
292.368	36.86
292.583	45.06
292.798	53.25
293.012	14.34
293.227	-16.38
293.442	45.06
293.657	30.72
293.871	69.63
294.086	40.96
294.301	20.48
294.516	126.97
294.73	63.49
294.945	-24.58
295.16	53.25
295.374	16.38
295.589	110.59
295.804	-4.1
296.018	-18.43
296.233	131.07
296.447	36.86
296.662	45.06
296.877	53.25
297.091	94.21
297.306	49.15
297.52	20.48
297.735	61.44
297.949	-2.05
298.164	36.86
298.378	-30.72
298.593	-16.38
298.807	36.86
299.022	12.29
299.236	55.3
299.451	55.3
299.665	16.38
299.88	-28.67
300.094	6.14
300.309	38.91
300.523	47.1
300.737	20.48
300.952	30.72
301.166	-83.97
301.381	16.38
301.595	-36.86
301.809	67.58
302.024	12.29
302.238	-59.39
302.452	20.48
302.667	24.58
302.881	124.93
303.095	124.93
303.309	-43.01
303.524	32.77
303.738	45.06
303.952	-18.43
304.166	-51.2
304.381	-43.01
304.595	30.72
304.809	53.25
305.023	-45.06
305.237	-32.77
305.452	36.86
305.666	26.62
305.88	-53.25
306.094	47.1
306.308	53.25
306.522	-8.19
306.736	49.15
306.95	12.29
307.164	63.49
307.379	-34.82
307.593	69.63
307.807	14.34
308.021	-22.53
308.235	49.15
308.449	-34.82
308.663	57.34
308.877	86.01
309.091	14.34
309.305	110.59
309.519	-28.67
309.733	45.06
309.947	-4.1
310.161	63.49
310.374	6.14
310.588	81.92
310.802	32.77
311.016	20.48
311.23	47.1
311.444	4.1
311.658	40.96
311.872	40.96
312.085	28.67
312.299	57.34
312.513	114.69
312.727	57.34
312.941	-43.01
313.154	69.63
313.368	16.38
313.582	-36.86
313.796	-16.38
314.009	-47.1
314.223	-20.48
314.437	10.24
314.651	22.53
314.864	-4.1
315.078	-12.29
315.292	8.19
315.505	59.39
315.719	-2.05
315.933	65.54
316.146	-12.29
316.36	86.01
316.573	67.58
316.787	45.06
317.001	-16.38
317.214	36.86
317.428	-2.05
317.641	45.06
317.855	61.44
318.068	20.48
318.282	-53.25
318.495	30.72
318.709	67.58
318.922	22.53
319.136	110.59
319.349	22.53
319.563	16.38
319.776	73.73
319.99	-16.38
320.203	53.25
320.417	45.06
320.63	26.62
320.843	28.67
321.057	45.06
321.27	43.01
321.483	94.21
321.697	69.63
321.91	63.49
322.124	102.4
322.337	-12.29
322.55	0
322.763	-10.24
322.977	133.12
323.19	-43.01
323.403	94.21
323.617	-2.05
323.83	24.58
324.043	61.44
324.256	22.53
324.469	-22.53
324.683	61.44
324.896	-61.44
325.109	110.59
325.322	-4.1
325.535	28.67
325.748	32.77
325.962	63.49
326.175	90.11
326.388	36.86
326.601	-10.24
326.814	12.29
327.027	32.77
327.24	71.68
327.453	-24.58
327.666	81.92
327.879	20.48
328.092	77.82
328.305	-34.82
328.518	43.01
328.731	-36.86
328.944	20.48
329.157	90.11
329.37	10.24
329.583	36.86
329.796	106.49
330.009	-26.62
330.222	77.82
330.435	-10.24
330.648	4.1
330.861	16.38
331.073	45.06
331.286	22.53
331.499	38.91
331.712	57.34
331.925	16.38
332.138	22.53
332.35	98.3
332.563	-2.05
332.776	8.19
332.989	-26.62
333.202	4.1
333.414	30.72
333.627	22.53
333.84	38.91
334.053	-28.67
334.265	20.48
334.478	6.14
334.691	32.77
334.903	22.53
335.116	49.15
335.329	20.48
335.541	12.29
335.754	34.82
335.966	20.48
336.179	20.48
336.392	-22.53
336.604	45.06
336.817	45.06
337.029	-14.34
337.242	-2.05
337.454	53.25
337.667	-12.29
337.88	61.44
338.092	104.45
338.305	96.25
338.517	16.38
338.729	77.82
338.942	61.44
339.154	-18.43
339.367	10.24
339.579	28.67
339.792	-4.1
340.004	61.44
340.217	4.1
340.429	49.15
340.641	36.86
340.854	53.25
341.066	-24.58
341.278	63.49
341.491	102.4
341.703	-22.53
341.915	4.1
342.128	55.3
342.34	-28.67
342.552	4.1
342.764	2.05
342.977	22.53
343.189	69.63
343.401	77.82
343.613	-4.1
343.826	79.87
344.038	63.49
344.25	28.67
344.462	-12.29
344.674	24.58
344.886	63.49
345.099	104.45
345.311	30.72
345.523	47.1
345.735	-18.43
345.947	86.01
346.159	51.2
346.371	-8.19
346.583	6.14
346.795	104.45
347.007	45.06
347.219	32.77
347.431	104.45
347.643	63.49
347.855	32.77
348.067	98.3
348.279	-22.53
348.491	63.49
348.703	43.01
348.915	28.67
349.127	14.34
349.339	104.45
349.551	22.53
349.763	32.77
349.975	28.67
350.187	2.05
350.399	8.19
350.61	-4.1
350.822	100.35
351.034	12.29
351.246	45.06
351.458	20.48
351.669	86.01
351.881	28.67
352.093	69.63
352.305	71.68
352.517	38.91
352.728	77.82
352.94	12.29
353.152	61.44
353.363	-28.67
353.575	88.06
353.787	10.24
353.999	18.43
354.21	69.63
354.422	-24.58
354.633	61.44
354.845	83.97
355.057	63.49
355.268	69.63
355.48	-20.48
355.692	38.91
355.903	-20.48
356.115	61.44
356.326	-24.58
356.538	43.01
356.749	4.1
356.961	20.48
357.172	30.72
357.384	32.77
357.595	20.48
357.807	20.48
358.018	-8.19
358.23	43.01
358.441	69.63
358.653	45.06
358.864	20.48
359.075	28.67
359.287	0
359.498	22.53
359.709	59.39
359.921	16.38
360.132	94.21
360.344	65.54
360.555	-4.1
360.766	-8.19
360.977	94.21
361.189	116.73
361.4	36.86
361.611	34.82
361.823	67.58
362.034	32.77
362.245	20.48
362.456	-10.24
362.667	67.58
362.879	51.2
363.09	81.92
363.301	57.34
363.512	55.3
363.723	8.19
363.935	106.49
364.146	53.25
364.357	77.82
364.568	16.38
364.779	-43.01
364.99	79.87
365.201	-20.48
365.412	102.4
365.623	14.34
365.834	45.06
366.045	-28.67
366.256	45.06
366.467	-12.29
366.678	12.29
366.889	-10.24
367.1	20.48
367.311	22.53
367.522	6.14
367.733	45.06
367.944	16.38
368.155	24.58
368.366	0
368.577	61.44
368.788	151.55
368.999	-71.68
369.209	65.54
369.42	98.3
369.631	47.1
369.842	53.25
370.053	-12.29
370.264	61.44
370.474	2.05
370.685	45.06
370.896	69.63
371.107	69.63
371.317	-34.82
371.528	-2.05
371.739	4.1
371.95	71.68
372.16	102.4
372.371	-8.19
372.582	12.29
372.792	47.1
373.003	4.1
373.214	90.11
373.424	88.06
373.635	-18.43
373.846	120.83
374.056	40.96
374.267	57.34
374.477	102.4
374.688	-4.1
374.898	77.82
375.109	10.24
375.319	61.44
375.53	63.49
375.74	43.01
375.951	28.67
376.161	45.06
376.372	88.06
376.582	57.34
376.793	28.67
377.003	12.29
377.214	47.1
377.424	4.1
377.635	34.82
377.845	-14.34
378.055	77.82
378.266	14.34
378.476	40.96
378.686	14.34
378.897	71.68
379.107	149.5
379.317	65.54
379.528	61.44
379.738	38.91
379.948	34.82
380.158	61.44
380.369	20.48
380.579	57.34
380.789	36.86
380.999	161.79
381.21	88.06
381.42	16.38
381.63	-12.29
381.84	34.82
382.05	110.59
382.261	69.63
382.471	135.17
382.681	-16.38
382.891	-6.14
383.101	26.62
383.311	6.14
383.521	-14.34
383.731	145.41
383.941	59.39
384.151	16.38
384.361	10.24
384.571	96.25
384.781	-2.05
384.991	96.25
385.201	79.87
385.411	61.44
385.621	55.3
385.831	-10.24
386.041	102.4
386.251	45.06
386.461	159.74
386.671	67.58
386.881	96.25
387.091	57.34
387.301	61.44
387.511	36.86
387.72	22.53
387.93	120.83
388.14	36.86
388.35	79.87
388.56	61.44
388.769	98.3
388.979	47.1
389.189	-34.82
389.399	79.87
389.609	86.01
389.818	96.25
390.028	65.54
390.238	-20.48
390.447	47.1
390.657	69.63
390.867	-10.24
391.076	55.3
391.286	79.87
391.496	100.35
391.705	16.38
391.915	65.54
392.125	65.54
392.334	86.01
392.544	112.64
392.753	8.19
392.963	-18.43
393.172	73.73
393.382	6.14
393.591	153.6
393.801	63.49
394.01	67.58
394.22	126.97
394.429	36.86
394.639	38.91
394.848	73.73
395.058	38.91
395.267	86.01
395.477	96.25
395.686	20.48
395.895	81.92
396.105	75.77
396.314	112.64
396.524	77.82
396.733	40.96
396.942	51.2
397.152	118.78
397.361	169.98
397.57	102.4
397.78	69.63
397.989	34.82
398.198	126.97
398.407	49.15
398.617	108.54
398.826	86.01
399.035	116.73
399.244	126.97
399.453	63.49
399.663	69.63
399.872	65.54
400.081	69.63
400.29	147.45
400.499	45.06
400.708	153.6
400.917	63.49
401.127	-18.43
401.336	86.01
401.545	55.3
401.754	180.22
401.963	145.41
402.172	139.26
402.381	45.06
402.59	79.87
402.799	96.25
403.008	184.32
403.217	129.02
403.426	88.06
403.635	61.44
403.844	102.4
404.053	155.65
404.262	104.45
404.471	198.65
404.68	151.55
404.888	63.49
405.097	126.97
405.306	151.55
405.515	192.51
405.724	169.98
405.933	194.56
406.142	96.25
406.35	120.83
406.559	126.97
406.768	69.63
406.977	245.76
407.185	178.17
407.394	176.13
407.603	143.36
407.812	194.56
408.02	176.13
408.229	186.37
408.438	180.22
408.646	176.13
408.855	225.28
409.064	243.71
409.272	172.03
409.481	253.95
409.69	172.03
409.898	241.66
410.107	274.43
410.315	339.96
410.524	243.71
410.733	270.33
410.941	307.2
411.15	253.95
411.358	333.82
411.567	421.88
411.775	311.29
411.984	428.03
412.192	376.83
412.401	399.35
412.609	397.31
412.818	405.5
413.026	442.36
413.234	446.46
413.443	452.6
413.651	561.14
413.86	528.38
414.068	524.28
414.276	499.7
414.485	489.46
414.693	544.76
414.901	587.77
415.11	550.9
415.318	595.96
415.526	700.41
415.734	602.1
415.943	577.53
416.151	669.69
416.359	626.68
416.567	727.03
416.776	774.13
416.984	733.17
417.192	829.43
417.4	753.65
417.608	833.52
417.817	905.2
418.025	892.91
418.233	968.69
418.441	964.59
418.649	1054.7
418.857	1011.7
419.065	1138.67
419.273	1118.19
419.481	1093.62
419.689	1183.73
419.897	1308.65
420.105	1290.22
420.313	1363.95
420.521	1396.71
420.729	1431.53
420.937	1351.66
421.145	1445.87
421.353	1640.42
421.561	1611.75
421.769	1595.37
421.977	1724.39
422.185	1679.33
422.393	1791.97
422.601	2002.91
422.809	1857.51
423.017	1916.9
423.224	2080.74
423.432	2142.18
423.64	2095.07
423.848	2349.02
424.056	2242.53
424.263	2402.27
424.471	2385.88
424.679	2463.71
424.887	2490.33
425.094	2727.89
425.302	2744.28
425.51	2740.18
425.718	2830.29
425.925	2932.69
426.133	3002.32
426.341	3168.21
426.548	3243.98
426.756	3166.16
426.964	3422.16
427.171	3618.76
427.379	3618.76
427.586	3694.54
427.794	3764.17
428.001	4009.92
428.209	4097.99
428.417	4075.46
428.624	4345.79
428.832	4493.24
429.039	4313.02
429.247	4374.46
429.454	4820.92
429.662	5207.98
429.869	4693.94
430.076	5134.26
430.284	4927.41
430.491	5279.66
430.699	5566.38
430.906	5404.59
431.114	5363.63
431.321	5691.31
431.528	5601.19
431.736	6250.4
431.943	6383.52
432.15	6381.47
432.358	6401.95
432.565	6586.27
432.772	6690.71
432.979	6901.65
433.187	7110.55
433.394	7262.1
433.601	7632.78
433.808	7745.42
434.016	7798.66
434.223	7911.3
434.43	8146.82
434.637	8449.92
434.844	8851.32
435.052	8902.52
435.259	8828.79
435.466	9076.6
435.673	8830.84
435.88	9469.81
436.087	9979.75
436.294	9967.46
436.501	9860.97
436.708	10045.29
436.915	10264.42
437.122	10880.86
437.329	10573.66
437.537	11089.75
437.743	11497.3
437.95	11124.57
438.157	11818.83
438.364	11992.9
438.571	11990.86
438.778	12263.24
438.985	12986.17
439.192	12685.12
439.399	13434.67
439.606	12830.52
439.813	13684.53
440.02	14325.54
440.227	14364.45
440.433	14167.85
440.64	14614.3
440.847	14313.25
441.054	14845.73
441.261	15740.69
441.467	15466.26
441.674	15947.53
441.881	16572.16
442.088	16459.52
442.294	16267.02
442.501	16733.95
442.708	17006.33
442.914	17673.97
443.121	18616.04
443.328	18263.79
443.534	19275.48
443.741	18734.82
443.948	18466.53
444.154	19967.7
444.361	19910.35
444.568	19949.26
444.774	19687.12
444.981	20090.57
445.187	20729.54
445.394	21612.21
445.6	21096.13
445.807	23539.35
446.013	22372.01
446.22	22804.13
446.426	23727.77
446.633	24020.63
446.839	25153.15
447.046	23735.96
447.252	24964.74
447.459	24907.4
447.665	25257.6
447.871	26173.04
448.078	27336.29
448.284	26050.16
448.491	26889.83
448.697	27633.24
448.903	28417.61
449.11	28673.61
449.316	28139.09
449.522	28743.24
449.728	29511.23
449.935	29650.49
450.141	29748.79
450.347	30242.35
450.553	29185.6
450.76	29789.75
450.966	30873.13
451.172	30604.84
451.378	31331.87
451.584	30760.49
451.791	31467.04
451.997	31381.03
452.203	31950.36
452.409	32067.09
452.615	31489.57
452.821	30737.96
453.027	30139.96
453.233	32204.31
453.44	30785.07
453.646	31264.29
453.852	31188.52
454.058	31741.47
454.264	30869.03
454.47	31749.66
454.676	30881.32
454.882	31823.39
455.088	29222.47
455.294	29711.93
455.5	30209.59
455.705	30588.46
455.911	29275.71
456.117	28608.08
456.323	28085.84
456.529	26857.06
456.735	28198.48
456.941	27405.92
457.147	26912.36
457.352	26130.03
457.558	25966.2
457.764	26101.36
457.97	25667.19
458.176	24798.85
458.381	25198.21
458.587	23836.31
458.793	23932.56
458.999	22814.37
459.204	23930.51
459.41	23369.37
459.616	22156.97
459.821	21866.16
460.027	22245.04
460.233	21634.74
460.438	20539.08
460.644	21006.02
460.85	19803.86
461.055	19271.39
461.261	19705.56
461.466	18208.49
461.672	17604.34
461.878	18773.73
462.083	17428.21
462.289	17417.97
462.494	16936.7
462.7	16600.83
462.905	15744.78
463.111	16576.26
463.316	16699.14
463.522	16158.47
463.727	16205.58
463.932	16346.89
464.138	15828.75
464.343	16148.23
464.549	15576.85
464.754	16127.75
464.959	15791.89
465.165	15920.91
465.37	15146.78
465.575	14929.69
465.781	15646.48
465.986	15519.51
466.191	14991.13
466.397	14522.15
466.602	13983.53
466.807	14546.72
467.012	14526.24
467.218	14298.92
467.423	14251.81
467.628	14202.66
467.833	15134.49
468.038	14303.01
468.244	14124.84
468.449	14638.88
468.654	14184.23
468.859	14012.2
469.064	13961
469.269	13455.15
469.474	13659.95
469.679	13791.02
469.885	13485.87
470.09	13627.18
470.295	13430.58
470.5	13119.29
470.705	13403.96
470.91	12918.59
471.115	12842.81
471.32	12957.5
471.525	13186.87
471.73	12826.43
471.935	12621.63
472.139	12191.56
472.344	12351.3
472.549	12269.38
472.754	12146.5
472.959	11882.31
473.164	11601.74
473.369	11661.13
473.574	11837.26
473.778	11736.91
473.983	11767.63
474.188	11681.61
474.393	11173.72
474.598	11194.2
474.802	11147.09
475.007	10946.39
475.212	11186.01
475.417	10538.85
475.621	10733.4
475.826	10671.97
476.031	10567.52
476.235	10415.97
476.44	10635.1
476.645	10129.25
476.849	10295.14
477.054	10071.91
477.259	9883.5
477.463	9805.67
477.668	9621.36
477.872	9875.31
478.077	9645.93
478.282	9371.5
478.486	9391.98
478.691	9357.17
478.895	9320.31
479.1	9226.1
479.304	9336.69
479.509	9002.87
479.713	9039.73
479.918	9226.1
480.122	8662.91
480.326	8937.34
480.531	9006.97
480.735	8910.71
480.94	8836.99
481.144	9027.45
481.348	8580.99
481.553	8744.83
481.757	8417.15
481.961	8746.87
482.166	8974.2
482.37	8638.33
482.574	8449.92
482.778	8558.46
482.983	8775.55
483.187	8648.57
483.391	8556.41
483.595	8574.85
483.8	8603.52
484.004	8519.55
484.208	8900.47
484.412	8699.77
484.616	8742.78
484.821	8605.56
485.025	8568.7
485.229	8603.52
485.433	8714.11
485.637	8527.74
485.841	8613.76
486.045	8589.18
486.249	8578.94
486.453	8470.4
486.657	8777.59
486.861	8650.62
487.065	8621.95
487.269	8437.63
487.473	8425.34
487.677	8789.88
487.881	8603.52
488.085	8693.63
488.289	8544.13
488.493	8533.89
488.697	8806.27
488.901	8779.64
489.105	8722.3
489.309	8701.82
489.512	8927.1
489.716	8712.06
489.92	8882.04
490.124	8746.87
490.328	8972.15
490.531	8843.13
490.735	8839.03
490.939	8933.24
491.143	9060.21
491.346	8929.14
491.55	9086.84
491.754	8974.2
491.958	9246.58
492.161	9000.82
492.365	9203.57
492.569	9224.05
492.772	9158.52
492.976	9330.55
493.18	9316.21
493.383	9344.88
493.587	9615.21
493.79	9598.83
493.994	9650.03
494.197	9752.43
494.401	9660.27
494.605	9596.78
494.808	10022.76
495.012	9838.44
495.215	10153.83
495.419	10192.74
495.622	10340.19
495.825	10370.91
496.029	10243.94
496.232	10512.22
496.436	10575.71
496.639	10686.3
496.843	10694.49
497.046	10588
497.249	10983.26
497.453	11181.91
497.656	11126.61
497.859	11200.34
498.063	11491.15
498.266	11679.57
498.469	11652.94
498.673	11870.03
498.876	11861.83
499.079	12056.39
499.282	12160.84
499.485	12390.21
499.689	12361.54
499.892	12592.96
500.095	12693.31
500.298	13031.23
500.501	12867.39
500.705	13205.3
500.908	13307.7
501.111	13414.2
501.314	13553.46
501.517	13823.79
501.72	13907.76
501.923	13944.62
502.126	14231.33
502.329	14561.06
502.532	14520.1
502.735	14917.4
502.938	14931.74
503.141	14950.17
503.344	15306.52
503.547	15214.36
503.75	15511.32
503.953	15806.22
504.156	15666.96
504.359	16207.62
504.562	16062.22
504.765	16727.81
504.968	16877.31
505.17	17145.59
505.373	16846.59
505.576	17393.4
505.779	17506.04
505.982	17432.31
506.185	18177.77
506.387	17694.45
506.59	18106.09
506.793	18663.14
506.996	18652.9
507.198	19179.23
507.401	18798.31
507.604	19330.78
507.807	19588.82
508.009	19988.17
508.212	20027.09
508.415	20080.33
508.617	20510.41
508.82	20649.67
509.022	20592.33
509.225	21323.45
509.428	21321.4
509.63	21728.95
509.833	21649.08
510.035	22351.53
510.238	21999.28
510.44	22318.76
510.643	22759.08
510.845	23105.18
511.048	22681.25
511.25	23443.1
511.453	23629.46
511.655	24233.61
511.858	23836.31
512.06	24080.02
512.262	24823.43
512.465	24508.04
512.667	25237.12
512.87	25515.64
513.072	25562.75
513.274	25812.6
513.477	26078.83
513.679	26490.48
513.881	27237.98
514.084	27018.85
514.286	27031.14
514.488	27336.29
514.69	28134.99
514.893	28200.53
515.095	28352.08
515.297	28698.19
515.499	29007.43
515.701	29228.61
515.904	29378.11
516.106	29482.56
516.308	29855.29
516.51	30436.91
516.712	30422.58
516.914	30842.41
517.116	31397.41
517.318	31225.38
517.52	31604.25
517.722	31354.4
517.925	32095.77
518.127	32288.28
518.329	32636.43
518.531	32691.73
518.733	33490.43
518.935	33711.61
519.136	33568.26
519.338	33975.8
519.54	34651.63
519.742	34473.46
519.944	34696.69
520.146	35245.54
520.348	35479.01
520.55	35362.28
520.752	35845.6
520.954	36380.12
521.155	36046.3
521.357	37008.84
521.559	37174.73
521.761	37672.39
521.963	37311.94
522.164	37729.73
522.366	37789.12
522.568	38387.13
522.77	38659.51
522.971	38974.89
523.173	38598.07
523.375	39136.68
523.576	39042.48
523.778	39310.76
523.98	39804.32
524.181	40119.71
524.383	40179.1
524.584	40623.51
524.786	40414.62
524.988	40365.46
525.189	40871.31
525.391	41188.75
525.592	41469.32
525.794	41532.81
525.995	41588.1
526.197	41686.4
526.398	41788.8
526.6	42155.39
526.801	42167.68
527.003	42423.67
527.204	42562.93
527.406	43263.34
527.607	42837.36
527.808	43535.72
528.01	42239.36
528.211	43355.5
528.412	43887.97
528.614	43437.42
528.815	44143.97
529.016	44324.19
529.218	43865.44
529.419	44064.1
529.62	44252.51
529.822	43951.46
530.023	44148.06
530.224	44301.66
530.425	44100.96
530.626	44039.52
530.828	44023.14
531.029	44834.13
531.23	44184.93
531.431	44399.96
531.632	44477.79
531.833	44772.69
532.035	44819.8
532.236	44823.89
532.437	44885.33
532.638	45145.42
532.839	45358.41
533.04	45055.31
533.241	44834.13
533.442	45663.56
533.643	45331.79
533.844	44846.42
534.045	45364.56
534.246	44932.43
534.447	45477.19
534.648	44821.84
534.849	45276.49
535.05	44891.47
535.251	45344.08
535.451	45094.22
535.652	45759.81
535.853	45434.19
536.054	45589.83
536.255	45532.49
536.456	45077.84
536.657	45819.2
536.857	45434.19
537.058	45151.57
537.259	45702.47
537.46	45483.34
537.66	45733.19
537.861	45925.7
538.062	45419.85
538.263	45737.29
538.463	45352.27
538.664	45403.47
538.865	45739.33
539.065	45749.57
539.266	44909.91
539.466	45884.74
539.667	44840.28
539.868	45743.43
540.068	45368.65
540.269	45813.06
540.469	45245.77
540.67	45081.94
540.87	45610.31
541.071	45045.07
541.271	45768.01
541.472	45503.82
541.672	45233.49
541.873	45333.84
542.073	44680.53
542.274	45950.27
542.474	45436.23
542.675	44995.92
542.875	45657.42
543.075	45280.59
543.276	44615
543.476	45770.05
543.676	44838.23
543.877	45421.9
544.077	45147.47
544.277	45303.12
544.478	45397.32
544.678	45448.52
544.878	45505.87
545.078	45725
545.279	45106.51
545.479	45155.66
545.679	45184.33
545.879	45448.52
546.079	45182.29
546.28	45088.08
546.48	44776.79
546.68	45217.1
546.88	45006.16
547.08	45253.97
547.28	45049.17
547.48	44746.07
547.68	45149.52
547.88	45133.14
548.081	44975.44
548.281	44971.35
548.481	45499.72
548.681	45372.75
548.881	45233.49
549.081	45462.86
549.28	44893.52
549.48	45423.95
549.68	45198.67
549.88	45170
550.08	45120.85
550.28	45090.13
550.48	45030.74
550.68	45112.66
550.88	44606.81
551.08	45163.85
551.279	45327.69
551.479	44643.67
551.679	44774.74
551.879	44891.47
552.079	45227.34
552.278	44766.55
552.478	44907.86
552.678	45098.32
552.878	44959.06
553.077	44719.45
553.277	44324.19
553.477	45110.61
553.676	44240.22
553.876	44678.49
554.076	44823.89
554.275	44375.39
554.475	44344.67
554.674	44592.47
554.874	44739.93
555.074	44354.91
555.273	44762.45
555.473	44807.51
555.672	44139.87
555.872	44678.49
556.071	44868.95
556.271	44471.64
556.47	44184.93
556.67	43955.55
556.869	44367.19
557.068	44391.77
557.268	43711.84
557.467	44172.64
557.667	43926.88
557.866	44053.86
558.065	43761
558.265	44086.62
558.464	43449.7
558.663	44365.15
558.863	43449.7
559.062	44076.38
559.261	43548.01
559.461	44277.08
559.66	43623.78
559.859	43994.46
560.058	43001.2
560.258	43562.34
560.457	43298.16
560.656	43197.8
560.855	43140.46
561.054	43472.23
561.253	43162.99
561.453	43984.22
561.652	43396.46
561.851	43367.79
562.05	43019.63
562.249	42651
562.448	43566.44
562.647	43162.99
562.846	43079.02
563.045	42906.99
563.244	42630.52
563.443	43058.54
563.642	42132.86
563.841	42577.27
564.04	42073.47
564.239	42792.31
564.438	41829.76
564.637	42182.01
564.836	42526.07
565.035	42057.09
565.234	42515.83
565.432	41827.71
565.631	41715.08
565.83	42108.29
566.029	41602.44
566.228	41794.95
566.427	42024.32
566.625	41506.18
566.824	41098.64
567.023	41502.09
567.222	40805.78
567.42	42026.37
567.619	41569.67
567.818	41301.39
568.016	41622.92
568.215	41368.97
568.414	40789.39
568.612	41260.43
568.811	40836.5
569.01	40838.54
569.208	40228.25
569.407	40721.81
569.605	40535.45
569.804	41045.39
570.002	40340.89
570.201	40332.7
570.4	39871.9
570.598	39789.98
570.797	39593.38
570.995	39955.87
571.193	39550.37
571.392	39962.01
571.59	39564.71
571.789	39640.48
571.987	39341.48
572.186	39386.53
572.384	39562.66
572.582	39286.18
572.781	39394.73
572.979	38645.17
573.177	38966.7
573.376	39142.83
573.574	38659.51
573.772	38899.12
573.971	38727.09
574.169	38518.2
574.367	38172.09
574.565	38438.33
574.763	38157.75
574.962	38063.55
575.16	37742.02
575.358	38360.5
575.556	37660.1
575.754	38153.66
575.952	37694.91
576.151	37664.19
576.349	37268.94
576.547	37201.35
576.745	37416.39
576.943	37348.81
577.141	37170.63
577.339	37070.28
577.537	36804.05
577.735	37023.18
577.933	36949.45
578.131	36713.94
578.329	36367.83
578.527	36439.51
578.725	36611.54
578.923	36691.41
579.121	36083.16
579.319	36277.72
579.516	36093.4
579.714	36105.69
579.912	36154.84
580.11	35821.02
580.308	35956.19
580.506	35597.79
580.704	35225.06
580.901	35458.53
581.099	35991
581.297	35122.66
581.495	34979.31
581.692	35270.12
581.89	34643.44
582.088	35139.05
582.285	34821.61
582.483	34874.86
582.681	34895.34
582.878	34803.18
583.076	34444.79
583.274	34668.01
583.471	33605.12
583.669	34446.83
583.866	33983.99
584.064	34239.99
584.262	33859.07
584.459	34078.2
584.657	33865.21
584.854	33969.66
585.052	33291.78
585.249	33371.65
585.447	33592.83
585.644	33170.95
585.841	33547.78
586.039	33660.41
586.236	32886.28
586.434	33082.89
586.631	32751.12
586.828	32824.84
587.026	32794.12
587.223	32865.8
587.42	32423.44
587.618	32507.41
587.815	32282.13
588.012	32189.97
588.21	32081.43
588.407	32421.39
588.604	32216.6
588.801	31952.41
588.999	31720.99
589.196	31903.26
589.393	31731.23
589.59	31784.47
589.787	31295.01
589.984	31057.45
590.182	31039.01
590.379	31534.62
590.576	31448.61
590.773	31010.34
590.97	30885.42
591.167	30746.15
591.364	30430.77
591.561	30996.01
591.758	30889.51
591.955	30293.55
592.152	30676.52
592.349	30424.62
592.546	30518.83
592.743	30418.48
592.94	29822.52
593.137	30117.43
593.334	30621.23
593.531	29787.71
593.727	29832.76
593.924	29894.2
594.121	29466.17
594.318	29763.13
594.515	29007.43
594.712	29494.85
594.908	29406.78
595.105	29158.98
595.302	29007.43
595.499	29007.43
595.696	29103.68
595.892	28554.83
596.089	29103.68
596.286	29132.36
596.482	28454.48
596.679	28628.56
596.876	28507.72
597.072	28110.42
597.269	28520.01
597.466	28030.55
597.662	28055.12
597.859	28005.97
598.055	28057.17
598.252	27950.68
598.448	28264.02
598.645	27663.96
598.841	27688.54
599.038	27518.56
599.234	27580
599.431	27326.05
599.627	27262.56
599.824	27467.36
600.02	27301.47
600.217	27590.23
600.413	26676.84
600.609	26773.1
600.806	26562.15
601.002	26601.07
601.198	26576.49
601.395	26332.78
601.591	26529.39
601.787	26537.58
601.984	26101.36
602.18	26513
602.376	26031.73
602.572	26082.93
602.769	26224.24
602.965	25781.88
603.161	25978.48
603.357	25671.29
603.553	25667.19
603.75	25478.78
603.946	25650.81
604.142	25523.83
604.338	25249.41
604.534	25316.99
604.73	25050.75
604.926	25052.8
605.122	24868.48
605.318	24940.16
605.514	24827.53
605.71	24592.01
605.906	24843.91
606.102	24778.37
606.298	24759.94
606.494	24516.23
606.69	24333.96
606.886	24514.19
607.082	24010.39
607.278	24469.13
607.474	23850.64
607.67	24151.7
607.866	23830.16
608.062	24542.86
608.257	23758.49
608.453	23862.93
608.649	23916.18
608.845	23709.33
609.041	23838.36
609.236	23744.15
609.432	23598.74
609.628	23678.61
609.824	23608.98
610.019	23510.68
610.215	23373.47
610.411	23695
610.606	23246.49
610.802	23248.54
610.998	23248.54
611.193	23082.66
611.389	22992.55
611.584	23031.46
611.78	22820.52
611.976	22943.39
612.171	22793.89
612.367	22640.29
612.562	22769.32
612.758	22589.1
612.953	22566.57
613.149	22658.73
613.344	22306.48
613.539	22398.63
613.735	22335.15
613.93	22550.18
614.126	22261.42
614.321	22947.49
614.517	22310.57
614.712	22089.39
614.907	22292.14
615.103	22146.73
615.298	22140.59
615.493	22310.57
615.688	22017.71
615.884	22271.66
616.079	21642.93
616.274	22050.48
616.47	22042.29
616.665	21561.01
616.86	21612.21
617.055	21690.04
617.25	21640.89
617.445	21595.83
617.641	21360.31
617.836	21427.9
618.031	21132.99
618.226	21294.78
618.421	20940.48
618.616	21472.95
618.811	20788.93
619.006	21393.08
619.201	20905.66
619.396	20922.05
619.591	20385.48
619.786	20879.04
619.981	20541.13
620.176	20795.07
620.371	20420.3
620.566	20166.35
620.761	20170.44
620.956	20360.91
621.151	20053.71
621.346	19906.26
621.541	19693.27
621.735	19836.63
621.93	19551.96
622.125	19719.89
622.32	19267.29
622.515	19142.36
622.709	19232.47
622.904	19222.23
623.099	19013.34
623.294	19228.38
623.488	18999.01
623.683	18886.37
623.878	18495.21
624.072	18724.58
624.267	18456.29
624.462	18548.45
624.656	18116.33
624.851	18231.02
625.046	18030.32
625.24	18177.77
625.435	17860.34
625.629	17794.8
625.824	17897.2
626.018	17551.09
626.213	17192.7
626.407	17610.48
626.602	17440.5
626.796	17317.62
626.991	17217.27
627.185	17037.05
627.38	16961.28
627.574	17016.57
627.768	16592.64
627.963	16617.22
628.157	16293.64
628.352	16705.28
628.546	16334.6
628.74	16586.5
628.935	16187.15
629.129	16209.67
629.323	16125.71
629.517	15808.27
629.712	15857.42
629.906	15793.93
630.1	15662.86
630.294	15587.09
630.489	15787.79
630.683	15787.79
630.877	15152.92
631.071	15283.99
631.265	15277.85
631.459	15232.79
631.653	15081.24
631.848	15099.67
632.042	14925.6
632.236	14925.6
632.43	14663.46
632.624	14542.63
632.818	14769.95
633.012	14315.3
633.206	14522.15
633.4	14475.04
633.594	14245.67
633.788	14212.9
633.982	14511.91
634.176	13872.94
634.369	14241.57
634.563	14010.15
634.757	13752.11
634.951	14020.39
635.145	13659.95
635.339	13610.8
635.533	13481.78
635.726	13614.9
635.92	13379.38
636.114	13612.85
636.308	13457.2
636.501	13365.04
636.695	13389.62
636.889	13156.15
637.083	13045.56
637.276	12711.74
637.47	12869.44
637.664	12818.24
637.857	12695.36
638.051	12787.52
638.244	12779.32
638.438	12625.73
638.632	12474.18
638.825	12369.73
639.019	12406.59
639.212	12455.75
639.406	12148.55
639.599	12193.61
639.793	12209.99
639.986	11958.09
640.18	12025.67
640.373	11824.97
640.567	11663.18
640.76	11695.95
640.954	11640.65
641.147	11616.08
641.34	11558.74
641.534	11589.46
641.727	11274.07
641.92	11446.1
642.114	11278.16
642.307	11190.1
642.5	11198.29
642.694	11112.28
642.887	11005.78
643.08	10989.4
643.273	10794.84
643.467	10925.91
643.66	10688.35
643.853	10604.38
644.046	10620.77
644.239	10757.98
644.432	10598.24
644.626	10284.9
644.819	10442.59
645.012	10379.11
645.205	10379.11
645.398	10192.74
645.591	10325.86
645.784	10049.38
645.977	9768.81
646.17	9918.31
646.363	9926.5
646.556	9809.77
646.749	9756.52
646.942	9731.95
647.135	9643.88
647.328	9572.21
647.521	9518.96
647.714	9445.23
647.907	9674.6
648.099	9508.72
648.292	9480.05
648.485	9314.16
648.678	9215.86
648.871	9033.59
649.064	9105.27
649.256	9013.11
649.449	8884.09
649.642	8982.39
649.835	8908.66
650.027	8871.8
650.22	8933.24
650.413	8685.44
650.605	8761.21
650.798	8470.4
650.991	8621.95
651.183	8695.68
651.376	8566.65
651.568	8646.52
651.761	8431.49
651.954	8441.73
652.146	8361.86
652.339	8310.66
652.531	8288.13
652.724	8017.8
652.916	8052.61
653.109	8097.67
653.301	8206.21
653.494	7878.54
653.686	7991.17
653.879	7982.98
654.071	7829.38
654.263	7909.26
654.456	7810.95
654.648	7640.97
654.84	7665.55
655.033	7600.01
655.225	7622.54
655.417	7393.17
655.61	7548.81
655.802	7600.01
655.994	7540.62
656.186	7507.85
656.379	7409.55
656.571	7395.22
656.763	7344.02
656.955	7294.86
657.148	7126.93
657.34	7276.43
657.532	7049.11
657.724	7032.72
657.916	7028.63
658.108	6997.91
658.3	7057.3
658.492	6848.41
658.684	6819.74
658.876	6901.65
659.068	6766.49
659.26	6750.11
659.452	6789.02
659.644	6688.67
659.836	6483.87
660.028	6498.2
660.22	6479.77
660.412	6363.04
660.604	6315.94
660.796	6371.23
660.988	6373.28
661.18	6303.65
661.372	6258.59
661.563	6309.79
661.755	6176.67
661.947	6152.1
662.139	6135.71
662.331	6049.7
662.522	6139.81
662.714	6068.13
662.906	5873.57
663.097	5728.17
663.289	5875.62
663.481	5924.77
663.673	5828.52
663.864	5683.11
664.056	5664.68
664.247	5758.89
664.439	5654.44
664.631	5650.35
664.822	5615.53
665.014	5699.5
665.205	5439.41
665.397	5619.63
665.588	5509.04
665.78	5345.2
665.971	5414.83
666.163	5394.35
666.354	5365.68
666.546	5218.22
666.737	5183.41
666.929	5167.03
667.12	5230.51
667.311	5181.36
667.503	5156.79
667.694	5119.92
667.885	4970.42
668.077	4988.85
668.268	5042.1
668.459	5068.72
668.651	4847.54
668.842	4921.27
669.033	4898.74
669.224	4829.11
669.416	4904.89
669.607	4913.08
669.798	4751.29
669.989	4853.69
670.18	4775.86
670.371	4700.09
670.563	4624.31
670.754	4755.38
670.945	4636.6
671.136	4689.85
671.327	4626.36
671.518	4587.45
671.709	4534.2
671.9	4571.07
672.091	4648.89
672.282	4421.56
672.473	4569.02
672.664	4452.28
672.855	4321.21
673.046	4388.8
673.237	4464.57
673.428	4304.83
673.619	4323.26
673.809	4394.94
674	4341.69
674.191	4534.2
674.382	4181.95
674.573	4265.92
674.764	4251.58
674.954	4278.21
675.145	4200.38
675.336	4329.41
675.527	4116.42
675.717	4249.54
675.908	4083.65
676.099	3968.96
676.289	4122.56
676.48	4145.09
676.671	3989.44
676.861	4200.38
677.052	3928
677.243	4032.45
677.433	4083.65
677.624	3993.54
677.814	4001.73
678.005	3915.72
678.195	4087.75
678.386	3983.3
678.576	3854.28
678.767	4050.88
678.957	3864.52
679.148	4030.4
679.338	3833.8
679.529	3862.47
679.719	3811.27
679.909	4009.92
680.1	3755.97
680.29	3872.71
680.481	3772.36
680.671	3880.9
680.861	3682.25
681.052	3856.33
681.242	3862.47
681.432	3788.74
681.622	3704.78
681.813	3751.88
682.003	3796.93
682.193	3616.71
682.383	3782.6
682.573	3755.97
682.764	3624.9
682.954	3629
683.144	3639.24
683.334	3770.31
683.524	3610.57
683.714	3579.85
683.904	3682.25
684.094	3698.63
684.284	3569.61
684.474	3829.7
684.664	3594.19
684.854	3596.23
685.044	3606.47
685.234	3542.99
685.424	3665.86
685.614	3741.64
685.804	3583.95
685.994	3608.52
686.184	3420.11
686.374	3565.51
686.564	3495.88
686.753	3510.22
686.943	3473.36
687.133	3487.69
687.323	3448.78
687.513	3526.6
687.702	3479.5
687.892	3381.2
688.082	3481.55
688.272	3342.29
688.461	3454.92
688.651	3416.01
688.841	3332.05
689.03	3338.19
689.22	3373
689.41	3452.88
689.599	3305.42
689.789	3403.72
689.979	3334.09
690.168	3340.24
690.358	3385.29
690.547	3338.19
690.737	3282.89
690.926	3264.46
691.116	3266.51
691.305	3342.29
691.495	3256.27
691.684	3307.47
691.874	3239.89
692.063	3370.96
692.252	3246.03
692.442	3237.84
692.631	3092.43
692.82	3217.36
693.01	3252.17
693.199	3256.27
693.388	3160.02
693.578	3039.19
693.767	3213.26
693.956	3264.46
694.146	3141.58
694.335	3104.72
694.524	3000.27
694.713	3256.27
694.902	3125.2
695.092	2994.13
695.281	3100.62
695.47	3084.24
695.659	3043.28
695.848	3071.95
696.037	2936.79
696.226	3018.71
696.415	2994.13
696.604	3125.2
696.793	3143.63
696.982	2932.69
697.171	3018.71
697.36	3030.99
697.549	2904.02
697.738	2955.22
697.927	2944.98
698.116	3010.51
698.305	3026.9
698.494	2996.18
698.683	2938.84
698.872	3024.85
699.061	2998.23
699.25	2953.17
699.438	2867.16
699.627	2840.53
699.816	2953.17
700.005	2977.75
700.193	2951.12
700.382	2973.65
700.571	2944.98
700.76	2854.87
700.948	2891.73
701.137	2856.92
701.326	2793.43
701.514	2813.91
701.703	2791.38
701.892	2731.99
702.08	2938.84
702.269	2887.64
702.457	2822.1
702.646	2895.83
702.834	2748.37
703.023	2723.8
703.212	2740.18
703.4	2744.28
703.589	2705.37
703.777	2750.42
703.965	2691.03
704.154	2828.24
704.342	2818.01
704.531	2658.26
704.719	2703.32
704.907	2629.59
705.096	2658.26
705.284	2619.35
705.472	2711.51
705.661	2676.7
705.849	2580.44
706.037	2617.3
706.226	2731.99
706.414	2660.31
706.602	2627.54
706.79	2791.38
706.979	2781.14
707.167	2605.02
707.355	2592.73
707.543	2682.84
707.731	2707.41
707.919	2516.95
708.107	2643.93
708.296	2602.97
708.484	2568.15
708.672	2547.67
708.86	2615.26
709.048	2580.44
709.236	2492.38
709.424	2488.28
709.612	2580.44
709.8	2551.77
709.988	2576.34
710.176	2531.29
710.364	2488.28
710.551	2545.63
710.739	2514.91
710.927	2453.47
711.115	2453.47
711.303	2578.39
711.491	2568.15
711.679	2445.27
711.866	2519
712.054	2363.36
712.242	2467.8
712.43	2576.34
712.617	2324.44
712.805	2506.71
712.993	2453.47
713.181	2381.79
713.368	2404.32
713.556	2430.94
713.744	2250.72
713.931	2469.85
714.119	2387.93
714.306	2412.51
714.494	2443.23
714.682	2303.96
714.869	2275.29
715.057	2324.44
715.244	2295.77
715.432	2363.36
715.619	2183.13
715.807	2351.07
715.994	2359.26
716.182	2367.45
716.369	2306.01
716.556	2355.16
716.744	2228.19
716.931	2275.29
717.119	2416.6
717.306	2273.25
717.493	2232.29
717.681	2275.29
717.868	2258.91
718.055	2254.81
718.242	2183.13
718.43	2176.99
718.617	2211.81
718.804	2252.77
718.991	2191.33
719.179	2244.57
719.366	2191.33
719.553	2146.27
719.74	2183.13
719.927	2164.7
720.114	2248.67
720.301	2109.41
720.488	2115.55
720.676	2123.74
720.863	2136.03
721.05	2068.45
721.237	2170.85
721.424	2187.23
721.611	2093.02
721.798	2019.3
721.985	2199.52
722.172	2043.87
722.358	2103.26
722.545	2150.37
722.732	2078.69
722.919	2213.85
723.106	2097.12
723.293	2033.63
723.48	2052.06
723.667	2146.27
723.853	2037.73
724.04	2138.08
724.227	2140.13
724.414	2007.01
724.6	2019.3
724.787	2070.5
724.974	2150.37
725.161	1937.38
725.347	1994.72
725.534	2043.87
725.72	2103.26
725.907	2013.15
726.094	2099.17
726.28	1894.37
726.467	1949.67
726.653	2060.26
726.84	2021.35
727.027	2070.5
727.213	1877.99
727.4	2080.74
727.586	1980.39
727.773	2015.2
727.959	1996.77
728.145	1970.15
728.332	1896.42
728.518	1961.95
728.705	1961.95
728.891	1912.8
729.077	1851.36
729.264	1945.57
729.45	1910.75
729.636	1914.85
729.823	1771.49
730.009	1937.38
730.195	1789.92
730.382	1957.86
730.568	1863.65
730.754	1863.65
730.94	1800.16
731.126	2027.49
731.313	2007.01
731.499	1871.84
731.685	1798.12
731.871	1822.69
732.057	1771.49
732.243	1861.6
732.429	1826.79
732.615	1775.59
732.801	1802.21
732.987	1726.44
733.173	1722.34
733.359	1748.97
733.545	1716.2
733.731	1769.45
733.917	1789.92
734.103	1904.61
734.289	1869.8
734.475	1765.35
734.661	1806.31
734.847	1693.67
735.033	1814.5
735.219	1667.05
735.404	1720.29
735.59	1726.44
735.776	1832.93
735.962	1787.88
736.148	1767.4
736.333	1816.55
736.519	1675.24
736.705	1726.44
736.89	1802.21
737.076	1695.72
737.262	1708.01
737.447	1691.62
737.633	1699.81
737.819	1740.77
738.004	1665
738.19	1544.17
738.375	1642.47
738.561	1671.14
738.747	1644.52
738.932	1611.75
739.118	1679.33
739.303	1691.62
739.489	1656.81
739.674	1740.77
739.859	1613.8
740.045	1585.13
740.23	1605.61
740.416	1535.98
740.601	1499.11
740.786	1562.6
740.972	1593.32
741.157	1597.42
741.342	1589.22
741.528	1634.28
741.713	1683.43
741.898	1529.83
742.084	1499.11
742.269	1570.79
742.454	1515.5
742.639	1585.13
742.824	1568.74
743.01	1511.4
743.195	1556.46
743.38	1560.55
743.565	1486.83
743.75	1488.87
743.935	1374.19
744.12	1488.87
744.305	1339.37
744.49	1370.09
744.675	1417.19
744.86	1478.63
745.045	1499.11
745.23	1470.44
745.415	1400.81
745.6	1447.91
745.785	1415.15
745.97	1372.14
746.155	1404.91
746.34	1417.19
746.525	1404.91
746.71	1478.63
746.895	1341.42
747.079	1392.62
747.264	1355.76
747.449	1413.1
747.634	1327.08
747.819	1292.27
748.003	1368.04
748.188	1259.5
748.373	1286.12
748.557	1327.08
748.742	1329.13
748.927	1218.54
749.111	1249.26
749.296	1224.69
749.481	1220.59
749.665	1257.45
749.85	1214.45
750.034	1196.01
750.219	1200.11
750.404	1159.15
750.588	1290.22
750.773	1134.57
750.957	1234.93
751.141	1155.05
751.326	1167.34
751.51	1167.34
751.695	1163.25
751.879	1118.19
752.064	1165.29
752.248	1126.38
752.432	1142.77
752.617	1251.31
752.801	1155.05
752.985	1019.89
753.17	1105.9
753.354	1099.76
753.538	1116.14
753.722	1085.42
753.907	1095.66
754.091	1003.5
754.275	1069.04
754.459	1046.51
754.643	1038.32
754.828	1066.99
755.012	1003.5
755.196	1011.7
755.38	1044.46
755.564	978.93
755.748	1003.5
755.932	1003.5
756.116	970.74
756.3	995.31
756.484	1048.56
756.668	940.02
756.852	868.34
757.036	933.87
757.22	917.49
757.404	917.49
757.588	1042.42
757.772	897.01
757.956	921.59
758.14	968.69
758.323	933.87
758.507	888.82
758.691	901.11
758.875	899.06
759.059	929.78
759.242	890.87
759.426	962.55
759.61	800.76
759.794	854
759.977	868.34
760.161	987.12
760.345	925.68
760.528	774.13
760.712	815.09
760.895	790.52
761.079	712.69
761.263	802.8
761.446	727.03
761.63	821.24
761.813	921.59
761.997	913.39
762.18	841.72
762.364	776.18
762.547	765.94
762.731	808.95
762.914	792.56
763.098	749.56
763.281	819.19
763.464	856.05
763.648	759.8
763.831	741.36
764.015	671.73
764.198	823.28
764.381	747.51
764.564	788.47
764.748	765.94
764.931	817.14
765.114	673.78
765.297	761.84
765.481	675.83
765.664	724.98
765.847	767.99
766.03	675.83
766.213	671.73
766.397	659.45
766.58	718.84
766.763	710.65
766.946	727.03
767.129	710.65
767.312	675.83
767.495	727.03
767.678	720.89
767.861	741.36
768.044	706.55
768.227	704.5
768.41	684.02
768.593	720.89
768.776	659.45
768.959	718.84
769.142	747.51
769.324	731.12
769.507	612.34
769.69	645.11
769.873	710.65
770.056	743.41
770.239	647.16
770.421	686.07
770.604	628.73
770.787	669.69
770.97	577.53
771.152	700.41
771.335	677.88
771.518	696.31
771.7	659.45
771.883	702.45
772.066	636.92
772.248	675.83
772.431	575.48
772.613	653.3
772.796	663.54
772.978	610.29
773.161	653.3
773.343	653.3
773.526	559.1
773.708	585.72
773.891	589.82
774.073	659.45
774.256	626.68
774.438	675.83
774.621	552.95
774.803	636.92
774.985	557.05
775.168	518.14
775.35	524.28
775.532	522.23
775.715	520.18
775.897	532.47
776.079	479.22
776.261	530.42
776.444	524.28
776.626	634.87
776.808	493.56
776.99	442.36
777.173	491.51
777.355	530.42
777.537	511.99
777.719	589.82
777.901	509.94
778.083	536.57
778.265	425.98
778.447	569.34
778.629	475.13
778.811	487.42
778.993	448.51
779.175	516.09
779.357	503.8
779.539	520.18
779.721	518.14
779.903	487.42
780.085	489.46
780.267	448.51
780.449	520.18
780.631	503.8
780.812	514.04
780.994	430.07
781.176	446.46
781.358	430.07
781.54	458.75
781.721	479.22
781.903	460.79
782.085	462.84
782.267	503.8
782.448	475.13
782.63	366.59
782.812	389.11
782.993	438.27
783.175	462.84
783.357	450.55
783.538	421.88
783.72	385.02
783.901	423.93
784.083	417.79
784.264	389.11
784.446	358.39
784.627	407.55
784.809	430.07
784.99	354.3
785.172	374.78
785.353	364.54
785.535	317.44
785.716	339.96
785.897	364.54
786.079	366.59
786.26	323.58
786.441	366.59
786.623	335.87
786.804	292.86
786.985	358.39
787.167	315.39
787.348	276.48
787.529	307.2
787.71	421.88
787.891	401.4
788.073	284.67
788.254	167.93
788.435	380.92
788.616	307.2
788.797	233.47
788.978	342.01
789.159	284.67
789.34	364.54
789.522	278.52
789.703	315.39
789.884	311.29
790.065	276.48
790.246	354.3
790.427	264.19
790.607	217.08
790.788	270.33
790.969	249.85
791.15	344.06
791.331	233.47
791.512	280.57
791.693	221.18
791.874	311.29
792.054	268.28
792.235	266.24
792.416	315.39
792.597	307.2
792.778	301.05
792.958	233.47
793.139	309.24
793.32	233.47
793.5	274.43
793.681	256
793.862	260.09
794.042	307.2
794.223	282.62
794.404	260.09
794.584	165.89
794.765	188.41
794.945	278.52
795.126	323.58
795.306	249.85
795.487	249.85
795.667	235.52
795.848	210.94
796.028	194.56
796.209	262.14
796.389	249.85
796.57	221.18
796.75	219.13
796.93	251.9
797.111	286.72
797.291	202.75
797.471	202.75
797.652	247.8
797.832	200.7
798.012	249.85
798.192	229.37
798.373	178.17
798.553	192.51
798.733	286.72
798.913	163.84
799.093	188.41
799.274	186.37
799.454	299
799.634	225.28
799.814	178.17
799.994	188.41
800.174	200.7
800.354	192.51
800.534	200.7
800.714	290.81
800.894	169.98
801.074	145.41
801.254	165.89
801.434	155.65
801.614	208.89
801.794	155.65
801.974	806.9
802.154	153.6
802.334	227.32
802.514	194.56
802.693	178.17
802.873	198.65
803.053	231.42
803.233	167.93
803.413	186.37
803.592	178.17
803.772	180.22
803.952	249.85
804.131	194.56
804.311	126.97
804.491	204.8
804.67	167.93
804.85	182.27
805.03	163.84
805.209	198.65
805.389	122.88
805.568	126.97
805.748	188.41
805.928	94.21
806.107	176.13
806.287	192.51
806.466	159.74
806.646	137.21
806.825	176.13
807.004	147.45
807.184	104.45
807.363	114.69
807.543	112.64
807.722	139.26
807.901	129.02
808.081	133.12
808.26	83.97
808.439	221.18
808.619	167.93
808.798	122.88
808.977	217.08
809.156	163.84
809.336	137.21
809.515	184.32
809.694	133.12
809.873	169.98
810.052	159.74
810.231	153.6
810.411	180.22
810.59	251.9
810.769	110.59
810.948	167.93
811.127	108.54
811.306	94.21
811.485	110.59
811.664	129.02
811.843	86.01
812.022	94.21
812.201	69.63
812.38	112.64
812.559	143.36
812.737	102.4
812.916	71.68
813.095	94.21
813.274	90.11
813.453	172.03
813.632	137.21
813.811	137.21
813.989	151.55
814.168	67.58
814.347	118.78
814.526	129.02
814.704	98.3
814.883	133.12
815.062	172.03
815.24	126.97
815.419	110.59
815.598	135.17
815.776	71.68
815.955	55.3
816.133	94.21
816.312	169.98
816.49	90.11
816.669	38.91
816.847	126.97
817.026	129.02
817.204	34.82
817.383	143.36
817.561	96.25
817.74	126.97
817.918	83.97
818.097	40.96
818.275	10.24
818.453	45.06
818.632	114.69
818.81	45.06
818.988	122.88
819.167	4.1
819.345	63.49
819.523	133.12
819.701	10.24
819.879	61.44
820.058	96.25
820.236	104.45
820.414	24.58
820.592	75.77
820.77	106.49
820.948	57.34
821.127	65.54
821.305	145.41
821.483	49.15
821.661	96.25
821.839	55.3
822.017	75.77
822.195	36.86
822.373	98.3
822.551	75.77
822.729	114.69
822.907	12.29
823.085	-2.05
823.262	90.11
823.44	-16.38
823.618	69.63
823.796	55.3
823.974	59.39
824.152	63.49
824.329	79.87
824.507	63.49
824.685	4.1
824.863	53.25
825.04	45.06
825.218	159.74
825.396	12.29
825.574	61.44
825.751	61.44
825.929	126.97
826.107	36.86
826.284	86.01
826.462	98.3
826.639	45.06
826.817	28.67
826.994	73.73
827.172	45.06
827.349	102.4
827.527	53.25
827.704	65.54
827.882	49.15
828.059	159.74
828.237	90.11
828.414	106.49
828.591	43.01
828.769	92.16
828.946	-14.34
829.124	86.01
829.301	38.91
829.478	55.3
829.655	38.91
829.833	102.4
830.01	32.77
830.187	135.17
830.364	102.4
830.542	-12.29
830.719	137.21
830.896	14.34
831.073	26.62
831.25	94.21
831.427	90.11
831.604	20.48
831.782	4.1
831.959	61.44
832.136	28.67
832.313	38.91
832.49	4.1
832.667	110.59
832.844	4.1
833.021	40.96
833.198	71.68
833.374	61.44
833.551	32.77
833.728	90.11
833.905	106.49
834.082	-4.1
834.259	106.49
834.436	104.45
834.612	6.14
834.789	45.06
834.966	77.82
835.143	86.01
835.319	-10.24
835.496	104.45
835.673	-10.24
835.85	112.64
836.026	43.01
836.203	20.48
836.38	12.29
836.556	38.91
836.733	0
836.909	88.06
837.086	-36.86
837.262	30.72
837.439	14.34
837.616	47.1
837.792	-28.67
837.968	94.21
838.145	-16.38
838.321	38.91
838.498	49.15
838.674	96.25
838.851	26.62
839.027	53.25
839.203	24.58
839.38	53.25
839.556	36.86
839.732	61.44
839.909	16.38
840.085	45.06
840.261	-12.29
840.437	30.72
840.614	36.86
840.79	69.63
840.966	61.44
841.142	131.07
841.318	26.62
841.494	-38.91
841.671	71.68
841.847	45.06
842.023	20.48
842.199	28.67
842.375	86.01
842.551	0
842.727	124.93
842.903	71.68
843.079	-8.19
843.255	47.1
843.431	94.21
843.607	4.1
843.783	36.86
843.959	61.44
844.134	98.3
844.31	6.14
844.486	38.91
844.662	104.45
844.838	67.58
845.013	61.44
845.189	36.86
845.365	67.58
845.541	65.54
845.716	-4.1
845.892	65.54
846.068	0
846.244	8.19
846.419	110.59
846.595	28.67
846.77	30.72
846.946	36.86
847.122	8.19
847.297	10.24
847.473	102.4
847.648	-86.01
847.824	77.82
847.999	4.1
848.175	118.78
848.35	22.53
848.526	71.68
848.701	28.67
848.876	40.96
849.052	32.77
849.227	55.3
849.403	10.24
849.578	28.67
849.753	55.3
849.929	45.06
850.104	30.72
850.279	4.1
850.454	57.34
850.63	20.48
850.805	-10.24
850.98	20.48
851.155	18.43
851.33	71.68
851.505	81.92
851.681	63.49
851.856	49.15
852.031	-30.72
852.206	36.86
852.381	-36.86
852.556	-20.48
852.731	94.21
852.906	40.96
853.081	6.14
853.256	20.48
853.431	38.91
853.606	77.82
853.781	53.25
853.956	-38.91
854.131	69.63
854.305	-2.05
854.48	12.29
854.655	-22.53
854.83	-49.15
855.005	45.06
855.18	20.48
855.354	24.58
855.529	71.68
855.704	36.86
855.879	-2.05
856.053	0
856.228	-2.05
856.403	14.34
856.577	-20.48
856.752	4.1
856.926	63.49
857.101	-28.67
857.276	4.1
857.45	2.05
857.625	32.77
857.799	16.38
857.974	6.14
858.148	-47.1
858.323	12.29
858.497	-12.29
858.672	-20.48
858.846	-77.82
859.02	4.1
859.195	-67.58
859.369	-6.14
859.543	12.29
859.718	61.44
859.892	14.34
860.066	40.96
860.241	-28.67
860.415	34.82
860.589	-43.01
860.763	61.44
860.938	-34.82
861.112	28.67
861.286	-12.29
861.46	-20.48
861.634	22.53
861.808	47.1
861.982	-12.29
862.157	-40.96
862.331	-43.01
862.505	8.19
862.679	-65.53
862.853	-20.48
863.027	49.15
863.201	63.49
863.375	28.67
863.549	-32.77
863.722	-18.43
863.896	38.91
864.07	-10.24
864.244	16.38
864.418	-2.05
864.592	59.39
864.766	73.73
864.939	53.25
865.113	-61.44
865.287	100.35
865.461	4.1
865.634	47.1
865.808	0
865.982	24.58
866.156	8.19
866.329	-28.67
866.503	-16.38
866.676	32.77
866.85	53.25
867.024	-2.05
867.197	6.14
867.371	53.25
867.544	24.58
867.718	-26.62
867.891	22.53
868.065	45.06
868.238	2.05
868.412	-4.1
868.585	-20.48
868.759	-10.24
868.932	12.29
869.105	28.67
869.279	28.67
869.452	57.34
869.625	36.86
869.799	57.34
869.972	-26.62
870.145	-81.92
870.319	34.82
870.492	32.77
870.665	-22.53
870.838	-32.77
871.011	-71.68
871.185	4.1
871.358	-30.72
871.531	-47.1
871.704	-83.97
871.877	43.01
872.05	-61.44
872.223	8.19
872.396	102.4
872.569	-22.53
872.742	-65.53
872.915	-36.86
873.088	-40.96
873.261	-59.39
873.434	40.96
873.607	-14.34
873.78	-4.1
873.953	-18.43
874.126	-4.1
874.299	69.63
874.471	69.63
874.644	-43.01
874.817	69.63
874.99	53.25
875.163	-75.77
875.335	12.29
875.508	47.1
875.681	90.11
875.853	-8.19
876.026	69.63
876.199	8.19
876.371	49.15
876.544	-20.48
876.717	30.72
876.889	-43.01
877.062	-28.67
877.234	-67.58
877.407	20.48
877.579	-55.3
877.752	45.06
877.924	45.06
878.097	45.06
878.269	8.19
878.442	49.15
878.614	81.92
878.786	47.1
878.959	-10.24
879.131	-67.58
879.303	-26.62
879.476	12.29
879.648	20.48
879.82	61.44
879.993	-4.1
880.165	-8.19
880.337	38.91
880.509	-8.19
880.681	-43.01
880.854	-18.43
881.026	-12.29
881.198	73.73
881.37	-57.34
881.542	-4.1
881.714	-16.38
881.886	28.67
882.058	6.14
882.23	22.53
882.402	-26.62
882.574	-16.38
882.746	-26.62
882.918	61.44
883.09	14.34
883.262	-36.86
883.434	-16.38
883.606	28.67
883.778	-24.58
883.95	22.53
884.122	-14.34
884.293	-32.77
884.465	-51.2
884.637	36.86
884.809	-26.62
884.98	6.14
885.152	57.34
885.324	18.43
885.496	-14.34
885.667	30.72
885.839	18.43
886.011	36.86
886.182	18.43
886.354	0
886.525	12.29
886.697	63.49
886.869	12.29
887.04	-88.06
887.212	14.34
887.383	61.44
887.555	-26.62
887.726	-8.19
887.897	-12.29
888.069	49.15
888.24	36.86
888.412	43.01
888.583	-2.05
888.754	71.68
888.926	-12.29
889.097	-94.21
889.268	-49.15
889.44	8.19
889.611	-24.58
889.782	16.38
889.953	59.39
890.125	-4.1
890.296	26.62
890.467	-20.48
890.638	-18.43
890.809	-34.82
890.98	-30.72
891.151	-28.67
891.323	22.53
891.494	26.62
891.665	-40.96
891.836	-65.53
892.007	16.38
892.178	-8.19
892.349	8.19
892.52	-83.97
892.691	38.91
892.862	12.29
893.032	-65.53
893.203	-16.38
893.374	-69.63
893.545	14.34
893.716	-12.29
893.887	38.91
894.057	-51.2
894.228	49.15
894.399	-69.63
894.57	-24.58
894.74	-61.44
894.911	6.14
895.082	20.48
895.253	-28.67
895.423	-8.19
895.594	51.2
895.764	4.1
895.935	-43.01
896.106	40.96
896.276	-12.29
896.447	-18.43
896.617	-81.92
896.788	-34.82
896.958	28.67
897.129	30.72
897.299	-26.62
897.47	-86.01
897.64	71.68
897.81	22.53
897.981	43.01
898.151	12.29
898.322	53.25
898.492	-28.67
898.662	2.05
898.832	-30.72
899.003	-10.24
899.173	24.58
899.343	36.86
899.513	-6.14
