Data from USB4F104151__242__14-45-47-583.txt Node

Date: Thu Mar 13 14:45:47 EDT 2025
User: louis
Spectrometer: USB4F10415
Trigger mode: 4
Integration Time (sec): 2.000000E-2
Scans to average: 1
Electric dark correction enabled: true
Nonlinearity correction enabled: false
Boxcar width: 0
XAxis mode: Wavelengths
Number of Pixels in Spectrum: 3648
>>>>>Begin Spectral Data<<<<<
178.204	-145.06
178.424	-145.06
178.644	-145.06
178.864	-130.73
179.084	-159.4
179.304	26.96
179.524	-38.57
179.744	-7.85
179.964	41.3
180.184	2.39
180.404	4.44
180.624	39.25
180.844	-40.62
181.064	-22.19
181.283	10.58
181.503	33.11
181.723	-48.81
181.943	-104.11
182.163	49.49
182.383	-7.85
182.602	10.58
182.822	-9.9
183.042	-57
183.262	-16.04
183.482	41.3
183.701	-32.43
183.921	0.34
184.141	-3.75
184.361	37.2
184.58	-24.23
184.8	-5.8
185.02	-57
185.239	78.16
185.459	35.16
185.679	29.01
185.898	8.53
186.118	-22.19
186.338	8.53
186.557	31.06
186.777	-3.75
186.997	18.77
187.216	-7.85
187.436	63.83
187.655	10.58
187.875	8.53
188.095	16.73
188.314	76.12
188.534	82.26
188.753	-7.85
188.973	37.2
189.192	16.73
189.412	59.73
189.631	-18.09
189.851	33.11
190.07	41.3
190.29	29.01
190.509	-48.81
190.729	76.12
190.948	96.6
191.168	115.03
191.387	53.59
191.607	-40.62
191.826	24.92
192.045	24.92
192.265	-3.75
192.484	29.01
192.704	-5.8
192.923	-20.14
193.142	123.22
193.362	69.97
193.581	16.73
193.8	49.49
194.02	100.69
194.239	12.63
194.458	-5.8
194.678	-24.23
194.897	53.59
195.116	37.2
195.335	43.35
195.555	22.87
195.774	57.68
195.993	49.49
196.212	-16.04
196.432	29.01
196.651	45.4
196.87	-7.85
197.089	117.08
197.308	-13.99
197.528	82.26
197.747	-36.52
197.966	-9.9
198.185	10.58
198.404	-38.57
198.623	14.68
198.842	108.88
199.062	57.68
199.281	16.73
199.5	57.68
199.719	-20.14
199.938	22.87
200.157	45.4
200.376	80.21
200.595	49.49
200.814	-7.85
201.033	-61.1
201.252	88.4
201.471	16.73
201.69	61.78
201.909	55.64
202.128	65.88
202.347	49.49
202.566	-3.75
202.785	6.49
203.004	45.4
203.223	117.08
203.442	82.26
203.661	20.82
203.879	41.3
204.098	-7.85
204.317	-9.9
204.536	57.68
204.755	-48.81
204.974	31.06
205.193	80.21
205.411	65.88
205.63	39.25
205.849	51.54
206.068	78.16
206.287	0.34
206.505	29.01
206.724	-20.14
206.943	-20.14
207.162	33.11
207.381	-3.75
207.599	-16.04
207.818	37.2
208.037	-1.71
208.255	16.73
208.474	63.83
208.693	20.82
208.911	0.34
209.13	33.11
209.349	31.06
209.567	-16.04
209.786	57.68
210.005	98.64
210.223	-3.75
210.442	37.2
210.661	12.63
210.879	-32.43
211.098	65.88
211.316	0.34
211.535	12.63
211.753	-3.75
211.972	33.11
212.191	-36.52
212.409	49.49
212.628	47.44
212.846	69.97
213.065	16.73
213.283	10.58
213.502	-13.99
213.72	10.58
213.938	0.34
214.157	10.58
214.375	33.11
214.594	-69.29
214.812	57.68
215.031	65.88
215.249	18.77
215.467	-48.81
215.686	8.53
215.904	37.2
216.122	-34.47
216.341	0.34
216.559	10.58
216.778	24.92
216.996	78.16
217.214	-7.85
217.432	20.82
217.651	-40.62
217.869	-9.9
218.087	31.06
218.306	37.2
218.524	12.63
218.742	45.4
218.96	8.53
219.179	-57
219.397	78.16
219.615	43.35
219.833	43.35
220.051	-42.67
220.27	51.54
220.488	90.45
220.706	10.58
220.924	24.92
221.142	41.3
221.36	31.06
221.578	-3.75
221.796	18.77
222.015	4.44
222.233	-7.85
222.451	94.55
222.669	-13.99
222.887	49.49
223.105	24.92
223.323	10.58
223.541	-46.76
223.759	72.02
223.977	43.35
224.195	-1.71
224.413	35.16
224.631	35.16
224.849	-11.95
225.067	63.83
225.285	-67.24
225.503	-44.71
225.721	-3.75
225.939	94.55
226.157	-3.75
226.375	135.51
226.592	-63.15
226.81	-32.43
227.028	10.58
227.246	24.92
227.464	2.39
227.682	16.73
227.9	65.88
228.117	8.53
228.335	33.11
228.553	-114.34
228.771	-13.99
228.989	49.49
229.206	6.49
229.424	-32.43
229.642	-13.99
229.86	-7.85
230.077	20.82
230.295	-30.38
230.513	49.49
230.731	49.49
230.948	33.11
231.166	16.73
231.384	-24.23
231.601	-28.33
231.819	63.83
232.037	-7.85
232.254	-57
232.472	76.12
232.689	-54.95
232.907	57.68
233.125	20.82
233.342	78.16
233.56	6.49
233.777	-20.14
233.995	35.16
234.213	76.12
234.43	-63.15
234.648	-5.8
234.865	-22.19
235.083	41.3
235.3	-22.19
235.518	-24.23
235.735	69.97
235.953	49.49
236.17	-48.81
236.388	12.63
236.605	-48.81
236.822	24.92
237.04	51.54
237.257	67.92
237.475	18.77
237.692	53.59
237.909	51.54
238.127	-3.75
238.344	125.27
238.562	86.36
238.779	10.58
238.996	41.3
239.214	41.3
239.431	35.16
239.648	-57
239.865	61.78
240.083	92.5
240.3	37.2
240.517	-13.99
240.735	51.54
240.952	14.68
241.169	41.3
241.386	-30.38
241.603	6.49
241.821	10.58
242.038	117.08
242.255	26.96
242.472	22.87
242.689	74.07
242.907	61.78
243.124	0.34
243.341	26.96
243.558	8.53
243.775	-5.8
243.992	-36.52
244.209	-32.43
244.426	104.79
244.643	45.4
244.86	-3.75
245.078	74.07
245.295	-11.95
245.512	67.92
245.729	29.01
245.946	121.17
246.163	-1.71
246.38	51.54
246.597	-34.47
246.814	49.49
247.031	82.26
247.248	65.88
247.464	37.2
247.681	-28.33
247.898	16.73
248.115	-65.19
248.332	-48.81
248.549	69.97
248.766	20.82
248.983	74.07
249.2	-18.09
249.417	53.59
249.633	24.92
249.85	4.44
250.067	33.11
250.284	49.49
250.501	-44.71
250.717	18.77
250.934	49.49
251.151	67.92
251.368	26.96
251.585	-48.81
251.801	31.06
252.018	-1.71
252.235	4.44
252.451	-85.67
252.668	90.45
252.885	29.01
253.102	26.96
253.318	57.68
253.535	-16.04
253.752	-36.52
253.968	65.88
254.185	78.16
254.401	76.12
254.618	12.63
254.835	33.11
255.051	90.45
255.268	-5.8
255.484	35.16
255.701	10.58
255.917	26.96
256.134	22.87
256.351	94.55
256.567	-57
256.784	14.68
257	16.73
257.217	53.59
257.433	61.78
257.65	12.63
257.866	16.73
258.082	-7.85
258.299	16.73
258.515	41.3
258.732	-3.75
258.948	-11.95
259.165	20.82
259.381	0.34
259.597	12.63
259.814	-11.95
260.03	26.96
260.246	55.64
260.463	33.11
260.679	20.82
260.895	-5.8
261.112	18.77
261.328	18.77
261.544	16.73
261.761	20.82
261.977	-26.28
262.193	-44.71
262.409	22.87
262.626	45.4
262.842	98.64
263.058	4.44
263.274	90.45
263.49	-3.75
263.707	43.35
263.923	49.49
264.139	61.78
264.355	-20.14
264.571	41.3
264.787	24.92
265.004	67.92
265.22	53.59
265.436	0.34
265.652	18.77
265.868	74.07
266.084	-3.75
266.3	55.64
266.516	-5.8
266.732	-79.53
266.948	51.54
267.164	8.53
267.38	51.54
267.596	18.77
267.812	106.84
268.028	49.49
268.244	0.34
268.46	-9.9
268.676	47.44
268.892	57.68
269.108	26.96
269.324	37.2
269.54	-3.75
269.756	10.58
269.972	-11.95
270.188	0.34
270.403	-16.04
270.619	20.82
270.835	51.54
271.051	-22.19
271.267	41.3
271.483	69.97
271.698	-11.95
271.914	16.73
272.13	18.77
272.346	-13.99
272.562	57.68
272.777	51.54
272.993	-71.34
273.209	61.78
273.425	55.64
273.64	49.49
273.856	43.35
274.072	-28.33
274.287	-69.29
274.503	57.68
274.719	82.26
274.934	-46.76
275.15	-48.81
275.366	24.92
275.581	33.11
275.797	2.39
276.012	41.3
276.228	33.11
276.444	-36.52
276.659	92.5
276.875	-48.81
277.09	-7.85
277.306	4.44
277.521	16.73
277.737	35.16
277.952	20.82
278.168	29.01
278.383	39.25
278.599	-32.43
278.814	41.3
279.03	51.54
279.245	63.83
279.461	106.84
279.676	16.73
279.892	22.87
280.107	-24.23
280.322	110.93
280.538	65.88
280.753	-48.81
280.969	6.49
281.184	26.96
281.399	45.4
281.615	45.4
281.83	20.82
282.045	-28.33
282.26	-30.38
282.476	0.34
282.691	74.07
282.906	6.49
283.122	51.54
283.337	-5.8
283.552	51.54
283.767	10.58
283.983	16.73
284.198	-28.33
284.413	43.35
284.628	-11.95
284.843	-20.14
285.058	20.82
285.274	-16.04
285.489	69.97
285.704	18.77
285.919	90.45
286.134	35.16
286.349	18.77
286.564	0.34
286.779	57.68
286.995	59.73
287.21	-16.04
287.425	86.36
287.64	0.34
287.855	57.68
288.07	-36.52
288.285	26.96
288.5	29.01
288.715	12.63
288.93	35.16
289.145	20.82
289.36	53.59
289.575	26.96
289.79	37.2
290.004	12.63
290.219	8.53
290.434	-30.38
290.649	49.49
290.864	18.77
291.079	14.68
291.294	16.73
291.509	18.77
291.724	-5.8
291.938	59.73
292.153	69.97
292.368	-11.95
292.583	8.53
292.798	-46.76
293.012	82.26
293.227	10.58
293.442	-81.58
293.657	41.3
293.871	69.97
294.086	10.58
294.301	12.63
294.516	74.07
294.73	43.35
294.945	-16.04
295.16	16.73
295.374	90.45
295.589	67.92
295.804	-20.14
296.018	-18.09
296.233	57.68
296.447	-24.23
296.662	-5.8
296.877	33.11
297.091	61.78
297.306	16.73
297.52	-57
297.735	12.63
297.949	-16.04
298.164	-9.9
298.378	-42.67
298.593	2.39
298.807	-71.34
299.022	41.3
299.236	-30.38
299.451	67.92
299.665	-5.8
299.88	-36.52
300.094	16.73
300.309	0.34
300.523	51.54
300.737	43.35
300.952	33.11
301.166	8.53
301.381	57.68
301.595	-13.99
301.809	45.4
302.024	67.92
302.238	-5.8
302.452	33.11
302.667	-3.75
302.881	26.96
303.095	12.63
303.309	69.97
303.524	-124.58
303.738	37.2
303.952	-65.19
304.166	59.73
304.381	-57
304.595	53.59
304.809	49.49
305.023	61.78
305.237	-52.91
305.452	72.02
305.666	78.16
305.88	2.39
306.094	-3.75
306.308	4.44
306.522	41.3
306.736	10.58
306.95	76.12
307.164	8.53
307.379	8.53
307.593	51.54
307.807	37.2
308.021	78.16
308.235	65.88
308.449	61.78
308.663	-3.75
308.877	82.26
309.091	-13.99
309.305	16.73
309.519	-69.29
309.733	76.12
309.947	26.96
310.161	8.53
310.374	-7.85
310.588	72.02
310.802	10.58
311.016	41.3
311.23	82.26
311.444	61.78
311.658	-16.04
311.872	43.35
312.085	14.68
312.299	-13.99
312.513	102.74
312.727	12.63
312.941	-28.33
313.154	24.92
313.368	-40.62
313.582	2.39
313.796	78.16
314.009	24.92
314.223	8.53
314.437	-57
314.651	29.01
314.864	-5.8
315.078	14.68
315.292	-30.38
315.505	-22.19
315.719	-24.23
315.933	-44.71
316.146	18.77
316.36	24.92
316.573	16.73
316.787	41.3
317.001	-7.85
317.214	31.06
317.428	63.83
317.641	2.39
317.855	-32.43
318.068	-32.43
318.282	43.35
318.495	49.49
318.709	53.59
318.922	-32.43
319.136	41.3
319.349	31.06
319.563	57.68
319.776	29.01
319.99	0.34
320.203	78.16
320.417	-22.19
320.63	-16.04
320.843	76.12
321.057	26.96
321.27	6.49
321.483	33.11
321.697	96.6
321.91	49.49
322.124	33.11
322.337	57.68
322.55	-22.19
322.763	-50.86
322.977	22.87
323.19	59.73
323.403	-22.19
323.617	24.92
323.83	96.6
324.043	-20.14
324.256	33.11
324.469	41.3
324.683	69.97
324.896	-32.43
325.109	51.54
325.322	8.53
325.535	43.35
325.748	0.34
325.962	33.11
326.175	37.2
326.388	33.11
326.601	10.58
326.814	94.55
327.027	-30.38
327.24	86.36
327.453	16.73
327.666	65.88
327.879	12.63
328.092	18.77
328.305	-52.91
328.518	10.58
328.731	57.68
328.944	74.07
329.157	57.68
329.37	-48.81
329.583	78.16
329.796	108.88
330.009	14.68
330.222	2.39
330.435	41.3
330.648	8.53
330.861	-3.75
331.073	86.36
331.286	-13.99
331.499	45.4
331.712	2.39
331.925	65.88
332.138	0.34
332.35	86.36
332.563	39.25
332.776	16.73
332.989	-7.85
333.202	4.44
333.414	20.82
333.627	-24.23
333.84	26.96
334.053	0.34
334.265	-7.85
334.478	55.64
334.691	26.96
334.903	29.01
335.116	-16.04
335.329	29.01
335.541	8.53
335.754	92.5
335.966	-11.95
336.179	-7.85
336.392	65.88
336.604	33.11
336.817	35.16
337.029	51.54
337.242	41.3
337.454	-5.8
337.667	-22.19
337.88	35.16
338.092	57.68
338.305	37.2
338.517	20.82
338.729	67.92
338.942	94.55
339.154	-63.15
339.367	-9.9
339.579	-63.15
339.792	98.64
340.004	41.3
340.217	65.88
340.429	-26.28
340.641	-5.8
340.854	-3.75
341.066	-32.43
341.278	0.34
341.491	18.77
341.703	76.12
341.915	-79.53
342.128	55.64
342.34	-24.23
342.552	33.11
342.764	65.88
342.977	2.39
343.189	-32.43
343.401	53.59
343.613	-11.95
343.826	12.63
344.038	0.34
344.25	-7.85
344.462	65.88
344.674	2.39
344.886	18.77
345.099	-13.99
345.311	-48.81
345.523	-44.71
345.735	-32.43
345.947	49.49
346.159	49.49
346.371	-11.95
346.583	-16.04
346.795	76.12
347.007	29.01
347.219	33.11
347.431	2.39
347.643	82.26
347.855	49.49
348.067	14.68
348.279	35.16
348.491	6.49
348.703	45.4
348.915	-5.8
349.127	-13.99
349.339	74.07
349.551	-54.95
349.763	57.68
349.975	-20.14
350.187	92.5
350.399	14.68
350.61	53.59
350.822	20.82
351.034	29.01
351.246	-7.85
351.458	65.88
351.669	8.53
351.881	33.11
352.093	-18.09
352.305	8.53
352.517	37.2
352.728	41.3
352.94	4.44
353.152	33.11
353.363	-48.81
353.575	43.35
353.787	10.58
353.999	16.73
354.21	12.63
354.422	-32.43
354.633	33.11
354.845	-48.81
355.057	16.73
355.268	55.64
355.48	49.49
355.692	8.53
355.903	35.16
356.115	4.44
356.326	-46.76
356.538	65.88
356.749	33.11
356.961	33.11
357.172	49.49
357.384	104.79
357.595	172.37
357.807	43.35
358.018	18.77
358.23	20.82
358.441	-11.95
358.653	117.08
358.864	-61.1
359.075	35.16
359.287	43.35
359.498	41.3
359.709	31.06
359.921	78.16
360.132	74.07
360.344	12.63
360.555	-32.43
360.766	86.36
360.977	2.39
361.189	74.07
361.4	20.82
361.611	18.77
361.823	57.68
362.034	49.49
362.245	8.53
362.456	18.77
362.667	8.53
362.879	37.2
363.09	8.53
363.301	2.39
363.512	24.92
363.723	-13.99
363.935	59.73
364.146	0.34
364.357	-48.81
364.568	100.69
364.779	18.77
364.99	-57
365.201	8.53
365.412	22.87
365.623	-48.81
365.834	12.63
366.045	-3.75
366.256	-5.8
366.467	57.68
366.678	14.68
366.889	-24.23
367.1	2.39
367.311	104.79
367.522	-40.62
367.733	18.77
367.944	16.73
368.155	24.92
368.366	-16.04
368.577	33.11
368.788	-48.81
368.999	16.73
369.209	-5.8
369.42	59.73
369.631	106.84
369.842	18.77
370.053	65.88
370.264	8.53
370.474	22.87
370.685	74.07
370.896	-28.33
371.107	90.45
371.317	-9.9
371.528	59.73
371.739	41.3
371.95	78.16
372.16	67.92
372.371	4.44
372.582	39.25
372.792	-13.99
373.003	18.77
373.214	-28.33
373.424	110.93
373.635	57.68
373.846	82.26
374.056	-57
374.267	-20.14
374.477	22.87
374.688	98.64
374.898	-3.75
375.109	61.78
375.319	-65.19
375.53	61.78
375.74	35.16
375.951	20.82
376.161	106.84
376.372	69.97
376.582	-32.43
376.793	92.5
377.003	-46.76
377.214	57.68
377.424	55.64
377.635	22.87
377.845	-32.43
378.055	10.58
378.266	10.58
378.476	-42.67
378.686	59.73
378.897	26.96
379.107	78.16
379.317	90.45
379.528	18.77
379.738	-71.34
379.948	-83.63
380.158	-38.57
380.369	-26.28
380.579	-9.9
380.789	43.35
380.999	125.27
381.21	-3.75
381.42	88.4
381.63	37.2
381.84	12.63
382.05	18.77
382.261	10.58
382.471	82.26
382.681	41.3
382.891	29.01
383.101	37.2
383.311	8.53
383.521	10.58
383.731	67.92
383.941	10.58
384.151	63.83
384.361	49.49
384.571	65.88
384.781	59.73
384.991	47.44
385.201	102.74
385.411	57.68
385.621	10.58
385.831	18.77
386.041	69.97
386.251	-5.8
386.461	10.58
386.671	82.26
386.881	35.16
387.091	16.73
387.301	67.92
387.511	49.49
387.72	59.73
387.93	49.49
388.14	-24.23
388.35	49.49
388.56	47.44
388.769	-7.85
388.979	82.26
389.189	10.58
389.399	31.06
389.609	53.59
389.818	41.3
390.028	106.84
390.238	14.68
390.447	49.49
390.657	80.21
390.867	65.88
391.076	2.39
391.286	92.5
391.496	29.01
391.705	-11.95
391.915	82.26
392.125	43.35
392.334	86.36
392.544	92.5
392.753	72.02
392.963	41.3
393.172	12.63
393.382	-38.57
393.591	55.64
393.801	6.49
394.01	53.59
394.22	76.12
394.429	-16.04
394.639	41.3
394.848	92.5
395.058	78.16
395.267	51.54
395.477	57.68
395.686	57.68
395.895	49.49
396.105	158.03
396.314	63.83
396.524	59.73
396.733	57.68
396.942	117.08
397.152	45.4
397.361	90.45
397.57	69.97
397.78	94.55
397.989	115.03
398.198	59.73
398.407	45.4
398.617	80.21
398.826	-3.75
399.035	115.03
399.244	24.92
399.453	86.36
399.663	106.84
399.872	90.45
400.081	65.88
400.29	57.68
400.499	16.73
400.708	125.27
400.917	61.78
401.127	39.25
401.336	76.12
401.545	98.64
401.754	205.14
401.963	147.8
402.172	82.26
402.381	4.44
402.59	131.41
402.799	67.92
403.008	86.36
403.217	94.55
403.426	14.68
403.635	65.88
403.844	86.36
404.053	69.97
404.262	106.84
404.471	147.8
404.68	129.36
404.888	125.27
405.097	57.68
405.306	115.03
405.515	117.08
405.724	90.45
405.933	106.84
406.142	155.99
406.35	149.84
406.559	131.41
406.768	145.75
406.977	248.15
407.185	123.22
407.394	135.51
407.603	141.65
407.812	98.64
408.02	268.63
408.229	164.18
408.438	153.94
408.646	160.08
408.855	205.14
409.064	198.99
409.272	143.7
409.481	203.09
409.69	196.95
409.898	205.14
410.107	198.99
410.315	227.67
410.524	131.41
410.733	254.29
410.941	205.14
411.15	246.1
411.358	303.44
411.567	336.21
411.775	280.91
411.984	280.91
412.192	274.77
412.401	244.05
412.609	436.56
412.818	278.87
413.026	315.73
413.234	356.69
413.443	393.55
413.651	364.88
413.86	438.61
414.068	446.8
414.276	483.66
414.485	508.24
414.693	452.94
414.901	534.86
415.11	502.09
415.318	502.09
415.526	481.61
415.734	557.39
415.943	581.96
416.151	616.78
416.359	606.54
416.567	598.35
416.776	702.79
416.984	629.07
417.192	778.57
417.4	698.7
417.608	684.36
417.817	770.38
418.025	778.57
418.233	835.91
418.441	813.38
418.649	788.81
418.857	913.74
419.065	919.88
419.273	934.22
419.481	946.5
419.689	1018.18
419.897	958.79
420.105	1053
420.313	1096
420.521	1081.67
420.729	1206.59
420.937	1149.25
421.145	1151.3
421.353	1397.06
421.561	1460.54
421.769	1384.77
421.977	1397.06
422.185	1384.77
422.393	1526.08
422.601	1685.82
422.809	1655.1
423.017	1640.76
423.224	1618.24
423.432	1745.21
423.64	1728.83
423.848	1929.53
424.056	1911.1
424.263	1968.44
424.471	1982.78
424.679	2097.46
424.887	2130.23
425.094	2246.96
425.302	2224.44
425.51	2375.99
425.718	2519.34
425.925	2394.42
426.133	2472.24
426.341	2664.75
426.548	2730.28
426.756	2705.71
426.964	2928.94
427.171	2851.11
427.379	3047.72
427.586	3111.21
427.794	3178.79
428.001	3256.61
428.209	3375.39
428.417	3359.01
428.624	3703.07
428.832	3559.71
429.039	3666.21
429.247	3621.15
429.454	4038.94
429.662	4260.12
429.869	3985.69
430.076	4170.01
430.284	4137.24
430.491	4278.55
430.699	4583.7
430.906	4548.88
431.114	4677.9
431.321	4864.27
431.528	4927.75
431.736	5095.69
431.943	5515.52
432.15	5320.96
432.358	5359.88
432.565	5572.86
432.772	5413.12
432.979	5804.28
433.187	5955.83
433.394	5832.96
433.601	6338.8
433.808	6336.76
434.016	6467.83
434.223	6744.3
434.43	6988.01
434.637	6916.33
434.844	7405.8
435.052	7459.04
435.259	7241.96
435.466	7483.62
435.673	7450.85
435.88	8007.9
436.087	8274.14
436.294	8466.64
436.501	8194.26
436.708	8151.26
436.915	8659.15
437.122	8984.78
437.329	8913.1
437.537	9160.91
437.743	9509.06
437.95	9154.76
438.157	9746.62
438.364	10098.88
438.571	9846.98
438.778	10129.59
438.985	11045.04
439.192	10623.16
439.399	10830
439.606	10399.93
439.813	11534.5
440.02	11985.05
440.227	11567.27
440.433	11612.32
440.64	12052.64
440.847	11921.57
441.054	12304.54
441.261	13074.57
441.467	12787.86
441.674	12949.65
441.881	13570.18
442.088	13715.59
442.294	13643.91
442.501	13713.54
442.708	14145.66
442.914	14563.45
443.121	15155.31
443.328	14772.34
443.534	15886.43
443.741	15226.99
443.948	15233.13
444.154	16298.08
444.361	16236.64
444.568	16633.94
444.774	16289.88
444.981	16562.26
445.187	16898.13
445.394	17766.47
445.6	17524.81
445.807	18968.63
446.013	18188.35
446.22	18714.68
446.426	19566.63
446.633	19728.42
446.839	20340.77
447.046	19306.54
447.252	20324.38
447.459	20461.6
447.665	20320.29
447.871	21309.46
448.078	22312.96
448.284	21137.43
448.491	21418
448.697	22761.47
448.903	22777.85
449.11	22935.54
449.316	22816.76
449.522	23295.99
449.728	23666.67
449.935	23926.76
450.141	24045.54
450.347	24664.03
450.553	24010.73
450.76	24362.98
450.966	24991.7
451.172	24686.56
451.378	25311.19
451.584	24797.15
451.791	25346
451.997	25376.72
452.203	25628.62
452.409	25618.38
452.615	25462.74
452.821	24539.1
453.027	24516.58
453.233	26111.94
453.44	24829.91
453.646	24899.55
453.852	25329.62
454.058	25833.42
454.264	24801.24
454.47	25356.24
454.676	24424.42
454.882	25618.38
455.088	23300.08
455.294	24070.12
455.5	24102.89
455.705	24555.49
455.911	23539.69
456.117	23406.58
456.323	22910.97
456.529	21575.69
456.735	22515.71
456.941	21944.33
457.147	21487.63
457.352	21047.32
457.558	20672.54
457.764	20928.53
457.97	20535.32
458.176	19861.54
458.381	20015.14
458.587	19009.59
458.793	18985.01
458.999	18264.13
459.204	19324.97
459.41	18839.61
459.616	17571.91
459.821	17719.37
460.027	17616.97
460.233	17291.34
460.438	16531.55
460.644	16654.42
460.85	15802.47
461.055	15501.42
461.261	15698.02
461.466	14424.19
461.672	14041.22
461.878	15018.1
462.083	13992.06
462.289	13951.1
462.494	13574.28
462.7	13064.33
462.905	12664.98
463.111	13062.29
463.316	13156.49
463.522	12636.31
463.727	12656.79
463.932	12820.63
464.138	12759.19
464.343	12773.52
464.549	12435.61
464.754	12773.52
464.959	12576.92
465.165	12220.57
465.37	12083.36
465.575	11749.54
465.781	12255.39
465.986	12357.78
466.191	11819.17
466.397	11806.88
466.602	10879.15
466.807	11468.97
467.012	11460.77
467.218	11554.98
467.423	11501.73
467.628	11364.52
467.833	11665.57
468.038	11104.43
468.244	11094.19
468.449	11352.23
468.654	11157.68
468.859	11141.29
469.064	10838.19
469.269	10434.74
469.474	10670.26
469.679	10879.15
469.885	10576.05
470.09	10694.83
470.295	10584.24
470.5	10291.38
470.705	10391.73
470.91	10365.11
471.115	10100.92
471.32	10234.04
471.525	10068.16
471.73	9910.46
471.935	9822.4
472.139	9582.79
472.344	9765.06
472.549	9617.6
472.754	9584.84
472.959	9380.04
473.164	9150.67
473.369	9056.46
473.574	9400.52
473.778	9283.78
473.983	9251.02
474.188	9248.97
474.393	8939.72
474.598	8671.44
474.802	8755.41
475.007	8636.63
475.212	8659.15
475.417	8315.09
475.621	8487.12
475.826	8267.99
476.031	8208.6
476.235	7971.04
476.44	8224.98
476.645	8034.52
476.849	7979.23
477.054	7909.6
477.259	7821.53
477.463	7784.67
477.668	7665.89
477.872	7846.11
478.077	7639.26
478.282	7254.25
478.486	7184.62
478.691	7219.43
478.895	7250.15
479.1	7377.12
479.304	7424.23
479.509	6922.48
479.713	7229.67
479.918	7055.59
480.122	6858.99
480.326	6992.11
480.531	6949.1
480.735	6793.45
480.94	6861.04
481.144	7049.45
481.348	6549.75
481.553	6791.41
481.757	6664.43
481.961	6756.59
482.166	6963.44
482.37	6777.07
482.574	6559.99
482.778	6738.16
482.983	6885.61
483.187	6666.48
483.391	6795.5
483.595	6617.33
483.8	6506.74
484.004	6686.96
484.208	6834.41
484.412	6795.5
484.616	6924.52
484.821	6672.62
485.025	6529.27
485.229	6791.41
485.433	6545.65
485.637	6711.53
485.841	6545.65
486.045	6840.56
486.249	6793.45
486.453	6574.32
486.657	6815.98
486.861	6693.1
487.065	6439.16
487.269	6496.5
487.473	6584.56
487.677	6719.73
487.881	6783.21
488.085	6586.61
488.289	6754.54
488.493	6643.95
488.697	6768.88
488.901	6594.8
489.105	6693.1
489.309	6809.84
489.512	6752.49
489.716	6744.3
489.92	6754.54
490.124	6768.88
490.328	6885.61
490.531	6844.65
490.735	6906.09
490.939	6922.48
491.143	6799.6
491.346	6869.23
491.55	6973.67
491.754	6947.05
491.958	6955.24
492.161	6889.71
492.365	7176.42
492.569	7151.85
492.772	7168.23
492.976	6953.2
493.18	7104.74
493.383	7368.93
493.587	7534.82
493.79	7360.74
493.994	7327.97
494.197	7299.3
494.401	7413.99
494.605	7409.89
494.808	7577.83
495.012	7307.49
495.215	7594.21
495.419	7723.23
495.622	7485.67
495.825	7743.71
496.029	7712.99
496.232	7764.19
496.436	7971.04
496.639	7993.56
496.843	8052.95
497.046	8102.11
497.249	8151.26
497.453	8372.44
497.656	8417.49
497.859	8253.66
498.063	8597.71
498.266	8564.95
498.469	8710.35
498.673	8696.02
498.876	8921.29
499.079	8884.43
499.282	8939.72
499.485	9167.05
499.689	9150.67
499.892	9230.54
500.095	9371.85
500.298	9355.46
500.501	9486.53
500.705	9668.8
500.908	9853.12
501.111	9873.6
501.314	10059.96
501.517	10227.9
501.72	10453.17
501.923	10268.86
502.126	10512.56
502.329	10678.45
502.532	10725.55
502.735	10846.38
502.938	10801.33
503.141	11069.61
503.344	11002.03
503.547	11255.98
503.75	11403.43
503.953	11477.16
504.156	11870.37
504.359	11804.83
504.562	12091.55
504.765	12187.8
504.968	12288.15
505.17	12429.46
505.373	12538.01
505.576	12581.01
505.779	12613.78
505.982	12830.87
506.185	13244.56
506.387	13090.96
506.59	13047.95
506.793	13392.01
506.996	13471.88
507.198	13830.27
507.401	13746.31
507.604	13983.87
507.807	14346.36
508.009	14137.47
508.212	14338.17
508.415	14682.23
508.617	14534.78
508.82	15057.01
509.022	14944.37
509.225	15341.68
509.428	15384.68
509.63	15278.19
509.833	15345.77
510.035	15962.21
510.238	15691.88
510.44	16048.22
510.643	16382.04
510.845	16541.78
511.048	16420.95
511.25	16867.41
511.453	16701.53
511.655	17430.6
511.858	17170.51
512.06	17358.92
512.262	17401.93
512.465	17647.69
512.667	17821.77
512.87	18133.06
513.072	18186.3
513.274	18571.32
513.477	18726.97
513.679	18765.88
513.881	19169.33
514.084	19009.59
514.286	19077.17
514.488	19284.02
514.69	19793.96
514.893	19916.84
515.095	20019.24
515.297	20224.03
515.499	20242.46
515.701	20527.13
515.904	20570.14
516.106	20830.23
516.308	21415.95
516.51	21397.52
516.712	21456.91
516.914	21645.32
517.116	21831.69
517.318	22089.73
517.52	22151.17
517.722	22441.98
517.925	22319.1
518.127	23085.05
518.329	22855.67
518.531	22743.03
518.733	23304.18
518.935	23494.64
519.136	23750.63
519.338	24104.93
519.54	24104.93
519.742	24483.81
519.944	24518.62
520.146	24893.4
520.348	25094.1
520.55	24766.43
520.752	24981.46
520.954	25657.29
521.155	25565.14
521.357	25962.44
521.559	26015.69
521.761	26408.9
521.963	26015.69
522.164	26712
522.366	26597.31
522.568	26634.17
522.77	27094.97
522.971	27479.99
523.173	27279.29
523.375	27428.79
523.576	27805.61
523.778	27824.04
523.98	27850.67
524.181	27938.73
524.383	28125.1
524.584	28397.48
524.786	28526.5
524.988	28516.26
525.189	28643.23
525.391	28874.65
525.592	29169.56
525.794	29265.81
525.995	29648.78
526.197	29386.64
526.398	29681.55
526.6	29593.49
526.801	29833.1
527.003	30013.32
527.204	29880.21
527.406	30394.25
527.607	30404.49
527.808	30504.84
528.01	29759.38
528.211	30355.33
528.412	30947.2
528.614	30756.74
528.815	30996.35
529.016	31022.97
529.218	30850.94
529.419	30801.79
529.62	31053.69
529.822	31063.93
530.023	31086.46
530.224	31072.12
530.425	31063.93
530.626	30943.1
530.828	30850.94
531.029	31514.48
531.23	31168.38
531.431	31242.1
531.632	31364.98
531.833	31586.16
532.035	31551.35
532.236	31362.93
532.437	31874.93
532.638	31403.89
532.839	31631.22
533.04	31635.31
533.241	31358.84
533.442	31901.55
533.643	31807.34
533.844	32155.5
534.045	31973.23
534.246	31518.58
534.447	32167.79
534.648	31960.94
534.849	31706.99
535.05	31608.69
535.251	31893.36
535.451	32079.72
535.652	32356.2
535.853	32085.87
536.054	31985.52
536.255	31991.66
536.456	31702.9
536.657	32538.47
536.857	31924.08
537.058	31928.17
537.259	32208.75
537.46	32221.03
537.66	31309.69
537.861	32235.37
538.062	32018.28
538.263	31995.76
538.463	31891.31
538.664	31893.36
538.865	32022.38
539.065	32118.64
539.266	31801.2
539.466	32458.6
539.667	31864.69
539.868	32247.66
540.068	31790.96
540.269	31946.61
540.469	31942.51
540.67	31715.19
540.87	31922.03
541.071	32143.21
541.271	32038.76
541.472	32032.62
541.672	31489.91
541.873	31582.07
542.073	31596.4
542.274	31868.78
542.474	31825.78
542.675	31602.55
542.875	32270.18
543.075	32221.03
543.276	31721.33
543.476	32094.06
543.676	32110.44
543.877	31836.02
544.077	31946.61
544.277	31905.65
544.478	31897.45
544.678	32083.82
544.878	31825.78
545.078	31430.52
545.279	31467.38
545.479	31780.72
545.679	31745.9
545.879	31901.55
546.079	31895.41
546.28	31745.9
546.48	31600.5
546.68	31692.66
546.88	31588.21
547.08	31672.18
547.28	31457.14
547.48	30982.01
547.68	31829.87
547.88	31502.2
548.081	31659.89
548.281	31637.36
548.481	31762.29
548.681	31756.14
548.881	31506.29
549.081	31510.39
549.28	31410.04
549.48	31780.72
549.68	31465.33
549.88	32153.45
550.08	31459.19
550.28	31608.69
550.48	31559.54
550.68	31819.63
550.88	31217.53
551.08	31702.9
551.279	31481.72
551.479	31199.1
551.679	31442.81
551.879	31205.24
552.079	31422.33
552.278	31195
552.478	31313.78
552.678	31367.03
552.878	31545.2
553.077	31297.4
553.277	30971.77
553.477	31586.16
553.676	31004.54
553.876	31412.09
554.076	31096.7
554.275	31154.04
554.475	30664.58
554.674	30982.01
554.874	31307.64
555.074	31096.7
555.273	30881.66
555.473	31238.01
555.672	30930.81
555.872	30928.77
556.071	31096.7
556.271	30998.4
556.47	30723.97
556.67	30629.76
556.869	30932.86
557.068	30951.29
557.268	30869.37
557.467	30873.47
557.667	30791.55
557.866	30818.18
558.065	30607.23
558.265	30396.29
558.464	30424.97
558.663	30691.2
558.863	30306.18
559.062	30801.79
559.261	30199.69
559.461	30799.74
559.66	30308.23
559.859	30267.27
560.058	30097.29
560.258	30508.93
560.457	29833.1
560.656	30181.26
560.855	29869.97
561.054	30211.98
561.253	29564.82
561.453	30105.48
561.652	29960.08
561.851	29861.77
562.05	29896.59
562.249	29271.96
562.448	30310.28
562.647	29845.39
562.846	29540.24
563.045	29865.87
563.244	29632.4
563.443	29740.94
563.642	29450.13
563.841	29716.37
564.04	29448.08
564.239	29826.96
564.438	29204.38
564.637	29163.42
564.836	29431.7
565.035	28964.76
565.234	29243.29
565.432	28874.65
565.631	29163.42
565.83	28897.18
566.029	28708.77
566.228	28434.34
566.427	28708.77
566.625	28252.07
566.824	28465.06
567.023	28757.92
567.222	28137.38
567.42	28643.23
567.619	28319.65
567.818	28309.41
568.016	28266.41
568.215	28356.52
568.414	27813.8
568.612	28477.35
568.811	27674.54
569.01	28063.66
569.208	27910.06
569.407	27858.86
569.605	27582.38
569.804	27641.78
570.002	27471.79
570.201	27856.81
570.4	27692.97
570.598	27664.3
570.797	27115.45
570.995	27641.78
571.193	27013.05
571.392	27510.71
571.59	27021.24
571.789	27375.54
571.987	26910.65
572.186	26947.51
572.384	26861.5
572.582	26769.34
572.781	26943.42
572.979	26318.79
573.177	26652.61
573.376	26675.13
573.574	26496.96
573.772	26445.76
573.971	26292.16
574.169	26505.15
574.367	26105.8
574.565	26136.52
574.763	25855.95
574.962	26163.14
575.16	25853.9
575.358	25980.87
575.556	25862.09
575.754	26077.13
575.952	25384.91
576.151	25972.68
576.349	25270.23
576.547	25546.7
576.745	25640.91
576.943	25370.58
577.141	25569.23
577.339	25323.47
577.537	25241.56
577.735	25137.11
577.933	24819.67
578.131	25034.71
578.329	24784.86
578.527	24772.57
578.725	25151.45
578.923	24786.91
579.121	24586.21
579.319	24686.56
579.516	24475.62
579.714	24549.34
579.912	24346.59
580.11	24459.23
580.308	24297.44
580.506	24569.82
580.704	23859.18
580.901	24059.88
581.099	24248.29
581.297	23887.85
581.495	23857.13
581.692	23752.68
581.89	23719.92
582.088	23861.23
582.285	23676.91
582.483	23672.81
582.681	23594.99
582.878	23347.19
583.076	23115.76
583.274	23457.78
583.471	22982.65
583.669	23447.54
583.866	23240.69
584.064	23328.75
584.262	22757.37
584.459	23453.68
584.657	23072.76
584.854	23076.85
585.052	22499.33
585.249	22986.74
585.447	22876.15
585.644	22292.48
585.841	22716.41
586.039	22763.51
586.236	22433.79
586.434	22398.98
586.631	22142.98
586.828	22388.74
587.026	22073.35
587.223	22065.16
587.42	22169.6
587.618	22179.84
587.815	21575.69
588.012	21932.04
588.21	21610.51
588.407	21962.76
588.604	21927.94
588.801	21637.13
588.999	21409.81
589.196	21604.36
589.393	21532.68
589.59	21342.22
589.787	21579.79
589.984	21536.78
590.182	21303.31
590.379	21356.56
590.576	21209.11
590.773	21276.69
590.97	20887.57
591.167	21092.37
591.364	20750.36
591.561	20860.95
591.758	20629.53
591.955	20584.48
592.152	20793.37
592.349	20463.65
592.546	20920.34
592.743	20318.24
592.94	20047.91
593.137	20291.62
593.334	20492.32
593.531	20203.55
593.727	20021.28
593.924	20088.87
594.121	19935.27
594.318	20351.01
594.515	19718.18
594.712	19853.35
594.908	19775.53
595.105	19955.75
595.302	19554.35
595.499	19785.77
595.696	19540.01
595.892	19408.94
596.089	19392.56
596.286	19406.89
596.482	19390.51
596.679	19157.04
596.876	19224.62
597.072	19271.73
597.269	19423.28
597.466	18970.68
597.662	19032.11
597.859	18950.2
598.055	18987.06
598.252	19128.37
598.448	18702.39
598.645	18753.59
598.841	18389.05
599.038	18802.74
599.234	18464.83
599.431	18538.55
599.627	18423.87
599.824	18505.79
600.02	18124.86
600.217	18399.29
600.413	18188.35
600.609	18159.68
600.806	18165.82
601.002	17956.93
601.198	17905.73
601.395	17989.7
601.591	17940.55
601.787	17989.7
601.984	18131.01
602.18	17995.84
602.376	17983.55
602.572	17514.57
602.769	17735.75
602.965	17492.04
603.161	17508.43
603.357	17199.18
603.553	17512.52
603.75	17277.01
603.946	17334.35
604.142	17190.99
604.338	16957.52
604.534	17195.09
604.73	16939.09
604.926	16877.65
605.122	17006.67
605.318	17092.69
605.514	16934.99
605.71	16869.46
605.906	16758.87
606.102	16650.33
606.298	16750.68
606.494	16771.16
606.69	16607.32
606.886	16472.15
607.082	16461.91
607.278	16525.4
607.474	16293.98
607.67	16320.6
607.866	16246.88
608.062	16345.18
608.257	16574.55
608.453	16302.17
608.649	16130.14
608.845	15911.01
609.041	16095.33
609.236	16019.55
609.432	16107.62
609.628	15984.74
609.824	15863.91
610.019	15917.15
610.215	15575.14
610.411	15947.87
610.606	15603.82
610.802	15755.36
610.998	15872.1
611.193	15618.15
611.389	15589.48
611.584	15829.09
611.78	15497.32
611.976	15573.1
612.171	15548.52
612.367	15607.91
612.562	15392.87
612.758	15280.24
612.953	15515.75
613.149	15403.11
613.344	15138.93
613.539	15528.04
613.735	15212.65
613.93	15208.56
614.126	15206.51
614.321	15167.6
614.517	15255.66
614.712	15327.34
614.907	15018.1
615.103	15222.89
615.298	14999.66
615.493	15341.68
615.688	14690.42
615.884	15057.01
616.079	14702.71
616.274	14915.7
616.47	14817.4
616.665	14807.16
616.86	15093.87
617.055	14737.52
617.25	14753.91
617.445	14813.3
617.641	14450.81
617.836	14526.58
618.031	14518.39
618.226	14655.61
618.421	14407.8
618.616	14590.07
618.811	14205.05
619.006	14418.04
619.201	14020.74
619.396	14180.48
619.591	14051.45
619.786	13893.76
619.981	13860.99
620.176	14129.28
620.371	13940.86
620.566	13865.09
620.761	13813.89
620.956	13731.97
621.151	13752.45
621.346	13510.79
621.541	13412.49
621.735	13508.74
621.93	13271.18
622.125	13555.85
622.32	13201.55
622.515	13412.49
622.709	13027.47
622.904	13035.66
623.099	12927.12
623.294	13154.44
623.488	12861.59
623.683	12918.93
623.878	12818.58
624.072	12660.88
624.267	12787.86
624.462	12415.13
624.656	12560.53
624.851	12372.12
625.046	12212.38
625.24	12288.15
625.435	12200.09
625.629	12181.66
625.824	12083.36
626.018	11931.81
626.213	11665.57
626.407	11983.01
626.602	11563.17
626.796	11774.11
626.991	11872.42
627.185	11450.53
627.38	11479.21
627.574	11765.92
627.768	11503.78
627.963	11378.86
628.157	11313.32
628.352	11159.72
628.546	11061.42
628.74	11239.59
628.935	10944.69
629.129	11022.51
629.323	10895.54
629.517	11065.52
629.712	10795.18
629.906	10952.88
630.1	10741.94
630.294	10791.09
630.489	10743.99
630.683	10465.46
630.877	10502.33
631.071	10516.66
631.265	10447.03
631.459	10352.82
631.653	10250.42
631.848	10143.93
632.042	10006.72
632.236	10186.94
632.43	10150.07
632.624	9912.51
632.818	10080.44
633.012	9619.65
633.206	9920.7
633.4	9922.75
633.594	9584.84
633.788	9732.29
633.982	9773.25
634.176	9652.42
634.369	9543.88
634.563	9509.06
634.757	9724.1
634.951	9478.34
635.145	9322.7
635.339	9310.41
635.533	9191.63
635.726	9394.37
635.92	9246.92
636.114	9054.41
636.308	8974.54
636.501	8982.73
636.695	9124.04
636.889	8753.36
637.083	9093.32
637.276	8675.54
637.47	8855.76
637.664	8782.03
637.857	8810.7
638.051	8653.01
638.244	8691.92
638.438	8507.6
638.632	8585.43
638.825	8546.51
639.019	8581.33
639.212	8317.14
639.406	8220.89
639.599	8227.03
639.793	8177.88
639.986	8149.21
640.18	8179.93
640.373	8202.46
640.567	7997.66
640.76	8118.49
640.954	7915.74
641.147	7923.93
641.34	7917.79
641.534	7915.74
641.727	7856.35
641.92	7809.25
642.114	7839.97
642.307	7655.65
642.5	7540.96
642.694	7586.02
642.887	7553.25
643.08	7506.15
643.273	7373.03
643.467	7569.63
643.66	7356.65
643.853	7397.6
644.046	7205.1
644.239	7268.58
644.432	7198.95
644.626	7229.67
644.819	7147.75
645.012	7022.83
645.205	7143.66
645.398	7078.12
645.591	6906.09
645.784	6949.1
645.977	6992.11
646.17	6869.23
646.363	6854.89
646.556	6770.93
646.749	6846.7
646.942	6832.37
647.135	6666.48
647.328	6734.06
647.521	6619.38
647.714	6623.47
647.907	6564.08
648.099	6676.72
648.292	6607.09
648.485	6613.23
648.678	6433.01
648.871	6496.5
649.064	6347
649.256	6258.93
649.449	6217.97
649.642	6203.64
649.835	6254.84
650.027	6011.13
650.22	6091
650.413	6222.07
650.605	6029.56
650.798	6082.81
650.991	6021.37
651.183	5976.31
651.376	5871.87
651.568	5820.67
651.761	5949.69
651.954	5835
652.146	5785.85
652.339	5867.77
652.531	5734.65
652.724	5728.51
652.916	5656.83
653.109	5718.27
653.301	5611.78
653.494	5613.82
653.686	5443.84
653.879	5591.3
654.071	5480.71
654.263	5400.83
654.456	5431.55
654.648	5431.55
654.84	5419.27
655.033	5402.88
655.225	5492.99
655.417	5153.03
655.61	5159.17
655.802	5202.18
655.994	5218.57
656.186	5271.81
656.379	5146.89
656.571	5136.65
656.763	5050.63
656.955	4981
657.148	5103.88
657.34	5150.98
657.532	5013.77
657.724	5060.87
657.916	5081.35
658.108	4786.44
658.3	4958.47
658.492	4884.75
658.684	4854.03
658.876	4802.83
659.068	4743.44
659.26	4739.34
659.452	4849.93
659.644	4782.35
659.836	4727.05
660.028	4708.62
660.22	4542.74
660.412	4591.89
660.604	4598.03
660.796	4483.34
660.988	4542.74
661.18	4448.53
661.372	4426
661.563	4387.09
661.755	4339.99
661.947	4227.35
662.139	4428.05
662.331	4397.33
662.522	4301.08
662.714	4247.83
662.906	4385.04
663.097	4366.61
663.289	4038.94
663.481	4268.31
663.673	4215.06
663.864	4120.85
664.056	4090.13
664.247	4112.66
664.439	4200.73
664.631	4022.55
664.822	4086.04
665.014	4028.7
665.205	3891.48
665.397	3981.59
665.588	3893.53
665.78	3918.11
665.971	3944.73
666.163	3924.25
666.354	3897.63
666.546	3807.52
666.737	3776.8
666.929	3727.64
667.12	3905.82
667.311	3830.04
667.503	3752.22
667.694	3885.34
667.885	3696.92
668.077	3760.41
668.268	3631.39
668.459	3762.46
668.651	3811.61
668.842	3707.16
669.033	3559.71
669.224	3647.77
669.416	3678.49
669.607	3664.16
669.798	3399.97
669.989	3662.11
670.18	3625.25
670.371	3531.04
670.563	3467.55
670.754	3518.75
670.945	3453.22
671.136	3572
671.327	3383.59
671.518	3373.35
671.709	3514.66
671.9	3404.07
672.091	3338.53
672.282	3385.63
672.473	3414.31
672.664	3342.63
672.855	3301.67
673.046	3324.19
673.237	3250.47
673.428	3129.64
673.619	3199.27
673.809	3227.94
674	3234.08
674.191	3137.83
674.382	3318.05
674.573	3088.68
674.764	3121.45
674.954	3301.67
675.145	3162.41
675.336	3166.5
675.527	3199.27
675.717	3037.48
675.908	3180.84
676.099	2998.57
676.289	3074.34
676.48	2978.09
676.671	3057.96
676.861	3008.81
677.052	3000.62
677.243	2976.04
677.433	3074.34
677.624	3039.53
677.814	2916.65
678.005	2982.18
678.195	2943.27
678.386	2875.69
678.576	3031.34
678.767	3027.24
678.957	3047.72
679.148	2883.88
679.338	3057.96
679.529	2765.1
679.719	2912.55
679.909	2853.16
680.1	2855.21
680.29	2769.2
680.481	2855.21
680.671	2838.83
680.861	2984.23
681.052	2750.76
681.242	2890.03
681.432	2935.08
681.622	2756.91
681.813	2804.01
682.003	2808.11
682.193	2689.32
682.383	2744.62
682.573	2781.48
682.764	2672.94
682.954	2785.58
683.144	2703.66
683.334	2761
683.524	2593.07
683.714	2748.72
683.904	2681.13
684.094	2752.81
684.284	2687.28
684.474	2785.58
684.664	2703.66
684.854	2726.19
685.044	2601.26
685.234	2498.86
685.424	2625.84
685.614	2523.44
685.804	2621.74
685.994	2521.39
686.184	2568.49
686.374	2566.45
686.564	2537.77
686.753	2568.49
686.943	2511.15
687.133	2523.44
687.323	2517.29
687.513	2552.11
687.702	2474.29
687.892	2390.32
688.082	2474.29
688.272	2507.06
688.461	2478.38
688.651	2580.78
688.841	2482.48
689.03	2425.14
689.22	2535.73
689.41	2394.42
689.599	2466.1
689.789	2429.23
689.979	2404.66
690.168	2380.08
690.358	2410.8
690.547	2416.94
690.737	2408.75
690.926	2320.69
691.116	2285.87
691.305	2314.55
691.495	2332.98
691.684	2212.15
691.874	2347.31
692.063	2238.77
692.252	2197.81
692.442	2187.57
692.631	2226.48
692.82	2212.15
693.01	2163
693.199	2285.87
693.388	2072.89
693.578	2208.05
693.767	2294.07
693.956	2228.53
694.146	2109.75
694.335	2107.7
694.524	2105.65
694.713	2148.66
694.902	2167.09
695.092	2171.19
695.281	2050.36
695.47	2152.76
695.659	2122.04
695.848	2140.47
696.037	2091.32
696.226	2087.22
696.415	2107.7
696.604	2056.5
696.793	2074.93
696.982	2019.64
697.171	2076.98
697.36	2048.31
697.549	2044.21
697.738	2019.64
697.927	2146.61
698.116	2097.46
698.305	2036.02
698.494	1954.1
698.683	1970.49
698.872	2038.07
699.061	1927.48
699.25	1995.06
699.438	1988.92
699.627	1917.24
699.816	2062.65
700.005	1933.62
700.193	1982.78
700.382	1925.43
700.571	2027.83
700.76	2023.73
700.948	1952.06
701.137	1810.75
701.326	1945.91
701.514	1925.43
701.703	2007.35
701.892	1900.86
702.08	1974.58
702.269	1900.86
702.457	2007.35
702.646	1933.62
702.834	1835.32
703.023	1941.82
703.212	1929.53
703.4	1929.53
703.589	1763.64
703.777	1911.1
703.965	1872.18
704.154	1837.37
704.342	1794.36
704.531	1923.38
704.719	1794.36
704.907	1982.78
705.096	1843.51
705.284	1823.03
705.472	1909.05
705.661	1782.07
705.849	1958.2
706.037	1907
706.226	1843.51
706.414	2025.78
706.602	1851.71
706.79	1935.67
706.979	1943.86
707.167	1886.52
707.355	1943.86
707.543	1866.04
707.731	1900.86
707.919	1986.87
708.107	1843.51
708.296	1874.23
708.484	1775.93
708.672	1851.71
708.86	1818.94
709.048	1974.58
709.236	1929.53
709.424	1911.1
709.612	1923.38
709.8	1861.94
709.988	1888.57
710.176	1876.28
710.364	1806.65
710.551	1835.32
710.739	1751.35
710.927	1866.04
711.115	1823.03
711.303	1818.94
711.491	1888.57
711.679	1861.94
711.866	1863.99
712.054	1835.32
712.242	1872.18
712.43	1923.38
712.617	1884.47
712.805	1839.42
712.993	1814.84
713.181	1868.09
713.368	1937.72
713.556	1810.75
713.744	1798.46
713.931	1966.39
714.119	1823.03
714.306	1886.52
714.494	1788.22
714.682	1769.79
714.869	1884.47
715.057	1835.32
715.244	1849.66
715.432	1800.51
715.619	1863.99
715.807	1829.18
715.994	1851.71
716.182	1827.13
716.369	1917.24
716.556	1950.01
716.744	1761.59
716.931	1913.14
717.119	1880.38
717.306	1829.18
717.493	1794.36
717.681	1831.23
717.868	1802.55
718.055	1808.7
718.242	1872.18
718.43	1861.94
718.617	1878.33
718.804	1771.83
718.991	1935.67
719.179	1837.37
719.366	1859.9
719.553	1747.26
719.74	1870.14
719.927	1855.8
720.114	1827.13
720.301	1847.61
720.488	1773.88
720.676	1806.65
720.863	1954.1
721.05	1751.35
721.237	1749.31
721.424	1769.79
721.611	1732.92
721.798	1794.36
721.985	1835.32
722.172	1857.85
722.358	1857.85
722.545	1876.28
722.732	1802.55
722.919	1845.56
723.106	1755.45
723.293	1671.48
723.48	1907
723.667	1827.13
723.853	1769.79
724.04	1790.27
724.227	1884.47
724.414	1790.27
724.6	1782.07
724.787	1945.91
724.974	1714.49
725.161	1923.38
725.347	1876.28
725.534	1810.75
725.72	1876.28
725.907	1818.94
726.094	1802.55
726.28	1761.59
726.467	1886.52
726.653	1761.59
726.84	1769.79
727.027	1798.46
727.213	1773.88
727.4	1839.42
727.586	1769.79
727.773	1763.64
727.959	1761.59
728.145	1739.07
728.332	1761.59
728.518	1730.87
728.705	1794.36
728.891	1700.16
729.077	1804.6
729.264	1763.64
729.45	1780.03
729.636	1722.68
729.823	1829.18
730.009	1767.74
730.195	1861.94
730.382	1761.59
730.568	1798.46
730.754	1839.42
730.94	1820.99
731.126	1861.94
731.313	1859.9
731.499	1804.6
731.685	1818.94
731.871	1804.6
732.057	1679.68
732.243	1749.31
732.429	1747.26
732.615	1827.13
732.801	1802.55
732.987	1694.01
733.173	1741.11
733.359	1696.06
733.545	1720.64
733.731	1806.65
733.917	1730.87
734.103	1769.79
734.289	1769.79
734.475	1616.19
734.661	1845.56
734.847	1804.6
735.033	1728.83
735.219	1610.04
735.404	1605.95
735.59	1698.11
735.776	1790.27
735.962	1757.5
736.148	1728.83
736.333	1775.93
736.519	1732.92
736.705	1745.21
736.89	1655.1
737.076	1665.34
737.262	1651
737.447	1679.68
737.633	1677.63
737.819	1755.45
738.004	1634.62
738.19	1679.68
738.375	1644.86
738.561	1689.92
738.747	1683.77
738.932	1671.48
739.118	1640.76
739.303	1638.72
739.489	1679.68
739.674	1620.28
739.859	1679.68
740.045	1696.06
740.23	1704.25
740.416	1472.83
740.601	1585.47
740.786	1620.28
740.972	1646.91
741.157	1605.95
741.342	1630.52
741.528	1540.41
741.713	1634.62
741.898	1544.51
742.084	1657.15
742.269	1665.34
742.454	1634.62
742.639	1605.95
742.824	1495.36
743.01	1601.85
743.195	1581.37
743.38	1435.97
743.565	1597.76
743.75	1564.99
743.935	1509.69
744.12	1573.18
744.305	1466.69
744.49	1503.55
744.675	1593.66
744.86	1483.07
745.045	1526.08
745.23	1405.25
745.415	1562.94
745.6	1362.24
745.785	1409.34
745.97	1503.55
746.155	1454.4
746.34	1444.16
746.525	1380.67
746.71	1503.55
746.895	1329.47
747.079	1438.02
747.264	1397.06
747.449	1425.73
747.634	1399.1
747.819	1362.24
748.003	1315.14
748.188	1323.33
748.373	1270.08
748.557	1392.96
748.742	1268.03
748.927	1315.14
749.111	1384.77
749.296	1268.03
749.481	1405.25
749.665	1317.19
749.85	1280.32
750.034	1276.23
750.219	1222.98
750.404	1231.17
750.588	1311.04
750.773	1214.79
750.957	1229.12
751.141	1190.21
751.326	1259.84
751.51	1292.61
751.695	1225.03
751.879	1167.68
752.064	1202.5
752.248	1130.82
752.432	1298.75
752.617	1132.87
752.801	1184.07
752.985	1057.09
753.17	1151.3
753.354	1212.74
753.538	1196.36
753.722	1171.78
753.907	1110.34
754.091	1200.45
754.275	1153.35
754.459	1147.2
754.643	1063.24
754.828	1128.77
755.012	1083.72
755.196	1167.68
755.38	1132.87
755.564	1042.76
755.748	1038.66
755.932	966.98
756.116	1024.33
756.3	1130.82
756.484	1009.99
756.668	977.22
756.852	983.37
757.036	958.79
757.22	975.17
757.404	991.56
757.588	995.65
757.772	1044.81
757.956	993.61
758.14	962.89
758.323	964.93
758.507	1001.8
758.691	950.6
758.875	872.78
759.059	1048.9
759.242	928.07
759.426	966.98
759.61	958.79
759.794	903.5
759.977	901.45
760.161	991.56
760.345	883.02
760.528	989.51
760.712	919.88
760.895	817.48
761.079	885.06
761.263	893.26
761.446	860.49
761.63	844.1
761.813	897.35
761.997	848.2
762.18	903.5
762.364	893.26
762.547	749.9
762.731	848.2
762.914	842.06
763.098	835.91
763.281	811.34
763.464	725.32
763.648	803.15
763.831	788.81
764.015	790.86
764.198	862.54
764.381	741.71
764.564	713.03
764.748	807.24
764.931	799.05
765.114	813.38
765.297	811.34
765.481	764.23
765.664	721.23
765.847	729.42
766.03	837.96
766.213	680.27
766.397	729.42
766.58	696.65
766.763	700.75
766.946	721.23
767.129	764.23
767.312	713.03
767.495	772.43
767.678	762.19
767.861	706.89
768.044	692.55
768.227	735.56
768.41	698.7
768.593	842.06
768.776	708.94
768.959	723.27
769.142	770.38
769.324	758.09
769.507	661.84
769.69	698.7
769.873	672.08
770.056	753.99
770.239	725.32
770.421	762.19
770.604	794.95
770.787	647.5
770.97	710.99
771.152	721.23
771.335	702.79
771.518	667.98
771.7	801.1
771.883	706.89
772.066	637.26
772.248	680.27
772.431	672.08
772.613	577.87
772.796	618.83
772.978	704.84
773.161	698.7
773.343	633.16
773.526	606.54
773.708	631.12
773.891	616.78
774.073	573.77
774.256	616.78
774.438	584.01
774.621	649.55
774.803	604.49
774.985	594.25
775.168	700.75
775.35	559.44
775.532	647.5
775.715	524.62
775.897	667.98
776.079	581.96
776.261	557.39
776.444	575.82
776.626	624.97
776.808	475.47
776.99	575.82
777.173	606.54
777.355	608.59
777.537	522.57
777.719	553.29
777.901	434.51
778.083	536.91
778.265	567.63
778.447	604.49
778.629	463.18
778.811	569.68
778.993	590.16
779.175	541.01
779.357	561.48
779.539	516.43
779.721	508.24
779.903	516.43
780.085	471.37
780.267	508.24
780.449	430.41
780.631	485.71
780.812	426.32
780.994	579.92
781.176	512.33
781.358	444.75
781.54	479.57
781.721	414.03
781.903	438.61
782.085	459.09
782.267	477.52
782.448	409.94
782.63	356.69
782.812	500.05
782.993	487.76
783.175	360.78
783.357	395.6
783.538	397.65
783.72	389.46
783.901	452.94
784.083	436.56
784.264	420.17
784.446	381.26
784.627	420.17
784.809	377.17
784.99	377.17
785.172	352.59
785.353	422.22
785.535	307.54
785.716	373.07
785.897	334.16
786.079	344.4
786.26	387.41
786.441	328.02
786.623	328.02
786.804	319.82
786.985	426.32
787.167	436.56
787.348	325.97
787.529	354.64
787.71	416.08
787.891	336.21
788.073	368.98
788.254	307.54
788.435	362.83
788.616	258.39
788.797	254.29
788.978	344.4
789.159	332.11
789.34	321.87
789.522	254.29
789.703	307.54
789.884	252.24
790.065	285.01
790.246	360.78
790.427	340.3
790.607	295.25
790.788	278.87
790.969	237.91
791.15	315.73
791.331	282.96
791.512	305.49
791.693	237.91
791.874	319.82
792.054	303.44
792.235	311.63
792.416	287.06
792.597	311.63
792.778	289.1
792.958	217.43
793.139	332.11
793.32	352.59
793.5	205.14
793.681	246.1
793.862	256.34
794.042	192.85
794.223	254.29
794.404	209.23
794.584	188.75
794.765	295.25
794.945	217.43
795.126	276.82
795.306	272.72
795.487	209.23
795.667	295.25
795.848	215.38
796.028	201.04
796.209	262.48
796.389	299.34
796.57	215.38
796.75	176.47
796.93	289.1
797.111	198.99
797.291	221.52
797.471	246.1
797.652	242
797.832	164.18
798.012	223.57
798.192	182.61
798.373	155.99
798.553	246.1
798.733	221.52
798.913	207.19
799.093	180.56
799.274	244.05
799.454	198.99
799.634	176.47
799.814	229.71
799.994	242
800.174	237.91
800.354	190.8
800.534	196.95
800.714	155.99
800.894	180.56
801.074	119.12
801.254	186.71
801.434	229.71
801.614	248.15
801.794	106.84
801.974	770.38
802.154	172.37
802.334	174.42
802.514	158.03
802.693	213.33
802.873	213.33
803.053	182.61
803.233	153.94
803.413	141.65
803.592	151.89
803.772	180.56
803.952	141.65
804.131	92.5
804.311	229.71
804.491	149.84
804.67	121.17
804.85	158.03
805.03	254.29
805.209	190.8
805.389	164.18
805.568	166.23
805.748	98.64
805.928	102.74
806.107	139.6
806.287	205.14
806.466	65.88
806.646	119.12
806.825	127.32
807.004	123.22
807.184	162.13
807.363	196.95
807.543	108.88
807.722	188.75
807.901	285.01
808.081	135.51
808.26	125.27
808.439	155.99
808.619	57.68
808.798	69.97
808.977	166.23
809.156	110.93
809.336	123.22
809.515	155.99
809.694	123.22
809.873	180.56
810.052	196.95
810.231	180.56
810.411	84.31
810.59	90.45
810.769	155.99
810.948	196.95
811.127	63.83
811.306	106.84
811.485	69.97
811.664	145.75
811.843	94.55
812.022	98.64
812.201	74.07
812.38	115.03
812.559	65.88
812.737	158.03
812.916	45.4
813.095	100.69
813.274	51.54
813.453	59.73
813.632	2.39
813.811	141.65
813.989	49.49
814.168	74.07
814.347	102.74
814.526	139.6
814.704	180.56
814.883	117.08
815.062	158.03
815.24	117.08
815.419	80.21
815.598	133.46
815.776	55.64
815.955	137.56
816.133	104.79
816.312	141.65
816.49	106.84
816.669	100.69
816.847	63.83
817.026	172.37
817.204	90.45
817.383	90.45
817.561	57.68
817.74	35.16
817.918	153.94
818.097	49.49
818.275	88.4
818.453	115.03
818.632	106.84
818.81	51.54
818.988	53.59
819.167	119.12
819.345	151.89
819.523	35.16
819.701	131.41
819.879	139.6
820.058	63.83
820.236	133.46
820.414	45.4
820.592	110.93
820.77	90.45
820.948	0.34
821.127	14.68
821.305	137.56
821.483	37.2
821.661	155.99
821.839	49.49
822.017	41.3
822.195	35.16
822.373	106.84
822.551	92.5
822.729	131.41
822.907	49.49
823.085	137.56
823.262	106.84
823.44	35.16
823.618	45.4
823.796	139.6
823.974	41.3
824.152	76.12
824.329	33.11
824.507	129.36
824.685	4.44
824.863	-13.99
825.04	80.21
825.218	24.92
825.396	69.97
825.574	82.26
825.751	43.35
825.929	26.96
826.107	90.45
826.284	131.41
826.462	45.4
826.639	84.31
826.817	74.07
826.994	69.97
827.172	10.58
827.349	33.11
827.527	117.08
827.704	18.77
827.882	74.07
828.059	98.64
828.237	117.08
828.414	123.22
828.591	14.68
828.769	106.84
828.946	-40.62
829.124	33.11
829.301	69.97
829.478	106.84
829.655	33.11
829.833	37.2
830.01	41.3
830.187	-13.99
830.364	67.92
830.542	51.54
830.719	137.56
830.896	98.64
831.073	31.06
831.25	65.88
831.427	98.64
831.604	29.01
831.782	-9.9
831.959	100.69
832.136	82.26
832.313	61.78
832.49	6.49
832.667	33.11
832.844	2.39
833.021	57.68
833.198	-22.19
833.374	65.88
833.551	82.26
833.728	78.16
833.905	86.36
834.082	22.87
834.259	106.84
834.436	41.3
834.612	-9.9
834.789	115.03
834.966	10.58
835.143	53.59
835.319	18.77
835.496	65.88
835.673	8.53
835.85	119.12
836.026	102.74
836.203	29.01
836.38	-32.43
836.556	10.58
836.733	-16.04
836.909	51.54
837.086	33.11
837.262	-5.8
837.439	29.01
837.616	84.31
837.792	43.35
837.968	39.25
838.145	-5.8
838.321	74.07
838.498	39.25
838.674	61.78
838.851	-61.1
839.027	61.78
839.203	49.49
839.38	18.77
839.556	8.53
839.732	45.4
839.909	29.01
840.085	37.2
840.261	22.87
840.437	43.35
840.614	0.34
840.79	78.16
840.966	76.12
841.142	57.68
841.318	35.16
841.494	65.88
841.671	110.93
841.847	26.96
842.023	67.92
842.199	4.44
842.375	104.79
842.551	-11.95
842.727	-16.04
842.903	139.6
843.079	74.07
843.255	117.08
843.431	37.2
843.607	41.3
843.783	-28.33
843.959	94.55
844.134	-30.38
844.31	4.44
844.486	26.96
844.662	-7.85
844.838	-32.43
845.013	39.25
845.189	51.54
845.365	84.31
845.541	-106.15
845.716	41.3
845.892	51.54
846.068	82.26
846.244	-5.8
846.419	102.74
846.595	-7.85
846.77	51.54
846.946	96.6
847.122	8.53
847.297	33.11
847.473	20.82
847.648	20.82
847.824	8.53
847.999	-24.23
848.175	8.53
848.35	45.4
848.526	82.26
848.701	53.59
848.876	57.68
849.052	149.84
849.227	51.54
849.403	59.73
849.578	84.31
849.753	49.49
849.929	-11.95
850.104	26.96
850.279	39.25
850.454	-54.95
850.63	45.4
850.805	35.16
850.98	41.3
851.155	29.01
851.33	74.07
851.505	-65.19
851.681	12.63
851.856	0.34
852.031	65.88
852.206	-24.23
852.381	10.58
852.556	-54.95
852.731	33.11
852.906	31.06
853.081	41.3
853.256	18.77
853.431	-36.52
853.606	51.54
853.781	31.06
853.956	-46.76
854.131	82.26
854.305	-48.81
854.48	24.92
854.655	16.73
854.83	59.73
855.005	16.73
855.18	12.63
855.354	41.3
855.529	65.88
855.704	67.92
855.879	43.35
856.053	-7.85
856.228	69.97
856.403	-7.85
856.577	37.2
856.752	-30.38
856.926	39.25
857.101	74.07
857.276	-9.9
857.45	29.01
857.625	29.01
857.799	43.35
857.974	49.49
858.148	-36.52
858.323	84.31
858.497	-40.62
858.672	-24.23
858.846	10.58
859.02	90.45
859.195	45.4
859.369	39.25
859.543	16.73
859.718	67.92
859.892	-9.9
860.066	69.97
860.241	0.34
860.415	-26.28
860.589	-13.99
860.763	-16.04
860.938	-44.71
861.112	-44.71
861.286	-52.91
861.46	33.11
861.634	-61.1
861.808	-36.52
861.982	-20.14
862.157	-30.38
862.331	-16.04
862.505	-3.75
862.679	12.63
862.853	8.53
863.027	53.59
863.201	108.88
863.375	-48.81
863.549	31.06
863.722	-26.28
863.896	-5.8
864.07	49.49
864.244	-73.39
864.418	0.34
864.592	90.45
864.766	86.36
864.939	33.11
865.113	-5.8
865.287	57.68
865.461	-36.52
865.634	-20.14
865.808	43.35
865.982	33.11
866.156	-95.91
866.329	-22.19
866.503	14.68
866.676	-7.85
866.85	53.59
867.024	59.73
867.197	57.68
867.371	49.49
867.544	78.16
867.718	47.44
867.891	43.35
868.065	10.58
868.238	24.92
868.412	26.96
868.585	-44.71
868.759	8.53
868.932	-57
869.105	8.53
869.279	33.11
869.452	57.68
869.625	-3.75
869.799	-24.23
869.972	-50.86
870.145	-77.48
870.319	20.82
870.492	-13.99
870.665	33.11
870.838	0.34
871.011	-54.95
871.185	-28.33
871.358	-32.43
871.531	67.92
871.704	51.54
871.877	45.4
872.05	0.34
872.223	-36.52
872.396	41.3
872.569	-38.57
872.742	-57
872.915	0.34
873.088	-48.81
873.261	37.2
873.434	39.25
873.607	18.77
873.78	65.88
873.953	35.16
874.126	2.39
874.299	16.73
874.471	-81.58
874.644	-46.76
874.817	16.73
874.99	-61.1
875.163	-7.85
875.335	-5.8
875.508	8.53
875.681	-20.14
875.853	-32.43
876.026	84.31
876.199	45.4
876.371	76.12
876.544	8.53
876.717	24.92
876.889	26.96
877.062	-7.85
877.234	-40.62
877.407	76.12
877.579	26.96
877.752	20.82
877.924	76.12
878.097	-52.91
878.269	-32.43
878.442	-34.47
878.614	57.68
878.786	-36.52
878.959	49.49
879.131	35.16
879.303	-85.67
879.476	20.82
879.648	8.53
879.82	41.3
879.993	47.44
880.165	4.44
880.337	-73.39
880.509	10.58
880.681	-61.1
880.854	16.73
881.026	-16.04
881.198	55.64
881.37	0.34
881.542	-16.04
881.714	18.77
881.886	-28.33
882.058	-110.25
882.23	26.96
882.402	-40.62
882.574	0.34
882.746	-7.85
882.918	-36.52
883.09	29.01
883.262	2.39
883.434	-59.05
883.606	-13.99
883.778	-13.99
883.95	24.92
884.122	14.68
884.293	37.2
884.465	-3.75
884.637	55.64
884.809	-57
884.98	-32.43
885.152	-11.95
885.324	41.3
885.496	-16.04
885.667	0.34
885.839	35.16
886.011	35.16
886.182	-63.15
886.354	16.73
886.525	49.49
886.697	12.63
886.869	-54.95
887.04	-16.04
887.212	57.68
887.383	24.92
887.555	-7.85
887.726	8.53
887.897	-48.81
888.069	14.68
888.24	-7.85
888.412	-38.57
888.583	37.2
888.754	-16.04
888.926	-100.01
889.097	57.68
889.268	-7.85
889.44	24.92
889.611	-91.82
889.782	0.34
889.953	0.34
890.125	47.44
890.296	10.58
890.467	12.63
890.638	-40.62
890.809	24.92
890.98	-16.04
891.151	29.01
891.323	125.27
891.494	-32.43
891.665	-7.85
891.836	37.2
892.007	-42.67
892.178	29.01
892.349	-38.57
892.52	-16.04
892.691	29.01
892.862	-11.95
893.032	-54.95
893.203	-16.04
893.374	10.58
893.545	29.01
893.716	-63.15
893.887	-28.33
894.057	-5.8
894.228	-7.85
894.399	22.87
894.57	98.64
894.74	22.87
894.911	-32.43
895.082	24.92
895.253	-24.23
895.423	-40.62
895.594	-32.43
895.764	18.77
895.935	-97.96
896.106	-65.19
896.276	29.01
896.447	-30.38
896.617	33.11
896.788	-38.57
896.958	41.3
897.129	-61.1
897.299	-46.76
897.47	49.49
897.64	-5.8
897.81	-30.38
897.981	-24.23
898.151	6.49
898.322	-11.95
898.492	14.68
898.662	-26.28
898.832	-54.95
899.003	16.73
899.173	20.82
899.343	26.96
899.513	-11.95
