Data from USB4F104151__199__14-45-17-430.txt Node

Date: Thu Mar 13 14:45:17 EDT 2025
User: louis
Spectrometer: USB4F10415
Trigger mode: 4
Integration Time (sec): 2.000000E-2
Scans to average: 1
Electric dark correction enabled: true
Nonlinearity correction enabled: false
Boxcar width: 0
XAxis mode: Wavelengths
Number of Pixels in Spectrum: 3648
>>>>>Begin Spectral Data<<<<<
178.204	-101.72
178.424	-101.72
178.644	-101.72
178.864	-36.18
179.084	-91.48
179.304	-21.85
179.524	-11.61
179.744	-60.76
179.964	68.27
180.184	37.55
180.404	-1.37
180.624	39.59
180.844	55.98
181.064	-93.52
181.283	-19.8
181.503	-40.28
181.723	47.79
181.943	-64.85
182.163	39.59
182.383	10.92
182.602	117.42
182.822	70.31
183.042	29.35
183.262	33.45
183.482	86.7
183.701	27.31
183.921	-9.56
184.141	-21.85
184.361	62.12
184.58	47.79
184.8	37.55
185.02	0.68
185.239	78.51
185.459	47.79
185.679	0.68
185.898	2.73
186.118	6.83
186.338	51.88
186.557	39.59
186.777	-30.04
186.997	-19.8
187.216	49.83
187.436	133.8
187.655	10.92
187.875	37.55
188.095	4.78
188.314	45.74
188.534	29.35
188.753	39.59
188.973	29.35
189.192	96.94
189.412	25.26
189.631	2.73
189.851	-27.99
190.07	29.35
190.29	-19.8
190.509	12.97
190.729	-17.75
190.948	21.16
191.168	103.08
191.387	33.45
191.607	-15.7
191.826	12.97
192.045	12.97
192.265	29.35
192.484	-42.32
192.704	37.55
192.923	-9.56
193.142	17.07
193.362	-11.61
193.581	64.17
193.8	23.21
194.02	0.68
194.239	10.92
194.458	94.89
194.678	6.83
194.897	21.16
195.116	-3.41
195.335	-7.51
195.555	68.27
195.774	10.92
195.993	66.22
196.212	41.64
196.432	70.31
196.651	58.03
196.87	19.11
197.089	82.6
197.308	62.12
197.528	23.21
197.747	-19.8
197.966	49.83
198.185	68.27
198.404	55.98
198.623	6.83
198.842	-15.7
199.062	62.12
199.281	82.6
199.5	84.65
199.719	21.16
199.938	10.92
200.157	51.88
200.376	-19.8
200.595	55.98
200.814	82.6
201.033	62.12
201.252	53.93
201.471	6.83
201.69	47.79
201.909	62.12
202.128	49.83
202.347	68.27
202.566	53.93
202.785	23.21
203.004	17.07
203.223	74.41
203.442	33.45
203.661	-30.04
203.879	62.12
204.098	39.59
204.317	-23.89
204.536	58.03
204.755	19.11
204.974	29.35
205.193	-15.7
205.411	152.23
205.63	15.02
205.849	64.17
206.068	41.64
206.287	37.55
206.505	29.35
206.724	12.97
206.943	-25.94
207.162	-5.46
207.381	-19.8
207.599	12.97
207.818	-3.41
208.037	-36.18
208.255	15.02
208.474	29.35
208.693	6.83
208.911	-11.61
209.13	25.26
209.349	45.74
209.567	-1.37
209.786	53.93
210.005	49.83
210.223	4.78
210.442	72.36
210.661	-11.61
210.879	41.64
211.098	27.31
211.316	74.41
211.535	62.12
211.753	-23.89
211.972	4.78
212.191	43.69
212.409	-5.46
212.628	62.12
212.846	45.74
213.065	72.36
213.283	12.97
213.502	53.93
213.72	-3.41
213.938	53.93
214.157	12.97
214.375	53.93
214.594	-9.56
214.812	78.51
215.031	23.21
215.249	-27.99
215.467	55.98
215.686	-11.61
215.904	78.51
216.122	45.74
216.341	29.35
216.559	60.07
216.778	53.93
216.996	41.64
217.214	74.41
217.432	2.73
217.651	-50.52
217.869	51.88
218.087	-42.32
218.306	41.64
218.524	49.83
218.742	-19.8
218.96	70.31
219.179	37.55
219.397	23.21
219.615	135.85
219.833	-5.46
220.051	-48.47
220.27	39.59
220.488	-3.41
220.706	80.55
220.924	-9.56
221.142	15.02
221.36	49.83
221.578	51.88
221.796	17.07
222.015	-25.94
222.233	88.75
222.451	15.02
222.669	15.02
222.887	78.51
223.105	17.07
223.323	23.21
223.541	-52.56
223.759	31.4
223.977	39.59
224.195	103.08
224.413	113.32
224.631	70.31
224.849	64.17
225.067	127.66
225.285	39.59
225.503	-25.94
225.721	-40.28
225.939	23.21
226.157	23.21
226.375	105.13
226.592	-42.32
226.81	23.21
227.028	21.16
227.246	72.36
227.464	17.07
227.682	37.55
227.9	-3.41
228.117	86.7
228.335	12.97
228.553	2.73
228.771	78.51
228.989	29.35
229.206	35.5
229.424	86.7
229.642	37.55
229.86	12.97
230.077	12.97
230.295	-27.99
230.513	53.93
230.731	70.31
230.948	-34.13
231.166	98.99
231.384	15.02
231.601	62.12
231.819	45.74
232.037	6.83
232.254	-73.04
232.472	29.35
232.689	33.45
232.907	51.88
233.125	17.07
233.342	21.16
233.56	-11.61
233.777	12.97
233.995	53.93
234.213	113.32
234.43	2.73
234.648	-3.41
234.865	6.83
235.083	51.88
235.3	-3.41
235.518	-9.56
235.735	82.6
235.953	86.7
236.17	78.51
236.388	10.92
236.605	45.74
236.822	31.4
237.04	21.16
237.257	45.74
237.475	21.16
237.692	21.16
237.909	80.55
238.127	39.59
238.344	70.31
238.562	58.03
238.779	31.4
238.996	-36.18
239.214	-68.95
239.431	51.88
239.648	55.98
239.865	144.04
240.083	4.78
240.3	-36.18
240.517	31.4
240.735	4.78
240.952	55.98
241.169	111.27
241.386	51.88
241.603	45.74
241.821	-23.89
242.038	41.64
242.255	23.21
242.472	12.97
242.689	45.74
242.907	15.02
243.124	62.12
243.341	55.98
243.558	39.59
243.775	88.75
243.992	-48.47
244.209	90.79
244.426	66.22
244.643	33.45
244.86	-15.7
245.078	45.74
245.295	82.6
245.512	86.7
245.729	8.87
245.946	21.16
246.163	29.35
246.38	4.78
246.597	12.97
246.814	29.35
247.031	-23.89
247.248	78.51
247.464	21.16
247.681	86.7
247.898	35.5
248.115	15.02
248.332	70.31
248.549	62.12
248.766	58.03
248.983	31.4
249.2	35.5
249.417	113.32
249.633	15.02
249.85	76.46
250.067	-36.18
250.284	25.26
250.501	72.36
250.717	82.6
250.934	-27.99
251.151	29.35
251.368	25.26
251.585	55.98
251.801	6.83
252.018	-11.61
252.235	94.89
252.451	107.18
252.668	21.16
252.885	86.7
253.102	-1.37
253.318	-27.99
253.535	72.36
253.752	33.45
253.968	74.41
254.185	78.51
254.401	94.89
254.618	49.83
254.835	-60.76
255.051	58.03
255.268	10.92
255.484	45.74
255.701	47.79
255.917	15.02
256.134	25.26
256.351	-17.75
256.567	-36.18
256.784	74.41
257	-15.7
257.217	47.79
257.433	-3.41
257.65	4.78
257.866	12.97
258.082	-15.7
258.299	-25.94
258.515	4.78
258.732	21.16
258.948	33.45
259.165	25.26
259.381	45.74
259.597	86.7
259.814	47.79
260.03	21.16
260.246	-1.37
260.463	146.09
260.679	47.79
260.895	41.64
261.112	31.4
261.328	-9.56
261.544	-36.18
261.761	127.66
261.977	94.89
262.193	-25.94
262.409	88.75
262.626	-15.7
262.842	-19.8
263.058	-11.61
263.274	37.55
263.49	-7.51
263.707	21.16
263.923	45.74
264.139	96.94
264.355	51.88
264.571	66.22
264.787	109.22
265.004	72.36
265.22	92.84
265.436	121.51
265.652	31.4
265.868	88.75
266.084	-42.32
266.3	35.5
266.516	82.6
266.732	86.7
266.948	33.45
267.164	49.83
267.38	-13.65
267.596	45.74
267.812	37.55
268.028	-36.18
268.244	66.22
268.46	43.69
268.676	25.26
268.892	98.99
269.108	-30.04
269.324	45.74
269.54	23.21
269.756	78.51
269.972	66.22
270.188	23.21
270.403	8.87
270.619	25.26
270.835	86.7
271.051	-25.94
271.267	-30.04
271.483	-50.52
271.698	66.22
271.914	6.83
272.13	23.21
272.346	29.35
272.562	41.64
272.777	72.36
272.993	29.35
273.209	-46.42
273.425	19.11
273.64	-30.04
273.856	60.07
274.072	-34.13
274.287	25.26
274.503	-17.75
274.719	78.51
274.934	82.6
275.15	-81.24
275.366	62.12
275.581	-66.9
275.797	80.55
276.012	15.02
276.228	53.93
276.444	-36.18
276.659	49.83
276.875	-52.56
277.09	35.5
277.306	33.45
277.521	25.26
277.737	-3.41
277.952	29.35
278.168	31.4
278.383	23.21
278.599	-15.7
278.814	-7.51
279.03	-5.46
279.245	29.35
279.461	33.45
279.676	0.68
279.892	17.07
280.107	82.6
280.322	23.21
280.538	49.83
280.753	21.16
280.969	53.93
281.184	64.17
281.399	55.98
281.615	-17.75
281.83	0.68
282.045	-32.08
282.26	12.97
282.476	23.21
282.691	58.03
282.906	94.89
283.122	78.51
283.337	-15.7
283.552	86.7
283.767	-25.94
283.983	53.93
284.198	29.35
284.413	21.16
284.628	23.21
284.843	58.03
285.058	55.98
285.274	74.41
285.489	-1.37
285.704	107.18
285.919	41.64
286.134	12.97
286.349	43.69
286.564	12.97
286.779	94.89
286.995	33.45
287.21	37.55
287.425	4.78
287.64	8.87
287.855	72.36
288.07	55.98
288.285	148.14
288.5	62.12
288.715	96.94
288.93	0.68
289.145	21.16
289.36	70.31
289.575	60.07
289.79	31.4
290.004	0.68
290.219	25.26
290.434	-15.7
290.649	-7.51
290.864	29.35
291.079	0.68
291.294	4.78
291.509	58.03
291.724	49.83
291.938	29.35
292.153	62.12
292.368	4.78
292.583	94.89
292.798	-19.8
293.012	43.69
293.227	25.26
293.442	45.74
293.657	107.18
293.871	23.21
294.086	-13.65
294.301	146.09
294.516	70.31
294.73	58.03
294.945	-11.61
295.16	55.98
295.374	164.52
295.589	-9.56
295.804	-19.8
296.018	80.55
296.233	105.13
296.447	8.87
296.662	-9.56
296.877	58.03
297.091	4.78
297.306	55.98
297.52	88.75
297.735	45.74
297.949	49.83
298.164	25.26
298.378	33.45
298.593	21.16
298.807	25.26
299.022	58.03
299.236	23.21
299.451	-25.94
299.665	-19.8
299.88	84.65
300.094	-1.37
300.309	29.35
300.523	25.26
300.737	49.83
300.952	-25.94
301.166	45.74
301.381	94.89
301.595	29.35
301.809	88.75
302.024	49.83
302.238	-3.41
302.452	47.79
302.667	-21.85
302.881	27.31
303.095	80.55
303.309	37.55
303.524	6.83
303.738	12.97
303.952	-3.41
304.166	0.68
304.381	21.16
304.595	62.12
304.809	41.64
305.023	62.12
305.237	25.26
305.452	17.07
305.666	62.12
305.88	72.36
306.094	4.78
306.308	53.93
306.522	64.17
306.736	37.55
306.95	33.45
307.164	64.17
307.379	53.93
307.593	154.28
307.807	29.35
308.021	127.66
308.235	66.22
308.449	12.97
308.663	66.22
308.877	96.94
309.091	-40.28
309.305	53.93
309.519	29.35
309.733	82.6
309.947	-50.52
310.161	70.31
310.374	33.45
310.588	29.35
310.802	37.55
311.016	47.79
311.23	25.26
311.444	88.75
311.658	43.69
311.872	94.89
312.085	74.41
312.299	31.4
312.513	12.97
312.727	-19.8
312.941	-44.37
313.154	31.4
313.368	-7.51
313.582	70.31
313.796	31.4
314.009	27.31
314.223	33.45
314.437	31.4
314.651	82.6
314.864	111.27
315.078	21.16
315.292	29.35
315.505	94.89
315.719	68.27
315.933	33.45
316.146	51.88
316.36	19.11
316.573	78.51
316.787	-1.37
317.001	96.94
317.214	39.59
317.428	64.17
317.641	109.22
317.855	96.94
318.068	8.87
318.282	21.16
318.495	17.07
318.709	53.93
318.922	64.17
319.136	88.75
319.349	62.12
319.563	53.93
319.776	62.12
319.99	2.73
320.203	74.41
320.417	96.94
320.63	21.16
320.843	80.55
321.057	37.55
321.27	66.22
321.483	-5.46
321.697	115.37
321.91	68.27
322.124	12.97
322.337	53.93
322.55	66.22
322.763	-44.37
322.977	23.21
323.19	-1.37
323.403	58.03
323.617	-27.99
323.83	84.65
324.043	12.97
324.256	62.12
324.469	43.69
324.683	94.89
324.896	35.5
325.109	148.14
325.322	-7.51
325.535	47.79
325.748	-46.42
325.962	53.93
326.175	12.97
326.388	37.55
326.601	62.12
326.814	66.22
327.027	8.87
327.24	55.98
327.453	4.78
327.666	-32.08
327.879	78.51
328.092	121.51
328.305	78.51
328.518	15.02
328.731	4.78
328.944	17.07
329.157	64.17
329.37	62.12
329.583	121.51
329.796	88.75
330.009	0.68
330.222	35.5
330.435	39.59
330.648	62.12
330.861	12.97
331.073	45.74
331.286	45.74
331.499	-36.18
331.712	12.97
331.925	105.13
332.138	-3.41
332.35	74.41
332.563	-50.52
332.776	31.4
332.989	43.69
333.202	37.55
333.414	41.64
333.627	53.93
333.84	25.26
334.053	33.45
334.265	-34.13
334.478	37.55
334.691	41.64
334.903	82.6
335.116	-27.99
335.329	109.22
335.541	76.46
335.754	15.02
335.966	4.78
336.179	17.07
336.392	45.74
336.604	70.31
336.817	160.42
337.029	-7.51
337.242	21.16
337.454	29.35
337.667	6.83
337.88	82.6
338.092	49.83
338.305	72.36
338.517	113.32
338.729	70.31
338.942	115.37
339.154	80.55
339.367	41.64
339.579	70.31
339.792	-7.51
340.004	25.26
340.217	43.69
340.429	4.78
340.641	-25.94
340.854	10.92
341.066	21.16
341.278	53.93
341.491	105.13
341.703	39.59
341.915	23.21
342.128	94.89
342.34	47.79
342.552	15.02
342.764	47.79
342.977	33.45
343.189	45.74
343.401	144.04
343.613	-52.56
343.826	4.78
344.038	29.35
344.25	88.75
344.462	-23.89
344.674	66.22
344.886	29.35
345.099	6.83
345.311	25.26
345.523	62.12
345.735	15.02
345.947	45.74
346.159	58.03
346.371	62.12
346.583	-30.04
346.795	164.52
347.007	53.93
347.219	82.6
347.431	-50.52
347.643	58.03
347.855	4.78
348.067	53.93
348.279	33.45
348.491	-9.56
348.703	103.08
348.915	39.59
349.127	12.97
349.339	17.07
349.551	37.55
349.763	21.16
349.975	68.27
350.187	21.16
350.399	131.75
350.61	53.93
350.822	17.07
351.034	58.03
351.246	51.88
351.458	80.55
351.669	49.83
351.881	-11.61
352.093	60.07
352.305	-17.75
352.517	47.79
352.728	29.35
352.94	78.51
353.152	80.55
353.363	12.97
353.575	33.45
353.787	123.56
353.999	23.21
354.21	-19.8
354.422	37.55
354.633	33.45
354.845	37.55
355.057	86.7
355.268	152.23
355.48	90.79
355.692	25.26
355.903	35.5
356.115	70.31
356.326	-27.99
356.538	41.64
356.749	-1.37
356.961	78.51
357.172	-19.8
357.384	25.26
357.595	164.52
357.807	62.12
358.018	53.93
358.23	12.97
358.441	23.21
358.653	78.51
358.864	82.6
359.075	62.12
359.287	41.64
359.498	139.94
359.709	23.21
359.921	12.97
360.132	51.88
360.344	-3.41
360.555	72.36
360.766	29.35
360.977	62.12
361.189	80.55
361.4	74.41
361.611	103.08
361.823	-32.08
362.034	-9.56
362.245	-15.7
362.456	49.83
362.667	78.51
362.879	49.83
363.09	27.31
363.301	39.59
363.512	6.83
363.723	-9.56
363.935	72.36
364.146	53.93
364.357	19.11
364.568	29.35
364.779	45.74
364.99	43.69
365.201	0.68
365.412	62.12
365.623	6.83
365.834	17.07
366.045	144.04
366.256	41.64
366.467	70.31
366.678	37.55
366.889	107.18
367.1	82.6
367.311	4.78
367.522	70.31
367.733	6.83
367.944	62.12
368.155	62.12
368.366	23.21
368.577	33.45
368.788	78.51
368.999	103.08
369.209	119.46
369.42	133.8
369.631	70.31
369.842	23.21
370.053	10.92
370.264	53.93
370.474	88.75
370.685	55.98
370.896	45.74
371.107	141.99
371.317	105.13
371.528	55.98
371.739	123.56
371.95	70.31
372.16	45.74
372.371	-27.99
372.582	37.55
372.792	2.73
373.003	119.46
373.214	62.12
373.424	92.84
373.635	19.11
373.846	103.08
374.056	29.35
374.267	6.83
374.477	15.02
374.688	2.73
374.898	148.14
375.109	53.93
375.319	53.93
375.53	78.51
375.74	70.31
375.951	74.41
376.161	-1.37
376.372	129.7
376.582	12.97
376.793	88.75
377.003	62.12
377.214	47.79
377.424	135.85
377.635	37.55
377.845	17.07
378.055	90.79
378.266	10.92
378.476	70.31
378.686	47.79
378.897	21.16
379.107	29.35
379.317	82.6
379.528	-34.13
379.738	60.07
379.948	66.22
380.158	72.36
380.369	98.99
380.579	98.99
380.789	12.97
380.999	8.87
381.21	103.08
381.42	135.85
381.63	31.4
381.84	90.79
382.05	25.26
382.261	68.27
382.471	49.83
382.681	98.99
382.891	146.09
383.101	80.55
383.311	25.26
383.521	86.7
383.731	94.89
383.941	-9.56
384.151	92.84
384.361	88.75
384.571	45.74
384.781	37.55
384.991	41.64
385.201	86.7
385.411	47.79
385.621	88.75
385.831	78.51
386.041	51.88
386.251	88.75
386.461	94.89
386.671	74.41
386.881	4.78
387.091	62.12
387.301	103.08
387.511	12.97
387.72	96.94
387.93	119.46
388.14	111.27
388.35	-19.8
388.56	115.37
388.769	70.31
388.979	70.31
389.189	-9.56
389.399	62.12
389.609	76.46
389.818	80.55
390.028	43.69
390.238	72.36
390.447	62.12
390.657	96.94
390.867	53.93
391.076	41.64
391.286	98.99
391.496	103.08
391.705	33.45
391.915	94.89
392.125	105.13
392.334	4.78
392.544	90.79
392.753	86.7
392.963	55.98
393.172	131.75
393.382	39.59
393.591	103.08
393.801	78.51
394.01	146.09
394.22	113.32
394.429	74.41
394.639	-3.41
394.848	164.52
395.058	68.27
395.267	58.03
395.477	94.89
395.686	164.52
395.895	178.86
396.105	113.32
396.314	37.55
396.524	103.08
396.733	125.61
396.942	111.27
397.152	123.56
397.361	68.27
397.57	86.7
397.78	68.27
397.989	41.64
398.198	137.9
398.407	60.07
398.617	121.51
398.826	45.74
399.035	156.33
399.244	105.13
399.453	125.61
399.663	152.23
399.872	78.51
400.081	107.18
400.29	125.61
400.499	82.6
400.708	160.42
400.917	119.46
401.127	135.85
401.336	193.19
401.545	154.28
401.754	133.8
401.963	62.12
402.172	117.42
402.381	94.89
402.59	109.22
402.799	127.66
403.008	78.51
403.217	168.62
403.426	98.99
403.635	146.09
403.844	152.23
404.053	78.51
404.262	168.62
404.471	217.77
404.68	156.33
404.888	201.38
405.097	166.57
405.306	146.09
405.515	162.47
405.724	127.66
405.933	260.77
406.142	131.75
406.35	115.37
406.559	205.48
406.768	213.67
406.977	281.25
407.185	242.34
407.394	111.27
407.603	178.86
407.812	185
408.02	197.29
408.229	297.64
408.438	266.92
408.646	219.82
408.855	217.77
409.064	291.49
409.272	236.2
409.481	332.45
409.69	203.43
409.898	285.35
410.107	320.17
410.315	422.56
410.524	291.49
410.733	295.59
410.941	311.97
411.15	266.92
411.358	365.22
411.567	365.22
411.775	422.56
411.984	342.69
412.192	445.09
412.401	373.41
412.609	518.82
412.818	406.18
413.026	422.56
413.234	465.57
413.443	508.58
413.651	488.1
413.86	506.53
414.068	629.41
414.276	676.51
414.485	615.07
414.693	520.87
414.901	701.09
415.11	670.37
415.318	694.94
415.526	690.85
415.734	854.69
415.943	750.24
416.151	774.81
416.359	805.53
416.567	836.25
416.776	883.36
416.984	981.66
417.192	920.22
417.4	987.8
417.608	946.84
417.817	1047.19
418.025	1098.39
418.233	1176.22
418.441	1186.46
418.649	1258.14
418.857	1270.42
419.065	1233.56
419.273	1303.19
419.481	1325.72
419.689	1376.92
419.897	1485.46
420.105	1514.13
420.313	1585.81
420.521	1667.73
420.729	1594
420.937	1761.94
421.145	1675.92
421.353	1895.05
421.561	1847.95
421.769	1878.67
421.977	2101.9
422.185	2130.57
422.393	2245.26
422.601	2267.78
422.809	2261.64
423.017	2278.02
423.224	2298.5
423.432	2507.4
423.64	2548.36
423.848	2687.62
424.056	2722.43
424.263	2824.83
424.471	2833.02
424.679	2882.17
424.887	2994.81
425.094	3019.39
425.302	3093.12
425.51	3185.27
425.718	3396.21
425.925	3447.41
426.133	3519.09
426.341	3689.07
426.548	3895.92
426.756	3826.29
426.964	3918.45
427.171	4078.19
427.379	4242.03
427.586	4328.04
427.794	4297.32
428.001	4735.59
428.209	5059.17
428.417	4848.22
428.624	5091.93
428.832	5165.66
429.039	5157.47
429.247	5016.16
429.454	5747.28
429.662	6003.28
429.869	5616.21
430.076	5945.94
430.284	5689.94
430.491	6126.16
430.699	6382.15
430.906	6240.84
431.114	6601.29
431.321	6713.92
431.528	6738.5
431.736	7180.86
431.943	7498.3
432.15	7451.19
432.358	7649.85
432.565	8059.44
432.772	7705.14
432.979	8323.63
433.187	8550.95
433.394	8626.73
433.601	8985.12
433.808	8999.46
434.016	9126.43
434.223	9474.59
434.43	9880.08
434.637	9792.02
434.844	10443.28
435.052	10478.09
435.259	10371.6
435.466	10480.14
435.673	10375.69
435.88	11231.74
436.087	11633.15
436.294	11909.62
436.501	11579.9
436.708	11858.42
436.915	12235.25
437.122	12679.66
437.329	12669.42
437.537	13095.39
437.743	13296.1
437.95	13029.86
438.157	13736.41
438.364	14313.94
438.571	14205.39
438.778	14373.33
438.985	15811
439.192	15385.02
439.399	15813.05
439.606	15098.31
439.813	16234.93
440.02	17336.74
440.227	16927.14
440.433	16877.99
440.64	17043.88
440.847	17146.28
441.054	17584.54
441.261	18626.96
441.467	18444.69
441.674	18938.25
441.881	19337.6
442.088	19466.63
442.294	19181.96
442.501	19810.68
442.708	20107.64
442.914	20912.49
443.121	21756.25
443.328	21154.15
443.534	23071.05
443.741	22497.62
443.948	21856.61
444.154	23435.59
444.361	23370.05
444.568	23521.6
444.774	23650.63
444.981	23902.53
445.187	24295.74
445.394	25293.1
445.6	25504.04
445.807	27699.46
446.013	26431.77
446.22	26990.86
446.426	27738.37
446.633	28057.85
446.839	29489.38
447.046	28051.71
447.252	29516.01
447.459	29382.89
447.665	29286.64
447.871	30632.15
448.078	32270.53
448.284	30773.46
448.491	30953.68
448.697	32352.44
448.903	33089.71
449.11	33233.07
449.316	32923.83
449.522	33544.36
449.728	34531.48
449.935	34373.79
450.141	34427.04
450.347	35418.25
450.553	34519.2
450.76	34767
450.966	36046.98
451.172	35463.31
451.378	36644.99
451.584	35770.5
451.791	36753.53
451.997	36661.37
452.203	36913.27
452.409	36919.42
452.615	37124.21
452.821	35496.08
453.027	35770.5
453.233	37136.5
453.44	35817.61
453.646	36171.91
453.852	36206.72
454.058	36784.25
454.264	35768.46
454.47	36651.13
454.676	35446.93
454.882	36796.54
455.088	33880.23
455.294	34465.95
455.5	35172.5
455.705	35291.28
455.911	34068.64
456.117	33411.24
456.323	32915.64
456.529	31166.67
456.735	32633.02
456.941	31490.25
457.147	31262.93
457.352	30458.07
457.558	30009.57
457.764	30099.68
457.97	29755.62
458.176	29030.64
458.381	29270.25
458.587	27715.84
458.793	27717.89
458.999	26323.22
459.204	27949.31
459.41	27156.75
459.616	25508.13
459.821	25868.58
460.027	25508.13
460.233	24881.45
460.438	23765.31
460.644	24275.26
460.85	23013.71
461.055	22526.29
461.261	22638.93
461.466	20828.52
461.672	20672.88
461.878	21750.11
462.083	20261.24
462.289	19972.47
462.494	19755.39
462.7	18842
462.905	18690.45
463.111	19118.47
463.316	19132.81
463.522	18743.69
463.727	18399.63
463.932	18631.05
464.138	18790.8
464.343	18672.01
464.549	18053.53
464.754	18717.07
464.959	18692.49
465.165	18305.43
465.37	17502.62
465.575	17260.96
465.781	17805.72
465.986	18221.46
466.191	17330.59
466.397	16886.18
466.602	16071.09
466.807	16730.54
467.012	16746.92
467.218	16589.23
467.423	16382.38
467.628	16853.42
467.833	17322.4
468.038	16581.04
468.244	16284.08
468.449	16900.52
468.654	16290.23
468.859	16251.31
469.064	16148.92
469.269	15483.33
469.474	15831.48
469.679	15964.6
469.885	15479.23
470.09	15964.6
470.295	15878.58
470.5	15339.97
470.705	15468.99
470.91	15100.36
471.115	14709.19
471.32	15253.95
471.525	15094.21
471.73	14682.57
471.935	14977.48
472.139	14246.35
472.344	14293.46
472.549	14383.57
472.754	14244.31
472.959	13691.35
473.164	13611.48
473.369	13294.05
473.574	13767.13
473.778	13763.03
473.983	13240.8
474.188	13369.82
474.393	12816.87
474.598	13064.68
474.802	12784.1
475.007	12956.13
475.212	12765.67
475.417	12286.45
475.621	12360.17
475.826	12405.23
476.031	12235.25
476.235	11844.09
476.44	12093.94
476.645	11866.61
476.849	11760.12
477.054	11880.95
477.259	11520.51
477.463	11581.95
477.668	11123.2
477.872	11461.12
478.077	11006.47
478.282	10942.98
478.486	10834.44
478.691	10703.37
478.895	10904.07
479.1	10791.43
479.304	10732.04
479.509	10326.54
479.713	10564.11
479.918	10443.28
480.122	10082.83
480.326	10422.8
480.531	10273.29
480.735	10154.51
480.94	10383.88
481.144	10396.17
481.348	9763.35
481.553	10261.01
481.757	9732.63
481.961	9974.29
482.166	10125.84
482.37	10281.49
482.574	9955.86
482.778	9896.47
482.983	10172.94
483.187	9912.85
483.391	10066.45
483.595	9843.22
483.8	9658.9
484.004	9937.43
484.208	10035.73
484.412	9953.81
484.616	10023.44
484.821	10136.08
485.025	9828.88
485.229	9945.62
485.433	9898.52
485.637	9851.41
485.841	9978.39
486.045	9880.08
486.249	9810.45
486.453	9732.63
486.657	9927.19
486.861	9970.19
487.065	9896.47
487.269	10031.63
487.473	9785.88
487.677	10183.18
487.881	10043.92
488.085	10015.25
488.289	9962
488.493	10064.4
488.697	10048.02
488.901	10074.64
489.105	9916.95
489.309	10154.51
489.512	10299.92
489.716	10035.73
489.92	10080.78
490.124	10095.12
490.328	10095.12
490.531	10293.77
490.735	10156.56
490.939	10328.59
491.143	10469.9
491.346	10218
491.55	10555.91
491.754	10488.33
491.958	10691.08
492.161	10545.67
492.365	10697.22
492.569	10715.66
492.772	10592.78
492.976	10738.18
493.18	10820.1
493.383	10932.74
493.587	10897.92
493.79	11104.77
493.994	10803.72
494.197	11047.43
494.401	11211.26
494.605	11287.04
494.808	11366.91
495.012	11561.47
495.215	11620.86
495.419	11876.85
495.622	11620.86
495.825	11715.06
496.029	11790.84
496.232	12071.41
496.436	11870.71
496.639	12286.45
496.843	12161.52
497.046	12546.54
497.249	12851.69
497.453	12827.11
497.656	12800.49
497.859	12974.56
498.063	12990.95
498.266	13580.76
498.469	13273.57
498.673	13517.28
498.876	13595.1
499.079	13685.21
499.282	13562.33
499.485	14473.68
499.689	14043.6
499.892	14358.99
500.095	14518.73
500.298	14764.49
500.501	14789.07
500.705	15079.88
500.908	15333.82
501.111	15342.02
501.314	15665.6
501.517	15720.89
501.72	16038.33
501.923	15839.67
502.126	16212.4
502.329	16372.14
502.532	16662.96
502.735	16796.07
502.938	17070.5
503.141	17058.21
503.344	17420.7
503.547	17519.01
503.75	17899.93
503.953	18178.45
504.156	18256.28
504.359	18479.5
504.562	18575.76
504.765	18975.11
504.968	19104.14
505.17	19251.59
505.373	19292.55
505.576	19739.01
505.779	19913.08
505.982	20119.93
506.185	20601.2
506.387	20547.95
506.59	20711.79
506.793	21064.04
506.996	21254.5
507.198	21463.4
507.401	21545.31
507.604	21703.01
507.807	22311.25
508.009	22315.35
508.212	22802.77
508.415	22925.64
508.617	23202.12
508.82	23413.06
509.022	23429.45
509.225	23765.31
509.428	24054.08
509.63	24338.74
509.833	24394.04
510.035	24883.5
510.238	24727.86
510.44	25006.38
510.643	25682.21
510.845	25714.98
511.048	25858.34
511.25	26353.94
511.453	26366.23
511.655	27527.43
511.858	27017.49
512.06	27273.48
512.262	27760.9
512.465	27525.38
512.667	28121.34
512.87	28358.91
513.072	28573.94
513.274	29223.15
513.477	29466.86
513.679	29229.29
513.881	30023.9
514.084	30138.59
514.286	30169.31
514.488	30734.55
514.69	31170.77
514.893	31283.41
515.095	31301.84
515.297	31748.29
515.499	32184.51
515.701	32219.33
515.904	33032.37
516.106	33138.86
516.308	33521.84
516.51	33601.71
516.712	33743.02
516.914	34150.56
517.116	34836.63
517.318	34887.83
517.52	34633.88
517.722	34576.54
517.925	35344.53
518.127	35774.6
518.329	36194.43
518.531	36065.41
518.733	36892.79
518.935	36866.17
519.136	37116.02
519.338	37529.71
519.54	37810.28
519.742	37980.26
519.944	38256.74
520.146	38662.24
520.348	39039.06
520.55	39305.3
520.752	39151.7
520.954	39954.5
521.155	39762
521.357	40372.29
521.559	40714.3
521.761	41089.08
521.963	41097.27
522.164	41209.91
522.366	41732.14
522.568	41930.79
522.77	42151.98
522.971	42485.79
523.173	42465.31
523.375	42813.47
523.576	43038.75
523.778	43294.74
523.98	43468.82
524.181	43728.91
524.383	43810.83
524.584	44720.13
524.786	44285.96
524.988	44541.95
525.189	44740.61
525.391	44947.45
525.592	45105.15
525.794	45131.77
525.995	45318.14
526.197	45340.66
526.398	45322.23
526.6	46149.61
526.801	46161.9
527.003	46409.7
527.204	46104.56
527.406	46884.83
527.607	46684.13
527.808	47128.54
528.01	46147.56
528.211	46694.37
528.412	47802.32
528.614	47632.34
528.815	47169.5
529.016	48013.26
529.218	46950.37
529.419	47908.82
529.62	48097.23
529.822	47542.23
530.023	47925.2
530.224	48183.24
530.425	47908.82
530.626	48238.54
530.828	47630.29
531.029	48674.76
531.23	47953.87
531.431	48322.51
531.632	48441.29
531.833	48623.56
532.035	48340.94
532.236	48695.24
532.437	49196.99
532.638	48449.48
532.839	48838.59
533.04	49047.49
533.241	48498.63
533.442	49235.9
533.643	49010.62
533.844	48519.11
534.045	49000.38
534.246	48629.7
534.447	49006.53
534.648	48883.65
534.849	48957.38
535.05	48818.11
535.251	49031.1
535.451	48838.59
535.652	49381.31
535.853	48723.91
536.054	49094.59
536.255	49344.44
536.456	48803.78
536.657	49901.49
536.857	48875.46
537.058	48871.36
537.259	49024.96
537.46	49199.04
537.66	48646.08
537.861	49156.03
538.062	48818.11
538.263	48981.95
538.463	48859.07
538.664	48779.2
538.865	49229.76
539.065	49102.78
539.266	48551.88
539.466	49293.24
539.667	48478.15
539.868	49309.63
540.068	48846.79
540.269	48789.44
540.469	49110.97
540.67	48443.34
540.87	48433.1
541.071	49194.94
541.271	49209.28
541.472	49133.5
541.672	48453.58
541.873	48945.09
542.073	48492.49
542.274	49184.7
542.474	48422.86
542.675	48310.22
542.875	49323.96
543.075	49000.38
543.276	48060.37
543.476	48783.3
543.676	48582.6
543.877	48777.15
544.077	48490.44
544.277	48758.72
544.478	48875.46
544.678	48918.46
544.878	48728
545.078	48793.54
545.279	48363.46
545.479	48555.97
545.679	48480.2
545.879	48650.18
546.079	48543.69
546.28	48459.72
546.48	48334.79
546.68	48590.79
546.88	48824.26
547.08	48850.88
547.28	48400.33
547.48	48385.99
547.68	48467.91
547.88	48103.37
548.081	48707.52
548.281	48273.35
548.481	48601.03
548.681	48834.5
548.881	48900.03
549.081	48529.35
549.28	48220.11
549.48	48668.61
549.68	48447.43
549.88	48949.18
550.08	48279.5
550.28	48187.34
550.48	48773.06
550.68	48740.29
550.88	48375.75
551.08	48238.54
551.279	48361.42
551.479	47955.92
551.679	48043.98
551.879	48033.74
552.079	48406.47
552.278	47589.33
552.478	48580.55
552.678	48130
552.878	48502.73
553.077	48183.24
553.277	47548.37
553.477	48492.49
553.676	47949.77
553.876	48056.27
554.076	47706.07
554.275	48035.79
554.475	47235.03
554.674	47769.55
554.874	48121.8
555.074	47353.82
555.273	47851.47
555.473	47718.35
555.672	47435.73
555.872	47806.42
556.071	47863.76
556.271	48267.21
556.47	47552.47
556.67	47349.72
556.869	47407.06
557.068	47562.71
557.268	47071.2
557.467	47491.03
557.667	47556.56
557.866	47630.29
558.065	47435.73
558.265	46854.11
558.464	47065.05
558.663	47531.99
558.863	46739.43
559.062	47611.86
559.261	46647.27
559.461	47204.31
559.66	46479.33
559.859	47046.62
560.058	46868.45
560.258	46897.12
560.457	46436.33
560.656	46751.71
560.855	46622.69
561.054	46880.74
561.253	46708.71
561.453	46419.94
561.652	46563.3
561.851	46680.03
562.05	46223.34
562.249	45914.09
562.448	46909.41
562.647	46153.71
562.846	46135.27
563.045	46153.71
563.244	45447.16
563.443	46442.47
563.642	45252.6
563.841	45942.77
564.04	45434.87
564.239	45922.29
564.438	45504.5
564.637	45907.95
564.836	45275.13
565.035	45666.29
565.234	45582.32
565.432	45486.07
565.631	45348.85
565.83	45590.51
566.029	44951.55
566.228	44945.4
566.427	45090.81
566.625	44763.14
566.824	44371.97
567.023	44656.64
567.222	44120.07
567.42	45025.28
567.619	44617.73
567.818	44345.35
568.016	44279.81
568.215	44824.57
568.414	44687.36
568.612	44650.5
568.811	44038.15
569.01	44339.21
569.208	43644.94
569.407	44382.21
569.605	43706.38
569.804	44072.97
570.002	43601.94
570.201	43716.62
570.4	43302.93
570.598	43231.25
570.797	43382.8
570.995	43665.42
571.193	43116.57
571.392	43028.51
571.59	42762.27
571.789	42858.52
571.987	42829.85
572.186	42442.79
572.384	42620.96
572.582	42797.09
572.781	42903.58
572.979	42266.66
573.177	42205.22
573.376	42604.58
573.574	42035.24
573.772	42244.13
573.971	41652.27
574.169	41709.61
574.367	41584.69
574.565	41943.08
574.763	41742.38
574.962	41619.5
575.16	41068.6
575.358	41183.29
575.556	41046.07
575.754	41447.47
575.952	40755.26
576.151	41134.13
576.349	40546.37
576.547	40452.16
576.745	41076.79
576.943	40790.08
577.141	40560.7
577.339	40841.28
577.537	40765.5
577.735	40360
577.933	39714.89
578.131	40200.26
578.329	40058.95
578.527	39882.83
578.725	39991.37
578.923	39854.15
579.121	39499.86
579.319	39927.88
579.516	39962.7
579.714	39090.26
579.912	39309.39
580.11	39260.24
580.308	38957.14
580.506	39151.7
580.704	38402.14
580.901	38787.16
581.099	38838.36
581.297	38180.96
581.495	38215.78
581.692	38551.65
581.89	38404.19
582.088	38561.89
582.285	38090.85
582.483	38410.34
582.681	37994.6
582.878	38174.82
583.076	37593.2
583.274	38084.71
583.471	37232.75
583.669	37353.58
583.866	37032.05
584.064	37662.83
584.262	36948.09
584.459	37347.44
584.657	36987
584.854	37455.98
585.052	36491.39
585.249	36661.37
585.447	36819.06
585.644	36225.15
585.841	36694.14
586.039	36442.24
586.236	36147.33
586.434	36341.89
586.631	36149.38
586.828	36423.81
587.026	36081.8
587.223	35684.49
587.42	35954.82
587.618	35782.79
587.815	35762.31
588.012	35166.35
588.21	35281.04
588.407	35833.99
588.604	35123.35
588.801	35219.6
588.999	35184.79
589.196	34810.01
589.393	34721.94
589.59	34836.63
589.787	34334.88
589.984	34637.98
590.182	34541.72
590.379	34767
590.576	34023.59
590.773	34388.13
590.97	34039.97
591.167	34175.14
591.364	33726.63
591.561	34121.89
591.758	33235.12
591.955	33546.41
592.152	33822.89
592.349	33190.06
592.546	33423.53
592.743	33786.02
592.94	32583.87
593.137	33153.2
593.334	33065.14
593.531	32770.23
593.727	32970.93
593.924	32663.74
594.121	32819.38
594.318	33028.27
594.515	32444.6
594.712	32518.33
594.908	32291.01
595.105	32276.67
595.302	31885.51
595.499	32188.61
595.696	31645.9
595.892	31539.4
596.089	31674.57
596.286	31754.44
596.482	31963.33
596.679	31367.37
596.876	31310.03
597.072	31099.09
597.269	31367.37
597.466	30845.14
597.662	30720.21
597.859	30918.87
598.055	30869.72
598.252	30650.58
598.448	30918.87
598.645	30406.87
598.841	30345.44
599.038	30331.1
599.234	30161.12
599.431	29993.18
599.627	29866.21
599.824	30118.11
600.02	29876.45
600.217	29995.23
600.413	29757.67
600.609	29843.68
600.806	29403.37
601.002	29511.91
601.198	29204.72
601.395	29366.51
601.591	29085.93
601.787	28868.85
601.984	28866.8
602.18	29014.26
602.376	28713.2
602.572	28877.04
602.769	28684.53
602.965	28487.93
603.161	28578.04
603.357	28494.07
603.553	28387.58
603.75	28451.06
603.946	28033.28
604.142	28023.04
604.338	27967.74
604.534	28166.4
604.73	27578.63
604.926	27549.96
605.122	27900.16
605.318	27627.78
605.514	27320.59
605.71	27054.35
605.906	27316.49
606.102	27443.46
606.298	27273.48
606.494	27265.29
606.69	27257.1
606.886	27166.99
607.082	26480.92
607.278	26923.28
607.474	26605.84
607.67	26681.62
607.866	26644.76
608.062	26749.2
608.257	26126.62
608.453	26628.37
608.649	26624.28
608.845	26380.57
609.041	26126.62
609.236	26212.63
609.432	25981.21
609.628	26095.9
609.824	26212.63
610.019	25805.09
610.215	25956.64
610.411	25952.54
610.606	25745.7
610.802	25995.55
610.998	25782.56
611.193	25868.58
611.389	25631.01
611.584	25573.67
611.78	25297.19
611.976	25467.17
612.171	25157.93
612.367	25338.15
612.562	25370.92
612.758	25022.76
612.953	24990
613.149	25395.5
613.344	24930.61
613.539	25391.4
613.735	25188.65
613.93	25184.55
614.126	25016.62
614.321	25125.16
614.517	24983.85
614.712	25012.52
614.907	24627.51
615.103	24650.03
615.298	24217.91
615.493	24592.69
615.688	24641.84
615.884	24924.46
616.079	24437.05
616.274	24660.27
616.47	24308.02
616.665	24099.13
616.86	24209.72
617.055	24314.17
617.25	23939.39
617.445	24043.84
617.641	23701.82
617.836	24086.84
618.031	23548.23
618.226	23904.57
618.421	23619.91
618.616	23849.28
618.811	23513.41
619.006	23492.93
619.201	23120.2
619.396	23222.6
619.591	23318.85
619.786	23105.87
619.981	22962.51
620.176	23046.47
620.371	22602.07
620.566	22559.06
620.761	22511.96
620.956	22823.25
621.151	22264.15
621.346	22374.74
621.541	22067.55
621.735	22479.19
621.93	21619.04
622.125	21807.45
622.32	21438.82
622.515	21668.19
622.709	21598.56
622.904	21424.48
623.099	21174.63
623.294	21260.65
623.488	21074.28
623.683	21244.26
623.878	20617.58
624.072	20777.33
624.267	20990.31
624.462	20717.93
624.656	20593.01
624.851	20527.47
625.046	20185.46
625.24	20226.42
625.435	19949.95
625.629	20015.48
625.824	19696
626.018	19726.72
626.213	19470.72
626.407	19413.38
626.602	19384.71
626.796	19284.36
626.991	19075.46
627.185	19030.41
627.38	18979.21
627.574	18813.32
627.768	18762.12
627.963	18586
628.157	18444.69
628.352	18653.58
628.546	18395.54
628.74	18354.58
628.935	18078.1
629.129	18039.19
629.323	18012.57
629.517	17955.22
629.712	17979.8
629.906	17979.8
630.1	17465.76
630.294	17379.75
630.489	17215.91
630.683	17533.34
630.877	17240.48
631.071	17220
631.265	17207.72
631.459	17082.79
631.653	17090.98
631.848	16722.35
632.042	16705.96
632.236	16822.7
632.43	16460.21
632.624	16454.06
632.818	16386.48
633.012	16370.1
633.206	16185.78
633.4	16175.54
633.594	15868.34
633.788	15925.69
633.982	16023.99
634.176	15813.05
634.369	15696.32
634.563	15751.61
634.757	15458.75
634.951	15673.79
635.145	15331.78
635.339	15350.21
635.533	15303.11
635.726	15186.37
635.92	14830.02
636.114	14913.99
636.308	15126.98
636.501	15083.97
636.695	14905.8
636.889	14768.59
637.083	14506.45
637.276	14541.26
637.47	14211.54
637.664	14506.45
637.857	14373.33
638.051	14213.59
638.244	13877.72
638.438	14021.08
638.632	13996.5
638.825	14004.69
639.019	13779.42
639.212	13791.7
639.406	13656.54
639.599	13750.74
639.793	13732.31
639.986	13435.36
640.18	13414.88
640.373	13371.87
640.567	12929.51
640.76	13285.86
640.954	13062.63
641.147	12988.9
641.34	12982.76
641.534	12947.94
641.727	12878.31
641.92	12788.2
642.114	12622.31
642.307	12528.11
642.5	12726.76
642.694	12476.91
642.887	12501.48
643.08	12538.35
643.273	12284.4
643.467	12081.65
643.66	12188.14
643.853	11942.39
644.046	11801.08
644.239	11801.08
644.432	12038.64
644.626	11530.75
644.819	11702.78
645.012	11655.67
645.205	11567.61
645.398	11522.55
645.591	11448.83
645.784	11201.02
645.977	11328
646.17	11274.75
646.363	11188.74
646.556	10994.18
646.749	10957.32
646.942	11092.48
647.135	11043.33
647.328	10811.91
647.521	10768.9
647.714	10844.68
647.907	10676.74
648.099	10564.11
648.292	10668.55
648.485	10572.3
648.678	10347.02
648.871	10377.74
649.064	10291.73
649.256	10381.84
649.449	10099.22
649.642	10150.42
649.835	9859.6
650.027	10048.02
650.22	9996.82
650.413	9761.3
650.605	9744.92
650.798	9921.04
650.991	9777.69
651.183	9910.8
651.376	9634.33
651.568	9525.79
651.761	9515.55
651.954	9497.11
652.146	9564.7
652.339	9376.28
652.531	9374.24
652.724	9314.84
652.916	9056.8
653.109	9122.34
653.301	9261.6
653.494	9173.53
653.686	8860.2
653.879	9159.2
654.071	9001.51
654.263	8866.34
654.456	8968.74
654.648	8841.76
654.84	8555.05
655.033	8671.78
655.225	8647.21
655.417	8542.76
655.61	8565.29
655.802	8577.58
655.994	8434.22
656.186	8395.31
656.379	8536.62
656.571	8432.17
656.763	8368.68
656.955	8237.61
657.148	8114.73
657.34	8067.63
657.532	8147.5
657.724	8018.48
657.916	8073.78
658.108	7946.8
658.3	7954.99
658.492	7983.66
658.684	7703.09
658.876	7578.17
659.068	7903.79
659.26	7471.67
659.452	7774.77
659.644	7760.44
659.836	7537.21
660.028	7680.57
660.22	7373.37
660.412	7526.97
660.604	7070.27
660.796	7221.82
660.988	7379.51
661.18	7215.68
661.372	7316.03
661.563	7166.53
661.755	7010.88
661.947	7111.23
662.139	7238.2
662.331	7033.41
662.522	6832.71
662.714	6853.19
662.906	6814.27
663.097	6685.25
663.289	6804.03
663.481	6828.61
663.673	6713.92
663.864	6638.15
664.056	6468.17
664.247	6591.05
664.439	6449.74
664.631	6701.64
664.822	6480.46
665.014	6455.88
665.205	6412.87
665.397	6234.7
665.588	6355.53
665.78	6292.04
665.971	6201.93
666.163	6183.5
666.354	6273.61
666.546	6160.97
666.737	6095.44
666.929	5892.69
667.12	5921.36
667.311	6007.37
667.503	5982.8
667.694	6087.25
667.885	5683.8
668.077	5886.54
668.268	5751.38
668.459	5804.63
668.651	5665.36
668.842	5755.47
669.033	5788.24
669.224	5526.1
669.416	5716.56
669.607	5448.28
669.798	5554.77
669.989	5657.17
670.18	5456.47
670.371	5558.87
670.563	5362.26
670.754	5444.18
670.945	5452.38
671.136	5401.18
671.327	5212.76
671.518	5329.5
671.709	5323.35
671.9	5132.89
672.091	5182.04
672.282	5136.99
672.473	5253.72
672.664	5223
672.855	5050.97
673.046	4956.77
673.237	5028.45
673.428	5048.93
673.619	4993.63
673.809	4977.25
674	4952.67
674.191	4940.38
674.382	4901.47
674.573	4932.19
674.764	4889.18
674.954	4833.89
675.145	4835.94
675.336	4776.55
675.527	4663.91
675.717	4713.06
675.908	4729.44
676.099	4811.36
676.289	4809.31
676.48	4643.43
676.671	4633.19
676.861	4616.8
677.052	4551.27
677.243	4682.34
677.433	4616.8
677.624	4551.27
677.814	4627.04
678.005	4680.29
678.195	4731.49
678.386	4479.59
678.576	4358.76
678.767	4455.01
678.957	4530.79
679.148	4653.67
679.338	4530.79
679.529	4457.06
679.719	4383.34
679.909	4487.78
680.1	4244.07
680.29	4260.46
680.481	4244.07
680.671	4350.57
680.861	4268.65
681.052	4278.89
681.242	4291.18
681.432	4360.81
681.622	4252.27
681.813	4104.81
682.003	4153.96
682.193	4076.14
682.383	4336.23
682.573	4199.02
682.764	4113
682.954	4162.16
683.144	4184.68
683.334	4203.11
683.524	4141.68
683.714	4313.7
683.904	3900.02
684.094	4127.34
684.284	4084.33
684.474	4110.96
684.664	4127.34
684.854	3914.35
685.044	4024.94
685.234	3934.83
685.424	3912.3
685.614	3986.03
685.804	3922.54
685.994	3912.3
686.184	4004.46
686.374	3867.25
686.564	3848.82
686.753	3906.16
686.943	3805.81
687.133	3908.21
687.323	3777.14
687.513	3840.62
687.702	3820.14
687.892	3691.12
688.082	3660.4
688.272	3791.47
688.461	3770.99
688.651	3699.31
688.841	3601.01
689.03	3822.19
689.22	3656.31
689.41	3553.91
689.599	3560.05
689.789	3617.4
689.979	3740.27
690.168	3545.72
690.358	3666.55
690.547	3584.63
690.737	3746.42
690.926	3576.44
691.116	3486.33
691.305	3592.82
691.495	3555.96
691.684	3342.97
691.874	3467.89
692.063	3490.42
692.252	3570.29
692.442	3508.85
692.631	3371.64
692.82	3406.45
693.01	3392.12
693.199	3539.57
693.388	3424.89
693.578	3371.64
693.767	3478.13
693.956	3359.35
694.146	3326.58
694.335	3396.21
694.524	3281.53
694.713	3271.29
694.902	3371.64
695.092	3261.05
695.281	3306.1
695.47	3506.81
695.659	3248.76
695.848	3267.19
696.037	3324.54
696.226	3279.48
696.415	3271.29
696.604	3211.9
696.793	3187.32
696.982	3164.79
697.171	3293.82
697.36	3154.55
697.549	3166.84
697.738	3084.92
697.927	3109.5
698.116	3140.22
698.305	3091.07
698.494	3195.51
698.683	3099.26
698.872	3189.37
699.061	3138.17
699.25	3170.94
699.438	3142.27
699.627	3150.46
699.816	3162.75
700.005	3027.58
700.193	3068.54
700.382	3043.96
700.571	2945.66
700.76	3129.98
700.948	3162.75
701.137	3029.63
701.326	3052.16
701.514	3070.59
701.703	2970.24
701.892	3019.39
702.08	2898.56
702.269	2984.57
702.457	2974.33
702.646	2996.86
702.834	2904.7
703.023	2861.69
703.212	2857.6
703.4	2900.61
703.589	2871.93
703.777	2837.12
703.965	2798.21
704.154	2855.55
704.342	2792.06
704.531	2847.36
704.719	2804.35
704.907	2853.5
705.096	2822.78
705.284	2830.98
705.472	2734.72
705.661	2873.98
705.849	2882.17
706.037	2802.3
706.226	2734.72
706.414	2701.95
706.602	2824.83
706.79	2757.25
706.979	2781.82
707.167	2622.08
707.355	2685.57
707.543	2828.93
707.731	2773.63
707.919	2607.75
708.107	2579.08
708.296	2710.15
708.484	2599.55
708.672	2712.19
708.86	2640.51
709.048	2691.71
709.236	2699.91
709.424	2708.1
709.612	2638.47
709.8	2642.56
709.988	2579.08
710.176	2566.79
710.364	2568.84
710.551	2572.93
710.739	2540.16
710.927	2577.03
711.115	2583.17
711.303	2564.74
711.491	2579.08
711.679	2513.54
711.866	2677.38
712.054	2476.68
712.242	2536.07
712.43	2624.13
712.617	2511.49
712.805	2556.55
712.993	2570.88
713.181	2478.72
713.368	2491.01
713.556	2425.48
713.744	2458.25
713.931	2548.36
714.119	2495.11
714.306	2405
714.494	2331.27
714.682	2407.05
714.869	2325.13
715.057	2531.97
715.244	2267.78
715.432	2540.16
715.619	2300.55
715.807	2359.94
715.994	2323.08
716.182	2366.09
716.369	2384.52
716.556	2437.77
716.744	2405
716.931	2351.75
717.119	2333.32
717.306	2347.65
717.493	2284.17
717.681	2325.13
717.868	2382.47
718.055	2220.68
718.242	2194.06
718.43	2314.89
718.617	2366.09
718.804	2228.87
718.991	2343.56
719.179	2312.84
719.366	2153.1
719.553	2257.54
719.74	2175.63
719.927	2179.72
720.114	2169.48
720.301	2126.47
720.488	2192.01
720.676	2151.05
720.863	2161.29
721.05	2273.93
721.237	2226.82
721.424	2167.43
721.611	2163.34
721.798	2089.61
721.985	2097.8
722.172	2126.47
722.358	2085.51
722.545	2128.52
722.732	2151.05
722.919	2153.1
723.106	2169.48
723.293	2136.71
723.48	2028.17
723.667	2030.22
723.853	2167.43
724.04	2120.33
724.227	2054.8
724.414	2097.8
724.6	2071.18
724.787	2065.04
724.974	2077.32
725.161	2091.66
725.347	2089.61
725.534	2052.75
725.72	2032.27
725.907	2013.84
726.094	2067.08
726.28	2011.79
726.467	2040.46
726.653	1933.97
726.84	2013.84
727.027	2013.84
727.213	2126.47
727.4	1899.15
727.586	2015.88
727.773	2038.41
727.959	1948.3
728.145	1923.73
728.332	1979.02
728.518	1987.21
728.705	1909.39
728.891	1981.07
729.077	2007.69
729.264	1870.48
729.45	1888.91
729.636	1815.18
729.823	1825.42
730.009	1913.49
730.195	1884.81
730.382	1897.1
730.568	1825.42
730.754	1882.77
730.94	1893.01
731.126	1954.44
731.313	1936.01
731.499	1837.71
731.685	1829.52
731.871	1880.72
732.057	1831.57
732.243	1831.57
732.429	1839.76
732.615	1915.53
732.801	1864.33
732.987	1747.6
733.173	1933.97
733.359	1823.37
733.545	1933.97
733.731	1784.46
733.917	1899.15
734.103	1749.65
734.289	1847.95
734.475	1700.5
734.661	1835.66
734.847	1796.75
735.033	1790.61
735.219	1774.22
735.404	1819.28
735.59	1800.85
735.776	1733.26
735.962	1716.88
736.148	1847.95
736.333	1741.46
736.519	1790.61
736.705	1735.31
736.89	1766.03
737.076	1776.27
737.262	1731.22
737.447	1737.36
737.633	1692.3
737.819	1757.84
738.004	1716.88
738.19	1702.54
738.375	1704.59
738.561	1702.54
738.747	1737.36
738.932	1653.39
739.118	1880.72
739.303	1575.57
739.489	1686.16
739.674	1575.57
739.859	1624.72
740.045	1618.58
740.23	1628.82
740.416	1516.18
740.601	1618.58
740.786	1524.37
740.972	1577.62
741.157	1634.96
741.342	1555.09
741.528	1450.64
741.713	1483.41
741.898	1489.56
742.084	1600.15
742.269	1626.77
742.454	1495.7
742.639	1512.08
742.824	1510.04
743.01	1569.43
743.195	1550.99
743.38	1516.18
743.565	1536.66
743.75	1417.88
743.935	1430.16
744.12	1612.43
744.305	1471.12
744.49	1505.94
744.675	1397.4
744.86	1399.45
745.045	1542.8
745.23	1434.26
745.415	1340.05
745.6	1432.21
745.785	1372.82
745.97	1571.47
746.155	1401.49
746.34	1417.88
746.525	1397.4
746.71	1462.93
746.895	1393.3
747.079	1389.21
747.264	1385.11
747.449	1350.29
747.634	1454.74
747.819	1403.54
748.003	1376.92
748.188	1221.27
748.373	1333.91
748.557	1266.33
748.742	1274.52
748.927	1407.64
749.111	1311.38
749.296	1303.19
749.481	1364.63
749.665	1235.61
749.85	1239.7
750.034	1284.76
750.219	1331.86
750.404	1237.66
750.588	1268.38
750.773	1225.37
750.957	1229.46
751.141	1110.68
751.326	1227.42
751.51	1161.88
751.695	1163.93
751.879	1219.22
752.064	1247.9
752.248	1182.36
752.432	1219.22
752.617	1143.45
752.801	1094.3
752.985	1143.45
753.17	1188.5
753.354	1043.1
753.538	1180.31
753.722	1088.15
753.907	1104.54
754.091	1071.77
754.275	1147.55
754.459	1147.55
754.643	1153.69
754.828	1071.77
755.012	975.52
755.196	996
755.38	1069.72
755.564	1026.71
755.748	955.04
755.932	1057.43
756.116	1012.38
756.3	1049.24
756.484	1006.24
756.668	1004.19
756.852	938.65
757.036	1004.19
757.22	1006.24
757.404	983.71
757.588	926.36
757.772	991.9
757.956	909.98
758.14	969.37
758.323	942.75
758.507	973.47
758.691	959.13
758.875	955.04
759.059	979.61
759.242	940.7
759.426	979.61
759.61	918.17
759.794	791.2
759.977	942.75
760.161	940.7
760.345	828.06
760.528	746.14
760.712	832.16
760.895	852.64
761.079	840.35
761.263	909.98
761.446	885.41
761.63	858.78
761.813	889.5
761.997	807.58
762.18	811.68
762.364	768.67
762.547	752.29
762.731	871.07
762.914	758.43
763.098	709.28
763.281	799.39
763.464	805.53
763.648	830.11
763.831	641.7
764.015	762.53
764.198	795.29
764.381	834.21
764.564	809.63
764.748	758.43
764.931	678.56
765.114	758.43
765.297	754.34
765.481	807.58
765.664	815.77
765.847	776.86
766.03	783.01
766.213	703.14
766.397	680.61
766.58	711.33
766.763	830.11
766.946	725.66
767.129	649.89
767.312	696.99
767.495	799.39
767.678	684.7
767.861	744.1
768.044	715.42
768.227	721.57
768.41	729.76
768.593	703.14
768.776	750.24
768.959	678.56
769.142	727.71
769.324	719.52
769.507	656.03
769.69	692.9
769.873	684.7
770.056	615.07
770.239	733.86
770.421	746.14
770.604	688.8
770.787	715.42
770.97	699.04
771.152	717.47
771.335	660.13
771.518	676.51
771.7	692.9
771.883	625.31
772.066	668.32
772.248	684.7
772.431	643.74
772.613	617.12
772.796	602.79
772.978	705.18
773.161	643.74
773.343	512.67
773.526	686.75
773.708	557.73
773.891	606.88
774.073	604.83
774.256	623.27
774.438	662.18
774.621	537.25
774.803	635.55
774.985	533.15
775.168	676.51
775.35	588.45
775.532	660.13
775.715	524.96
775.897	635.55
776.079	678.56
776.261	522.91
776.444	635.55
776.626	570.02
776.808	531.11
776.99	529.06
777.173	496.29
777.355	590.5
777.537	547.49
777.719	621.22
777.901	512.67
778.083	627.36
778.265	441
778.447	512.67
778.629	520.87
778.811	524.96
778.993	561.83
779.175	543.39
779.357	467.62
779.539	500.39
779.721	541.35
779.903	402.08
780.085	580.26
780.267	506.53
780.449	447.14
780.631	531.11
780.812	447.14
780.994	512.67
781.176	500.39
781.358	469.67
781.54	484
781.721	400.04
781.903	522.91
782.085	490.15
782.267	490.15
782.448	389.8
782.63	473.76
782.812	447.14
782.993	465.57
783.175	389.8
783.357	373.41
783.538	420.52
783.72	393.89
783.901	438.95
784.083	422.56
784.264	410.28
784.446	348.84
784.627	340.65
784.809	463.52
784.99	414.37
785.172	344.74
785.353	406.18
785.535	389.8
785.716	410.28
785.897	357.03
786.079	463.52
786.26	371.37
786.441	326.31
786.623	332.45
786.804	373.41
786.985	357.03
787.167	381.6
787.348	369.32
787.529	342.69
787.71	400.04
787.891	357.03
788.073	287.4
788.254	334.5
788.435	332.45
788.616	332.45
788.797	287.4
788.978	311.97
789.159	225.96
789.34	316.07
789.522	334.5
789.703	299.69
789.884	295.59
790.065	326.31
790.246	373.41
790.427	273.06
790.607	314.02
790.788	373.41
790.969	340.65
791.15	334.5
791.331	291.49
791.512	320.17
791.693	258.73
791.874	293.54
792.054	397.99
792.235	297.64
792.416	217.77
792.597	340.65
792.778	285.35
792.958	232.1
793.139	236.2
793.32	217.77
793.5	236.2
793.681	262.82
793.862	285.35
794.042	316.07
794.223	232.1
794.404	275.11
794.584	246.44
794.765	332.45
794.945	264.87
795.126	348.84
795.306	303.78
795.487	211.62
795.667	266.92
795.848	246.44
796.028	193.19
796.209	234.15
796.389	221.86
796.57	238.25
796.75	225.96
796.93	252.58
797.111	238.25
797.291	264.87
797.471	258.73
797.652	242.34
797.832	217.77
798.012	326.31
798.192	205.48
798.373	193.19
798.553	174.76
798.733	244.39
798.913	238.25
799.093	170.66
799.274	164.52
799.454	154.28
799.634	228.01
799.814	217.77
799.994	236.2
800.174	250.53
800.354	154.28
800.534	168.62
800.714	244.39
800.894	189.1
801.074	166.57
801.254	201.38
801.434	266.92
801.614	209.58
801.794	225.96
801.974	830.11
802.154	101.03
802.334	185
802.514	168.62
802.693	213.67
802.873	185
803.053	205.48
803.233	219.82
803.413	209.58
803.592	152.23
803.772	213.67
803.952	164.52
804.131	197.29
804.311	225.96
804.491	268.97
804.67	115.37
804.85	207.53
805.03	219.82
805.209	185
805.389	86.7
805.568	156.33
805.748	152.23
805.928	156.33
806.107	193.19
806.287	168.62
806.466	193.19
806.646	289.45
806.825	162.47
807.004	164.52
807.184	156.33
807.363	152.23
807.543	129.7
807.722	146.09
807.901	137.9
808.081	197.29
808.26	55.98
808.439	178.86
808.619	193.19
808.798	127.66
808.977	152.23
809.156	166.57
809.336	119.46
809.515	62.12
809.694	101.03
809.873	86.7
810.052	164.52
810.231	131.75
810.411	158.38
810.59	187.05
810.769	166.57
810.948	225.96
811.127	88.75
811.306	119.46
811.485	113.32
811.664	219.82
811.843	185
812.022	201.38
812.201	119.46
812.38	164.52
812.559	137.9
812.737	195.24
812.916	185
813.095	150.18
813.274	162.47
813.453	152.23
813.632	113.32
813.811	103.08
813.989	60.07
814.168	156.33
814.347	121.51
814.526	133.8
814.704	146.09
814.883	105.13
815.062	96.94
815.24	129.7
815.419	133.8
815.598	72.36
815.776	39.59
815.955	164.52
816.133	31.4
816.312	86.7
816.49	103.08
816.669	172.71
816.847	37.55
817.026	82.6
817.204	168.62
817.383	129.7
817.561	84.65
817.74	127.66
817.918	55.98
818.097	74.41
818.275	98.99
818.453	74.41
818.632	86.7
818.81	88.75
818.988	101.03
819.167	137.9
819.345	125.61
819.523	98.99
819.701	105.13
819.879	156.33
820.058	88.75
820.236	19.11
820.414	45.74
820.592	78.51
820.77	119.46
820.948	70.31
821.127	101.03
821.305	60.07
821.483	15.02
821.661	96.94
821.839	103.08
822.017	88.75
822.195	74.41
822.373	96.94
822.551	96.94
822.729	160.42
822.907	127.66
823.085	127.66
823.262	94.89
823.44	41.64
823.618	94.89
823.796	96.94
823.974	123.56
824.152	47.79
824.329	96.94
824.507	80.55
824.685	105.13
824.863	80.55
825.04	76.46
825.218	53.93
825.396	70.31
825.574	88.75
825.751	47.79
825.929	117.42
826.107	62.12
826.284	127.66
826.462	25.26
826.639	29.35
826.817	86.7
826.994	82.6
827.172	43.69
827.349	111.27
827.527	84.65
827.704	41.64
827.882	98.99
828.059	70.31
828.237	70.31
828.414	111.27
828.591	12.97
828.769	94.89
828.946	45.74
829.124	88.75
829.301	86.7
829.478	94.89
829.655	105.13
829.833	23.21
830.01	51.88
830.187	62.12
830.364	82.6
830.542	96.94
830.719	70.31
830.896	66.22
831.073	53.93
831.25	160.42
831.427	86.7
831.604	98.99
831.782	101.03
831.959	135.85
832.136	90.79
832.313	15.02
832.49	-3.41
832.667	94.89
832.844	21.16
833.021	113.32
833.198	60.07
833.374	98.99
833.551	21.16
833.728	37.55
833.905	139.94
834.082	58.03
834.259	70.31
834.436	15.02
834.612	66.22
834.789	45.74
834.966	-11.61
835.143	12.97
835.319	41.64
835.496	37.55
835.673	45.74
835.85	70.31
836.026	150.18
836.203	90.79
836.38	60.07
836.556	111.27
836.733	4.78
836.909	80.55
837.086	6.83
837.262	-36.18
837.439	62.12
837.616	2.73
837.792	90.79
837.968	78.51
838.145	39.59
838.321	29.35
838.498	88.75
838.674	86.7
838.851	55.98
839.027	82.6
839.203	58.03
839.38	35.5
839.556	2.73
839.732	107.18
839.909	6.83
840.085	53.93
840.261	43.69
840.437	66.22
840.614	17.07
840.79	12.97
840.966	70.31
841.142	98.99
841.318	-17.75
841.494	64.17
841.671	90.79
841.847	15.02
842.023	105.13
842.199	70.31
842.375	53.93
842.551	21.16
842.727	29.35
842.903	111.27
843.079	-34.13
843.255	72.36
843.431	15.02
843.607	45.74
843.783	-30.04
843.959	92.84
844.134	12.97
844.31	76.46
844.486	4.78
844.662	37.55
844.838	4.78
845.013	49.83
845.189	64.17
845.365	78.51
845.541	43.69
845.716	-11.61
845.892	86.7
846.068	64.17
846.244	68.27
846.419	94.89
846.595	-3.41
846.77	55.98
846.946	64.17
847.122	45.74
847.297	17.07
847.473	86.7
847.648	25.26
847.824	19.11
847.999	-58.71
848.175	117.42
848.35	37.55
848.526	74.41
848.701	31.4
848.876	4.78
849.052	76.46
849.227	-25.94
849.403	37.55
849.578	29.35
849.753	55.98
849.929	86.7
850.104	17.07
850.279	84.65
850.454	15.02
850.63	37.55
850.805	96.94
850.98	39.59
851.155	-15.7
851.33	49.83
851.505	53.93
851.681	37.55
851.856	8.87
852.031	4.78
852.206	117.42
852.381	-1.37
852.556	21.16
852.731	62.12
852.906	31.4
853.081	37.55
853.256	103.08
853.431	31.4
853.606	39.59
853.781	21.16
853.956	29.35
854.131	-9.56
854.305	37.55
854.48	64.17
854.655	4.78
854.83	49.83
855.005	4.78
855.18	80.55
855.354	21.16
855.529	0.68
855.704	41.64
855.879	49.83
856.053	15.02
856.228	-7.51
856.403	-30.04
856.577	0.68
856.752	-30.04
856.926	76.46
857.101	29.35
857.276	25.26
857.45	-25.94
857.625	96.94
857.799	86.7
857.974	-27.99
858.148	-77.14
858.323	72.36
858.497	-19.8
858.672	-1.37
858.846	-3.41
859.02	-19.8
859.195	12.97
859.369	21.16
859.543	37.55
859.718	23.21
859.892	15.02
860.066	15.02
860.241	-9.56
860.415	-7.51
860.589	49.83
860.763	-11.61
860.938	23.21
861.112	88.75
861.286	33.45
861.46	4.78
861.634	72.36
861.808	-27.99
861.982	43.69
862.157	0.68
862.331	43.69
862.505	19.11
862.679	-3.41
862.853	10.92
863.027	4.78
863.201	94.89
863.375	12.97
863.549	-7.51
863.722	31.4
863.896	29.35
864.07	-7.51
864.244	37.55
864.418	12.97
864.592	33.45
864.766	-3.41
864.939	12.97
865.113	-38.23
865.287	86.7
865.461	-17.75
865.634	58.03
865.808	-36.18
865.982	-17.75
866.156	80.55
866.329	-9.56
866.503	37.55
866.676	74.41
866.85	-50.52
867.024	17.07
867.197	80.55
867.371	58.03
867.544	53.93
867.718	53.93
867.891	127.66
868.065	12.97
868.238	49.83
868.412	121.51
868.585	66.22
868.759	2.73
868.932	25.26
869.105	8.87
869.279	-19.8
869.452	-27.99
869.625	0.68
869.799	23.21
869.972	-36.18
870.145	-42.32
870.319	12.97
870.492	-17.75
870.665	-101.72
870.838	84.65
871.011	-48.47
871.185	23.21
871.358	10.92
871.531	12.97
871.704	31.4
871.877	88.75
872.05	4.78
872.223	-44.37
872.396	12.97
872.569	17.07
872.742	-73.04
872.915	-19.8
873.088	17.07
873.261	39.59
873.434	-32.08
873.607	53.93
873.78	60.07
873.953	29.35
874.126	-27.99
874.299	121.51
874.471	-3.41
874.644	-19.8
874.817	-42.32
874.99	64.17
875.163	-83.28
875.335	-17.75
875.508	-23.89
875.681	115.37
875.853	-30.04
876.026	-32.08
876.199	-60.76
876.371	-73.04
876.544	12.97
876.717	98.99
876.889	-30.04
877.062	-15.7
877.234	-19.8
877.407	39.59
877.579	2.73
877.752	12.97
877.924	62.12
878.097	-42.32
878.269	19.11
878.442	12.97
878.614	37.55
878.786	37.55
878.959	53.93
879.131	53.93
879.303	27.31
879.476	-3.41
879.648	-52.56
879.82	-40.28
879.993	-52.56
880.165	39.59
880.337	37.55
880.509	66.22
880.681	-7.51
880.854	-19.8
881.026	12.97
881.198	31.4
881.37	25.26
881.542	-21.85
881.714	-42.32
881.886	-60.76
882.058	-11.61
882.23	72.36
882.402	15.02
882.574	-3.41
882.746	66.22
882.918	53.93
883.09	41.64
883.262	-13.65
883.434	29.35
883.606	-23.89
883.778	-13.65
883.95	19.11
884.122	41.64
884.293	39.59
884.465	0.68
884.637	58.03
884.809	31.4
884.98	-36.18
885.152	58.03
885.324	49.83
885.496	-38.23
885.667	17.07
885.839	12.97
886.011	70.31
886.182	6.83
886.354	6.83
886.525	-46.42
886.697	-44.37
886.869	49.83
887.04	-36.18
887.212	8.87
887.383	23.21
887.555	12.97
887.726	12.97
887.897	-7.51
888.069	49.83
888.24	6.83
888.412	-25.94
888.583	6.83
888.754	49.83
888.926	-56.66
889.097	-79.19
889.268	19.11
889.44	-11.61
889.611	-66.9
889.782	10.92
889.953	-48.47
890.125	25.26
890.296	25.26
890.467	53.93
890.638	-19.8
890.809	-25.94
890.98	-25.94
891.151	8.87
891.323	51.88
891.494	62.12
891.665	-32.08
891.836	4.78
892.007	0.68
892.178	33.45
892.349	4.78
892.52	-13.65
892.691	-11.61
892.862	55.98
893.032	-15.7
893.203	-3.41
893.374	-44.37
893.545	66.22
893.716	-44.37
893.887	60.07
894.057	-50.52
894.228	33.45
894.399	-30.04
894.57	27.31
894.74	-71
894.911	41.64
895.082	-62.8
895.253	35.5
895.423	12.97
895.594	29.35
895.764	-27.99
895.935	72.36
896.106	64.17
896.276	-44.37
896.447	-60.76
896.617	-85.33
896.788	-38.23
896.958	29.35
897.129	12.97
897.299	12.97
897.47	53.93
897.64	29.35
897.81	45.74
897.981	-17.75
898.151	-40.28
898.322	-46.42
898.492	47.79
898.662	-54.61
898.832	39.59
899.003	-1.37
899.173	49.83
899.343	12.97
899.513	23.21
