Data from USB4F104151__7__14-42-31-230.txt Node

Date: Thu Mar 13 14:42:31 EDT 2025
User: louis
Spectrometer: USB4F10415
Trigger mode: 4
Integration Time (sec): 2.000000E-2
Scans to average: 1
Electric dark correction enabled: true
Nonlinearity correction enabled: false
Boxcar width: 0
XAxis mode: Wavelengths
Number of Pixels in Spectrum: 3648
>>>>>Begin Spectral Data<<<<<
178.204	-64.68
178.424	-64.68
178.644	-64.68
178.864	-191.66
179.084	-111.78
179.304	15.19
179.524	-17.58
179.744	2.9
179.964	-21.67
180.184	43.86
180.404	-33.96
180.624	-25.77
180.844	56.15
181.064	-17.58
181.283	-31.91
181.503	-33.96
181.723	64.34
181.943	-13.48
182.163	41.81
182.383	0.85
182.602	43.86
182.822	31.57
183.042	70.48
183.262	-27.82
183.482	-25.77
183.701	0.85
183.921	60.24
184.141	52.05
184.361	27.48
184.58	39.76
184.8	-54.44
185.02	31.57
185.239	-1.19
185.459	27.48
185.679	17.24
185.898	-17.58
186.118	19.29
186.338	-3.24
186.557	-46.25
186.777	-21.67
186.997	31.57
187.216	-36.01
187.436	90.96
187.655	17.24
187.875	37.72
188.095	-64.68
188.314	23.38
188.534	17.24
188.753	7
188.973	-13.48
189.192	105.3
189.412	62.29
189.631	11.09
189.851	-36.01
190.07	80.72
190.29	-17.58
190.509	76.63
190.729	-58.54
190.948	-54.44
191.168	123.73
191.387	60.24
191.607	27.48
191.826	-50.35
192.045	-13.48
192.265	-99.5
192.484	2.9
192.704	9.05
192.923	21.33
193.142	76.63
193.362	11.09
193.581	-17.58
193.8	31.57
194.02	-9.39
194.239	47.96
194.458	23.38
194.678	56.15
194.897	35.67
195.116	-38.06
195.335	-15.53
195.555	11.09
195.774	29.52
195.993	43.86
196.212	-79.02
196.432	-46.25
196.651	66.39
196.87	-62.63
197.089	19.29
197.308	39.76
197.528	82.77
197.747	-13.48
197.966	25.43
198.185	11.09
198.404	9.05
198.623	41.81
198.842	7
199.062	31.57
199.281	9.05
199.5	37.72
199.719	56.15
199.938	-40.11
200.157	25.43
200.376	2.9
200.595	99.16
200.814	43.86
201.033	-66.73
201.252	47.96
201.471	7
201.69	47.96
201.909	47.96
202.128	50
202.347	76.63
202.566	11.09
202.785	11.09
203.004	-74.92
203.223	66.39
203.442	-70.83
203.661	39.76
203.879	-9.39
204.098	-7.34
204.317	-1.19
204.536	31.57
204.755	-46.25
204.974	11.09
205.193	19.29
205.411	70.48
205.63	-62.63
205.849	-1.19
206.068	50
206.287	25.43
206.505	25.43
206.724	-27.82
206.943	-1.19
207.162	-50.35
207.381	-29.87
207.599	0.85
207.818	39.76
208.037	-1.19
208.255	31.57
208.474	23.38
208.693	41.81
208.911	-50.35
209.13	-13.48
209.349	-17.58
209.567	-17.58
209.786	115.54
210.005	-23.72
210.223	60.24
210.442	11.09
210.661	7
210.879	27.48
211.098	-25.77
211.316	39.76
211.535	17.24
211.753	-54.44
211.972	72.53
212.191	-17.58
212.409	-42.15
212.628	9.05
212.846	25.43
213.065	-38.06
213.283	-5.29
213.502	4.95
213.72	-42.15
213.938	-13.48
214.157	-66.73
214.375	7
214.594	47.96
214.812	-9.39
215.031	7
215.249	-5.29
215.467	43.86
215.686	39.76
215.904	35.67
216.122	-11.43
216.341	56.15
216.559	-72.87
216.778	39.76
216.996	35.67
217.214	-52.39
217.432	68.44
217.651	-54.44
217.869	-1.19
218.087	35.67
218.306	13.14
218.524	-1.19
218.742	-5.29
218.96	13.14
219.179	0.85
219.397	35.67
219.615	45.91
219.833	41.81
220.051	-7.34
220.27	39.76
220.488	41.81
220.706	72.53
220.924	2.9
221.142	-74.92
221.36	19.29
221.578	-9.39
221.796	68.44
222.015	-1.19
222.233	-5.29
222.451	11.09
222.669	-1.19
222.887	7
223.105	-62.63
223.323	11.09
223.541	-126.12
223.759	4.95
223.977	23.38
224.195	52.05
224.413	62.29
224.631	29.52
224.849	7
225.067	56.15
225.285	-33.96
225.503	39.76
225.721	-111.78
225.939	39.76
226.157	-17.58
226.375	82.77
226.592	-9.39
226.81	52.05
227.028	56.15
227.246	33.62
227.464	-15.53
227.682	31.57
227.9	19.29
228.117	39.76
228.335	-56.49
228.553	17.24
228.771	33.62
228.989	39.76
229.206	72.53
229.424	-15.53
229.642	19.29
229.86	15.19
230.077	47.96
230.295	39.76
230.513	-1.19
230.731	82.77
230.948	80.72
231.166	56.15
231.384	-46.25
231.601	-66.73
231.819	62.29
232.037	-29.87
232.254	23.38
232.472	62.29
232.689	13.14
232.907	56.15
233.125	76.63
233.342	23.38
233.56	56.15
233.777	39.76
233.995	33.62
234.213	62.29
234.43	39.76
234.648	45.91
234.865	-7.34
235.083	72.53
235.3	72.53
235.518	80.72
235.735	47.96
235.953	21.33
236.17	2.9
236.388	-9.39
236.605	-33.96
236.822	-7.34
237.04	41.81
237.257	31.57
237.475	25.43
237.692	19.29
237.909	64.34
238.127	-15.53
238.344	99.16
238.562	58.2
238.779	-1.19
238.996	-5.29
239.214	41.81
239.431	43.86
239.648	11.09
239.865	39.76
240.083	80.72
240.3	76.63
240.517	15.19
240.735	31.57
240.952	25.43
241.169	-1.19
241.386	-48.3
241.603	13.14
241.821	-29.87
242.038	41.81
242.255	4.95
242.472	-36.01
242.689	45.91
242.907	-11.43
243.124	9.05
243.341	88.92
243.558	4.95
243.775	0.85
243.992	47.96
244.209	41.81
244.426	66.39
244.643	15.19
244.86	0.85
245.078	33.62
245.295	78.68
245.512	-64.68
245.729	-25.77
245.946	47.96
246.163	11.09
246.38	15.19
246.597	15.19
246.814	-1.19
247.031	-25.77
247.248	52.05
247.464	31.57
247.681	43.86
247.898	-11.43
248.115	-1.19
248.332	-19.63
248.549	58.2
248.766	146.26
248.983	68.44
249.2	41.81
249.417	62.29
249.633	0.85
249.85	45.91
250.067	47.96
250.284	4.95
250.501	-13.48
250.717	17.24
250.934	-25.77
251.151	0.85
251.368	-91.31
251.585	72.53
251.801	19.29
252.018	-25.77
252.235	72.53
252.451	-1.19
252.668	-33.96
252.885	56.15
253.102	-66.73
253.318	-7.34
253.535	-7.34
253.752	64.34
253.968	43.86
254.185	-70.83
254.401	-25.77
254.618	39.76
254.835	-1.19
255.051	35.67
255.268	35.67
255.484	7
255.701	7
255.917	-9.39
256.134	-66.73
256.351	11.09
256.567	-1.19
256.784	31.57
257	-42.15
257.217	68.44
257.433	-33.96
257.65	56.15
257.866	74.58
258.082	50
258.299	15.19
258.515	-9.39
258.732	33.62
258.948	-42.15
259.165	-23.72
259.381	-7.34
259.597	29.52
259.814	37.72
260.03	2.9
260.246	-23.72
260.463	43.86
260.679	7
260.895	2.9
261.112	-25.77
261.328	-1.19
261.544	7
261.761	25.43
261.977	-38.06
262.193	-56.49
262.409	47.96
262.626	-40.11
262.842	13.14
263.058	-7.34
263.274	50
263.49	-5.29
263.707	15.19
263.923	-7.34
264.139	-1.19
264.355	-9.39
264.571	80.72
264.787	45.91
265.004	23.38
265.22	23.38
265.436	54.1
265.652	7
265.868	17.24
266.084	-79.02
266.3	9.05
266.516	19.29
266.732	39.76
266.948	-38.06
267.164	7
267.38	-3.24
267.596	-5.29
267.812	68.44
268.028	7
268.244	-9.39
268.46	-23.72
268.676	47.96
268.892	7
269.108	-25.77
269.324	47.96
269.54	-5.29
269.756	72.53
269.972	31.57
270.188	35.67
270.403	-50.35
270.619	-27.82
270.835	-17.58
271.051	70.48
271.267	19.29
271.483	64.34
271.698	72.53
271.914	33.62
272.13	-5.29
272.346	-7.34
272.562	23.38
272.777	47.96
272.993	-62.63
273.209	7
273.425	-11.43
273.64	-58.54
273.856	66.39
274.072	-9.39
274.287	43.86
274.503	50
274.719	-25.77
274.934	41.81
275.15	0.85
275.366	66.39
275.581	-66.73
275.797	64.34
276.012	-21.67
276.228	9.05
276.444	50
276.659	35.67
276.875	-58.54
277.09	17.24
277.306	-7.34
277.521	7
277.737	-29.87
277.952	0.85
278.168	47.96
278.383	7
278.599	111.44
278.814	56.15
279.03	9.05
279.245	80.72
279.461	0.85
279.676	109.4
279.892	-60.59
280.107	-3.24
280.322	23.38
280.538	11.09
280.753	-44.2
280.969	35.67
281.184	50
281.399	64.34
281.615	15.19
281.83	-1.19
282.045	-29.87
282.26	50
282.476	-1.19
282.691	74.58
282.906	0.85
283.122	39.76
283.337	7
283.552	-9.39
283.767	-74.92
283.983	11.09
284.198	13.14
284.413	-1.19
284.628	-44.2
284.843	39.76
285.058	-9.39
285.274	-25.77
285.489	-72.87
285.704	-9.39
285.919	-42.15
286.134	31.57
286.349	56.15
286.564	23.38
286.779	-17.58
286.995	-9.39
287.21	-42.15
287.425	17.24
287.64	-42.15
287.855	-33.96
288.07	0.85
288.285	39.76
288.5	27.48
288.715	17.24
288.93	-3.24
289.145	9.05
289.36	-15.53
289.575	-1.19
289.79	25.43
290.004	-70.83
290.219	23.38
290.434	-38.06
290.649	15.19
290.864	45.91
291.079	2.9
291.294	7
291.509	-1.19
291.724	-9.39
291.938	-17.58
292.153	0.85
292.368	17.24
292.583	-15.53
292.798	54.1
293.012	17.24
293.227	7
293.442	-42.15
293.657	23.38
293.871	90.96
294.086	35.67
294.301	62.29
294.516	39.76
294.73	-3.24
294.945	9.05
295.16	-40.11
295.374	29.52
295.589	47.96
295.804	-19.63
296.018	-33.96
296.233	80.72
296.447	33.62
296.662	39.76
296.877	88.92
297.091	31.57
297.306	-64.68
297.52	31.57
297.735	23.38
297.949	56.15
298.164	11.09
298.378	-52.39
298.593	-23.72
298.807	-1.19
299.022	52.05
299.236	23.38
299.451	23.38
299.665	11.09
299.88	33.62
300.094	-29.87
300.309	-31.91
300.523	-15.53
300.737	-29.87
300.952	39.76
301.166	-3.24
301.381	-1.19
301.595	-64.68
301.809	0.85
302.024	7
302.238	-17.58
302.452	-31.91
302.667	17.24
302.881	129.88
303.095	-42.15
303.309	35.67
303.524	-72.87
303.738	-13.48
303.952	2.9
304.166	88.92
304.381	-21.67
304.595	64.34
304.809	15.19
305.023	64.34
305.237	-72.87
305.452	-1.19
305.666	9.05
305.88	41.81
306.094	47.96
306.308	15.19
306.522	31.57
306.736	88.92
306.95	0.85
307.164	-15.53
307.379	93.01
307.593	97.11
307.807	-15.53
308.021	50
308.235	-5.29
308.449	-31.91
308.663	-1.19
308.877	72.53
309.091	-5.29
309.305	15.19
309.519	-21.67
309.733	68.44
309.947	-44.2
310.161	11.09
310.374	39.76
310.588	68.44
310.802	41.81
311.016	23.38
311.23	80.72
311.444	-17.58
311.658	-21.67
311.872	23.38
312.085	-31.91
312.299	25.43
312.513	-70.83
312.727	76.63
312.941	-29.87
313.154	37.72
313.368	21.33
313.582	56.15
313.796	-9.39
314.009	-115.88
314.223	64.34
314.437	23.38
314.651	-9.39
314.864	39.76
315.078	17.24
315.292	-17.58
315.505	31.57
315.719	9.05
315.933	-19.63
316.146	-44.2
316.36	-9.39
316.573	93.01
316.787	9.05
317.001	-17.58
317.214	56.15
317.428	68.44
317.641	-50.35
317.855	23.38
318.068	50
318.282	-9.39
318.495	39.76
318.709	39.76
318.922	15.19
319.136	50
319.349	31.57
319.563	-13.48
319.776	4.95
319.99	27.48
320.203	41.81
320.417	19.29
320.63	35.67
320.843	-5.29
321.057	33.62
321.27	56.15
321.483	19.29
321.697	99.16
321.91	64.34
322.124	-15.53
322.337	31.57
322.55	-23.72
322.763	9.05
322.977	-5.29
323.19	-13.48
323.403	-21.67
323.617	33.62
323.83	-1.19
324.043	0.85
324.256	27.48
324.469	39.76
324.683	35.67
324.896	-42.15
325.109	7
325.322	-70.83
325.535	39.76
325.748	-7.34
325.962	-97.45
326.175	37.72
326.388	9.05
326.601	31.57
326.814	-44.2
327.027	54.1
327.24	105.3
327.453	-46.25
327.666	17.24
327.879	58.2
328.092	56.15
328.305	-7.34
328.518	17.24
328.731	-48.3
328.944	58.2
329.157	113.49
329.37	-21.67
329.583	97.11
329.796	56.15
330.009	27.48
330.222	66.39
330.435	50
330.648	11.09
330.861	15.19
331.073	9.05
331.286	43.86
331.499	-64.68
331.712	0.85
331.925	9.05
332.138	33.62
332.35	31.57
332.563	25.43
332.776	84.82
332.989	-15.53
333.202	15.19
333.414	-66.73
333.627	47.96
333.84	-31.91
334.053	17.24
334.265	13.14
334.478	7
334.691	23.38
334.903	29.52
335.116	19.29
335.329	-33.96
335.541	35.67
335.754	23.38
335.966	-7.34
336.179	2.9
336.392	29.52
336.604	-42.15
336.817	11.09
337.029	39.76
337.242	-50.35
337.454	109.4
337.667	88.92
337.88	47.96
338.092	58.2
338.305	-9.39
338.517	-15.53
338.729	58.2
338.942	37.72
339.154	-23.72
339.367	-17.58
339.579	72.53
339.792	-50.35
340.004	31.57
340.217	56.15
340.429	-9.39
340.641	23.38
340.854	2.9
341.066	43.86
341.278	95.06
341.491	82.77
341.703	60.24
341.915	-25.77
342.128	39.76
342.34	-21.67
342.552	35.67
342.764	72.53
342.977	-5.29
343.189	35.67
343.401	52.05
343.613	-11.43
343.826	-23.72
344.038	37.72
344.25	21.33
344.462	25.43
344.674	35.67
344.886	56.15
345.099	-13.48
345.311	-21.67
345.523	11.09
345.735	-7.34
345.947	97.11
346.159	7
346.371	-13.48
346.583	-7.34
346.795	72.53
347.007	43.86
347.219	23.38
347.431	29.52
347.643	-31.91
347.855	47.96
348.067	2.9
348.279	-21.67
348.491	-1.19
348.703	60.24
348.915	60.24
349.127	9.05
349.339	39.76
349.551	35.67
349.763	39.76
349.975	47.96
350.187	66.39
350.399	72.53
350.61	19.29
350.822	37.72
351.034	27.48
351.246	7
351.458	35.67
351.669	-83.11
351.881	11.09
352.093	109.4
352.305	90.96
352.517	-23.72
352.728	72.53
352.94	-50.35
353.152	31.57
353.363	-74.92
353.575	-13.48
353.787	68.44
353.999	13.14
354.21	115.54
354.422	-15.53
354.633	23.38
354.845	52.05
355.057	0.85
355.268	7
355.48	76.63
355.692	-33.96
355.903	68.44
356.115	-5.29
356.326	-17.58
356.538	82.77
356.749	23.38
356.961	52.05
357.172	-48.3
357.384	-9.39
357.595	109.4
357.807	56.15
358.018	-1.19
358.23	105.3
358.441	115.54
358.653	-44.2
358.864	17.24
359.075	7
359.287	97.11
359.498	-1.19
359.709	31.57
359.921	9.05
360.132	9.05
360.344	7
360.555	-23.72
360.766	39.76
360.977	-5.29
361.189	29.52
361.4	4.95
361.611	76.63
361.823	95.06
362.034	60.24
362.245	-5.29
362.456	9.05
362.667	45.91
362.879	-3.24
363.09	13.14
363.301	-25.77
363.512	35.67
363.723	-31.91
363.935	9.05
364.146	11.09
364.357	21.33
364.568	15.19
364.779	-58.54
364.99	39.76
365.201	15.19
365.412	-1.19
365.623	-89.26
365.834	-1.19
366.045	82.77
366.256	47.96
366.467	11.09
366.678	88.92
366.889	35.67
367.1	-25.77
367.311	50
367.522	52.05
367.733	-11.43
367.944	21.33
368.155	-11.43
368.366	72.53
368.577	-42.15
368.788	101.2
368.999	-50.35
369.209	7
369.42	21.33
369.631	133.97
369.842	25.43
370.053	27.48
370.264	31.57
370.474	-56.49
370.685	72.53
370.896	2.9
371.107	68.44
371.317	11.09
371.528	45.91
371.739	-21.67
371.95	47.96
372.16	52.05
372.371	-40.11
372.582	-27.82
372.792	0.85
373.003	7
373.214	-15.53
373.424	39.76
373.635	23.38
373.846	23.38
374.056	-5.29
374.267	121.68
374.477	-15.53
374.688	17.24
374.898	72.53
375.109	-25.77
375.319	50
375.53	23.38
375.74	-3.24
375.951	25.43
376.161	-9.39
376.372	60.24
376.582	19.29
376.793	21.33
377.003	0.85
377.214	33.62
377.424	-74.92
377.635	33.62
377.845	15.19
378.055	109.4
378.266	17.24
378.476	27.48
378.686	19.29
378.897	80.72
379.107	39.76
379.317	66.39
379.528	-38.06
379.738	0.85
379.948	-25.77
380.158	-9.39
380.369	99.16
380.579	43.86
380.789	-9.39
380.999	54.1
381.21	-36.01
381.42	78.68
381.63	-13.48
381.84	-9.39
382.05	23.38
382.261	62.29
382.471	11.09
382.681	-38.06
382.891	0.85
383.101	47.96
383.311	0.85
383.521	17.24
383.731	70.48
383.941	50
384.151	23.38
384.361	101.2
384.571	80.72
384.781	54.1
384.991	131.92
385.201	80.72
385.411	15.19
385.621	7
385.831	23.38
386.041	-38.06
386.251	9.05
386.461	-3.24
386.671	-1.19
386.881	107.35
387.091	-1.19
387.301	80.72
387.511	25.43
387.72	29.52
387.93	23.38
388.14	-29.87
388.35	27.48
388.56	56.15
388.769	41.81
388.979	97.11
389.189	25.43
389.399	76.63
389.609	47.96
389.818	58.2
390.028	37.72
390.238	52.05
390.447	58.2
390.657	64.34
390.867	-38.06
391.076	64.34
391.286	62.29
391.496	-25.77
391.705	33.62
391.915	80.72
392.125	39.76
392.334	9.05
392.544	35.67
392.753	-17.58
392.963	11.09
393.172	31.57
393.382	-15.53
393.591	82.77
393.801	-25.77
394.01	39.76
394.22	17.24
394.429	50
394.639	11.09
394.848	56.15
395.058	27.48
395.267	-5.29
395.477	93.01
395.686	25.43
395.895	68.44
396.105	97.11
396.314	97.11
396.524	41.81
396.733	-56.49
396.942	60.24
397.152	50
397.361	117.59
397.57	-19.63
397.78	52.05
397.989	105.3
398.198	33.62
398.407	19.29
398.617	76.63
398.826	88.92
399.035	47.96
399.244	105.3
399.453	29.52
399.663	25.43
399.872	31.57
400.081	82.77
400.29	31.57
400.499	62.29
400.708	113.49
400.917	39.76
401.127	15.19
401.336	72.53
401.545	117.59
401.754	82.77
401.963	123.73
402.172	64.34
402.381	39.76
402.59	54.1
402.799	68.44
403.008	72.53
403.217	156.5
403.426	60.24
403.635	62.29
403.844	70.48
404.053	90.96
404.262	78.68
404.471	207.7
404.68	68.44
404.888	138.07
405.097	60.24
405.306	181.07
405.515	2.9
405.724	95.06
405.933	156.5
406.142	133.97
406.35	103.25
406.559	111.44
406.768	140.12
406.977	140.12
407.185	113.49
407.394	148.31
407.603	47.96
407.812	129.88
408.02	140.12
408.229	162.64
408.438	138.07
408.646	150.36
408.855	189.27
409.064	183.12
409.272	207.7
409.481	285.52
409.69	115.54
409.898	170.83
410.107	217.94
410.315	238.42
410.524	166.74
410.733	219.99
410.941	133.97
411.15	203.6
411.358	207.7
411.567	281.43
411.775	219.99
411.984	203.6
412.192	275.28
412.401	301.9
412.609	299.86
412.818	375.63
413.026	252.75
413.234	265.04
413.443	301.9
413.651	326.48
413.86	285.52
414.068	441.17
414.276	441.17
414.485	402.26
414.693	361.3
414.901	459.6
415.11	441.17
415.318	490.32
415.526	451.41
415.734	598.86
415.943	494.41
416.151	459.6
416.359	549.71
416.567	508.75
416.776	621.39
416.984	613.2
417.192	662.35
417.4	572.24
417.608	586.57
417.817	656.2
418.025	674.64
418.233	772.94
418.441	723.79
418.649	729.93
418.857	875.34
419.065	861
419.273	707.4
419.481	858.95
419.689	920.39
419.897	953.16
420.105	891.72
420.313	934.73
420.521	959.3
420.729	1205.06
420.937	1104.71
421.145	1137.48
421.353	1131.33
421.561	1211.2
421.769	1321.79
421.977	1370.94
422.185	1194.82
422.393	1354.56
422.601	1467.2
422.809	1499.97
423.017	1456.96
423.224	1575.74
423.432	1581.89
423.64	1637.18
423.848	1762.11
424.056	1719.1
424.263	1727.29
424.471	1772.35
424.679	1784.63
424.887	1968.95
425.094	1925.94
425.302	1991.48
425.51	2169.65
425.718	2200.37
425.925	2192.18
426.133	2337.59
426.341	2313.01
426.548	2521.9
426.756	2433.84
426.964	2452.27
427.171	2579.25
427.379	2751.28
427.586	2784.04
427.794	2935.59
428.001	2868.01
428.209	3019.56
428.417	3025.7
428.624	3318.56
428.832	3205.92
429.039	3318.56
429.247	3210.02
429.454	3537.7
429.662	3875.61
429.869	3580.7
430.076	3857.18
430.284	3664.67
430.491	3818.27
430.699	4088.6
430.906	4111.13
431.114	4078.36
431.321	4262.68
431.528	4356.88
431.736	4533.01
431.943	4850.44
432.15	4684.56
432.358	4958.99
432.565	5104.39
432.772	4897.55
432.979	5176.07
433.187	5397.25
433.394	5290.76
433.601	5837.56
433.808	5831.42
434.016	5753.6
434.223	6140.66
434.43	6380.28
434.637	6302.45
434.844	6613.74
435.052	6789.87
435.259	6650.61
435.466	6824.69
435.673	6732.53
435.88	7217.9
436.087	7473.89
436.294	7516.9
436.501	7217.9
436.708	7473.89
436.915	7557.86
437.122	7834.33
437.329	8188.63
437.537	8237.78
437.743	8358.61
437.95	8207.06
438.157	8772.3
438.364	9159.37
438.571	9114.31
438.778	9018.06
438.985	10050.24
439.192	9777.86
439.399	9972.41
439.606	9433.8
439.813	10302.14
440.02	10945.2
440.227	10668.72
440.433	10443.45
440.64	11100.84
440.847	10812.08
441.054	10990.25
441.261	11688.61
441.467	11635.36
441.674	11956.89
441.881	12380.82
442.088	12208.8
442.294	12159.64
442.501	12401.3
442.708	12817.04
442.914	13343.37
443.121	13769.35
443.328	13456.01
443.534	14297.72
443.741	13867.65
443.948	13806.21
444.154	14889.59
444.361	14815.86
444.568	14938.74
444.774	14883.44
444.981	15049.33
445.187	15665.77
445.394	15999.59
445.6	15848.04
445.807	17656.39
446.013	16730.71
446.22	16984.66
446.426	17830.47
446.633	18127.42
446.839	18573.88
447.046	17488.46
447.252	18455.1
447.459	18700.86
447.665	18414.14
447.871	19298.86
448.078	20281.89
448.284	19362.35
448.491	20015.65
448.697	20902.42
448.903	21121.56
449.11	21164.56
449.316	20726.3
449.522	20984.34
449.728	21746.19
449.935	21828.1
450.141	21959.17
450.347	22397.44
450.553	21623.31
450.76	22301.19
450.966	23087.61
451.172	22317.57
451.378	23142.9
451.584	22778.36
451.791	23405.04
451.997	23138.8
452.203	23532.01
452.409	23878.12
452.615	23486.96
452.821	22497.79
453.027	22477.31
453.233	23452.14
453.44	22647.29
453.646	23085.56
453.852	23091.7
454.058	23210.48
454.264	22583.8
454.47	23194.1
454.676	22233.6
454.882	23204.34
455.088	21283.34
455.294	21826.06
455.5	22022.66
455.705	22282.75
455.911	21416.46
456.117	20961.81
456.323	20857.37
456.529	19792.42
456.735	20582.94
456.941	19982.88
457.147	19808.81
457.352	18924.08
457.558	18983.48
457.764	19067.44
457.97	18700.86
458.176	18209.34
458.381	18238.02
458.587	17244.75
458.793	17267.28
458.999	16341.6
459.204	17863.24
459.41	17232.46
459.616	15999.59
459.821	15837.8
460.027	15966.82
460.233	15854.18
460.438	15018.61
460.644	14850.67
460.85	14314.11
461.055	13963.9
461.261	14424.7
461.466	13245.07
461.672	12704.4
461.878	13697.67
462.083	12753.55
462.289	12499.61
462.494	12393.11
462.7	11735.71
462.905	11418.28
463.111	11838.11
463.316	11999.9
463.522	11604.64
463.727	11537.06
463.932	11676.32
464.138	11571.88
464.343	11930.27
464.549	11420.33
464.754	11520.68
464.959	11539.11
465.165	11350.7
465.37	11043.5
465.575	10525.36
465.781	11123.37
465.986	11403.94
466.191	10781.36
466.397	10459.83
466.602	9962.17
466.807	10183.35
467.012	10498.74
467.218	10330.81
467.423	10226.36
467.628	10365.62
467.833	10791.6
468.038	10437.3
468.244	10052.28
468.449	10416.82
468.654	9953.98
468.859	10195.64
469.064	10195.64
469.269	9638.59
469.474	9814.72
469.679	9906.88
469.885	9571.01
470.09	9822.91
470.295	9794.24
470.5	9251.53
470.705	9550.53
470.91	9247.43
471.115	9126.6
471.32	9431.75
471.525	9325.26
471.73	9231.05
471.935	9032.4
472.139	8569.55
472.344	8903.37
472.549	8825.55
472.754	8626.9
472.959	8610.51
473.164	8397.53
473.369	8174.3
473.574	8616.66
473.778	8493.78
473.983	8258.26
474.188	8217.3
474.393	7887.58
474.598	7961.31
474.802	7897.82
475.007	7760.61
475.212	7713.5
475.417	7736.03
475.621	7529.19
475.826	7420.64
476.031	7531.23
476.235	7281.38
476.44	7314.15
476.645	7297.77
476.849	7256.81
477.054	7097.07
477.259	7066.35
477.463	7095.02
477.668	6996.71
477.872	7117.54
478.077	6796.01
478.282	6757.1
478.486	6808.3
478.691	6658.8
478.895	6572.79
479.1	6505.2
479.304	6449.91
479.509	6456.05
479.713	6644.46
479.918	6337.27
480.122	6267.64
480.326	6357.75
480.531	6372.08
480.735	6281.97
480.94	6187.77
481.144	6337.27
481.348	6046.46
481.553	6187.77
481.757	6077.18
481.961	6380.28
482.166	6331.12
482.37	6265.59
482.574	6134.52
482.778	6062.84
482.983	6253.3
483.187	6243.06
483.391	6175.48
483.595	6062.84
483.8	6066.94
484.004	6193.91
484.208	6118.14
484.412	6052.6
484.616	6001.4
484.821	6120.18
485.025	5956.35
485.229	6068.98
485.433	6075.13
485.637	6159.1
485.841	6007.55
486.045	6075.13
486.249	6036.22
486.453	6009.59
486.657	6290.17
486.861	6163.19
487.065	5890.81
487.269	6138.62
487.473	6093.56
487.677	6185.72
487.881	6167.29
488.085	5894.91
488.289	6120.18
488.493	6193.91
488.697	6173.43
488.901	6175.48
489.105	6253.3
489.309	6216.44
489.512	6210.29
489.716	6320.88
489.92	6288.12
490.124	6175.48
490.328	6310.65
490.531	6339.32
490.735	6488.82
490.939	6419.19
491.143	6265.59
491.346	6269.69
491.55	6527.73
491.754	6226.68
491.958	6400.76
492.161	6605.55
492.365	6445.81
492.569	6501.11
492.772	6601.46
492.976	6451.95
493.18	6687.47
493.383	6785.77
493.587	6722.29
493.79	6968.04
493.994	6544.11
494.197	6669.04
494.401	6884.08
494.605	6949.61
494.808	7000.81
495.012	7002.86
495.215	6961.9
495.419	7138.02
495.622	7103.21
495.825	7301.86
496.029	7383.78
496.232	7420.64
496.436	7363.3
496.639	7604.96
496.843	7639.78
497.046	7703.26
497.249	7709.41
497.453	7701.22
497.656	7891.68
497.859	7746.27
498.063	7822.05
498.266	8133.34
498.469	8075.99
498.673	7973.6
498.876	8274.65
499.079	8256.22
499.282	8426.2
499.485	8542.93
499.689	8616.66
499.892	8645.33
500.095	8796.88
500.298	8878.8
500.501	8807.12
500.705	9001.68
500.908	9104.07
501.111	9280.2
501.314	9482.95
501.517	9519.81
501.72	9554.63
501.923	9654.98
502.126	9898.69
502.329	9880.25
502.532	9888.45
502.735	10031.8
502.938	10304.18
503.141	10347.19
503.344	10451.64
503.547	10650.29
503.75	10787.5
503.953	10910.38
504.156	10990.25
504.359	11150
504.562	11199.15
504.765	11483.81
504.968	11588.26
505.17	11774.63
505.373	11598.5
505.576	11838.11
505.779	12094.11
505.982	12079.77
506.185	12102.3
506.387	12548.76
506.59	12542.61
506.793	12704.4
506.996	12599.96
507.198	13173.39
507.401	13136.52
507.604	13161.1
507.807	13421.19
508.009	13542.02
508.212	13810.31
508.415	13834.88
508.617	14133.89
508.82	13920.9
509.022	14013.06
509.225	14383.74
509.428	14459.51
509.63	14645.88
509.833	14590.58
510.035	15215.21
510.238	14920.31
510.44	15268.46
510.643	15598.18
510.845	15495.78
511.048	15841.89
511.25	15925.86
511.453	15909.47
511.655	16487
511.858	16288.35
512.06	16384.6
512.262	16732.76
512.465	16577.11
512.667	16902.74
512.87	17062.48
513.072	17171.02
513.274	17623.62
513.477	17678.92
513.679	17842.76
513.881	18082.37
514.084	18156.1
514.286	18160.19
514.488	18455.1
514.69	18948.66
514.893	19094.07
515.095	19274.29
515.297	19577.39
515.499	19571.24
515.701	19679.79
515.904	19661.35
516.106	19862.05
516.308	20150.82
516.51	20492.83
516.712	20578.84
516.914	20750.87
517.116	20787.74
517.318	20972.05
517.52	21176.85
517.722	21152.27
517.925	21979.65
518.127	22016.52
518.329	22454.78
518.531	21832.2
518.733	22243.84
518.935	22352.38
519.136	22649.34
519.338	22882.81
519.54	23220.72
519.742	23228.91
519.944	23273.97
520.146	23740.91
520.348	23822.83
520.55	23935.46
520.752	24084.97
520.954	24635.87
521.155	24490.46
521.357	24877.53
521.559	25104.85
521.761	25356.75
521.963	25285.08
522.164	25633.23
522.366	25416.15
522.568	26096.07
522.77	26108.36
522.971	26833.34
523.173	26417.6
523.375	26554.82
523.576	26597.82
523.778	26548.67
523.98	27312.56
524.181	27081.14
524.383	27314.61
524.584	27257.27
524.786	27582.9
524.988	27701.68
525.189	27900.33
525.391	28139.94
525.592	28131.75
525.794	28328.36
525.995	28436.9
526.197	28457.38
526.398	28760.48
526.6	28885.4
526.801	28944.8
527.003	29084.06
527.204	29106.59
527.406	29387.16
527.607	29471.12
527.808	29936.01
528.01	29137.3
528.211	29727.12
528.412	30034.32
528.614	29899.15
528.815	29845.9
529.016	30085.51
529.218	29888.91
529.419	29997.45
529.62	30300.55
529.822	30200.2
530.023	30185.86
530.224	30570.88
530.425	29989.26
530.626	30220.68
530.828	30372.23
531.029	30931.33
531.23	30402.95
531.431	30366.09
531.632	30607.75
531.833	30697.86
532.035	30519.68
532.236	30986.62
532.437	31308.15
532.638	30427.53
532.839	30861.69
533.04	31099.26
533.241	30501.25
533.442	31009.15
533.643	30927.23
533.844	30900.61
534.045	30960
534.246	30933.37
534.447	31097.21
534.648	30841.21
534.849	31086.97
535.05	30796.16
535.251	31283.58
535.451	31043.96
535.652	31306.1
535.853	30865.79
536.054	31000.96
536.255	31467.89
536.456	30900.61
536.657	31474.04
536.857	31250.81
537.058	30822.78
537.259	31297.91
537.46	31039.87
537.66	31412.6
537.861	31148.41
538.062	31238.52
538.263	31693.17
538.463	31422.84
538.664	31000.96
538.865	31496.56
539.065	31291.77
539.266	30790.02
539.466	31416.69
539.667	31054.2
539.868	31566.2
540.068	31330.68
540.269	30970.24
540.469	31732.08
540.67	30658.95
540.87	30955.9
541.071	30839.17
541.271	31248.76
541.472	30970.24
541.672	31283.58
541.873	31099.26
542.073	30833.02
542.274	31054.2
542.474	31244.66
542.675	30835.07
542.875	31459.7
543.075	31449.46
543.276	30888.32
543.476	31250.81
543.676	31187.32
543.877	31459.7
544.077	31152.51
544.277	31117.69
544.478	30816.64
544.678	31062.4
544.878	30919.04
545.078	30878.08
545.279	30970.24
545.479	31129.98
545.679	31326.58
545.879	31015.29
546.079	31211.9
546.28	31089.02
546.48	30689.67
546.68	31340.92
546.88	30810.5
547.08	30839.17
547.28	30882.17
547.48	30771.58
547.68	31205.75
547.88	30759.3
548.081	30892.41
548.281	30697.86
548.481	30515.59
548.681	30863.74
548.881	31334.78
549.081	30888.32
549.28	30806.4
549.48	30972.28
549.68	30683.52
549.88	31150.46
550.08	31031.68
550.28	31107.45
550.48	30824.83
550.68	30716.29
550.88	30943.61
551.08	30931.33
551.279	30615.94
551.479	30652.8
551.679	30976.38
551.879	30484.87
552.079	31152.51
552.278	30480.77
552.478	30808.45
552.678	31007.1
552.878	31070.59
553.077	30701.95
553.277	30298.5
553.477	31306.1
553.676	30443.91
553.876	30876.03
554.076	30247.3
554.275	30462.34
554.475	30343.56
554.674	30443.91
554.874	30609.79
555.074	30839.17
555.273	30323.08
555.473	30550.4
555.672	30261.64
555.872	30366.09
556.071	30419.33
556.271	30697.86
556.47	30388.61
556.67	29929.87
556.869	29944.2
557.068	29921.68
557.268	30093.71
557.467	30245.26
557.667	29983.12
557.866	30251.4
558.065	29784.46
558.265	29663.63
558.464	29632.91
558.663	29938.06
558.863	29731.22
559.062	30013.84
559.261	30095.75
559.461	29948.3
559.66	29596.05
559.859	29483.41
560.058	29407.64
560.258	29794.7
560.457	29106.59
560.656	29618.58
560.855	29522.32
561.054	29514.13
561.253	29100.44
561.453	29481.36
561.652	29645.2
561.851	29530.51
562.05	29127.06
562.249	29188.5
562.448	29510.04
562.647	29389.2
562.846	29100.44
563.045	28971.42
563.244	28549.54
563.443	29208.98
563.642	28807.58
563.841	29008.28
564.04	28512.67
564.239	28813.73
564.438	28680.61
564.637	28625.31
564.836	28522.91
565.035	28443.04
565.234	28498.34
565.432	28068.27
565.631	28443.04
565.83	28533.15
566.029	28160.42
566.228	28150.18
566.427	28098.98
566.625	28037.55
566.824	27478.45
567.023	27888.04
567.222	27586.99
567.42	27937.2
567.619	27318.71
567.818	27636.14
568.016	27670.96
568.215	27771.31
568.414	27357.62
568.612	27650.48
568.811	27247.03
569.01	27466.16
569.208	27124.15
569.407	27374
569.605	26859.96
569.804	27480.5
570.002	26864.06
570.201	27031.99
570.4	26716.61
570.598	26538.43
570.797	26536.38
570.995	26716.61
571.193	26309.06
571.392	26792.38
571.59	26444.23
571.789	26401.22
571.987	26507.71
572.186	25852.36
572.384	26126.79
572.582	26286.53
572.781	26163.65
572.979	25502.16
573.177	25770.44
573.376	26057.16
573.574	25729.48
573.772	25702.86
573.971	25762.25
574.169	25493.97
574.367	25514.45
574.565	25737.68
574.763	25475.54
574.962	25139.67
575.16	25287.12
575.358	25184.73
575.556	24752.6
575.754	25166.29
575.952	24619.49
576.151	25035.22
576.349	24717.79
576.547	24746.46
576.745	24781.28
576.943	24654.3
577.141	24547.81
577.339	24664.54
577.537	24531.42
577.735	24484.32
577.933	23835.11
578.131	24199.65
578.329	24185.32
578.527	23972.33
578.725	24076.77
578.923	23978.47
579.121	24152.55
579.319	23794.15
579.516	23695.85
579.714	23718.38
579.912	23476.72
580.11	23331.31
580.308	23681.52
580.506	23564.78
580.704	23224.82
580.901	23454.19
581.099	23511.53
581.297	23222.77
581.495	23038.45
581.692	23124.47
581.89	23071.22
582.088	22985.21
582.285	23173.62
582.483	23157.24
582.681	22977.01
582.878	23042.55
583.076	22694.4
583.274	22739.45
583.471	22243.84
583.669	22473.21
583.866	22350.34
584.064	22393.34
584.262	22102.53
584.459	22221.31
584.657	22026.76
584.854	22481.41
585.052	21875.21
585.249	21791.24
585.447	22018.57
585.644	21680.65
585.841	21744.14
586.039	21836.3
586.236	21338.64
586.434	21506.57
586.631	21793.29
586.828	21543.44
587.026	21680.65
587.223	21404.17
587.42	21381.65
587.618	21506.57
587.815	21090.84
588.012	20974.1
588.21	20898.33
588.407	21408.27
588.604	20931.09
588.801	20896.28
588.999	21084.69
589.196	20757.02
589.393	20724.25
589.59	20644.38
589.787	20625.95
589.984	20507.16
590.182	20439.58
590.379	20615.71
590.576	20275.74
590.773	20462.11
590.97	19991.08
591.167	20312.61
591.364	19962.4
591.561	20152.87
591.758	20107.81
591.955	19857.96
592.152	20242.98
592.349	19929.64
592.546	19921.45
592.743	20019.75
592.94	19431.98
593.137	19661.35
593.334	19497.52
593.531	19341.87
593.727	19616.3
593.924	19319.34
594.121	19386.93
594.318	19204.66
594.515	18979.38
594.712	19184.18
594.908	18782.77
595.105	18971.19
595.302	18963
595.499	18997.81
595.696	19038.77
595.892	18620.99
596.089	19055.15
596.286	18661.94
596.482	18727.48
596.679	18653.75
596.876	18948.66
597.072	18260.54
597.269	18274.88
597.466	18172.48
597.662	18252.35
597.859	18135.62
598.055	18252.35
598.252	17910.34
598.448	18225.73
598.645	18119.23
598.841	17834.57
599.038	18049.6
599.234	17982.02
599.431	17816.13
599.627	17570.38
599.824	17594.95
600.02	17584.71
600.217	17480.27
600.413	17437.26
600.609	17691.21
600.806	17488.46
601.002	17498.7
601.198	17199.69
601.395	17230.41
601.591	17265.23
601.787	17316.43
601.984	16951.89
602.18	17031.76
602.376	16800.34
602.572	16917.08
602.769	16947.79
602.965	16611.93
603.161	16755.29
603.357	16517.72
603.553	16710.23
603.75	16915.03
603.946	16452.19
604.142	16607.83
604.338	16474.71
604.534	16456.28
604.73	16247.39
604.926	16204.38
605.122	16259.68
605.318	16112.22
605.514	16046.69
605.71	16202.33
605.906	15891.04
606.102	15993.44
606.298	16218.72
606.494	16001.63
606.69	16011.87
606.886	15970.91
607.082	15866.47
607.278	15782.5
607.474	15833.7
607.67	15856.23
607.866	15551.08
608.062	15893.09
608.257	15608.42
608.453	15589.99
608.649	15790.69
608.845	15250.03
609.041	15508.07
609.236	15428.2
609.432	15606.38
609.628	15362.67
609.824	15450.73
610.019	15112.81
610.215	15348.33
610.411	15444.59
610.606	14869.11
610.802	15334
610.998	15229.55
611.193	15084.14
611.389	14928.5
611.584	14994.03
611.78	14924.4
611.976	14961.27
612.171	14959.22
612.367	14981.74
612.562	14865.01
612.758	14547.58
612.953	14752.37
613.149	14664.31
613.344	14711.41
613.539	14719.6
613.735	14553.72
613.93	14645.88
614.126	14596.73
614.321	14430.84
614.517	14621.3
614.712	14596.73
614.907	14449.27
615.103	14434.94
615.298	14490.23
615.493	14588.53
615.688	14242.43
615.884	14553.72
616.079	14258.81
616.274	14416.51
616.47	14131.84
616.665	14254.72
616.86	14092.93
617.055	14146.17
617.25	14097.02
617.445	14193.28
617.641	14074.49
617.836	14062.21
618.031	13785.73
618.226	13884.03
618.421	13687.43
618.616	13838.98
618.811	13693.57
619.006	13714.05
619.201	13476.49
619.396	13447.82
619.591	13347.47
619.786	13484.68
619.981	13236.88
620.176	13322.89
620.371	13247.12
620.566	13093.52
620.761	13116.05
620.956	13333.13
621.151	12868.24
621.346	13222.54
621.541	12755.6
621.735	13003.41
621.93	12767.89
622.125	12610.2
622.32	12468.89
622.515	12591.77
622.709	12747.41
622.904	12472.98
623.099	12479.13
623.294	12399.26
623.488	12223.13
623.683	12370.58
623.878	12034.72
624.072	12098.2
624.267	12030.62
624.462	11922.08
624.656	11852.45
624.851	11836.06
625.046	11782.82
625.24	11901.6
625.435	11549.35
625.629	11616.93
625.824	11440.81
626.018	11381.42
626.213	11541.16
626.407	11289.26
626.602	11405.99
626.796	11106.99
626.991	11213.48
627.185	10961.58
627.38	10945.2
627.574	10898.1
627.768	10853.04
627.963	10767.03
628.157	10875.57
628.352	10930.86
628.546	10486.45
628.74	10742.45
628.935	10556.08
629.129	10427.06
629.323	10564.28
629.517	10425.01
629.712	10390.2
629.906	10107.58
630.1	10263.22
630.294	10152.63
630.489	10193.59
630.683	10181.31
630.877	10001.08
631.071	9829.06
631.265	9810.62
631.459	9906.88
631.653	9851.58
631.848	9929.41
632.042	9808.58
632.236	9691.84
632.43	9667.27
632.624	9814.72
632.818	9575.11
633.012	9302.73
633.206	9390.79
633.4	9528
633.594	9159.37
633.788	9157.32
633.982	9300.68
634.176	9419.46
634.369	9179.85
634.563	9026.25
634.757	8856.27
634.951	9120.46
635.145	9087.69
635.339	8915.66
635.533	8723.15
635.726	8962.76
635.92	8686.29
636.114	8549.07
636.308	8850.13
636.501	8710.86
636.695	8729.3
636.889	8510.16
637.083	8436.44
637.276	8379.09
637.47	8305.37
637.664	8395.48
637.857	8334.04
638.051	8395.48
638.244	8243.93
638.438	7973.6
638.632	7881.44
638.825	8053.47
639.019	8043.23
639.212	7961.31
639.406	7924.44
639.599	7944.92
639.793	7897.82
639.986	7693.02
640.18	7776.99
640.373	7719.65
640.567	7707.36
640.76	7750.37
640.954	7762.65
641.147	7416.55
641.34	7523.04
641.534	7461.6
641.727	7832.29
641.92	7326.44
642.114	7381.73
642.307	7215.85
642.5	7355.11
642.694	6963.95
642.887	7158.5
643.08	7092.97
643.273	7138.02
643.467	7228.14
643.66	7029.48
643.853	7275.24
644.046	6892.27
644.239	7002.86
644.432	6865.64
644.626	6836.97
644.819	6769.39
645.012	6626.03
645.205	6724.33
645.398	6748.91
645.591	6634.22
645.784	6712.05
645.977	6439.67
646.17	6580.98
646.363	6525.68
646.556	6331.12
646.749	6322.93
646.942	6298.36
647.135	6507.25
647.328	6253.3
647.521	6218.49
647.714	6175.48
647.907	6107.9
648.099	6122.23
648.292	6118.14
648.485	6218.49
648.678	5866.24
648.871	6009.59
649.064	5966.59
649.256	5901.05
649.449	5804.8
649.642	5880.57
649.835	5886.72
650.027	5882.62
650.22	5905.15
650.413	5761.79
650.605	5839.61
650.798	5843.71
650.991	5667.58
651.183	5636.86
651.376	5481.22
651.568	5683.97
651.761	5466.88
651.954	5524.23
652.146	5446.4
652.339	5544.7
652.531	5348.1
652.724	5382.92
652.916	5356.29
653.109	5276.42
653.301	5430.02
653.494	5536.51
653.686	5274.37
653.879	5237.51
654.071	5149.45
654.263	5131.02
654.456	5264.13
654.648	5243.65
654.84	5102.34
655.033	5165.83
655.225	5090.06
655.417	4913.93
655.61	5090.06
655.802	5057.29
655.994	4844.3
656.186	4881.16
656.379	4961.03
656.571	4862.73
656.763	4746
656.955	4633.36
657.148	4958.99
657.34	4815.63
657.532	4635.41
657.724	4702.99
657.916	4717.33
658.108	4795.15
658.3	4694.8
658.492	4571.92
658.684	4594.45
658.876	4631.31
659.068	4549.39
659.26	4571.92
659.452	4369.17
659.644	4535.06
659.836	4406.03
660.028	4496.14
660.22	4317.97
660.412	4307.73
660.604	4422.42
660.796	4414.23
660.988	4176.66
661.18	4303.64
661.372	4203.29
661.563	4289.3
661.755	4111.13
661.947	4127.51
662.139	3967.77
662.331	4078.36
662.522	4021.02
662.714	4016.92
662.906	4047.64
663.097	3922.71
663.289	4033.3
663.481	3971.86
663.673	3910.43
663.864	3822.36
664.056	3982.1
664.247	3777.31
664.439	3894.04
664.631	3846.94
664.822	3988.25
665.014	3832.6
665.205	3785.5
665.397	3754.78
665.588	3771.16
665.78	3781.4
665.971	3689.25
666.163	3545.89
666.354	3703.58
666.546	3752.73
666.737	3541.79
666.929	3588.89
667.12	3537.7
667.311	3466.02
667.503	3470.11
667.694	3504.93
667.885	3554.08
668.077	3506.98
668.268	3318.56
668.459	3521.31
668.651	3478.3
668.842	3447.58
669.033	3334.95
669.224	3320.61
669.416	3369.76
669.607	3357.47
669.798	3373.86
669.989	3310.37
670.18	3281.7
670.371	3152.68
670.563	3177.25
670.754	3062.57
670.945	3171.11
671.136	3373.86
671.327	3117.86
671.518	3250.98
671.709	3218.21
671.9	3111.72
672.091	3236.64
672.282	3195.68
672.473	3081
672.664	3205.92
672.855	3046.18
673.046	3058.47
673.237	3111.72
673.428	3109.67
673.619	3072.81
673.809	3029.8
674	3089.19
674.191	3017.51
674.382	2954.02
674.573	3048.23
674.764	2908.97
674.954	3037.99
675.145	2894.63
675.336	2851.63
675.527	2939.69
675.717	2915.11
675.908	2857.77
676.099	3007.27
676.289	2960.17
676.48	2900.78
676.671	2911.02
676.861	2878.25
677.052	2890.54
677.243	2767.66
677.433	2792.23
677.624	2816.81
677.814	2861.87
678.005	2841.39
678.195	2822.95
678.386	2904.87
678.576	2753.32
678.767	2759.47
678.957	2874.15
679.148	2800.43
679.338	2767.66
679.529	2730.8
679.719	2779.95
679.909	2804.52
680.1	2761.52
680.29	2784.04
680.481	2693.93
680.671	2775.85
680.861	2720.56
681.052	2693.93
681.242	2628.4
681.432	2861.87
681.622	2628.4
681.813	2734.89
682.003	2763.56
682.193	2579.25
682.383	2786.09
682.573	2661.16
682.764	2620.21
682.954	2577.2
683.144	2638.64
683.334	2730.8
683.524	2663.21
683.714	2548.53
683.904	2556.72
684.094	2681.64
684.284	2587.44
684.474	2747.18
684.664	2652.97
684.854	2532.14
685.044	2530.09
685.234	2534.19
685.424	2472.75
685.614	2452.27
685.804	2513.71
685.994	2521.9
686.184	2573.1
686.374	2513.71
686.564	2583.34
686.753	2505.52
686.943	2392.88
687.133	2427.7
687.323	2530.09
687.513	2448.18
687.702	2472.75
687.892	2474.8
688.082	2423.6
688.272	2450.22
688.461	2456.37
688.651	2505.52
688.841	2327.35
689.03	2446.13
689.22	2376.5
689.41	2474.8
689.599	2378.55
689.789	2427.7
689.979	2415.41
690.168	2358.07
690.358	2356.02
690.547	2321.2
690.737	2427.7
690.926	2321.2
691.116	2229.04
691.305	2374.45
691.495	2251.57
691.684	2222.9
691.874	2300.72
692.063	2270
692.252	2229.04
692.442	2157.36
692.631	2214.71
692.82	2173.75
693.01	2304.82
693.199	2194.23
693.388	2140.98
693.578	2267.95
693.767	2179.89
693.956	2206.52
694.146	2188.08
694.335	2165.56
694.524	2153.27
694.713	2104.12
694.902	2130.74
695.092	2112.31
695.281	2147.12
695.47	2161.46
695.659	2079.54
695.848	2136.88
696.037	2116.41
696.226	2112.31
696.415	2054.97
696.604	2136.88
696.793	2104.12
696.982	2147.12
697.171	2122.55
697.36	2054.97
697.549	2097.97
697.738	2126.64
697.927	2038.58
698.116	2075.45
698.305	2159.41
698.494	2075.45
698.683	2077.49
698.872	2046.77
699.061	2097.97
699.25	2145.08
699.438	2046.77
699.627	2143.03
699.816	2097.97
700.005	1940.28
700.193	2128.69
700.382	2120.5
700.571	2030.39
700.76	1973.05
700.948	2073.4
701.137	2034.49
701.326	2145.08
701.514	1999.67
701.703	2061.11
701.892	1979.19
702.08	2224.95
702.269	2054.97
702.457	2005.81
702.646	2018.1
702.834	1964.86
703.023	1973.05
703.212	2028.34
703.4	2079.54
703.589	1973.05
703.777	2079.54
703.965	1958.71
704.154	1948.47
704.342	2030.39
704.531	2028.34
704.719	2024.25
704.907	1968.95
705.096	1932.09
705.284	2001.72
705.472	1985.34
705.661	1934.14
705.849	1901.37
706.037	1981.24
706.226	2173.75
706.414	2005.81
706.602	2016.05
706.79	2014.01
706.979	1844.03
707.167	2018.1
707.355	1975.1
707.543	2009.91
707.731	2032.44
707.919	1942.33
708.107	1923.9
708.296	2054.97
708.484	1891.13
708.672	2059.06
708.86	2044.73
709.048	2030.39
709.236	1915.7
709.424	2016.05
709.612	1989.43
709.8	1942.33
709.988	1997.62
710.176	2001.72
710.364	1927.99
710.551	1876.79
710.739	1936.18
710.927	2032.44
711.115	2063.16
711.303	2100.02
711.491	1956.66
711.679	1932.09
711.866	1884.98
712.054	1966.9
712.242	2046.77
712.43	1952.57
712.617	1919.8
712.805	2024.25
712.993	2007.86
713.181	2001.72
713.368	1932.09
713.556	2003.77
713.744	1946.42
713.931	1932.09
714.119	2038.58
714.306	1975.1
714.494	1952.57
714.682	2016.05
714.869	1979.19
715.057	1903.42
715.244	1893.18
715.432	1915.7
715.619	1884.98
715.807	1915.7
715.994	2059.06
716.182	2011.96
716.369	1850.17
716.556	2063.16
716.744	1878.84
716.931	1891.13
717.119	1927.99
717.306	1958.71
717.493	1909.56
717.681	1997.62
717.868	2022.2
718.055	2014.01
718.242	1919.8
718.43	1884.98
718.617	1975.1
718.804	1872.7
718.991	1983.29
719.179	1942.33
719.366	1948.47
719.553	1907.51
719.74	1923.9
719.927	2071.35
720.114	1866.55
720.301	2011.96
720.488	1899.32
720.676	1776.44
720.863	1899.32
721.05	1958.71
721.237	1887.03
721.424	1895.22
721.611	1954.62
721.798	1813.31
721.985	1876.79
722.172	1989.43
722.358	1940.28
722.545	1940.28
722.732	1981.24
722.919	1964.86
723.106	1884.98
723.293	1950.52
723.48	1893.18
723.667	1911.61
723.853	1889.08
724.04	1950.52
724.227	1827.64
724.414	1870.65
724.6	1876.79
724.787	1960.76
724.974	1915.7
725.161	1911.61
725.347	1874.74
725.534	1966.9
725.72	1942.33
725.907	1981.24
726.094	1901.37
726.28	1946.42
726.467	2054.97
726.653	1917.75
726.84	1921.85
727.027	1911.61
727.213	1909.56
727.4	1846.07
727.586	1850.17
727.773	1891.13
727.959	1887.03
728.145	1977.14
728.332	1909.56
728.518	1907.51
728.705	1915.7
728.891	1887.03
729.077	1925.94
729.264	1766.2
729.45	1917.75
729.636	1927.99
729.823	1975.1
730.009	1835.83
730.195	1952.57
730.382	1899.32
730.568	1893.18
730.754	1981.24
730.94	1882.94
731.126	2040.63
731.313	1893.18
731.499	1940.28
731.685	1884.98
731.871	1973.05
732.057	1889.08
732.243	1948.47
732.429	1917.75
732.615	1944.38
732.801	1983.29
732.987	1809.21
733.173	1817.4
733.359	1917.75
733.545	1866.55
733.731	1882.94
733.917	1819.45
734.103	1884.98
734.289	1891.13
734.475	1778.49
734.661	1866.55
734.847	1817.4
735.033	1887.03
735.219	1706.81
735.404	1821.5
735.59	1788.73
735.776	1819.45
735.962	1893.18
736.148	1813.31
736.333	1844.03
736.519	1794.87
736.705	1817.4
736.89	1934.14
737.076	1774.39
737.262	1844.03
737.447	1751.87
737.633	1776.44
737.819	1760.06
738.004	1819.45
738.19	1798.97
738.375	1817.4
738.561	1833.79
738.747	1860.41
738.932	1710.91
739.118	1710.91
739.303	1858.36
739.489	1819.45
739.674	1784.63
739.859	1817.4
740.045	1794.87
740.23	1813.31
740.416	1686.33
740.601	1755.96
740.786	1784.63
740.972	1745.72
741.157	1565.5
741.342	1704.76
741.528	1637.18
741.713	1692.48
741.898	1669.95
742.084	1624.89
742.269	1631.04
742.454	1803.07
742.639	1780.54
742.824	1690.43
743.01	1723.2
743.195	1661.76
743.38	1571.65
743.565	1637.18
743.75	1715
743.935	1678.14
744.12	1588.03
744.305	1600.32
744.49	1612.6
744.675	1538.88
744.86	1592.13
745.045	1583.93
745.23	1567.55
745.415	1553.21
745.6	1602.36
745.785	1569.6
745.97	1467.2
746.155	1520.45
746.34	1538.88
746.525	1557.31
746.71	1522.49
746.895	1610.56
747.079	1495.87
747.264	1575.74
747.449	1489.73
747.634	1551.17
747.819	1569.6
748.003	1442.62
748.188	1372.99
748.373	1590.08
748.557	1436.48
748.742	1448.77
748.927	1491.77
749.111	1440.58
749.296	1461.06
749.481	1442.62
749.665	1452.86
749.85	1303.36
750.034	1418.05
750.219	1393.47
750.404	1436.48
750.588	1348.42
750.773	1235.78
750.957	1329.99
751.141	1274.69
751.326	1342.27
751.51	1346.37
751.695	1319.75
751.879	1293.12
752.064	1311.55
752.248	1252.16
752.432	1237.83
752.617	1196.87
752.801	1309.51
752.985	1301.31
753.17	1223.49
753.354	1282.88
753.538	1317.7
753.722	1182.53
753.907	1217.35
754.091	1178.44
754.275	1258.31
754.459	1162.05
754.643	1170.24
754.828	1133.38
755.012	1123.14
755.196	1047.37
755.38	1153.86
755.564	1016.65
755.748	1211.2
755.932	1139.52
756.116	1030.98
756.3	1069.89
756.484	1047.37
756.668	1149.76
756.852	957.25
757.036	990.02
757.22	1063.75
757.404	1014.6
757.588	1020.74
757.772	1041.22
757.956	981.83
758.14	1024.84
758.323	985.93
758.507	1026.89
758.691	990.02
758.875	1028.93
759.059	981.83
759.242	949.06
759.426	992.07
759.61	924.49
759.794	940.87
759.977	918.34
760.161	1024.84
760.345	940.87
760.528	928.58
760.712	910.15
760.895	940.87
761.079	908.1
761.263	975.69
761.446	1006.41
761.63	893.77
761.813	936.78
761.997	846.66
762.18	854.86
762.364	858.95
762.547	826.18
762.731	852.81
762.914	883.53
763.098	883.53
763.281	793.42
763.464	817.99
763.648	877.38
763.831	895.82
764.015	836.42
764.198	883.53
764.381	871.24
764.564	721.74
764.748	893.77
764.931	861
765.114	770.89
765.297	848.71
765.481	834.38
765.664	883.53
765.847	797.51
766.03	797.51
766.213	736.07
766.397	817.99
766.58	844.62
766.763	787.27
766.946	725.83
767.129	760.65
767.312	791.37
767.495	727.88
767.678	826.18
767.861	760.65
768.044	670.54
768.227	856.9
768.41	875.34
768.593	748.36
768.776	809.8
768.959	787.27
769.142	801.61
769.324	721.74
769.507	701.26
769.69	746.31
769.873	744.27
770.056	734.03
770.239	736.07
770.421	705.35
770.604	652.11
770.787	727.88
770.97	766.79
771.152	670.54
771.335	680.78
771.518	635.72
771.7	664.4
771.883	672.59
772.066	721.74
772.248	697.16
772.431	695.11
772.613	680.78
772.796	666.44
772.978	740.17
773.161	617.29
773.343	678.73
773.526	617.29
773.708	621.39
773.891	592.72
774.073	658.25
774.256	621.39
774.438	650.06
774.621	625.48
774.803	695.11
774.985	607.05
775.168	609.1
775.35	576.33
775.532	613.2
775.715	596.81
775.897	576.33
776.079	670.54
776.261	588.62
776.444	568.14
776.626	580.43
776.808	514.89
776.99	572.24
777.173	572.24
777.355	605
777.537	545.61
777.719	547.66
777.901	607.05
778.083	570.19
778.265	525.13
778.447	582.48
778.629	596.81
778.811	547.66
778.993	629.58
779.175	451.41
779.357	576.33
779.539	432.97
779.721	508.75
779.903	461.65
780.085	473.93
780.267	510.8
780.449	455.5
780.631	508.75
780.812	506.7
780.994	525.13
781.176	500.56
781.358	461.65
781.54	441.17
781.721	437.07
781.903	408.4
782.085	408.4
782.267	488.27
782.448	412.5
782.63	400.21
782.812	441.17
782.993	445.26
783.175	459.6
783.357	314.19
783.538	426.83
783.72	312.14
783.901	473.93
784.083	392.02
784.264	514.89
784.446	369.49
784.627	375.63
784.809	432.97
784.99	387.92
785.172	365.39
785.353	408.4
785.535	326.48
785.716	385.87
785.897	424.78
786.079	482.13
786.26	336.72
786.441	375.63
786.623	258.9
786.804	332.62
786.985	283.47
787.167	324.43
787.348	326.48
787.529	402.26
787.71	392.02
787.891	326.48
788.073	297.81
788.254	234.32
788.435	441.17
788.616	353.1
788.797	236.37
788.978	320.34
789.159	328.53
789.34	312.14
789.522	342.86
789.703	326.48
789.884	334.67
790.065	334.67
790.246	303.95
790.427	328.53
790.607	336.72
790.788	293.71
790.969	250.71
791.15	269.14
791.331	283.47
791.512	240.47
791.693	281.43
791.874	260.95
792.054	328.53
792.235	287.57
792.416	219.99
792.597	287.57
792.778	277.33
792.958	185.17
793.139	277.33
793.32	250.71
793.5	273.23
793.681	248.66
793.862	269.14
794.042	260.95
794.223	254.8
794.404	228.18
794.584	254.8
794.765	250.71
794.945	301.9
795.126	334.67
795.306	277.33
795.487	252.75
795.667	219.99
795.848	168.79
796.028	277.33
796.209	334.67
796.389	252.75
796.57	269.14
796.75	142.16
796.93	277.33
797.111	179.03
797.291	189.27
797.471	215.89
797.652	207.7
797.832	168.79
798.012	293.71
798.192	232.27
798.373	226.13
798.553	252.75
798.733	260.95
798.913	117.59
799.093	236.37
799.274	199.51
799.454	189.27
799.634	187.22
799.814	236.37
799.994	244.56
800.174	230.23
800.354	164.69
800.534	275.28
800.714	219.99
800.894	215.89
801.074	129.88
801.254	158.55
801.434	160.59
801.614	179.03
801.794	164.69
801.974	752.46
802.154	170.83
802.334	230.23
802.514	146.26
802.693	140.12
802.873	138.07
803.053	160.59
803.233	224.08
803.413	150.36
803.592	133.97
803.772	183.12
803.952	207.7
804.131	156.5
804.311	179.03
804.491	197.46
804.67	158.55
804.85	146.26
805.03	168.79
805.209	121.68
805.389	156.5
805.568	162.64
805.748	199.51
805.928	154.45
806.107	215.89
806.287	187.22
806.466	156.5
806.646	156.5
806.825	236.37
807.004	162.64
807.184	148.31
807.363	252.75
807.543	154.45
807.722	199.51
807.901	207.7
808.081	140.12
808.26	76.63
808.439	138.07
808.619	158.55
808.798	78.68
808.977	189.27
809.156	138.07
809.336	140.12
809.515	117.59
809.694	68.44
809.873	41.81
810.052	97.11
810.231	172.88
810.411	168.79
810.59	80.72
810.769	74.58
810.948	154.45
811.127	43.86
811.306	93.01
811.485	127.83
811.664	228.18
811.843	113.49
812.022	115.54
812.201	117.59
812.38	152.4
812.559	113.49
812.737	156.5
812.916	52.05
813.095	111.44
813.274	109.4
813.453	152.4
813.632	82.77
813.811	93.01
813.989	129.88
814.168	146.26
814.347	82.77
814.526	133.97
814.704	209.75
814.883	187.22
815.062	88.92
815.24	162.64
815.419	138.07
815.598	78.68
815.776	15.19
815.955	205.65
816.133	62.29
816.312	197.46
816.49	7
816.669	131.92
816.847	146.26
817.026	97.11
817.204	150.36
817.383	125.78
817.561	99.16
817.74	33.62
817.918	113.49
818.097	99.16
818.275	27.48
818.453	113.49
818.632	68.44
818.81	58.2
818.988	68.44
819.167	17.24
819.345	140.12
819.523	121.68
819.701	105.3
819.879	129.88
820.058	109.4
820.236	33.62
820.414	119.64
820.592	60.24
820.77	111.44
820.948	93.01
821.127	70.48
821.305	93.01
821.483	60.24
821.661	146.26
821.839	72.53
822.017	47.96
822.195	99.16
822.373	66.39
822.551	82.77
822.729	72.53
822.907	27.48
823.085	52.05
823.262	68.44
823.44	66.39
823.618	17.24
823.796	88.92
823.974	66.39
824.152	39.76
824.329	80.72
824.507	105.3
824.685	7
824.863	50
825.04	43.86
825.218	170.83
825.396	103.25
825.574	45.91
825.751	-21.67
825.929	39.76
826.107	4.95
826.284	72.53
826.462	74.58
826.639	125.78
826.817	11.09
826.994	41.81
827.172	31.57
827.349	47.96
827.527	23.38
827.704	144.21
827.882	105.3
828.059	21.33
828.237	101.2
828.414	11.09
828.591	-33.96
828.769	72.53
828.946	19.29
829.124	105.3
829.301	158.55
829.478	66.39
829.655	33.62
829.833	109.4
830.01	-15.53
830.187	107.35
830.364	17.24
830.542	66.39
830.719	43.86
830.896	25.43
831.073	23.38
831.25	35.67
831.427	76.63
831.604	99.16
831.782	37.72
831.959	88.92
832.136	64.34
832.313	80.72
832.49	76.63
832.667	15.19
832.844	-1.19
833.021	117.59
833.198	-5.29
833.374	84.82
833.551	0.85
833.728	41.81
833.905	84.82
834.082	-23.72
834.259	68.44
834.436	-9.39
834.612	35.67
834.789	74.58
834.966	72.53
835.143	88.92
835.319	9.05
835.496	64.34
835.673	56.15
835.85	82.77
836.026	82.77
836.203	76.63
836.38	-7.34
836.556	39.76
836.733	25.43
836.909	7
837.086	-15.53
837.262	-9.39
837.439	9.05
837.616	-1.19
837.792	80.72
837.968	-15.53
838.145	-31.91
838.321	39.76
838.498	43.86
838.674	47.96
838.851	23.38
839.027	-21.67
839.203	21.33
839.38	45.91
839.556	39.76
839.732	0.85
839.909	2.9
840.085	68.44
840.261	-7.34
840.437	17.24
840.614	-42.15
840.79	2.9
840.966	47.96
841.142	39.76
841.318	84.82
841.494	86.87
841.671	31.57
841.847	58.2
842.023	-66.73
842.199	-9.39
842.375	56.15
842.551	45.91
842.727	68.44
842.903	52.05
843.079	52.05
843.255	117.59
843.431	-1.19
843.607	39.76
843.783	-54.44
843.959	56.15
844.134	-17.58
844.31	31.57
844.486	64.34
844.662	31.57
844.838	11.09
845.013	15.19
845.189	-9.39
845.365	7
845.541	-42.15
845.716	80.72
845.892	123.73
846.068	21.33
846.244	-87.21
846.419	109.4
846.595	66.39
846.77	-25.77
846.946	33.62
847.122	58.2
847.297	-29.87
847.473	121.68
847.648	17.24
847.824	-9.39
847.999	-7.34
848.175	64.34
848.35	2.9
848.526	45.91
848.701	72.53
848.876	39.76
849.052	68.44
849.227	27.48
849.403	86.87
849.578	2.9
849.753	-21.67
849.929	62.29
850.104	-13.48
850.279	-23.72
850.454	-21.67
850.63	15.19
850.805	58.2
850.98	7
851.155	0.85
851.33	35.67
851.505	-1.19
851.681	82.77
851.856	56.15
852.031	113.49
852.206	7
852.381	29.52
852.556	-23.72
852.731	52.05
852.906	47.96
853.081	41.81
853.256	19.29
853.431	-40.11
853.606	17.24
853.781	-15.53
853.956	-38.06
854.131	11.09
854.305	-85.16
854.48	7
854.655	-38.06
854.83	45.91
855.005	21.33
855.18	74.58
855.354	72.53
855.529	23.38
855.704	-25.77
855.879	9.05
856.053	-48.3
856.228	13.14
856.403	-103.59
856.577	23.38
856.752	0.85
856.926	33.62
857.101	4.95
857.276	80.72
857.45	9.05
857.625	17.24
857.799	-50.35
857.974	-25.77
858.148	-74.92
858.323	56.15
858.497	47.96
858.672	-42.15
858.846	9.05
859.02	50
859.195	64.34
859.369	-25.77
859.543	7
859.718	7
859.892	-15.53
860.066	66.39
860.241	84.82
860.415	7
860.589	-7.34
860.763	-89.26
860.938	-1.19
861.112	31.57
861.286	37.72
861.46	-9.39
861.634	-9.39
861.808	66.39
861.982	-29.87
862.157	33.62
862.331	-38.06
862.505	-42.15
862.679	-33.96
862.853	19.29
863.027	76.63
863.201	66.39
863.375	-33.96
863.549	-1.19
863.722	15.19
863.896	7
864.07	11.09
864.244	47.96
864.418	0.85
864.592	56.15
864.766	56.15
864.939	-23.72
865.113	-97.45
865.287	33.62
865.461	7
865.634	-21.67
865.808	27.48
865.982	-33.96
866.156	-58.54
866.329	52.05
866.503	0.85
866.676	54.1
866.85	68.44
867.024	-38.06
867.197	-58.54
867.371	74.58
867.544	-17.58
867.718	-42.15
867.891	72.53
868.065	23.38
868.238	23.38
868.412	39.76
868.585	25.43
868.759	-21.67
868.932	35.67
869.105	-50.35
869.279	50
869.452	-5.29
869.625	68.44
869.799	27.48
869.972	-17.58
870.145	33.62
870.319	7
870.492	-15.53
870.665	33.62
870.838	-17.58
871.011	-105.64
871.185	56.15
871.358	-25.77
871.531	-31.91
871.704	-31.91
871.877	-15.53
872.05	15.19
872.223	-25.77
872.396	-15.53
872.569	0.85
872.742	-23.72
872.915	-25.77
873.088	-64.68
873.261	-48.3
873.434	58.2
873.607	-25.77
873.78	0.85
873.953	17.24
874.126	-5.29
874.299	25.43
874.471	-25.77
874.644	-11.43
874.817	80.72
874.99	23.38
875.163	-17.58
875.335	0.85
875.508	-29.87
875.681	11.09
875.853	0.85
876.026	15.19
876.199	13.14
876.371	72.53
876.544	2.9
876.717	-17.58
876.889	-31.91
877.062	-33.96
877.234	-31.91
877.407	23.38
877.579	-70.83
877.752	-25.77
877.924	-23.72
878.097	43.86
878.269	-25.77
878.442	-66.73
878.614	15.19
878.786	31.57
878.959	15.19
879.131	-50.35
879.303	-29.87
879.476	84.82
879.648	99.16
879.82	9.05
879.993	9.05
880.165	-50.35
880.337	-56.49
880.509	-1.19
880.681	-1.19
880.854	-70.83
881.026	15.19
881.198	-7.34
881.37	-27.82
881.542	9.05
881.714	31.57
881.886	-17.58
882.058	-62.63
882.23	-58.54
882.402	45.91
882.574	90.96
882.746	-19.63
882.918	13.14
883.09	-15.53
883.262	-48.3
883.434	-9.39
883.606	0.85
883.778	-50.35
883.95	17.24
884.122	-21.67
884.293	-1.19
884.465	-54.44
884.637	19.29
884.809	0.85
884.98	-27.82
885.152	-56.49
885.324	47.96
885.496	-42.15
885.667	121.68
885.839	-15.53
886.011	25.43
886.182	37.72
886.354	9.05
886.525	25.43
886.697	90.96
886.869	47.96
887.04	-1.19
887.212	-5.29
887.383	66.39
887.555	-1.19
887.726	-66.73
887.897	101.2
888.069	-11.43
888.24	-42.15
888.412	19.29
888.583	-3.24
888.754	-33.96
888.926	-42.15
889.097	-31.91
889.268	-29.87
889.44	-42.15
889.611	15.19
889.782	7
889.953	23.38
890.125	97.11
890.296	-25.77
890.467	-21.67
890.638	-15.53
890.809	31.57
890.98	-15.53
891.151	41.81
891.323	39.76
891.494	-38.06
891.665	7
891.836	-15.53
892.007	2.9
892.178	-13.48
892.349	0.85
892.52	39.76
892.691	23.38
892.862	-40.11
893.032	-58.54
893.203	-62.63
893.374	21.33
893.545	21.33
893.716	-21.67
893.887	0.85
894.057	-62.63
894.228	-58.54
894.399	-3.24
894.57	66.39
894.74	-38.06
894.911	72.53
895.082	29.52
895.253	-25.77
895.423	-48.3
895.594	19.29
895.764	-50.35
895.935	-17.58
896.106	-11.43
896.276	-11.43
896.447	-87.21
896.617	52.05
896.788	-36.01
896.958	7
897.129	-56.49
897.299	-3.24
897.47	2.9
897.64	31.57
897.81	-64.68
897.981	41.81
898.151	-23.72
898.322	9.05
898.492	88.92
898.662	-60.59
898.832	-15.53
899.003	-93.35
899.173	-46.25
899.343	-31.91
899.513	-21.67
