Data from USB4F104151__11__12-27-01-636.txt Node

Date: Fri Mar 14 12:27:01 EDT 2025
User: louis
Spectrometer: USB4F10415
Trigger mode: 4
Integration Time (sec): 2.000000E-2
Scans to average: 1
Electric dark correction enabled: true
Nonlinearity correction enabled: false
Boxcar width: 0
XAxis mode: Wavelengths
Number of Pixels in Spectrum: 3648
>>>>>Begin Spectral Data<<<<<
178.204	-96.43
178.424	-96.43
178.644	-96.43
178.864	-135.34
179.084	-28.84
179.304	-12.46
179.524	12.12
179.744	-6.31
179.964	28.5
180.184	-8.36
180.404	51.03
180.624	-0.17
180.844	38.74
181.064	-61.61
181.283	-22.7
181.503	-39.08
181.723	20.31
181.943	-88.23
182.163	51.03
182.383	36.69
182.602	12.12
182.822	5.97
183.042	24.4
183.262	-41.13
183.482	-14.51
183.701	-16.55
183.921	10.07
184.141	3.93
184.361	32.6
184.58	22.36
184.8	96.08
185.02	65.36
185.239	98.13
185.459	71.51
185.679	16.21
185.898	-20.65
186.118	-16.55
186.338	40.79
186.557	-16.55
186.777	-8.36
186.997	91.99
187.216	-20.65
187.436	73.56
187.655	3.93
187.875	53.08
188.095	22.36
188.314	20.31
188.534	71.51
188.753	22.36
188.973	34.64
189.192	102.23
189.412	-0.17
189.631	34.64
189.851	30.55
190.07	26.45
190.29	26.45
190.509	5.97
190.729	-24.75
190.948	24.4
191.168	79.7
191.387	77.65
191.607	22.36
191.826	24.4
192.045	20.31
192.265	-2.22
192.484	30.55
192.704	1.88
192.923	-2.22
193.142	75.6
193.362	-26.79
193.581	24.4
193.8	-0.17
194.02	20.31
194.239	34.64
194.458	-20.65
194.678	42.84
194.897	-30.89
195.116	16.21
195.335	20.31
195.555	8.02
195.774	51.03
195.993	26.45
196.212	-14.51
196.432	-30.89
196.651	-0.17
196.87	3.93
197.089	132.95
197.308	-2.22
197.528	87.89
197.747	-22.7
197.966	1.88
198.185	38.74
198.404	69.46
198.623	32.6
198.842	75.6
199.062	-16.55
199.281	79.7
199.5	53.08
199.719	16.21
199.938	44.88
200.157	36.69
200.376	5.97
200.595	-14.51
200.814	106.32
201.033	3.93
201.252	3.93
201.471	10.07
201.69	51.03
201.909	20.31
202.128	-22.7
202.347	-26.79
202.566	5.97
202.785	-39.08
203.004	-96.43
203.223	124.76
203.442	69.46
203.661	-24.75
203.879	-22.7
204.098	38.74
204.317	22.36
204.536	16.21
204.755	36.69
204.974	-16.55
205.193	28.5
205.411	69.46
205.63	-2.22
205.849	44.88
206.068	83.8
206.287	3.93
206.505	26.45
206.724	1.88
206.943	79.7
207.162	71.51
207.381	-10.41
207.599	-22.7
207.818	-18.6
208.037	-49.32
208.255	28.5
208.474	-14.51
208.693	-2.22
208.911	-39.08
209.13	42.84
209.349	-24.75
209.567	-2.22
209.786	-41.13
210.005	-30.89
210.223	-8.36
210.442	1.88
210.661	42.84
210.879	85.84
211.098	-6.31
211.316	85.84
211.535	55.12
211.753	-8.36
211.972	-0.17
212.191	67.41
212.409	30.55
212.628	22.36
212.846	38.74
213.065	67.41
213.283	46.93
213.502	-16.55
213.72	69.46
213.938	42.84
214.157	77.65
214.375	-16.55
214.594	63.32
214.812	18.26
215.031	-22.7
215.249	8.02
215.467	83.8
215.686	-2.22
215.904	61.27
216.122	-16.55
216.341	67.41
216.559	-26.79
216.778	32.6
216.996	28.5
217.214	10.07
217.432	38.74
217.651	46.93
217.869	100.18
218.087	-22.7
218.306	59.22
218.524	69.46
218.742	44.88
218.96	18.26
219.179	-53.42
219.397	73.56
219.615	26.45
219.833	32.6
220.051	14.17
220.27	67.41
220.488	40.79
220.706	20.31
220.924	-2.22
221.142	-16.55
221.36	12.12
221.578	-16.55
221.796	40.79
222.015	20.31
222.233	81.75
222.451	65.36
222.669	61.27
222.887	34.64
223.105	-39.08
223.323	40.79
223.541	-12.46
223.759	96.08
223.977	20.31
224.195	53.08
224.413	32.6
224.631	71.51
224.849	-16.55
225.067	18.26
225.285	-10.41
225.503	79.7
225.721	14.17
225.939	32.6
226.157	-20.65
226.375	91.99
226.592	-10.41
226.81	26.45
227.028	65.36
227.246	57.17
227.464	22.36
227.682	-51.37
227.9	77.65
228.117	16.21
228.335	5.97
228.553	22.36
228.771	38.74
228.989	-16.55
229.206	51.03
229.424	44.88
229.642	32.6
229.86	28.5
230.077	44.88
230.295	28.5
230.513	110.42
230.731	-77.99
230.948	91.99
231.166	94.04
231.384	28.5
231.601	-2.22
231.819	112.47
232.037	-18.6
232.254	16.21
232.472	24.4
232.689	1.88
232.907	69.46
233.125	-59.56
233.342	67.41
233.56	10.07
233.777	100.18
233.995	20.31
234.213	57.17
234.43	46.93
234.648	69.46
234.865	12.12
235.083	5.97
235.3	-39.08
235.518	16.21
235.735	71.51
235.953	26.45
236.17	-30.89
236.388	36.69
236.605	12.12
236.822	24.4
237.04	85.84
237.257	8.02
237.475	26.45
237.692	-10.41
237.909	22.36
238.127	10.07
238.344	40.79
238.562	61.27
238.779	-2.22
238.996	36.69
239.214	-20.65
239.431	40.79
239.648	3.93
239.865	32.6
240.083	22.36
240.3	46.93
240.517	32.6
240.735	77.65
240.952	85.84
241.169	102.23
241.386	-34.99
241.603	57.17
241.821	-24.75
242.038	-6.31
242.255	96.08
242.472	32.6
242.689	46.93
242.907	87.89
243.124	24.4
243.341	53.08
243.558	8.02
243.775	3.93
243.992	-30.89
244.209	57.17
244.426	75.6
244.643	77.65
244.86	48.98
245.078	53.08
245.295	96.08
245.512	26.45
245.729	-47.27
245.946	10.07
246.163	10.07
246.38	14.17
246.597	16.21
246.814	69.46
247.031	71.51
247.248	91.99
247.464	79.7
247.681	32.6
247.898	26.45
248.115	42.84
248.332	-0.17
248.549	59.22
248.766	14.17
248.983	22.36
249.2	16.21
249.417	36.69
249.633	-10.41
249.85	67.41
250.067	59.22
250.284	12.12
250.501	20.31
250.717	48.98
250.934	28.5
251.151	-16.55
251.368	5.97
251.585	28.5
251.801	59.22
252.018	-2.22
252.235	91.99
252.451	51.03
252.668	53.08
252.885	8.02
253.102	63.32
253.318	79.7
253.535	-32.94
253.752	30.55
253.968	85.84
254.185	53.08
254.401	20.31
254.618	40.79
254.835	-0.17
255.051	69.46
255.268	22.36
255.484	87.89
255.701	8.02
255.917	-34.99
256.134	42.84
256.351	1.88
256.567	3.93
256.784	12.12
257	-30.89
257.217	-34.99
257.433	53.08
257.65	1.88
257.866	3.93
258.082	3.93
258.299	-6.31
258.515	22.36
258.732	28.5
258.948	-8.36
259.165	-2.22
259.381	22.36
259.597	-10.41
259.814	5.97
260.03	48.98
260.246	-10.41
260.463	85.84
260.679	51.03
260.895	20.31
261.112	12.12
261.328	85.84
261.544	44.88
261.761	40.79
261.977	94.04
262.193	-26.79
262.409	91.99
262.626	55.12
262.842	73.56
263.058	-47.27
263.274	-20.65
263.49	3.93
263.707	34.64
263.923	20.31
264.139	-32.94
264.355	20.31
264.571	96.08
264.787	-4.27
265.004	20.31
265.22	-0.17
265.436	-20.65
265.652	-41.13
265.868	59.22
266.084	69.46
266.3	48.98
266.516	1.88
266.732	34.64
266.948	14.17
267.164	44.88
267.38	3.93
267.596	-65.71
267.812	36.69
268.028	67.41
268.244	-12.46
268.46	59.22
268.676	-28.84
268.892	24.4
269.108	14.17
269.324	26.45
269.54	3.93
269.756	61.27
269.972	-37.03
270.188	128.85
270.403	-28.84
270.619	8.02
270.835	83.8
271.051	81.75
271.267	51.03
271.483	-12.46
271.698	28.5
271.914	-12.46
272.13	-10.41
272.346	-24.75
272.562	44.88
272.777	26.45
272.993	98.13
273.209	87.89
273.425	89.94
273.64	42.84
273.856	59.22
274.072	32.6
274.287	57.17
274.503	-20.65
274.719	30.55
274.934	-98.47
275.15	-6.31
275.366	81.75
275.581	-6.31
275.797	18.26
276.012	42.84
276.228	-0.17
276.444	42.84
276.659	77.65
276.875	-28.84
277.09	42.84
277.306	40.79
277.521	-14.51
277.737	89.94
277.952	14.17
278.168	10.07
278.383	22.36
278.599	-4.27
278.814	5.97
279.03	28.5
279.245	44.88
279.461	-61.61
279.676	71.51
279.892	48.98
280.107	18.26
280.322	-22.7
280.538	10.07
280.753	-2.22
280.969	26.45
281.184	46.93
281.399	91.99
281.615	32.6
281.83	75.6
282.045	-14.51
282.26	16.21
282.476	38.74
282.691	96.08
282.906	8.02
283.122	65.36
283.337	57.17
283.552	-6.31
283.767	12.12
283.983	34.64
284.198	-14.51
284.413	61.27
284.628	-67.75
284.843	10.07
285.058	51.03
285.274	38.74
285.489	-39.08
285.704	48.98
285.919	-59.56
286.134	34.64
286.349	48.98
286.564	38.74
286.779	3.93
286.995	28.5
287.21	57.17
287.425	85.84
287.64	48.98
287.855	85.84
288.07	22.36
288.285	24.4
288.5	55.12
288.715	-2.22
288.93	-12.46
289.145	20.31
289.36	-4.27
289.575	24.4
289.79	77.65
290.004	12.12
290.219	79.7
290.434	-47.27
290.649	-4.27
290.864	8.02
291.079	-0.17
291.294	130.9
291.509	5.97
291.724	75.6
291.938	-39.08
292.153	79.7
292.368	55.12
292.583	18.26
292.798	42.84
293.012	106.32
293.227	34.64
293.442	-8.36
293.657	38.74
293.871	114.52
294.086	-18.6
294.301	75.6
294.516	42.84
294.73	67.41
294.945	-10.41
295.16	81.75
295.374	71.51
295.589	46.93
295.804	-4.27
296.018	40.79
296.233	118.61
296.447	42.84
296.662	55.12
296.877	12.12
297.091	85.84
297.306	48.98
297.52	30.55
297.735	110.42
297.949	36.69
298.164	44.88
298.378	-26.79
298.593	20.31
298.807	28.5
299.022	96.08
299.236	77.65
299.451	-6.31
299.665	5.97
299.88	48.98
300.094	-14.51
300.309	42.84
300.523	30.55
300.737	-8.36
300.952	48.98
301.166	10.07
301.381	-41.13
301.595	24.4
301.809	24.4
302.024	-45.23
302.238	118.61
302.452	-16.55
302.667	-10.41
302.881	67.41
303.095	73.56
303.309	-14.51
303.524	40.79
303.738	85.84
303.952	-20.65
304.166	122.71
304.381	-14.51
304.595	65.36
304.809	-18.6
305.023	34.64
305.237	20.31
305.452	53.08
305.666	22.36
305.88	100.18
306.094	75.6
306.308	63.32
306.522	53.08
306.736	91.99
306.95	55.12
307.164	38.74
307.379	18.26
307.593	48.98
307.807	26.45
308.021	83.8
308.235	91.99
308.449	89.94
308.663	42.84
308.877	85.84
309.091	5.97
309.305	61.27
309.519	-0.17
309.733	20.31
309.947	-106.67
310.161	32.6
310.374	73.56
310.588	71.51
310.802	24.4
311.016	53.08
311.23	22.36
311.444	30.55
311.658	3.93
311.872	48.98
312.085	8.02
312.299	36.69
312.513	83.8
312.727	36.69
312.941	57.17
313.154	36.69
313.368	-39.08
313.582	26.45
313.796	-2.22
314.009	63.32
314.223	48.98
314.437	73.56
314.651	57.17
314.864	-16.55
315.078	61.27
315.292	53.08
315.505	1.88
315.719	102.23
315.933	18.26
316.146	67.41
316.36	3.93
316.573	65.36
316.787	40.79
317.001	57.17
317.214	-18.6
317.428	48.98
317.641	89.94
317.855	22.36
318.068	79.7
318.282	67.41
318.495	34.64
318.709	-0.17
318.922	79.7
319.136	59.22
319.349	67.41
319.563	89.94
319.776	73.56
319.99	34.64
320.203	32.6
320.417	24.4
320.63	120.66
320.843	48.98
321.057	83.8
321.27	-67.75
321.483	118.61
321.697	20.31
321.91	106.32
322.124	96.08
322.337	-20.65
322.55	8.02
322.763	16.21
322.977	36.69
323.19	59.22
323.403	-37.03
323.617	55.12
323.83	61.27
324.043	26.45
324.256	96.08
324.469	-39.08
324.683	112.47
324.896	104.28
325.109	-10.41
325.322	-12.46
325.535	139.09
325.748	81.75
325.962	108.37
326.175	63.32
326.388	-24.75
326.601	135
326.814	67.41
327.027	59.22
327.24	48.98
327.453	85.84
327.666	44.88
327.879	46.93
328.092	81.75
328.305	122.71
328.518	96.08
328.731	-30.89
328.944	-18.6
329.157	53.08
329.37	-2.22
329.583	30.55
329.796	139.09
330.009	59.22
330.222	98.13
330.435	22.36
330.648	-47.27
330.861	53.08
331.073	63.32
331.286	67.41
331.499	69.46
331.712	-6.31
331.925	163.67
332.138	34.64
332.35	100.18
332.563	-10.41
332.776	-4.27
332.989	94.04
333.202	57.17
333.414	1.88
333.627	91.99
333.84	44.88
334.053	-16.55
334.265	44.88
334.478	1.88
334.691	10.07
334.903	81.75
335.116	-2.22
335.329	3.93
335.541	-12.46
335.754	69.46
335.966	10.07
336.179	63.32
336.392	5.97
336.604	48.98
336.817	81.75
337.029	42.84
337.242	-14.51
337.454	53.08
337.667	46.93
337.88	38.74
338.092	53.08
338.305	65.36
338.517	22.36
338.729	71.51
338.942	67.41
339.154	59.22
339.367	-8.36
339.579	-20.65
339.792	28.5
340.004	114.52
340.217	59.22
340.429	81.75
340.641	22.36
340.854	20.31
341.066	51.03
341.278	100.18
341.491	57.17
341.703	81.75
341.915	-6.31
342.128	53.08
342.34	100.18
342.552	51.03
342.764	83.8
342.977	67.41
343.189	57.17
343.401	34.64
343.613	-10.41
343.826	26.45
344.038	77.65
344.25	59.22
344.462	114.52
344.674	24.4
344.886	-6.31
345.099	14.17
345.311	94.04
345.523	40.79
345.735	30.55
345.947	20.31
346.159	61.27
346.371	59.22
346.583	36.69
346.795	116.56
347.007	28.5
347.219	53.08
347.431	57.17
347.643	116.56
347.855	32.6
348.067	36.69
348.279	106.32
348.491	22.36
348.703	-30.89
348.915	24.4
349.127	79.7
349.339	81.75
349.551	53.08
349.763	67.41
349.975	-30.89
350.187	87.89
350.399	22.36
350.61	26.45
350.822	-14.51
351.034	38.74
351.246	-2.22
351.458	-12.46
351.669	65.36
351.881	22.36
352.093	36.69
352.305	51.03
352.517	28.5
352.728	69.46
352.94	26.45
353.152	100.18
353.363	65.36
353.575	89.94
353.787	141.14
353.999	83.8
354.21	48.98
354.422	34.64
354.633	30.55
354.845	81.75
355.057	53.08
355.268	98.13
355.48	96.08
355.692	14.17
355.903	51.03
356.115	-47.27
356.326	94.04
356.538	85.84
356.749	94.04
356.961	26.45
357.172	-41.13
357.384	34.64
357.595	73.56
357.807	91.99
358.018	-16.55
358.23	59.22
358.441	137.04
358.653	87.89
358.864	89.94
359.075	124.76
359.287	42.84
359.498	128.85
359.709	20.31
359.921	10.07
360.132	16.21
360.344	-6.31
360.555	75.6
360.766	22.36
360.977	59.22
361.189	81.75
361.4	38.74
361.611	77.65
361.823	81.75
362.034	122.71
362.245	46.93
362.456	34.64
362.667	55.12
362.879	14.17
363.09	14.17
363.301	77.65
363.512	18.26
363.723	85.84
363.935	32.6
364.146	118.61
364.357	34.64
364.568	22.36
364.779	-12.46
364.99	91.99
365.201	18.26
365.412	85.84
365.623	-10.41
365.834	71.51
366.045	42.84
366.256	98.13
366.467	75.6
366.678	28.5
366.889	81.75
367.1	-22.7
367.311	12.12
367.522	1.88
367.733	51.03
367.944	20.31
368.155	30.55
368.366	73.56
368.577	114.52
368.788	100.18
368.999	24.4
369.209	73.56
369.42	67.41
369.631	24.4
369.842	20.31
370.053	-0.17
370.264	120.66
370.474	18.26
370.685	42.84
370.896	22.36
371.107	16.21
371.317	51.03
371.528	32.6
371.739	149.33
371.95	63.32
372.16	102.23
372.371	87.89
372.582	-8.36
372.792	-28.84
373.003	71.51
373.214	42.84
373.424	85.84
373.635	63.32
373.846	135
374.056	44.88
374.267	57.17
374.477	94.04
374.688	139.09
374.898	118.61
375.109	85.84
375.319	85.84
375.53	42.84
375.74	130.9
375.951	137.04
376.161	55.12
376.372	69.46
376.582	-4.27
376.793	85.84
377.003	22.36
377.214	46.93
377.424	55.12
377.635	28.5
377.845	75.6
378.055	63.32
378.266	63.32
378.476	16.21
378.686	32.6
378.897	79.7
379.107	61.27
379.317	116.56
379.528	63.32
379.738	53.08
379.948	-6.31
380.158	20.31
380.369	-0.17
380.579	83.8
380.789	89.94
380.999	16.21
381.21	81.75
381.42	87.89
381.63	59.22
381.84	36.69
382.05	61.27
382.261	55.12
382.471	96.08
382.681	96.08
382.891	104.28
383.101	67.41
383.311	85.84
383.521	79.7
383.731	91.99
383.941	108.37
384.151	24.4
384.361	106.32
384.571	59.22
384.781	151.38
384.991	71.51
385.201	46.93
385.411	132.95
385.621	161.62
385.831	116.56
386.041	-14.51
386.251	145.24
386.461	85.84
386.671	-20.65
386.881	30.55
387.091	-16.55
387.301	46.93
387.511	77.65
387.72	18.26
387.93	67.41
388.14	61.27
388.35	34.64
388.56	89.94
388.769	57.17
388.979	34.64
389.189	51.03
389.399	102.23
389.609	94.04
389.818	157.52
390.028	57.17
390.238	63.32
390.447	102.23
390.657	14.17
390.867	73.56
391.076	61.27
391.286	65.36
391.496	79.7
391.705	63.32
391.915	102.23
392.125	57.17
392.334	106.32
392.544	89.94
392.753	83.8
392.963	83.8
393.172	91.99
393.382	18.26
393.591	163.67
393.801	38.74
394.01	110.42
394.22	38.74
394.429	46.93
394.639	85.84
394.848	18.26
395.058	91.99
395.267	87.89
395.477	36.69
395.686	151.38
395.895	200.53
396.105	153.43
396.314	42.84
396.524	184.15
396.733	139.09
396.942	139.09
397.152	28.5
397.361	124.76
397.57	175.95
397.78	184.15
397.989	104.28
398.198	153.43
398.407	75.6
398.617	106.32
398.826	40.79
399.035	51.03
399.244	79.7
399.453	194.39
399.663	59.22
399.872	141.14
400.081	89.94
400.29	120.66
400.499	79.7
400.708	135
400.917	126.8
401.127	178
401.336	132.95
401.545	202.58
401.754	110.42
401.963	155.47
402.172	122.71
402.381	91.99
402.59	149.33
402.799	194.39
403.008	124.76
403.217	116.56
403.426	120.66
403.635	51.03
403.844	137.04
404.053	145.24
404.262	94.04
404.471	163.67
404.68	145.24
404.888	151.38
405.097	194.39
405.306	69.46
405.515	141.14
405.724	171.86
405.933	194.39
406.142	178
406.35	223.06
406.559	223.06
406.768	227.15
406.977	350.03
407.185	270.16
407.394	286.54
407.603	276.31
407.812	239.44
408.02	268.11
408.229	229.2
408.438	245.59
408.646	313.17
408.855	261.97
409.064	292.69
409.272	266.07
409.481	313.17
409.69	372.56
409.898	421.71
410.107	274.26
410.315	403.28
410.524	380.75
410.733	366.42
410.941	333.65
411.15	429.9
411.358	411.47
411.567	522.06
411.775	479.05
411.984	485.2
412.192	497.49
412.401	454.48
412.609	579.4
412.818	567.12
413.026	587.6
413.234	638.8
413.443	603.98
413.651	651.08
413.86	657.23
414.068	692.04
414.276	712.52
414.485	599.88
414.693	696.14
414.901	753.48
415.11	833.35
415.318	839.5
415.526	909.13
415.734	937.8
415.943	923.46
416.151	978.76
416.359	964.42
416.567	976.71
416.776	1036.1
416.984	1097.54
417.192	1077.06
417.4	1087.3
417.608	1025.86
417.817	1206.08
418.025	1331.01
418.233	1306.43
418.441	1394.5
418.649	1484.61
418.857	1486.65
419.065	1576.77
419.273	1439.55
419.481	1509.18
419.689	1648.44
419.897	1748.79
420.105	1814.33
420.313	1865.53
420.521	1894.2
420.729	1931.06
420.937	1941.3
421.145	2090.81
421.353	2047.8
421.561	2197.3
421.769	2377.52
421.977	2404.14
422.185	2314.03
422.393	2631.47
422.601	2670.38
422.809	2629.42
423.017	2582.32
423.224	2768.68
423.432	2905.9
423.64	2922.28
423.848	3090.21
424.056	3094.31
424.263	3432.22
424.471	3399.46
424.679	3495.71
424.887	3628.83
425.094	3682.08
425.302	3827.48
425.51	3804.96
425.718	3931.93
425.925	4001.56
426.133	4302.61
426.341	4429.59
426.548	4550.42
426.756	4562.7
426.964	4740.88
427.171	4734.73
427.379	5168.9
427.586	5029.64
427.794	5338.88
428.001	5523.2
428.209	5904.12
428.417	5865.21
428.624	6192.89
428.832	6250.23
429.039	6047.48
429.247	6127.35
429.454	6727.41
429.662	7024.36
429.869	6729.45
430.076	7335.65
430.284	6952.68
430.491	7321.32
430.699	7796.45
430.906	7689.95
431.114	7634.66
431.321	8013.53
431.528	8357.59
431.736	8670.93
431.943	9340.61
432.15	8799.95
432.358	9004.75
432.565	9547.46
432.772	9656
432.979	10112.7
433.187	10245.82
433.394	10311.35
433.601	10786.48
433.808	10882.74
434.016	10835.63
434.223	11202.22
434.43	12172.96
434.637	11806.37
434.844	12359.32
435.052	12785.3
435.259	12697.24
435.466	12826.26
435.673	12906.13
435.88	13692.55
436.087	14380.67
436.294	14425.72
436.501	14147.2
436.708	14433.91
436.915	14628.47
437.122	15646.31
437.329	15423.08
437.537	15787.62
437.743	16293.47
437.95	16139.87
438.157	16838.23
438.364	17524.3
438.571	17458.76
438.778	17587.78
438.985	19062.32
439.192	18501.18
439.399	18966.07
439.606	18554.43
439.813	19777.06
440.02	20788.76
440.227	20125.22
440.433	20237.86
440.64	21179.92
440.847	21011.99
441.054	21335.57
441.261	22873.59
441.467	22541.82
441.674	23145.97
441.881	23854.57
442.088	23743.98
442.294	23504.37
442.501	24284.64
442.708	24884.7
442.914	25611.73
443.121	26983.87
443.328	26074.57
443.534	27837.87
443.741	27282.87
443.948	26772.92
444.154	28970.4
444.361	28474.79
444.568	28792.22
444.774	29091.23
444.981	29527.44
445.187	30217.61
445.394	31524.21
445.6	31378.81
445.807	33881.42
446.013	32765.28
446.22	32980.32
446.426	34354.51
446.633	34426.18
446.839	35951.92
447.046	34286.92
447.252	36273.45
447.459	36318.51
447.665	36627.75
447.871	37801.24
448.078	39228.67
448.284	37926.16
448.491	38483.21
448.697	39939.32
448.903	40633.58
449.11	40705.26
449.316	40479.98
449.522	41088.23
449.728	42048.72
449.935	42321.1
450.141	42538.19
450.347	43310.27
450.553	42126.55
450.76	42521.8
450.966	43975.86
451.172	43427.01
451.378	44584.11
451.584	44012.73
451.791	45264.03
451.997	45167.78
452.203	45950.1
452.409	45401.25
452.615	45266.08
452.821	43818.17
453.027	43136.2
453.233	45690.01
453.44	43859.13
453.646	44342.45
453.852	44690.6
454.058	45221.03
454.264	43683
454.47	44704.94
454.676	43572.41
454.882	45190.31
455.088	41385.18
455.294	42138.83
455.5	42616.01
455.705	42972.36
455.911	41123.04
456.117	40555.75
456.323	39918.84
456.529	37915.92
456.735	39353.6
456.941	38255.89
457.147	38085.9
457.352	36578.6
457.558	36629.8
457.764	36572.46
457.97	35863.86
458.176	35253.56
458.381	35347.77
458.587	33342.81
458.793	33809.75
458.999	31896.94
459.204	33699.16
459.41	32937.31
459.616	30762.37
459.821	30719.36
460.027	30494.08
460.233	30047.63
460.438	28564.9
460.644	29334.93
460.85	27643.31
461.055	27411.89
461.261	27426.23
461.466	25320.91
461.672	24593.89
461.878	26443.2
462.083	24344.03
462.289	24014.31
462.494	23782.89
462.7	22844.92
462.905	22035.97
463.111	23399.92
463.316	22920.7
463.522	22855.16
463.727	22783.48
463.932	22521.34
464.138	22312.45
464.343	22494.72
464.549	21509.65
464.754	22533.63
464.959	22257.15
465.165	22115.84
465.37	21313.04
465.575	20774.42
465.781	21292.56
465.986	21798.41
466.191	20874.77
466.397	20510.24
466.602	19349.04
466.807	20401.69
467.012	20287.01
467.218	20051.49
467.423	19701.29
467.628	20074.02
467.833	20835.86
468.038	20102.69
468.244	19715.62
468.449	20440.61
468.654	19582.51
468.859	19547.69
469.064	19555.88
469.269	18554.43
469.474	18632.25
469.679	19058.23
469.885	18837.05
470.09	18994.74
470.295	18839.09
470.5	18404.92
470.705	18617.91
470.91	17940.04
471.115	17811.01
471.32	18079.3
471.525	17876.55
471.73	17495.63
471.935	17536.59
472.139	16961.11
472.344	16997.97
472.549	16914
472.754	16719.45
472.959	16569.94
473.164	16123.49
473.369	16105.06
473.574	16850.52
473.778	16287.32
473.983	16272.99
474.188	16158.3
474.393	15625.83
474.598	15539.82
474.802	15107.69
475.007	15488.62
475.212	15152.75
475.417	14700.15
475.621	14700.15
475.826	14743.16
476.031	14634.61
476.235	14337.66
476.44	14311.03
476.645	14118.53
476.849	14341.75
477.054	13868.67
477.259	13936.26
477.463	13852.29
477.668	13571.72
477.872	13678.21
478.077	13328.01
478.282	12977.81
478.486	12867.22
478.691	12768.91
478.895	12936.85
479.1	12744.34
479.304	12719.76
479.509	12355.22
479.713	12611.22
479.918	12295.83
480.122	12175
480.326	12510.87
480.531	12332.7
480.735	12232.35
480.94	11986.59
481.144	12426.9
481.348	11949.73
481.553	12115.61
481.757	11882.14
481.961	12181.15
482.166	12203.68
482.37	11943.58
482.574	11962.01
482.778	11904.67
482.983	11959.97
483.187	11908.77
483.391	12119.71
483.595	11900.58
483.8	11503.27
484.004	12054.17
484.208	12002.97
484.412	11689.63
484.616	11966.11
484.821	12041.89
485.025	11615.91
485.229	11998.88
485.433	11804.32
485.637	11912.86
485.841	11947.68
486.045	11765.41
486.249	11755.17
486.453	11738.79
486.657	11921.06
486.861	11904.67
487.065	11517.61
487.269	11689.63
487.473	11611.81
487.677	11888.29
487.881	11835.04
488.085	11671.2
488.289	12045.98
488.493	11867.81
488.697	12029.6
488.901	12031.65
489.105	11990.69
489.309	12136.09
489.512	12244.63
489.716	11802.27
489.92	11865.76
490.124	11955.87
490.328	12377.75
490.531	11919.01
490.735	12068.51
490.939	12111.52
491.143	12123.8
491.346	12308.12
491.55	12494.49
491.754	12377.75
491.958	12443.29
492.161	12412.57
492.365	12367.51
492.569	12654.23
492.772	12482.2
492.976	12801.68
493.18	12783.25
493.383	12942.99
493.587	13088.4
493.79	12977.81
493.994	12822.16
494.197	13160.08
494.401	13151.88
494.605	13307.53
494.808	13473.42
495.012	13368.97
495.215	13289.1
495.419	13579.91
495.622	13842.05
495.825	13667.97
496.029	13893.25
496.232	14110.33
496.436	13942.4
496.639	14243.45
496.843	14190.2
497.046	14405.24
497.249	14677.62
497.453	14845.55
497.656	14999.15
497.859	15029.87
498.063	15410.79
498.266	15199.85
498.469	15459.95
498.673	15613.54
498.876	15808.1
499.079	15793.76
499.282	15849.06
499.485	16436.83
499.689	16440.92
499.892	16666.2
500.095	16809.56
500.298	16952.91
500.501	17006.16
500.705	17669.7
500.908	17718.85
501.111	17632.84
501.314	17843.78
501.517	18091.59
501.72	18187.84
501.923	18239.04
502.126	18714.17
502.329	19027.51
502.532	19050.03
502.735	19209.78
502.938	19519.02
503.141	19594.79
503.344	20028.96
503.547	19969.57
503.75	20045.35
503.953	20626.97
504.156	20618.78
504.359	20901.4
504.562	21278.22
504.765	21448.21
504.968	22017.54
505.17	21896.71
505.373	21974.53
505.576	22253.06
505.779	22574.59
505.982	22750.71
506.185	23225.84
506.387	23121.4
506.59	23279.09
506.793	24149.48
506.996	23649.77
507.198	24669.66
507.401	24344.03
507.604	24579.55
507.807	25095.64
508.009	25140.69
508.212	25837
508.415	25900.49
508.617	25849.29
508.82	25834.96
509.022	26002.89
509.225	26770.88
509.428	26858.94
509.63	27282.87
509.833	27205.05
510.035	27899.31
510.238	27774.38
510.44	27714.99
510.643	28210.6
510.845	28564.9
511.048	28521.89
511.25	29109.66
511.453	29087.13
511.655	30367.11
511.858	30004.62
512.06	30332.29
512.262	30354.82
512.465	30563.71
512.667	31036.8
512.87	31319.42
513.072	31626.61
513.274	31833.46
513.477	32286.06
513.679	32570.72
513.881	32712.03
514.084	33176.92
514.286	33033.57
514.488	33006.94
514.69	34368.84
514.893	33926.48
515.095	34186.57
515.297	34600.26
515.499	34551.11
515.701	35048.77
515.904	35849.52
516.106	35847.47
516.308	36103.47
516.51	36910.37
516.712	36498.73
516.914	37219.61
517.116	37391.64
517.318	37580.06
517.52	37727.51
517.722	37987.6
517.925	38407.44
518.127	38747.4
518.329	39101.7
518.531	38862.08
518.733	39410.94
518.935	39972.08
519.136	39638.26
519.338	40217.84
519.54	40561.9
519.742	41170.15
519.944	40795.37
520.146	41350.37
520.348	41991.38
520.55	42183.89
520.752	42253.52
520.954	42761.42
521.155	42689.74
521.357	43279.55
521.559	43375.81
521.761	44178.61
521.963	44315.83
522.164	44307.63
522.366	43963.57
522.568	44911.78
522.77	44946.6
522.971	45788.31
523.173	45073.57
523.375	45223.08
523.576	45765.79
523.778	45823.13
523.98	46042.26
524.181	46558.35
524.383	46787.72
524.584	47275.14
524.786	47373.44
524.988	46902.41
525.189	47299.72
525.391	47993.98
525.592	47543.42
525.794	47631.49
525.995	48446.58
526.197	48186.49
526.398	48768.11
526.6	48825.45
526.801	49179.75
527.003	49235.05
527.204	48979.05
527.406	49532
527.607	49151.08
527.808	49613.92
528.01	49015.91
528.211	49835.1
528.412	50594.9
528.614	50076.76
528.815	50072.67
529.016	50355.28
529.218	50302.04
529.419	50592.85
529.62	50517.07
529.822	49984.6
530.023	50011.23
530.224	50527.31
530.425	50691.15
530.626	50334.81
530.828	50211.93
531.029	51127.37
531.23	50830.41
531.431	50967.63
531.632	51170.38
531.833	51127.37
532.035	50889.8
532.236	51283.01
532.437	51563.59
532.638	51080.27
532.839	51465.28
533.04	51508.29
533.241	51014.73
533.442	51977.28
533.643	51764.29
533.844	51571.78
534.045	51809.34
534.246	51379.27
534.447	51911.74
534.648	51631.17
534.849	51866.69
535.05	51350.6
535.251	51596.35
535.451	51520.58
535.652	51571.78
535.853	51295.3
536.054	51801.15
536.255	52335.67
536.456	51569.73
536.657	51717.18
536.857	51450.95
537.058	51301.45
537.259	52124.73
537.46	52069.43
537.66	51539.01
537.861	51889.21
538.062	51346.5
538.263	51858.49
538.463	51698.75
538.664	51502.15
538.865	51846.21
539.065	52014.14
539.266	51045.45
539.466	52350.01
539.667	50902.09
539.868	52231.22
540.068	51616.83
540.269	51514.44
540.469	52091.96
540.67	51665.98
540.87	51467.33
541.071	51438.66
541.271	52141.11
541.472	51471.43
541.672	51547.2
541.873	50889.8
542.073	50936.91
542.274	51573.83
542.474	51543.11
542.675	51172.42
542.875	52034.62
543.075	51444.8
543.276	51194.95
543.476	51735.62
543.676	51063.88
543.877	51526.72
544.077	51559.49
544.277	51450.95
544.478	51371.08
544.678	51936.32
544.878	51133.51
545.078	51352.65
545.279	51194.95
545.479	51424.32
545.679	51430.47
545.879	51141.7
546.079	51088.46
546.28	51092.55
546.48	51014.73
546.68	51401.8
546.88	51149.9
547.08	51641.41
547.28	51006.54
547.48	50861.13
547.68	50981.96
547.88	51018.83
548.081	52171.83
548.281	51639.36
548.481	50912.33
548.681	51268.68
548.881	51481.67
549.081	51285.06
549.28	51008.59
549.48	51328.07
549.68	51090.51
549.88	51694.66
550.08	51076.17
550.28	51092.55
550.48	51100.75
550.68	51379.27
550.88	51246.15
551.08	51170.38
551.279	51102.79
551.479	50838.61
551.679	51078.22
551.879	51465.28
552.079	51274.82
552.278	51272.77
552.478	51141.7
552.678	50768.97
552.878	51512.39
553.077	50910.28
553.277	50478.16
553.477	51254.34
553.676	50740.3
553.876	50766.93
554.076	50852.94
554.275	51010.63
554.475	50242.65
554.674	50658.38
554.874	50787.41
555.074	50873.42
555.273	51012.68
555.473	50803.79
555.672	50586.71
555.872	50482.26
556.071	50480.21
556.271	51014.73
556.47	50498.64
556.67	50779.21
556.869	50422.87
557.068	50637.9
557.268	50107.48
557.467	50564.18
557.667	50633.81
557.866	50275.41
558.065	50484.31
558.265	50295.89
558.464	50345.05
558.663	50592.85
558.863	49558.63
559.062	50459.73
559.261	49779.81
559.461	50568.27
559.66	49634.4
559.859	50072.67
560.058	49503.33
560.258	50240.6
560.457	49257.57
560.656	49914.97
560.855	49425.51
561.054	49886.3
561.253	49388.64
561.453	49499.23
561.652	49771.61
561.851	49724.51
562.05	49212.52
562.249	49144.94
562.448	49960.03
562.647	49396.84
562.846	49427.56
563.045	49206.37
563.244	49099.88
563.443	49654.88
563.642	48632.94
563.841	49458.27
564.04	49142.89
564.239	49290.34
564.438	48735.34
564.637	48987.24
564.836	49085.54
565.035	48520.3
565.234	48739.44
565.432	48395.38
565.631	48458.87
565.83	48448.63
566.029	48524.4
566.228	48266.36
566.427	48323.7
566.625	47778.94
566.824	47533.18
567.023	48460.91
567.222	47451.27
567.42	48249.97
567.619	48108.66
567.818	47907.96
568.016	47666.3
568.215	48186.49
568.414	47854.72
568.612	47858.81
568.811	47551.62
569.01	47604.86
569.208	47031.43
569.407	47682.69
569.605	46978.18
569.804	47461.51
570.002	47264.9
570.201	47305.86
570.4	47096.97
570.598	46490.77
570.797	46722.19
570.995	46664.85
571.193	46324.88
571.392	46849.16
571.59	46056.6
571.789	46404.75
571.987	46644.37
572.186	45948.06
572.384	46304.4
572.582	46156.95
572.781	46392.47
572.979	45124.77
573.177	45903
573.376	45835.42
573.574	45458.59
573.772	45714.59
573.971	45595.81
574.169	45694.11
574.367	45550.75
574.565	45053.09
574.763	45073.57
574.962	45053.09
575.16	44706.99
575.358	44962.98
575.556	44641.45
575.754	45317.28
575.952	44438.7
576.151	44928.17
576.349	44432.56
576.547	44522.67
576.745	44555.44
576.943	44797.1
577.141	44387.5
577.339	44061.88
577.537	43848.89
577.735	44395.7
577.933	43785.4
578.131	43801.78
578.329	43807.93
578.527	43666.62
578.725	43756.73
578.923	43685.05
579.121	43420.86
579.319	43166.91
579.516	43486.4
579.714	43484.35
579.912	42937.54
580.11	43099.33
580.308	43285.7
580.506	43052.23
580.704	42187.99
580.901	42745.03
581.099	42607.82
581.297	42536.14
581.495	42425.55
581.692	42595.53
581.89	42247.38
582.088	42695.88
582.285	41972.95
582.483	42151.12
582.681	41866.45
582.878	41671.9
583.076	41467.1
583.274	42155.22
583.471	41333.98
583.669	41546.97
583.866	41129.19
584.064	41860.31
584.262	41303.26
584.459	41569.5
584.657	40910.05
584.854	41030.88
585.052	40430.83
585.249	40768.74
585.447	40905.96
585.644	40371.44
585.841	40811.75
586.039	40346.86
586.236	39988.47
586.434	40609
586.631	39841.01
586.828	40074.48
587.026	39931.12
587.223	39912.69
587.42	39685.37
587.618	39595.26
587.815	39574.78
588.012	39296.25
588.21	39517.43
588.407	39611.64
588.604	39488.76
588.801	39107.84
588.999	38952.19
589.196	38669.58
589.393	39144.7
589.59	38878.47
589.787	38937.86
589.984	38558.98
590.182	38360.33
590.379	38409.48
590.576	38298.89
590.773	38401.29
590.97	37993.75
591.167	38395.15
591.364	37578.01
591.561	37549.34
591.758	37522.71
591.955	37303.58
592.152	37879.06
592.349	37332.25
592.546	37420.31
592.743	37578.01
592.94	36594.98
593.137	37397.79
593.334	37324.06
593.531	36543.78
593.727	37233.95
593.924	36848.93
594.121	36400.43
594.318	36707.62
594.515	36060.46
594.712	36785.44
594.908	36134.19
595.105	36205.87
595.302	35581.24
595.499	36531.5
595.696	35802.42
595.892	35398.97
596.089	35804.47
596.286	35681.59
596.482	35384.63
596.679	35251.52
596.876	35386.68
597.072	35263.8
597.269	35142.97
597.466	34813.25
597.662	34729.28
597.859	35102.01
598.055	35147.07
598.252	34381.13
598.448	34768.19
598.645	34553.16
598.841	34207.05
599.038	34399.56
599.234	34082.13
599.431	33908.05
599.627	33725.78
599.824	34196.81
600.02	33824.08
600.217	33928.53
600.413	33789.27
600.609	33432.92
600.806	33396.06
601.002	33631.57
601.198	32875.87
601.395	33320.28
601.591	32959.84
601.787	32927.07
601.984	33013.09
602.18	33045.85
602.376	32462.18
602.572	32249.19
602.769	32802.14
602.965	32218.47
603.161	32314.73
603.357	32005.48
603.553	32511.33
603.75	32292.2
603.946	31735.15
604.142	32146.79
604.338	31827.31
604.534	31702.39
604.73	31833.46
604.926	31479.16
605.122	31610.23
605.318	31481.2
605.514	31436.15
605.71	31231.35
605.906	31280.5
606.102	31214.97
606.298	31141.24
606.494	30967.16
606.69	30928.25
606.886	31096.19
607.082	30492.04
607.278	30911.87
607.474	30162.31
607.67	31001.98
607.866	30283.14
608.062	30760.32
608.257	30563.71
608.453	30190.98
608.649	30293.38
608.845	30031.24
609.041	30223.75
609.236	30416.26
609.432	29998.48
609.628	30246.28
609.824	30051.72
610.019	29982.09
610.215	29869.45
610.411	30029.2
610.606	29648.27
610.802	29828.49
610.998	29584.79
611.193	29998.48
611.389	29537.68
611.584	29185.43
611.78	29570.45
611.976	29482.39
612.171	29447.57
612.367	29345.17
612.562	29394.32
612.758	29113.75
612.953	29066.65
613.149	29466
613.344	29177.24
613.539	29482.39
613.735	28945.82
613.93	29005.21
614.126	28988.83
614.321	29277.59
614.517	28743.07
614.712	28874.14
614.907	28562.85
615.103	28906.91
615.298	28538.27
615.493	28824.99
615.688	28313
615.884	28775.84
616.079	28751.26
616.274	28689.82
616.47	28222.89
616.665	28585.38
616.86	28104.1
617.055	28016.04
617.25	27999.66
617.445	28294.57
617.641	27612.59
617.836	27917.74
618.031	27608.5
618.226	27987.37
618.421	27772.33
618.616	27952.55
618.811	27344.31
619.006	27653.55
619.201	27127.22
619.396	27532.72
619.591	27289.01
619.786	27235.77
619.981	26551.74
620.176	27041.21
620.371	26709.44
620.566	26641.85
620.761	26533.31
620.956	26985.91
621.151	25961.93
621.346	26447.3
621.541	25777.61
621.735	26041.8
621.93	25648.59
622.125	26064.33
622.32	25738.7
622.515	25716.17
622.709	25359.83
622.904	25353.68
623.099	25161.17
623.294	25437.65
623.488	24798.68
623.683	24886.75
623.878	24550.88
624.072	24806.87
624.267	24616.41
624.462	24258.02
624.656	24229.35
624.851	24272.35
625.046	23940.58
625.24	23913.96
625.435	24024.55
625.629	23809.51
625.824	23365.1
626.018	23401.97
626.213	23084.53
626.407	23463.41
626.602	22941.18
626.796	22912.5
626.991	22846.97
627.185	22560.25
627.38	22691.32
627.574	22566.4
627.768	22326.78
627.963	22339.07
628.157	22269.44
628.352	22060.55
628.546	21526.03
628.74	21972.49
628.935	21814.79
629.129	21351.95
629.323	21509.65
629.517	21171.73
629.712	21499.41
629.906	21077.52
630.1	20809.24
630.294	20657.69
630.489	20508.19
630.683	20850.2
630.877	20344.35
631.071	20629.02
631.265	20631.07
631.459	20536.86
631.653	20078.11
631.848	20031.01
632.042	19807.78
632.236	19908.13
632.43	19777.06
632.624	19830.31
632.818	19463.72
633.012	19398.19
633.206	19301.93
633.4	19217.97
633.594	18937.4
633.788	19074.61
633.982	19189.3
634.176	18943.54
634.369	18710.07
634.563	18824.76
634.757	18366.01
634.951	18689.59
635.145	18181.7
635.339	18585.15
635.533	18280
635.726	18458.17
635.92	17796.68
636.114	17974.85
636.308	17841.73
636.501	17878.6
636.695	17972.8
636.889	17661.51
637.083	17458.76
637.276	17575.5
637.47	17528.39
637.664	17358.41
637.857	17253.97
638.051	17184.34
638.244	16981.59
638.438	17014.35
638.632	16852.56
638.825	16754.26
639.019	16721.49
639.212	16594.52
639.406	16326.24
639.599	16481.88
639.793	16553.56
639.986	16219.74
640.18	16332.38
640.373	16041.57
640.567	15965.79
640.76	15791.72
640.954	15810.15
641.147	15820.39
641.34	15777.38
641.534	15799.91
641.727	15494.76
641.92	15582.82
642.114	15560.3
642.307	15392.36
642.5	15302.25
642.694	15101.55
642.887	15048.3
643.08	15255.15
643.273	14954.1
643.467	14853.75
643.66	14816.88
643.853	14681.72
644.046	14603.89
644.239	14612.09
644.432	14493.3
644.626	14341.75
644.819	14268.03
645.012	14634.61
645.205	14544.5
645.398	14403.19
645.591	14155.39
645.784	14020.22
645.977	14042.75
646.17	14091.9
646.363	13751.94
646.556	13762.18
646.749	13901.44
646.942	13596.29
647.135	13526.66
647.328	13549.19
647.521	13584.01
647.714	13135.5
647.907	13254.28
648.099	13420.17
648.292	13029.01
648.485	12996.24
648.678	12990.1
648.871	12986
649.064	12861.07
649.256	12910.22
649.449	12799.63
649.642	12682.9
649.835	12453.53
650.027	12908.18
650.22	12459.67
650.413	12533.4
650.605	12332.7
650.798	12351.13
650.991	12052.13
651.183	12271.26
651.376	12121.76
651.568	12234.39
651.761	11968.16
651.954	11855.52
652.146	11824.8
652.339	11943.58
652.531	11726.5
652.724	11894.43
652.916	11284.14
653.109	11441.83
653.301	11468.45
653.494	11454.12
653.686	11275.95
653.879	11460.26
654.071	11419.3
654.263	11280.04
654.456	11329.19
654.648	11294.38
654.84	11134.64
655.033	11112.11
655.225	10962.61
655.417	11081.39
655.61	11030.19
655.802	10872.5
655.994	10679.99
656.186	10591.92
656.379	10542.77
656.571	10600.12
656.763	10423.99
656.955	10600.12
657.148	10548.92
657.34	10333.88
657.532	10376.89
657.724	10256.06
657.916	10348.22
658.108	10075.84
658.3	10006.2
658.492	10254.01
658.684	9952.96
658.876	9840.32
659.068	9844.42
659.26	9946.81
659.452	9836.22
659.644	10043.07
659.836	9627.33
660.028	9895.61
660.22	9483.97
660.412	9653.95
660.604	9662.15
660.796	9666.24
660.988	9496.26
661.18	9365.19
661.372	9471.68
661.563	9354.95
661.755	9105.1
661.947	9258.7
662.139	9191.11
662.331	9107.15
662.522	9045.71
662.714	9076.43
662.906	8982.22
663.097	8845.01
663.289	8867.53
663.481	8853.2
663.673	8926.93
663.864	8724.18
664.056	8572.63
664.247	8763.09
664.439	8478.42
664.631	8615.63
664.822	8666.83
665.014	8543.95
665.205	8445.65
665.397	8206.04
665.588	8476.37
665.78	8206.04
665.971	8212.18
666.163	8267.48
666.354	8333.01
666.546	8046.3
666.737	8031.96
666.929	7999.2
667.12	8128.22
667.311	7808.73
667.503	8046.3
667.694	7833.31
667.885	7909.08
668.077	7859.93
668.268	7630.56
668.459	7816.93
668.651	7808.73
668.842	7859.93
669.033	7673.57
669.224	7626.46
669.416	7544.55
669.607	7544.55
669.798	7429.86
669.989	7450.34
670.18	7243.49
670.371	7421.67
670.563	7425.76
670.754	7382.76
670.945	7327.46
671.136	7247.59
671.327	7255.78
671.518	7225.06
671.709	7251.69
671.9	7229.16
672.091	7235.3
672.282	7012.07
672.473	6971.11
672.664	6903.53
672.855	6940.4
673.046	6981.35
673.237	7016.17
673.428	6856.43
673.619	6729.45
673.809	6688.5
674	6979.31
674.191	6729.45
674.382	6924.01
674.573	6790.89
674.764	6858.48
674.954	6770.41
675.145	6645.49
675.336	6633.2
675.527	6704.88
675.717	6635.25
675.908	6512.37
676.099	6510.32
676.289	6563.57
676.48	6438.64
676.671	6278.9
676.861	6446.83
677.052	6330.1
677.243	6432.5
677.433	6360.82
677.624	6299.38
677.814	6278.9
678.005	6375.16
678.195	6260.47
678.386	6242.04
678.576	6115.06
678.767	6096.63
678.957	5986.04
679.148	6147.83
679.338	6211.32
679.529	6242.04
679.719	6012.67
679.909	6235.89
680.1	6029.05
680.29	5936.89
680.481	5951.23
680.671	5920.51
680.861	6065.91
681.052	5879.55
681.242	5969.66
681.432	5832.44
681.622	5787.39
681.813	5766.91
682.003	5691.13
682.193	5797.63
682.383	5728
682.573	5711.61
682.764	5820.16
682.954	5891.84
683.144	5920.51
683.334	5424.9
683.524	5644.03
683.714	5549.82
683.904	5512.96
684.094	5531.39
684.284	5629.7
684.474	5586.69
684.664	5486.34
684.854	5340.93
685.044	5515.01
685.234	5457.67
685.424	5549.82
685.614	5367.56
685.804	5459.71
685.994	5201.67
686.184	5289.73
686.374	5334.79
686.564	5216.01
686.753	5334.79
686.943	5115.66
687.133	5213.96
687.323	5142.28
687.513	5197.57
687.702	5205.77
687.892	5029.64
688.082	5152.52
688.272	5062.41
688.461	5052.17
688.651	4962.06
688.841	5084.94
689.03	5125.9
689.22	5003.02
689.41	4876.04
689.599	4867.85
689.789	4759.31
689.979	4849.42
690.168	4888.33
690.358	4869.9
690.547	4763.4
690.737	4732.69
690.926	4906.76
691.116	4800.27
691.305	4683.53
691.495	4679.44
691.684	4722.45
691.874	4652.81
692.063	4488.98
692.252	4638.48
692.442	4611.85
692.631	4579.09
692.82	4572.94
693.01	4323.09
693.199	4511.5
693.388	4333.33
693.578	4306.71
693.767	4349.71
693.956	4402.96
694.146	4396.82
694.335	4210.45
694.524	4300.56
694.713	4321.04
694.902	4306.71
695.092	4278.04
695.281	4091.67
695.47	4323.09
695.659	3999.51
695.848	4202.26
696.037	4099.86
696.226	4114.2
696.415	4206.36
696.604	4216.6
696.793	4083.48
696.982	4142.87
697.171	3970.84
697.36	3964.7
697.549	4046.62
697.738	3866.39
697.927	4005.66
698.116	4042.52
698.305	4079.38
698.494	3981.08
698.683	3940.12
698.872	3933.98
699.061	3917.59
699.25	3831.58
699.438	3858.2
699.627	3786.52
699.816	3886.87
700.005	3798.81
700.193	3895.07
700.382	3786.52
700.571	3860.25
700.76	3817.24
700.948	3837.72
701.137	3819.29
701.326	3755.8
701.514	3708.7
701.703	3974.94
701.892	3673.89
702.08	3811.1
702.269	3809.05
702.457	3665.69
702.646	3768.09
702.834	3733.28
703.023	3684.13
703.212	3581.73
703.4	3614.49
703.589	3561.25
703.777	3614.49
703.965	3747.61
704.154	3583.77
704.342	3630.88
704.531	3671.84
704.719	3491.62
704.907	3620.64
705.096	3434.27
705.284	3641.12
705.472	3594.01
705.661	3360.55
705.849	3497.76
706.037	3581.73
706.226	3469.09
706.414	3483.42
706.602	3428.13
706.79	3487.52
706.979	3481.38
707.167	3508
707.355	3436.32
707.543	3604.25
707.731	3436.32
707.919	3444.51
708.107	3524.38
708.296	3436.32
708.484	3460.9
708.672	3395.36
708.86	3385.12
709.048	3444.51
709.236	3548.96
709.424	3421.99
709.612	3499.81
709.8	3335.97
709.988	3415.84
710.176	3374.88
710.364	3338.02
710.551	3493.66
710.739	3209
710.927	3366.69
711.115	3286.82
711.303	3430.18
711.491	3309.35
711.679	3366.69
711.866	3333.92
712.054	3403.55
712.242	3245.86
712.43	3303.2
712.617	3395.36
712.805	3354.4
712.993	3323.68
713.181	3317.54
713.368	3288.87
713.556	3331.87
713.744	3168.04
713.931	3329.83
714.119	3340.07
714.306	3317.54
714.494	3231.52
714.682	3264.29
714.869	3194.66
715.057	3303.2
715.244	3292.96
715.432	3391.27
715.619	3372.83
715.807	3245.86
715.994	3209
716.182	3206.95
716.369	3249.96
716.556	3196.71
716.744	3163.94
716.931	3186.47
717.119	3133.22
717.306	3311.39
717.493	3174.18
717.681	3084.07
717.868	3135.27
718.055	3043.11
718.242	3112.74
718.43	3147.56
718.617	3151.65
718.804	3100.45
718.991	3172.13
719.179	3198.76
719.366	3030.82
719.553	3147.56
719.74	3239.72
719.927	3073.83
720.114	3120.93
720.301	3073.83
720.488	3084.07
720.676	3077.93
720.863	3131.17
721.05	3139.37
721.237	3086.12
721.424	3051.3
721.611	3104.55
721.798	3135.27
721.985	3026.73
722.172	3100.45
722.358	3090.21
722.545	3133.22
722.732	3112.74
722.919	3020.58
723.106	2948.9
723.293	3065.64
723.48	3133.22
723.667	2957.1
723.853	2940.71
724.04	3110.69
724.227	3008.3
724.414	3096.36
724.6	3004.2
724.787	3110.69
724.974	3057.45
725.161	2973.48
725.347	3024.68
725.534	2961.19
725.72	2875.18
725.907	2981.67
726.094	3028.78
726.28	2948.9
726.467	2993.96
726.653	2969.38
726.84	3024.68
727.027	2916.14
727.213	3024.68
727.4	3079.97
727.586	2934.57
727.773	3000.1
727.959	2957.1
728.145	3077.93
728.332	2971.43
728.518	2938.66
728.705	2963.24
728.891	2996.01
729.077	2957.1
729.264	2893.61
729.45	2957.1
729.636	2987.82
729.823	2866.99
730.009	2848.55
730.195	2869.03
730.382	2950.95
730.568	2959.14
730.754	2866.99
730.94	2821.93
731.126	2912.04
731.313	3043.11
731.499	2826.03
731.685	2955.05
731.871	2866.99
732.057	2916.14
732.243	2830.12
732.429	2873.13
732.615	2866.99
732.801	2897.71
732.987	2774.83
733.173	2836.27
733.359	2844.46
733.545	2797.35
733.731	2823.98
733.917	2864.94
734.103	2809.64
734.289	2793.26
734.475	2850.6
734.661	2885.42
734.847	2805.55
735.033	2799.4
735.219	2903.85
735.404	2809.64
735.59	2780.97
735.776	2746.16
735.962	2807.59
736.148	2858.79
736.333	2676.52
736.519	2832.17
736.705	2899.75
736.89	2684.72
737.076	2776.87
737.262	2776.87
737.447	2889.51
737.633	2670.38
737.819	2666.28
738.004	2750.25
738.19	2713.39
738.375	2608.94
738.561	2711.34
738.747	2690.86
738.932	2662.19
739.118	2688.81
739.303	2690.86
739.489	2645.8
739.674	2600.75
739.859	2549.55
740.045	2756.4
740.23	2697
740.416	2627.37
740.601	2643.76
740.786	2731.82
740.972	2602.8
741.157	2537.26
741.342	2527.02
741.528	2408.24
741.713	2527.02
741.898	2531.12
742.084	2428.72
742.269	2631.47
742.454	2449.2
742.639	2565.93
742.824	2459.44
743.01	2494.26
743.195	2553.65
743.38	2322.23
743.565	2432.82
743.75	2514.73
743.935	2383.66
744.12	2471.73
744.305	2365.23
744.49	2375.47
744.675	2418.48
744.86	2377.52
745.045	2354.99
745.23	2389.81
745.415	2467.63
745.6	2328.37
745.785	2301.75
745.97	2449.2
746.155	2400.05
746.34	2279.22
746.525	2258.74
746.71	2410.29
746.895	2207.54
747.079	2301.75
747.264	2309.94
747.449	2191.16
747.634	2201.4
747.819	2160.44
748.003	2160.44
748.188	2133.81
748.373	2109.24
748.557	2074.42
748.742	2115.38
748.927	2107.19
749.111	2088.76
749.296	2168.63
749.481	2148.15
749.665	2146.1
749.85	2015.03
750.034	2062.13
750.219	2035.51
750.404	2012.98
750.588	2125.62
750.773	2006.84
750.957	1959.74
751.141	1969.98
751.326	2045.75
751.51	1918.78
751.695	1886.01
751.879	1933.11
752.064	1918.78
752.248	1861.43
752.432	1949.5
752.617	1828.67
752.801	1877.82
752.985	1785.66
753.17	1785.66
753.354	1843
753.538	1855.29
753.722	1793.85
753.907	1765.18
754.091	1709.88
754.275	1781.56
754.459	1742.65
754.643	1806.14
754.828	1773.37
755.012	1785.66
755.196	1707.84
755.38	1695.55
755.564	1705.79
755.748	1544
755.932	1599.29
756.116	1630.01
756.3	1595.2
756.484	1619.77
756.668	1597.24
756.852	1623.87
757.036	1503.04
757.22	1525.57
757.404	1556.29
757.588	1537.85
757.772	1568.57
757.956	1513.28
758.14	1615.68
758.323	1464.13
758.507	1509.18
758.691	1423.17
758.875	1478.46
759.059	1474.37
759.242	1439.55
759.426	1398.59
759.61	1406.78
759.794	1427.26
759.977	1419.07
760.161	1474.37
760.345	1423.17
760.528	1445.7
760.712	1412.93
760.895	1335.1
761.079	1398.59
761.263	1402.69
761.446	1331.01
761.63	1288
761.813	1363.78
761.997	1271.62
762.18	1316.67
762.364	1345.34
762.547	1298.24
762.731	1271.62
762.914	1351.49
763.098	1267.52
763.281	1261.38
763.464	1324.87
763.648	1324.87
763.831	1253.19
764.015	1234.75
764.198	1236.8
764.381	1376.06
764.564	1251.14
764.748	1288
764.931	1308.48
765.114	1257.28
765.297	1201.99
765.481	1169.22
765.664	1124.16
765.847	1185.6
766.03	1195.84
766.213	1181.51
766.397	1255.23
766.58	1197.89
766.763	1128.26
766.946	1204.03
767.129	1169.22
767.312	1230.66
767.495	1156.93
767.678	1128.26
767.861	1173.32
768.044	1058.63
768.227	1103.68
768.41	1187.65
768.593	1232.71
768.776	1120.07
768.959	1181.51
769.142	1048.39
769.324	1060.68
769.507	1023.81
769.69	1103.68
769.873	1138.5
770.056	1175.36
770.239	1140.55
770.421	1107.78
770.604	1142.6
770.787	1060.68
770.97	937.8
771.152	970.57
771.335	1138.5
771.518	1122.12
771.7	1052.49
771.883	1109.83
772.066	966.47
772.248	972.61
772.431	974.66
772.613	1042.25
772.796	984.9
772.978	950.09
773.161	1021.77
773.343	1003.33
773.526	931.66
773.708	894.79
773.891	866.12
774.073	972.61
774.256	937.8
774.438	950.09
774.621	849.74
774.803	929.61
774.985	933.7
775.168	970.57
775.35	993.09
775.532	989
775.715	855.88
775.897	753.48
776.079	964.42
776.261	831.3
776.444	841.54
776.626	827.21
776.808	823.11
776.99	796.49
777.173	925.51
777.355	855.88
777.537	771.91
777.719	843.59
777.901	778.06
778.083	849.74
778.265	712.52
778.447	894.79
778.629	765.77
778.811	835.4
778.993	743.24
779.175	780.11
779.357	683.85
779.539	810.82
779.721	649.04
779.903	814.92
780.085	845.64
780.267	786.25
780.449	669.52
780.631	735.05
780.812	671.56
780.994	735.05
781.176	716.62
781.358	710.47
781.54	630.6
781.721	671.56
781.903	722.76
782.085	663.37
782.267	671.56
782.448	646.99
782.63	753.48
782.812	608.08
782.993	669.52
783.175	689.99
783.357	616.27
783.538	606.03
783.72	577.36
783.901	616.27
784.083	612.17
784.264	579.4
784.446	554.83
784.627	499.53
784.809	563.02
784.99	618.32
785.172	665.42
785.353	589.64
785.535	540.49
785.716	567.12
785.897	556.88
786.079	579.4
786.26	550.73
786.441	556.88
786.623	421.71
786.804	517.97
786.985	489.29
787.167	548.68
787.348	483.15
787.529	520.01
787.71	554.83
787.891	517.97
788.073	436.05
788.254	491.34
788.435	567.12
788.616	481.1
788.797	427.85
788.978	548.68
789.159	474.96
789.34	466.77
789.522	477.01
789.703	456.53
789.884	522.06
790.065	507.73
790.246	423.76
790.427	442.19
790.607	440.14
790.788	474.96
790.969	401.23
791.15	485.2
791.331	436.05
791.512	501.58
791.693	456.53
791.874	444.24
792.054	499.53
792.235	409.42
792.416	434
792.597	440.14
792.778	526.16
792.958	370.51
793.139	452.43
793.32	434
793.5	388.94
793.681	407.38
793.862	413.52
794.042	347.98
794.223	288.59
794.404	358.22
794.584	313.17
794.765	395.09
794.945	399.18
795.126	333.65
795.306	343.89
795.487	274.26
795.667	403.28
795.848	360.27
796.028	366.42
796.209	345.94
796.389	409.42
796.57	327.5
796.75	350.03
796.93	294.74
797.111	345.94
797.291	288.59
797.471	304.98
797.652	380.75
797.832	329.55
798.012	315.22
798.192	333.65
798.373	253.78
798.553	356.18
798.733	374.61
798.913	282.45
799.093	247.63
799.274	352.08
799.454	347.98
799.634	380.75
799.814	280.4
799.994	366.42
800.174	294.74
800.354	309.07
800.534	317.26
800.714	343.89
800.894	257.87
801.074	259.92
801.254	370.51
801.434	296.78
801.614	274.26
801.794	294.74
801.974	597.84
802.154	237.39
802.334	300.88
802.514	272.21
802.693	266.07
802.873	333.65
803.053	243.54
803.233	302.93
803.413	327.5
803.592	276.31
803.772	288.59
803.952	266.07
804.131	255.83
804.311	229.2
804.491	266.07
804.67	233.3
804.85	264.02
805.03	200.53
805.209	290.64
805.389	274.26
805.568	274.26
805.748	231.25
805.928	298.83
806.107	239.44
806.287	196.43
806.466	235.35
806.646	239.44
806.825	223.06
807.004	253.78
807.184	200.53
807.363	247.63
807.543	200.53
807.722	229.2
807.901	206.67
808.081	266.07
808.26	192.34
808.439	235.35
808.619	221.01
808.798	225.11
808.977	204.63
809.156	218.96
809.336	180.05
809.515	282.45
809.694	231.25
809.873	188.24
810.052	276.31
810.231	180.05
810.411	218.96
810.59	196.43
810.769	284.5
810.948	278.35
811.127	122.71
811.306	214.87
811.485	186.19
811.664	184.15
811.843	165.71
812.022	178
812.201	147.28
812.38	139.09
812.559	200.53
812.737	206.67
812.916	198.48
813.095	190.29
813.274	137.04
813.453	214.87
813.632	192.34
813.811	221.01
813.989	163.67
814.168	208.72
814.347	175.95
814.526	241.49
814.704	202.58
814.883	216.91
815.062	196.43
815.24	198.48
815.419	130.9
815.598	161.62
815.776	91.99
815.955	198.48
816.133	118.61
816.312	151.38
816.49	141.14
816.669	239.44
816.847	221.01
817.026	167.76
817.204	243.54
817.383	206.67
817.561	163.67
817.74	130.9
817.918	116.56
818.097	100.18
818.275	94.04
818.453	186.19
818.632	161.62
818.81	126.8
818.988	212.82
819.167	130.9
819.345	165.71
819.523	186.19
819.701	135
819.879	194.39
820.058	130.9
820.236	141.14
820.414	139.09
820.592	157.52
820.77	137.04
820.948	126.8
821.127	114.52
821.305	214.87
821.483	122.71
821.661	116.56
821.839	206.67
822.017	59.22
822.195	102.23
822.373	87.89
822.551	175.95
822.729	182.1
822.907	114.52
823.085	137.04
823.262	171.86
823.44	96.08
823.618	63.32
823.796	208.72
823.974	153.43
824.152	175.95
824.329	173.91
824.507	106.32
824.685	139.09
824.863	130.9
825.04	112.47
825.218	151.38
825.396	141.14
825.574	171.86
825.751	112.47
825.929	155.47
826.107	71.51
826.284	89.94
826.462	46.93
826.639	67.41
826.817	118.61
826.994	63.32
827.172	85.84
827.349	120.66
827.527	63.32
827.704	63.32
827.882	96.08
828.059	18.26
828.237	124.76
828.414	116.56
828.591	57.17
828.769	141.14
828.946	132.95
829.124	178
829.301	132.95
829.478	122.71
829.655	186.19
829.833	163.67
830.01	98.13
830.187	178
830.364	94.04
830.542	124.76
830.719	96.08
830.896	122.71
831.073	40.79
831.25	139.09
831.427	75.6
831.604	130.9
831.782	116.56
831.959	155.47
832.136	151.38
832.313	126.8
832.49	55.12
832.667	94.04
832.844	100.18
833.021	163.67
833.198	98.13
833.374	59.22
833.551	141.14
833.728	65.36
833.905	137.04
834.082	79.7
834.259	20.31
834.436	98.13
834.612	87.89
834.789	100.18
834.966	73.56
835.143	163.67
835.319	110.42
835.496	96.08
835.673	40.79
835.85	65.36
836.026	139.09
836.203	159.57
836.38	32.6
836.556	48.98
836.733	3.93
836.909	178
837.086	53.08
837.262	83.8
837.439	71.51
837.616	180.05
837.792	87.89
837.968	112.47
838.145	91.99
838.321	94.04
838.498	8.02
838.674	61.27
838.851	108.37
839.027	42.84
839.203	94.04
839.38	118.61
839.556	67.41
839.732	67.41
839.909	73.56
840.085	96.08
840.261	-4.27
840.437	104.28
840.614	46.93
840.79	75.6
840.966	108.37
841.142	61.27
841.318	67.41
841.494	81.75
841.671	55.12
841.847	61.27
842.023	32.6
842.199	63.32
842.375	69.46
842.551	75.6
842.727	57.17
842.903	118.61
843.079	38.74
843.255	30.55
843.431	112.47
843.607	108.37
843.783	-47.27
843.959	94.04
844.134	61.27
844.31	104.28
844.486	14.17
844.662	77.65
844.838	120.66
845.013	108.37
845.189	40.79
845.365	32.6
845.541	16.21
845.716	69.46
845.892	75.6
846.068	77.65
846.244	106.32
846.419	83.8
846.595	100.18
846.77	51.03
846.946	91.99
847.122	40.79
847.297	44.88
847.473	161.62
847.648	-0.17
847.824	100.18
847.999	10.07
848.175	24.4
848.35	57.17
848.526	24.4
848.701	85.84
848.876	98.13
849.052	79.7
849.227	73.56
849.403	69.46
849.578	73.56
849.753	87.89
849.929	71.51
850.104	22.36
850.279	12.12
850.454	40.79
850.63	48.98
850.805	20.31
850.98	16.21
851.155	44.88
851.33	1.88
851.505	16.21
851.681	57.17
851.856	73.56
852.031	87.89
852.206	73.56
852.381	91.99
852.556	51.03
852.731	36.69
852.906	79.7
853.081	8.02
853.256	89.94
853.431	36.69
853.606	16.21
853.781	8.02
853.956	55.12
854.131	-92.33
854.305	46.93
854.48	12.12
854.655	57.17
854.83	51.03
855.005	40.79
855.18	57.17
855.354	96.08
855.529	20.31
855.704	87.89
855.879	48.98
856.053	14.17
856.228	110.42
856.403	104.28
856.577	57.17
856.752	34.64
856.926	-14.51
857.101	87.89
857.276	57.17
857.45	75.6
857.625	-80.04
857.799	14.17
857.974	48.98
858.148	-51.37
858.323	10.07
858.497	42.84
858.672	67.41
858.846	63.32
859.02	143.19
859.195	1.88
859.369	20.31
859.543	-6.31
859.718	-0.17
859.892	16.21
860.066	32.6
860.241	63.32
860.415	20.31
860.589	-20.65
860.763	46.93
860.938	-37.03
861.112	73.56
861.286	5.97
861.46	57.17
861.634	10.07
861.808	38.74
861.982	81.75
862.157	40.79
862.331	46.93
862.505	-65.71
862.679	-20.65
862.853	-4.27
863.027	73.56
863.201	73.56
863.375	18.26
863.549	46.93
863.722	48.98
863.896	69.46
864.07	-30.89
864.244	-53.42
864.418	-10.41
864.592	-2.22
864.766	81.75
864.939	-10.41
865.113	-18.6
865.287	3.93
865.461	16.21
865.634	40.79
865.808	10.07
865.982	65.36
866.156	-16.55
866.329	28.5
866.503	40.79
866.676	77.65
866.85	-16.55
867.024	20.31
867.197	63.32
867.371	-26.79
867.544	-45.23
867.718	40.79
867.891	40.79
868.065	16.21
868.238	69.46
868.412	24.4
868.585	26.45
868.759	-67.75
868.932	73.56
869.105	48.98
869.279	-6.31
869.452	-10.41
869.625	-12.46
869.799	24.4
869.972	-6.31
870.145	63.32
870.319	67.41
870.492	24.4
870.665	-69.8
870.838	24.4
871.011	-34.99
871.185	12.12
871.358	22.36
871.531	8.02
871.704	-2.22
871.877	44.88
872.05	-10.41
872.223	26.45
872.396	55.12
872.569	-16.55
872.742	24.4
872.915	61.27
873.088	14.17
873.261	38.74
873.434	12.12
873.607	1.88
873.78	16.21
873.953	-59.56
874.126	5.97
874.299	20.31
874.471	32.6
874.644	48.98
874.817	-59.56
874.99	24.4
875.163	124.76
875.335	18.26
875.508	16.21
875.681	26.45
875.853	-22.7
876.026	48.98
876.199	32.6
876.371	-4.27
876.544	10.07
876.717	16.21
876.889	-53.42
877.062	59.22
877.234	14.17
877.407	3.93
877.579	36.69
877.752	-14.51
877.924	-37.03
878.097	-18.6
878.269	-37.03
878.442	26.45
878.614	-16.55
878.786	18.26
878.959	46.93
879.131	3.93
879.303	-49.32
879.476	34.64
879.648	14.17
879.82	16.21
879.993	5.97
880.165	-6.31
880.337	-59.56
880.509	87.89
880.681	3.93
880.854	-10.41
881.026	55.12
881.198	51.03
881.37	26.45
881.542	-20.65
881.714	53.08
881.886	5.97
882.058	-28.84
882.23	46.93
882.402	3.93
882.574	-30.89
882.746	75.6
882.918	67.41
883.09	34.64
883.262	65.36
883.434	-47.27
883.606	-45.23
883.778	28.5
883.95	51.03
884.122	-10.41
884.293	10.07
884.465	-26.79
884.637	-6.31
884.809	16.21
884.98	55.12
885.152	18.26
885.324	5.97
885.496	-45.23
885.667	-12.46
885.839	-53.42
886.011	57.17
886.182	5.97
886.354	36.69
886.525	-10.41
886.697	-4.27
886.869	-2.22
887.04	-4.27
887.212	61.27
887.383	14.17
887.555	-26.79
887.726	-28.84
887.897	51.03
888.069	-47.27
888.24	-4.27
888.412	-22.7
888.583	16.21
888.754	5.97
888.926	32.6
889.097	-8.36
889.268	44.88
889.44	10.07
889.611	-37.03
889.782	5.97
889.953	-0.17
890.125	24.4
890.296	-41.13
890.467	-6.31
890.638	-32.94
890.809	-39.08
890.98	-49.32
891.151	34.64
891.323	-20.65
891.494	67.41
891.665	-4.27
891.836	-8.36
892.007	-12.46
892.178	-14.51
892.349	-28.84
892.52	-32.94
892.691	5.97
892.862	79.7
893.032	-47.27
893.203	5.97
893.374	-32.94
893.545	20.31
893.716	20.31
893.887	42.84
894.057	-28.84
894.228	42.84
894.399	-24.75
894.57	61.27
894.74	5.97
894.911	-18.6
895.082	20.31
895.253	-8.36
895.423	-10.41
895.594	71.51
895.764	36.69
895.935	-37.03
896.106	38.74
896.276	-6.31
896.447	20.31
896.617	8.02
896.788	-59.56
896.958	-6.31
897.129	24.4
897.299	-41.13
897.47	63.32
897.64	20.31
897.81	-41.13
897.981	8.02
898.151	-10.41
898.322	26.45
898.492	8.02
898.662	-34.99
898.832	-59.56
899.003	-16.55
899.173	38.74
899.343	91.99
899.513	-6.31
