Data from USB4F104151__77__12-27-51-911.txt Node

Date: Fri Mar 14 12:27:51 EDT 2025
User: louis
Spectrometer: USB4F10415
Trigger mode: 4
Integration Time (sec): 2.000000E-2
Scans to average: 1
Electric dark correction enabled: true
Nonlinearity correction enabled: false
Boxcar width: 0
XAxis mode: Wavelengths
Number of Pixels in Spectrum: 3648
>>>>>Begin Spectral Data<<<<<
178.204	-95.06
178.424	-95.06
178.644	-95.06
178.864	-88.92
179.084	-72.53
179.304	-25.43
179.524	-74.58
179.744	17.58
179.964	31.91
180.184	25.77
180.404	1.19
180.624	-9.05
180.844	50.35
181.064	-41.81
181.283	9.39
181.503	-39.76
181.723	54.44
181.943	-50
182.163	50.35
182.383	48.3
182.602	64.68
182.822	89.26
183.042	85.16
183.262	-23.38
183.482	66.73
183.701	7.34
183.921	54.44
184.141	-25.43
184.361	130.22
184.58	11.43
184.8	31.91
185.02	68.78
185.239	44.2
185.459	115.88
185.679	132.26
185.898	19.63
186.118	9.39
186.338	-29.52
186.557	62.63
186.777	17.58
186.997	-0.85
187.216	-4.95
187.436	156.84
187.655	13.48
187.875	68.78
188.095	68.78
188.314	31.91
188.534	36.01
188.753	-13.14
188.973	-2.9
189.192	79.02
189.412	19.63
189.631	17.58
189.851	-43.86
190.07	85.16
190.29	-7
190.509	66.73
190.729	31.91
190.948	97.45
191.168	140.46
191.387	38.06
191.607	42.15
191.826	109.74
192.045	64.68
192.265	81.07
192.484	46.25
192.704	76.97
192.923	3.24
193.142	93.35
193.362	42.15
193.581	48.3
193.8	7.34
194.02	23.72
194.239	9.39
194.458	70.83
194.678	29.87
194.897	-0.85
195.116	-17.24
195.335	97.45
195.555	79.02
195.774	33.96
195.993	-82.77
196.212	7.34
196.432	3.24
196.651	7.34
196.87	33.96
197.089	99.5
197.308	38.06
197.528	60.59
197.747	68.78
197.966	64.68
198.185	130.22
198.404	52.39
198.623	36.01
198.842	33.96
199.062	64.68
199.281	-0.85
199.5	81.07
199.719	91.31
199.938	48.3
200.157	-2.9
200.376	-2.9
200.595	60.59
200.814	-7
201.033	113.83
201.252	29.87
201.471	11.43
201.69	111.78
201.909	1.19
202.128	54.44
202.347	97.45
202.566	-7
202.785	48.3
203.004	19.63
203.223	42.15
203.442	29.87
203.661	11.43
203.879	68.78
204.098	60.59
204.317	-2.9
204.536	83.11
204.755	-17.24
204.974	93.35
205.193	11.43
205.411	85.16
205.63	70.83
205.849	-41.81
206.068	-15.19
206.287	48.3
206.505	99.5
206.724	-13.14
206.943	13.48
207.162	130.22
207.381	5.29
207.599	58.54
207.818	15.53
208.037	130.22
208.255	72.87
208.474	66.73
208.693	13.48
208.911	46.25
209.13	29.87
209.349	-7
209.567	60.59
209.786	134.31
210.005	33.96
210.223	56.49
210.442	17.58
210.661	95.4
210.879	-9.05
211.098	11.43
211.316	-31.57
211.535	31.91
211.753	81.07
211.972	95.4
212.191	31.91
212.409	27.82
212.628	56.49
212.846	36.01
213.065	50.35
213.283	52.39
213.502	52.39
213.72	9.39
213.938	95.4
214.157	-13.14
214.375	68.78
214.594	66.73
214.812	126.12
215.031	-0.85
215.249	-17.24
215.467	93.35
215.686	50.35
215.904	124.07
216.122	15.53
216.341	64.68
216.559	97.45
216.778	40.11
216.996	85.16
217.214	19.63
217.432	-37.72
217.651	-2.9
217.869	58.54
218.087	23.72
218.306	-23.38
218.524	68.78
218.742	17.58
218.96	91.31
219.179	62.63
219.397	89.26
219.615	42.15
219.833	64.68
220.051	-2.9
220.27	72.87
220.488	-21.33
220.706	-33.62
220.924	81.07
221.142	74.92
221.36	74.92
221.578	-7
221.796	-76.63
222.015	48.3
222.233	25.77
222.451	87.21
222.669	9.39
222.887	25.77
223.105	-25.43
223.323	27.82
223.541	60.59
223.759	115.88
223.977	-25.43
224.195	70.83
224.413	50.35
224.631	66.73
224.849	38.06
225.067	83.11
225.285	13.48
225.503	83.11
225.721	-31.57
225.939	3.24
226.157	21.67
226.375	156.84
226.592	-60.24
226.81	31.91
227.028	40.11
227.246	158.89
227.464	99.5
227.682	33.96
227.9	5.29
228.117	103.59
228.335	66.73
228.553	66.73
228.771	23.72
228.989	21.67
229.206	-25.43
229.424	44.2
229.642	36.01
229.86	89.26
230.077	74.92
230.295	122.02
230.513	76.97
230.731	79.02
230.948	36.01
231.166	23.72
231.384	17.58
231.601	23.72
231.819	44.2
232.037	27.82
232.254	23.72
232.472	25.77
232.689	62.63
232.907	38.06
233.125	-0.85
233.342	54.44
233.56	40.11
233.777	-41.81
233.995	17.58
234.213	54.44
234.43	83.11
234.648	54.44
234.865	21.67
235.083	38.06
235.3	79.02
235.518	7.34
235.735	117.93
235.953	42.15
236.17	124.07
236.388	33.96
236.605	103.59
236.822	128.17
237.04	56.49
237.257	54.44
237.475	58.54
237.692	111.78
237.909	85.16
238.127	-11.09
238.344	31.91
238.562	68.78
238.779	33.96
238.996	-50
239.214	56.49
239.431	-9.05
239.648	-25.43
239.865	36.01
240.083	89.26
240.3	68.78
240.517	36.01
240.735	66.73
240.952	27.82
241.169	25.77
241.386	42.15
241.603	83.11
241.821	48.3
242.038	27.82
242.255	95.4
242.472	5.29
242.689	113.83
242.907	48.3
243.124	13.48
243.341	72.87
243.558	19.63
243.775	3.24
243.992	-4.95
244.209	50.35
244.426	62.63
244.643	74.92
244.86	48.3
245.078	38.06
245.295	-31.57
245.512	54.44
245.729	64.68
245.946	60.59
246.163	97.45
246.38	70.83
246.597	21.67
246.814	99.5
247.031	58.54
247.248	-27.48
247.464	64.68
247.681	54.44
247.898	-25.43
248.115	15.53
248.332	-50
248.549	54.44
248.766	42.15
248.983	23.72
249.2	93.35
249.417	-4.95
249.633	38.06
249.85	11.43
250.067	79.02
250.284	46.25
250.501	50.35
250.717	64.68
250.934	-13.14
251.151	58.54
251.368	-47.96
251.585	50.35
251.801	52.39
252.018	54.44
252.235	15.53
252.451	48.3
252.668	64.68
252.885	-33.62
253.102	42.15
253.318	9.39
253.535	62.63
253.752	60.59
253.968	3.24
254.185	-15.19
254.401	-2.9
254.618	-17.24
254.835	76.97
255.051	122.02
255.268	48.3
255.484	66.73
255.701	-9.05
255.917	87.21
256.134	36.01
256.351	-13.14
256.567	40.11
256.784	36.01
257	-99.16
257.217	68.78
257.433	68.78
257.65	91.31
257.866	87.21
258.082	60.59
258.299	11.43
258.515	72.87
258.732	56.49
258.948	79.02
259.165	-25.43
259.381	46.25
259.597	46.25
259.814	70.83
260.03	42.15
260.246	46.25
260.463	46.25
260.679	29.87
260.895	46.25
261.112	25.77
261.328	23.72
261.544	72.87
261.761	60.59
261.977	56.49
262.193	36.01
262.409	76.97
262.626	54.44
262.842	62.63
263.058	5.29
263.274	148.65
263.49	5.29
263.707	66.73
263.923	29.87
264.139	85.16
264.355	58.54
264.571	68.78
264.787	79.02
265.004	60.59
265.22	74.92
265.436	79.02
265.652	79.02
265.868	15.53
266.084	29.87
266.3	87.21
266.516	38.06
266.732	42.15
266.948	46.25
267.164	9.39
267.38	79.02
267.596	17.58
267.812	93.35
268.028	74.92
268.244	25.77
268.46	74.92
268.676	109.74
268.892	93.35
269.108	74.92
269.324	9.39
269.54	-0.85
269.756	60.59
269.972	-15.19
270.188	-58.2
270.403	68.78
270.619	15.53
270.835	33.96
271.051	58.54
271.267	109.74
271.483	52.39
271.698	85.16
271.914	56.49
272.13	38.06
272.346	1.19
272.562	31.91
272.777	76.97
272.993	21.67
273.209	89.26
273.425	-68.44
273.64	40.11
273.856	142.5
274.072	-50
274.287	87.21
274.503	23.72
274.719	40.11
274.934	36.01
275.15	-13.14
275.366	56.49
275.581	56.49
275.797	11.43
276.012	126.12
276.228	87.21
276.444	23.72
276.659	95.4
276.875	44.2
277.09	68.78
277.306	97.45
277.521	7.34
277.737	21.67
277.952	-37.72
278.168	66.73
278.383	132.26
278.599	13.48
278.814	42.15
279.03	-2.9
279.245	76.97
279.461	23.72
279.676	58.54
279.892	15.53
280.107	74.92
280.322	44.2
280.538	54.44
280.753	-13.14
280.969	29.87
281.184	15.53
281.399	95.4
281.615	19.63
281.83	60.59
282.045	38.06
282.26	-7
282.476	21.67
282.691	85.16
282.906	44.2
283.122	79.02
283.337	76.97
283.552	74.92
283.767	31.91
283.983	64.68
284.198	76.97
284.413	103.59
284.628	66.73
284.843	76.97
285.058	23.72
285.274	54.44
285.489	21.67
285.704	31.91
285.919	48.3
286.134	85.16
286.349	9.39
286.564	-7
286.779	56.49
286.995	81.07
287.21	25.77
287.425	115.88
287.64	87.21
287.855	40.11
288.07	-0.85
288.285	33.96
288.5	83.11
288.715	-23.38
288.93	-43.86
289.145	13.48
289.36	83.11
289.575	64.68
289.79	103.59
290.004	13.48
290.219	42.15
290.434	46.25
290.649	13.48
290.864	7.34
291.079	42.15
291.294	66.73
291.509	79.02
291.724	46.25
291.938	72.87
292.153	111.78
292.368	62.63
292.583	117.93
292.798	148.65
293.012	31.91
293.227	64.68
293.442	19.63
293.657	-29.52
293.871	97.45
294.086	-13.14
294.301	165.03
294.516	95.4
294.73	54.44
294.945	62.63
295.16	50.35
295.374	50.35
295.589	72.87
295.804	3.24
296.018	-11.09
296.233	64.68
296.447	54.44
296.662	68.78
296.877	119.98
297.091	38.06
297.306	54.44
297.52	13.48
297.735	91.31
297.949	21.67
298.164	-0.85
298.378	36.01
298.593	29.87
298.807	87.21
299.022	91.31
299.236	50.35
299.451	13.48
299.665	38.06
299.88	85.16
300.094	-21.33
300.309	79.02
300.523	48.3
300.737	54.44
300.952	46.25
301.166	58.54
301.381	54.44
301.595	-11.09
301.809	3.24
302.024	23.72
302.238	74.92
302.452	89.26
302.667	-27.48
302.881	103.59
303.095	11.43
303.309	50.35
303.524	-2.9
303.738	38.06
303.952	36.01
304.166	115.88
304.381	9.39
304.595	101.55
304.809	72.87
305.023	-4.95
305.237	107.69
305.452	9.39
305.666	81.07
305.88	119.98
306.094	85.16
306.308	101.55
306.522	97.45
306.736	48.3
306.95	33.96
307.164	27.82
307.379	50.35
307.593	62.63
307.807	62.63
308.021	70.83
308.235	27.82
308.449	-4.95
308.663	33.96
308.877	128.17
309.091	-11.09
309.305	42.15
309.519	-9.05
309.733	29.87
309.947	29.87
310.161	89.26
310.374	-11.09
310.588	81.07
310.802	42.15
311.016	64.68
311.23	81.07
311.444	9.39
311.658	40.11
311.872	27.82
312.085	115.88
312.299	74.92
312.513	-27.48
312.727	74.92
312.941	9.39
313.154	46.25
313.368	111.78
313.582	97.45
313.796	60.59
314.009	97.45
314.223	19.63
314.437	130.22
314.651	-15.19
314.864	46.25
315.078	46.25
315.292	38.06
315.505	52.39
315.719	13.48
315.933	44.2
316.146	27.82
316.36	46.25
316.573	40.11
316.787	11.43
317.001	99.5
317.214	21.67
317.428	15.53
317.641	85.16
317.855	29.87
318.068	89.26
318.282	117.93
318.495	70.83
318.709	66.73
318.922	7.34
319.136	89.26
319.349	50.35
319.563	62.63
319.776	62.63
319.99	44.2
320.203	-7
320.417	40.11
320.63	-35.67
320.843	50.35
321.057	138.41
321.27	25.77
321.483	9.39
321.697	-7
321.91	33.96
322.124	50.35
322.337	38.06
322.55	66.73
322.763	29.87
322.977	48.3
323.19	99.5
323.403	52.39
323.617	9.39
323.83	58.54
324.043	87.21
324.256	85.16
324.469	-15.19
324.683	9.39
324.896	38.06
325.109	56.49
325.322	33.96
325.535	97.45
325.748	97.45
325.962	9.39
326.175	31.91
326.388	54.44
326.601	105.64
326.814	-7
327.027	3.24
327.24	25.77
327.453	3.24
327.666	3.24
327.879	58.54
328.092	113.83
328.305	99.5
328.518	42.15
328.731	33.96
328.944	66.73
329.157	156.84
329.37	33.96
329.583	144.55
329.796	33.96
330.009	54.44
330.222	36.01
330.435	62.63
330.648	40.11
330.861	38.06
331.073	13.48
331.286	50.35
331.499	56.49
331.712	-29.52
331.925	70.83
332.138	5.29
332.35	52.39
332.563	38.06
332.776	83.11
332.989	33.96
333.202	56.49
333.414	36.01
333.627	93.35
333.84	70.83
334.053	40.11
334.265	74.92
334.478	48.3
334.691	38.06
334.903	99.5
335.116	52.39
335.329	31.91
335.541	5.29
335.754	33.96
335.966	105.64
336.179	25.77
336.392	42.15
336.604	101.55
336.817	56.49
337.029	111.78
337.242	-19.29
337.454	50.35
337.667	-64.34
337.88	138.41
338.092	103.59
338.305	85.16
338.517	68.78
338.729	13.48
338.942	89.26
339.154	101.55
339.367	25.77
339.579	38.06
339.792	25.77
340.004	89.26
340.217	44.2
340.429	58.54
340.641	93.35
340.854	-9.05
341.066	54.44
341.278	54.44
341.491	3.24
341.703	42.15
341.915	83.11
342.128	119.98
342.34	1.19
342.552	58.54
342.764	-25.43
342.977	-19.29
343.189	99.5
343.401	11.43
343.613	74.92
343.826	44.2
344.038	5.29
344.25	66.73
344.462	107.69
344.674	111.78
344.886	70.83
345.099	66.73
345.311	109.74
345.523	138.41
345.735	99.5
345.947	66.73
346.159	132.26
346.371	107.69
346.583	25.77
346.795	74.92
347.007	13.48
347.219	54.44
347.431	156.84
347.643	81.07
347.855	19.63
348.067	58.54
348.279	-25.43
348.491	60.59
348.703	101.55
348.915	48.3
349.127	-39.76
349.339	79.02
349.551	19.63
349.763	58.54
349.975	-4.95
350.187	138.41
350.399	171.18
350.61	117.93
350.822	68.78
351.034	54.44
351.246	115.88
351.458	79.02
351.669	44.2
351.881	38.06
352.093	-25.43
352.305	136.36
352.517	5.29
352.728	81.07
352.94	27.82
353.152	29.87
353.363	33.96
353.575	103.59
353.787	66.73
353.999	-17.24
354.21	74.92
354.422	85.16
354.633	68.78
354.845	25.77
355.057	154.79
355.268	115.88
355.48	40.11
355.692	60.59
355.903	31.91
356.115	124.07
356.326	13.48
356.538	97.45
356.749	29.87
356.961	68.78
357.172	64.68
357.384	68.78
357.595	76.97
357.807	3.24
358.018	13.48
358.23	50.35
358.441	175.27
358.653	136.36
358.864	-23.38
359.075	44.2
359.287	152.74
359.498	21.67
359.709	85.16
359.921	54.44
360.132	33.96
360.344	91.31
360.555	11.43
360.766	76.97
360.977	40.11
361.189	68.78
361.4	62.63
361.611	70.83
361.823	38.06
362.034	107.69
362.245	44.2
362.456	50.35
362.667	72.87
362.879	62.63
363.09	40.11
363.301	66.73
363.512	105.64
363.723	54.44
363.935	-4.95
364.146	64.68
364.357	46.25
364.568	5.29
364.779	-2.9
364.99	148.65
365.201	68.78
365.412	115.88
365.623	17.58
365.834	148.65
366.045	5.29
366.256	81.07
366.467	36.01
366.678	87.21
366.889	76.97
367.1	40.11
367.311	36.01
367.522	13.48
367.733	95.4
367.944	44.2
368.155	64.68
368.366	74.92
368.577	58.54
368.788	70.83
368.999	103.59
369.209	23.72
369.42	76.97
369.631	85.16
369.842	54.44
370.053	68.78
370.264	23.72
370.474	76.97
370.685	44.2
370.896	97.45
371.107	109.74
371.317	9.39
371.528	97.45
371.739	132.26
371.95	76.97
372.16	46.25
372.371	66.73
372.582	23.72
372.792	56.49
373.003	81.07
373.214	79.02
373.424	99.5
373.635	54.44
373.846	105.64
374.056	81.07
374.267	72.87
374.477	99.5
374.688	40.11
374.898	89.26
375.109	66.73
375.319	107.69
375.53	95.4
375.74	50.35
375.951	81.07
376.161	33.96
376.372	95.4
376.582	68.78
376.793	48.3
377.003	68.78
377.214	107.69
377.424	15.53
377.635	42.15
377.845	58.54
378.055	140.46
378.266	23.72
378.476	91.31
378.686	62.63
378.897	50.35
379.107	25.77
379.317	101.55
379.528	46.25
379.738	113.83
379.948	68.78
380.158	56.49
380.369	132.26
380.579	117.93
380.789	64.68
380.999	146.6
381.21	148.65
381.42	136.36
381.63	19.63
381.84	42.15
382.05	58.54
382.261	85.16
382.471	46.25
382.681	29.87
382.891	79.02
383.101	-27.48
383.311	1.19
383.521	21.67
383.731	87.21
383.941	117.93
384.151	31.91
384.361	56.49
384.571	64.68
384.781	68.78
384.991	44.2
385.201	148.65
385.411	93.35
385.621	13.48
385.831	42.15
386.041	48.3
386.251	60.59
386.461	126.12
386.671	23.72
386.881	93.35
387.091	9.39
387.301	83.11
387.511	38.06
387.72	15.53
387.93	115.88
388.14	13.48
388.35	29.87
388.56	103.59
388.769	87.21
388.979	115.88
389.189	54.44
389.399	113.83
389.609	81.07
389.818	21.67
390.028	83.11
390.238	36.01
390.447	62.63
390.657	50.35
390.867	-27.48
391.076	36.01
391.286	74.92
391.496	101.55
391.705	56.49
391.915	81.07
392.125	52.39
392.334	99.5
392.544	128.17
392.753	119.98
392.963	128.17
393.172	5.29
393.382	81.07
393.591	124.07
393.801	38.06
394.01	33.96
394.22	95.4
394.429	74.92
394.639	76.97
394.848	99.5
395.058	101.55
395.267	85.16
395.477	79.02
395.686	101.55
395.895	109.74
396.105	132.26
396.314	64.68
396.524	119.98
396.733	50.35
396.942	193.7
397.152	44.2
397.361	76.97
397.57	117.93
397.78	95.4
397.989	68.78
398.198	169.13
398.407	115.88
398.617	99.5
398.826	85.16
399.035	81.07
399.244	134.31
399.453	111.78
399.663	83.11
399.872	97.45
400.081	97.45
400.29	134.31
400.499	50.35
400.708	95.4
400.917	95.4
401.127	144.55
401.336	36.01
401.545	189.61
401.754	175.27
401.963	130.22
402.172	101.55
402.381	224.42
402.59	60.59
402.799	171.18
403.008	134.31
403.217	152.74
403.426	236.71
403.635	93.35
403.844	126.12
404.053	152.74
404.262	83.11
404.471	148.65
404.68	87.21
404.888	128.17
405.097	95.4
405.306	134.31
405.515	191.66
405.724	185.51
405.933	138.41
406.142	210.09
406.35	132.26
406.559	220.33
406.768	199.85
406.977	210.09
407.185	230.57
407.394	205.99
407.603	158.89
407.812	228.52
408.02	263.33
408.229	167.08
408.438	281.77
408.646	246.95
408.855	249
409.064	281.77
409.272	277.67
409.481	316.58
409.69	281.77
409.898	306.34
410.107	355.49
410.315	296.1
410.524	423.08
410.733	504.99
410.941	353.45
411.15	314.53
411.358	402.6
411.567	494.76
411.775	351.4
411.984	482.47
412.192	386.21
412.401	543.91
412.609	531.62
412.818	500.9
413.026	570.53
413.234	498.85
413.443	478.37
413.651	554.15
413.86	595.11
414.068	586.91
414.276	548
414.485	617.63
414.693	631.97
414.901	699.55
415.11	617.63
415.318	664.74
415.526	730.27
415.734	750.75
415.943	804
416.151	900.25
416.359	863.39
416.567	892.06
416.776	920.73
416.984	973.98
417.192	1037.47
417.4	1016.99
417.608	1029.27
417.817	994.46
418.025	1105.05
418.233	1135.77
418.441	1143.96
418.649	1250.46
418.857	1309.85
419.065	1270.94
419.273	1254.55
419.481	1344.66
419.689	1467.54
419.897	1473.68
420.105	1498.26
420.313	1553.55
420.521	1647.76
420.729	1639.57
420.937	1756.3
421.145	1713.3
421.353	1840.27
421.561	2004.11
421.769	1952.91
421.977	2126.99
422.185	2014.35
422.393	2141.32
422.601	2342.02
422.809	2303.11
423.017	2434.18
423.224	2466.95
423.432	2520.2
423.64	2557.06
423.848	2724.99
424.056	2741.38
424.263	2872.45
424.471	2962.56
424.679	2937.98
424.887	3110.01
425.094	3159.16
425.302	3273.85
425.51	3452.02
425.718	3456.12
425.925	3529.84
426.133	3603.57
426.341	3728.5
426.548	3902.58
426.756	4027.5
426.964	3955.82
427.171	4269.16
427.379	4404.33
427.586	4406.38
427.794	4422.76
428.001	4787.3
428.209	5016.67
428.417	4916.32
428.624	5205.08
428.832	5393.5
429.039	5344.35
429.247	5192.8
429.454	5737.56
429.662	6110.29
429.869	5665.88
430.076	6194.25
430.284	6009.93
430.491	6366.28
430.699	6620.23
430.906	6638.66
431.114	6683.72
431.321	6980.67
431.528	7183.42
431.736	7586.87
431.943	7756.85
432.15	7617.59
432.358	7910.45
432.565	8123.44
432.772	8166.45
432.979	8610.86
433.187	8614.95
433.394	8770.6
433.601	9309.21
433.808	9376.8
434.016	9397.28
434.223	9559.06
434.43	10320.91
434.637	10134.54
434.844	10746.89
435.052	10867.72
435.259	10927.11
435.466	10855.43
435.673	10775.56
435.88	11602.94
436.087	12327.92
436.294	11973.62
436.501	11824.12
436.708	12286.96
436.915	12585.96
437.122	13444.06
437.329	13245.41
437.537	13339.62
437.743	13761.5
437.95	13765.59
438.157	14382.03
438.364	15084.48
438.571	14922.69
438.778	14932.93
438.985	16634.8
439.192	15674.3
439.399	16333.75
439.606	16010.17
439.813	16763.82
440.02	17787.8
440.227	17392.55
440.433	17263.52
440.64	18068.37
440.847	17963.93
441.054	18228.12
441.261	19409.79
441.467	19176.33
441.674	19741.57
441.881	20175.73
442.088	20321.14
442.294	20171.64
442.501	20618.1
442.708	20839.28
442.914	22057.82
443.121	22643.54
443.328	22252.38
443.534	23741.25
443.741	23173.96
443.948	22903.63
444.154	24609.59
444.361	24322.87
444.568	24572.72
444.774	24574.77
444.981	24873.78
445.187	25617.19
445.394	26907.41
445.6	26663.7
445.807	28611.32
446.013	27577.09
446.22	28175.1
446.426	29510.38
446.633	29469.42
446.839	30530.26
447.046	29274.86
447.252	30835.41
447.459	31050.45
447.665	31046.35
447.871	32305.85
448.078	33727.14
448.284	32154.3
448.491	32989.88
448.697	34122.4
448.903	34833.05
449.11	34962.07
449.316	34583.19
449.522	35326.61
449.728	36084.36
449.935	36737.66
450.141	36002.44
450.347	37257.84
450.553	35979.91
450.76	36424.32
450.966	37902.95
451.172	37169.78
451.378	38414.94
451.584	37503.6
451.791	38423.14
451.997	38404.7
452.203	38834.78
452.409	38849.11
452.615	38492.77
452.821	37491.31
453.027	37094
453.233	39111.25
453.44	37243.51
453.646	37462.64
453.852	37878.38
454.058	38883.93
454.264	37726.83
454.47	38232.68
454.676	37280.37
454.882	38826.59
455.088	35476.11
455.294	35811.98
455.5	36459.13
455.705	36573.82
455.911	35398.29
456.117	34747.03
456.323	33915.56
456.529	32346.81
456.735	34017.96
456.941	32985.78
457.147	32187.07
457.352	31759.05
457.558	31302.35
457.764	31410.89
457.97	30608.09
458.176	29993.7
458.381	30005.98
458.587	28451.58
458.793	28347.13
458.999	27114.25
459.204	28922.61
459.41	28449.53
459.616	26137.37
459.821	26419.99
460.027	26053.41
460.233	25889.57
460.438	24279.86
460.644	24861.49
460.85	23671.62
461.055	23104.33
461.261	23284.55
461.466	21420.9
461.672	20794.22
461.878	22311.77
462.083	20753.26
462.289	20540.27
462.494	20185.97
462.7	19442.56
462.905	18721.68
463.111	19467.14
463.316	19598.21
463.522	19049.35
463.727	19264.39
463.932	19301.25
464.138	19268.48
464.343	19043.21
464.549	18504.59
464.754	19207.05
464.959	19057.54
465.165	18938.76
465.37	17927.07
465.575	17687.45
465.781	18197.4
465.986	18187.16
466.191	17337.25
466.397	17443.74
466.602	16567.21
466.807	17284
467.012	17197.99
467.218	16921.51
467.423	16870.31
467.628	16839.59
467.833	17705.88
468.038	16737.2
468.244	16399.28
468.449	17253.28
468.654	16669.61
468.859	16145.33
469.064	16292.79
469.269	15631.29
469.474	15883.19
469.679	16116.66
469.885	15907.77
470.09	15983.54
470.295	15752.12
470.5	15498.17
470.705	15670.2
470.91	15281.09
471.115	15246.27
471.32	15330.24
471.525	15485.89
471.73	14816.2
471.935	14906.31
472.139	14201.81
472.344	14562.25
472.549	14466
472.754	14173.14
472.959	13923.29
473.164	13640.67
473.369	13655
473.574	14050.26
473.778	13906.9
473.983	13691.87
474.188	13507.55
474.393	13018.08
474.598	13206.5
474.802	12850.15
475.007	13075.43
475.212	13005.8
475.417	12418.03
475.621	12485.61
475.826	12651.5
476.031	12252.14
476.235	12139.51
476.44	12164.08
476.645	11961.33
476.849	12018.68
477.054	11871.22
477.259	11729.91
477.463	11809.78
477.668	11508.73
477.872	11686.9
478.077	11197.44
478.282	11054.08
478.486	11140.1
478.691	10996.74
478.895	10927.11
479.1	10839.05
479.304	10988.55
479.509	10558.47
479.713	10689.54
479.918	10359.82
480.122	10212.37
480.326	10456.08
480.531	10480.65
480.735	10277.9
480.94	10300.43
481.144	10589.19
481.348	9933.84
481.553	10150.93
481.757	9964.56
481.961	10167.31
482.166	10320.91
482.37	10140.69
482.574	9948.18
482.778	10036.24
482.983	10257.42
483.187	10083.34
483.391	10189.84
483.595	9862.16
483.8	10107.92
484.004	10077.2
484.208	10159.12
484.412	9970.71
484.616	10157.07
484.821	10198.03
485.025	9792.53
485.229	10195.98
485.433	9925.65
485.637	10052.63
485.841	9970.71
486.045	10095.63
486.249	9923.6
486.453	10152.98
486.657	10066.96
486.861	10069.01
487.065	9851.92
487.269	9991.19
487.473	9704.47
487.677	10163.22
487.881	10001.43
488.085	10081.3
488.289	10222.61
488.493	10165.26
488.697	10236.94
488.901	10052.63
489.105	10183.7
489.309	10064.91
489.512	10247.18
489.716	10253.33
489.92	10361.87
490.124	10228.75
490.328	10365.96
490.531	10267.66
490.735	10316.81
490.939	10347.53
491.143	10355.72
491.346	10333.2
491.55	10451.98
491.754	10562.57
491.958	10621.96
492.161	10527.75
492.365	10566.67
492.569	10501.13
492.772	10564.62
492.976	10681.35
493.18	10894.34
493.383	11101.19
493.587	11000.83
493.79	10869.76
493.994	10972.16
494.197	11031.55
494.401	11150.34
494.605	11002.88
494.808	11412.48
495.012	11365.37
495.215	11553.79
495.419	11680.76
495.622	11510.78
495.825	11551.74
496.029	11607.03
496.232	11953.14
496.436	11926.52
496.639	12114.93
496.843	12043.25
497.046	12489.71
497.249	12471.28
497.453	12602.35
497.656	12737.51
497.859	12487.66
498.063	12663.79
498.266	13085.67
498.469	12999.65
498.673	13097.95
498.876	13200.35
499.079	13439.97
499.282	13327.33
499.485	13634.52
499.689	13749.21
499.892	14244.82
500.095	14005.2
500.298	14431.18
500.501	14312.4
500.705	14924.74
500.908	14781.39
501.111	15033.29
501.314	15082.44
501.517	15309.76
501.72	15408.06
501.923	15576
502.126	15862.71
502.329	16049.08
502.532	16364.46
502.735	16464.82
502.938	16710.57
503.141	16458.67
503.344	16952.23
503.547	17005.48
503.75	17445.79
503.953	17601.44
504.156	17499.04
504.359	17697.69
504.562	17793.95
504.765	18256.79
504.968	18459.54
505.17	18488.21
505.373	18432.91
505.576	18742.16
505.779	19059.59
505.982	19166.09
506.185	19749.76
506.387	19583.87
506.59	19719.04
506.793	20044.66
506.996	19934.07
507.198	20595.57
507.401	20392.82
507.604	20863.85
507.807	21064.55
508.009	21263.21
508.212	21451.62
508.415	21650.27
508.617	22033.24
508.82	22197.08
509.022	22010.71
509.225	22856.53
509.428	22891.34
509.63	23046.99
509.833	22930.25
510.035	23761.73
510.238	23417.67
510.44	23964.48
510.643	24085.31
510.845	24312.63
511.048	24050.49
511.25	24877.87
511.453	24775.47
511.655	25828.13
511.858	25213.74
512.06	25688.87
512.262	25922.34
512.465	25969.44
512.667	26403.61
512.87	26708.76
513.072	26602.26
513.274	27046.67
513.477	27630.34
513.679	27648.77
513.881	27751.17
514.084	28080.89
514.286	28091.13
514.488	28388.09
514.69	29037.3
514.893	29231.85
515.095	29213.42
515.297	29532.9
515.499	29803.24
515.701	30122.72
515.904	30194.4
516.106	30253.79
516.308	30712.53
516.51	31234.77
516.712	30907.09
516.914	31537.87
517.116	32107.2
517.318	32084.67
517.52	32195.26
517.722	32246.46
517.925	32746.17
518.127	32977.59
518.329	33204.91
518.531	33094.32
518.733	33987.24
518.935	34052.77
519.136	34177.7
519.338	34714.26
519.54	34577.05
519.742	34998.93
519.944	35379.85
520.146	35584.65
520.348	35963.53
520.55	36041.35
520.752	35971.72
520.954	36954.74
521.155	36702.84
521.357	37335.66
521.559	37161.59
521.761	37821.03
521.963	37655.15
522.164	37847.66
522.366	37851.75
522.568	38220.39
522.77	38904.41
522.971	39029.34
523.173	39098.97
523.375	39299.67
523.576	39662.16
523.778	39340.63
523.98	40311.36
524.181	40196.68
524.383	40176.2
524.584	40440.39
524.786	40825.4
524.988	40399.43
525.189	41116.22
525.391	41198.13
525.592	41495.09
525.794	41720.37
525.995	41421.36
526.197	41624.11
526.398	41728.56
526.6	42492.45
526.801	42500.64
527.003	42279.46
527.204	42490.4
527.406	42953.24
527.607	43221.53
527.808	43043.35
528.01	42502.69
528.211	43080.22
528.412	43897.36
528.614	43348.5
528.815	43602.45
529.016	43997.71
529.218	43637.26
529.419	43762.19
529.62	43629.07
529.822	43846.16
530.023	43944.46
530.224	43995.66
530.425	44065.29
530.626	43901.45
530.828	43911.69
531.029	44894.72
531.23	44356.1
531.431	44325.38
531.632	44413.44
531.833	44769.79
532.035	44808.7
532.236	44923.39
532.437	45003.26
532.638	44816.89
532.839	45117.95
533.04	45083.13
533.241	44567.04
533.442	45668.85
533.643	45009.4
533.844	45033.98
534.045	45332.98
534.246	44603.91
534.447	45263.35
534.648	45187.58
534.849	45210.1
535.05	44857.85
535.251	45240.82
535.451	45412.85
535.652	45449.72
535.853	45062.65
536.054	45560.31
536.255	45314.55
536.456	44704.26
536.657	45822.45
536.857	45478.39
537.058	45337.08
537.259	45660.66
537.46	45373.94
537.66	45107.71
537.861	45480.44
538.062	45046.27
538.263	45537.78
538.463	45083.13
538.664	45306.36
538.865	45431.29
539.065	45355.51
539.266	45130.23
539.466	45627.89
539.667	44964.35
539.868	45582.84
540.068	45206.01
540.269	45478.39
540.469	45529.59
540.67	44997.12
540.87	45136.38
541.071	45058.56
541.271	45419
541.472	45281.78
541.672	45275.64
541.873	44859.9
542.073	44859.9
542.274	45711.86
542.474	45105.66
542.675	44874.24
542.875	45134.33
543.075	44638.72
543.276	44997.12
543.476	45263.35
543.676	45140.47
543.877	45488.63
544.077	45185.53
544.277	45048.32
544.478	45332.98
544.678	45554.16
544.878	45312.5
545.078	45074.94
545.279	44986.88
545.479	44878.33
545.679	44962.3
545.879	45062.65
546.079	45083.13
546.28	45312.5
546.48	44941.82
546.68	45316.6
546.88	45246.97
547.08	45267.45
547.28	45089.27
547.48	44722.69
547.68	45275.64
547.88	45089.27
548.081	45042.17
548.281	45074.94
548.481	44970.49
548.681	45015.55
548.881	45480.44
549.081	45183.48
549.28	44763.65
549.48	45097.47
549.68	44888.57
549.88	45554.16
550.08	44843.52
550.28	45042.17
550.48	44872.19
550.68	45316.6
550.88	44956.16
551.08	44759.55
551.279	45179.39
551.479	44661.25
551.679	44878.33
551.879	45013.5
552.079	44960.25
552.278	44823.04
552.478	45011.45
552.678	44825.09
552.878	45517.3
553.077	44671.49
553.277	44306.95
553.477	45439.48
553.676	44773.89
553.876	44921.34
554.076	45214.2
554.275	44909.05
554.475	44198.41
554.674	44646.91
554.874	44939.77
555.074	44634.63
555.273	44657.15
555.473	44800.51
555.672	44812.8
555.872	44833.28
556.071	44720.64
556.271	44833.28
556.47	44466.69
556.67	44362.25
556.869	44812.8
557.068	44687.87
557.268	44753.41
557.467	44427.78
557.667	44147.21
557.866	44390.92
558.065	44192.26
558.265	43862.54
558.464	44001.8
558.663	44345.86
558.863	43946.51
559.062	44829.18
559.261	43622.93
559.461	44470.79
559.66	44030.47
559.859	44026.38
560.058	43592.21
560.258	43840.01
560.457	43133.46
560.656	43940.36
560.855	43678.22
561.054	43878.93
561.253	43651.6
561.453	43893.26
561.652	43612.69
561.851	43801.1
562.05	44147.21
562.249	43498
562.448	43780.62
562.647	43418.13
562.846	43549.2
563.045	43321.88
563.244	42689.06
563.443	43878.93
563.642	42730.01
563.841	43164.18
564.04	42846.75
564.239	43395.6
564.438	42799.65
564.637	43037.21
564.836	42994.2
565.035	42539.55
565.234	42752.54
565.432	42441.25
565.631	42476.07
565.83	42598.94
566.029	42361.38
566.228	42672.67
566.427	42359.33
566.625	42121.77
566.824	41773.61
567.023	42297.89
567.222	41777.71
567.42	42482.21
567.619	41919.02
567.818	41964.07
568.016	41433.65
568.215	42062.38
568.414	41939.5
568.612	41683.5
568.811	41603.63
569.01	41699.89
569.208	40948.28
569.407	41636.4
569.605	41019.96
569.804	41558.58
570.002	41130.55
570.201	41474.61
570.4	40931.9
570.598	40649.28
570.797	40350.27
570.995	41142.84
571.193	41028.15
571.392	41142.84
571.59	40559.17
571.789	40544.83
571.987	40079.94
572.186	40448.58
572.384	40125
572.582	40032.84
572.781	40061.51
572.979	40057.42
573.177	40147.53
573.376	40458.82
573.574	39836.23
573.772	40055.37
573.971	39592.53
574.169	39496.27
574.367	39623.25
574.565	39782.99
574.763	39719.5
574.962	39486.03
575.16	39277.14
575.358	39127.64
575.556	39309.91
575.754	39422.55
575.952	38857.31
576.151	39551.57
576.349	38599.26
576.547	38861.4
576.745	38754.91
576.943	38759
577.141	38228.58
577.339	38488.67
577.537	38351.46
577.735	38568.54
577.933	38132.32
578.131	38507.1
578.329	37978.73
578.527	37878.38
578.725	37976.68
578.923	37923.43
579.121	37827.18
579.319	38124.13
579.516	37497.45
579.714	37808.75
579.912	37644.91
580.11	37292.66
580.308	37624.43
580.506	37272.18
580.704	36821.62
580.901	37186.16
581.099	37587.57
581.297	37069.43
581.495	36936.31
581.692	36725.37
581.89	36518.53
582.088	36932.22
582.285	36557.44
582.483	37106.29
582.681	36262.53
582.878	36518.53
583.076	36084.36
583.274	36739.71
583.471	36113.03
583.669	36467.33
583.866	35854.98
584.064	36299.39
584.262	35578.51
584.459	36082.31
584.657	35996.29
584.854	35873.42
585.052	35125.91
585.249	35685
585.447	35474.06
585.644	35089.04
585.841	35420.81
586.039	35365.52
586.236	34976.4
586.434	35175.06
586.631	34925.21
586.828	34978.45
587.026	34738.84
587.223	34906.77
587.42	34669.21
587.618	34462.36
587.815	34374.3
588.012	34468.51
588.21	34224.8
588.407	34421.41
588.604	34253.47
588.801	33665.7
588.999	34368.16
589.196	34161.31
589.393	34073.25
589.59	33745.58
589.787	33366.7
589.984	33690.28
590.182	33168.05
590.379	33434.28
590.576	33229.49
590.773	33145.52
590.97	32891.57
591.167	33209.01
591.364	32760.5
591.561	33129.14
591.758	32766.65
591.955	32832.18
592.152	32791.22
592.349	32737.98
592.546	32842.42
592.743	32375.48
592.94	32070.34
593.137	32367.29
593.334	32457.4
593.531	31597.26
593.727	32078.53
593.924	32094.91
594.121	31949.51
594.318	31847.11
594.515	31560.39
594.712	31826.63
594.908	31748.81
595.105	31752.9
595.302	30937.81
595.499	31673.03
595.696	31179.47
595.892	30841.56
596.089	31064.78
596.286	30923.47
596.482	30792.4
596.679	30888.66
596.876	31355.6
597.072	30978.77
597.269	30816.98
597.466	30380.76
597.662	30178.01
597.859	30141.15
598.055	30161.63
598.252	29784.8
598.448	30313.18
598.645	29874.91
598.841	29901.54
599.038	29885.15
599.234	29829.86
599.431	29471.46
599.627	29285.1
599.824	29723.37
600.02	29569.77
600.217	29387.5
600.413	29338.35
600.609	29256.43
600.806	29270.76
601.002	29092.59
601.198	28885.75
601.395	28713.72
601.591	28938.99
601.787	28832.5
601.984	28340.99
602.18	29014.77
602.376	28670.71
602.572	28189.44
602.769	28404.47
602.965	28072.7
603.161	28764.92
603.357	27890.43
603.553	27892.48
603.75	27941.63
603.946	27972.35
604.142	27896.58
604.338	27538.18
604.534	27759.36
604.73	27759.36
604.926	27792.13
605.122	27890.43
605.318	27304.71
605.514	27067.15
605.71	27372.3
605.906	27187.98
606.102	27181.84
606.298	27159.31
606.494	27310.86
606.69	26999.57
606.886	27134.73
607.082	26782.48
607.278	27144.97
607.474	26647.32
607.67	26895.12
607.866	26430.23
608.062	26858.26
608.257	26385.18
608.453	26733.33
608.649	26561.3
608.845	26544.92
609.041	26536.73
609.236	26360.6
609.432	26467.09
609.628	26028.83
609.824	26022.69
610.019	25877.28
610.215	26235.67
610.411	25928.48
610.606	26047.26
610.802	26045.21
610.998	25815.84
611.193	25842.46
611.389	25678.63
611.584	25740.07
611.78	25744.16
611.976	25617.19
612.171	25879.33
612.367	25783.07
612.562	25557.8
612.758	25133.87
612.953	25459.49
613.149	25467.69
613.344	25004.85
613.539	25660.2
613.735	25170.73
613.93	25434.92
614.126	25434.92
614.321	25785.12
614.517	25439.01
614.712	25289.51
614.907	25035.56
615.103	25629.48
615.298	24957.74
615.493	25336.62
615.688	24894.25
615.884	25260.84
616.079	24664.88
616.274	25035.56
616.47	24838.96
616.665	24779.57
616.86	24824.62
617.055	24822.58
617.25	24505.14
617.445	24816.43
617.641	24300.34
617.836	24611.64
618.031	24367.93
618.226	24470.33
618.421	24128.31
618.616	24580.92
618.811	24085.31
619.006	24613.68
619.201	23518.02
619.396	24263.48
619.591	23538.5
619.786	23667.52
619.981	23522.12
620.176	23837.5
620.371	23395.14
620.566	23456.58
620.761	23163.72
620.956	23382.85
621.151	22829.9
621.346	23407.43
621.541	22629.2
621.735	23022.41
621.93	22633.3
622.125	22653.78
622.32	22307.67
622.515	22496.08
622.709	22422.36
622.904	22360.92
623.099	22139.74
623.294	22188.89
623.488	21654.37
623.683	21902.17
623.878	21402.47
624.072	21482.34
624.267	21703.52
624.462	21384.04
624.656	21183.34
624.851	21404.52
625.046	21123.94
625.24	21160.81
625.435	20790.13
625.629	20747.12
625.824	20358
626.018	20763.5
626.213	20218.74
626.407	20378.48
626.602	20056.95
626.796	20214.65
626.991	20231.03
627.185	19921.79
627.38	19925.88
627.574	19385.22
627.768	19487.62
627.963	19284.87
628.157	19348.36
628.352	19426.18
628.546	19149.7
628.74	19196.81
628.935	18860.94
629.129	19082.12
629.323	18916.23
629.517	18883.47
629.712	18748.3
629.906	18582.42
630.1	18277.27
630.294	18373.52
630.489	18535.31
630.683	18127.77
630.877	17859.48
631.071	17937.3
631.265	18090.9
631.459	17859.48
631.653	17523.62
631.848	17728.41
632.042	17525.66
632.236	17429.41
632.43	17437.6
632.624	17585.05
632.818	17083.3
633.012	17193.89
633.206	16917.42
633.4	17046.44
633.594	16718.76
633.788	16757.67
633.982	16788.39
634.176	16692.14
634.369	16386.99
634.563	16651.18
634.757	16413.62
634.951	16597.93
635.145	16311.22
635.339	16470.96
635.533	16233.39
635.726	16251.83
635.92	16008.12
636.114	15852.47
636.308	15776.7
636.501	15571.9
636.695	15711.16
636.889	15651.77
637.083	15440.83
637.276	15651.77
637.47	15496.13
637.664	15416.26
637.857	15164.36
638.051	15057.86
638.244	14951.37
638.438	15182.79
638.632	14818.25
638.825	14891.98
639.019	14719.95
639.212	14500.81
639.406	14701.51
639.599	14654.41
639.793	14533.58
639.986	14253.01
640.18	14427.09
640.373	14324.69
640.567	14072.79
640.76	14330.83
640.954	14134.23
641.147	14076.88
641.34	13759.45
641.534	13949.91
641.727	13841.37
641.92	13587.42
642.114	13644.76
642.307	13544.41
642.5	13511.64
642.694	13284.32
642.887	13390.81
643.08	13427.68
643.273	13235.17
643.467	13374.43
643.66	12975.08
643.853	12794.86
644.046	12774.38
644.239	12911.59
644.432	13016.04
644.626	12837.86
644.819	12829.67
645.012	12618.73
645.205	12872.68
645.398	12452.84
645.591	12305.39
645.784	12538.86
645.977	12254.19
646.17	12336.11
646.363	12153.84
646.556	12063.73
646.749	12014.58
646.942	12270.58
647.135	11889.65
647.328	11963.38
647.521	11865.08
647.714	11822.07
647.907	11918.32
648.099	11670.52
648.292	11951.09
648.485	11693.05
648.678	11529.21
648.871	11500.54
649.064	11457.53
649.256	11555.83
649.449	11101.19
649.642	11240.45
649.835	11357.18
650.027	11027.46
650.22	11269.12
650.413	10949.64
650.605	11154.43
650.798	10861.57
650.991	10816.52
651.183	10984.45
651.376	10730.5
651.568	10693.64
651.761	10796.04
651.954	10837
652.146	10507.27
652.339	10570.76
652.531	10716.17
652.724	10494.99
652.916	10245.13
653.109	10257.42
653.301	10220.56
653.494	10081.3
653.686	10085.39
653.879	10271.76
654.071	10017.81
654.263	10011.67
654.456	10159.12
654.648	9866.26
654.84	9759.77
655.033	9679.89
655.225	9831.44
655.417	9501.72
655.61	9858.07
655.802	9765.91
655.994	9421.85
656.186	9817.11
656.379	9546.78
656.571	9561.11
656.763	9427.99
656.955	9219.1
657.148	9350.17
657.34	9233.44
657.532	9167.9
657.724	9104.42
657.916	9237.53
658.108	9024.54
658.3	9282.59
658.492	9143.33
658.684	8950.82
658.876	8842.28
659.068	8727.59
659.26	8608.81
659.452	8821.8
659.644	8735.78
659.836	8721.45
660.028	8823.84
660.22	8461.35
660.412	8498.22
660.604	8483.88
660.796	8645.67
660.988	8494.12
661.18	8395.82
661.372	8225.84
661.563	8301.61
661.755	8176.69
661.947	8209.45
662.139	8322.09
662.331	8145.97
662.522	8018.99
662.714	8098.86
662.906	7982.13
663.097	7871.54
663.289	7881.78
663.481	7840.82
663.673	7951.41
663.864	7740.47
664.056	7787.57
664.247	7836.72
664.439	7527.48
664.631	7586.87
664.822	7609.4
665.014	7658.55
665.205	7580.73
665.397	7590.97
665.588	7423.03
665.78	7527.48
665.971	7570.49
666.163	7457.85
666.354	7511.1
666.546	7463.99
666.737	7087.17
666.929	7175.23
667.12	7109.69
667.311	7251
667.503	7115.84
667.694	7152.7
667.885	7013.44
668.077	7097.41
668.268	7091.26
668.459	7056.45
668.651	6939.71
668.842	6947.9
669.033	6849.6
669.224	6814.79
669.416	6822.98
669.607	6816.83
669.798	6878.27
669.989	6919.23
670.18	6669.38
670.371	6548.55
670.563	6718.53
670.754	6677.57
670.945	6599.75
671.136	6509.64
671.327	6577.22
671.518	6358.09
671.709	6489.16
671.9	6374.47
672.091	6538.31
672.282	6308.94
672.473	6405.19
672.664	6374.47
672.855	6505.54
673.046	6265.93
673.237	6458.44
673.428	6347.85
673.619	6388.81
673.809	6251.6
674	6136.91
674.191	6212.68
674.382	6011.98
674.573	6192.2
674.764	6020.17
674.954	6067.28
675.145	6085.71
675.336	5960.78
675.527	6034.51
675.717	5956.69
675.908	6034.51
676.099	6110.29
676.289	5852.24
676.48	5901.39
676.671	5811.28
676.861	5872.72
677.052	5866.58
677.243	5786.71
677.433	5887.06
677.624	5852.24
677.814	5821.52
678.005	5839.95
678.195	5829.71
678.386	5649.49
678.576	5637.2
678.767	5706.84
678.957	5837.91
679.148	5688.4
679.338	5778.51
679.529	5663.83
679.719	5479.51
679.909	5608.53
680.1	5719.12
680.29	5553.24
680.481	5704.79
680.671	5610.58
680.861	5243.99
681.052	5528.66
681.242	5639.25
681.432	5389.4
681.622	5397.59
681.813	5522.52
682.003	5561.43
682.193	5475.42
682.383	5397.59
682.573	5366.87
682.764	5436.5
682.954	5323.87
683.144	5508.18
683.334	5160.03
683.524	5235.8
683.714	5268.57
683.904	5184.6
684.094	5284.95
684.284	5403.74
684.474	5307.48
684.664	5243.99
684.854	5188.7
685.044	5284.95
685.234	5235.8
685.424	5088.35
685.614	5010.53
685.804	5100.64
685.994	5080.16
686.184	5049.44
686.374	4957.28
686.564	5026.91
686.753	5059.68
686.943	4901.98
687.133	5006.43
687.323	4899.94
687.513	4869.22
687.702	4957.28
687.892	4717.67
688.082	4838.5
688.272	4824.16
688.461	4926.56
688.651	4801.63
688.841	4809.83
689.03	4729.95
689.22	4756.58
689.41	4676.71
689.599	4574.31
689.789	4678.76
689.979	4574.31
690.168	4732
690.358	4564.07
690.547	4607.08
690.737	4582.5
690.926	4547.69
691.116	4367.46
691.305	4488.29
691.495	4619.36
691.684	4465.77
691.874	4445.29
692.063	4332.65
692.252	4377.7
692.442	4250.73
692.631	4256.87
692.82	4177
693.01	4156.52
693.199	4258.92
693.388	4222.06
693.578	4260.97
693.767	4232.3
693.956	4062.32
694.146	4076.65
694.335	4179.05
694.524	4148.33
694.713	4154.48
694.902	4131.95
695.092	4090.99
695.281	4080.75
695.47	3925.1
695.659	3990.64
695.848	4013.17
696.037	3978.35
696.226	4103.28
696.415	3916.91
696.604	4076.65
696.793	3898.48
696.982	4062.32
697.171	4029.55
697.36	3978.35
697.549	3933.29
697.738	3834.99
697.927	3941.49
698.116	4066.41
698.305	3902.58
698.494	3910.77
698.683	3834.99
698.872	3892.34
699.061	3828.85
699.25	3824.75
699.438	3781.74
699.627	3949.68
699.816	3818.61
700.005	3814.51
700.193	3691.63
700.382	3738.74
700.571	3638.39
700.76	3624.05
700.948	3761.27
701.137	3746.93
701.326	3703.92
701.514	3746.93
701.703	3775.6
701.892	3628.15
702.08	3638.39
702.269	3753.07
702.457	3703.92
702.646	3683.44
702.834	3736.69
703.023	3570.8
703.212	3787.89
703.4	3595.38
703.589	3533.94
703.777	3697.78
703.965	3642.48
704.154	3474.55
704.342	3624.05
704.531	3542.13
704.719	3574.9
704.907	3634.29
705.096	3587.19
705.284	3624.05
705.472	3554.42
705.661	3630.2
705.849	3433.59
706.037	3572.85
706.226	3597.43
706.414	3605.62
706.602	3445.88
706.79	3589.24
706.979	3566.71
707.167	3435.64
707.355	3597.43
707.543	3599.48
707.731	3560.56
707.919	3458.17
708.107	3425.4
708.296	3538.04
708.484	3458.17
708.672	3628.15
708.86	3398.77
709.048	3515.51
709.236	3443.83
709.424	3517.56
709.612	3386.49
709.8	3482.74
709.988	3431.54
710.176	3495.03
710.364	3470.45
710.551	3392.63
710.739	3411.06
710.927	3474.55
711.115	3464.31
711.303	3540.08
711.491	3415.16
711.679	3572.85
711.866	3306.62
712.054	3454.07
712.242	3431.54
712.43	3505.27
712.617	3458.17
712.805	3335.29
712.993	3521.65
713.181	3380.34
713.368	3507.32
713.556	3452.02
713.744	3378.3
713.931	3447.93
714.119	3456.12
714.306	3390.58
714.494	3341.43
714.682	3318.9
714.869	3130.49
715.057	3417.21
715.244	3275.9
715.432	3417.21
715.619	3366.01
715.807	3382.39
715.994	3376.25
716.182	3492.98
716.369	3394.68
716.556	3411.06
716.744	3363.96
716.931	3398.77
717.119	3404.92
717.306	3296.38
717.493	3337.34
717.681	3441.78
717.868	3275.9
718.055	3370.1
718.242	3277.94
718.43	3286.14
718.617	3306.62
718.804	3112.06
718.991	3398.77
719.179	3357.82
719.366	3226.75
719.553	3337.34
719.74	3245.18
719.927	3292.28
720.114	3349.62
720.301	3343.48
720.488	3239.03
720.676	3331.19
720.863	3443.83
721.05	3333.24
721.237	3443.83
721.424	3234.94
721.611	3277.94
721.798	3214.46
721.985	3232.89
722.172	3159.16
722.358	3220.6
722.545	3314.81
722.732	3202.17
722.919	3312.76
723.106	3247.23
723.293	3314.81
723.48	3351.67
723.667	3206.27
723.853	3243.13
724.04	3361.91
724.227	3271.8
724.414	3298.42
724.6	3236.99
724.787	3261.56
724.974	3343.48
725.161	3175.55
725.347	3271.8
725.534	3320.95
725.72	3247.23
725.907	3284.09
726.094	3150.97
726.28	3243.13
726.467	3181.69
726.653	3148.92
726.84	3222.65
727.027	3269.75
727.213	3200.12
727.4	3243.13
727.586	3163.26
727.773	3318.9
727.959	3181.69
728.145	3220.6
728.332	3177.59
728.518	3204.22
728.705	3179.64
728.891	3220.6
729.077	3224.7
729.264	3167.35
729.45	3089.53
729.636	3132.54
729.823	3116.16
730.009	3138.68
730.195	3177.59
730.382	3021.95
730.568	3204.22
730.754	3157.11
730.94	3056.76
731.126	3163.26
731.313	3126.39
731.499	3193.98
731.685	3044.48
731.871	3026.04
732.057	3097.72
732.243	3107.96
732.429	3044.48
732.615	3148.92
732.801	3095.68
732.987	3230.84
733.173	3105.92
733.359	3114.11
733.545	3198.07
733.731	3103.87
733.917	3054.72
734.103	3179.64
734.289	3101.82
734.475	2968.7
734.661	3114.11
734.847	3183.74
735.033	3101.82
735.219	3028.09
735.404	3054.72
735.59	3024
735.776	2997.37
735.962	3079.29
736.148	3095.68
736.333	3095.68
736.519	3013.76
736.705	2985.09
736.89	3054.72
737.076	3071.1
737.262	2927.74
737.447	2946.17
737.633	3069.05
737.819	3021.95
738.004	3017.85
738.19	3036.28
738.375	2940.03
738.561	3034.24
738.747	3024
738.932	2888.83
739.118	3144.83
739.303	3054.72
739.489	2972.8
739.674	2935.93
739.859	2833.54
740.045	2993.28
740.23	2972.8
740.416	2811.01
740.601	2884.73
740.786	2837.63
740.972	2876.54
741.157	2880.64
741.342	2700.42
741.528	2860.16
741.713	2821.25
741.898	2802.82
742.084	2860.16
742.269	2813.06
742.454	2811.01
742.639	2890.88
742.824	2813.06
743.01	2675.84
743.195	2860.16
743.38	2860.16
743.565	2669.7
743.75	2761.86
743.935	2546.82
744.12	2794.62
744.305	2655.36
744.49	2559.11
744.675	2626.69
744.86	2628.74
745.045	2598.02
745.23	2720.9
745.415	2643.07
745.6	2651.27
745.785	2516.1
745.97	2503.81
746.155	2577.54
746.34	2589.83
746.525	2528.39
746.71	2581.64
746.895	2557.06
747.079	2389.13
747.264	2473.09
747.449	2450.57
747.634	2446.47
747.819	2464.9
748.003	2419.85
748.188	2401.41
748.373	2438.28
748.557	2374.79
748.742	2342.02
748.927	2284.68
749.111	2313.35
749.296	2370.69
749.481	2417.8
749.665	2358.41
749.85	2387.08
750.034	2286.73
750.219	2245.77
750.404	2260.1
750.588	2075.79
750.773	2188.43
750.957	2301.06
751.141	2253.96
751.326	2243.72
751.51	2223.24
751.695	2116.75
751.879	2139.27
752.064	2143.37
752.248	2008.2
752.432	2098.31
752.617	2053.26
752.801	2069.64
752.985	2051.21
753.17	2014.35
753.354	2073.74
753.538	2126.99
753.722	1932.43
753.907	2014.35
754.091	2008.2
754.275	2006.16
754.459	1950.86
754.643	1877.13
754.828	2038.92
755.012	1909.9
755.196	1985.68
755.38	1879.18
755.564	1784.98
755.748	1778.83
755.932	1789.07
756.116	1754.26
756.3	1778.83
756.484	1778.83
756.668	1764.5
756.852	1690.77
757.036	1784.98
757.22	1658
757.404	1737.87
757.588	1748.11
757.772	1629.33
757.956	1664.15
758.14	1571.99
758.323	1647.76
758.507	1578.13
758.691	1655.95
758.875	1649.81
759.059	1617.04
759.242	1617.04
759.426	1623.19
759.61	1580.18
759.794	1633.43
759.977	1557.65
760.161	1660.05
760.345	1614.99
760.528	1492.12
760.712	1512.6
760.895	1664.15
761.079	1604.75
761.263	1531.03
761.446	1569.94
761.63	1449.11
761.813	1576.08
761.997	1469.59
762.18	1537.17
762.364	1440.92
762.547	1455.25
762.731	1512.6
762.914	1488.02
763.098	1373.33
763.281	1311.89
763.464	1387.67
763.648	1488.02
763.831	1391.77
764.015	1442.96
764.198	1350.81
764.381	1465.49
764.564	1453.2
764.748	1449.11
764.931	1379.48
765.114	1459.35
765.297	1324.18
765.481	1373.33
765.664	1305.75
765.847	1379.48
766.03	1297.56
766.213	1342.61
766.397	1311.89
766.58	1262.74
766.763	1211.54
766.946	1377.43
767.129	1211.54
767.312	1248.41
767.495	1203.35
767.678	1262.74
767.861	1377.43
768.044	1215.64
768.227	1172.63
768.41	1225.88
768.593	1293.46
768.776	1195.16
768.959	1135.77
769.142	1146.01
769.324	1221.78
769.507	1184.92
769.69	1195.16
769.873	1088.67
770.056	1242.26
770.239	1203.35
770.421	1244.31
770.604	1283.22
770.787	1197.21
770.97	1223.83
771.152	1121.43
771.335	1164.44
771.518	1096.86
771.7	1094.81
771.883	1158.3
772.066	1078.43
772.248	1133.72
772.431	1105.05
772.613	1229.98
772.796	1160.34
772.978	1096.86
773.161	1053.85
773.343	1047.71
773.526	1039.51
773.708	984.22
773.891	957.6
774.073	1078.43
774.256	1014.94
774.438	1019.04
774.621	947.36
774.803	1035.42
774.985	1002.65
775.168	1027.23
775.35	961.69
775.532	1006.75
775.715	951.45
775.897	935.07
776.079	1010.84
776.261	973.98
776.444	996.51
776.626	896.16
776.808	881.82
776.99	971.93
777.173	976.03
777.355	908.44
777.537	879.77
777.719	892.06
777.901	926.88
778.083	883.87
778.265	912.54
778.447	926.88
778.629	851.1
778.811	779.42
778.993	861.34
779.175	828.57
779.357	853.15
779.539	777.37
779.721	820.38
779.903	830.62
780.085	771.23
780.267	765.09
780.449	742.56
780.631	804
780.812	793.76
780.994	793.76
781.176	758.94
781.358	804
781.54	791.71
781.721	777.37
781.903	720.03
782.085	685.22
782.267	711.84
782.448	773.28
782.63	804
782.812	713.89
782.993	734.37
783.175	765.09
783.357	709.79
783.538	681.12
783.72	760.99
783.901	752.8
784.083	668.83
784.264	672.93
784.446	654.5
784.627	597.15
784.809	623.78
784.99	650.4
785.172	623.78
785.353	582.82
785.535	603.3
785.716	597.15
785.897	631.97
786.079	576.67
786.26	588.96
786.441	539.81
786.623	621.73
786.804	593.06
786.985	623.78
787.167	603.3
787.348	513.19
787.529	548
787.71	662.69
787.891	595.11
788.073	521.38
788.254	494.76
788.435	591.01
788.616	586.91
788.797	468.13
788.978	562.34
789.159	496.8
789.34	507.04
789.522	486.56
789.703	517.28
789.884	570.53
790.065	507.04
790.246	601.25
790.427	564.39
790.607	500.9
790.788	502.95
790.969	423.08
791.15	494.76
791.331	500.9
791.512	453.8
791.693	541.86
791.874	441.51
792.054	550.05
792.235	500.9
792.416	461.99
792.597	449.7
792.778	504.99
792.958	455.84
793.139	461.99
793.32	488.61
793.5	468.13
793.681	439.46
793.862	398.5
794.042	443.56
794.223	406.69
794.404	472.23
794.584	378.02
794.765	353.45
794.945	384.16
795.126	509.09
795.306	421.03
795.487	486.56
795.667	449.7
795.848	388.26
796.028	361.64
796.209	468.13
796.389	412.84
796.57	355.49
796.75	378.02
796.93	304.29
797.111	337.06
797.291	339.11
797.471	500.9
797.652	310.44
797.832	369.83
798.012	388.26
798.192	380.07
798.373	339.11
798.553	386.21
798.733	388.26
798.913	337.06
799.093	259.24
799.274	404.64
799.454	378.02
799.634	357.54
799.814	363.69
799.994	345.25
800.174	375.97
800.354	363.69
800.534	349.35
800.714	361.64
800.894	349.35
801.074	398.5
801.254	330.92
801.434	310.44
801.614	349.35
801.794	277.67
801.974	791.71
802.154	298.15
802.334	355.49
802.514	292.01
802.693	324.77
802.873	335.01
803.053	259.24
803.233	302.25
803.413	347.3
803.592	279.72
803.772	314.53
803.952	339.11
804.131	287.91
804.311	216.23
804.491	298.15
804.67	304.29
804.85	246.95
805.03	294.05
805.209	265.38
805.389	322.73
805.568	318.63
805.748	257.19
805.928	312.49
806.107	369.83
806.287	320.68
806.466	306.34
806.646	371.88
806.825	287.91
807.004	345.25
807.184	269.48
807.363	275.62
807.543	261.29
807.722	216.23
807.901	279.72
808.081	265.38
808.26	195.75
808.439	199.85
808.619	265.38
808.798	257.19
808.977	244.9
809.156	349.35
809.336	228.52
809.515	304.29
809.694	255.14
809.873	230.57
810.052	271.53
810.231	269.48
810.411	240.81
810.59	214.18
810.769	197.8
810.948	228.52
811.127	287.91
811.306	187.56
811.485	296.1
811.664	289.96
811.843	253.09
812.022	328.87
812.201	279.72
812.38	232.62
812.559	199.85
812.737	162.98
812.916	142.5
813.095	210.09
813.274	224.42
813.453	195.75
813.632	189.61
813.811	232.62
813.989	167.08
814.168	185.51
814.347	154.79
814.526	294.05
814.704	259.24
814.883	201.9
815.062	156.84
815.24	224.42
815.419	191.66
815.598	179.37
815.776	138.41
815.955	236.71
816.133	158.89
816.312	169.13
816.49	240.81
816.669	281.77
816.847	214.18
817.026	132.26
817.204	128.17
817.383	144.55
817.561	167.08
817.74	214.18
817.918	210.09
818.097	162.98
818.275	177.32
818.453	185.51
818.632	142.5
818.81	205.99
818.988	203.94
819.167	158.89
819.345	165.03
819.523	191.66
819.701	148.65
819.879	173.22
820.058	142.5
820.236	240.81
820.414	232.62
820.592	224.42
820.77	199.85
820.948	130.22
821.127	240.81
821.305	179.37
821.483	185.51
821.661	136.36
821.839	212.14
822.017	156.84
822.195	101.55
822.373	162.98
822.551	169.13
822.729	224.42
822.907	113.83
823.085	251.05
823.262	140.46
823.44	152.74
823.618	201.9
823.796	165.03
823.974	128.17
824.152	97.45
824.329	195.75
824.507	189.61
824.685	183.46
824.863	107.69
825.04	122.02
825.218	152.74
825.396	169.13
825.574	195.75
825.751	126.12
825.929	128.17
826.107	181.42
826.284	107.69
826.462	134.31
826.639	142.5
826.817	126.12
826.994	201.9
827.172	132.26
827.349	193.7
827.527	154.79
827.704	119.98
827.882	173.22
828.059	115.88
828.237	101.55
828.414	146.6
828.591	99.5
828.769	119.98
828.946	138.41
829.124	130.22
829.301	132.26
829.478	93.35
829.655	74.92
829.833	138.41
830.01	91.31
830.187	70.83
830.364	101.55
830.542	150.7
830.719	130.22
830.896	93.35
831.073	208.04
831.25	68.78
831.427	85.16
831.604	89.26
831.782	115.88
831.959	132.26
832.136	167.08
832.313	111.78
832.49	169.13
832.667	128.17
832.844	68.78
833.021	93.35
833.198	136.36
833.374	101.55
833.551	74.92
833.728	132.26
833.905	42.15
834.082	81.07
834.259	109.74
834.436	154.79
834.612	124.07
834.789	81.07
834.966	58.54
835.143	140.46
835.319	89.26
835.496	66.73
835.673	83.11
835.85	160.94
836.026	130.22
836.203	101.55
836.38	97.45
836.556	107.69
836.733	42.15
836.909	142.5
837.086	36.01
837.262	97.45
837.439	93.35
837.616	109.74
837.792	64.68
837.968	81.07
838.145	-21.33
838.321	105.64
838.498	124.07
838.674	144.55
838.851	101.55
839.027	107.69
839.203	128.17
839.38	130.22
839.556	44.2
839.732	119.98
839.909	70.83
840.085	171.18
840.261	66.73
840.437	158.89
840.614	146.6
840.79	113.83
840.966	89.26
841.142	124.07
841.318	79.02
841.494	48.3
841.671	136.36
841.847	105.64
842.023	40.11
842.199	-13.14
842.375	109.74
842.551	79.02
842.727	93.35
842.903	154.79
843.079	74.92
843.255	89.26
843.431	111.78
843.607	70.83
843.783	9.39
843.959	31.91
844.134	-4.95
844.31	91.31
844.486	58.54
844.662	103.59
844.838	79.02
845.013	48.3
845.189	103.59
845.365	95.4
845.541	111.78
845.716	52.39
845.892	128.17
846.068	-9.05
846.244	9.39
846.419	54.44
846.595	97.45
846.77	38.06
846.946	48.3
847.122	68.78
847.297	66.73
847.473	144.55
847.648	17.58
847.824	91.31
847.999	3.24
848.175	62.63
848.35	5.29
848.526	85.16
848.701	72.87
848.876	66.73
849.052	83.11
849.227	-25.43
849.403	76.97
849.578	74.92
849.753	58.54
849.929	117.93
850.104	-9.05
850.279	107.69
850.454	99.5
850.63	54.44
850.805	128.17
850.98	81.07
851.155	95.4
851.33	29.87
851.505	52.39
851.681	140.46
851.856	-11.09
852.031	7.34
852.206	119.98
852.381	113.83
852.556	48.3
852.731	44.2
852.906	36.01
853.081	62.63
853.256	13.48
853.431	115.88
853.606	40.11
853.781	52.39
853.956	38.06
854.131	29.87
854.305	-50
854.48	83.11
854.655	33.96
854.83	36.01
855.005	56.49
855.18	150.7
855.354	58.54
855.529	117.93
855.704	64.68
855.879	-4.95
856.053	11.43
856.228	27.82
856.403	23.72
856.577	42.15
856.752	68.78
856.926	29.87
857.101	13.48
857.276	50.35
857.45	31.91
857.625	-0.85
857.799	56.49
857.974	150.7
858.148	-9.05
858.323	46.25
858.497	3.24
858.672	99.5
858.846	36.01
859.02	72.87
859.195	19.63
859.369	-2.9
859.543	89.26
859.718	-19.29
859.892	152.74
860.066	56.49
860.241	11.43
860.415	38.06
860.589	54.44
860.763	23.72
860.938	3.24
861.112	140.46
861.286	-0.85
861.46	87.21
861.634	-27.48
861.808	74.92
861.982	17.58
862.157	19.63
862.331	52.39
862.505	23.72
862.679	46.25
862.853	40.11
863.027	17.58
863.201	105.64
863.375	1.19
863.549	13.48
863.722	27.82
863.896	103.59
864.07	97.45
864.244	23.72
864.418	150.7
864.592	58.54
864.766	68.78
864.939	93.35
865.113	36.01
865.287	60.59
865.461	56.49
865.634	-17.24
865.808	33.96
865.982	50.35
866.156	-15.19
866.329	5.29
866.503	1.19
866.676	111.78
866.85	25.77
867.024	62.63
867.197	81.07
867.371	48.3
867.544	5.29
867.718	-0.85
867.891	44.2
868.065	33.96
868.238	81.07
868.412	105.64
868.585	60.59
868.759	50.35
868.932	-2.9
869.105	76.97
869.279	29.87
869.452	25.77
869.625	-52.05
869.799	83.11
869.972	-13.14
870.145	27.82
870.319	89.26
870.492	72.87
870.665	52.39
870.838	-19.29
871.011	48.3
871.185	66.73
871.358	97.45
871.531	42.15
871.704	64.68
871.877	15.53
872.05	1.19
872.223	-56.15
872.396	1.19
872.569	-25.43
872.742	5.29
872.915	79.02
873.088	60.59
873.261	-11.09
873.434	56.49
873.607	58.54
873.78	29.87
873.953	21.67
874.126	31.91
874.299	79.02
874.471	56.49
874.644	68.78
874.817	89.26
874.99	54.44
875.163	62.63
875.335	105.64
875.508	-7
875.681	52.39
875.853	-25.43
876.026	50.35
876.199	-0.85
876.371	40.11
876.544	-23.38
876.717	38.06
876.889	9.39
877.062	5.29
877.234	5.29
877.407	68.78
877.579	9.39
877.752	27.82
877.924	29.87
878.097	-2.9
878.269	68.78
878.442	68.78
878.614	27.82
878.786	56.49
878.959	79.02
879.131	40.11
879.303	15.53
879.476	87.21
879.648	-29.52
879.82	1.19
879.993	5.29
880.165	23.72
880.337	-103.25
880.509	52.39
880.681	5.29
880.854	-13.14
881.026	72.87
881.198	91.31
881.37	27.82
881.542	38.06
881.714	15.53
881.886	89.26
882.058	48.3
882.23	52.39
882.402	-27.48
882.574	81.07
882.746	60.59
882.918	40.11
883.09	76.97
883.262	74.92
883.434	46.25
883.606	27.82
883.778	38.06
883.95	46.25
884.122	113.83
884.293	27.82
884.465	103.59
884.637	29.87
884.809	13.48
884.98	1.19
885.152	-9.05
885.324	3.24
885.496	66.73
885.667	15.53
885.839	46.25
886.011	13.48
886.182	-27.48
886.354	-13.14
886.525	5.29
886.697	40.11
886.869	-39.76
887.04	-33.62
887.212	-52.05
887.383	83.11
887.555	-23.38
887.726	103.59
887.897	-41.81
888.069	50.35
888.24	1.19
888.412	42.15
888.583	-13.14
888.754	-13.14
888.926	13.48
889.097	13.48
889.268	15.53
889.44	-13.14
889.611	5.29
889.782	19.63
889.953	54.44
890.125	29.87
890.296	-9.05
890.467	68.78
890.638	25.77
890.809	93.35
890.98	17.58
891.151	27.82
891.323	87.21
891.494	1.19
891.665	62.63
891.836	-25.43
892.007	-47.96
892.178	62.63
892.349	36.01
892.52	97.45
892.691	-2.9
892.862	19.63
893.032	36.01
893.203	-9.05
893.374	-0.85
893.545	79.02
893.716	11.43
893.887	21.67
894.057	38.06
894.228	5.29
894.399	-2.9
894.57	36.01
894.74	-15.19
894.911	74.92
895.082	31.91
895.253	46.25
895.423	105.64
895.594	54.44
895.764	29.87
895.935	15.53
896.106	19.63
896.276	52.39
896.447	25.77
896.617	48.3
896.788	25.77
896.958	101.55
897.129	31.91
897.299	58.54
897.47	23.72
897.64	15.53
897.81	9.39
897.981	44.2
898.151	85.16
898.322	25.77
898.492	13.48
898.662	-23.38
898.832	11.43
899.003	33.96
899.173	50.35
899.343	-2.9
899.513	44.2
