Data from USB4F104151__65__12-27-41-932.txt Node

Date: Fri Mar 14 12:27:41 EDT 2025
User: louis
Spectrometer: USB4F10415
Trigger mode: 4
Integration Time (sec): 2.000000E-2
Scans to average: 1
Electric dark correction enabled: true
Nonlinearity correction enabled: false
Boxcar width: 0
XAxis mode: Wavelengths
Number of Pixels in Spectrum: 3648
>>>>>Begin Spectral Data<<<<<
178.204	-86.19
178.424	-86.19
178.644	-86.19
178.864	-71.85
179.084	-86.19
179.304	-4.27
179.524	-71.85
179.744	-6.31
179.964	-2.22
180.184	65.36
180.404	12.12
180.624	28.5
180.844	-2.22
181.064	-39.08
181.283	18.26
181.503	-28.84
181.723	30.55
181.943	-45.23
182.163	20.31
182.383	30.55
182.602	48.98
182.822	-34.99
183.042	28.5
183.262	38.74
183.482	81.75
183.701	26.45
183.921	-6.31
184.141	16.21
184.361	55.12
184.58	-39.08
184.8	5.97
185.02	8.02
185.239	-12.46
185.459	24.4
185.679	73.56
185.898	30.55
186.118	3.93
186.338	8.02
186.557	18.26
186.777	-30.89
186.997	20.31
187.216	85.84
187.436	24.4
187.655	20.31
187.875	57.17
188.095	-6.31
188.314	18.26
188.534	48.98
188.753	-16.55
188.973	75.6
189.192	75.6
189.412	24.4
189.631	53.08
189.851	61.27
190.07	94.04
190.29	5.97
190.509	16.21
190.729	51.03
190.948	51.03
191.168	71.51
191.387	28.5
191.607	-2.22
191.826	85.84
192.045	-0.17
192.265	-8.36
192.484	30.55
192.704	-0.17
192.923	32.6
193.142	106.32
193.362	-4.27
193.581	61.27
193.8	-34.99
194.02	26.45
194.239	55.12
194.458	-8.36
194.678	46.93
194.897	10.07
195.116	32.6
195.335	24.4
195.555	18.26
195.774	16.21
195.993	155.47
196.212	24.4
196.432	-14.51
196.651	-22.7
196.87	12.12
197.089	87.89
197.308	55.12
197.528	10.07
197.747	14.17
197.966	51.03
198.185	-32.94
198.404	32.6
198.623	-77.99
198.842	24.4
199.062	67.41
199.281	83.8
199.5	28.5
199.719	59.22
199.938	-2.22
200.157	57.17
200.376	16.21
200.595	116.56
200.814	57.17
201.033	-57.51
201.252	53.08
201.471	16.21
201.69	20.31
201.909	-18.6
202.128	22.36
202.347	5.97
202.566	10.07
202.785	38.74
203.004	30.55
203.223	59.22
203.442	61.27
203.661	65.36
203.879	73.56
204.098	116.56
204.317	10.07
204.536	87.89
204.755	-51.37
204.974	42.84
205.193	-20.65
205.411	-26.79
205.63	75.6
205.849	-0.17
206.068	12.12
206.287	59.22
206.505	32.6
206.724	55.12
206.943	10.07
207.162	22.36
207.381	26.45
207.599	24.4
207.818	69.46
208.037	24.4
208.255	-16.55
208.474	-20.65
208.693	-67.75
208.911	24.4
209.13	55.12
209.349	22.36
209.567	-26.79
209.786	30.55
210.005	69.46
210.223	26.45
210.442	-37.03
210.661	26.45
210.879	-12.46
211.098	-12.46
211.316	30.55
211.535	42.84
211.753	-18.6
211.972	1.88
212.191	12.12
212.409	-41.13
212.628	-12.46
212.846	20.31
213.065	34.64
213.283	83.8
213.502	55.12
213.72	24.4
213.938	44.88
214.157	-20.65
214.375	51.03
214.594	38.74
214.812	55.12
215.031	-51.37
215.249	-6.31
215.467	-55.47
215.686	-37.03
215.904	69.46
216.122	-24.75
216.341	38.74
216.559	22.36
216.778	42.84
216.996	-26.79
217.214	1.88
217.432	-37.03
217.651	12.12
217.869	10.07
218.087	-4.27
218.306	-12.46
218.524	98.13
218.742	44.88
218.96	81.75
219.179	32.6
219.397	22.36
219.615	57.17
219.833	32.6
220.051	-75.95
220.27	100.18
220.488	55.12
220.706	20.31
220.924	1.88
221.142	-90.28
221.36	42.84
221.578	-26.79
221.796	-8.36
222.015	5.97
222.233	87.89
222.451	-4.27
222.669	3.93
222.887	89.94
223.105	36.69
223.323	28.5
223.541	-28.84
223.759	16.21
223.977	36.69
224.195	89.94
224.413	-0.17
224.631	71.51
224.849	-0.17
225.067	24.4
225.285	-22.7
225.503	42.84
225.721	16.21
225.939	-0.17
226.157	32.6
226.375	65.36
226.592	-26.79
226.81	55.12
227.028	20.31
227.246	38.74
227.464	22.36
227.682	3.93
227.9	32.6
228.117	12.12
228.335	42.84
228.553	10.07
228.771	-28.84
228.989	-2.22
229.206	26.45
229.424	-8.36
229.642	-45.23
229.86	-14.51
230.077	94.04
230.295	34.64
230.513	40.79
230.731	87.89
230.948	61.27
231.166	38.74
231.384	-34.99
231.601	51.03
231.819	42.84
232.037	-12.46
232.254	-28.84
232.472	-14.51
232.689	-12.46
232.907	59.22
233.125	-12.46
233.342	12.12
233.56	-20.65
233.777	22.36
233.995	85.84
234.213	51.03
234.43	32.6
234.648	42.84
234.865	-41.13
235.083	8.02
235.3	26.45
235.518	12.12
235.735	16.21
235.953	-55.47
236.17	89.94
236.388	-102.57
236.605	-53.42
236.822	57.17
237.04	32.6
237.257	36.69
237.475	-16.55
237.692	24.4
237.909	10.07
238.127	67.41
238.344	30.55
238.562	8.02
238.779	26.45
238.996	8.02
239.214	28.5
239.431	79.7
239.648	40.79
239.865	42.84
240.083	98.13
240.3	28.5
240.517	-0.17
240.735	-55.47
240.952	-61.61
241.169	87.89
241.386	87.89
241.603	16.21
241.821	-55.47
242.038	102.23
242.255	65.36
242.472	46.93
242.689	61.27
242.907	61.27
243.124	5.97
243.341	-2.22
243.558	1.88
243.775	-6.31
243.992	-59.56
244.209	12.12
244.426	112.47
244.643	32.6
244.86	75.6
245.078	46.93
245.295	98.13
245.512	-26.79
245.729	26.45
245.946	81.75
246.163	42.84
246.38	-14.51
246.597	46.93
246.814	67.41
247.031	-4.27
247.248	-18.6
247.464	-0.17
247.681	12.12
247.898	73.56
248.115	51.03
248.332	5.97
248.549	18.26
248.766	-26.79
248.983	32.6
249.2	-22.7
249.417	71.51
249.633	-4.27
249.85	16.21
250.067	28.5
250.284	53.08
250.501	24.4
250.717	12.12
250.934	22.36
251.151	14.17
251.368	61.27
251.585	18.26
251.801	12.12
252.018	22.36
252.235	12.12
252.451	24.4
252.668	81.75
252.885	18.26
253.102	-37.03
253.318	-10.41
253.535	38.74
253.752	42.84
253.968	20.31
254.185	32.6
254.401	-12.46
254.618	85.84
254.835	-24.75
255.051	83.8
255.268	61.27
255.484	24.4
255.701	-8.36
255.917	28.5
256.134	22.36
256.351	22.36
256.567	-30.89
256.784	22.36
257	-41.13
257.217	22.36
257.433	-28.84
257.65	85.84
257.866	34.64
258.082	1.88
258.299	16.21
258.515	-32.94
258.732	18.26
258.948	-20.65
259.165	-8.36
259.381	30.55
259.597	-4.27
259.814	48.98
260.03	3.93
260.246	-12.46
260.463	-16.55
260.679	28.5
260.895	-18.6
261.112	71.51
261.328	63.32
261.544	42.84
261.761	67.41
261.977	26.45
262.193	-41.13
262.409	26.45
262.626	55.12
262.842	94.04
263.058	20.31
263.274	-30.89
263.49	-4.27
263.707	73.56
263.923	32.6
264.139	1.88
264.355	5.97
264.571	94.04
264.787	71.51
265.004	98.13
265.22	10.07
265.436	-45.23
265.652	-67.75
265.868	32.6
266.084	65.36
266.3	55.12
266.516	-100.52
266.732	48.98
266.948	38.74
267.164	-0.17
267.38	30.55
267.596	28.5
267.812	34.64
268.028	65.36
268.244	36.69
268.46	36.69
268.676	24.4
268.892	-8.36
269.108	1.88
269.324	-30.89
269.54	63.32
269.756	12.12
269.972	94.04
270.188	-67.75
270.403	10.07
270.619	42.84
270.835	-41.13
271.051	34.64
271.267	32.6
271.483	-34.99
271.698	36.69
271.914	48.98
272.13	-8.36
272.346	-20.65
272.562	20.31
272.777	77.65
272.993	44.88
273.209	108.37
273.425	53.08
273.64	12.12
273.856	-18.6
274.072	8.02
274.287	-16.55
274.503	44.88
274.719	12.12
274.934	18.26
275.15	-20.65
275.366	30.55
275.581	61.27
275.797	-39.08
276.012	46.93
276.228	14.17
276.444	61.27
276.659	36.69
276.875	67.41
277.09	16.21
277.306	67.41
277.521	24.4
277.737	46.93
277.952	61.27
278.168	-0.17
278.383	1.88
278.599	32.6
278.814	79.7
279.03	-12.46
279.245	102.23
279.461	71.51
279.676	57.17
279.892	5.97
280.107	-22.7
280.322	-47.27
280.538	-8.36
280.753	28.5
280.969	102.23
281.184	-32.94
281.399	71.51
281.615	3.93
281.83	-28.84
282.045	-2.22
282.26	3.93
282.476	-34.99
282.691	42.84
282.906	24.4
283.122	42.84
283.337	48.98
283.552	44.88
283.767	48.98
283.983	102.23
284.198	32.6
284.413	114.52
284.628	30.55
284.843	89.94
285.058	53.08
285.274	-34.99
285.489	34.64
285.704	-34.99
285.919	44.88
286.134	28.5
286.349	30.55
286.564	-10.41
286.779	73.56
286.995	8.02
287.21	51.03
287.425	-26.79
287.64	53.08
287.855	51.03
288.07	-26.79
288.285	-24.75
288.5	55.12
288.715	-0.17
288.93	18.26
289.145	24.4
289.36	42.84
289.575	48.98
289.79	57.17
290.004	-18.6
290.219	8.02
290.434	1.88
290.649	44.88
290.864	-2.22
291.079	5.97
291.294	-24.75
291.509	16.21
291.724	3.93
291.938	18.26
292.153	83.8
292.368	1.88
292.583	79.7
292.798	69.46
293.012	96.08
293.227	65.36
293.442	26.45
293.657	85.84
293.871	112.47
294.086	40.79
294.301	53.08
294.516	67.41
294.73	51.03
294.945	32.6
295.16	-12.46
295.374	81.75
295.589	28.5
295.804	-90.28
296.018	24.4
296.233	100.18
296.447	-59.56
296.662	53.08
296.877	59.22
297.091	57.17
297.306	83.8
297.52	30.55
297.735	79.7
297.949	-18.6
298.164	73.56
298.378	28.5
298.593	8.02
298.807	-4.27
299.022	14.17
299.236	71.51
299.451	34.64
299.665	5.97
299.88	34.64
300.094	40.79
300.309	36.69
300.523	69.46
300.737	83.8
300.952	-26.79
301.166	36.69
301.381	10.07
301.595	91.99
301.809	14.17
302.024	-39.08
302.238	36.69
302.452	59.22
302.667	75.6
302.881	63.32
303.095	-47.27
303.309	42.84
303.524	30.55
303.738	-12.46
303.952	28.5
304.166	34.64
304.381	-24.75
304.595	55.12
304.809	30.55
305.023	-26.79
305.237	57.17
305.452	22.36
305.666	30.55
305.88	118.61
306.094	55.12
306.308	61.27
306.522	89.94
306.736	-2.22
306.95	3.93
307.164	-43.18
307.379	-2.22
307.593	-28.84
307.807	79.7
308.021	46.93
308.235	-24.75
308.449	59.22
308.663	-77.99
308.877	85.84
309.091	71.51
309.305	51.03
309.519	-26.79
309.733	-6.31
309.947	-8.36
310.161	44.88
310.374	26.45
310.588	69.46
310.802	40.79
311.016	18.26
311.23	-57.51
311.444	-30.89
311.658	28.5
311.872	-10.41
312.085	42.84
312.299	38.74
312.513	-12.46
312.727	18.26
312.941	-12.46
313.154	104.28
313.368	34.64
313.582	36.69
313.796	34.64
314.009	5.97
314.223	147.28
314.437	40.79
314.651	36.69
314.864	59.22
315.078	8.02
315.292	42.84
315.505	-24.75
315.719	-34.99
315.933	48.98
316.146	8.02
316.36	65.36
316.573	53.08
316.787	67.41
317.001	157.52
317.214	32.6
317.428	20.31
317.641	46.93
317.855	67.41
318.068	46.93
318.282	-53.42
318.495	53.08
318.709	48.98
318.922	51.03
319.136	65.36
319.349	16.21
319.563	20.31
319.776	94.04
319.99	46.93
320.203	16.21
320.417	71.51
320.63	89.94
320.843	87.89
321.057	57.17
321.27	26.45
321.483	81.75
321.697	12.12
321.91	-39.08
322.124	-6.31
322.337	-20.65
322.55	-37.03
322.763	30.55
322.977	44.88
323.19	10.07
323.403	75.6
323.617	14.17
323.83	44.88
324.043	-8.36
324.256	53.08
324.469	102.23
324.683	85.84
324.896	-22.7
325.109	18.26
325.322	-12.46
325.535	8.02
325.748	24.4
325.962	94.04
326.175	-10.41
326.388	51.03
326.601	108.37
326.814	-4.27
327.027	-32.94
327.24	104.28
327.453	5.97
327.666	83.8
327.879	16.21
328.092	118.61
328.305	65.36
328.518	3.93
328.731	24.4
328.944	143.19
329.157	34.64
329.37	-57.51
329.583	24.4
329.796	71.51
330.009	3.93
330.222	30.55
330.435	3.93
330.648	26.45
330.861	104.28
331.073	-43.18
331.286	8.02
331.499	51.03
331.712	-22.7
331.925	69.46
332.138	-47.27
332.35	122.71
332.563	20.31
332.776	77.65
332.989	-4.27
333.202	20.31
333.414	59.22
333.627	22.36
333.84	20.31
334.053	48.98
334.265	30.55
334.478	26.45
334.691	18.26
334.903	55.12
335.116	16.21
335.329	44.88
335.541	71.51
335.754	-2.22
335.966	22.36
336.179	104.28
336.392	-8.36
336.604	10.07
336.817	83.8
337.029	22.36
337.242	75.6
337.454	59.22
337.667	32.6
337.88	-26.79
338.092	57.17
338.305	46.93
338.517	8.02
338.729	59.22
338.942	59.22
339.154	81.75
339.367	34.64
339.579	-14.51
339.792	63.32
340.004	100.18
340.217	24.4
340.429	5.97
340.641	-102.57
340.854	-6.31
341.066	18.26
341.278	44.88
341.491	96.08
341.703	55.12
341.915	-12.46
342.128	85.84
342.34	67.41
342.552	32.6
342.764	-49.32
342.977	-10.41
343.189	-8.36
343.401	77.65
343.613	81.75
343.826	5.97
344.038	5.97
344.25	61.27
344.462	8.02
344.674	122.71
344.886	5.97
345.099	1.88
345.311	75.6
345.523	77.65
345.735	-55.47
345.947	114.52
346.159	44.88
346.371	16.21
346.583	44.88
346.795	69.46
347.007	12.12
347.219	12.12
347.431	20.31
347.643	61.27
347.855	1.88
348.067	14.17
348.279	20.31
348.491	10.07
348.703	16.21
348.915	24.4
349.127	42.84
349.339	77.65
349.551	12.12
349.763	42.84
349.975	8.02
350.187	48.98
350.399	44.88
350.61	5.97
350.822	42.84
351.034	40.79
351.246	59.22
351.458	79.7
351.669	-10.41
351.881	108.37
352.093	34.64
352.305	-24.75
352.517	-16.55
352.728	63.32
352.94	42.84
353.152	85.84
353.363	3.93
353.575	-10.41
353.787	34.64
353.999	-8.36
354.21	122.71
354.422	12.12
354.633	5.97
354.845	61.27
355.057	67.41
355.268	3.93
355.48	36.69
355.692	-39.08
355.903	42.84
356.115	1.88
356.326	-43.18
356.538	116.56
356.749	55.12
356.961	71.51
357.172	44.88
357.384	-0.17
357.595	167.76
357.807	12.12
358.018	8.02
358.23	67.41
358.441	59.22
358.653	32.6
358.864	-6.31
359.075	34.64
359.287	-10.41
359.498	38.74
359.709	67.41
359.921	20.31
360.132	24.4
360.344	40.79
360.555	-0.17
360.766	67.41
360.977	104.28
361.189	57.17
361.4	14.17
361.611	83.8
361.823	28.5
362.034	28.5
362.245	24.4
362.456	59.22
362.667	-57.51
362.879	-39.08
363.09	61.27
363.301	81.75
363.512	12.12
363.723	18.26
363.935	59.22
364.146	-2.22
364.357	-6.31
364.568	32.6
364.779	18.26
364.99	77.65
365.201	-2.22
365.412	110.42
365.623	26.45
365.834	-0.17
366.045	10.07
366.256	53.08
366.467	57.17
366.678	46.93
366.889	-26.79
367.1	38.74
367.311	16.21
367.522	12.12
367.733	22.36
367.944	44.88
368.155	38.74
368.366	53.08
368.577	91.99
368.788	104.28
368.999	-18.6
369.209	73.56
369.42	8.02
369.631	151.38
369.842	98.13
370.053	28.5
370.264	69.46
370.474	-8.36
370.685	57.17
370.896	81.75
371.107	-10.41
371.317	32.6
371.528	30.55
371.739	149.33
371.95	67.41
372.16	61.27
372.371	-57.51
372.582	124.76
372.792	73.56
373.003	-8.36
373.214	-4.27
373.424	106.32
373.635	16.21
373.846	32.6
374.056	106.32
374.267	-6.31
374.477	12.12
374.688	77.65
374.898	81.75
375.109	67.41
375.319	48.98
375.53	42.84
375.74	81.75
375.951	24.4
376.161	57.17
376.372	-34.99
376.582	-30.89
376.793	85.84
377.003	83.8
377.214	20.31
377.424	55.12
377.635	85.84
377.845	42.84
378.055	100.18
378.266	-14.51
378.476	10.07
378.686	-2.22
378.897	18.26
379.107	87.89
379.317	-0.17
379.528	16.21
379.738	-10.41
379.948	30.55
380.158	44.88
380.369	18.26
380.579	55.12
380.789	-43.18
380.999	137.04
381.21	24.4
381.42	-26.79
381.63	-16.55
381.84	34.64
382.05	28.5
382.261	96.08
382.471	89.94
382.681	34.64
382.891	102.23
383.101	59.22
383.311	-2.22
383.521	22.36
383.731	71.51
383.941	32.6
384.151	12.12
384.361	128.85
384.571	98.13
384.781	14.17
384.991	57.17
385.201	69.46
385.411	-22.7
385.621	-0.17
385.831	96.08
386.041	10.07
386.251	51.03
386.461	61.27
386.671	40.79
386.881	22.36
387.091	26.45
387.301	167.76
387.511	51.03
387.72	51.03
387.93	67.41
388.14	1.88
388.35	18.26
388.56	94.04
388.769	51.03
388.979	77.65
389.189	34.64
389.399	48.98
389.609	34.64
389.818	30.55
390.028	24.4
390.238	149.33
390.447	87.89
390.657	51.03
390.867	28.5
391.076	34.64
391.286	-16.55
391.496	87.89
391.705	20.31
391.915	141.14
392.125	46.93
392.334	20.31
392.544	32.6
392.753	-0.17
392.963	12.12
393.172	67.41
393.382	38.74
393.591	16.21
393.801	57.17
394.01	77.65
394.22	102.23
394.429	5.97
394.639	44.88
394.848	38.74
395.058	98.13
395.267	75.6
395.477	112.47
395.686	32.6
395.895	132.95
396.105	153.43
396.314	55.12
396.524	104.28
396.733	132.95
396.942	132.95
397.152	53.08
397.361	20.31
397.57	51.03
397.78	18.26
397.989	18.26
398.198	48.98
398.407	55.12
398.617	46.93
398.826	63.32
399.035	26.45
399.244	77.65
399.453	34.64
399.663	89.94
399.872	85.84
400.081	63.32
400.29	61.27
400.499	61.27
400.708	77.65
400.917	128.85
401.127	151.38
401.336	44.88
401.545	120.66
401.754	104.28
401.963	65.36
402.172	89.94
402.381	79.7
402.59	77.65
402.799	32.6
403.008	83.8
403.217	122.71
403.426	116.56
403.635	106.32
403.844	98.13
404.053	110.42
404.262	53.08
404.471	106.32
404.68	87.89
404.888	102.23
405.097	75.6
405.306	102.23
405.515	98.13
405.724	135
405.933	147.28
406.142	122.71
406.35	126.8
406.559	165.71
406.768	143.19
406.977	178
407.185	128.85
407.394	145.24
407.603	135
407.812	175.95
408.02	159.57
408.229	204.63
408.438	135
408.646	231.25
408.855	206.67
409.064	214.87
409.272	106.32
409.481	237.39
409.69	229.2
409.898	130.9
410.107	272.21
410.315	315.22
410.524	276.31
410.733	323.41
410.941	259.92
411.15	317.26
411.358	294.74
411.567	444.24
411.775	255.83
411.984	296.78
412.192	368.46
412.401	268.11
412.609	403.28
412.818	409.42
413.026	323.41
413.234	364.37
413.443	372.56
413.651	397.14
413.86	458.57
414.068	466.77
414.276	530.25
414.485	442.19
414.693	517.97
414.901	520.01
415.11	540.49
415.318	483.15
415.526	587.6
415.734	517.97
415.943	567.12
416.151	622.41
416.359	612.17
416.567	663.37
416.776	587.6
416.984	651.08
417.192	763.72
417.4	714.57
417.608	728.91
417.817	696.14
418.025	804.68
418.233	819.02
418.441	890.7
418.649	831.3
418.857	923.46
419.065	945.99
419.273	1042.25
419.481	956.23
419.689	1023.81
419.897	1183.56
420.105	1163.08
420.313	1220.42
420.521	1156.93
420.729	1191.75
420.937	1234.75
421.145	1218.37
421.353	1419.07
421.561	1480.51
421.769	1496.89
421.977	1570.62
422.185	1476.41
422.393	1611.58
422.601	1607.48
422.809	1673.02
423.017	1617.72
423.224	1826.62
423.432	1818.43
423.64	1730.36
423.848	2037.56
424.056	1967.93
424.263	2086.71
424.471	2017.08
424.679	2195.25
424.887	2273.07
425.094	2414.38
425.302	2295.6
425.51	2385.71
425.718	2486.06
425.925	2539.31
426.133	2596.65
426.341	2959.14
426.548	2985.77
426.756	2987.82
426.964	3008.3
427.171	3202.85
427.379	3198.76
427.586	3108.65
427.794	3290.92
428.001	3571.49
428.209	3712.8
428.417	3604.25
428.624	3813.15
428.832	3895.07
429.039	3997.46
429.247	3788.57
429.454	4237.08
429.662	4538.13
429.869	4169.49
430.076	4554.51
430.284	4542.22
430.491	4587.28
430.699	4896.52
430.906	4906.76
431.114	4931.34
431.321	5039.88
431.528	5226.25
431.736	5523.2
431.943	5861.12
432.15	5531.39
432.358	5793.53
432.565	6098.68
432.772	5940.99
432.979	6162.17
433.187	6430.45
433.394	6338.29
433.601	6905.58
433.808	6860.52
434.016	6876.91
434.223	7098.09
434.43	7472.87
434.637	7421.67
434.844	7773.92
435.052	8154.84
435.259	7974.62
435.466	8064.73
435.673	8052.44
435.88	8650.45
436.087	9062.09
436.294	9086.67
436.501	8990.41
436.708	9098.95
436.915	9363.14
437.122	9604.8
437.329	9602.75
437.537	10077.88
437.743	10208.95
437.95	9918.14
438.157	10669.75
438.364	10968.75
438.571	11007.66
438.778	11261.61
438.985	11832.99
439.192	11593.38
439.399	12058.27
439.606	11859.62
439.813	12406.42
440.02	13360.78
440.227	12723.86
440.433	12727.96
440.64	13426.31
440.847	13192.84
441.054	13659.78
441.261	14401.15
441.467	14089.85
441.674	14571.13
441.881	15150.7
442.088	14909.04
442.294	14780.02
442.501	15107.69
442.708	15761
442.914	16488.03
443.121	16891.48
443.328	16354.91
443.534	17708.62
443.741	17137.23
443.948	16873.04
444.154	18134.59
444.361	18157.12
444.568	18196.03
444.774	18243.13
444.981	18363.97
445.187	18818.61
445.394	19617.32
445.6	19666.47
445.807	21337.62
446.013	20612.63
446.22	21106.2
446.426	21679.63
446.633	21779.98
446.839	22486.53
447.046	21734.92
447.252	23270.9
447.459	22920.7
447.665	23035.38
447.871	23932.39
448.078	24948.18
448.284	23905.77
448.491	24559.07
448.697	25421.27
448.903	25843.15
449.11	25947.59
449.316	25568.72
449.522	25929.16
449.728	26998.2
449.935	26844.6
450.141	26668.48
450.347	27704.75
450.553	27071.93
450.76	27239.86
450.966	27811.24
451.172	27522.48
451.378	27999.66
451.584	27774.38
451.791	28425.64
451.997	28464.55
452.203	28632.48
452.409	28935.58
452.615	28876.19
452.821	27280.82
453.027	27264.44
453.233	28714.4
453.44	28007.85
453.646	27973.03
453.852	28132.78
454.058	28573.09
454.264	27907.5
454.47	28480.93
454.676	27780.53
454.882	28581.28
455.088	26361.28
455.294	26549.7
455.5	26881.47
455.705	27430.32
455.911	26498.5
456.117	25767.37
456.323	25519.57
456.529	24092.13
456.735	24749.53
456.941	24499.68
457.147	24167.91
457.352	23227.89
457.558	22871.54
457.764	23160.31
457.97	22607.36
458.176	22035.97
458.381	22105.6
458.587	20954.65
458.793	21161.49
458.999	20174.37
459.204	21528.08
459.41	20680.22
459.616	19402.29
459.821	19570.22
460.027	19463.72
460.233	18789.94
460.438	18093.63
460.644	18243.13
460.85	17456.71
461.055	17266.25
461.261	17198.67
461.466	15961.7
461.672	15457.9
461.878	16539.22
462.083	15357.55
462.289	15201.9
462.494	15052.4
462.7	14392.95
462.905	13901.44
463.111	14454.39
463.316	14435.96
463.522	14255.74
463.727	14153.34
463.932	14204.54
464.138	13966.98
464.343	14132.86
464.549	13602.44
464.754	14194.3
464.959	13860.48
465.165	13997.7
465.37	13108.88
465.575	12977.81
465.781	13373.07
465.986	13534.85
466.191	13219.47
466.397	12953.23
466.602	12361.37
466.807	12756.63
467.012	12703.38
467.218	12625.56
467.423	12480.15
467.628	12539.54
467.833	13020.81
468.038	12732.05
468.244	12252.83
468.449	12773.01
468.654	12271.26
468.859	12218.01
469.064	12363.42
469.269	11642.53
469.474	11695.78
469.679	11832.99
469.885	11738.79
470.09	11663.01
470.295	11765.41
470.5	11368.1
470.705	11689.63
470.91	11265.71
471.115	11212.46
471.32	11452.07
471.525	11423.4
471.73	11017.9
471.935	10841.78
472.139	10755.76
472.344	10806.96
472.549	10626.74
472.754	10849.97
472.959	10399.41
473.164	10043.07
473.369	10188.47
473.574	10413.75
473.778	10489.53
473.983	10086.08
474.188	10192.57
474.393	9805.5
474.598	9660.1
474.802	9606.85
475.007	9608.9
475.212	9684.67
475.417	9033.42
475.621	9189.07
475.826	9406.15
476.031	9064.14
476.235	9008.84
476.44	8982.22
476.645	9000.65
476.849	8830.67
477.054	8769.23
477.259	8572.63
477.463	8689.36
477.668	8513.24
477.872	8693.46
478.077	8398.55
478.282	8138.46
478.486	8093.4
478.691	8126.17
478.895	8134.36
479.1	8128.22
479.304	8027.87
479.509	7894.75
479.713	8025.82
479.918	7888.6
480.122	7599.84
480.326	7884.51
480.531	7821.02
480.735	7552.74
480.94	7722.72
481.144	7849.69
481.348	7466.72
481.553	7548.64
481.757	7390.95
481.961	7642.85
482.166	7522.02
482.37	7581.41
482.574	7386.85
482.778	7632.61
482.983	7569.12
483.187	7515.87
483.391	7730.91
483.595	7321.32
483.8	7180.01
484.004	7552.74
484.208	7552.74
484.412	7399.14
484.616	7546.59
484.821	7450.34
485.025	7415.52
485.229	7663.33
485.433	7569.12
485.637	7608.03
485.841	7440.1
486.045	7345.89
486.249	7433.96
486.453	7407.33
486.657	7696.1
486.861	7646.94
487.065	7337.7
487.269	7581.41
487.473	7415.52
487.677	7376.61
487.881	7735.01
488.085	7487.2
488.289	7653.09
488.493	7653.09
488.697	7614.18
488.901	7710.43
489.105	7556.83
489.309	7702.24
489.512	7655.14
489.716	7479.01
489.92	7581.41
490.124	7550.69
490.328	7720.67
490.531	7612.13
490.735	7562.98
490.939	7712.48
491.143	7747.3
491.346	7780.06
491.55	7743.2
491.754	7888.6
491.958	7941.85
492.161	7874.27
492.365	7937.76
492.569	7933.66
492.772	7968.48
492.976	8126.17
493.18	8050.39
493.383	8187.61
493.587	8220.38
493.79	8351.45
493.994	8269.53
494.197	8191.7
494.401	8326.87
494.605	8425.17
494.808	8521.43
495.012	8599.25
495.215	8466.13
495.419	8574.67
495.622	8761.04
495.825	8642.26
496.029	8744.66
496.232	9010.89
496.436	9025.23
496.639	9101
496.843	9080.52
497.046	9268.94
497.249	9270.98
497.453	9481.92
497.656	9580.23
497.859	9463.49
498.063	9711.3
498.266	9905.85
498.469	9889.47
498.673	10065.6
498.876	10073.79
499.079	10172.09
499.282	10321.59
499.485	10391.22
499.689	10411.7
499.892	10524.34
500.095	10677.94
500.298	10892.98
500.501	10757.81
500.705	11130.54
500.908	11194.03
501.111	11267.75
501.314	11364.01
501.517	11536.04
501.72	11546.28
501.923	11794.08
502.126	11949.73
502.329	12115.61
502.532	12037.79
502.735	12005.02
502.938	12682.9
503.141	12392.09
503.344	12830.35
503.547	12586.65
503.75	12838.55
503.953	13125.26
504.156	13139.6
504.359	13295.24
504.562	13362.83
504.765	13627.01
504.968	13633.16
505.17	14290.56
505.373	13825.67
505.576	14182.01
505.779	14532.22
505.982	14511.74
506.185	14792.31
506.387	14990.96
506.59	14837.36
506.793	15275.63
506.996	15179.37
507.198	15578.73
507.401	15345.26
507.604	16053.86
507.807	16180.83
508.009	16350.81
508.212	16442.97
508.415	16344.67
508.617	16664.15
508.82	16897.62
509.022	16782.93
509.225	17024.59
509.428	17284.69
509.63	17428.04
509.833	17598.02
510.035	17770.05
510.238	17796.68
510.44	18054.72
510.643	18273.85
510.845	18640.44
511.048	18595.39
511.25	18837.05
511.453	19090.99
511.655	19613.23
511.858	19494.44
512.06	19478.06
512.262	19473.96
512.465	19418.67
512.667	20133.41
512.87	20153.89
513.072	20536.86
513.274	20708.89
513.477	20977.17
513.679	21116.44
513.881	21419.53
514.084	21480.97
514.286	21530.12
514.488	21673.48
514.69	22316.54
514.893	21825.03
515.095	22328.83
515.297	22402.56
515.499	22709.75
515.701	22916.6
515.904	23117.3
516.106	23346.67
516.308	23692.78
516.51	23559.66
516.712	23889.38
516.914	24151.52
517.116	24147.43
517.318	24706.52
517.52	24688.09
517.722	24835.55
517.925	25572.82
518.127	25523.66
518.329	25648.59
518.531	25183.7
518.733	25847.24
518.935	26455.49
519.136	25849.29
519.338	26754.49
519.54	26670.53
519.742	26873.28
519.944	26940.86
520.146	27467.19
520.348	27655.6
520.55	27442.61
520.752	27985.32
520.954	28523.94
521.155	27690.41
521.357	28530.08
521.559	28794.27
521.761	29173.14
521.963	29087.13
522.164	29279.64
522.366	29488.53
522.568	29664.66
522.77	29820.3
522.971	30150.03
523.173	29902.22
523.375	30254.47
523.576	30717.31
523.778	30516.61
523.98	30725.5
524.181	31268.22
524.383	31253.88
524.584	31661.43
524.786	31552.88
524.988	31374.71
525.189	31954.29
525.391	32161.13
525.592	32150.89
525.794	32505.19
525.995	32195.95
526.197	32290.15
526.398	32712.03
526.6	32859.49
526.801	32955.74
527.003	33058.14
527.204	33113.44
527.406	33336.66
527.607	33551.7
527.808	33936.72
528.01	33363.29
528.211	33609.04
528.412	34374.98
528.614	33918.29
528.815	33875.28
529.016	34446.66
529.218	33983.82
529.419	33887.57
529.62	34092.37
529.822	34090.32
530.023	34735.43
530.224	34393.42
530.425	34415.94
530.626	34526.53
530.828	34184.52
531.029	35343.67
531.23	34645.32
531.431	34630.98
531.632	34698.56
531.833	34899.26
532.035	34843.97
532.236	35130.69
532.437	34993.47
532.638	34940.22
532.839	35116.35
533.04	35384.63
533.241	35003.71
533.442	35775.8
533.643	35333.43
533.844	35679.54
534.045	35579.19
534.246	35298.62
534.447	35444.02
534.648	34991.42
534.849	35650.87
535.05	35431.74
535.251	35292.47
535.451	35681.59
535.652	35583.29
535.853	35681.59
536.054	35249.47
536.255	35681.59
536.456	35407.16
536.657	35980.59
536.857	35437.88
537.058	35511.61
537.259	35939.63
537.46	35583.29
537.66	35421.5
537.861	35476.79
538.062	35661.11
538.263	36076.85
538.463	35525.94
538.664	35554.61
538.865	35906.87
539.065	36017.46
539.266	35646.77
539.466	36078.89
539.667	35722.55
539.868	36236.59
540.068	35685.68
540.269	35896.63
540.469	36093.23
540.67	35781.94
540.87	35482.94
541.071	35872.05
541.271	35870
541.472	35657.01
541.672	35736.88
541.873	35534.14
542.073	35370.3
542.274	35724.6
542.474	35630.39
542.675	35495.22
542.875	35939.63
543.075	35452.22
543.276	35210.56
543.476	35786.04
543.676	35771.7
543.877	35771.7
544.077	35673.4
544.277	35538.23
544.478	35245.37
544.678	36150.57
544.878	35718.45
545.078	35446.07
545.279	35456.31
545.479	35476.79
545.679	35505.46
545.879	35650.87
546.079	35573.05
546.28	35724.6
546.48	35224.89
546.68	36009.26
546.88	36029.74
547.08	35691.83
547.28	35480.89
547.48	35532.09
547.68	35728.69
547.88	35573.05
548.081	35726.64
548.281	35554.61
548.481	35550.52
548.681	35870
548.881	35652.92
549.081	35751.22
549.28	35122.49
549.48	35675.44
549.68	35783.99
549.88	35943.73
550.08	35654.97
550.28	35906.87
550.48	35736.88
550.68	35589.43
550.88	35427.64
551.08	35544.37
551.279	35876.15
551.479	35298.62
551.679	35517.75
551.879	35360.06
552.079	35634.49
552.278	35773.75
552.478	35517.75
552.678	35726.64
552.878	35925.3
553.077	35603.77
553.277	35355.96
553.477	35542.33
553.676	35458.36
553.876	35575.09
554.076	35521.85
554.275	35534.14
554.475	35024.19
554.674	35638.58
554.874	35478.84
555.074	35622.2
555.273	35695.92
555.473	35751.22
555.672	35208.51
555.872	35296.57
556.071	35310.91
556.271	35718.45
556.47	35054.91
556.67	34940.22
556.869	35345.72
557.068	35476.79
557.268	35108.16
557.467	35247.42
557.667	35165.5
557.866	35484.98
558.065	35349.82
558.265	35022.14
558.464	34678.08
558.663	35280.19
558.863	34659.65
559.062	35380.54
559.261	34579.78
559.461	34901.31
559.66	34676.04
559.859	34815.3
560.058	34788.67
560.258	34727.24
560.457	34671.94
560.656	34690.37
560.855	34512.2
561.054	34975.04
561.253	34317.64
561.453	34921.79
561.652	34676.04
561.851	34936.13
562.05	34579.78
562.249	34256.2
562.448	34434.38
562.647	34301.26
562.846	34032.97
563.045	34389.32
563.244	34194.76
563.443	34475.34
563.642	33815.89
563.841	33946.96
564.04	33942.86
564.239	34233.67
564.438	33809.75
564.637	33785.17
564.836	33957.2
565.035	33303.9
565.234	34092.37
565.432	33672.53
565.631	33301.85
565.83	33307.99
566.029	33420.63
566.228	33807.7
566.427	33504.6
566.625	33154.4
566.824	33052
567.023	33365.34
567.222	32808.29
567.42	33568.09
567.619	33174.88
567.818	33293.66
568.016	33035.61
568.215	33377.62
568.414	32798.05
568.612	33414.49
568.811	32654.69
569.01	32927.07
569.208	32572.77
569.407	32920.93
569.605	32396.65
569.804	32654.69
570.002	32347.5
570.201	32337.26
570.4	32157.03
570.598	32189.8
570.797	31804.78
570.995	32218.47
571.193	31663.47
571.392	32482.66
571.59	31733.11
571.789	32167.27
571.987	31987.05
572.186	31622.51
572.384	31569.27
572.582	31774.06
572.781	31591.8
572.979	31384.95
573.177	31368.57
573.376	31280.5
573.574	31245.69
573.772	31530.36
573.971	31247.74
574.169	30709.12
574.367	30854.53
574.565	31036.8
574.763	30651.78
574.962	30889.34
575.16	30705.02
575.358	31047.04
575.556	30432.64
575.754	30688.64
575.952	30627.2
576.151	30776.7
576.349	30653.83
576.547	30203.27
576.745	30598.53
576.943	30713.22
577.141	30221.7
577.339	30721.41
577.537	30315.91
577.735	29789.58
577.933	30010.76
578.131	30387.59
578.329	30184.84
578.527	29926.8
578.725	29953.42
578.923	30141.83
579.121	29506.96
579.319	29707.66
579.516	29648.27
579.714	29527.44
579.912	29658.51
580.11	29296.02
580.308	29343.13
580.506	29437.33
580.704	28997.02
580.901	29126.04
581.099	29314.45
581.297	28730.78
581.495	28872.09
581.692	28904.86
581.89	28999.07
582.088	28820.89
582.285	28612
582.483	28810.65
582.681	28491.17
582.878	28675.49
583.076	28540.32
583.274	28605.86
583.471	28007.85
583.669	28374.44
583.866	28032.43
584.064	28325.29
584.262	28093.86
584.459	28245.41
584.657	27680.17
584.854	28036.52
585.052	27504.05
585.249	27835.82
585.447	27739.57
585.644	27131.32
585.841	27243.96
586.039	27960.75
586.236	27444.66
586.434	27557.3
586.631	27172.28
586.828	27338.16
587.026	27182.52
587.223	27225.53
587.42	26858.94
587.618	27436.47
587.815	26719.68
588.012	26934.71
588.21	26781.12
588.407	26887.61
588.604	26645.95
588.801	26717.63
588.999	26809.79
589.196	26893.75
589.393	26686.91
589.59	26557.89
589.787	26228.17
589.984	26265.03
590.182	25933.26
590.379	26174.92
590.576	25710.03
590.773	25834.96
590.97	25736.65
591.167	25859.53
591.364	25501.14
591.561	25740.75
591.758	25458.13
591.955	25656.78
592.152	25660.88
592.349	25189.84
592.546	25333.2
592.743	25408.98
592.94	25052.63
593.137	24956.38
593.334	25458.13
593.531	25085.4
593.727	25322.96
593.924	25255.38
594.121	24770.01
594.318	24790.49
594.515	24358.37
594.712	24970.71
594.908	24712.67
595.105	24931.8
595.302	24366.56
595.499	24401.38
595.696	24700.38
595.892	24167.91
596.089	24444.38
596.286	24165.86
596.482	24413.66
596.679	24092.13
596.876	24319.46
597.072	24061.41
597.269	23961.06
597.466	23772.65
597.662	23598.57
597.859	23774.7
598.055	23578.09
598.252	23500.27
598.448	23305.71
598.645	23600.62
598.841	23299.57
599.038	23483.89
599.234	23569.9
599.431	23371.25
599.627	23158.26
599.824	23320.05
600.02	22957.56
600.217	23092.72
600.413	23129.59
600.609	22955.51
600.806	22986.23
601.002	23021.05
601.198	22773.24
601.395	22640.12
601.591	22756.86
601.787	22621.69
601.984	22480.38
602.18	22715.9
602.376	22248.96
602.572	22255.11
602.769	21984.77
602.965	22076.93
603.161	22042.12
603.357	21859.85
603.553	22001.16
603.75	22398.46
603.946	21865.99
604.142	22023.69
604.338	21884.42
604.534	21888.52
604.73	21511.69
604.926	21628.43
605.122	21677.58
605.318	21558.8
605.514	21458.45
605.71	21302.8
605.906	21310.99
606.102	21417.49
606.298	21423.63
606.494	21157.39
606.69	21134.87
606.886	21231.12
607.082	20794.9
607.278	21423.63
607.474	20739.61
607.67	20934.17
607.866	20602.39
608.062	21112.34
608.257	20735.51
608.453	21089.81
608.649	20778.52
608.845	20686.36
609.041	20395.55
609.236	20819.48
609.432	20647.45
609.628	20567.58
609.824	20477.47
610.019	20633.11
610.215	20448.8
610.411	20401.69
610.606	20246.05
610.802	20426.27
610.998	20401.69
611.193	20540.96
611.389	20366.88
611.584	19959.33
611.78	20170.27
611.976	20100.64
612.171	20084.26
612.367	20125.22
612.562	19924.52
612.758	19633.71
612.953	19879.46
613.149	20248.1
613.344	19873.32
613.539	20186.66
613.735	19877.41
613.93	20074.02
614.126	19752.49
614.321	19932.71
614.517	19781.16
614.712	19639.85
614.907	19566.12
615.103	20033.06
615.298	19584.55
615.493	20037.16
615.688	19508.78
615.884	19691.05
616.079	19170.86
616.274	19465.77
616.47	19502.64
616.665	19689
616.86	19324.46
617.055	19316.27
617.25	19306.03
617.445	19664.43
617.641	18875.96
617.836	19127.86
618.031	19000.88
618.226	19285.55
618.421	18941.49
618.616	19367.47
618.811	18761.27
619.006	19043.89
619.201	18753.08
619.396	18892.34
619.591	18636.34
619.786	18683.45
619.981	18638.39
620.176	18642.49
620.371	18425.4
620.566	18644.54
620.761	18380.35
620.956	18523.71
621.151	18267.71
621.346	18298.43
621.541	17718.85
621.735	18247.23
621.93	17759.81
622.125	17776.2
622.32	17784.39
622.515	17733.19
622.709	17466.95
622.904	17503.82
623.099	17731.14
623.294	17612.36
623.488	17202.77
623.683	17380.94
623.878	17065.55
624.072	17356.36
624.267	16860.76
624.462	16873.04
624.656	16643.67
624.851	16584.28
625.046	16424.54
625.24	16418.39
625.435	16291.42
625.629	16303.71
625.824	16334.43
626.018	16289.37
626.213	16029.28
626.407	15890.02
626.602	15613.54
626.796	15935.07
626.991	15697.51
627.185	15750.76
627.38	15545.96
627.574	15576.68
627.768	15294.06
627.963	15404.65
628.157	15228.52
628.352	15408.75
628.546	15107.69
628.74	14982.77
628.935	14999.15
629.129	14896.75
629.323	14720.63
629.517	14737.01
629.712	14448.25
629.906	14544.5
630.1	14526.07
630.294	14632.57
630.489	14669.43
630.683	14491.26
630.877	14126.72
631.071	13942.4
631.265	14278.27
631.459	14091.9
631.653	14071.42
631.848	13917.82
632.042	13704.84
632.236	14007.94
632.43	13520.52
632.624	13770.37
632.818	13586.05
633.012	13536.9
633.206	13518.47
633.4	13409.93
633.594	13278.86
633.788	13170.32
633.982	13522.57
634.176	13225.61
634.369	13248.14
634.563	12832.4
634.757	12809.87
634.951	12916.37
635.145	12826.26
635.339	12846.74
635.533	12566.17
635.726	12807.83
635.92	12527.25
636.114	12375.7
636.308	12586.65
636.501	12232.35
636.695	12367.51
636.889	12332.7
637.083	12267.16
637.276	12263.07
637.47	11970.21
637.664	11785.89
637.857	12080.8
638.051	12027.55
638.244	11902.62
638.438	11671.2
638.632	11699.87
638.825	11626.15
639.019	11572.9
639.212	11486.89
639.406	11597.48
639.599	11527.85
639.793	11441.83
639.986	11382.44
640.18	11253.42
640.373	11284.14
640.567	11128.49
640.76	11058.86
640.954	10911.41
641.147	10843.82
641.34	10884.78
641.534	10903.21
641.727	10780.34
641.92	10727.09
642.114	10778.29
642.307	10548.92
642.5	10766
642.694	10423.99
642.887	10413.75
643.08	10520.24
643.273	10411.7
643.467	10319.54
643.66	10149.56
643.853	10254.01
644.046	10233.53
644.239	10256.06
644.432	9959.1
644.626	10036.92
644.819	9973.44
645.012	10022.59
645.205	10034.88
645.398	9926.33
645.591	9785.02
645.784	10075.84
645.977	9774.78
646.17	9709.25
646.363	9567.94
646.556	9576.13
646.749	9623.23
646.942	9553.6
647.135	9445.06
647.328	9340.61
647.521	9539.27
647.714	9373.38
647.907	9402.05
648.099	9193.16
648.292	9264.84
648.485	9107.15
648.678	9000.65
648.871	9141.96
649.064	9121.48
649.256	9117.39
649.449	8926.93
649.642	8883.92
649.835	8810.19
650.027	8617.68
650.22	8873.68
650.413	8568.53
650.605	8877.77
650.798	8693.46
650.991	8478.42
651.183	8308.44
651.376	8621.78
651.568	8398.55
651.761	8464.08
651.954	8427.22
652.146	8406.74
652.339	8378.07
652.531	8140.51
652.724	8126.17
652.916	8011.48
653.109	8093.4
653.301	7960.28
653.494	7982.81
653.686	7894.75
653.879	8072.92
654.071	7991
654.263	7923.42
654.456	8021.72
654.648	7960.28
654.84	7552.74
655.033	7677.66
655.225	7632.61
655.417	7507.68
655.61	7626.46
655.802	7513.83
655.994	7585.51
656.186	7587.55
656.379	7491.3
656.571	7427.81
656.763	7388.9
656.955	7364.32
657.148	7397.09
657.34	7311.08
657.532	7241.45
657.724	7032.55
657.916	7206.63
658.108	7417.57
658.3	7114.47
658.492	7188.2
658.684	6948.59
658.876	6971.11
659.068	6913.77
659.26	7165.67
659.452	7053.03
659.644	6983.4
659.836	6813.42
660.028	6821.61
660.22	6688.5
660.412	6704.88
660.604	6680.3
660.796	6760.17
660.988	6672.11
661.18	6545.14
661.372	6512.37
661.563	6528.75
661.755	6549.23
661.947	6647.54
662.139	6485.75
662.331	6334.2
662.522	6477.55
662.714	6358.77
662.906	6192.89
663.097	6387.44
663.289	6272.76
663.481	6346.48
663.673	6061.82
663.864	6338.29
664.056	6188.79
664.247	6131.45
664.439	6131.45
664.631	6061.82
664.822	6018.81
665.014	6106.87
665.205	6090.49
665.397	6000.38
665.588	5953.27
665.78	5914.36
665.971	5805.82
666.163	5820.16
666.354	5996.28
666.546	5889.79
666.737	5646.08
666.929	5887.74
667.12	5719.81
667.311	5834.49
667.503	5652.22
667.694	5615.36
667.885	5748.48
668.077	5678.85
668.268	5543.68
668.459	5721.85
668.651	5607.17
668.842	5689.09
669.033	5508.87
669.224	5486.34
669.416	5465.86
669.607	5447.43
669.798	5377.8
669.989	5476.1
670.18	5416.71
670.371	5424.9
670.563	5197.57
670.754	5189.38
670.945	5170.95
671.136	5435.14
671.327	5244.68
671.518	5134.09
671.709	5168.9
671.9	5269.25
672.091	5170.95
672.282	5211.91
672.473	5193.48
672.664	5058.31
672.855	5066.5
673.046	5093.13
673.237	5201.67
673.428	5046.02
673.619	5056.26
673.809	4925.19
674	4992.78
674.191	5146.37
674.382	4843.28
674.573	4994.83
674.764	4955.91
674.954	5013.26
675.145	4966.15
675.336	4783.88
675.527	4808.46
675.717	4982.54
675.908	4728.59
676.099	4830.99
676.289	5058.31
676.48	4740.88
676.671	4810.51
676.861	4818.7
677.052	4669.2
677.243	4734.73
677.433	4814.6
677.624	4790.03
677.814	4638.48
678.005	4806.41
678.195	4757.26
678.386	4755.21
678.576	4687.63
678.767	4663.05
678.957	4648.72
679.148	4681.49
679.338	4685.58
679.529	4585.23
679.719	4642.57
679.909	4646.67
680.1	4638.48
680.29	4534.03
680.481	4560.66
680.671	4742.92
680.861	4486.93
681.052	4638.48
681.242	4620.05
681.432	4593.42
681.622	4548.37
681.813	4396.82
682.003	4458.26
682.193	4570.9
682.383	4394.77
682.573	4613.9
682.764	4564.75
682.954	4554.51
683.144	4458.26
683.334	4439.83
683.524	4439.83
683.714	4484.88
683.904	4374.29
684.094	4462.35
684.284	4325.14
684.474	4321.04
684.664	4345.62
684.854	4329.24
685.044	4443.92
685.234	4255.51
685.424	4261.65
685.614	4376.34
685.804	4400.91
685.994	4185.88
686.184	4175.64
686.374	4257.56
686.564	4185.88
686.753	4245.27
686.943	4275.99
687.133	4216.6
687.323	4036.38
687.513	4077.34
687.702	4220.69
687.892	4042.52
688.082	4114.2
688.272	4081.43
688.461	4067.1
688.651	4192.02
688.841	3979.03
689.03	3809.05
689.22	3893.02
689.41	3970.84
689.599	3983.13
689.789	3958.55
689.979	3923.74
690.168	3841.82
690.358	3927.83
690.547	3970.84
690.737	3796.76
690.926	3794.72
691.116	3731.23
691.305	3720.99
691.495	3669.79
691.684	3733.28
691.874	3718.94
692.063	3647.26
692.252	3770.14
692.442	3751.71
692.631	3745.56
692.82	3768.09
693.01	3585.82
693.199	3694.36
693.388	3448.61
693.578	3567.39
693.767	3639.07
693.956	3442.46
694.146	3444.51
694.335	3551.01
694.524	3563.29
694.713	3481.38
694.902	3440.42
695.092	3442.46
695.281	3428.13
695.47	3444.51
695.659	3352.35
695.848	3432.22
696.037	3536.67
696.226	3442.46
696.415	3290.92
696.604	3495.71
696.793	3411.75
696.982	3266.34
697.171	3362.59
697.36	3311.39
697.549	3274.53
697.738	3286.82
697.927	3227.43
698.116	3387.17
698.305	3178.28
698.494	3278.63
698.683	3342.11
698.872	3198.76
699.061	3209
699.25	3270.44
699.438	3327.78
699.627	3245.86
699.816	3292.96
700.005	3249.96
700.193	3311.39
700.382	3188.52
700.571	3088.17
700.76	3286.82
700.948	3145.51
701.137	3292.96
701.326	3086.12
701.514	3114.79
701.703	3233.57
701.892	3206.95
702.08	3196.71
702.269	3129.13
702.457	3184.42
702.646	3096.36
702.834	3086.12
703.023	3233.57
703.212	3235.62
703.4	3209
703.589	3020.58
703.777	3165.99
703.965	2998.06
704.154	3178.28
704.342	3172.13
704.531	3034.92
704.719	3098.41
704.907	3168.04
705.096	2953
705.284	3063.59
705.472	3092.26
705.661	3082.02
705.849	3053.35
706.037	3098.41
706.226	3084.07
706.414	3108.65
706.602	3106.6
706.79	3000.1
706.979	2944.81
707.167	3061.54
707.355	2975.53
707.543	3110.69
707.731	3112.74
707.919	3116.84
708.107	3159.85
708.296	3043.11
708.484	2989.86
708.672	3094.31
708.86	2942.76
709.048	3053.35
709.236	3032.87
709.424	3192.61
709.612	3100.45
709.8	3092.26
709.988	2928.42
710.176	2981.67
710.364	3010.34
710.551	3069.73
710.739	3000.1
710.927	3069.73
711.115	3192.61
711.303	3139.37
711.491	3028.78
711.679	3168.04
711.866	3202.85
712.054	3125.03
712.242	3063.59
712.43	3249.96
712.617	3016.49
712.805	3086.12
712.993	3057.45
713.181	2930.47
713.368	2959.14
713.556	3010.34
713.744	3045.16
713.931	3120.93
714.119	3100.45
714.306	2987.82
714.494	2989.86
714.682	2965.29
714.869	3059.49
715.057	3051.3
715.244	2950.95
715.432	3030.82
715.619	2912.04
715.807	3014.44
715.994	3024.68
716.182	2998.06
716.369	2973.48
716.556	3024.68
716.744	3073.83
716.931	2981.67
717.119	3000.1
717.306	3030.82
717.493	3034.92
717.681	2969.38
717.868	3043.11
718.055	3086.12
718.242	3030.82
718.43	3065.64
718.617	3133.22
718.804	3125.03
718.991	3034.92
719.179	3008.3
719.366	3041.06
719.553	3120.93
719.74	3012.39
719.927	3010.34
720.114	3028.78
720.301	2901.8
720.488	3039.01
720.676	3016.49
720.863	3036.97
721.05	3012.39
721.237	2981.67
721.424	3043.11
721.611	2957.1
721.798	2928.42
721.985	2959.14
722.172	2991.91
722.358	3051.3
722.545	2930.47
722.732	2963.24
722.919	3090.21
723.106	3100.45
723.293	3036.97
723.48	2983.72
723.667	3077.93
723.853	2928.42
724.04	3024.68
724.227	3073.83
724.414	2948.9
724.6	2877.23
724.787	3106.6
724.974	2932.52
725.161	3057.45
725.347	2918.18
725.534	2932.52
725.72	3004.2
725.907	2981.67
726.094	3053.35
726.28	2993.96
726.467	2989.86
726.653	3022.63
726.84	2918.18
727.027	2987.82
727.213	2934.57
727.4	3088.17
727.586	3102.5
727.773	2905.9
727.959	2991.91
728.145	2963.24
728.332	2889.51
728.518	2905.9
728.705	3010.34
728.891	2901.8
729.077	2969.38
729.264	3051.3
729.45	2940.71
729.636	2920.23
729.823	2944.81
730.009	3059.49
730.195	2912.04
730.382	3010.34
730.568	2909.99
730.754	3020.58
730.94	2920.23
731.126	3090.21
731.313	3063.59
731.499	3077.93
731.685	2928.42
731.871	2934.57
732.057	2932.52
732.243	3133.22
732.429	2912.04
732.615	2813.74
732.801	2959.14
732.987	2873.13
733.173	2912.04
733.359	2955.05
733.545	3057.45
733.731	2860.84
733.917	2977.58
734.103	3045.16
734.289	2944.81
734.475	2965.29
734.661	2944.81
734.847	2828.07
735.033	3043.11
735.219	2916.14
735.404	3067.69
735.59	2944.81
735.776	2840.36
735.962	2901.8
736.148	3036.97
736.333	2973.48
736.519	2733.87
736.705	2942.76
736.89	2985.77
737.076	2895.66
737.262	2973.48
737.447	2830.12
737.633	2887.47
737.819	2983.72
738.004	2864.94
738.19	2920.23
738.375	2887.47
738.561	2963.24
738.747	2793.26
738.932	2701.1
739.118	2928.42
739.303	2875.18
739.489	2899.75
739.674	2717.48
739.859	2852.65
740.045	2826.03
740.23	2789.16
740.416	2752.3
740.601	2826.03
740.786	2815.79
740.972	2783.02
741.157	2793.26
741.342	2668.33
741.528	2881.32
741.713	2815.79
741.898	2629.42
742.084	2742.06
742.269	2682.67
742.454	2717.48
742.639	2735.92
742.824	2592.56
743.01	2627.37
743.195	2654
743.38	2723.63
743.565	2682.67
743.75	2619.18
743.935	2606.89
744.12	2686.76
744.305	2627.37
744.49	2453.3
744.675	2543.41
744.86	2567.98
745.045	2432.82
745.23	2588.46
745.415	2527.02
745.6	2498.35
745.785	2432.82
745.97	2412.34
746.155	2475.82
746.34	2469.68
746.525	2510.64
746.71	2572.08
746.895	2500.4
747.079	2449.2
747.264	2346.8
747.449	2363.19
747.634	2311.99
747.819	2359.09
748.003	2309.94
748.188	2373.43
748.373	2402.1
748.557	2264.88
748.742	2180.92
748.927	2287.41
749.111	2273.07
749.296	2236.21
749.481	2332.47
749.665	2307.89
749.85	2217.78
750.034	2268.98
750.219	2139.96
750.404	2156.34
750.588	2168.63
750.773	2041.65
750.957	2094.9
751.141	2148.15
751.326	2187.06
751.51	2060.09
751.695	2133.81
751.879	2121.52
752.064	1963.83
752.248	2107.19
752.432	2115.38
752.617	2068.28
752.801	1883.96
752.985	1937.21
753.17	1986.36
753.354	1939.26
753.538	1906.49
753.722	1861.43
753.907	1838.91
754.091	1836.86
754.275	1810.23
754.459	1730.36
754.643	1851.19
754.828	1843
755.012	1853.24
755.196	1822.52
755.38	1746.75
755.564	1752.89
755.748	1679.16
755.932	1826.62
756.116	1752.89
756.3	1767.23
756.484	1677.12
756.668	1689.4
756.852	1642.3
757.036	1771.32
757.22	1699.64
757.404	1617.72
757.588	1574.72
757.772	1548.09
757.956	1650.49
758.14	1654.59
758.323	1644.35
758.507	1589.05
758.691	1548.09
758.875	1566.53
759.059	1468.22
759.242	1523.52
759.426	1539.9
759.61	1537.85
759.794	1500.99
759.977	1503.04
760.161	1478.46
760.345	1464.13
760.528	1488.7
760.712	1599.29
760.895	1380.16
761.079	1394.5
761.263	1435.46
761.446	1398.59
761.63	1435.46
761.813	1433.41
761.997	1451.84
762.18	1339.2
762.364	1374.02
762.547	1378.11
762.731	1341.25
762.914	1369.92
763.098	1380.16
763.281	1367.87
763.464	1382.21
763.648	1259.33
763.831	1374.02
764.015	1361.73
764.198	1290.05
764.381	1390.4
764.564	1337.15
764.748	1249.09
764.931	1290.05
765.114	1228.61
765.297	1306.43
765.481	1318.72
765.664	1189.7
765.847	1210.18
766.03	1247.04
766.213	1316.67
766.397	1163.08
766.58	1308.48
766.763	1214.27
766.946	1300.29
767.129	1204.03
767.312	1339.2
767.495	1236.8
767.678	1220.42
767.861	1218.37
768.044	1201.99
768.227	1267.52
768.41	1091.4
768.593	1165.12
768.776	1197.89
768.959	1097.54
769.142	1146.69
769.324	1105.73
769.507	1113.92
769.69	1099.59
769.873	1167.17
770.056	1124.16
770.239	1013.57
770.421	1115.97
770.604	1113.92
770.787	1072.96
770.97	1054.53
771.152	1050.44
771.335	1017.67
771.518	1034.05
771.7	1081.16
771.883	968.52
772.066	1034.05
772.248	1029.96
772.431	1130.31
772.613	1144.64
772.796	1032.01
772.978	1072.96
773.161	1091.4
773.343	1013.57
773.526	966.47
773.708	937.8
773.891	1027.91
774.073	913.22
774.256	923.46
774.438	941.89
774.621	968.52
774.803	943.94
774.985	952.13
775.168	919.37
775.35	831.3
775.532	898.89
775.715	1005.38
775.897	945.99
776.079	911.18
776.261	917.32
776.444	909.13
776.626	927.56
776.808	907.08
776.99	841.54
777.173	816.97
777.355	902.98
777.537	862.02
777.719	806.73
777.901	771.91
778.083	751.43
778.265	788.3
778.447	726.86
778.629	759.63
778.811	804.68
778.993	802.63
779.175	827.21
779.357	773.96
779.539	839.5
779.721	792.39
779.903	796.49
780.085	757.58
780.267	704.33
780.449	743.24
780.631	773.96
780.812	753.48
780.994	741.19
781.176	769.87
781.358	714.57
781.54	710.47
781.721	761.67
781.903	622.41
782.085	751.43
782.267	689.99
782.448	706.38
782.63	618.32
782.812	714.57
782.993	671.56
783.175	634.7
783.357	610.12
783.538	665.42
783.72	692.04
783.901	630.6
784.083	649.04
784.264	632.65
784.446	579.4
784.627	571.21
784.809	618.32
784.99	634.7
785.172	599.88
785.353	622.41
785.535	530.25
785.716	509.77
785.897	610.12
786.079	530.25
786.26	552.78
786.441	620.36
786.623	528.21
786.804	546.64
786.985	571.21
787.167	520.01
787.348	585.55
787.529	501.58
787.71	505.68
787.891	548.68
788.073	479.05
788.254	479.05
788.435	491.34
788.616	524.11
788.797	597.84
788.978	530.25
789.159	436.05
789.34	528.21
789.522	470.86
789.703	399.18
789.884	444.24
790.065	442.19
790.246	440.14
790.427	511.82
790.607	446.29
790.788	526.16
790.969	524.11
791.15	538.45
791.331	515.92
791.512	534.35
791.693	399.18
791.874	421.71
792.054	462.67
792.235	382.8
792.416	339.79
792.597	413.52
792.778	397.14
792.958	401.23
793.139	425.81
793.32	300.88
793.5	327.5
793.681	427.85
793.862	440.14
794.042	474.96
794.223	370.51
794.404	356.18
794.584	376.66
794.765	298.83
794.945	413.52
795.126	384.85
795.306	442.19
795.487	366.42
795.667	438.09
795.848	354.13
796.028	405.33
796.209	343.89
796.389	354.13
796.57	337.74
796.75	415.57
796.93	345.94
797.111	358.22
797.291	325.46
797.471	393.04
797.652	380.75
797.832	292.69
798.012	368.46
798.192	321.36
798.373	286.54
798.553	331.6
798.733	362.32
798.913	360.27
799.093	352.08
799.274	286.54
799.454	380.75
799.634	345.94
799.814	282.45
799.994	356.18
800.174	352.08
800.354	317.26
800.534	384.85
800.714	345.94
800.894	323.41
801.074	347.98
801.254	284.5
801.434	300.88
801.614	347.98
801.794	292.69
801.974	716.62
802.154	321.36
802.334	243.54
802.514	313.17
802.693	307.02
802.873	261.97
803.053	296.78
803.233	325.46
803.413	239.44
803.592	218.96
803.772	290.64
803.952	266.07
804.131	288.59
804.311	313.17
804.491	261.97
804.67	235.35
804.85	286.54
805.03	204.63
805.209	253.78
805.389	171.86
805.568	259.92
805.748	255.83
805.928	251.73
806.107	233.3
806.287	253.78
806.466	290.64
806.646	202.58
806.825	221.01
807.004	309.07
807.184	204.63
807.363	266.07
807.543	266.07
807.722	223.06
807.901	264.02
808.081	268.11
808.26	182.1
808.439	259.92
808.619	237.39
808.798	249.68
808.977	249.68
809.156	235.35
809.336	257.87
809.515	218.96
809.694	169.81
809.873	208.72
810.052	241.49
810.231	255.83
810.411	243.54
810.59	235.35
810.769	212.82
810.948	223.06
811.127	214.87
811.306	206.67
811.485	241.49
811.664	272.21
811.843	196.43
812.022	204.63
812.201	245.59
812.38	292.69
812.559	149.33
812.737	116.56
812.916	147.28
813.095	155.47
813.274	202.58
813.453	251.73
813.632	278.35
813.811	116.56
813.989	239.44
814.168	241.49
814.347	225.11
814.526	159.57
814.704	214.87
814.883	182.1
815.062	192.34
815.24	171.86
815.419	137.04
815.598	126.8
815.776	157.52
815.955	169.81
816.133	155.47
816.312	135
816.49	210.77
816.669	192.34
816.847	173.91
817.026	227.15
817.204	212.82
817.383	122.71
817.561	194.39
817.74	112.47
817.918	192.34
818.097	141.14
818.275	165.71
818.453	157.52
818.632	175.95
818.81	89.94
818.988	151.38
819.167	184.15
819.345	124.76
819.523	184.15
819.701	206.67
819.879	184.15
820.058	116.56
820.236	159.57
820.414	114.52
820.592	204.63
820.77	186.19
820.948	155.47
821.127	126.8
821.305	91.99
821.483	171.86
821.661	126.8
821.839	153.43
822.017	182.1
822.195	167.76
822.373	163.67
822.551	141.14
822.729	192.34
822.907	151.38
823.085	120.66
823.262	118.61
823.44	200.53
823.618	108.37
823.796	130.9
823.974	114.52
824.152	130.9
824.329	116.56
824.507	137.04
824.685	143.19
824.863	141.14
825.04	147.28
825.218	126.8
825.396	149.33
825.574	132.95
825.751	91.99
825.929	167.76
826.107	157.52
826.284	126.8
826.462	149.33
826.639	108.37
826.817	120.66
826.994	221.01
827.172	118.61
827.349	132.95
827.527	132.95
827.704	75.6
827.882	120.66
828.059	114.52
828.237	102.23
828.414	57.17
828.591	116.56
828.769	130.9
828.946	143.19
829.124	218.96
829.301	126.8
829.478	149.33
829.655	190.29
829.833	122.71
830.01	77.65
830.187	122.71
830.364	65.36
830.542	126.8
830.719	122.71
830.896	55.12
831.073	116.56
831.25	159.57
831.427	161.62
831.604	143.19
831.782	59.22
831.959	137.04
832.136	159.57
832.313	108.37
832.49	48.98
832.667	110.42
832.844	38.74
833.021	106.32
833.198	175.95
833.374	75.6
833.551	120.66
833.728	122.71
833.905	67.41
834.082	87.89
834.259	63.32
834.436	110.42
834.612	137.04
834.789	81.75
834.966	59.22
835.143	104.28
835.319	14.17
835.496	16.21
835.673	87.89
835.85	30.55
836.026	98.13
836.203	135
836.38	108.37
836.556	85.84
836.733	91.99
836.909	126.8
837.086	44.88
837.262	63.32
837.439	91.99
837.616	98.13
837.792	48.98
837.968	91.99
838.145	38.74
838.321	51.03
838.498	79.7
838.674	10.07
838.851	14.17
839.027	100.18
839.203	87.89
839.38	34.64
839.556	81.75
839.732	-30.89
839.909	110.42
840.085	75.6
840.261	139.09
840.437	91.99
840.614	110.42
840.79	89.94
840.966	130.9
841.142	-0.17
841.318	32.6
841.494	71.51
841.671	147.28
841.847	116.56
842.023	48.98
842.199	18.26
842.375	81.75
842.551	20.31
842.727	87.89
842.903	126.8
843.079	3.93
843.255	116.56
843.431	-4.27
843.607	26.45
843.783	32.6
843.959	102.23
844.134	32.6
844.31	116.56
844.486	-16.55
844.662	40.79
844.838	61.27
845.013	44.88
845.189	114.52
845.365	46.93
845.541	42.84
845.716	59.22
845.892	36.69
846.068	12.12
846.244	5.97
846.419	10.07
846.595	87.89
846.77	63.32
846.946	16.21
847.122	91.99
847.297	81.75
847.473	96.08
847.648	-0.17
847.824	71.51
847.999	-22.7
848.175	87.89
848.35	77.65
848.526	59.22
848.701	51.03
848.876	108.37
849.052	75.6
849.227	10.07
849.403	10.07
849.578	69.46
849.753	69.46
849.929	91.99
850.104	36.69
850.279	71.51
850.454	106.32
850.63	77.65
850.805	51.03
850.98	44.88
851.155	26.45
851.33	32.6
851.505	102.23
851.681	44.88
851.856	42.84
852.031	53.08
852.206	73.56
852.381	22.36
852.556	-30.89
852.731	42.84
852.906	30.55
853.081	1.88
853.256	40.79
853.431	-18.6
853.606	-4.27
853.781	-34.99
853.956	-34.99
854.131	12.12
854.305	53.08
854.48	44.88
854.655	26.45
854.83	18.26
855.005	28.5
855.18	5.97
855.354	40.79
855.529	104.28
855.704	57.17
855.879	53.08
856.053	48.98
856.228	51.03
856.403	10.07
856.577	38.74
856.752	53.08
856.926	59.22
857.101	-0.17
857.276	71.51
857.45	36.69
857.625	20.31
857.799	-39.08
857.974	26.45
858.148	-6.31
858.323	18.26
858.497	42.84
858.672	83.8
858.846	-8.36
859.02	118.61
859.195	-2.22
859.369	14.17
859.543	16.21
859.718	38.74
859.892	16.21
860.066	10.07
860.241	-20.65
860.415	14.17
860.589	20.31
860.763	38.74
860.938	55.12
861.112	59.22
861.286	65.36
861.46	71.51
861.634	32.6
861.808	85.84
861.982	22.36
862.157	65.36
862.331	-2.22
862.505	61.27
862.679	-14.51
862.853	16.21
863.027	-24.75
863.201	28.5
863.375	32.6
863.549	-90.28
863.722	28.5
863.896	34.64
864.07	-24.75
864.244	63.32
864.418	67.41
864.592	102.23
864.766	-0.17
864.939	-14.51
865.113	85.84
865.287	46.93
865.461	12.12
865.634	26.45
865.808	8.02
865.982	36.69
866.156	69.46
866.329	-49.32
866.503	-24.75
866.676	20.31
866.85	85.84
867.024	-8.36
867.197	59.22
867.371	63.32
867.544	34.64
867.718	38.74
867.891	24.4
868.065	-16.55
868.238	24.4
868.412	89.94
868.585	48.98
868.759	10.07
868.932	8.02
869.105	75.6
869.279	-45.23
869.452	14.17
869.625	-8.36
869.799	8.02
869.972	22.36
870.145	1.88
870.319	-12.46
870.492	-6.31
870.665	-41.13
870.838	26.45
871.011	-32.94
871.185	-18.6
871.358	59.22
871.531	42.84
871.704	73.56
871.877	-18.6
872.05	-4.27
872.223	24.4
872.396	-6.31
872.569	26.45
872.742	-30.89
872.915	-28.84
873.088	-34.99
873.261	-71.85
873.434	-24.75
873.607	-22.7
873.78	8.02
873.953	53.08
874.126	-41.13
874.299	48.98
874.471	-0.17
874.644	34.64
874.817	18.26
874.99	20.31
875.163	57.17
875.335	-2.22
875.508	26.45
875.681	34.64
875.853	-45.23
876.026	24.4
876.199	32.6
876.371	20.31
876.544	-65.71
876.717	53.08
876.889	-51.37
877.062	-123.05
877.234	-37.03
877.407	-30.89
877.579	-34.99
877.752	-0.17
877.924	10.07
878.097	96.08
878.269	-16.55
878.442	-32.94
878.614	24.4
878.786	10.07
878.959	-2.22
879.131	91.99
879.303	-61.61
879.476	-10.41
879.648	-73.9
879.82	61.27
879.993	-30.89
880.165	8.02
880.337	8.02
880.509	22.36
880.681	-53.42
880.854	12.12
881.026	48.98
881.198	18.26
881.37	36.69
881.542	12.12
881.714	3.93
881.886	-26.79
882.058	32.6
882.23	12.12
882.402	22.36
882.574	20.31
882.746	-45.23
882.918	30.55
883.09	-12.46
883.262	-49.32
883.434	-10.41
883.606	18.26
883.778	-4.27
883.95	28.5
884.122	14.17
884.293	-20.65
884.465	-34.99
884.637	42.84
884.809	-34.99
884.98	-20.65
885.152	61.27
885.324	38.74
885.496	-73.9
885.667	-14.51
885.839	48.98
886.011	40.79
886.182	1.88
886.354	34.64
886.525	53.08
886.697	28.5
886.869	65.36
887.04	53.08
887.212	12.12
887.383	16.21
887.555	59.22
887.726	-20.65
887.897	-28.84
888.069	-30.89
888.24	-86.19
888.412	5.97
888.583	-22.7
888.754	44.88
888.926	8.02
889.097	-4.27
889.268	26.45
889.44	8.02
889.611	-45.23
889.782	-30.89
889.953	-4.27
890.125	44.88
890.296	-47.27
890.467	46.93
890.638	-30.89
890.809	61.27
890.98	-18.6
891.151	59.22
891.323	94.04
891.494	8.02
891.665	3.93
891.836	24.4
892.007	12.12
892.178	16.21
892.349	16.21
892.52	63.32
892.691	73.56
892.862	-47.27
893.032	-24.75
893.203	14.17
893.374	16.21
893.545	71.51
893.716	16.21
893.887	67.41
894.057	12.12
894.228	-26.79
894.399	48.98
894.57	87.89
894.74	34.64
894.911	-14.51
895.082	-14.51
895.253	-6.31
895.423	12.12
895.594	34.64
895.764	-37.03
895.935	24.4
896.106	46.93
896.276	69.46
896.447	40.79
896.617	-20.65
896.788	-24.75
896.958	28.5
897.129	-8.36
897.299	-28.84
897.47	55.12
897.64	-12.46
897.81	-18.6
897.981	48.98
898.151	30.55
898.322	18.26
898.492	40.79
898.662	-24.75
898.832	-0.17
899.003	-16.55
899.173	-0.17
899.343	-22.7
899.513	-28.84
