Data from USB4F104151__59__12-27-38-172.txt Node

Date: Fri Mar 14 12:27:38 EDT 2025
User: louis
Spectrometer: USB4F10415
Trigger mode: 4
Integration Time (sec): 2.000000E-2
Scans to average: 1
Electric dark correction enabled: true
Nonlinearity correction enabled: false
Boxcar width: 0
XAxis mode: Wavelengths
Number of Pixels in Spectrum: 3648
>>>>>Begin Spectral Data<<<<<
178.204	-130.39
178.424	-130.39
178.644	-130.39
178.864	-122.2
179.084	-140.63
179.304	-50.52
179.524	-48.47
179.744	47.79
179.964	29.35
180.184	4.78
180.404	12.97
180.624	-62.8
180.844	31.4
181.064	-23.89
181.283	41.64
181.503	-19.8
181.723	37.55
181.943	-99.67
182.163	27.31
182.383	21.16
182.602	-32.08
182.822	74.41
183.042	43.69
183.262	29.35
183.482	25.26
183.701	-19.8
183.921	-13.65
184.141	21.16
184.361	0.68
184.58	-15.7
184.8	-23.89
185.02	-11.61
185.239	25.26
185.459	41.64
185.679	35.5
185.898	-21.84
186.118	-21.84
186.338	23.21
186.557	0.68
186.777	-19.8
186.997	-21.84
187.216	8.87
187.436	-25.94
187.655	25.26
187.875	-3.41
188.095	21.16
188.314	76.46
188.534	4.78
188.753	19.11
188.973	60.07
189.192	6.83
189.412	49.83
189.631	-17.75
189.851	-48.47
190.07	25.26
190.29	-62.8
190.509	55.98
190.729	6.83
190.948	62.12
191.168	101.03
191.387	74.41
191.607	-5.46
191.826	0.68
192.045	29.35
192.265	15.02
192.484	-7.51
192.704	31.4
192.923	-13.65
193.142	39.59
193.362	35.5
193.581	12.97
193.8	41.64
194.02	4.78
194.239	-32.08
194.458	-30.04
194.678	-15.7
194.897	60.07
195.116	-30.04
195.335	15.02
195.555	58.03
195.774	-17.75
195.993	47.79
196.212	8.87
196.432	8.87
196.651	51.88
196.87	-60.76
197.089	-30.04
197.308	-38.23
197.528	76.46
197.747	-15.7
197.966	-79.19
198.185	15.02
198.404	15.02
198.623	-48.47
198.842	-9.56
199.062	33.45
199.281	27.31
199.5	62.12
199.719	-42.32
199.938	-17.75
200.157	101.03
200.376	64.17
200.595	-1.37
200.814	-68.95
201.033	49.83
201.252	80.55
201.471	-36.18
201.69	84.65
201.909	70.31
202.128	17.07
202.347	55.98
202.566	27.31
202.785	-5.46
203.004	39.59
203.223	39.59
203.442	70.31
203.661	-40.28
203.879	17.07
204.098	17.07
204.317	47.79
204.536	49.83
204.755	4.78
204.974	66.22
205.193	15.02
205.411	72.36
205.63	17.07
205.849	-30.04
206.068	-17.75
206.287	-1.37
206.505	-40.28
206.724	6.83
206.943	33.45
207.162	17.07
207.381	19.11
207.599	49.83
207.818	-36.18
208.037	4.78
208.255	-38.23
208.474	15.02
208.693	27.31
208.911	8.87
209.13	47.79
209.349	-50.52
209.567	29.35
209.786	45.74
210.005	53.93
210.223	-75.09
210.442	4.78
210.661	-7.51
210.879	60.07
211.098	0.68
211.316	45.74
211.535	23.21
211.753	74.41
211.972	80.55
212.191	-11.61
212.409	39.59
212.628	4.78
212.846	33.45
213.065	15.02
213.283	51.88
213.502	-54.61
213.72	0.68
213.938	-30.04
214.157	-34.13
214.375	15.02
214.594	-42.32
214.812	17.07
215.031	80.55
215.249	-3.41
215.467	-5.46
215.686	19.11
215.904	53.93
216.122	-48.47
216.341	90.79
216.559	43.69
216.778	33.45
216.996	-9.56
217.214	-23.89
217.432	-3.41
217.651	55.98
217.869	12.97
218.087	51.88
218.306	27.31
218.524	-75.09
218.742	-13.65
218.96	21.16
219.179	70.31
219.397	27.31
219.615	-23.89
219.833	19.11
220.051	29.35
220.27	19.11
220.488	-9.56
220.706	6.83
220.924	15.02
221.142	8.87
221.36	-11.61
221.578	-40.28
221.796	-32.08
222.015	0.68
222.233	-15.7
222.451	-1.37
222.669	19.11
222.887	27.31
223.105	-38.23
223.323	25.26
223.541	37.55
223.759	27.31
223.977	-15.7
224.195	68.27
224.413	29.35
224.631	-15.7
224.849	53.93
225.067	15.02
225.285	2.73
225.503	-48.47
225.721	-7.51
225.939	-17.75
226.157	19.11
226.375	23.21
226.592	17.07
226.81	-9.56
227.028	49.83
227.246	33.45
227.464	39.59
227.682	35.5
227.9	19.11
228.117	35.5
228.335	31.4
228.553	6.83
228.771	-11.61
228.989	29.35
229.206	58.03
229.424	27.31
229.642	-71
229.86	25.26
230.077	39.59
230.295	-15.7
230.513	33.45
230.731	45.74
230.948	10.92
231.166	35.5
231.384	33.45
231.601	17.07
231.819	58.03
232.037	-13.65
232.254	27.31
232.472	-5.46
232.689	-27.99
232.907	-30.04
233.125	15.02
233.342	-5.46
233.56	-48.47
233.777	4.78
233.995	-17.75
234.213	78.51
234.43	-23.89
234.648	15.02
234.865	33.45
235.083	31.4
235.3	17.07
235.518	8.87
235.735	27.31
235.953	35.5
236.17	-32.08
236.388	0.68
236.605	60.07
236.822	17.07
237.04	25.26
237.257	41.64
237.475	-66.9
237.692	47.79
237.909	53.93
238.127	-42.32
238.344	45.74
238.562	-75.09
238.779	-71
238.996	-1.37
239.214	-13.65
239.431	-34.13
239.648	-9.56
239.865	2.73
240.083	-66.9
240.3	33.45
240.517	55.98
240.735	51.88
240.952	19.11
241.169	19.11
241.386	2.73
241.603	-9.56
241.821	4.78
242.038	66.22
242.255	29.35
242.472	-17.75
242.689	78.51
242.907	31.4
243.124	-34.13
243.341	12.97
243.558	6.83
243.775	27.31
243.992	-1.37
244.209	60.07
244.426	-64.85
244.643	-56.66
244.86	12.97
245.078	15.02
245.295	90.79
245.512	33.45
245.729	-64.85
245.946	-3.41
246.163	-30.04
246.38	45.74
246.597	-3.41
246.814	-1.37
247.031	70.31
247.248	-1.37
247.464	-13.65
247.681	31.4
247.898	60.07
248.115	53.93
248.332	-46.42
248.549	17.07
248.766	43.69
248.983	29.35
249.2	-42.32
249.417	55.98
249.633	-23.89
249.85	31.4
250.067	64.17
250.284	19.11
250.501	19.11
250.717	94.89
250.934	23.21
251.151	-3.41
251.368	-54.61
251.585	-32.08
251.801	49.83
252.018	12.97
252.235	72.36
252.451	10.92
252.668	-23.89
252.885	-21.84
253.102	-32.08
253.318	31.4
253.535	84.65
253.752	23.21
253.968	12.97
254.185	25.26
254.401	-85.33
254.618	12.97
254.835	10.92
255.051	8.87
255.268	10.92
255.484	-36.18
255.701	-9.56
255.917	47.79
256.134	-56.66
256.351	-13.65
256.567	70.31
256.784	6.83
257	8.87
257.217	19.11
257.433	-11.61
257.65	37.55
257.866	43.69
258.082	-32.08
258.299	-11.61
258.515	17.07
258.732	15.02
258.948	2.73
259.165	-38.23
259.381	21.16
259.597	-34.13
259.814	2.73
260.03	-1.37
260.246	-13.65
260.463	23.21
260.679	-13.65
260.895	70.31
261.112	8.87
261.328	31.4
261.544	-7.51
261.761	19.11
261.977	45.74
262.193	-1.37
262.409	0.68
262.626	58.03
262.842	-48.47
263.058	37.55
263.274	-21.84
263.49	8.87
263.707	-40.28
263.923	39.59
264.139	31.4
264.355	-11.61
264.571	60.07
264.787	107.18
265.004	33.45
265.22	15.02
265.436	27.31
265.652	-27.99
265.868	35.5
266.084	23.21
266.3	-27.99
266.516	45.74
266.732	49.83
266.948	35.5
267.164	-23.89
267.38	62.12
267.596	27.31
267.812	51.88
268.028	-5.46
268.244	4.78
268.46	6.83
268.676	29.35
268.892	60.07
269.108	6.83
269.324	-15.7
269.54	-9.56
269.756	-32.08
269.972	31.4
270.188	25.26
270.403	-56.66
270.619	-21.84
270.835	-1.37
271.051	15.02
271.267	-38.23
271.483	12.97
271.698	64.17
271.914	-60.76
272.13	-30.04
272.346	17.07
272.562	94.89
272.777	25.26
272.993	31.4
273.209	-42.32
273.425	62.12
273.64	19.11
273.856	17.07
274.072	-15.7
274.287	-11.61
274.503	55.98
274.719	29.35
274.934	-42.32
275.15	-15.7
275.366	-1.37
275.581	-23.89
275.797	10.92
276.012	-48.47
276.228	-3.41
276.444	-13.65
276.659	-34.13
276.875	-66.9
277.09	86.7
277.306	90.79
277.521	96.94
277.737	-34.13
277.952	-21.84
278.168	64.17
278.383	29.35
278.599	68.27
278.814	8.87
279.03	-101.72
279.245	51.88
279.461	17.07
279.676	51.88
279.892	-27.99
280.107	-23.89
280.322	15.02
280.538	47.79
280.753	-23.89
280.969	-17.75
281.184	23.21
281.399	33.45
281.615	27.31
281.83	39.59
282.045	-48.47
282.26	15.02
282.476	23.21
282.691	35.5
282.906	-1.37
283.122	-5.46
283.337	35.5
283.552	-25.94
283.767	10.92
283.983	51.88
284.198	2.73
284.413	21.16
284.628	-7.51
284.843	55.98
285.058	53.93
285.274	35.5
285.489	72.36
285.704	72.36
285.919	-48.47
286.134	-13.65
286.349	-7.51
286.564	35.5
286.779	25.26
286.995	6.83
287.21	-15.7
287.425	15.02
287.64	-21.84
287.855	62.12
288.07	-34.13
288.285	35.5
288.5	68.27
288.715	70.31
288.93	25.26
289.145	35.5
289.36	10.92
289.575	-3.41
289.79	8.87
290.004	119.46
290.219	23.21
290.434	-7.51
290.649	-56.66
290.864	21.16
291.079	-42.32
291.294	55.98
291.509	41.64
291.724	4.78
291.938	27.31
292.153	39.59
292.368	64.17
292.583	0.68
292.798	68.27
293.012	37.55
293.227	43.69
293.442	6.83
293.657	33.45
293.871	41.64
294.086	62.12
294.301	88.75
294.516	-1.37
294.73	-9.56
294.945	-79.19
295.16	-13.65
295.374	49.83
295.589	25.26
295.804	27.31
296.018	2.73
296.233	12.97
296.447	33.45
296.662	-13.65
296.877	-68.95
297.091	19.11
297.306	-54.61
297.52	-19.8
297.735	-50.52
297.949	-58.71
298.164	55.98
298.378	2.73
298.593	-34.13
298.807	-44.37
299.022	45.74
299.236	21.16
299.451	-40.28
299.665	23.21
299.88	10.92
300.094	6.83
300.309	64.17
300.523	70.31
300.737	4.78
300.952	-25.94
301.166	41.64
301.381	62.12
301.595	17.07
301.809	39.59
302.024	15.02
302.238	17.07
302.452	60.07
302.667	-54.61
302.881	29.35
303.095	33.45
303.309	10.92
303.524	49.83
303.738	62.12
303.952	-19.8
304.166	15.02
304.381	-60.76
304.595	127.66
304.809	29.35
305.023	35.5
305.237	8.87
305.452	70.31
305.666	-17.75
305.88	60.07
306.094	-3.41
306.308	17.07
306.522	31.4
306.736	49.83
306.95	29.35
307.164	0.68
307.379	-15.7
307.593	72.36
307.807	58.03
308.021	29.35
308.235	-48.47
308.449	-42.32
308.663	53.93
308.877	33.45
309.091	15.02
309.305	92.84
309.519	10.92
309.733	78.51
309.947	37.55
310.161	-19.8
310.374	6.83
310.588	98.99
310.802	-13.65
311.016	-25.94
311.23	12.97
311.444	51.88
311.658	-21.84
311.872	17.07
312.085	74.41
312.299	15.02
312.513	53.93
312.727	41.64
312.941	39.59
313.154	51.88
313.368	39.59
313.582	29.35
313.796	35.5
314.009	15.02
314.223	39.59
314.437	2.73
314.651	76.46
314.864	-50.52
315.078	-25.94
315.292	-3.41
315.505	8.87
315.719	-30.04
315.933	-9.56
316.146	19.11
316.36	-9.56
316.573	29.35
316.787	-27.99
317.001	74.41
317.214	43.69
317.428	-3.41
317.641	21.16
317.855	-81.24
318.068	10.92
318.282	-27.99
318.495	86.7
318.709	-9.56
318.922	-27.99
319.136	119.46
319.349	21.16
319.563	31.4
319.776	41.64
319.99	-38.23
320.203	55.98
320.417	-32.08
320.63	27.31
320.843	94.89
321.057	51.88
321.27	21.16
321.483	39.59
321.697	15.02
321.91	74.41
322.124	94.89
322.337	43.69
322.55	25.26
322.763	4.78
322.977	27.31
323.19	60.07
323.403	-32.08
323.617	-17.75
323.83	12.97
324.043	-21.84
324.256	43.69
324.469	-1.37
324.683	41.64
324.896	17.07
325.109	25.26
325.322	2.73
325.535	17.07
325.748	70.31
325.962	62.12
326.175	-17.75
326.388	-9.56
326.601	4.78
326.814	76.46
327.027	17.07
327.24	31.4
327.453	4.78
327.666	47.79
327.879	31.4
328.092	6.83
328.305	6.83
328.518	21.16
328.731	23.21
328.944	21.16
329.157	74.41
329.37	70.31
329.583	33.45
329.796	103.08
330.009	37.55
330.222	101.03
330.435	-36.18
330.648	90.79
330.861	-3.41
331.073	33.45
331.286	-13.65
331.499	12.97
331.712	49.83
331.925	33.45
332.138	35.5
332.35	51.88
332.563	45.74
332.776	-30.04
332.989	0.68
333.202	19.11
333.414	21.16
333.627	68.27
333.84	12.97
334.053	31.4
334.265	39.59
334.478	-15.7
334.691	-38.23
334.903	90.79
335.116	-3.41
335.329	-40.28
335.541	2.73
335.754	35.5
335.966	-5.46
336.179	51.88
336.392	51.88
336.604	76.46
336.817	90.79
337.029	66.22
337.242	55.98
337.454	-15.7
337.667	12.97
337.88	41.64
338.092	62.12
338.305	33.45
338.517	-81.24
338.729	58.03
338.942	78.51
339.154	29.35
339.367	-40.28
339.579	68.27
339.792	19.11
340.004	64.17
340.217	51.88
340.429	62.12
340.641	-36.18
340.854	-23.89
341.066	-30.04
341.278	2.73
341.491	21.16
341.703	-40.28
341.915	15.02
342.128	53.93
342.34	27.31
342.552	37.55
342.764	17.07
342.977	-34.13
343.189	76.46
343.401	35.5
343.613	25.26
343.826	72.36
344.038	43.69
344.25	-5.46
344.462	58.03
344.674	-21.84
344.886	-32.08
345.099	51.88
345.311	2.73
345.523	-30.04
345.735	-17.75
345.947	-1.37
346.159	29.35
346.371	21.16
346.583	-13.65
346.795	19.11
347.007	-38.23
347.219	8.87
347.431	-23.89
347.643	92.84
347.855	15.02
348.067	25.26
348.279	8.87
348.491	49.83
348.703	62.12
348.915	0.68
349.127	4.78
349.339	29.35
349.551	-36.18
349.763	2.73
349.975	6.83
350.187	-11.61
350.399	51.88
350.61	58.03
350.822	4.78
351.034	74.41
351.246	37.55
351.458	111.27
351.669	49.83
351.881	10.92
352.093	-15.7
352.305	39.59
352.517	2.73
352.728	84.65
352.94	107.18
353.152	-27.99
353.363	-30.04
353.575	25.26
353.787	68.27
353.999	121.51
354.21	66.22
354.422	0.68
354.633	49.83
354.845	35.5
355.057	47.79
355.268	-3.41
355.48	19.11
355.692	41.64
355.903	-11.61
356.115	23.21
356.326	12.97
356.538	62.12
356.749	64.17
356.961	6.83
357.172	111.27
357.384	45.74
357.595	74.41
357.807	-11.61
358.018	117.42
358.23	33.45
358.441	86.7
358.653	88.75
358.864	29.35
359.075	4.78
359.287	31.4
359.498	74.41
359.709	58.03
359.921	2.73
360.132	4.78
360.344	6.83
360.555	-40.28
360.766	-19.8
360.977	-40.28
361.189	-34.13
361.4	41.64
361.611	68.27
361.823	21.16
362.034	25.26
362.245	43.69
362.456	66.22
362.667	58.03
362.879	8.87
363.09	47.79
363.301	-38.23
363.512	43.69
363.723	35.5
363.935	33.45
364.146	-23.89
364.357	6.83
364.568	88.75
364.779	0.68
364.99	98.99
365.201	-9.56
365.412	33.45
365.623	15.02
365.834	-34.13
366.045	25.26
366.256	55.98
366.467	68.27
366.678	37.55
366.889	82.6
367.1	0.68
367.311	17.07
367.522	17.07
367.733	35.5
367.944	72.36
368.155	-32.08
368.366	-23.89
368.577	82.6
368.788	35.5
368.999	35.5
369.209	4.78
369.42	47.79
369.631	51.88
369.842	15.02
370.053	0.68
370.264	51.88
370.474	29.35
370.685	72.36
370.896	-7.51
371.107	74.41
371.317	-9.56
371.528	51.88
371.739	-23.89
371.95	17.07
372.16	-17.75
372.371	-3.41
372.582	19.11
372.792	8.87
373.003	-19.8
373.214	92.84
373.424	25.26
373.635	-5.46
373.846	64.17
374.056	88.75
374.267	-34.13
374.477	62.12
374.688	-34.13
374.898	39.59
375.109	35.5
375.319	109.23
375.53	-27.99
375.74	4.78
375.951	45.74
376.161	19.11
376.372	51.88
376.582	17.07
376.793	103.08
377.003	29.35
377.214	41.64
377.424	37.55
377.635	49.83
377.845	0.68
378.055	35.5
378.266	12.97
378.476	27.31
378.686	15.02
378.897	0.68
379.107	41.64
379.317	19.11
379.528	-1.37
379.738	60.07
379.948	8.87
380.158	23.21
380.369	43.69
380.579	70.31
380.789	-11.61
380.999	17.07
381.21	119.46
381.42	103.08
381.63	53.93
381.84	80.55
382.05	109.23
382.261	74.41
382.471	82.6
382.681	41.64
382.891	55.98
383.101	6.83
383.311	4.78
383.521	4.78
383.731	58.03
383.941	82.6
384.151	58.03
384.361	45.74
384.571	-21.84
384.781	41.64
384.991	70.31
385.201	68.27
385.411	111.27
385.621	51.88
385.831	41.64
386.041	78.51
386.251	58.03
386.461	55.98
386.671	8.87
386.881	70.31
387.091	-23.89
387.301	98.99
387.511	25.26
387.72	72.36
387.93	107.18
388.14	12.97
388.35	-42.32
388.56	92.84
388.769	19.11
388.979	88.75
389.189	15.02
389.399	-21.84
389.609	64.17
389.818	55.98
390.028	84.65
390.238	27.31
390.447	25.26
390.657	49.83
390.867	62.12
391.076	88.75
391.286	74.41
391.496	25.26
391.705	64.17
391.915	103.08
392.125	31.4
392.334	51.88
392.544	72.36
392.753	101.03
392.963	129.7
393.172	15.02
393.382	55.98
393.591	103.08
393.801	10.92
394.01	107.18
394.22	45.74
394.429	74.41
394.639	47.79
394.848	94.89
395.058	-1.37
395.267	2.73
395.477	45.74
395.686	96.94
395.895	117.42
396.105	80.55
396.314	84.65
396.524	62.12
396.733	60.07
396.942	82.6
397.152	66.22
397.361	66.22
397.57	6.83
397.78	43.69
397.989	25.26
398.198	68.27
398.407	70.31
398.617	88.75
398.826	105.13
399.035	92.84
399.244	148.14
399.453	111.27
399.663	139.94
399.872	123.56
400.081	4.78
400.29	121.51
400.499	98.99
400.708	146.09
400.917	84.65
401.127	94.89
401.336	115.37
401.545	105.13
401.754	154.28
401.963	58.03
402.172	125.61
402.381	152.23
402.59	144.04
402.799	109.23
403.008	86.7
403.217	127.66
403.426	148.14
403.635	88.75
403.844	113.32
404.053	141.99
404.262	78.51
404.471	107.18
404.68	88.75
404.888	109.23
405.097	115.37
405.306	41.64
405.515	182.95
405.724	133.8
405.933	144.04
406.142	144.04
406.35	178.86
406.559	203.43
406.768	119.46
406.977	166.57
407.185	211.62
407.394	211.62
407.603	141.99
407.812	209.58
408.02	203.43
408.229	133.8
408.438	187.05
408.646	217.77
408.855	189.1
409.064	242.34
409.272	199.34
409.481	236.2
409.69	211.62
409.898	219.82
410.107	248.49
410.315	314.02
410.524	256.68
410.733	219.82
410.941	305.83
411.15	287.4
411.358	338.6
411.567	330.41
411.775	314.02
411.984	371.37
412.192	309.93
412.401	371.37
412.609	447.14
412.818	481.96
413.026	397.99
413.234	391.84
413.443	471.72
413.651	492.2
413.86	502.44
414.068	551.59
414.276	578.21
414.485	516.77
414.693	555.68
414.901	645.79
415.11	627.36
415.318	707.23
415.526	656.03
415.734	721.57
415.943	664.22
416.151	774.81
416.359	780.96
416.567	834.21
416.776	828.06
416.984	834.21
417.192	905.88
417.4	938.65
417.608	866.97
417.817	887.45
418.025	866.97
418.233	965.28
418.441	1032.86
418.649	1096.35
418.857	1122.97
419.065	1096.35
419.273	1036.95
419.481	1245.85
419.689	1241.75
419.897	1325.72
420.105	1440.4
420.313	1387.16
420.521	1565.33
420.729	1479.32
420.937	1460.88
421.145	1579.67
421.353	1702.54
421.561	1784.46
421.769	1725.07
421.977	1782.42
422.185	1806.99
422.393	1909.39
422.601	2120.33
422.809	2105.99
423.017	2003.6
423.224	2171.53
423.432	2157.19
423.64	2210.44
423.848	2323.08
424.056	2407.05
424.263	2484.87
424.471	2501.25
424.679	2581.12
424.887	2773.63
425.094	2775.68
425.302	2835.07
425.51	2863.74
425.718	3168.89
425.925	3089.02
426.133	3179.13
426.341	3418.74
426.548	3455.61
426.756	3410.55
426.964	3627.64
427.171	3576.44
427.379	3875.44
427.586	3773.04
427.794	4043.37
428.001	4131.44
428.209	4342.38
428.417	4272.75
428.624	4553.32
428.832	4528.74
429.039	4639.33
429.247	4590.18
429.454	5059.17
429.662	5309.02
429.869	5063.26
430.076	5479
430.284	5259.87
430.491	5499.48
430.699	5859.92
430.906	5751.38
431.114	5841.49
431.321	6191.69
431.528	6240.84
431.736	6482.5
431.943	6939.2
432.15	6750.79
432.358	6810.18
432.565	7422.52
432.772	7133.76
432.979	7547.45
433.187	7422.52
433.394	7739.96
433.601	8284.72
433.808	8133.17
434.016	8284.72
434.223	8614.44
434.43	9177.63
434.637	8759.85
434.844	9294.36
435.052	9718.29
435.259	9435.67
435.466	9542.17
435.673	9413.15
435.88	10304.01
436.087	10656.26
436.294	10734.09
436.501	10439.18
436.708	10580.49
436.915	11348.48
437.122	11364.86
437.329	11346.43
437.537	11872.76
437.743	12040.69
437.95	11964.92
438.157	12599.79
438.364	12890.6
438.571	13070.82
438.778	12913.13
438.985	14227.92
439.192	13728.22
439.399	14240.21
439.606	13922.77
439.813	14903.75
440.02	15598.01
440.227	15303.11
440.433	15151.56
440.64	15610.3
440.847	15622.59
441.054	16064.95
441.261	16869.8
441.467	16613.81
441.674	17115.56
441.881	17856.92
442.088	17822.11
442.294	17674.65
442.501	18084.25
442.708	18536.85
442.914	19120.52
443.121	19913.08
443.328	19470.72
443.534	20840.81
443.741	20134.26
443.948	20093.3
444.154	21367.14
444.361	21246.31
444.568	21465.44
444.774	21334.37
444.981	21418.34
445.187	22370.65
445.394	23480.64
445.6	22872.4
445.807	25057.58
446.013	24105.27
446.22	24279.35
446.426	25542.95
446.633	25702.69
446.839	26765.59
447.046	25708.83
447.252	26784.02
447.459	26910.99
447.665	26700.05
447.871	28231.93
448.078	29513.96
448.284	28029.18
448.491	28786.93
448.697	29790.44
448.903	30200.03
449.11	30417.11
449.316	29800.68
449.522	30578.9
449.728	31559.88
449.935	31496.39
450.141	31316.17
450.347	32489.66
450.553	31047.89
450.76	31785.16
450.966	32643.26
451.172	32538.81
451.378	33605.8
451.584	32493.75
451.791	33530.03
451.997	33161.39
452.203	33579.18
452.409	33869.99
452.615	33423.53
452.821	32518.33
453.027	32184.51
453.233	33779.88
453.44	32327.87
453.646	32907.44
453.852	33013.94
454.058	33382.57
454.264	32876.72
454.47	32968.88
454.676	32331.97
454.882	33734.82
455.088	30613.72
455.294	30914.77
455.5	31707.33
455.705	31793.35
455.911	31004.88
456.117	30238.94
456.323	29698.28
456.529	28231.93
456.735	29481.19
456.941	28578.04
457.147	28125.44
457.352	27357.45
457.558	27158.8
457.764	27005.2
457.97	26337.56
458.176	25774.37
458.381	25755.94
458.587	24738.1
458.793	24707.38
458.999	23271.75
459.204	25121.07
459.41	24232.25
459.616	22839.63
459.821	22917.45
460.027	22485.33
460.233	22065.5
460.438	21047.66
460.644	21510.5
460.85	20332.92
461.055	20003.19
461.261	19976.57
461.466	18516.37
461.672	17877.4
461.878	19175.81
462.083	17621.41
462.289	17686.94
462.494	17562.01
462.7	16748.97
462.905	16423.34
463.111	16953.77
463.316	16619.95
463.522	16527.79
463.727	16574.89
463.932	16607.66
464.138	16279.99
464.343	16470.45
464.549	15972.79
464.754	16511.41
464.959	16175.54
465.165	16136.63
465.37	15458.75
465.575	15184.32
465.781	15854.01
465.986	15882.68
466.191	15106.5
466.397	14963.14
466.602	14189.01
466.807	14744.01
467.012	14639.56
467.218	14571.98
467.423	14418.38
467.628	14684.62
467.833	14967.24
468.038	14604.75
468.244	14062.04
468.449	14715.34
468.654	14266.83
468.859	14141.91
469.064	14084.56
469.269	13439.45
469.474	13738.46
469.679	13984.21
469.885	13613.53
470.09	13726.17
470.295	13414.88
470.5	13240.8
470.705	13318.62
470.91	13130.21
471.115	13007.33
471.32	13068.77
471.525	12982.76
471.73	12777.96
471.935	12511.72
472.139	12595.69
472.344	12481
472.549	12372.46
472.754	12093.94
472.959	12032.5
473.164	11733.5
473.369	11692.54
473.574	12110.32
473.778	11805.17
473.983	11610.62
474.188	11696.63
474.393	11190.78
474.598	11305.47
474.802	10940.93
475.007	11055.62
475.212	11149.82
475.417	10603.02
475.621	10799.62
475.826	10449.42
476.031	10467.85
476.235	10222.09
476.44	10426.89
476.645	10277.39
476.849	10365.45
477.054	10177.04
477.259	10258.96
477.463	9978.39
477.668	9755.16
477.872	9867.8
478.077	9607.7
478.282	9318.94
478.486	9450.01
478.691	9331.23
478.895	9386.52
479.1	9400.86
479.304	9251.36
479.509	8745.51
479.713	9177.63
479.918	8858.15
480.122	8923.68
480.326	8868.39
480.531	8913.44
480.735	8706.6
480.94	8698.41
481.144	8901.15
481.348	8813.09
481.553	8792.61
481.757	8600.1
481.961	8630.82
482.166	8817.19
482.37	8571.43
482.574	8438.31
482.778	8499.75
482.983	8768.04
483.187	8614.44
483.391	8686.12
483.595	8567.34
483.8	8596.01
484.004	8505.9
484.208	8587.82
484.412	8393.26
484.616	8503.85
484.821	8563.24
485.025	8413.74
485.229	8612.39
485.433	8569.38
485.637	8514.09
485.841	8608.3
486.045	8477.23
486.249	8591.91
486.453	8548.9
486.657	8555.05
486.861	8454.7
487.065	8237.61
487.269	8522.28
487.473	8278.57
487.677	8565.29
487.881	8606.25
488.085	8526.38
488.289	8499.75
488.493	8559.14
488.697	8673.83
488.901	8557.1
489.105	8663.59
489.309	8702.5
489.512	8573.48
489.716	8550.95
489.92	8796.71
490.124	8602.15
490.328	8710.69
490.531	8671.78
490.735	8593.96
490.939	8788.52
491.143	8806.95
491.346	8921.63
491.55	8874.53
491.754	8995.36
491.958	9206.3
492.161	8972.83
492.365	9036.32
492.569	8995.36
492.772	9079.33
492.976	9032.22
493.18	9253.41
493.383	9277.98
493.587	9277.98
493.79	9247.26
493.994	9341.47
494.197	9312.8
494.401	9663
494.605	9480.73
494.808	9525.79
495.012	9640.47
495.215	9556.5
495.419	9781.78
495.622	9759.25
495.825	9843.22
496.029	9927.19
496.232	10129.94
496.436	9994.77
496.639	10459.66
496.843	10160.66
497.046	10500.62
497.249	10580.49
497.453	10641.93
497.656	10703.37
497.859	10729.99
498.063	10805.77
498.266	11065.86
498.469	11231.74
498.673	11112.96
498.876	11366.91
499.079	11459.07
499.282	11201.02
499.485	11733.5
499.689	11770.36
499.892	12071.41
500.095	12040.69
500.298	12161.52
500.501	12134.9
500.705	12337.65
500.908	12734.95
501.111	12775.91
501.314	12857.83
501.517	12884.45
501.72	13244.9
501.923	12978.66
502.126	13566.43
502.329	13552.09
502.532	13765.08
502.735	13824.47
502.938	14152.15
503.141	14107.09
503.344	14422.48
503.547	14367.18
503.75	14541.26
503.953	14950.85
504.156	14789.07
504.359	14963.14
504.562	15022.53
504.765	15260.1
504.968	15727.03
505.17	15634.88
505.373	15610.3
505.576	16101.81
505.779	16011.7
505.982	16322.99
506.185	16529.84
506.387	16744.88
506.59	16642.48
506.793	16994.73
506.996	17033.64
507.198	17602.97
507.401	17498.53
507.604	17609.12
507.807	18002.33
508.009	17938.84
508.212	18274.71
508.415	18471.31
508.617	18426.26
508.82	18407.83
509.022	18901.39
509.225	19190.15
509.428	19624.32
509.63	19532.16
509.833	19689.85
510.035	19718.53
510.238	20062.58
510.44	20281.72
510.643	20474.23
510.845	20789.61
511.048	20425.08
511.25	21068.14
511.453	20621.68
511.655	21993.82
511.858	21483.87
512.06	21655.9
512.262	21905.76
512.465	21664.1
512.667	22358.36
512.87	22399.32
513.072	22612.31
513.274	23077.19
513.477	23208.26
513.679	23281.99
513.881	23462.21
514.084	23808.32
514.286	23810.37
514.488	24074.56
514.69	24428.85
514.893	24445.24
515.095	24662.32
515.297	25264.43
515.499	25004.33
515.701	25401.64
515.904	25680.16
516.106	25999.65
516.308	26149.15
516.51	26100
516.712	26372.38
516.914	26659.09
517.116	27353.35
517.318	27015.44
517.52	27199.76
517.722	27455.75
517.925	27533.57
518.127	27842.82
518.329	28209.4
518.531	28092.67
518.733	28655.86
518.935	28838.13
519.136	28735.73
519.338	29473
519.54	29427.95
519.742	29782.24
519.944	29618.41
520.146	30480.6
520.348	30585.05
520.55	30773.46
520.752	30580.95
520.954	31336.65
521.155	30748.89
521.357	31654.09
521.559	31611.08
521.761	32340.16
521.963	32295.1
522.164	32219.33
522.366	32096.45
522.568	32458.94
522.77	32530.62
522.971	33147.06
523.173	33495.21
523.375	33349.81
523.576	33620.14
523.778	33349.81
523.98	33708.2
524.181	34111.65
524.383	34164.9
524.584	34580.64
524.786	34564.25
524.988	34529.44
525.189	35031.19
525.391	35016.85
525.592	35043.48
525.794	35215.51
525.995	35291.28
526.197	35606.67
526.398	35633.29
526.6	35799.18
526.801	35952.77
527.003	35975.3
527.204	35948.68
527.406	36429.95
527.607	36614.27
527.808	36720.76
528.01	36149.38
528.211	36898.94
528.412	37484.65
528.614	37273.71
528.815	37097.59
529.016	37351.54
529.218	36579.45
529.419	37337.2
529.62	37492.85
529.822	37189.75
530.023	37441.65
530.224	37716.08
530.425	37300.34
530.626	37533.81
530.828	36991.09
531.029	38273.12
531.23	37617.77
531.431	37738.6
531.632	37836.91
531.833	38023.27
532.035	37453.94
532.236	37972.07
532.437	38189.16
532.638	37736.55
532.839	38193.25
533.04	38002.79
533.241	37773.42
533.442	38525.02
533.643	38201.44
533.844	38479.97
534.045	38109.29
534.246	37681.26
534.447	38396
534.648	38017.13
534.849	38488.16
535.05	38170.72
535.251	38309.99
535.451	38336.61
535.652	38307.94
535.853	38551.65
536.054	38715.48
536.255	38602.85
536.456	38223.97
536.657	39092.31
536.857	38275.17
537.058	38572.13
537.259	38641.76
537.46	38821.98
537.66	38498.4
537.861	38266.98
538.062	38473.82
538.263	38520.93
538.463	38203.49
538.664	38121.57
538.865	38551.65
539.065	38826.07
539.266	38170.72
539.466	38535.26
539.667	38097
539.868	38850.65
540.068	38316.13
540.269	38260.83
540.469	38723.68
540.67	38090.85
540.87	38461.54
541.071	38428.77
541.271	38674.52
541.472	38318.18
541.672	38285.41
541.873	38183.01
542.073	38303.84
542.274	38340.71
542.474	38365.28
542.675	38420.58
542.875	38535.26
543.075	38244.45
543.276	38324.32
543.476	38738.01
543.676	38172.77
543.877	38436.96
544.077	38029.41
544.277	38180.96
544.478	38025.32
544.678	38359.14
544.878	38215.78
545.078	38479.97
545.279	37640.3
545.479	38035.56
545.679	38494.3
545.879	38312.03
546.079	37931.11
546.28	37963.88
546.48	38162.53
546.68	37843.05
546.88	38336.61
547.08	38203.49
547.28	37824.62
547.48	38123.62
547.68	38187.11
547.88	37922.92
548.081	38072.42
548.281	38359.14
548.481	37490.8
548.681	38375.52
548.881	37716.08
549.081	37922.92
549.28	37980.26
549.48	38412.38
549.68	37990.5
549.88	38223.97
550.08	37976.17
550.28	38180.96
550.48	37996.65
550.68	38178.92
550.88	38334.56
551.08	38158.44
551.279	38131.81
551.479	38037.61
551.679	37855.34
551.879	37963.88
552.079	37970.02
552.278	37726.32
552.478	37998.69
552.678	37986.41
552.878	37976.17
553.077	37986.41
553.277	37398.64
553.477	38340.71
553.676	38076.52
553.876	37857.39
554.076	37849.19
554.275	37851.24
554.475	37390.45
554.674	37953.64
554.874	37757.03
555.074	37552.24
555.273	37640.3
555.473	37908.58
555.672	37265.52
555.872	37199.99
556.071	37800.04
556.271	37656.68
556.47	37490.8
556.67	37191.8
556.869	37357.68
557.068	37423.22
557.268	37472.37
557.467	37255.28
557.667	37292.15
557.866	37382.26
558.065	37175.41
558.265	36851.83
558.464	36943.99
558.663	37271.67
558.863	36630.65
559.062	37515.37
559.261	36677.75
559.461	37191.8
559.66	36587.64
559.859	37042.29
560.058	36618.36
560.258	36755.58
560.457	36792.44
560.656	36661.37
560.855	36089.99
561.054	36579.45
561.253	36468.86
561.453	36755.58
561.652	36640.89
561.851	36626.56
562.05	36391.04
562.249	36255.87
562.448	36259.97
562.647	36647.04
562.846	36466.81
563.045	36118.66
563.244	35960.97
563.443	36323.46
563.642	35973.25
563.841	35762.31
564.04	35846.28
564.239	36329.6
564.438	35231.89
564.637	35856.52
564.836	35977.35
565.035	35455.12
565.234	35645.58
565.432	35555.47
565.631	35532.94
565.83	35754.12
566.029	35643.53
566.228	35057.81
566.427	35344.53
566.625	35014.8
566.824	34832.54
567.023	35123.35
567.222	34779.29
567.42	34838.68
567.619	34820.25
567.818	35078.29
568.016	35037.33
568.215	35287.18
568.414	34828.44
568.612	35145.87
568.811	34537.63
569.01	34476.19
569.208	34345.12
569.407	34338.97
569.605	34218.14
569.804	34111.65
570.002	34197.66
570.201	34476.19
570.4	34033.83
570.598	33853.61
570.797	33327.28
570.995	34187.42
571.193	33226.93
571.392	34009.25
571.59	33562.79
571.789	33583.27
571.987	33417.39
572.186	33849.51
572.384	33472.68
572.582	33216.69
572.781	33487.02
572.979	32719.03
573.177	32983.22
573.376	33091.76
573.574	32854.2
573.772	32829.62
573.971	32874.68
574.169	32743.61
574.367	32843.96
574.565	32657.59
574.763	32299.2
574.962	32606.39
575.16	32270.53
575.358	32579.77
575.556	32159.94
575.754	32579.77
575.952	31781.06
576.151	32356.54
576.349	32174.27
576.547	31799.49
576.745	32055.49
576.943	32108.74
577.141	31697.1
577.339	31744.2
577.537	31672.52
577.735	31684.81
577.933	31248.59
578.131	31803.59
578.329	31391.95
578.527	30824.66
578.725	30939.35
578.923	31568.07
579.121	31119.57
579.319	30888.15
579.516	31375.56
579.714	30904.53
579.912	31211.73
580.11	31019.22
580.308	30943.44
580.506	30798.04
580.704	30216.41
580.901	30390.49
581.099	30529.75
581.297	30161.12
581.495	30609.62
581.692	30361.82
581.89	30140.64
582.088	30400.73
582.285	30009.57
582.483	30181.6
582.681	30068.96
582.878	30154.97
583.076	29681.89
583.274	30068.96
583.471	29599.97
583.669	29749.48
583.866	29532.39
584.064	29679.85
584.262	29212.91
584.459	29475.05
584.657	29202.67
584.854	29536.49
585.052	28872.95
585.249	29032.69
585.447	29206.76
585.644	28619
585.841	28840.18
586.039	28983.54
586.236	28745.97
586.434	28475.64
586.631	28694.77
586.828	28715.25
587.026	28299.51
587.223	28049.66
587.42	28289.27
587.618	28240.12
587.815	27894.02
588.012	27953.41
588.21	28119.29
588.407	28238.08
588.604	28010.75
588.801	27699.46
588.999	27670.79
589.196	27463.94
589.393	27709.7
589.59	27390.22
589.787	27586.82
589.984	27240.72
590.182	26816.79
590.379	27500.81
590.576	27339.02
590.773	27087.12
590.97	26597.65
591.167	27117.84
591.364	26601.75
591.561	27095.31
591.758	26581.27
591.955	26255.64
592.152	26734.87
592.349	26444.06
592.546	26552.6
592.743	26554.65
592.94	25907.49
593.137	26097.95
593.334	26366.23
593.531	25753.89
593.727	26337.56
593.924	25880.86
594.121	25782.56
594.318	25878.82
594.515	25569.57
594.712	25919.78
594.908	25956.64
595.105	25532.71
595.302	25540.9
595.499	25493.8
595.696	25254.19
595.892	25184.55
596.089	25272.62
596.286	25391.4
596.482	25332.01
596.679	24932.65
596.876	25174.31
597.072	24873.26
597.269	24940.85
597.466	24656.18
597.662	24502.58
597.859	24596.79
598.055	24752.43
598.252	24478.01
598.448	24469.81
598.645	24463.67
598.841	24176.95
599.038	24191.29
599.234	24332.6
599.431	23943.49
599.627	24025.4
599.824	23953.73
600.02	24021.31
600.217	23904.57
600.413	23548.23
600.609	23685.44
600.806	23568.71
601.002	23546.18
601.198	23331.14
601.395	22970.7
601.591	23523.65
601.787	23368.01
601.984	23036.24
602.18	23429.45
602.376	23220.55
602.572	22835.53
602.769	23095.63
602.965	22892.88
603.161	22847.82
603.357	22939.98
603.553	22505.81
603.75	22600.02
603.946	22489.43
604.142	22817.1
604.338	22387.03
604.534	22258.01
604.73	22235.48
604.926	22133.08
605.122	22524.24
605.318	22139.22
605.514	21852.51
605.71	22053.21
605.906	21942.62
606.102	21866.85
606.298	21918.04
606.494	21903.71
606.69	21647.71
606.886	21811.55
607.082	21594.47
607.278	21684.58
607.474	21266.79
607.67	21766.49
607.866	21621.09
608.062	21666.14
608.257	21242.21
608.453	21668.19
608.649	21248.36
608.845	21352.8
609.041	21455.2
609.236	21326.18
609.432	21055.85
609.628	20949.35
609.824	21197.16
610.019	21111.14
610.215	20623.73
610.411	21027.18
610.606	20744.56
610.802	20742.51
610.998	20617.58
611.193	20867.44
611.389	20920.68
611.584	20781.42
611.78	20347.25
611.976	20707.69
612.171	20662.64
612.367	20631.92
612.562	20427.12
612.758	20410.74
612.953	20373.88
613.149	20674.93
613.344	20416.88
613.539	20597.1
613.735	20398.45
613.93	20400.5
614.126	20314.48
614.321	20623.73
614.517	20263.29
614.712	19911.03
614.907	19966.33
615.103	20525.43
615.298	19954.04
615.493	20341.11
615.688	19782.01
615.884	20218.23
616.079	19841.4
616.274	19958.14
616.47	19908.99
616.665	19851.64
616.86	19863.93
617.055	19659.13
617.25	19679.61
617.445	19865.98
617.641	19376.51
617.836	19769.72
618.031	19245.44
618.226	19607.94
618.421	19384.71
618.616	19644.8
618.811	19298.69
619.006	19431.81
619.201	19069.32
619.396	19016.07
619.591	18813.32
619.786	19130.76
619.981	18672.01
620.176	18823.56
620.371	18618.77
620.566	18639.25
620.761	18649.49
620.956	18547.09
621.151	18555.28
621.346	18411.92
621.541	18217.36
621.735	18203.03
621.93	18143.64
622.125	18373.01
622.32	17762.72
622.515	17959.32
622.709	17654.17
622.904	17854.87
623.099	17727.9
623.294	17398.18
623.488	17353.12
623.683	17492.38
623.878	17256.87
624.072	17265.06
624.267	17156.52
624.462	16925.1
624.656	17050.02
624.851	16787.88
625.046	16853.42
625.24	16716.2
625.435	16734.64
625.629	16693.68
625.824	16572.85
626.018	16159.16
626.213	16044.47
626.407	16253.36
626.602	16286.13
626.796	15716.79
626.991	16052.66
627.185	15780.28
627.38	15651.26
627.574	15749.56
627.768	15495.61
627.963	15303.11
628.157	15464.89
628.352	15309.25
628.546	14983.62
628.74	15501.76
628.935	15088.07
629.129	15286.72
629.323	14975.43
629.517	14930.37
629.712	14744.01
629.906	15059.4
630.1	14711.24
630.294	14684.62
630.489	14512.59
630.683	14299.6
630.877	14242.26
631.071	14322.13
631.265	14334.42
631.459	14004.69
631.653	14082.52
631.848	14107.09
632.042	13941.21
632.236	13793.75
632.43	13834.71
632.624	13851.1
632.818	13707.74
633.012	13480.41
633.206	13545.95
633.4	13515.23
633.594	13437.41
633.788	13343.2
633.982	13105.63
634.176	13234.66
634.369	13287.9
634.563	13167.07
634.757	12757.48
634.951	13038.05
635.145	12915.17
635.339	12929.51
635.533	12855.78
635.726	12696.04
635.92	12640.75
636.114	12700.14
636.308	12610.03
636.501	12442.09
636.695	12485.1
636.889	12378.61
637.083	12108.27
637.276	12261.87
637.47	12093.94
637.664	11936.24
637.857	12186.1
638.051	11926
638.244	11661.82
638.438	11966.96
638.632	11801.08
638.825	11715.06
639.019	11606.52
639.212	11491.84
639.406	11792.89
639.599	11504.12
639.793	11414.01
639.986	11188.74
640.18	11303.42
640.373	11266.56
640.567	11123.2
640.76	11264.51
640.954	11090.43
641.147	10947.08
641.34	10816.01
641.534	11033.09
641.727	10816.01
641.92	10652.17
642.114	10822.15
642.307	10668.55
642.5	10619.4
642.694	10385.93
642.887	10473.99
643.08	10484.23
643.273	10379.79
643.467	10361.36
643.66	10469.9
643.853	10312.21
644.046	10101.26
644.239	10170.9
644.432	9849.36
644.626	10031.63
644.819	10076.69
645.012	9947.67
645.205	9914.9
645.398	9978.39
645.591	9841.17
645.784	9718.29
645.977	9742.87
646.17	9742.87
646.363	9490.97
646.556	9576.98
646.749	9499.16
646.942	9454.11
647.135	9447.96
647.328	9280.03
647.521	9447.96
647.714	9087.52
647.907	9105.95
648.099	9196.06
648.292	9241.12
648.485	9300.51
648.678	8915.49
648.871	9157.15
649.064	8823.33
649.256	8940.07
649.449	8755.75
649.642	8907.3
649.835	8802.85
650.027	8827.43
650.22	8573.48
650.413	8837.67
650.605	8792.61
650.798	8614.44
650.991	8489.51
651.183	8598.06
651.376	8258.09
651.568	8632.87
651.761	8370.73
651.954	8297
652.146	8172.08
652.339	8135.21
652.531	8344.11
652.724	8163.89
652.916	7934.51
653.109	8180.27
653.301	8061.49
653.494	8188.46
653.686	7813.68
653.879	7975.47
654.071	7950.9
654.263	7930.42
654.456	7983.66
654.648	7975.47
654.84	7610.93
655.033	7703.09
655.225	7686.71
655.417	7572.02
655.61	7623.22
655.802	7490.1
655.994	7377.47
656.186	7512.63
656.379	7334.46
656.571	7381.56
656.763	7240.25
656.955	7242.3
657.148	7350.84
657.34	7121.47
657.532	7275.07
657.724	7184.96
657.916	7283.26
658.108	7023.17
658.3	7033.41
658.492	6935.1
658.684	7006.78
658.876	6881.86
659.068	6947.39
659.26	6881.86
659.452	6779.46
659.644	6824.51
659.836	6822.47
660.028	6711.88
660.22	6650.44
660.412	6771.27
660.604	6701.64
660.796	6744.64
660.988	6711.88
661.18	6521.42
661.372	6488.65
661.563	6492.74
661.755	6398.54
661.947	6419.02
662.139	6326.86
662.331	6277.71
662.522	6261.32
662.714	6216.27
662.906	6222.41
663.097	6347.34
663.289	6226.51
663.481	6017.61
663.673	6109.77
663.864	6068.81
664.056	5990.99
664.247	6128.21
664.439	6048.33
664.631	6156.88
664.822	6099.53
665.014	6113.87
665.205	5821.01
665.397	5767.76
665.588	5913.17
665.78	5833.3
665.971	5823.06
666.163	5728.85
666.354	5745.23
666.546	5835.35
666.737	5552.73
666.929	5700.18
667.12	5665.36
667.311	5519.96
667.503	5628.5
667.694	5515.86
667.885	5714.52
668.077	5476.95
668.268	5581.4
668.459	5452.38
668.651	5464.66
668.842	5425.75
669.033	5272.15
669.224	5411.42
669.416	5302.87
669.607	5337.69
669.798	5274.2
669.989	5227.1
670.18	5343.83
670.371	5266.01
670.563	5143.13
670.754	5315.16
670.945	5100.12
671.136	5134.94
671.327	5374.55
671.518	5147.23
671.709	5067.36
671.9	5026.4
672.091	5130.84
672.282	5130.84
672.473	5030.49
672.664	5032.54
672.855	4981.34
673.046	5182.04
673.237	5091.93
673.428	4985.44
673.619	4983.39
673.809	4819.55
674	4967.01
674.191	4764.26
674.382	4829.79
674.573	4932.19
674.764	4952.67
674.954	4874.85
675.145	4723.3
675.336	4852.32
675.527	4846.18
675.717	4794.98
675.908	4762.21
676.099	4602.47
676.289	4825.7
676.48	4751.97
676.671	4598.37
676.861	4715.11
677.052	4686.44
677.243	4604.52
677.433	4792.93
677.624	4745.83
677.814	4670.05
678.005	4745.83
678.195	4481.64
678.386	4743.78
678.576	4461.16
678.767	4430.44
678.957	4563.56
679.148	4663.91
679.338	4483.69
679.529	4575.84
679.719	4577.89
679.909	4592.23
680.1	4426.34
680.29	4475.49
680.481	4481.64
680.671	4485.73
680.861	4364.9
681.052	4479.59
681.242	4416.1
681.432	4412.01
681.622	4369
681.813	4545.13
682.003	4278.89
682.193	4422.25
682.383	4385.38
682.573	4242.03
682.764	4242.03
682.954	4385.38
683.144	4305.51
683.334	4272.75
683.524	4256.36
683.714	4289.13
683.904	4213.35
684.094	4313.7
684.284	4137.58
684.474	4301.42
684.664	4285.03
684.854	4270.7
685.044	4031.09
685.234	4113
685.424	4207.21
685.614	4151.92
685.804	4188.78
685.994	4039.28
686.184	4215.4
686.374	4110.96
686.564	4072.04
686.753	4102.76
686.943	4035.18
687.133	3940.97
687.323	3924.59
687.513	3873.39
687.702	3922.54
687.892	3889.78
688.082	3883.63
688.272	3910.26
688.461	3836.53
688.651	3867.25
688.841	3803.76
689.03	3734.13
689.22	3713.65
689.41	3877.49
689.599	3863.15
689.789	3766.9
689.979	3791.47
690.168	3625.59
690.358	3648.11
690.547	3684.98
690.737	3850.86
690.926	3791.47
691.116	3549.81
691.305	3705.46
691.495	3674.74
691.684	3635.83
691.874	3471.99
692.063	3558
692.252	3406.45
692.442	3633.78
692.631	3469.94
692.82	3527.28
693.01	3500.66
693.199	3396.21
693.388	3406.45
693.578	3515
693.767	3416.69
693.956	3424.89
694.146	3277.43
694.335	3308.15
694.524	3498.61
694.713	3261.05
694.902	3238.52
695.092	3326.58
695.281	3226.23
695.47	3377.78
695.659	3236.47
695.848	3086.97
696.037	3332.73
696.226	3236.47
696.415	3187.32
696.604	3326.58
696.793	3189.37
696.982	3259
697.171	3207.8
697.36	3084.92
697.549	3086.97
697.738	3123.84
697.927	3086.97
698.116	3146.36
698.305	3164.79
698.494	3201.66
698.683	3113.6
698.872	3205.75
699.061	3148.41
699.25	3000.96
699.438	3086.97
699.627	3013.24
699.816	3058.3
700.005	3123.84
700.193	3052.16
700.382	3160.7
700.571	3013.24
700.76	3121.79
700.948	3015.29
701.137	3019.39
701.326	3109.5
701.514	2945.66
701.703	3103.36
701.892	3103.36
702.08	3070.59
702.269	2902.65
702.457	2933.37
702.646	3062.4
702.834	3103.36
703.023	3068.54
703.212	3046.01
703.4	3052.16
703.589	2988.67
703.777	3007.1
703.965	3076.73
704.154	2908.8
704.342	3035.77
704.531	2976.38
704.719	2992.76
704.907	3015.29
705.096	3089.02
705.284	2974.33
705.472	3011.2
705.661	2906.75
705.849	2994.81
706.037	3117.69
706.226	2925.18
706.414	2982.53
706.602	3031.68
706.79	3050.11
706.979	2943.61
707.167	2914.94
707.355	2953.85
707.543	2820.74
707.731	3056.25
707.919	2994.81
708.107	2996.86
708.296	2892.41
708.484	2968.19
708.672	2783.87
708.86	2841.22
709.048	2976.38
709.236	2955.9
709.424	2912.89
709.612	2845.31
709.8	2964.09
709.988	2853.5
710.176	2841.22
710.364	2976.38
710.551	3076.73
710.739	2830.98
710.927	2884.22
711.115	2925.18
711.303	3035.77
711.491	2908.8
711.679	2837.12
711.866	2939.52
712.054	3027.58
712.242	2863.74
712.43	2792.06
712.617	2929.28
712.805	2921.09
712.993	2947.71
713.181	2753.15
713.368	2935.42
713.556	2873.98
713.744	2822.78
713.931	2937.47
714.119	2962.05
714.306	3066.49
714.494	2908.8
714.682	2878.08
714.869	2763.39
715.057	2957.95
715.244	2753.15
715.432	2853.5
715.619	2890.37
715.807	2947.71
715.994	2962.05
716.182	2904.7
716.369	3003
716.556	2816.64
716.744	2849.41
716.931	2937.47
717.119	2824.83
717.306	2878.08
717.493	2876.03
717.681	2839.17
717.868	2886.27
718.055	2876.03
718.242	2894.46
718.43	2843.26
718.617	2898.56
718.804	2800.26
718.991	2892.41
719.179	2957.95
719.366	2869.89
719.553	2890.37
719.74	2957.95
719.927	2914.94
720.114	2908.8
720.301	2841.22
720.488	2882.17
720.676	2960
720.863	2816.64
721.05	2939.52
721.237	2863.74
721.424	2935.42
721.611	2873.98
721.798	2769.54
721.985	2833.02
722.172	2835.07
722.358	2779.78
722.545	2878.08
722.732	2855.55
722.919	2896.51
723.106	2767.49
723.293	2923.13
723.48	2972.29
723.667	2833.02
723.853	2931.33
724.04	2781.82
724.227	2927.23
724.414	2962.05
724.6	2851.46
724.787	2970.24
724.974	2925.18
725.161	2902.65
725.347	2759.3
725.534	2933.37
725.72	2957.95
725.907	2869.89
726.094	2865.79
726.28	2769.54
726.467	2779.78
726.653	2740.86
726.84	2806.4
727.027	2906.75
727.213	2828.93
727.4	2835.07
727.586	2837.12
727.773	2818.69
727.959	2835.07
728.145	2876.03
728.332	2769.54
728.518	2816.64
728.705	2919.04
728.891	2787.97
729.077	2865.79
729.264	2736.77
729.45	2876.03
729.636	2914.94
729.823	2845.31
730.009	2867.84
730.195	2923.13
730.382	2908.8
730.568	2849.41
730.754	2790.02
730.94	2695.81
731.126	2880.13
731.313	2800.26
731.499	2769.54
731.685	2966.14
731.871	2873.98
732.057	2876.03
732.243	2792.06
732.429	2730.62
732.615	2880.13
732.801	2865.79
732.987	2820.74
733.173	2833.02
733.359	2755.2
733.545	2818.69
733.731	2796.16
733.917	2939.52
734.103	2806.4
734.289	2779.78
734.475	2837.12
734.661	2802.3
734.847	2759.3
735.033	2681.47
735.219	2841.22
735.404	2744.96
735.59	2857.6
735.776	2785.92
735.962	2816.64
736.148	2833.02
736.333	2796.16
736.519	2794.11
736.705	2873.98
736.89	2835.07
737.076	2833.02
737.262	2798.21
737.447	2828.93
737.633	2775.68
737.819	2814.59
738.004	2818.69
738.19	2777.73
738.375	2779.78
738.561	2820.74
738.747	2665.09
738.932	2722.43
739.118	2663.04
739.303	2689.67
739.489	2765.44
739.674	2785.92
739.859	2689.67
740.045	2685.57
740.23	2660.99
740.416	2611.84
740.601	2585.22
740.786	2699.91
740.972	2572.93
741.157	2591.36
741.342	2626.18
741.528	2687.62
741.713	2699.91
741.898	2673.28
742.084	2531.97
742.269	2642.56
742.454	2538.12
742.639	2527.88
742.824	2589.32
743.01	2495.11
743.195	2519.68
743.38	2540.16
743.565	2560.64
743.75	2556.55
743.935	2419.33
744.12	2515.59
744.305	2515.59
744.49	2275.98
744.675	2509.44
744.86	2493.06
745.045	2495.11
745.23	2413.19
745.415	2314.89
745.6	2427.53
745.785	2491.01
745.97	2509.44
746.155	2380.42
746.34	2460.29
746.525	2417.29
746.71	2359.94
746.895	2290.31
747.079	2355.85
747.264	2288.26
747.449	2288.26
747.634	2314.89
747.819	2278.02
748.003	2304.65
748.188	2079.37
748.373	2165.39
748.557	2194.06
748.742	2175.63
748.927	2263.69
749.111	2153.1
749.296	2288.26
749.481	2118.28
749.665	2187.91
749.85	2151.05
750.034	2112.14
750.219	2130.57
750.404	2126.47
750.588	2007.69
750.773	2087.56
750.957	2124.43
751.141	2017.93
751.326	1931.92
751.51	1976.97
751.695	2013.84
751.879	1907.34
752.064	1968.78
752.248	1938.06
752.432	2007.69
752.617	1909.39
752.801	1845.9
752.985	1790.61
753.17	1829.52
753.354	1946.25
753.538	1827.47
753.722	1809.04
753.907	1831.57
754.091	1786.51
754.275	1831.57
754.459	1698.45
754.643	1774.22
754.828	1718.93
755.012	1725.07
755.196	1645.2
755.38	1659.54
755.564	1663.63
755.748	1675.92
755.932	1583.76
756.116	1714.83
756.3	1655.44
756.484	1688.21
756.668	1690.26
756.852	1596.05
757.036	1548.95
757.22	1602.19
757.404	1708.69
757.588	1649.3
757.772	1591.95
757.956	1591.95
758.14	1581.71
758.323	1575.57
758.507	1594
758.691	1460.88
758.875	1501.84
759.059	1571.47
759.242	1565.33
759.426	1387.16
759.61	1555.09
759.794	1430.16
759.977	1540.76
760.161	1444.5
760.345	1464.98
760.528	1399.45
760.712	1397.4
760.895	1430.16
761.079	1344.15
761.263	1391.25
761.446	1297.05
761.63	1358.49
761.813	1417.88
761.997	1280.66
762.18	1348.25
762.364	1360.53
762.547	1196.7
762.731	1290.9
762.914	1333.91
763.098	1245.85
763.281	1329.81
763.464	1297.05
763.648	1292.95
763.831	1270.42
764.015	1239.7
764.198	1258.14
764.381	1258.14
764.564	1247.9
764.748	1182.36
764.931	1276.57
765.114	1219.22
765.297	1403.54
765.481	1235.61
765.664	1319.57
765.847	1176.22
766.03	1155.74
766.213	1204.89
766.397	1243.8
766.58	1153.69
766.763	1182.36
766.946	1137.31
767.129	1139.35
767.312	1194.65
767.495	1190.55
767.678	1186.46
767.861	1198.74
768.044	1065.63
768.227	1108.63
768.41	1122.97
768.593	1118.87
768.776	1082.01
768.959	1137.31
769.142	1147.55
769.324	1120.92
769.507	1049.24
769.69	993.95
769.873	1106.59
770.056	1116.83
770.239	1135.26
770.421	1057.43
770.604	1061.53
770.787	1127.07
770.97	1030.81
771.152	1010.33
771.335	983.71
771.518	1006.24
771.7	1020.57
771.883	1010.33
772.066	948.89
772.248	996
772.431	1086.11
772.613	930.46
772.796	998.04
772.978	1028.76
773.161	975.52
773.343	946.84
773.526	914.08
773.708	987.8
773.891	918.17
774.073	909.98
774.256	860.83
774.438	934.56
774.621	883.36
774.803	879.26
774.985	817.82
775.168	975.52
775.35	854.69
775.532	905.88
775.715	764.58
775.897	848.54
776.079	860.83
776.261	866.97
776.444	856.73
776.626	860.83
776.808	762.53
776.99	813.73
777.173	840.35
777.355	807.58
777.537	748.19
777.719	811.68
777.901	813.73
778.083	797.34
778.265	815.77
778.447	791.2
778.629	717.47
778.811	873.12
778.993	766.62
779.175	699.04
779.357	770.72
779.539	682.66
779.721	778.91
779.903	696.99
780.085	637.6
780.267	629.41
780.449	760.48
780.631	666.27
780.812	744.1
780.994	674.46
781.176	625.31
781.358	649.89
781.54	676.51
781.721	635.55
781.903	647.84
782.085	658.08
782.267	643.74
782.448	602.79
782.63	584.35
782.812	627.36
782.993	580.26
783.175	606.88
783.357	557.73
783.538	539.3
783.72	688.8
783.901	658.08
784.083	551.59
784.264	543.39
784.446	537.25
784.627	561.83
784.809	588.45
784.99	598.69
785.172	578.21
785.353	549.54
785.535	621.22
785.716	432.8
785.897	539.3
786.079	570.02
786.26	543.39
786.441	522.91
786.623	549.54
786.804	490.15
786.985	457.38
787.167	445.09
787.348	535.2
787.529	510.63
787.71	555.68
787.891	486.05
788.073	469.67
788.254	475.81
788.435	479.91
788.616	471.72
788.797	393.89
788.978	461.48
789.159	471.72
789.34	381.6
789.522	340.65
789.703	420.52
789.884	441
790.065	404.13
790.246	467.62
790.427	389.8
790.607	443.04
790.788	389.8
790.969	402.08
791.15	408.23
791.331	451.24
791.512	432.8
791.693	375.46
791.874	434.85
792.054	393.89
792.235	408.23
792.416	395.94
792.597	424.61
792.778	434.85
792.958	445.09
793.139	449.19
793.32	420.52
793.5	301.73
793.681	373.41
793.862	428.71
794.042	350.89
794.223	441
794.404	400.04
794.584	428.71
794.765	371.37
794.945	291.49
795.126	291.49
795.306	371.37
795.487	363.17
795.667	402.08
795.848	373.41
796.028	281.25
796.209	344.74
796.389	377.51
796.57	326.31
796.75	303.78
796.93	354.98
797.111	363.17
797.291	273.06
797.471	297.64
797.652	350.89
797.832	301.73
798.012	338.6
798.192	268.97
798.373	279.21
798.553	252.58
798.733	336.55
798.913	303.78
799.093	324.26
799.274	236.2
799.454	303.78
799.634	275.11
799.814	242.34
799.994	268.97
800.174	262.82
800.354	299.69
800.534	311.97
800.714	293.54
800.894	295.59
801.074	256.68
801.254	283.3
801.434	379.56
801.614	311.97
801.794	148.14
801.974	643.74
802.154	381.6
802.334	230.06
802.514	213.67
802.693	213.67
802.873	281.25
803.053	279.21
803.233	283.3
803.413	244.39
803.592	182.95
803.772	275.11
803.952	221.86
804.131	232.1
804.311	291.49
804.491	254.63
804.67	172.71
804.85	182.95
805.03	281.25
805.209	258.73
805.389	185
805.568	166.57
805.748	189.1
805.928	285.35
806.107	264.87
806.287	178.86
806.466	230.06
806.646	271.01
806.825	232.1
807.004	318.12
807.184	156.33
807.363	201.38
807.543	248.49
807.722	205.48
807.901	242.34
808.081	162.47
808.26	207.53
808.439	174.76
808.619	230.06
808.798	156.33
808.977	189.1
809.156	174.76
809.336	182.95
809.515	185
809.694	193.19
809.873	182.95
810.052	144.04
810.231	228.01
810.411	144.04
810.59	252.58
810.769	174.76
810.948	152.23
811.127	236.2
811.306	248.49
811.485	144.04
811.664	240.3
811.843	191.14
812.022	260.77
812.201	146.09
812.38	156.33
812.559	148.14
812.737	152.23
812.916	160.42
813.095	135.85
813.274	160.42
813.453	248.49
813.632	135.85
813.811	127.66
813.989	115.37
814.168	185
814.347	129.7
814.526	162.47
814.704	230.06
814.883	172.71
815.062	170.66
815.24	168.62
815.419	189.1
815.598	191.14
815.776	195.24
815.955	115.37
816.133	123.56
816.312	70.31
816.49	195.24
816.669	182.95
816.847	162.47
817.026	137.9
817.204	90.79
817.383	152.23
817.561	228.01
817.74	123.56
817.918	160.42
818.097	172.71
818.275	113.32
818.453	180.9
818.632	148.14
818.81	164.52
818.988	170.66
819.167	141.99
819.345	209.58
819.523	131.75
819.701	96.94
819.879	164.52
820.058	125.61
820.236	146.09
820.414	90.79
820.592	193.19
820.77	129.7
820.948	158.38
821.127	154.28
821.305	141.99
821.483	96.94
821.661	88.75
821.839	133.8
822.017	141.99
822.195	111.27
822.373	103.08
822.551	27.31
822.729	133.8
822.907	127.66
823.085	115.37
823.262	90.79
823.44	117.42
823.618	105.13
823.796	131.75
823.974	74.41
824.152	82.6
824.329	111.27
824.507	80.55
824.685	103.08
824.863	94.89
825.04	156.33
825.218	141.99
825.396	146.09
825.574	68.27
825.751	144.04
825.929	82.6
826.107	76.46
826.284	64.17
826.462	105.13
826.639	113.32
826.817	88.75
826.994	133.8
827.172	152.23
827.349	139.94
827.527	127.66
827.704	101.03
827.882	172.71
828.059	86.7
828.237	66.22
828.414	96.94
828.591	53.93
828.769	80.55
828.946	103.08
829.124	127.66
829.301	74.41
829.478	29.35
829.655	111.27
829.833	39.59
830.01	64.17
830.187	55.98
830.364	96.94
830.542	88.75
830.719	123.56
830.896	109.23
831.073	96.94
831.25	103.08
831.427	58.03
831.604	64.17
831.782	82.6
831.959	55.98
832.136	86.7
832.313	45.74
832.49	43.69
832.667	23.21
832.844	78.51
833.021	101.03
833.198	66.22
833.374	78.51
833.551	98.99
833.728	94.89
833.905	150.18
834.082	51.88
834.259	78.51
834.436	111.27
834.612	64.17
834.789	84.65
834.966	-1.37
835.143	-1.37
835.319	41.64
835.496	64.17
835.673	51.88
835.85	131.75
836.026	64.17
836.203	150.18
836.38	27.31
836.556	41.64
836.733	31.4
836.909	129.7
837.086	78.51
837.262	51.88
837.439	23.21
837.616	82.6
837.792	15.02
837.968	86.7
838.145	80.55
838.321	53.93
838.498	45.74
838.674	94.89
838.851	51.88
839.027	84.65
839.203	62.12
839.38	98.99
839.556	64.17
839.732	45.74
839.909	60.07
840.085	72.36
840.261	15.02
840.437	41.64
840.614	68.27
840.79	82.6
840.966	17.07
841.142	68.27
841.318	6.83
841.494	43.69
841.671	53.93
841.847	33.45
842.023	-25.94
842.199	-9.56
842.375	68.27
842.551	-1.37
842.727	64.17
842.903	141.99
843.079	2.73
843.255	37.55
843.431	-13.65
843.607	12.97
843.783	-1.37
843.959	45.74
844.134	15.02
844.31	66.22
844.486	6.83
844.662	53.93
844.838	15.02
845.013	8.87
845.189	17.07
845.365	127.66
845.541	6.83
845.716	139.94
845.892	31.4
846.068	35.5
846.244	8.87
846.419	43.69
846.595	25.26
846.77	-19.8
846.946	76.46
847.122	-30.04
847.297	45.74
847.473	70.31
847.648	10.92
847.824	62.12
847.999	51.88
848.175	25.26
848.35	-7.51
848.526	49.83
848.701	43.69
848.876	96.94
849.052	45.74
849.227	92.84
849.403	-34.13
849.578	19.11
849.753	74.41
849.929	21.16
850.104	23.21
850.279	10.92
850.454	29.35
850.63	29.35
850.805	78.51
850.98	12.97
851.155	39.59
851.33	51.88
851.505	27.31
851.681	21.16
851.856	76.46
852.031	94.89
852.206	-3.41
852.381	2.73
852.556	92.84
852.731	41.64
852.906	49.83
853.081	66.22
853.256	45.74
853.431	25.26
853.606	17.07
853.781	8.87
853.956	-34.13
854.131	74.41
854.305	37.55
854.48	-15.7
854.655	21.16
854.83	47.79
855.005	-17.75
855.18	37.55
855.354	45.74
855.529	-7.51
855.704	109.23
855.879	64.17
856.053	35.5
856.228	0.68
856.403	-42.32
856.577	47.79
856.752	10.92
856.926	101.03
857.101	25.26
857.276	-19.8
857.45	86.7
857.625	8.87
857.799	-46.42
857.974	82.6
858.148	29.35
858.323	72.36
858.497	35.5
858.672	43.69
858.846	37.55
859.02	51.88
859.195	-50.52
859.369	-42.32
859.543	29.35
859.718	19.11
859.892	47.79
860.066	86.7
860.241	10.92
860.415	12.97
860.589	49.83
860.763	19.11
860.938	39.59
861.112	17.07
861.286	-30.04
861.46	78.51
861.634	-46.42
861.808	25.26
861.982	-66.9
862.157	84.65
862.331	25.26
862.505	-48.47
862.679	2.73
862.853	66.22
863.027	21.16
863.201	103.08
863.375	-19.8
863.549	21.16
863.722	49.83
863.896	53.93
864.07	-5.46
864.244	-11.61
864.418	86.7
864.592	64.17
864.766	-21.84
864.939	25.26
865.113	19.11
865.287	35.5
865.461	-9.56
865.634	33.45
865.808	66.22
865.982	21.16
866.156	19.11
866.329	86.7
866.503	31.4
866.676	-23.89
866.85	8.87
867.024	74.41
867.197	37.55
867.371	-13.65
867.544	-48.47
867.718	41.64
867.891	78.51
868.065	17.07
868.238	19.11
868.412	53.93
868.585	33.45
868.759	15.02
868.932	86.7
869.105	25.26
869.279	27.31
869.452	-1.37
869.625	-7.51
869.799	35.5
869.972	2.73
870.145	2.73
870.319	2.73
870.492	-11.61
870.665	45.74
870.838	-9.56
871.011	37.55
871.185	53.93
871.358	-17.75
871.531	-25.94
871.704	-32.08
871.877	-3.41
872.05	33.45
872.223	-3.41
872.396	78.51
872.569	-3.41
872.742	-64.85
872.915	-27.99
873.088	2.73
873.261	-23.89
873.434	109.23
873.607	58.03
873.78	80.55
873.953	8.87
874.126	-3.41
874.299	-13.65
874.471	-60.76
874.644	49.83
874.817	88.75
874.99	60.07
875.163	-56.66
875.335	31.4
875.508	-50.52
875.681	-15.7
875.853	-32.08
876.026	-68.95
876.199	49.83
876.371	37.55
876.544	10.92
876.717	21.16
876.889	10.92
877.062	-48.47
877.234	-3.41
877.407	4.78
877.579	-83.28
877.752	64.17
877.924	2.73
878.097	76.46
878.269	78.51
878.442	-81.24
878.614	-7.51
878.786	-3.41
878.959	6.83
879.131	31.4
879.303	51.88
879.476	-7.51
879.648	-25.94
879.82	35.5
879.993	-5.46
880.165	-56.66
880.337	10.92
880.509	-27.99
880.681	12.97
880.854	29.35
881.026	8.87
881.198	47.79
881.37	55.98
881.542	70.31
881.714	-19.8
881.886	-34.13
882.058	8.87
882.23	21.16
882.402	-13.65
882.574	43.69
882.746	72.36
882.918	-3.41
883.09	-25.94
883.262	-73.04
883.434	12.97
883.606	-46.42
883.778	2.73
883.95	90.79
884.122	4.78
884.293	-1.37
884.465	31.4
884.637	-48.47
884.809	-1.37
884.98	8.87
885.152	-3.41
885.324	70.31
885.496	-1.37
885.667	58.03
885.839	25.26
886.011	2.73
886.182	4.78
886.354	27.31
886.525	49.83
886.697	31.4
886.869	-23.89
887.04	-15.7
887.212	37.55
887.383	4.78
887.555	17.07
887.726	6.83
887.897	-48.47
888.069	-56.66
888.24	8.87
888.412	31.4
888.583	-17.75
888.754	6.83
888.926	-66.9
889.097	-23.89
889.268	33.45
889.44	55.98
889.611	0.68
889.782	2.73
889.953	-15.7
890.125	-11.61
890.296	-11.61
890.467	-27.99
890.638	80.55
890.809	-9.56
890.98	6.83
891.151	-32.08
891.323	113.32
891.494	-44.37
891.665	2.73
891.836	-25.94
892.007	0.68
892.178	39.59
892.349	-19.8
892.52	74.41
892.691	-27.99
892.862	-7.51
893.032	-5.46
893.203	2.73
893.374	-38.23
893.545	31.4
893.716	37.55
893.887	-21.84
894.057	-13.65
894.228	-58.71
894.399	-38.23
894.57	4.78
894.74	-38.23
894.911	31.4
895.082	-27.99
895.253	19.11
895.423	70.31
895.594	25.26
895.764	6.83
895.935	-40.28
896.106	-36.18
896.276	-44.37
896.447	-7.51
896.617	23.21
896.788	-34.13
896.958	-44.37
897.129	4.78
897.299	-25.94
897.47	-40.28
897.64	6.83
897.81	-17.75
897.981	-17.75
898.151	-64.85
898.322	-9.56
898.492	-13.65
898.662	-91.48
898.832	12.97
899.003	-42.32
899.173	-46.42
899.343	-13.65
899.513	-9.56
