Data from USB4F104151__76__12-27-49-531.txt Node

Date: Fri Mar 14 12:27:49 EDT 2025
User: louis
Spectrometer: USB4F10415
Trigger mode: 4
Integration Time (sec): 2.000000E-2
Scans to average: 1
Electric dark correction enabled: true
Nonlinearity correction enabled: false
Boxcar width: 0
XAxis mode: Wavelengths
Number of Pixels in Spectrum: 3648
>>>>>Begin Spectral Data<<<<<
178.204	-84.14
178.424	-84.14
178.644	-84.14
178.864	-133.29
179.084	-47.27
179.304	3.93
179.524	-2.22
179.744	-43.18
179.964	5.97
180.184	1.88
180.404	55.12
180.624	57.17
180.844	-22.7
181.064	-47.27
181.283	44.88
181.503	-61.61
181.723	8.02
181.943	-86.19
182.163	36.69
182.383	8.02
182.602	44.88
182.822	16.21
183.042	-32.94
183.262	-45.23
183.482	38.74
183.701	-0.17
183.921	24.4
184.141	-24.75
184.361	24.4
184.58	44.88
184.8	-20.65
185.02	12.12
185.239	5.97
185.459	-10.41
185.679	73.56
185.898	-100.52
186.118	51.03
186.338	16.21
186.557	32.6
186.777	-12.46
186.997	48.98
187.216	-55.47
187.436	44.88
187.655	16.21
187.875	51.03
188.095	-22.7
188.314	24.4
188.534	51.03
188.753	-57.51
188.973	61.27
189.192	71.51
189.412	3.93
189.631	-16.55
189.851	-45.23
190.07	-0.17
190.29	-20.65
190.509	8.02
190.729	20.31
190.948	30.55
191.168	-12.46
191.387	94.04
191.607	-39.08
191.826	67.41
192.045	-32.94
192.265	-30.89
192.484	-41.13
192.704	12.12
192.923	20.31
193.142	44.88
193.362	-32.94
193.581	26.45
193.8	-4.27
194.02	10.07
194.239	32.6
194.458	53.08
194.678	-24.75
194.897	100.18
195.116	-28.84
195.335	51.03
195.555	24.4
195.774	-14.51
195.993	-16.55
196.212	22.36
196.432	-65.71
196.651	-6.31
196.87	46.93
197.089	-6.31
197.308	12.12
197.528	32.6
197.747	28.5
197.966	34.64
198.185	106.32
198.404	14.17
198.623	5.97
198.842	55.12
199.062	18.26
199.281	55.12
199.5	-6.31
199.719	91.99
199.938	-24.75
200.157	-8.36
200.376	38.74
200.595	-28.84
200.814	-20.65
201.033	-14.51
201.252	-18.6
201.471	-2.22
201.69	53.08
201.909	-4.27
202.128	8.02
202.347	61.27
202.566	-14.51
202.785	-30.89
203.004	16.21
203.223	73.56
203.442	-12.46
203.661	-10.41
203.879	32.6
204.098	-32.94
204.317	14.17
204.536	79.7
204.755	40.79
204.974	-55.47
205.193	79.7
205.411	8.02
205.63	-18.6
205.849	34.64
206.068	-14.51
206.287	18.26
206.505	-6.31
206.724	89.94
206.943	3.93
207.162	-41.13
207.381	-18.6
207.599	-20.65
207.818	-34.99
208.037	18.26
208.255	20.31
208.474	-12.46
208.693	-34.99
208.911	-8.36
209.13	12.12
209.349	-39.08
209.567	34.64
209.786	-16.55
210.005	63.32
210.223	14.17
210.442	-22.7
210.661	44.88
210.879	16.21
211.098	-6.31
211.316	20.31
211.535	24.4
211.753	53.08
211.972	-14.51
212.191	-18.6
212.409	51.03
212.628	16.21
212.846	-55.47
213.065	-43.18
213.283	24.4
213.502	1.88
213.72	-2.22
213.938	-8.36
214.157	71.51
214.375	1.88
214.594	44.88
214.812	-14.51
215.031	18.26
215.249	36.69
215.467	16.21
215.686	36.69
215.904	51.03
216.122	46.93
216.341	73.56
216.559	12.12
216.778	-18.6
216.996	12.12
217.214	8.02
217.432	8.02
217.651	-71.85
217.869	-14.51
218.087	-53.42
218.306	51.03
218.524	26.45
218.742	1.88
218.96	-24.75
219.179	-37.03
219.397	59.22
219.615	89.94
219.833	-0.17
220.051	-41.13
220.27	57.17
220.488	75.6
220.706	51.03
220.924	77.65
221.142	-4.27
221.36	44.88
221.578	20.31
221.796	-49.32
222.015	20.31
222.233	94.04
222.451	10.07
222.669	22.36
222.887	65.36
223.105	26.45
223.323	69.46
223.541	-69.8
223.759	16.21
223.977	-22.7
224.195	1.88
224.413	10.07
224.631	28.5
224.849	10.07
225.067	-2.22
225.285	-34.99
225.503	26.45
225.721	36.69
225.939	5.97
226.157	26.45
226.375	79.7
226.592	-84.14
226.81	-34.99
227.028	-2.22
227.246	48.98
227.464	28.5
227.682	22.36
227.9	-30.89
228.117	30.55
228.335	22.36
228.553	18.26
228.771	51.03
228.989	32.6
229.206	-53.42
229.424	-22.7
229.642	59.22
229.86	30.55
230.077	32.6
230.295	51.03
230.513	-51.37
230.731	69.46
230.948	30.55
231.166	48.98
231.384	-30.89
231.601	-2.22
231.819	26.45
232.037	-26.79
232.254	-45.23
232.472	24.4
232.689	26.45
232.907	71.51
233.125	-20.65
233.342	5.97
233.56	-32.94
233.777	-6.31
233.995	3.93
234.213	69.46
234.43	55.12
234.648	18.26
234.865	-4.27
235.083	1.88
235.3	87.89
235.518	-39.08
235.735	-10.41
235.953	61.27
236.17	-24.75
236.388	-41.13
236.605	-14.51
236.822	-10.41
237.04	8.02
237.257	20.31
237.475	-4.27
237.692	96.08
237.909	-30.89
238.127	-0.17
238.344	20.31
238.562	20.31
238.779	48.98
238.996	40.79
239.214	-12.46
239.431	77.65
239.648	-24.75
239.865	1.88
240.083	-8.36
240.3	83.8
240.517	26.45
240.735	73.56
240.952	34.64
241.169	-12.46
241.386	-12.46
241.603	30.55
241.821	-43.18
242.038	83.8
242.255	59.22
242.472	-12.46
242.689	24.4
242.907	98.13
243.124	-47.27
243.341	-24.75
243.558	-20.65
243.775	32.6
243.992	16.21
244.209	30.55
244.426	71.51
244.643	10.07
244.86	-6.31
245.078	8.02
245.295	-34.99
245.512	-41.13
245.729	5.97
245.946	38.74
246.163	-86.19
246.38	-14.51
246.597	-63.66
246.814	53.08
247.031	-41.13
247.248	-8.36
247.464	-12.46
247.681	14.17
247.898	59.22
248.115	20.31
248.332	30.55
248.549	46.93
248.766	30.55
248.983	57.17
249.2	24.4
249.417	-39.08
249.633	-16.55
249.85	30.55
250.067	1.88
250.284	32.6
250.501	61.27
250.717	24.4
250.934	42.84
251.151	63.32
251.368	-2.22
251.585	1.88
251.801	-45.23
252.018	5.97
252.235	81.75
252.451	3.93
252.668	32.6
252.885	5.97
253.102	38.74
253.318	12.12
253.535	-51.37
253.752	3.93
253.968	-75.95
254.185	30.55
254.401	44.88
254.618	51.03
254.835	42.84
255.051	34.64
255.268	3.93
255.484	69.46
255.701	79.7
255.917	38.74
256.134	34.64
256.351	63.32
256.567	57.17
256.784	85.84
257	-26.79
257.217	36.69
257.433	89.94
257.65	63.32
257.866	-34.99
258.082	-24.75
258.299	75.6
258.515	-55.47
258.732	18.26
258.948	16.21
259.165	-63.66
259.381	14.17
259.597	-10.41
259.814	-8.36
260.03	-32.94
260.246	8.02
260.463	48.98
260.679	44.88
260.895	-6.31
261.112	24.4
261.328	-26.79
261.544	1.88
261.761	96.08
261.977	-22.7
262.193	28.5
262.409	48.98
262.626	53.08
262.842	51.03
263.058	8.02
263.274	137.04
263.49	-20.65
263.707	12.12
263.923	10.07
264.139	28.5
264.355	-12.46
264.571	-2.22
264.787	42.84
265.004	53.08
265.22	8.02
265.436	-18.6
265.652	28.5
265.868	77.65
266.084	22.36
266.3	-6.31
266.516	-30.89
266.732	-2.22
266.948	-0.17
267.164	32.6
267.38	30.55
267.596	46.93
267.812	34.64
268.028	20.31
268.244	-2.22
268.46	46.93
268.676	-30.89
268.892	-28.84
269.108	-6.31
269.324	-16.55
269.54	18.26
269.756	55.12
269.972	-22.7
270.188	-14.51
270.403	-39.08
270.619	48.98
270.835	-18.6
271.051	-16.55
271.267	-67.75
271.483	3.93
271.698	-18.6
271.914	114.52
272.13	-10.41
272.346	-10.41
272.562	98.13
272.777	67.41
272.993	48.98
273.209	-8.36
273.425	1.88
273.64	53.08
273.856	36.69
274.072	16.21
274.287	-0.17
274.503	59.22
274.719	1.88
274.934	55.12
275.15	-34.99
275.366	-49.32
275.581	-43.18
275.797	44.88
276.012	-69.8
276.228	1.88
276.444	59.22
276.659	12.12
276.875	85.84
277.09	1.88
277.306	-73.9
277.521	94.04
277.737	22.36
277.952	1.88
278.168	16.21
278.383	16.21
278.599	-39.08
278.814	51.03
279.03	24.4
279.245	38.74
279.461	-28.84
279.676	18.26
279.892	-14.51
280.107	-10.41
280.322	-10.41
280.538	-4.27
280.753	51.03
280.969	63.32
281.184	98.13
281.399	26.45
281.615	55.12
281.83	5.97
282.045	-2.22
282.26	-82.09
282.476	5.97
282.691	-14.51
282.906	-18.6
283.122	-22.7
283.337	28.5
283.552	-14.51
283.767	26.45
283.983	-41.13
284.198	-59.56
284.413	-8.36
284.628	-41.13
284.843	53.08
285.058	51.03
285.274	36.69
285.489	-55.47
285.704	67.41
285.919	5.97
286.134	-32.94
286.349	34.64
286.564	-4.27
286.779	77.65
286.995	16.21
287.21	18.26
287.425	-8.36
287.64	26.45
287.855	51.03
288.07	-22.7
288.285	118.61
288.5	38.74
288.715	36.69
288.93	55.12
289.145	18.26
289.36	28.5
289.575	-4.27
289.79	65.36
290.004	26.45
290.219	8.02
290.434	-28.84
290.649	-30.89
290.864	-51.37
291.079	-18.6
291.294	-10.41
291.509	53.08
291.724	8.02
291.938	1.88
292.153	-20.65
292.368	12.12
292.583	-39.08
292.798	8.02
293.012	59.22
293.227	5.97
293.442	48.98
293.657	5.97
293.871	8.02
294.086	16.21
294.301	96.08
294.516	-16.55
294.73	38.74
294.945	16.21
295.16	-8.36
295.374	-26.79
295.589	42.84
295.804	-28.84
296.018	67.41
296.233	26.45
296.447	-16.55
296.662	-8.36
296.877	94.04
297.091	5.97
297.306	18.26
297.52	42.84
297.735	46.93
297.949	-20.65
298.164	-37.03
298.378	-4.27
298.593	16.21
298.807	-0.17
299.022	-14.51
299.236	100.18
299.451	28.5
299.665	67.41
299.88	-65.71
300.094	-14.51
300.309	24.4
300.523	91.99
300.737	55.12
300.952	79.7
301.166	12.12
301.381	-16.55
301.595	42.84
301.809	57.17
302.024	14.17
302.238	3.93
302.452	3.93
302.667	-28.84
302.881	12.12
303.095	116.56
303.309	59.22
303.524	-41.13
303.738	42.84
303.952	61.27
304.166	12.12
304.381	-2.22
304.595	-30.89
304.809	-14.51
305.023	40.79
305.237	96.08
305.452	18.26
305.666	20.31
305.88	30.55
306.094	83.8
306.308	-32.94
306.522	30.55
306.736	-20.65
306.95	-2.22
307.164	-22.7
307.379	-59.56
307.593	24.4
307.807	73.56
308.021	36.69
308.235	85.84
308.449	-18.6
308.663	-10.41
308.877	46.93
309.091	-28.84
309.305	69.46
309.519	8.02
309.733	-2.22
309.947	-51.37
310.161	57.17
310.374	30.55
310.588	18.26
310.802	-20.65
311.016	18.26
311.23	24.4
311.444	-14.51
311.658	-2.22
311.872	71.51
312.085	61.27
312.299	-16.55
312.513	14.17
312.727	5.97
312.941	14.17
313.154	3.93
313.368	-4.27
313.582	12.12
313.796	14.17
314.009	55.12
314.223	28.5
314.437	48.98
314.651	32.6
314.864	12.12
315.078	91.99
315.292	42.84
315.505	20.31
315.719	-37.03
315.933	-18.6
316.146	-24.75
316.36	8.02
316.573	8.02
316.787	-18.6
317.001	5.97
317.214	55.12
317.428	53.08
317.641	-30.89
317.855	65.36
318.068	-65.71
318.282	22.36
318.495	28.5
318.709	10.07
318.922	42.84
319.136	108.37
319.349	-26.79
319.563	-4.27
319.776	-37.03
319.99	10.07
320.203	-10.41
320.417	67.41
320.63	61.27
320.843	83.8
321.057	63.32
321.27	130.9
321.483	14.17
321.697	46.93
321.91	59.22
322.124	-6.31
322.337	38.74
322.55	77.65
322.763	-24.75
322.977	28.5
323.19	-10.41
323.403	-0.17
323.617	34.64
323.83	34.64
324.043	40.79
324.256	1.88
324.469	12.12
324.683	28.5
324.896	34.64
325.109	-4.27
325.322	30.55
325.535	63.32
325.748	67.41
325.962	20.31
326.175	20.31
326.388	77.65
326.601	5.97
326.814	-30.89
327.027	20.31
327.24	71.51
327.453	-16.55
327.666	114.52
327.879	38.74
328.092	-16.55
328.305	-2.22
328.518	32.6
328.731	30.55
328.944	53.08
329.157	-45.23
329.37	69.46
329.583	34.64
329.796	22.36
330.009	-41.13
330.222	51.03
330.435	48.98
330.648	26.45
330.861	26.45
331.073	-20.65
331.286	8.02
331.499	22.36
331.712	-37.03
331.925	63.32
332.138	34.64
332.35	44.88
332.563	-49.32
332.776	-8.36
332.989	38.74
333.202	89.94
333.414	38.74
333.627	48.98
333.84	22.36
334.053	61.27
334.265	28.5
334.478	63.32
334.691	10.07
334.903	46.93
335.116	77.65
335.329	40.79
335.541	-4.27
335.754	24.4
335.966	-34.99
336.179	67.41
336.392	22.36
336.604	-4.27
336.817	65.36
337.029	51.03
337.242	20.31
337.454	-39.08
337.667	18.26
337.88	3.93
338.092	100.18
338.305	-0.17
338.517	14.17
338.729	8.02
338.942	-14.51
339.154	-6.31
339.367	5.97
339.579	24.4
339.792	-43.18
340.004	46.93
340.217	-32.94
340.429	10.07
340.641	-16.55
340.854	-47.27
341.066	51.03
341.278	26.45
341.491	59.22
341.703	102.23
341.915	53.08
342.128	53.08
342.34	-2.22
342.552	94.04
342.764	-6.31
342.977	3.93
343.189	38.74
343.401	53.08
343.613	-0.17
343.826	14.17
344.038	-4.27
344.25	38.74
344.462	12.12
344.674	-18.6
344.886	71.51
345.099	10.07
345.311	79.7
345.523	-47.27
345.735	51.03
345.947	87.89
346.159	81.75
346.371	-14.51
346.583	20.31
346.795	32.6
347.007	-2.22
347.219	18.26
347.431	-8.36
347.643	40.79
347.855	-12.46
348.067	48.98
348.279	-41.13
348.491	-32.94
348.703	28.5
348.915	20.31
349.127	-2.22
349.339	36.69
349.551	-39.08
349.763	12.12
349.975	8.02
350.187	24.4
350.399	108.37
350.61	26.45
350.822	79.7
351.034	40.79
351.246	-34.99
351.458	-4.27
351.669	51.03
351.881	98.13
352.093	-45.23
352.305	10.07
352.517	12.12
352.728	38.74
352.94	-34.99
353.152	38.74
353.363	3.93
353.575	-26.79
353.787	22.36
353.999	10.07
354.21	57.17
354.422	124.76
354.633	53.08
354.845	63.32
355.057	34.64
355.268	-41.13
355.48	53.08
355.692	1.88
355.903	75.6
356.115	-6.31
356.326	-18.6
356.538	55.12
356.749	-20.65
356.961	67.41
357.172	32.6
357.384	30.55
357.595	28.5
357.807	44.88
358.018	65.36
358.23	61.27
358.441	53.08
358.653	16.21
358.864	32.6
359.075	108.37
359.287	46.93
359.498	-22.7
359.709	22.36
359.921	87.89
360.132	-10.41
360.344	12.12
360.555	1.88
360.766	28.5
360.977	-53.42
361.189	63.32
361.4	-24.75
361.611	53.08
361.823	44.88
362.034	18.26
362.245	28.5
362.456	34.64
362.667	3.93
362.879	28.5
363.09	28.5
363.301	75.6
363.512	65.36
363.723	-22.7
363.935	20.31
364.146	-28.84
364.357	145.24
364.568	73.56
364.779	51.03
364.99	65.36
365.201	44.88
365.412	34.64
365.623	59.22
365.834	112.47
366.045	34.64
366.256	69.46
366.467	20.31
366.678	106.32
366.889	75.6
367.1	38.74
367.311	-18.6
367.522	-49.32
367.733	69.46
367.944	67.41
368.155	48.98
368.366	46.93
368.577	22.36
368.788	67.41
368.999	71.51
369.209	40.79
369.42	55.12
369.631	108.37
369.842	48.98
370.053	81.75
370.264	53.08
370.474	44.88
370.685	-8.36
370.896	16.21
371.107	57.17
371.317	77.65
371.528	34.64
371.739	-8.36
371.95	77.65
372.16	1.88
372.371	-0.17
372.582	-71.85
372.792	20.31
373.003	-10.41
373.214	1.88
373.424	18.26
373.635	-28.84
373.846	44.88
374.056	59.22
374.267	59.22
374.477	89.94
374.688	36.69
374.898	44.88
375.109	36.69
375.319	46.93
375.53	18.26
375.74	22.36
375.951	-28.84
376.161	22.36
376.372	40.79
376.582	3.93
376.793	59.22
377.003	-6.31
377.214	26.45
377.424	8.02
377.635	63.32
377.845	38.74
378.055	51.03
378.266	18.26
378.476	42.84
378.686	71.51
378.897	53.08
379.107	-6.31
379.317	12.12
379.528	20.31
379.738	3.93
379.948	67.41
380.158	55.12
380.369	106.32
380.579	34.64
380.789	-20.65
380.999	44.88
381.21	-24.75
381.42	98.13
381.63	-45.23
381.84	18.26
382.05	-10.41
382.261	71.51
382.471	26.45
382.681	63.32
382.891	59.22
383.101	44.88
383.311	-39.08
383.521	38.74
383.731	5.97
383.941	51.03
384.151	28.5
384.361	79.7
384.571	59.22
384.781	34.64
384.991	71.51
385.201	79.7
385.411	83.8
385.621	77.65
385.831	18.26
386.041	67.41
386.251	38.74
386.461	73.56
386.671	14.17
386.881	12.12
387.091	3.93
387.301	104.28
387.511	-30.89
387.72	71.51
387.93	48.98
388.14	40.79
388.35	10.07
388.56	71.51
388.769	44.88
388.979	-18.6
389.189	20.31
389.399	24.4
389.609	53.08
389.818	98.13
390.028	69.46
390.238	67.41
390.447	30.55
390.657	71.51
390.867	-59.56
391.076	3.93
391.286	75.6
391.496	-14.51
391.705	55.12
391.915	87.89
392.125	67.41
392.334	87.89
392.544	48.98
392.753	51.03
392.963	34.64
393.172	53.08
393.382	38.74
393.591	59.22
393.801	53.08
394.01	79.7
394.22	-4.27
394.429	8.02
394.639	55.12
394.848	73.56
395.058	-4.27
395.267	55.12
395.477	-24.75
395.686	83.8
395.895	151.38
396.105	81.75
396.314	102.23
396.524	34.64
396.733	14.17
396.942	63.32
397.152	65.36
397.361	91.99
397.57	96.08
397.78	102.23
397.989	81.75
398.198	77.65
398.407	61.27
398.617	116.56
398.826	63.32
399.035	85.84
399.244	132.95
399.453	98.13
399.663	79.7
399.872	40.79
400.081	91.99
400.29	59.22
400.499	110.42
400.708	73.56
400.917	46.93
401.127	53.08
401.336	8.02
401.545	85.84
401.754	153.43
401.963	141.14
402.172	104.28
402.381	44.88
402.59	108.37
402.799	40.79
403.008	141.14
403.217	104.28
403.426	61.27
403.635	38.74
403.844	77.65
404.053	128.85
404.262	167.76
404.471	126.8
404.68	132.95
404.888	124.76
405.097	22.36
405.306	112.47
405.515	124.76
405.724	112.47
405.933	143.19
406.142	132.95
406.35	85.84
406.559	16.21
406.768	130.9
406.977	169.81
407.185	202.58
407.394	210.77
407.603	73.56
407.812	155.47
408.02	182.1
408.229	120.66
408.438	200.53
408.646	112.47
408.855	221.01
409.064	288.59
409.272	180.05
409.481	266.07
409.69	239.44
409.898	214.87
410.107	227.15
410.315	196.43
410.524	190.29
410.733	327.5
410.941	229.2
411.15	257.87
411.358	307.02
411.567	292.69
411.775	399.18
411.984	386.9
412.192	276.31
412.401	325.46
412.609	345.94
412.818	356.18
413.026	339.79
413.234	403.28
413.443	425.81
413.651	372.56
413.86	431.95
414.068	450.38
414.276	477.01
414.485	450.38
414.693	485.2
414.901	468.81
415.11	542.54
415.318	522.06
415.526	542.54
415.734	546.64
415.943	585.55
416.151	665.42
416.359	696.14
416.567	646.99
416.776	704.33
416.984	716.62
417.192	606.03
417.4	718.67
417.608	722.76
417.817	728.91
418.025	778.06
418.233	839.5
418.441	886.6
418.649	921.42
418.857	935.75
419.065	1066.82
419.273	1091.4
419.481	1046.34
419.689	1226.56
419.897	1097.54
420.105	1181.51
420.313	1181.51
420.521	1283.91
420.729	1224.51
420.937	1341.25
421.145	1449.79
421.353	1376.06
421.561	1464.13
421.769	1441.6
421.977	1619.77
422.185	1662.78
422.393	1613.63
422.601	1816.38
422.809	1761.08
423.017	1736.51
423.224	1892.15
423.432	1886.01
423.64	1929.02
423.848	2182.96
424.056	2055.99
424.263	2168.63
424.471	2180.92
424.679	2338.61
424.887	2449.2
425.094	2387.76
425.302	2469.68
425.51	2524.97
425.718	2547.5
425.925	2756.4
426.133	2785.07
426.341	2930.47
426.548	3127.08
426.756	3041.06
426.964	3094.31
427.171	3178.28
427.379	3340.07
427.586	3417.89
427.794	3456.8
428.001	3671.84
428.209	3952.41
428.417	3739.42
428.624	4060.95
428.832	4083.48
429.039	3993.37
429.247	3913.5
429.454	4378.39
429.662	4777.74
429.869	4335.38
430.076	4632.33
430.284	4648.72
430.491	4826.89
430.699	5037.83
430.906	5023.5
431.114	5076.74
431.321	5388.04
431.528	5566.21
431.736	5721.85
431.943	6078.2
432.15	5938.94
432.358	5943.03
432.565	6180.6
432.772	6166.26
432.979	6579.95
433.187	6862.57
433.394	6792.94
433.601	7175.91
433.808	7093.99
434.016	7108.33
434.223	7429.86
434.43	7919.32
434.637	7669.47
434.844	8226.52
435.052	8222.42
435.259	8406.74
435.466	8543.95
435.673	8357.59
435.88	8904.4
436.087	9428.68
436.294	9273.03
436.501	9078.47
436.708	9461.44
436.915	9731.78
437.122	10065.6
437.329	10131.13
437.537	10495.67
437.743	10544.82
437.95	10434.23
438.157	11007.66
438.364	11636.39
438.571	11486.89
438.778	11531.94
438.985	12486.29
439.192	11986.59
439.399	12353.18
439.606	12084.89
439.813	12895.89
440.02	13454.98
440.227	13225.61
440.433	13244.04
440.64	13858.43
440.847	13692.55
441.054	13862.53
441.261	14765.68
441.467	14632.57
441.674	15005.3
441.881	15513.19
442.088	15474.28
442.294	15390.31
442.501	15601.26
442.708	16473.69
442.914	16752.21
443.121	17372.75
443.328	16600.66
443.534	18388.54
443.741	17595.98
443.948	17548.87
444.154	19011.12
444.361	18628.15
444.568	18691.64
444.774	18841.14
444.981	19111.47
445.187	19889.7
445.394	20321.82
445.6	20282.91
445.807	21990.92
446.013	21263.89
446.22	21270.03
446.426	22461.95
446.633	22605.31
446.839	23434.74
447.046	22517.25
447.252	23580.14
447.459	23592.43
447.665	23690.73
447.871	24948.18
448.078	25533.9
448.284	24647.13
448.491	25359.83
448.697	26119.62
448.903	26502.59
449.11	26535.36
449.316	26559.94
449.522	26772.92
449.728	27342.26
449.935	27600.3
450.141	27762.09
450.347	28364.2
450.553	27440.56
450.76	27927.98
450.966	28888.48
451.172	28042.67
451.378	29289.88
451.584	28331.43
451.791	29105.56
451.997	29275.54
452.203	29748.62
452.409	29810.06
452.615	29687.18
452.821	28233.13
453.027	28306.85
453.233	29775.25
453.44	28284.33
453.646	28810.65
453.852	28798.37
454.058	29777.29
454.264	28736.93
454.47	29515.15
454.676	28513.7
454.882	29379.99
455.088	27047.35
455.294	27491.76
455.5	27682.22
455.705	28044.71
455.911	27123.13
456.117	26398.15
456.323	25884.11
456.529	24583.65
456.735	25734.6
456.941	25181.65
457.147	24694.24
457.352	24341.99
457.558	23838.19
457.764	23975.4
457.97	23514.61
458.176	22955.51
458.381	22908.41
458.587	21728.78
458.793	21835.27
458.999	20368.93
459.204	22074.88
459.41	21812.74
459.616	20139.55
459.821	19879.46
460.027	20207.14
460.233	19588.65
460.438	18775.61
460.644	18820.66
460.85	17995.33
461.055	17862.21
461.261	17608.26
461.466	16352.86
461.672	16117.34
461.878	16868.95
462.083	15898.21
462.289	15617.64
462.494	15425.13
462.7	14827.12
462.905	14347.9
463.111	14923.38
463.316	14734.96
463.522	14528.12
463.727	14511.74
463.932	14397.05
464.138	14458.49
464.343	14534.26
464.549	13997.7
464.754	14362.23
464.959	14628.47
465.165	14071.42
465.37	13807.23
465.575	13297.29
465.781	13821.57
465.986	14014.08
466.191	13528.71
466.397	13207.18
466.602	12480.15
466.807	13098.64
467.012	13043.34
467.218	12959.38
467.423	12705.43
467.628	12992.14
467.833	13500.04
468.038	12904.08
468.244	12787.35
468.449	12983.95
468.654	12508.82
468.859	12734.1
469.064	12443.29
469.269	12132
469.474	12355.22
469.679	12422.81
469.885	12097.18
470.09	12035.74
470.295	12019.36
470.5	11888.29
470.705	11980.45
470.91	11675.3
471.115	11382.44
471.32	11634.34
471.525	11552.42
471.73	11441.83
471.935	11222.7
472.139	11019.95
472.344	11253.42
472.549	10819.25
472.754	10966.7
472.959	10800.82
473.164	10395.32
473.369	10315.45
473.574	10548.92
473.778	10491.57
473.983	10256.06
474.188	10426.04
474.393	9813.7
474.598	10004.16
474.802	9858.75
475.007	10014.4
475.212	9928.38
475.417	9434.82
475.621	9332.42
475.826	9612.99
476.031	9277.13
476.235	9334.47
476.44	9176.78
476.645	9160.39
476.849	8914.64
477.054	8941.26
477.259	8896.21
477.463	8916.69
477.668	8711.89
477.872	8607.44
478.077	8687.31
478.282	8621.78
478.486	8400.6
478.691	8355.54
478.895	8238.81
479.1	8138.46
479.304	8187.61
479.509	8117.98
479.713	8244.95
479.918	7892.7
480.122	7892.7
480.326	8005.34
480.531	7845.6
480.735	7765.73
480.94	7925.47
481.144	8181.46
481.348	7743.2
481.553	7806.69
481.757	7616.23
481.961	7593.7
482.166	8027.87
482.37	7626.46
482.574	7587.55
482.778	7673.57
482.983	7669.47
483.187	7538.4
483.391	7681.76
483.595	7792.35
483.8	7800.54
484.004	7771.87
484.208	7788.25
484.412	7636.7
484.616	7610.08
484.821	7644.9
485.025	7681.76
485.229	7710.43
485.433	7726.82
485.637	7501.54
485.841	7446.24
486.045	7585.51
486.249	7565.03
486.453	7651.04
486.657	7605.99
486.861	7673.57
487.065	7401.19
487.269	7487.2
487.473	7618.27
487.677	7845.6
487.881	7687.9
488.085	7507.68
488.289	7765.73
488.493	7589.6
488.697	7665.38
488.901	7755.49
489.105	7692
489.309	7692
489.512	7814.88
489.716	7679.71
489.92	7730.91
490.124	7737.06
490.328	8040.15
490.531	7864.03
490.735	7767.77
490.939	7911.13
491.143	7827.17
491.346	7894.75
491.55	7986.91
491.754	7948
491.958	7978.72
492.161	7964.38
492.365	8208.09
492.569	8079.07
492.772	8152.79
492.976	8328.92
493.18	8390.36
493.383	8251.1
493.587	8242.9
493.79	8439.51
493.994	8437.46
494.197	8537.81
494.401	8347.35
494.605	8681.17
494.808	8715.98
495.012	8664.79
495.215	8486.61
495.419	8949.45
495.622	8863.44
495.825	8863.44
496.029	8861.39
496.232	9303.75
496.436	9131.72
496.639	9344.71
496.843	8996.56
497.046	9475.78
497.249	9600.71
497.453	9526.98
497.656	9596.61
497.859	9647.81
498.063	9742.02
498.266	10086.08
498.469	9907.9
498.673	10034.88
498.876	10211
499.079	10340.02
499.282	10469.05
499.485	10510
499.689	10454.71
499.892	10968.75
500.095	10817.2
500.298	11067.05
500.501	10737.33
500.705	11267.75
500.908	11198.12
501.111	11275.95
501.314	11523.75
501.517	11663.01
501.72	11863.71
501.923	11617.96
502.126	12007.07
502.329	12222.11
502.532	12250.78
502.735	12410.52
502.938	12639.89
503.141	12633.75
503.344	12885.65
503.547	12768.91
503.75	13270.67
503.953	13350.54
504.156	13270.67
504.359	13616.77
504.562	13753.99
504.765	13897.35
504.968	14055.04
505.17	14392.95
505.373	14118.53
505.576	14335.61
505.779	14515.83
505.982	14646.9
506.185	14964.34
506.387	15064.69
506.59	15171.18
506.793	15461.99
506.996	15593.06
507.198	15804
507.401	15765.09
507.604	15973.99
507.807	16125.54
508.009	16698.97
508.212	16533.08
508.415	16725.59
508.617	16823.89
508.82	16952.91
509.022	17114.7
509.225	17450.57
509.428	17415.76
509.63	17544.78
509.833	17577.55
510.035	18017.86
510.238	17782.34
510.44	18236.99
510.643	18726.46
510.845	18699.83
511.048	18769.46
511.25	18990.64
511.453	19170.86
511.655	19523.12
511.858	19369.52
512.06	19650.09
512.262	19680.81
512.465	19897.89
512.667	20436.51
512.87	20456.99
513.072	20452.89
513.274	21028.37
513.477	21141.01
513.679	21222.93
513.881	21757.45
514.084	21751.31
514.286	21696.01
514.488	21519.88
514.69	22582.78
514.893	22367.74
515.095	22597.12
515.297	22803.96
515.499	22679.04
515.701	23086.58
515.904	23180.79
516.106	23512.56
516.308	23784.94
516.51	23807.47
516.712	24350.18
516.914	24225.25
517.116	24487.39
517.318	24729.05
517.52	24980.95
517.722	25083.35
517.925	24872.41
518.127	25656.78
518.329	25834.96
518.531	26062.28
518.733	26330.56
518.935	26328.52
519.136	26607.04
519.338	26914.23
519.54	26842.56
519.742	27035.06
519.944	27252.15
520.146	27751.85
520.348	27841.96
520.55	27807.15
520.752	28106.15
520.954	28261.8
521.155	28546.47
521.357	28726.69
521.559	28958.11
521.761	29253.01
521.963	29400.47
522.164	29476.24
522.366	29588.88
522.568	29691.28
522.77	30053.77
522.971	30567.81
523.173	30240.14
523.375	30526.85
523.576	30410.12
523.778	30659.97
523.98	31208.83
524.181	31102.33
524.383	31106.43
524.584	31393.14
524.786	31636.85
524.988	31280.5
525.189	32163.18
525.391	32058.73
525.592	32382.31
525.794	32361.83
525.995	32658.79
526.197	32466.28
526.398	32675.17
526.6	33023.33
526.801	32925.02
527.003	33525.08
527.204	32793.95
527.406	33492.31
527.607	33488.21
527.808	33523.03
528.01	33068.38
528.211	34022.73
528.412	33891.66
528.614	33953.1
528.815	34104.65
529.016	34485.58
529.218	33998.16
529.419	34155.85
529.62	34602.31
529.822	34229.58
530.023	34522.44
530.224	34092.37
530.425	34393.42
530.626	33989.97
530.828	34415.94
531.029	35089.73
531.23	34798.91
531.431	34913.6
531.632	34919.74
531.833	34819.39
532.035	35005.76
532.236	35153.21
532.437	35059.01
532.638	34764.1
532.839	35247.42
533.04	35372.35
533.241	34796.87
533.442	35323.19
533.643	34999.62
533.844	35466.55
534.045	35261.76
534.246	35450.17
534.447	35523.9
534.648	35274.04
534.849	35396.92
535.05	35183.93
535.251	35120.45
535.451	35210.56
535.652	35538.23
535.853	35241.28
536.054	35290.43
536.255	35530.04
536.456	35282.23
536.657	35872.05
536.857	35214.65
537.058	35433.78
537.259	35976.5
537.46	35560.76
537.66	35532.09
537.861	35636.53
538.062	35398.97
538.263	35536.18
538.463	35028.29
538.664	35476.79
538.865	35536.18
539.065	35833.14
539.266	35274.04
539.466	35941.68
539.667	35233.08
539.868	36005.17
540.068	35464.5
540.269	35501.37
540.469	35644.73
540.67	35550.52
540.87	35611.96
541.071	35525.94
541.271	35319.1
541.472	35622.2
541.672	35366.2
541.873	35237.18
542.073	35042.62
542.274	35888.43
542.474	35306.81
542.675	35364.15
542.875	35462.46
543.075	35654.97
543.276	35259.71
543.476	35460.41
543.676	35110.21
543.877	35593.53
544.077	35732.79
544.277	35636.53
544.478	34979.14
544.678	35599.67
544.878	35730.74
545.078	35515.7
545.279	35433.78
545.479	35018.05
545.679	35702.07
545.879	35652.92
546.079	35648.82
546.28	35429.69
546.48	35208.51
546.68	35405.11
546.88	35618.1
547.08	35456.31
547.28	35450.17
547.48	34889.02
547.68	35450.17
547.88	35218.75
548.081	35378.49
548.281	35464.5
548.481	35413.3
548.681	35462.46
548.881	35468.6
549.081	35446.07
549.28	35071.29
549.48	35470.65
549.68	35245.37
549.88	35562.81
550.08	35302.71
550.28	35335.48
550.48	35145.02
550.68	35601.72
550.88	34866.5
551.08	35243.32
551.279	35247.42
551.479	35167.55
551.679	35429.69
551.879	35149.12
552.079	35779.89
552.278	35220.8
552.478	35108.16
552.678	35231.04
552.878	35296.57
553.077	35446.07
553.277	34917.7
553.477	35343.67
553.676	34915.65
553.876	35265.85
554.076	35061.05
554.275	34975.04
554.475	34866.5
554.674	35401.02
554.874	35163.45
555.074	35079.49
555.273	35317.05
555.473	35374.39
555.672	34749.76
555.872	34995.52
556.071	35108.16
556.271	35247.42
556.47	34872.64
556.67	34606.41
556.869	34897.22
557.068	34886.98
557.268	34583.88
557.467	34532.68
557.667	34575.69
557.866	34989.38
558.065	34508.1
558.265	34458.95
558.464	34551.11
558.663	34610.5
558.863	34250.06
559.062	34700.61
559.261	34184.52
559.461	35020.09
559.66	34053.45
559.859	34374.98
560.058	34200.91
560.258	34475.34
560.457	33963.34
560.656	34295.11
560.855	34041.17
561.054	34291.02
561.253	33650
561.453	34266.44
561.652	34383.18
561.851	34207.05
562.05	33971.53
562.249	34002.25
562.448	34342.22
562.647	33922.38
562.846	33748.31
563.045	33725.78
563.244	33830.23
563.443	34200.91
563.642	33144.16
563.841	33365.34
564.04	33348.95
564.239	33660.24
564.438	33348.95
564.637	33619.28
564.836	33451.35
565.035	32865.63
565.234	33537.37
565.432	33148.25
565.631	33193.31
565.83	33383.77
566.029	32834.91
566.228	32898.4
566.427	33172.83
566.625	32691.55
566.824	32427.37
567.023	32933.21
567.222	32261.48
567.42	32931.17
567.619	32529.76
567.818	32365.93
568.016	32542.05
568.215	32841.06
568.414	32468.33
568.612	32980.32
568.811	32124.27
569.01	32314.73
569.208	31704.43
569.407	32181.61
569.605	32046.44
569.804	32040.3
570.002	31843.7
570.201	32058.73
570.4	31722.87
570.598	31604.08
570.797	31624.56
570.995	31495.54
571.193	31387
571.392	31387
571.59	31513.97
571.789	31343.99
571.987	31206.78
572.186	31489.4
572.384	31124.86
572.582	31243.64
572.781	31176.06
572.979	30979.45
573.177	30954.88
573.376	30899.58
573.574	30786.94
573.772	30864.77
573.971	30596.48
574.169	30653.83
574.367	30420.36
574.565	30827.9
574.763	30449.03
574.962	30680.45
575.16	30266.76
575.358	30168.46
575.556	29607.31
575.754	30483.84
575.952	29920.65
576.151	29928.84
576.349	29853.07
576.547	29988.24
576.745	29930.89
576.943	29732.24
577.141	29666.7
577.339	29576.59
577.537	29830.54
577.735	29379.99
577.933	29132.18
578.131	29486.48
578.329	29242.78
578.527	29107.61
578.725	29214.1
578.923	29539.73
579.121	28954.01
579.319	29195.67
579.516	29414.8
579.714	29287.83
579.912	28878.24
580.11	28837.28
580.308	28892.57
580.506	28757.41
580.704	28462.5
580.901	28689.82
581.099	29070.75
581.297	28532.13
581.495	28659.1
581.692	28249.51
581.89	28095.91
582.088	28165.54
582.285	27874.73
582.483	28341.67
582.681	28034.47
582.878	28100.01
583.076	27540.91
583.274	27950.51
583.471	27631.02
583.669	27692.46
583.866	27604.4
584.064	27749.81
584.262	27243.96
584.459	27680.17
584.657	27399.6
584.854	27864.49
585.052	26926.52
585.249	27620.78
585.447	27444.66
585.644	26947
585.841	27506.1
586.039	27377.08
586.236	26770.88
586.434	26623.42
586.631	26654.14
586.828	26639.81
587.026	26975.67
587.223	26752.45
587.42	26652.09
587.618	26838.46
587.815	26187.21
588.012	26359.24
588.21	26271.17
588.407	26330.56
588.604	26219.97
588.801	25908.68
588.999	25955.79
589.196	26299.84
589.393	25763.28
589.59	25716.17
589.787	25634.25
589.984	25535.95
590.182	25572.82
590.379	25538
590.576	25472.46
590.773	25449.94
590.97	25421.27
591.167	25394.64
591.364	25105.88
591.561	25224.66
591.758	24966.62
591.955	24962.52
592.152	25253.33
592.349	24960.47
592.546	24917.47
592.743	24815.07
592.94	24493.54
593.137	24718.81
593.334	24888.79
593.531	24255.97
593.727	24532.45
593.924	24597.98
594.121	24167.91
594.318	24432.1
594.515	23932.39
594.712	24270.31
594.908	24100.33
595.105	24255.97
595.302	23936.49
595.499	23842.28
595.696	23877.1
595.892	23795.18
596.089	24061.41
596.286	23518.7
596.482	23821.8
596.679	23434.74
596.876	23541.23
597.072	23490.03
597.269	23293.43
597.466	22996.47
597.662	23109.11
597.859	22947.32
598.055	22871.54
598.252	23064.05
598.448	22785.53
598.645	22795.77
598.841	22844.92
599.038	22855.16
599.234	22799.87
599.431	22126.08
599.627	22611.45
599.824	22394.37
600.02	22631.93
600.217	22232.58
600.413	22244.87
600.609	22208
600.806	22347.26
601.002	22277.63
601.198	21890.57
601.395	21712.39
601.591	22255.11
601.787	22111.75
601.984	21773.83
602.18	21909
602.376	21722.63
602.572	21491.21
602.769	21667.34
602.965	21403.15
603.161	21722.63
603.357	21132.82
603.553	21347.86
603.75	21405.2
603.946	21343.76
604.142	21235.22
604.338	21210.64
604.534	21136.91
604.73	20702.75
604.926	21042.71
605.122	21046.8
605.318	20993.56
605.514	20788.76
605.71	20729.37
605.906	20678.17
606.102	20692.51
606.298	20579.87
606.494	20495.9
606.69	20643.35
606.886	20506.14
607.082	19918.37
607.278	20618.78
607.474	20074.02
607.67	20295.2
607.866	20014.63
608.062	20307.49
608.257	20084.26
608.453	20385.31
608.649	20125.22
608.845	20180.51
609.041	20024.87
609.236	20125.22
609.432	20233.76
609.628	19979.81
609.824	19910.18
610.019	19678.76
610.215	19752.49
610.411	19947.04
610.606	19519.02
610.802	19867.17
610.998	19697.19
611.193	19705.38
611.389	19381.81
611.584	19418.67
611.78	19598.89
611.976	19498.54
612.171	19383.85
612.367	19494.44
612.562	19523.12
612.758	19170.86
612.953	19248.69
613.149	19549.74
613.344	18890.29
613.539	19412.53
613.735	19072.56
613.93	19168.82
614.126	19093.04
614.321	19312.17
614.517	19111.47
614.712	19060.27
614.907	18888.25
615.103	19236.4
615.298	18839.09
615.493	19314.22
615.688	18908.72
615.884	19177.01
616.079	18648.63
616.274	18980.4
616.47	19045.94
616.665	18632.25
616.86	18667.06
617.055	18603.58
617.25	18611.77
617.445	18824.76
617.641	18275.9
617.836	18605.63
618.031	18636.34
618.226	18906.68
618.421	18347.58
618.616	18478.65
618.811	18265.66
619.006	18599.48
619.201	18107.97
619.396	18257.47
619.591	17923.65
619.786	18083.39
619.981	18032.19
620.176	18058.82
620.371	17671.75
620.566	17755.72
620.761	17655.37
620.956	17677.9
621.151	17378.89
621.346	17321.55
621.541	17315.41
621.735	17454.67
621.93	17229.39
622.125	17155.66
622.32	16803.41
622.515	17043.03
622.709	16928.34
622.904	16682.58
623.099	16776.79
623.294	16891.48
623.488	16608.86
623.683	16436.83
623.878	16250.46
624.072	16477.79
624.267	16197.21
624.462	16160.35
624.656	15930.98
624.851	16232.03
625.046	16006.75
625.24	15963.75
625.435	15625.83
625.629	15634.02
625.824	15529.58
626.018	15674.98
626.213	15349.36
626.407	15595.11
626.602	15195.76
626.796	15281.77
626.991	15150.7
627.185	15203.95
627.38	14966.38
627.574	15083.12
627.768	14759.54
627.963	14583.41
628.157	14415.48
628.352	14880.37
628.546	14302.84
628.74	14530.17
628.935	14411.39
629.129	14341.75
629.323	14089.85
629.517	14159.49
629.712	14093.95
629.906	14110.33
630.1	13907.59
630.294	13854.34
630.489	13794.95
630.683	13805.19
630.877	13483.66
631.071	13586.05
631.265	13784.71
631.459	13579.91
631.653	13338.25
631.848	13311.63
632.042	13221.52
632.236	13135.5
632.43	13080.21
632.624	13004.43
632.818	12893.84
633.012	12889.74
633.206	12744.34
633.4	12940.94
633.594	12863.12
633.788	12738.19
633.982	12932.75
634.176	12340.89
634.369	12527.25
634.563	12340.89
634.757	12330.65
634.951	12502.68
635.145	12318.36
635.339	12474.01
635.533	12142.24
635.726	12336.79
635.92	11861.66
636.114	11982.49
636.308	11839.14
636.501	11984.54
636.695	11824.8
636.889	11789.99
637.083	11603.62
637.276	11558.56
637.47	11591.33
637.664	11339.43
637.857	11404.97
638.051	11552.42
638.244	11273.9
638.438	11112.11
638.632	11335.34
638.825	10954.41
639.019	10868.4
639.212	10925.74
639.406	10962.61
639.599	10995.37
639.793	11028.14
639.986	10647.22
640.18	10772.14
640.373	10809.01
640.567	10716.85
640.76	10573.49
640.954	10403.51
641.147	10436.28
641.34	10491.57
641.534	10516.15
641.727	10423.99
641.92	10311.35
642.114	10258.1
642.307	10235.58
642.5	10045.12
642.694	10086.08
642.887	10084.03
643.08	9983.68
643.273	9883.33
643.467	9926.33
643.66	9803.46
643.853	9727.68
644.046	9569.99
644.239	9627.33
644.432	9733.82
644.626	9395.91
644.819	9406.15
645.012	9565.89
645.205	9617.09
645.398	9328.33
645.591	9328.33
645.784	9524.93
645.977	9217.74
646.17	9383.62
646.363	9258.7
646.556	8986.32
646.749	9166.54
646.942	9019.08
647.135	8947.4
647.328	8914.64
647.521	8937.16
647.714	9023.18
647.907	8746.7
648.099	8828.62
648.292	8662.74
648.485	8832.72
648.678	8828.62
648.871	8492.76
649.064	8511.19
649.256	8525.52
649.449	8470.23
649.642	8269.53
649.835	8396.5
650.027	8310.49
650.22	8425.17
650.413	8167.13
650.605	8302.29
650.798	8111.83
650.991	8140.51
651.183	8015.58
651.376	8062.68
651.568	8091.35
651.761	8056.54
651.954	7980.76
652.146	8036.06
652.339	7851.74
652.531	7833.31
652.724	7876.32
652.916	7593.7
653.109	7718.62
653.301	7644.9
653.494	7692
653.686	7466.72
653.879	7421.67
654.071	7579.36
654.263	7417.57
654.456	7554.79
654.648	7493.35
654.84	7214.82
655.033	7388.9
655.225	7284.45
655.417	7089.9
655.61	7274.21
655.802	7253.73
655.994	7245.54
656.186	7046.89
656.379	6975.21
656.571	6840.04
656.763	6887.15
656.955	6895.34
657.148	6870.76
657.34	7091.95
657.532	6766.32
657.724	6985.45
657.916	6946.54
658.108	6807.28
658.3	6760.17
658.492	6901.48
658.684	6547.19
658.876	6668.02
659.068	6528.75
659.26	6428.4
659.452	6567.67
659.644	6424.31
659.836	6377.2
660.028	6557.43
660.22	6323.96
660.412	6506.23
660.604	6317.81
660.796	6125.3
660.988	6360.82
661.18	6280.95
661.372	6256.37
661.563	6133.5
661.755	6174.46
661.947	6203.13
662.139	6125.3
662.331	6113.02
662.522	6076.15
662.714	6180.6
662.906	6041.34
663.097	5930.75
663.289	5928.7
663.481	5938.94
663.673	6047.48
663.864	5822.2
664.056	5795.58
664.247	5664.51
664.439	5730.05
664.631	5859.07
664.822	5756.67
665.014	5652.22
665.205	5584.64
665.397	5586.69
665.588	5596.93
665.78	5646.08
665.971	5766.91
666.163	5529.34
666.354	5566.21
666.546	5684.99
666.737	5437.19
666.929	5715.71
667.12	5412.61
667.311	5390.08
667.503	5381.89
667.694	5385.99
667.885	5439.23
668.077	5357.32
668.268	5414.66
668.459	5310.21
668.651	5340.93
668.842	5279.49
669.033	5273.35
669.224	5170.95
669.416	5287.68
669.607	5146.37
669.798	5240.58
669.989	5209.86
670.18	5076.74
670.371	5166.85
670.563	5109.51
670.754	5125.9
670.945	5091.08
671.136	5084.94
671.327	4906.76
671.518	4962.06
671.709	4863.76
671.9	4914.95
672.091	4902.67
672.282	4808.46
672.473	4820.75
672.664	4818.7
672.855	4855.56
673.046	4876.04
673.237	4830.99
673.428	4824.84
673.619	4808.46
673.809	4759.31
674	4755.21
674.191	4638.48
674.382	4763.4
674.573	4687.63
674.764	4802.32
674.954	4706.06
675.145	4667.15
675.336	4673.29
675.527	4685.58
675.717	4523.79
675.908	4622.09
676.099	4460.31
676.289	4529.94
676.48	4650.77
676.671	4667.15
676.861	4630.29
677.052	4456.21
677.243	4478.74
677.433	4527.89
677.624	4525.84
677.814	4544.27
678.005	4259.6
678.195	4478.74
678.386	4507.41
678.576	4415.25
678.767	4413.2
678.957	4538.13
679.148	4425.49
679.338	4550.42
679.529	4398.87
679.719	4400.91
679.909	4554.51
680.1	4278.04
680.29	4415.25
680.481	4319
680.671	4304.66
680.861	4327.19
681.052	4366.1
681.242	4341.52
681.432	4316.95
681.622	4308.76
681.813	4222.74
682.003	4208.41
682.193	4204.31
682.383	4079.38
682.573	4310.8
682.764	4112.15
682.954	4224.79
683.144	4167.45
683.334	4067.1
683.524	4237.08
683.714	4261.65
683.904	4159.25
684.094	4382.48
684.284	4189.97
684.474	4343.57
684.664	4044.57
684.854	4232.98
685.044	4091.67
685.234	3907.35
685.424	4050.71
685.614	4187.93
685.804	4052.76
685.994	4144.92
686.184	4065.05
686.374	3976.98
686.564	3983.13
686.753	4065.05
686.943	4019.99
687.133	4013.85
687.323	3901.21
687.513	4083.48
687.702	3987.22
687.892	3882.78
688.082	3829.53
688.272	3985.18
688.461	3819.29
688.651	3917.59
688.841	3802.91
689.03	3858.2
689.22	3735.32
689.41	3774.24
689.599	3655.45
689.789	3649.31
689.979	3716.89
690.168	3673.89
690.358	3755.8
690.547	3772.19
690.737	3526.43
690.926	3743.52
691.116	3583.77
691.305	3643.17
691.495	3532.58
691.684	3469.09
691.874	3348.26
692.063	3710.75
692.252	3553.06
692.442	3442.46
692.631	3530.53
692.82	3452.7
693.01	3473.18
693.199	3469.09
693.388	3329.83
693.578	3286.82
693.767	3440.42
693.956	3262.24
694.146	3317.54
694.335	3284.77
694.524	3292.96
694.713	3440.42
694.902	3280.68
695.092	3434.27
695.281	3329.83
695.47	3352.35
695.659	3231.52
695.848	3178.28
696.037	3356.45
696.226	3215.14
696.415	3165.99
696.604	3303.2
696.793	3233.57
696.982	3286.82
697.171	3225.38
697.36	3161.89
697.549	3149.61
697.738	3198.76
697.927	3030.82
698.116	3249.96
698.305	3172.13
698.494	3215.14
698.683	3053.35
698.872	3065.64
699.061	3131.17
699.25	3043.11
699.438	2975.53
699.627	3092.26
699.816	3188.52
700.005	2912.04
700.193	3061.54
700.382	3051.3
700.571	3088.17
700.76	2895.66
700.948	3114.79
701.137	2881.32
701.326	3090.21
701.514	2993.96
701.703	3061.54
701.892	3026.73
702.08	3043.11
702.269	2979.62
702.457	2883.37
702.646	2938.66
702.834	2967.34
703.023	3000.1
703.212	2936.62
703.4	2950.95
703.589	2940.71
703.777	2948.9
703.965	2873.13
704.154	3069.73
704.342	2934.57
704.531	2959.14
704.719	2926.38
704.907	2977.58
705.096	2932.52
705.284	3071.78
705.472	2912.04
705.661	2930.47
705.849	2844.46
706.037	2965.29
706.226	2852.65
706.414	2946.86
706.602	2828.07
706.79	2934.57
706.979	2844.46
707.167	2950.95
707.355	3079.97
707.543	2885.42
707.731	2862.89
707.919	2989.86
708.107	2909.99
708.296	2854.7
708.484	2854.7
708.672	2928.42
708.86	2971.43
709.048	2901.8
709.236	2877.23
709.424	2973.48
709.612	2879.27
709.8	2983.72
709.988	2797.35
710.176	2834.22
710.364	2963.24
710.551	2914.09
710.739	2897.71
710.927	2905.9
711.115	2969.38
711.303	2998.06
711.491	2989.86
711.679	2957.1
711.866	2922.28
712.054	2903.85
712.242	2733.87
712.43	2881.32
712.617	2789.16
712.805	2899.75
712.993	2891.56
713.181	2869.03
713.368	2953
713.556	2830.12
713.744	2869.03
713.931	2948.9
714.119	2987.82
714.306	2961.19
714.494	2846.51
714.682	2809.64
714.869	2942.76
715.057	3022.63
715.244	2914.09
715.432	2930.47
715.619	2817.83
715.807	2916.14
715.994	2858.79
716.182	2864.94
716.369	2871.08
716.556	2987.82
716.744	2875.18
716.931	2979.62
717.119	2852.65
717.306	2928.42
717.493	2934.57
717.681	2885.42
717.868	2932.52
718.055	2830.12
718.242	2711.34
718.43	2926.38
718.617	2864.94
718.804	2793.26
718.991	2819.88
719.179	2977.58
719.366	2799.4
719.553	2889.51
719.74	2881.32
719.927	2774.83
720.114	2891.56
720.301	2889.51
720.488	2963.24
720.676	2864.94
720.863	2783.02
721.05	2881.32
721.237	2834.22
721.424	2787.11
721.611	3100.45
721.798	2955.05
721.985	2934.57
722.172	2924.33
722.358	2840.36
722.545	2883.37
722.732	2932.52
722.919	2850.6
723.106	2864.94
723.293	2961.19
723.48	2895.66
723.667	2711.34
723.853	2920.23
724.04	2922.28
724.227	2879.27
724.414	2887.47
724.6	2959.14
724.787	2803.5
724.974	2871.08
725.161	2948.9
725.347	2866.99
725.534	2881.32
725.72	2948.9
725.907	2805.55
726.094	2971.43
726.28	2817.83
726.467	2844.46
726.653	3010.34
726.84	3059.49
727.027	2928.42
727.213	2866.99
727.4	2807.59
727.586	2912.04
727.773	2817.83
727.959	2858.79
728.145	2934.57
728.332	2854.7
728.518	2893.61
728.705	2883.37
728.891	2899.75
729.077	2936.62
729.264	2862.89
729.45	2791.21
729.636	2967.34
729.823	2875.18
730.009	2981.67
730.195	2875.18
730.382	2930.47
730.568	2875.18
730.754	2789.16
730.94	2832.17
731.126	2901.8
731.313	2891.56
731.499	2848.55
731.685	2934.57
731.871	2914.09
732.057	2965.29
732.243	2813.74
732.429	2885.42
732.615	2916.14
732.801	2834.22
732.987	2965.29
733.173	2866.99
733.359	2801.45
733.545	2907.94
733.731	2887.47
733.917	2778.92
734.103	2959.14
734.289	2869.03
734.475	2848.55
734.661	3112.74
734.847	2885.42
735.033	2922.28
735.219	2912.04
735.404	2914.09
735.59	2973.48
735.776	2828.07
735.962	2950.95
736.148	2840.36
736.333	2942.76
736.519	2848.55
736.705	2850.6
736.89	2936.62
737.076	2866.99
737.262	2709.29
737.447	2795.31
737.633	2750.25
737.819	2830.12
738.004	2797.35
738.19	2866.99
738.375	2756.4
738.561	2737.96
738.747	2742.06
738.932	2830.12
739.118	2803.5
739.303	2729.77
739.489	2783.02
739.674	2651.95
739.859	2717.48
740.045	2797.35
740.23	2666.28
740.416	2723.63
740.601	2656.04
740.786	2578.22
740.972	2561.84
741.157	2651.95
741.342	2637.61
741.528	2670.38
741.713	2697
741.898	2756.4
742.084	2563.89
742.269	2686.76
742.454	2719.53
742.639	2608.94
742.824	2619.18
743.01	2639.66
743.195	2582.32
743.38	2727.72
743.565	2580.27
743.75	2541.36
743.935	2490.16
744.12	2457.39
744.305	2531.12
744.49	2629.42
744.675	2551.6
744.86	2496.3
745.045	2553.65
745.23	2527.02
745.415	2426.67
745.6	2453.3
745.785	2481.97
745.97	2512.69
746.155	2461.49
746.34	2459.44
746.525	2453.3
746.71	2383.66
746.895	2369.33
747.079	2365.23
747.264	2344.75
747.449	2371.38
747.634	2385.71
747.819	2395.95
748.003	2342.71
748.188	2352.95
748.373	2293.55
748.557	2223.92
748.742	2174.77
748.927	2150.2
749.111	2225.97
749.296	2285.36
749.481	2199.35
749.665	2187.06
749.85	2049.85
750.034	2176.82
750.219	2086.71
750.404	2129.72
750.588	2129.72
750.773	2078.52
750.957	2109.24
751.141	2066.23
751.326	2031.41
751.51	1924.92
751.695	1992.5
751.879	1974.07
752.064	2033.46
752.248	2015.03
752.432	1922.87
752.617	1863.48
752.801	1949.5
752.985	1937.21
753.17	1918.78
753.354	1869.62
753.538	1931.06
753.722	1871.67
753.907	1814.33
754.091	1849.15
754.275	1795.9
754.459	1886.01
754.643	1754.94
754.828	1804.09
755.012	1697.6
755.196	1738.55
755.38	1750.84
755.564	1642.3
755.748	1718.08
755.932	1720.12
756.116	1734.46
756.3	1630.01
756.484	1732.41
756.668	1736.51
756.852	1599.29
757.036	1732.41
757.22	1535.81
757.404	1650.49
757.588	1591.1
757.772	1511.23
757.956	1611.58
758.14	1681.21
758.323	1546.05
758.507	1529.66
758.691	1566.53
758.875	1519.42
759.059	1529.66
759.242	1480.51
759.426	1562.43
759.61	1523.52
759.794	1400.64
759.977	1437.5
760.161	1498.94
760.345	1331.01
760.528	1500.99
760.712	1443.65
760.895	1410.88
761.079	1427.26
761.263	1384.26
761.446	1429.31
761.63	1382.21
761.813	1400.64
761.997	1388.35
762.18	1367.87
762.364	1265.47
762.547	1312.58
762.731	1337.15
762.914	1279.81
763.098	1326.91
763.281	1376.06
763.464	1417.02
763.648	1320.77
763.831	1292.1
764.015	1265.47
764.198	1281.86
764.381	1316.67
764.564	1349.44
764.748	1298.24
764.931	1326.91
765.114	1279.81
765.297	1169.22
765.481	1273.67
765.664	1296.19
765.847	1208.13
766.03	1283.91
766.213	1232.71
766.397	1191.75
766.58	1275.71
766.763	1195.84
766.946	1173.32
767.129	1171.27
767.312	1134.4
767.495	1150.79
767.678	1222.47
767.861	1140.55
768.044	1177.41
768.227	1257.28
768.41	1177.41
768.593	1179.46
768.776	1181.51
768.959	1193.8
769.142	1134.4
769.324	1124.16
769.507	1075.01
769.69	1070.92
769.873	1025.86
770.056	1017.67
770.239	1177.41
770.421	1054.53
770.604	1048.39
770.787	984.9
770.97	1091.4
771.152	1034.05
771.335	1050.44
771.518	1066.82
771.7	1021.77
771.883	1042.25
772.066	954.18
772.248	1005.38
772.431	1062.73
772.613	1056.58
772.796	1048.39
772.978	950.09
773.161	997.19
773.343	943.94
773.526	900.94
773.708	952.13
773.891	954.18
774.073	900.94
774.256	833.35
774.438	976.71
774.621	954.18
774.803	943.94
774.985	962.37
775.168	890.7
775.35	943.94
775.532	954.18
775.715	892.74
775.897	919.37
776.079	964.42
776.261	853.83
776.444	853.83
776.626	884.55
776.808	849.74
776.99	765.77
777.173	802.63
777.355	833.35
777.537	761.67
777.719	767.82
777.901	773.96
778.083	806.73
778.265	794.44
778.447	765.77
778.629	716.62
778.811	806.73
778.993	819.02
779.175	726.86
779.357	755.53
779.539	712.52
779.721	679.75
779.903	757.58
780.085	778.06
780.267	675.66
780.449	665.42
780.631	733
780.812	733
780.994	718.67
781.176	710.47
781.358	747.34
781.54	696.14
781.721	692.04
781.903	677.71
782.085	651.08
782.267	618.32
782.448	640.84
782.63	630.6
782.812	671.56
782.993	589.64
783.175	640.84
783.357	585.55
783.538	587.6
783.72	569.16
783.901	583.5
784.083	577.36
784.264	603.98
784.446	546.64
784.627	546.64
784.809	503.63
784.99	581.45
785.172	524.11
785.353	509.77
785.535	538.45
785.716	509.77
785.897	452.43
786.079	558.92
786.26	542.54
786.441	520.01
786.623	552.78
786.804	497.49
786.985	458.57
787.167	528.21
787.348	554.83
787.529	479.05
787.71	544.59
787.891	499.53
788.073	431.95
788.254	468.81
788.435	530.25
788.616	434
788.797	452.43
788.978	454.48
789.159	472.91
789.34	517.97
789.522	499.53
789.703	444.24
789.884	454.48
790.065	501.58
790.246	458.57
790.427	364.37
790.607	411.47
790.788	429.9
790.969	446.29
791.15	487.25
791.331	395.09
791.512	474.96
791.693	368.46
791.874	384.85
792.054	427.85
792.235	403.28
792.416	368.46
792.597	370.51
792.778	474.96
792.958	384.85
793.139	425.81
793.32	462.67
793.5	309.07
793.681	409.42
793.862	481.1
794.042	382.8
794.223	307.02
794.404	311.12
794.584	296.78
794.765	403.28
794.945	366.42
795.126	345.94
795.306	378.7
795.487	401.23
795.667	264.02
795.848	354.13
796.028	280.4
796.209	417.61
796.389	315.22
796.57	464.72
796.75	261.97
796.93	302.93
797.111	255.83
797.291	294.74
797.471	401.23
797.652	333.65
797.832	274.26
798.012	360.27
798.192	323.41
798.373	294.74
798.553	350.03
798.733	231.25
798.913	239.44
799.093	329.55
799.274	243.54
799.454	382.8
799.634	304.98
799.814	266.07
799.994	319.31
800.174	280.4
800.354	253.78
800.534	235.35
800.714	272.21
800.894	276.31
801.074	243.54
801.254	239.44
801.434	280.4
801.614	304.98
801.794	245.59
801.974	702.28
802.154	317.26
802.334	292.69
802.514	241.49
802.693	239.44
802.873	245.59
803.053	321.36
803.233	304.98
803.413	206.67
803.592	255.83
803.772	274.26
803.952	218.96
804.131	266.07
804.311	272.21
804.491	311.12
804.67	253.78
804.85	321.36
805.03	247.63
805.209	218.96
805.389	280.4
805.568	237.39
805.748	270.16
805.928	329.55
806.107	208.72
806.287	192.34
806.466	202.58
806.646	243.54
806.825	280.4
807.004	268.11
807.184	264.02
807.363	311.12
807.543	264.02
807.722	264.02
807.901	264.02
808.081	218.96
808.26	122.71
808.439	202.58
808.619	208.72
808.798	171.86
808.977	221.01
809.156	200.53
809.336	169.81
809.515	278.35
809.694	147.28
809.873	145.24
810.052	165.71
810.231	221.01
810.411	171.86
810.59	315.22
810.769	229.2
810.948	175.95
811.127	149.33
811.306	214.87
811.485	184.15
811.664	237.39
811.843	128.85
812.022	257.87
812.201	122.71
812.38	247.63
812.559	223.06
812.737	221.01
812.916	167.76
813.095	221.01
813.274	278.35
813.453	225.11
813.632	221.01
813.811	212.82
813.989	130.9
814.168	161.62
814.347	149.33
814.526	159.57
814.704	194.39
814.883	167.76
815.062	116.56
815.24	161.62
815.419	110.42
815.598	204.63
815.776	94.04
815.955	173.91
816.133	98.13
816.312	118.61
816.49	210.77
816.669	167.76
816.847	128.85
817.026	186.19
817.204	137.04
817.383	208.72
817.561	159.57
817.74	180.05
817.918	151.38
818.097	85.84
818.275	155.47
818.453	186.19
818.632	184.15
818.81	63.32
818.988	153.43
819.167	159.57
819.345	194.39
819.523	46.93
819.701	159.57
819.879	190.29
820.058	161.62
820.236	100.18
820.414	116.56
820.592	112.47
820.77	108.37
820.948	165.71
821.127	196.43
821.305	132.95
821.483	85.84
821.661	114.52
821.839	85.84
822.017	188.24
822.195	89.94
822.373	79.7
822.551	124.76
822.729	124.76
822.907	87.89
823.085	212.82
823.262	94.04
823.44	135
823.618	83.8
823.796	225.11
823.974	141.14
824.152	75.6
824.329	167.76
824.507	161.62
824.685	116.56
824.863	137.04
825.04	135
825.218	165.71
825.396	24.4
825.574	108.37
825.751	75.6
825.929	124.76
826.107	73.56
826.284	73.56
826.462	122.71
826.639	155.47
826.817	59.22
826.994	91.99
827.172	5.97
827.349	81.75
827.527	130.9
827.704	63.32
827.882	79.7
828.059	112.47
828.237	83.8
828.414	114.52
828.591	77.65
828.769	120.66
828.946	157.52
829.124	108.37
829.301	137.04
829.478	108.37
829.655	126.8
829.833	75.6
830.01	48.98
830.187	73.56
830.364	110.42
830.542	30.55
830.719	143.19
830.896	128.85
831.073	178
831.25	116.56
831.427	132.95
831.604	104.28
831.782	10.07
831.959	69.46
832.136	10.07
832.313	79.7
832.49	75.6
832.667	106.32
832.844	40.79
833.021	132.95
833.198	26.45
833.374	143.19
833.551	73.56
833.728	145.24
833.905	104.28
834.082	57.17
834.259	102.23
834.436	40.79
834.612	61.27
834.789	65.36
834.966	59.22
835.143	147.28
835.319	89.94
835.496	102.23
835.673	65.36
835.85	22.36
836.026	178
836.203	18.26
836.38	75.6
836.556	24.4
836.733	5.97
836.909	55.12
837.086	-6.31
837.262	114.52
837.439	38.74
837.616	98.13
837.792	38.74
837.968	67.41
838.145	-6.31
838.321	75.6
838.498	147.28
838.674	77.65
838.851	8.02
839.027	75.6
839.203	55.12
839.38	89.94
839.556	71.51
839.732	65.36
839.909	79.7
840.085	28.5
840.261	42.84
840.437	32.6
840.614	28.5
840.79	87.89
840.966	53.08
841.142	91.99
841.318	-2.22
841.494	8.02
841.671	85.84
841.847	65.36
842.023	8.02
842.199	102.23
842.375	83.8
842.551	-0.17
842.727	34.64
842.903	81.75
843.079	46.93
843.255	75.6
843.431	36.69
843.607	100.18
843.783	44.88
843.959	57.17
844.134	65.36
844.31	81.75
844.486	67.41
844.662	-10.41
844.838	67.41
845.013	104.28
845.189	48.98
845.365	59.22
845.541	10.07
845.716	106.32
845.892	67.41
846.068	5.97
846.244	34.64
846.419	32.6
846.595	30.55
846.77	69.46
846.946	83.8
847.122	67.41
847.297	1.88
847.473	106.32
847.648	18.26
847.824	42.84
847.999	40.79
848.175	83.8
848.35	89.94
848.526	51.03
848.701	-24.75
848.876	63.32
849.052	98.13
849.227	73.56
849.403	-16.55
849.578	89.94
849.753	57.17
849.929	34.64
850.104	-39.08
850.279	91.99
850.454	32.6
850.63	38.74
850.805	28.5
850.98	28.5
851.155	32.6
851.33	24.4
851.505	18.26
851.681	98.13
851.856	65.36
852.031	61.27
852.206	10.07
852.381	73.56
852.556	14.17
852.731	36.69
852.906	67.41
853.081	42.84
853.256	81.75
853.431	44.88
853.606	-32.94
853.781	20.31
853.956	-4.27
854.131	38.74
854.305	71.51
854.48	26.45
854.655	63.32
854.83	3.93
855.005	-28.84
855.18	34.64
855.354	32.6
855.529	10.07
855.704	12.12
855.879	69.46
856.053	12.12
856.228	65.36
856.403	10.07
856.577	30.55
856.752	22.36
856.926	28.5
857.101	12.12
857.276	18.26
857.45	5.97
857.625	-6.31
857.799	34.64
857.974	38.74
858.148	-69.8
858.323	20.31
858.497	-67.75
858.672	3.93
858.846	14.17
859.02	46.93
859.195	30.55
859.369	18.26
859.543	59.22
859.718	34.64
859.892	14.17
860.066	63.32
860.241	-30.89
860.415	112.47
860.589	-28.84
860.763	-94.38
860.938	-18.6
861.112	22.36
861.286	-84.14
861.46	46.93
861.634	71.51
861.808	48.98
861.982	-88.23
862.157	26.45
862.331	16.21
862.505	-10.41
862.679	16.21
862.853	16.21
863.027	8.02
863.201	-37.03
863.375	-49.32
863.549	57.17
863.722	-45.23
863.896	71.51
864.07	-32.94
864.244	87.89
864.418	3.93
864.592	122.71
864.766	-8.36
864.939	22.36
865.113	-49.32
865.287	46.93
865.461	-47.27
865.634	-2.22
865.808	32.6
865.982	24.4
866.156	-24.75
866.329	-18.6
866.503	5.97
866.676	71.51
866.85	32.6
867.024	48.98
867.197	-20.65
867.371	28.5
867.544	40.79
867.718	-24.75
867.891	71.51
868.065	-63.66
868.238	51.03
868.412	63.32
868.585	14.17
868.759	-37.03
868.932	-63.66
869.105	-61.61
869.279	16.21
869.452	18.26
869.625	-2.22
869.799	-24.75
869.972	-67.75
870.145	-47.27
870.319	51.03
870.492	67.41
870.665	-14.51
870.838	-22.7
871.011	-28.84
871.185	10.07
871.358	3.93
871.531	-8.36
871.704	18.26
871.877	14.17
872.05	3.93
872.223	53.08
872.396	-6.31
872.569	-18.6
872.742	26.45
872.915	-6.31
873.088	-39.08
873.261	-24.75
873.434	-4.27
873.607	32.6
873.78	-12.46
873.953	-10.41
874.126	-14.51
874.299	22.36
874.471	-10.41
874.644	71.51
874.817	5.97
874.99	14.17
875.163	3.93
875.335	-39.08
875.508	12.12
875.681	83.8
875.853	-57.51
876.026	38.74
876.199	18.26
876.371	-39.08
876.544	44.88
876.717	75.6
876.889	75.6
877.062	16.21
877.234	-22.7
877.407	51.03
877.579	-4.27
877.752	69.46
877.924	36.69
878.097	-16.55
878.269	38.74
878.442	5.97
878.614	-39.08
878.786	79.7
878.959	-0.17
879.131	3.93
879.303	-32.94
879.476	26.45
879.648	44.88
879.82	32.6
879.993	-32.94
880.165	-24.75
880.337	-96.43
880.509	-39.08
880.681	12.12
880.854	-10.41
881.026	83.8
881.198	42.84
881.37	8.02
881.542	32.6
881.714	-55.47
881.886	-8.36
882.058	28.5
882.23	-32.94
882.402	-41.13
882.574	22.36
882.746	26.45
882.918	-2.22
883.09	-28.84
883.262	-41.13
883.434	12.12
883.606	-26.79
883.778	10.07
883.95	44.88
884.122	-16.55
884.293	-2.22
884.465	94.04
884.637	5.97
884.809	1.88
884.98	12.12
885.152	32.6
885.324	30.55
885.496	-12.46
885.667	-4.27
885.839	3.93
886.011	8.02
886.182	-24.75
886.354	77.65
886.525	-28.84
886.697	44.88
886.869	-37.03
887.04	8.02
887.212	10.07
887.383	61.27
887.555	-4.27
887.726	73.56
887.897	-53.42
888.069	34.64
888.24	-59.56
888.412	32.6
888.583	-67.75
888.754	34.64
888.926	-32.94
889.097	-57.51
889.268	-59.56
889.44	-30.89
889.611	-65.71
889.782	-49.32
889.953	-30.89
890.125	75.6
890.296	14.17
890.467	-22.7
890.638	-10.41
890.809	-2.22
890.98	-43.18
891.151	24.4
891.323	20.31
891.494	12.12
891.665	-14.51
891.836	-20.65
892.007	44.88
892.178	-2.22
892.349	30.55
892.52	-32.94
892.691	-14.51
892.862	22.36
893.032	-4.27
893.203	57.17
893.374	-57.51
893.545	-22.7
893.716	-88.23
893.887	26.45
894.057	-12.46
894.228	-10.41
894.399	-75.95
894.57	-0.17
894.74	-4.27
894.911	57.17
895.082	10.07
895.253	42.84
895.423	28.5
895.594	-0.17
895.764	-51.37
895.935	-8.36
896.106	57.17
896.276	-39.08
896.447	-26.79
896.617	-37.03
896.788	-24.75
896.958	24.4
897.129	10.07
897.299	10.07
897.47	-55.47
897.64	20.31
897.81	16.21
897.981	-8.36
898.151	51.03
898.322	-16.55
898.492	-6.31
898.662	-12.46
898.832	18.26
899.003	-20.65
899.173	-14.51
899.343	-10.41
899.513	32.6
