Data from USB4F104151__2__12-26-53-798.txt Node

Date: Fri Mar 14 12:26:53 EDT 2025
User: louis
Spectrometer: USB4F10415
Trigger mode: 4
Integration Time (sec): 2.000000E-2
Scans to average: 1
Electric dark correction enabled: true
Nonlinearity correction enabled: false
Boxcar width: 0
XAxis mode: Wavelengths
Number of Pixels in Spectrum: 3648
>>>>>Begin Spectral Data<<<<<
178.204	-59.56
178.424	-59.56
178.644	-59.56
178.864	-4.27
179.084	-92.33
179.304	3.93
179.524	-69.8
179.744	14.17
179.964	-34.99
180.184	-18.6
180.404	-53.42
180.624	-20.65
180.844	-51.37
181.064	30.55
181.283	8.02
181.503	48.98
181.723	143.19
181.943	-20.65
182.163	59.22
182.383	-10.41
182.602	-8.36
182.822	63.32
183.042	16.21
183.262	-10.41
183.482	44.88
183.701	79.7
183.921	63.32
184.141	-18.6
184.361	42.84
184.58	-18.6
184.8	12.12
185.02	-6.31
185.239	30.55
185.459	44.88
185.679	36.69
185.898	-6.31
186.118	14.17
186.338	24.4
186.557	10.07
186.777	14.17
186.997	5.97
187.216	71.51
187.436	55.12
187.655	-32.94
187.875	51.03
188.095	-12.46
188.314	55.12
188.534	53.08
188.753	65.36
188.973	26.45
189.192	-4.27
189.412	42.84
189.631	63.32
189.851	30.55
190.07	85.84
190.29	-26.79
190.509	10.07
190.729	34.64
190.948	67.41
191.168	38.74
191.387	-4.27
191.607	-2.22
191.826	-4.27
192.045	5.97
192.265	65.36
192.484	30.55
192.704	-34.99
192.923	-20.65
193.142	44.88
193.362	5.97
193.581	77.65
193.8	55.12
194.02	40.79
194.239	48.98
194.458	-20.65
194.678	18.26
194.897	106.32
195.116	-30.89
195.335	46.93
195.555	81.75
195.774	3.93
195.993	-2.22
196.212	61.27
196.432	100.18
196.651	16.21
196.87	24.4
197.089	61.27
197.308	16.21
197.528	26.45
197.747	-12.46
197.966	122.71
198.185	65.36
198.404	20.31
198.623	85.84
198.842	69.46
199.062	20.31
199.281	3.93
199.5	26.45
199.719	96.08
199.938	22.36
200.157	12.12
200.376	42.84
200.595	71.51
200.814	-41.13
201.033	51.03
201.252	71.51
201.471	46.93
201.69	14.17
201.909	130.9
202.128	28.5
202.347	8.02
202.566	-8.36
202.785	-20.65
203.004	32.6
203.223	51.03
203.442	28.5
203.661	22.36
203.879	28.5
204.098	75.6
204.317	-73.9
204.536	63.32
204.755	-2.22
204.974	42.84
205.193	14.17
205.411	73.56
205.63	22.36
205.849	28.5
206.068	89.94
206.287	5.97
206.505	22.36
206.724	-12.46
206.943	75.6
207.162	30.55
207.381	75.6
207.599	12.12
207.818	96.08
208.037	59.22
208.255	-24.75
208.474	30.55
208.693	71.51
208.911	32.6
209.13	1.88
209.349	63.32
209.567	20.31
209.786	106.32
210.005	89.94
210.223	38.74
210.442	-2.22
210.661	28.5
210.879	3.93
211.098	34.64
211.316	106.32
211.535	32.6
211.753	1.88
211.972	-18.6
212.191	-26.79
212.409	3.93
212.628	-88.23
212.846	24.4
213.065	16.21
213.283	-2.22
213.502	46.93
213.72	38.74
213.938	10.07
214.157	20.31
214.375	-2.22
214.594	85.84
214.812	-18.6
215.031	73.56
215.249	-12.46
215.467	48.98
215.686	22.36
215.904	139.09
216.122	53.08
216.341	36.69
216.559	-4.27
216.778	-12.46
216.996	28.5
217.214	55.12
217.432	-10.41
217.651	-2.22
217.869	-28.84
218.087	40.79
218.306	-22.7
218.524	10.07
218.742	34.64
218.96	-37.03
219.179	53.08
219.397	26.45
219.615	63.32
219.833	16.21
220.051	-2.22
220.27	61.27
220.488	30.55
220.706	-6.31
220.924	-34.99
221.142	55.12
221.36	32.6
221.578	30.55
221.796	26.45
222.015	-14.51
222.233	40.79
222.451	30.55
222.669	-16.55
222.887	-4.27
223.105	65.36
223.323	-4.27
223.541	-49.32
223.759	1.88
223.977	16.21
224.195	-37.03
224.413	34.64
224.631	8.02
224.849	104.28
225.067	141.14
225.285	24.4
225.503	28.5
225.721	22.36
225.939	26.45
226.157	40.79
226.375	94.04
226.592	-34.99
226.81	48.98
227.028	89.94
227.246	63.32
227.464	18.26
227.682	28.5
227.9	-86.19
228.117	53.08
228.335	34.64
228.553	-10.41
228.771	81.75
228.989	42.84
229.206	-57.51
229.424	-34.99
229.642	12.12
229.86	57.17
230.077	57.17
230.295	46.93
230.513	96.08
230.731	20.31
230.948	75.6
231.166	57.17
231.384	55.12
231.601	36.69
231.819	124.76
232.037	30.55
232.254	28.5
232.472	5.97
232.689	8.02
232.907	108.37
233.125	5.97
233.342	3.93
233.56	14.17
233.777	8.02
233.995	-6.31
234.213	44.88
234.43	87.89
234.648	-2.22
234.865	14.17
235.083	61.27
235.3	20.31
235.518	55.12
235.735	3.93
235.953	46.93
236.17	30.55
236.388	24.4
236.605	44.88
236.822	108.37
237.04	48.98
237.257	30.55
237.475	-8.36
237.692	38.74
237.909	-94.38
238.127	28.5
238.344	48.98
238.562	14.17
238.779	-14.51
238.996	3.93
239.214	18.26
239.431	98.13
239.648	81.75
239.865	61.27
240.083	106.32
240.3	-4.27
240.517	81.75
240.735	34.64
240.952	32.6
241.169	38.74
241.386	16.21
241.603	57.17
241.821	-10.41
242.038	44.88
242.255	53.08
242.472	5.97
242.689	18.26
242.907	3.93
243.124	24.4
243.341	3.93
243.558	-26.79
243.775	81.75
243.992	18.26
244.209	87.89
244.426	22.36
244.643	53.08
244.86	14.17
245.078	22.36
245.295	22.36
245.512	-14.51
245.729	36.69
245.946	63.32
246.163	-18.6
246.38	77.65
246.597	8.02
246.814	96.08
247.031	46.93
247.248	85.84
247.464	32.6
247.681	3.93
247.898	34.64
248.115	3.93
248.332	48.98
248.549	94.04
248.766	83.8
248.983	22.36
249.2	14.17
249.417	59.22
249.633	55.12
249.85	112.47
250.067	-2.22
250.284	65.36
250.501	67.41
250.717	57.17
250.934	22.36
251.151	-6.31
251.368	26.45
251.585	-2.22
251.801	59.22
252.018	5.97
252.235	24.4
252.451	46.93
252.668	53.08
252.885	94.04
253.102	-41.13
253.318	46.93
253.535	16.21
253.752	48.98
253.968	-28.84
254.185	-8.36
254.401	-10.41
254.618	38.74
254.835	-28.84
255.051	10.07
255.268	5.97
255.484	40.79
255.701	20.31
255.917	22.36
256.134	36.69
256.351	22.36
256.567	-22.7
256.784	104.28
257	46.93
257.217	67.41
257.433	120.66
257.65	32.6
257.866	42.84
258.082	-43.18
258.299	-24.75
258.515	91.99
258.732	-20.65
258.948	-34.99
259.165	24.4
259.381	-16.55
259.597	-4.27
259.814	-26.79
260.03	46.93
260.246	63.32
260.463	-2.22
260.679	32.6
260.895	8.02
261.112	40.79
261.328	55.12
261.544	32.6
261.761	32.6
261.977	69.46
262.193	3.93
262.409	63.32
262.626	32.6
262.842	-30.89
263.058	-61.61
263.274	67.41
263.49	32.6
263.707	57.17
263.923	48.98
264.139	-2.22
264.355	61.27
264.571	40.79
264.787	-55.47
265.004	48.98
265.22	63.32
265.436	-86.19
265.652	53.08
265.868	46.93
266.084	22.36
266.3	-28.84
266.516	-16.55
266.732	14.17
266.948	18.26
267.164	-34.99
267.38	85.84
267.596	28.5
267.812	128.85
268.028	51.03
268.244	-14.51
268.46	12.12
268.676	42.84
268.892	16.21
269.108	12.12
269.324	38.74
269.54	46.93
269.756	63.32
269.972	3.93
270.188	18.26
270.403	32.6
270.619	85.84
270.835	40.79
271.051	26.45
271.267	30.55
271.483	28.5
271.698	36.69
271.914	-20.65
272.13	-6.31
272.346	18.26
272.562	79.7
272.777	42.84
272.993	85.84
273.209	73.56
273.425	-14.51
273.64	20.31
273.856	46.93
274.072	-16.55
274.287	53.08
274.503	65.36
274.719	36.69
274.934	38.74
275.15	-8.36
275.366	-98.47
275.581	48.98
275.797	-16.55
276.012	65.36
276.228	-37.03
276.444	-8.36
276.659	55.12
276.875	-16.55
277.09	1.88
277.306	61.27
277.521	149.33
277.737	10.07
277.952	69.46
278.168	32.6
278.383	28.5
278.599	10.07
278.814	36.69
279.03	28.5
279.245	59.22
279.461	1.88
279.676	-2.22
279.892	28.5
280.107	16.21
280.322	-6.31
280.538	14.17
280.753	24.4
280.969	46.93
281.184	53.08
281.399	34.64
281.615	30.55
281.83	32.6
282.045	36.69
282.26	46.93
282.476	-39.08
282.691	71.51
282.906	22.36
283.122	5.97
283.337	-18.6
283.552	14.17
283.767	55.12
283.983	79.7
284.198	-28.84
284.413	34.64
284.628	-24.75
284.843	46.93
285.058	34.64
285.274	53.08
285.489	-41.13
285.704	61.27
285.919	8.02
286.134	28.5
286.349	-43.18
286.564	55.12
286.779	67.41
286.995	28.5
287.21	16.21
287.425	3.93
287.64	89.94
287.855	44.88
288.07	18.26
288.285	3.93
288.5	73.56
288.715	10.07
288.93	83.8
289.145	28.5
289.36	28.5
289.575	26.45
289.79	71.51
290.004	-34.99
290.219	51.03
290.434	-16.55
290.649	28.5
290.864	28.5
291.079	81.75
291.294	67.41
291.509	-0.17
291.724	104.28
291.938	24.4
292.153	24.4
292.368	57.17
292.583	91.99
292.798	61.27
293.012	79.7
293.227	51.03
293.442	30.55
293.657	10.07
293.871	26.45
294.086	26.45
294.301	69.46
294.516	28.5
294.73	8.02
294.945	-22.7
295.16	-8.36
295.374	75.6
295.589	-51.37
295.804	81.75
296.018	40.79
296.233	114.52
296.447	-20.65
296.662	10.07
296.877	120.66
297.091	61.27
297.306	55.12
297.52	36.69
297.735	36.69
297.949	87.89
298.164	18.26
298.378	44.88
298.593	42.84
298.807	-12.46
299.022	-4.27
299.236	98.13
299.451	-2.22
299.665	63.32
299.88	57.17
300.094	44.88
300.309	28.5
300.523	75.6
300.737	30.55
300.952	46.93
301.166	57.17
301.381	-41.13
301.595	40.79
301.809	10.07
302.024	75.6
302.238	-0.17
302.452	96.08
302.667	5.97
302.881	89.94
303.095	59.22
303.309	16.21
303.524	10.07
303.738	20.31
303.952	44.88
304.166	40.79
304.381	42.84
304.595	96.08
304.809	14.17
305.023	28.5
305.237	24.4
305.452	96.08
305.666	32.6
305.88	1.88
306.094	100.18
306.308	-0.17
306.522	20.31
306.736	-4.27
306.95	12.12
307.164	1.88
307.379	-12.46
307.593	-18.6
307.807	28.5
308.021	14.17
308.235	51.03
308.449	14.17
308.663	-12.46
308.877	40.79
309.091	-24.75
309.305	55.12
309.519	44.88
309.733	-47.27
309.947	20.31
310.161	57.17
310.374	59.22
310.588	124.76
310.802	42.84
311.016	16.21
311.23	-49.32
311.444	-4.27
311.658	-2.22
311.872	55.12
312.085	51.03
312.299	-32.94
312.513	46.93
312.727	-12.46
312.941	40.79
313.154	87.89
313.368	75.6
313.582	87.89
313.796	42.84
314.009	-30.89
314.223	63.32
314.437	42.84
314.651	98.13
314.864	46.93
315.078	38.74
315.292	46.93
315.505	-34.99
315.719	18.26
315.933	51.03
316.146	22.36
316.36	16.21
316.573	24.4
316.787	34.64
317.001	102.23
317.214	-34.99
317.428	57.17
317.641	14.17
317.855	16.21
318.068	12.12
318.282	36.69
318.495	53.08
318.709	26.45
318.922	16.21
319.136	94.04
319.349	48.98
319.563	42.84
319.776	46.93
319.99	34.64
320.203	46.93
320.417	-18.6
320.63	34.64
320.843	57.17
321.057	-26.79
321.27	71.51
321.483	59.22
321.697	61.27
321.91	118.61
322.124	1.88
322.337	55.12
322.55	55.12
322.763	42.84
322.977	79.7
323.19	81.75
323.403	75.6
323.617	61.27
323.83	3.93
324.043	34.64
324.256	44.88
324.469	55.12
324.683	53.08
324.896	-14.51
325.109	118.61
325.322	-16.55
325.535	22.36
325.748	-0.17
325.962	16.21
326.175	42.84
326.388	116.56
326.601	81.75
326.814	106.32
327.027	85.84
327.24	69.46
327.453	-6.31
327.666	67.41
327.879	3.93
328.092	46.93
328.305	36.69
328.518	91.99
328.731	20.31
328.944	120.66
329.157	46.93
329.37	83.8
329.583	34.64
329.796	96.08
330.009	-2.22
330.222	24.4
330.435	59.22
330.648	-8.36
330.861	34.64
331.073	1.88
331.286	-32.94
331.499	110.42
331.712	38.74
331.925	30.55
332.138	40.79
332.35	12.12
332.563	-24.75
332.776	40.79
332.989	5.97
333.202	69.46
333.414	44.88
333.627	44.88
333.84	53.08
334.053	20.31
334.265	71.51
334.478	12.12
334.691	132.95
334.903	-71.85
335.116	44.88
335.329	96.08
335.541	67.41
335.754	79.7
335.966	-6.31
336.179	-32.94
336.392	-18.6
336.604	55.12
336.817	61.27
337.029	36.69
337.242	30.55
337.454	61.27
337.667	16.21
337.88	102.23
338.092	28.5
338.305	71.51
338.517	65.36
338.729	18.26
338.942	26.45
339.154	38.74
339.367	-37.03
339.579	1.88
339.792	55.12
340.004	-0.17
340.217	89.94
340.429	69.46
340.641	40.79
340.854	77.65
341.066	65.36
341.278	61.27
341.491	59.22
341.703	44.88
341.915	98.13
342.128	71.51
342.34	55.12
342.552	26.45
342.764	-2.22
342.977	85.84
343.189	14.17
343.401	36.69
343.613	18.26
343.826	44.88
344.038	3.93
344.25	85.84
344.462	12.12
344.674	57.17
344.886	10.07
345.099	8.02
345.311	85.84
345.523	22.36
345.735	-45.23
345.947	147.28
346.159	55.12
346.371	14.17
346.583	91.99
346.795	24.4
347.007	-6.31
347.219	38.74
347.431	-6.31
347.643	12.12
347.855	-12.46
348.067	-4.27
348.279	40.79
348.491	8.02
348.703	91.99
348.915	42.84
349.127	10.07
349.339	63.32
349.551	57.17
349.763	44.88
349.975	91.99
350.187	83.8
350.399	79.7
350.61	73.56
350.822	83.8
351.034	42.84
351.246	-10.41
351.458	26.45
351.669	51.03
351.881	85.84
352.093	18.26
352.305	67.41
352.517	-20.65
352.728	59.22
352.94	28.5
353.152	98.13
353.363	34.64
353.575	89.94
353.787	36.69
353.999	73.56
354.21	53.08
354.422	-18.6
354.633	57.17
354.845	106.32
355.057	51.03
355.268	5.97
355.48	87.89
355.692	28.5
355.903	-0.17
356.115	94.04
356.326	14.17
356.538	61.27
356.749	36.69
356.961	32.6
357.172	18.26
357.384	69.46
357.595	-14.51
357.807	40.79
358.018	20.31
358.23	102.23
358.441	75.6
358.653	69.46
358.864	79.7
359.075	51.03
359.287	61.27
359.498	98.13
359.709	110.42
359.921	63.32
360.132	42.84
360.344	22.36
360.555	36.69
360.766	91.99
360.977	44.88
361.189	57.17
361.4	10.07
361.611	75.6
361.823	30.55
362.034	79.7
362.245	-47.27
362.456	94.04
362.667	44.88
362.879	75.6
363.09	59.22
363.301	-37.03
363.512	-22.7
363.723	67.41
363.935	57.17
364.146	77.65
364.357	57.17
364.568	69.46
364.779	-12.46
364.99	143.19
365.201	40.79
365.412	73.56
365.623	81.75
365.834	71.51
366.045	110.42
366.256	87.89
366.467	100.18
366.678	44.88
366.889	42.84
367.1	69.46
367.311	61.27
367.522	20.31
367.733	63.32
367.944	40.79
368.155	-32.94
368.366	38.74
368.577	32.6
368.788	46.93
368.999	10.07
369.209	28.5
369.42	55.12
369.631	22.36
369.842	51.03
370.053	46.93
370.264	83.8
370.474	-51.37
370.685	57.17
370.896	75.6
371.107	36.69
371.317	3.93
371.528	98.13
371.739	71.51
371.95	98.13
372.16	1.88
372.371	3.93
372.582	71.51
372.792	10.07
373.003	3.93
373.214	135
373.424	61.27
373.635	28.5
373.846	96.08
374.056	-8.36
374.267	28.5
374.477	69.46
374.688	3.93
374.898	-4.27
375.109	63.32
375.319	155.47
375.53	75.6
375.74	3.93
375.951	-18.6
376.161	-34.99
376.372	65.36
376.582	14.17
376.793	71.51
377.003	77.65
377.214	48.98
377.424	77.65
377.635	36.69
377.845	24.4
378.055	14.17
378.266	-10.41
378.476	36.69
378.686	51.03
378.897	73.56
379.107	-4.27
379.317	77.65
379.528	-26.79
379.738	57.17
379.948	14.17
380.158	98.13
380.369	-0.17
380.579	-20.65
380.789	102.23
380.999	57.17
381.21	132.95
381.42	69.46
381.63	-45.23
381.84	30.55
382.05	102.23
382.261	106.32
382.471	40.79
382.681	34.64
382.891	28.5
383.101	71.51
383.311	61.27
383.521	30.55
383.731	91.99
383.941	44.88
384.151	94.04
384.361	51.03
384.571	16.21
384.781	167.76
384.991	135
385.201	79.7
385.411	57.17
385.621	65.36
385.831	48.98
386.041	73.56
386.251	67.41
386.461	53.08
386.671	46.93
386.881	65.36
387.091	26.45
387.301	61.27
387.511	51.03
387.72	26.45
387.93	94.04
388.14	42.84
388.35	63.32
388.56	91.99
388.769	42.84
388.979	63.32
389.189	-4.27
389.399	32.6
389.609	75.6
389.818	167.76
390.028	61.27
390.238	44.88
390.447	132.95
390.657	100.18
390.867	3.93
391.076	-75.95
391.286	32.6
391.496	87.89
391.705	65.36
391.915	110.42
392.125	141.14
392.334	12.12
392.544	38.74
392.753	87.89
392.963	79.7
393.172	75.6
393.382	77.65
393.591	153.43
393.801	26.45
394.01	87.89
394.22	53.08
394.429	42.84
394.639	22.36
394.848	124.76
395.058	75.6
395.267	108.37
395.477	132.95
395.686	155.47
395.895	143.19
396.105	91.99
396.314	135
396.524	69.46
396.733	94.04
396.942	130.9
397.152	71.51
397.361	81.75
397.57	67.41
397.78	67.41
397.989	48.98
398.198	151.38
398.407	79.7
398.617	63.32
398.826	89.94
399.035	161.62
399.244	135
399.453	96.08
399.663	112.47
399.872	96.08
400.081	28.5
400.29	89.94
400.499	178
400.708	89.94
400.917	73.56
401.127	96.08
401.336	106.32
401.545	110.42
401.754	186.19
401.963	141.14
402.172	161.62
402.381	96.08
402.59	44.88
402.799	81.75
403.008	186.19
403.217	108.37
403.426	118.61
403.635	147.28
403.844	120.66
404.053	87.89
404.262	118.61
404.471	145.24
404.68	173.91
404.888	96.08
405.097	153.43
405.306	139.09
405.515	116.56
405.724	163.67
405.933	182.1
406.142	223.06
406.35	196.43
406.559	206.67
406.768	206.67
406.977	237.39
407.185	214.87
407.394	235.35
407.603	208.72
407.812	204.63
408.02	206.67
408.229	126.8
408.438	218.96
408.646	198.48
408.855	255.83
409.064	257.87
409.272	268.11
409.481	274.26
409.69	202.58
409.898	253.78
410.107	282.45
410.315	249.68
410.524	253.78
410.733	345.94
410.941	390.99
411.15	345.94
411.358	405.33
411.567	368.46
411.775	429.9
411.984	382.8
412.192	370.51
412.401	421.71
412.609	440.14
412.818	413.52
413.026	454.48
413.234	624.46
413.443	489.29
413.651	534.35
413.86	560.97
414.068	673.61
414.276	634.7
414.485	563.02
414.693	712.52
414.901	565.07
415.11	685.9
415.318	714.57
415.526	634.7
415.734	720.71
415.943	831.3
416.151	874.31
416.359	810.82
416.567	788.3
416.776	878.41
416.984	964.42
417.192	989
417.4	878.41
417.608	870.22
417.817	1019.72
418.025	1150.79
418.233	1148.74
418.441	1072.96
418.649	1150.79
418.857	1306.43
419.065	1345.34
419.273	1304.39
419.481	1343.3
419.689	1392.45
419.897	1527.61
420.105	1439.55
420.313	1560.38
420.521	1609.53
420.729	1713.98
420.937	1746.75
421.145	1765.18
421.353	1650.49
421.561	1879.86
421.769	1953.59
421.977	1912.63
422.185	2015.03
422.393	2150.2
422.601	2281.27
422.809	2228.02
423.017	2354.99
423.224	2391.86
423.432	2539.31
423.64	2467.63
423.848	2813.74
424.056	2682.67
424.263	2920.23
424.471	2920.23
424.679	2842.41
424.887	3178.28
425.094	3204.9
425.302	3112.74
425.51	3340.07
425.718	3241.76
425.925	3514.14
426.133	3526.43
426.341	3753.76
426.548	3938.07
426.756	4015.9
426.964	3999.51
427.171	4226.84
427.379	4388.63
427.586	4470.55
427.794	4488.98
428.001	4646.67
428.209	4957.96
428.417	4873.99
428.624	5207.81
428.832	5111.56
429.039	5138.18
429.247	5261.06
429.454	5750.53
429.662	6049.53
429.869	5691.13
430.076	6010.62
430.284	5963.51
430.491	6033.15
430.699	6469.36
430.906	6477.55
431.114	6446.83
431.321	6899.44
431.528	7227.11
431.736	7513.83
431.943	7821.02
432.15	7536.35
432.358	7792.35
432.565	8191.7
432.772	8222.42
432.979	8412.88
433.187	8742.61
433.394	8609.49
433.601	9230.02
433.808	9336.52
434.016	9477.83
434.223	9699.01
434.43	10270.39
434.637	10192.57
434.844	10675.89
435.052	10815.15
435.259	10794.67
435.466	11073.2
435.673	10827.44
435.88	11450.02
436.087	12076.7
436.294	12050.08
436.501	11992.73
436.708	12172.96
436.915	12480.15
437.122	13059.73
437.329	13002.38
437.537	13614.73
437.743	13807.23
437.95	13551.24
438.157	14362.23
438.364	14718.58
438.571	14777.97
438.778	14941.81
438.985	16311.9
439.192	15535.72
439.399	16125.54
439.606	15955.55
439.813	16733.78
440.02	17649.22
440.227	17452.62
440.433	17049.17
440.64	17962.56
440.847	17833.54
441.054	17952.32
441.261	19295.79
441.467	19332.65
441.674	19605.03
441.881	19910.18
442.088	20022.82
442.294	20057.64
442.501	20645.4
442.708	20794.9
442.914	21763.59
443.121	22726.14
443.328	21837.32
443.534	23707.12
443.741	23080.44
443.948	22541.82
444.154	24344.03
444.361	24165.86
444.568	24548.83
444.774	24374.75
444.981	24831.45
445.187	25335.25
445.394	26406.34
445.6	26336.71
445.807	28698.02
446.013	27418.03
446.22	27794.86
446.426	29044.12
446.633	29486.48
446.839	30223.75
447.046	29089.18
447.252	30756.22
447.459	30690.69
447.665	30403.97
447.871	31841.65
448.078	33281.37
448.284	32257.39
448.491	32847.2
448.697	34075.98
448.903	34927.94
449.11	34725.19
449.316	34133.32
449.522	34262.35
449.728	35669.3
449.935	36117.81
450.141	36269.36
450.347	36658.47
450.553	35542.33
450.76	36341.03
450.966	37354.78
451.172	37106.98
451.378	37776.66
451.584	37262.62
451.791	37975.31
451.997	37913.87
452.203	38935.81
452.409	38669.58
452.615	38337.8
452.821	37074.21
453.027	36439.34
453.233	38339.85
453.44	37375.26
453.646	37305.63
453.852	37803.28
454.058	38507.79
454.264	37295.39
454.47	38128.91
454.676	36812.07
454.882	38090
455.088	34807.11
455.294	35550.52
455.5	36126
455.705	36449.58
455.911	34991.42
456.117	34295.11
456.323	33934.67
456.529	32111.98
456.735	33774.93
456.941	32806.24
457.147	32181.61
457.352	31149.43
457.558	30983.55
457.764	31059.32
457.97	30590.34
458.176	29668.75
458.381	29748.62
458.587	28380.58
458.793	28495.27
458.999	26998.2
459.204	28827.04
459.41	27991.47
459.616	26168.77
459.821	26009.03
460.027	25869.77
460.233	25212.37
460.438	24675.8
460.644	24403.42
460.85	23227.89
461.055	22971.89
461.261	23041.53
461.466	21206.55
461.672	20569.63
461.878	22187.52
462.083	20413.98
462.289	20301.34
462.494	20153.89
462.7	19226.16
462.905	18921.01
463.111	19484.2
463.316	19267.12
463.522	18921.01
463.727	19342.89
463.932	19082.8
464.138	18593.34
464.343	18773.56
464.549	18454.08
464.754	18609.72
464.959	18544.19
465.165	18570.81
465.37	17897.03
465.575	17528.39
465.781	18150.98
465.986	18136.64
466.191	17632.84
466.397	17317.45
466.602	16371.29
466.807	17106.51
467.012	17206.86
467.218	17184.34
467.423	16633.43
467.628	16819.8
467.833	17296.97
468.038	16721.49
468.244	16490.07
468.449	17122.9
468.654	16610.9
468.859	16471.64
469.064	16404.06
469.269	15607.4
469.474	15775.33
469.679	16342.62
469.885	15765.09
470.09	15812.2
470.295	15961.7
470.5	15535.72
470.705	15586.92
470.91	14888.56
471.115	15068.78
471.32	15464.04
471.525	15210.09
471.73	14788.21
471.935	14773.88
472.139	14304.89
472.344	14343.8
472.549	14380.67
472.754	14284.41
472.959	14128.77
473.164	13422.22
473.369	13590.15
473.574	13866.63
473.778	13815.43
473.983	13506.18
474.188	13541
474.393	12971.66
474.598	13098.64
474.802	12840.59
475.007	12807.83
475.212	12801.68
475.417	12312.22
475.621	12228.25
475.826	12295.83
476.031	12291.74
476.235	12117.66
476.44	12048.03
476.645	11828.9
476.849	11929.25
477.054	11706.02
477.259	11816.61
477.463	11415.21
477.668	11202.22
477.872	11390.63
478.077	11185.83
478.282	11052.72
478.486	10974.89
478.691	10774.19
478.895	10966.7
479.1	10659.51
479.304	10634.93
479.509	10448.57
479.713	10688.18
479.918	10469.05
480.122	10276.54
480.326	10485.43
480.531	10493.62
480.735	10200.76
480.94	10231.48
481.144	10331.83
481.348	10108.6
481.553	10137.27
481.757	9776.83
481.961	9973.44
482.166	10090.17
482.37	10211
482.574	9715.39
482.778	9909.95
482.983	10135.23
483.187	9950.91
483.391	10231.48
483.595	10102.46
483.8	9891.52
484.004	9768.64
484.208	9932.48
484.412	9998.01
484.616	10051.26
484.821	10012.35
485.025	9936.57
485.229	10071.74
485.433	9801.41
485.637	9973.44
485.841	9893.57
486.045	9823.94
486.249	9969.34
486.453	9885.37
486.657	10006.2
486.861	10002.11
487.065	9948.86
487.269	9805.5
487.473	9619.14
487.677	9938.62
487.881	10065.6
488.085	9877.18
488.289	9891.52
488.493	9934.53
488.697	10108.6
488.901	10090.17
489.105	10079.93
489.309	10084.03
489.512	10172.09
489.716	10231.48
489.92	10227.39
490.124	10159.8
490.328	10383.03
490.531	10208.95
490.735	10161.85
490.939	10153.66
491.143	10102.46
491.346	10368.7
491.55	10432.18
491.754	10426.04
491.958	10393.27
492.161	10596.02
492.365	10493.62
492.569	10698.42
492.772	10518.2
492.976	10657.46
493.18	10813.1
493.383	10907.31
493.587	10790.58
493.79	11005.61
493.994	10950.32
494.197	11062.96
494.401	11046.57
494.605	11032.24
494.808	11269.8
495.012	11376.3
495.215	11407.02
495.419	11519.65
495.622	11171.5
495.825	11394.73
496.029	11429.54
496.232	11751.07
496.436	11957.92
496.639	11953.82
496.843	12078.75
497.046	12324.51
497.249	12265.11
497.453	12588.69
497.656	12488.34
497.859	12431
498.063	12680.85
498.266	13016.72
498.469	12963.47
498.673	13196.94
498.876	13176.46
499.079	13325.96
499.282	13532.81
499.485	13614.73
499.689	13661.83
499.892	13997.7
500.095	14100.09
500.298	14382.71
500.501	14380.67
500.705	14716.53
500.908	14696.05
501.111	14956.15
501.314	14962.29
501.517	15122.03
501.72	15408.75
501.923	15474.28
502.126	15730.28
502.329	15941.22
502.532	16166.49
502.735	16281.18
502.938	16449.11
503.141	16653.91
503.344	16707.16
503.547	16608.86
503.75	17174.1
503.953	17505.87
504.156	17350.22
504.359	17751.62
504.562	17841.73
504.765	18298.43
504.968	18435.64
505.17	18439.74
505.373	18329.15
505.576	18990.64
505.779	18923.06
505.982	19117.62
506.185	19457.58
506.387	19637.8
506.59	19662.38
506.793	20096.55
506.996	19932.71
507.198	20547.1
507.401	20463.13
507.604	20958.74
507.807	21169.68
508.009	21427.73
508.212	21224.98
508.415	21597.71
508.617	21898.76
508.82	22111.75
509.022	21538.32
509.225	22253.06
509.428	22588.92
509.63	22638.08
509.833	22912.5
510.035	23307.76
510.238	23113.2
510.44	23533.04
510.643	23873
510.845	23918.06
511.048	23739.88
511.25	24501.73
511.453	24720.86
511.655	25398.74
511.858	25249.24
512.06	25454.03
512.262	25464.27
512.465	25710.03
512.667	26099.14
512.87	26373.57
513.072	26467.78
513.274	26791.36
513.477	27100.6
513.679	27434.42
513.881	27504.05
514.084	28403.11
514.286	27854.25
514.488	27913.64
514.69	28745.12
514.893	28738.97
515.095	28978.59
515.297	29470.1
515.499	29218.2
515.701	29795.73
515.904	30016.91
516.106	29902.22
516.308	30461.32
516.51	30885.25
516.712	30700.93
516.914	31137.15
517.116	31737.2
517.318	31532.4
517.52	31710.58
517.722	31921.52
517.925	32413.03
518.127	33029.47
518.329	32931.17
518.531	32773.47
518.733	33463.64
518.935	33561.94
519.136	33715.54
519.338	34176.33
519.54	34153.8
519.742	34698.56
519.944	34563.4
520.146	35441.98
520.348	35405.11
520.55	35505.46
520.752	36015.41
520.954	36357.42
521.155	35812.66
521.357	36480.3
521.559	36896.03
521.761	37424.41
521.963	37086.5
522.164	37412.12
522.366	37428.51
522.568	37969.17
522.77	38278.41
522.971	39015.68
523.173	38204.69
523.375	38907.14
523.576	38929.67
523.778	38946.05
523.98	39349.5
524.181	39509.24
524.383	39558.39
524.584	39935.22
524.786	39877.88
524.988	40379.63
525.189	40533.23
525.391	40654.06
525.592	40660.2
525.794	41284.83
525.995	40967.4
526.197	40844.52
526.398	41630.94
526.6	41456.86
526.801	42034.39
527.003	41551.07
527.204	41669.85
527.406	42446.03
527.607	42171.6
527.808	42661.07
528.01	41696.47
528.211	42026.2
528.412	42908.87
528.614	42990.79
528.815	43211.97
529.016	43066.56
529.218	42872.01
529.419	43039.94
529.62	43275.46
529.822	43105.48
530.023	42947.78
530.224	43330.75
530.425	43207.87
530.626	42740.94
530.828	43283.65
531.029	44291.25
531.23	43422.91
531.431	43150.53
531.632	43695.29
531.833	43918.52
532.035	44092.6
532.236	43869.37
532.437	43781.31
532.638	44006.58
532.839	43953.33
533.04	44162.23
533.241	43697.34
533.442	44414.13
533.643	44313.78
533.844	44068.02
534.045	44135.6
534.246	43893.94
534.447	44129.46
534.648	43865.27
534.849	44534.96
535.05	43885.75
535.251	44504.24
535.451	44209.33
535.652	44430.51
535.853	43869.37
536.054	44416.18
536.255	44723.37
536.456	44074.16
536.657	44770.47
536.857	44170.42
537.058	44016.82
537.259	44620.97
537.46	44256.43
537.66	44033.21
537.861	44012.73
538.062	43908.28
538.263	44321.97
538.463	44108.98
538.664	44186.8
538.865	44590.25
539.065	44555.44
539.266	44098.74
539.466	44293.3
539.667	43936.95
539.868	44766.38
540.068	44235.95
540.269	44147.89
540.469	44739.75
540.67	44283.06
540.87	44240.05
541.071	44319.92
541.271	44420.27
541.472	44231.86
541.672	43955.38
541.873	44086.45
542.073	43451.58
542.274	44733.61
542.474	43934.9
542.675	43695.29
542.875	44387.5
543.075	44111.03
543.276	43410.62
543.476	44348.59
543.676	43914.42
543.877	44608.68
544.077	44117.17
544.277	44057.78
544.478	44074.16
544.678	44647.6
544.878	44164.28
545.078	44375.22
545.279	44039.35
545.479	43592.89
545.679	44022.97
545.879	43883.7
546.079	44004.53
546.28	43865.27
546.48	43754.68
546.68	44018.87
546.88	44010.68
547.08	43920.57
547.28	43762.87
547.48	43562.17
547.68	44131.51
547.88	43728.06
548.081	44072.12
548.281	44014.77
548.481	44190.9
548.681	44422.32
548.881	43672.76
549.081	43740.35
549.28	43863.22
549.48	43719.87
549.68	43920.57
549.88	44065.97
550.08	43502.78
550.28	44010.68
550.48	43543.74
550.68	43912.38
550.88	43893.94
551.08	43701.43
551.279	43816.12
551.479	43427.01
551.679	43695.29
551.879	43818.17
552.079	44094.64
552.278	43394.24
552.478	43228.35
552.678	43455.68
552.878	44092.6
553.077	43852.98
553.277	43433.15
553.477	44039.35
553.676	43574.46
553.876	43633.85
554.076	43490.49
554.275	43293.89
554.475	42998.98
554.674	43400.38
554.874	43504.83
555.074	43242.69
555.273	43492.54
555.473	43533.5
555.672	43128
555.872	43381.95
556.071	43486.4
556.271	43357.38
556.47	43273.41
556.67	43238.59
556.869	43158.72
557.068	43271.36
557.268	43267.27
557.467	43263.17
557.667	43013.32
557.866	42908.87
558.065	43015.36
558.265	42806.47
558.464	42777.8
558.663	43136.2
558.863	42687.69
559.062	43234.5
559.261	42777.8
559.461	43199.68
559.66	42675.4
559.859	42826.95
560.058	42167.51
560.258	42763.46
560.457	42333.39
560.656	42939.59
560.855	42357.97
561.054	42851.53
561.253	42392.78
561.453	42566.86
561.652	42392.78
561.851	42583.24
562.05	42220.75
562.249	42101.97
562.448	42210.51
562.647	42241.23
562.846	41923.8
563.045	41798.87
563.244	42134.74
563.443	42343.63
563.642	41389.28
563.841	41696.47
564.04	41434.33
564.239	42208.47
564.438	41532.64
564.637	41817.3
564.836	41698.52
565.035	41215.2
565.234	41475.29
565.432	41395.42
565.631	41104.61
565.83	41784.54
566.029	41276.64
566.228	41157.86
566.427	41301.22
566.625	40740.07
566.824	40602.86
567.023	41010.4
567.222	40170.74
567.42	41114.85
567.619	40647.91
567.818	40764.65
568.016	40408.3
568.215	41241.82
568.414	40320.24
568.612	40979.68
568.811	40201.46
569.01	40385.77
569.208	39900.4
569.407	40604.91
569.605	39679.22
569.804	40555.75
570.002	39806.2
570.201	40273.13
570.4	39707.9
570.598	39947.51
570.797	39562.49
570.995	39558.39
571.193	38905.09
571.392	39656.7
571.59	39259.39
571.789	39562.49
571.987	39574.78
572.186	39234.81
572.384	39148.8
572.582	39386.36
572.781	39304.45
572.979	38882.56
573.177	38690.05
573.376	39329.02
573.574	38567.18
573.772	38784.26
573.971	38657.29
574.169	38096.14
574.367	38454.54
574.565	38788.36
574.763	38327.56
574.962	38223.12
575.16	37952.79
575.358	38233.36
575.556	37911.83
575.754	38346
575.952	37678.36
576.151	38208.78
576.349	37451.03
576.547	37358.88
576.745	37766.42
576.943	37643.54
577.141	37432.6
577.339	37657.88
577.537	37387.55
577.735	37440.79
577.933	37096.74
578.131	37563.67
578.329	37025.06
578.527	36549.93
578.725	36775.2
578.923	37289.24
579.121	36863.27
579.319	37053.73
579.516	37078.3
579.714	36785.44
579.912	36492.58
580.11	36529.45
580.308	36953.38
580.506	36420.91
580.704	35935.54
580.901	36228.4
581.099	36666.66
581.297	36054.32
581.495	36029.74
581.692	36134.19
581.89	35466.55
582.088	35925.3
582.285	35616.05
582.483	36150.57
582.681	35700.02
582.878	35773.75
583.076	35427.64
583.274	35888.43
583.471	35087.68
583.669	35521.85
583.866	35069.25
584.064	34864.45
584.262	34602.31
584.459	35081.53
584.657	34706.76
584.854	34815.3
585.052	34039.12
585.249	34848.07
585.447	34630.98
585.644	34213.2
585.841	34387.27
586.039	34446.66
586.236	33889.62
586.434	34114.89
586.631	33592.66
586.828	33717.59
587.026	33748.31
587.223	33809.75
587.42	33803.6
587.618	33920.34
587.815	33475.93
588.012	33242.46
588.21	33449.3
588.407	33711.44
588.604	33408.34
588.801	33117.53
588.999	33170.78
589.196	32994.65
589.393	32947.55
589.59	33099.1
589.787	32591.2
589.984	32779.62
590.182	32013.68
590.379	32656.74
590.576	32316.78
590.773	32654.69
590.97	32265.58
591.167	32195.95
591.364	31796.59
591.561	32060.78
591.758	32019.82
591.955	31700.34
592.152	31812.98
592.349	31620.47
592.546	31610.23
592.743	31505.78
592.94	31210.87
593.137	31235.45
593.334	31176.06
593.531	31124.86
593.727	31079.8
593.924	30784.9
594.121	30764.42
594.318	30776.7
594.515	30608.77
594.712	30963.07
594.908	30428.55
595.105	30612.87
595.302	30428.55
595.499	30739.84
595.696	30119.31
595.892	30283.14
596.089	30334.34
596.286	30430.6
596.482	30164.36
596.679	29961.61
596.876	29871.5
597.072	29676.94
597.269	29736.34
597.466	29463.96
597.662	29398.42
597.859	29615.51
598.055	29615.51
598.252	29431.19
598.448	29167
598.645	29087.13
598.841	28896.67
599.038	29400.47
599.234	29210.01
599.431	28626.34
599.627	28544.42
599.824	28962.2
600.02	28288.42
600.217	28476.83
600.413	28364.2
600.609	28392.87
600.806	27925.93
601.002	28036.52
601.198	28202.41
601.395	27946.41
601.591	27815.34
601.787	27760.05
601.984	27784.62
602.18	28108.2
602.376	27680.17
602.572	27766.19
602.769	27534.77
602.965	27368.88
603.161	27471.28
603.357	27569.58
603.553	26940.86
603.75	27043.26
603.946	27145.66
604.142	27076.02
604.338	26611.14
604.534	26787.26
604.73	26756.54
604.926	26586.56
605.122	26971.58
605.318	26230.21
605.514	26242.5
605.71	26529.22
605.906	26400.19
606.102	26365.38
606.298	26361.28
606.494	26123.72
606.69	26492.35
606.886	26422.72
607.082	25806.28
607.278	26211.78
607.474	25722.32
607.67	25972.17
607.866	25753.04
608.062	25998.79
608.257	25710.03
608.453	25839.05
608.649	25662.93
608.845	25419.22
609.041	25271.76
609.236	25673.17
609.432	25263.57
609.628	25503.18
609.824	25279.96
610.019	25322.96
610.215	25163.22
610.411	25550.29
610.606	25066.97
610.802	25165.27
610.998	25265.62
611.193	25052.63
611.389	25028.06
611.584	24704.48
611.78	25052.63
611.976	25322.96
612.171	25169.37
612.367	24587.74
612.562	24647.13
612.758	24317.41
612.953	24348.13
613.149	24964.57
613.344	24311.27
613.539	24813.02
613.735	24640.99
613.93	24456.67
614.126	24516.06
614.321	24571.36
614.517	24501.73
614.712	24337.89
614.907	24161.76
615.103	24260.07
615.298	24311.27
615.493	24313.31
615.688	23969.26
615.884	24325.6
616.079	23795.18
616.274	24088.04
616.47	23803.37
616.665	23944.68
616.86	23897.58
617.055	23643.63
617.25	23707.12
617.445	23856.62
617.641	23530.99
617.836	23801.32
618.031	23264.75
618.226	23297.52
618.421	23268.85
618.616	23434.74
618.811	23049.72
619.006	23207.41
619.201	23143.92
619.396	23037.43
619.591	23092.72
619.786	22912.5
619.981	22627.84
620.176	22806.01
620.371	22320.64
620.566	22408.7
620.761	22494.72
620.956	22420.99
621.151	22255.11
621.346	22142.47
621.541	21859.85
621.735	22160.9
621.93	21700.11
622.125	21825.03
622.32	21566.99
622.515	21683.72
622.709	21405.2
622.904	21601.8
623.099	21128.72
623.294	21263.89
623.488	20712.99
623.683	21177.87
623.878	20690.46
624.072	20614.68
624.267	20829.72
624.462	20614.68
624.656	20395.55
624.851	20366.88
625.046	20270.62
625.24	19961.38
625.435	20117.03
625.629	19811.88
625.824	20106.79
626.018	19705.38
626.213	19496.49
626.407	19998.24
626.602	19346.99
626.796	19293.74
626.991	19254.83
627.185	18978.36
627.38	18921.01
627.574	18892.34
627.768	18622.01
627.963	18630.2
628.157	18527.8
628.352	18654.78
628.546	18478.65
628.74	18681.4
628.935	18413.12
629.129	18554.43
629.323	17837.64
629.517	17790.53
629.712	17894.98
629.906	17798.73
630.1	17653.32
630.294	17946.18
630.489	17569.35
630.683	17661.51
630.877	17339.98
631.071	17124.94
631.265	17438.28
631.459	17079.89
631.653	16883.28
631.848	16918.1
632.042	16586.33
632.236	17067.6
632.43	16748.12
632.624	16459.35
632.818	16563.8
633.012	16436.83
633.206	16580.18
633.4	16293.47
633.594	16148.06
633.788	16141.92
633.982	16082.53
634.176	15953.51
634.369	16080.48
634.563	15883.87
634.757	15844.96
634.951	15627.88
635.145	15627.88
635.339	15545.96
635.533	15294.06
635.726	15461.99
635.92	15119.98
636.114	15519.34
636.308	14964.34
636.501	15105.65
636.695	15191.66
636.889	14931.57
637.083	14663.29
637.276	14646.9
637.47	14751.35
637.664	14550.65
637.857	14691.96
638.051	14405.24
638.244	14200.44
638.438	14440.06
638.632	14528.12
638.825	14220.92
639.019	13715.08
639.212	14233.21
639.406	13936.26
639.599	13995.65
639.793	13952.64
639.986	13518.47
640.18	13659.78
640.373	13616.77
640.567	13485.7
640.76	13526.66
640.954	13366.92
641.147	13358.73
641.34	13332.11
641.534	13354.63
641.727	13207.18
641.92	13139.6
642.114	12793.49
642.307	13020.81
642.5	12932.75
642.694	12830.35
642.887	12889.74
643.08	12928.66
643.273	12766.87
643.467	12641.94
643.66	12537.49
643.853	12510.87
644.046	12158.62
644.239	12410.52
644.432	12119.71
644.626	12129.95
644.819	12023.45
645.012	12199.58
645.205	12103.32
645.398	11943.58
645.591	11708.07
645.784	11906.72
645.977	11697.83
646.17	11890.34
646.363	11720.35
646.556	11558.56
646.749	11789.99
646.942	11587.24
647.135	11316.9
647.328	11431.59
647.521	11337.38
647.714	11271.85
647.907	11304.62
648.099	11171.5
648.292	11124.4
648.485	10987.18
648.678	11116.2
648.871	10954.41
649.064	10792.62
649.256	10952.37
649.449	10612.4
649.642	10612.4
649.835	10618.55
650.027	10641.07
650.22	10649.27
650.413	10344.12
650.605	10512.05
650.798	10489.53
650.991	10170.04
651.183	10397.37
651.376	10237.63
651.568	10340.02
651.761	10350.26
651.954	9969.34
652.146	9998.01
652.339	10057.4
652.531	9909.95
652.724	9993.92
652.916	9797.31
653.109	9647.81
653.301	9823.94
653.494	9656
653.686	9623.23
653.879	9791.17
654.071	9367.24
654.263	9516.74
654.456	9369.29
654.648	9705.15
654.84	9199.3
655.033	9182.92
655.225	9184.97
655.417	9238.22
655.61	9213.64
655.802	9098.95
655.994	9205.45
656.186	9201.35
656.379	9062.09
656.571	9002.7
656.763	9019.08
656.955	8775.38
657.148	8885.97
657.34	8859.34
657.532	8695.5
657.724	8720.08
657.916	8611.54
658.108	8660.69
658.3	8519.38
658.492	8720.08
658.684	8484.56
658.876	8419.03
659.068	8408.79
659.26	8433.36
659.452	8244.95
659.644	8054.49
659.836	8027.87
660.028	8195.8
660.22	8113.88
660.412	8034.01
660.604	7958.24
660.796	8019.67
660.988	7902.94
661.18	7775.97
661.372	8040.15
661.563	7864.03
661.755	7749.34
661.947	7814.88
662.139	7773.92
662.331	7698.14
662.522	7661.28
662.714	7532.26
662.906	7472.87
663.097	7519.97
663.289	7335.65
663.481	7511.78
663.673	7436
663.864	7399.14
664.056	7364.32
664.247	7448.29
664.439	7220.97
664.631	7304.93
664.822	7202.54
665.014	7257.83
665.205	7159.53
665.397	7036.65
665.588	7239.4
665.78	6989.55
665.971	6917.87
666.163	6893.29
666.354	6883.05
666.546	6870.76
666.737	6721.26
666.929	6754.03
667.12	6874.86
667.311	6799.09
667.503	6717.17
667.694	6582
667.885	6598.38
668.077	6446.83
668.268	6647.54
668.459	6504.18
668.651	6532.85
668.842	6459.12
669.033	6471.41
669.224	6360.82
669.416	6336.24
669.607	6326
669.798	6268.66
669.989	6461.17
670.18	6297.33
670.371	6213.37
670.563	6205.17
670.754	6203.13
670.945	6098.68
671.136	6176.5
671.327	6178.55
671.518	6082.3
671.709	6061.82
671.9	6029.05
672.091	6151.93
672.282	5928.7
672.473	5895.93
672.664	5930.75
672.855	5959.42
673.046	5973.75
673.237	5963.51
673.428	5779.2
673.619	5818.11
673.809	5764.86
674	5764.86
674.191	5781.25
674.382	5517.06
674.573	5754.62
674.764	5900.03
674.954	5613.31
675.145	5639.94
675.336	5592.83
675.527	5590.78
675.717	5525.25
675.908	5644.03
676.099	5562.11
676.289	5322.5
676.48	5535.49
676.671	5373.7
676.861	5461.76
677.052	5408.51
677.243	5400.32
677.433	5377.8
677.624	5326.6
677.814	5379.84
678.005	5396.23
678.195	5328.64
678.386	5263.11
678.576	5273.35
678.767	5201.67
678.957	5117.7
679.148	5310.21
679.338	5203.72
679.529	5142.28
679.719	5138.18
679.909	5078.79
680.1	5050.12
680.29	5168.9
680.481	5000.97
680.671	5070.6
680.861	4970.25
681.052	4917
681.242	4863.76
681.432	5148.42
681.622	5021.45
681.813	4947.72
682.003	4939.53
682.193	4740.88
682.383	4960.01
682.573	4749.07
682.764	4816.65
682.954	4902.67
683.144	4779.79
683.334	4865.8
683.524	4683.53
683.714	4867.85
683.904	4802.32
684.094	4722.45
684.284	4640.53
684.474	4912.91
684.664	4699.92
684.854	4787.98
685.044	4581.14
685.234	4724.49
685.424	4466.45
685.614	4486.93
685.804	4435.73
685.994	4431.63
686.184	4646.67
686.374	4413.2
686.564	4460.31
686.753	4378.39
686.943	4439.83
687.133	4443.92
687.323	4462.35
687.513	4341.52
687.702	4450.07
687.892	4327.19
688.082	4390.67
688.272	4273.94
688.461	4321.04
688.651	4316.95
688.841	4239.12
689.03	4245.27
689.22	4171.54
689.41	4196.12
689.599	4159.25
689.789	4167.45
689.979	4157.21
690.168	4196.12
690.358	4222.74
690.547	4032.28
690.737	4140.82
690.926	4048.66
691.116	3942.17
691.305	3993.37
691.495	3921.69
691.684	3903.26
691.874	3938.07
692.063	4044.57
692.252	4030.23
692.442	3774.24
692.631	3854.11
692.82	3804.96
693.01	3882.78
693.199	3817.24
693.388	3688.22
693.578	3772.19
693.767	3759.9
693.956	3716.89
694.146	3579.68
694.335	3720.99
694.524	3616.54
694.713	3702.56
694.902	3645.21
695.092	3720.99
695.281	3680.03
695.47	3663.65
695.659	3608.35
695.848	3555.1
696.037	3594.01
696.226	3565.34
696.415	3436.32
696.604	3516.19
696.793	3610.4
696.982	3548.96
697.171	3542.82
697.36	3544.86
697.549	3452.7
697.738	3448.61
697.927	3428.13
698.116	3471.14
698.305	3454.75
698.494	3421.99
698.683	3479.33
698.872	3387.17
699.061	3395.36
699.25	3419.94
699.438	3376.93
699.627	3307.3
699.816	3286.82
700.005	3430.18
700.193	3325.73
700.382	3354.4
700.571	3397.41
700.76	3381.03
700.948	3286.82
701.137	3338.02
701.326	3370.79
701.514	3270.44
701.703	3338.02
701.892	3159.85
702.08	3100.45
702.269	3311.39
702.457	3227.43
702.646	3088.17
702.834	3157.8
703.023	3313.44
703.212	3239.72
703.4	3270.44
703.589	3116.84
703.777	3088.17
703.965	3071.78
704.154	3188.52
704.342	3077.93
704.531	3149.61
704.719	3151.65
704.907	3110.69
705.096	3086.12
705.284	3032.87
705.472	3163.94
705.661	3045.16
705.849	3161.89
706.037	3034.92
706.226	2950.95
706.414	3098.41
706.602	3036.97
706.79	2950.95
706.979	3034.92
707.167	3010.34
707.355	3018.54
707.543	3022.63
707.731	3165.99
707.919	3094.31
708.107	3063.59
708.296	3059.49
708.484	2912.04
708.672	3098.41
708.86	3077.93
709.048	3106.6
709.236	3012.39
709.424	3047.21
709.612	3053.35
709.8	3047.21
709.988	2987.82
710.176	3022.63
710.364	3116.84
710.551	3059.49
710.739	3174.18
710.927	2889.51
711.115	3016.49
711.303	3067.69
711.491	3131.17
711.679	2953
711.866	2942.76
712.054	2969.38
712.242	2903.85
712.43	3061.54
712.617	2938.66
712.805	2887.47
712.993	2885.42
713.181	2963.24
713.368	3028.78
713.556	2881.32
713.744	2885.42
713.931	2909.99
714.119	2920.23
714.306	2993.96
714.494	3000.1
714.682	3034.92
714.869	2858.79
715.057	2879.27
715.244	2780.97
715.432	2866.99
715.619	3010.34
715.807	2844.46
715.994	2862.89
716.182	2864.94
716.369	2975.53
716.556	2889.51
716.744	2893.61
716.931	2912.04
717.119	2901.8
717.306	2924.33
717.493	2866.99
717.681	2823.98
717.868	2891.56
718.055	2758.44
718.242	2785.07
718.43	2850.6
718.617	2869.03
718.804	2801.45
718.991	2864.94
719.179	2723.63
719.366	2940.71
719.553	2873.13
719.74	2813.74
719.927	2907.94
720.114	2750.25
720.301	2725.68
720.488	2731.82
720.676	2842.41
720.863	2803.5
721.05	2834.22
721.237	2871.08
721.424	2840.36
721.611	2858.79
721.798	2637.61
721.985	2797.35
722.172	2815.79
722.358	2807.59
722.545	2926.38
722.732	2752.3
722.919	2807.59
723.106	2748.2
723.293	2746.16
723.48	2699.05
723.667	2672.43
723.853	2733.87
724.04	2674.48
724.227	2809.64
724.414	2733.87
724.6	2690.86
724.787	2881.32
724.974	2764.59
725.161	2756.4
725.347	2750.25
725.534	2721.58
725.72	2752.3
725.907	2783.02
726.094	2793.26
726.28	2627.37
726.467	2662.19
726.653	2705.2
726.84	2621.23
727.027	2737.96
727.213	2756.4
727.4	2760.49
727.586	2758.44
727.773	2760.49
727.959	2785.07
728.145	2596.65
728.332	2613.04
728.518	2668.33
728.705	2684.72
728.891	2625.33
729.077	2713.39
729.264	2670.38
729.45	2651.95
729.636	2795.31
729.823	2772.78
730.009	2733.87
730.195	2664.24
730.382	2625.33
730.568	2713.39
730.754	2680.62
730.94	2680.62
731.126	2641.71
731.313	2694.96
731.499	2692.91
731.685	2762.54
731.871	2676.52
732.057	2572.08
732.243	2602.8
732.429	2697
732.615	2688.81
732.801	2633.52
732.987	2610.99
733.173	2707.24
733.359	2697
733.545	2686.76
733.731	2666.28
733.917	2563.89
734.103	2709.29
734.289	2660.14
734.475	2660.14
734.661	2660.14
734.847	2641.71
735.033	2549.55
735.219	2637.61
735.404	2637.61
735.59	2604.85
735.776	2641.71
735.962	2688.81
736.148	2692.91
736.333	2701.1
736.519	2680.62
736.705	2504.5
736.89	2572.08
737.076	2551.6
737.262	2553.65
737.447	2559.79
737.633	2527.02
737.819	2465.58
738.004	2594.61
738.19	2563.89
738.375	2565.93
738.561	2481.97
738.747	2479.92
738.932	2535.21
739.118	2477.87
739.303	2484.02
739.489	2522.93
739.674	2570.03
739.859	2500.4
740.045	2492.21
740.23	2402.1
740.416	2373.43
740.601	2438.96
740.786	2490.16
740.972	2416.43
741.157	2512.69
741.342	2332.47
741.528	2416.43
741.713	2383.66
741.898	2352.95
742.084	2467.63
742.269	2334.51
742.454	2404.14
742.639	2361.14
742.824	2346.8
743.01	2307.89
743.195	2422.58
743.38	2336.56
743.565	2381.62
743.75	2279.22
743.935	2301.75
744.12	2414.38
744.305	2316.08
744.49	2324.27
744.675	2324.27
744.86	2137.91
745.045	2357.04
745.23	2201.4
745.415	2187.06
745.6	2223.92
745.785	2256.69
745.97	2193.2
746.155	2232.12
746.34	2225.97
746.525	2154.29
746.71	2150.2
746.895	2053.94
747.079	2119.48
747.264	2158.39
747.449	2150.2
747.634	2074.42
747.819	2029.37
748.003	2119.48
748.188	2031.41
748.373	2076.47
748.557	2049.85
748.742	1996.6
748.927	1988.41
749.111	2062.13
749.296	2002.74
749.481	1929.02
749.665	1945.4
749.85	1924.92
750.034	1935.16
750.219	1775.42
750.404	1924.92
750.588	1912.63
750.773	1845.05
750.957	1937.21
751.141	1787.71
751.326	1898.3
751.51	1808.19
751.695	1677.12
751.879	1818.43
752.064	1750.84
752.248	1890.1
752.432	1759.03
752.617	1687.36
752.801	1752.89
752.985	1693.5
753.17	1685.31
753.354	1797.95
753.538	1650.49
753.722	1685.31
753.907	1619.77
754.091	1750.84
754.275	1716.03
754.459	1560.38
754.643	1605.44
754.828	1634.11
755.012	1654.59
755.196	1619.77
755.38	1591.1
755.564	1488.7
755.748	1603.39
755.932	1507.13
756.116	1525.57
756.3	1603.39
756.484	1558.33
756.668	1435.46
756.852	1451.84
757.036	1441.6
757.22	1453.89
757.404	1466.17
757.588	1527.61
757.772	1572.67
757.956	1439.55
758.14	1509.18
758.323	1353.54
758.507	1441.6
758.691	1398.59
758.875	1382.21
759.059	1480.51
759.242	1367.87
759.426	1425.22
759.61	1247.04
759.794	1281.86
759.977	1431.36
760.161	1398.59
760.345	1410.88
760.528	1376.06
760.712	1226.56
760.895	1345.34
761.079	1396.54
761.263	1374.02
761.446	1318.72
761.63	1300.29
761.813	1326.91
761.997	1267.52
762.18	1249.09
762.364	1292.1
762.547	1158.98
762.731	1201.99
762.914	1191.75
763.098	1181.51
763.281	1171.27
763.464	1294.15
763.648	1244.99
763.831	1152.84
764.015	1095.49
764.198	1175.36
764.381	1101.64
764.564	1214.27
764.748	1173.32
764.931	1193.8
765.114	1175.36
765.297	1068.87
765.481	1134.4
765.664	1148.74
765.847	1134.4
766.03	1152.84
766.213	1089.35
766.397	1152.84
766.58	1130.31
766.763	1115.97
766.946	1077.06
767.129	1070.92
767.312	1134.4
767.495	1165.12
767.678	1066.82
767.861	1101.64
768.044	1017.67
768.227	1029.96
768.41	1134.4
768.593	1083.2
768.776	1032.01
768.959	1087.3
769.142	1085.25
769.324	1095.49
769.507	1120.07
769.69	1050.44
769.873	1003.33
770.056	1064.77
770.239	1097.54
770.421	1050.44
770.604	1050.44
770.787	931.66
770.97	1066.82
771.152	948.04
771.335	960.33
771.518	978.76
771.7	995.14
771.883	970.57
772.066	980.81
772.248	1027.91
772.431	943.94
772.613	898.89
772.796	835.4
772.978	933.7
773.161	982.85
773.343	909.13
773.526	948.04
773.708	892.74
773.891	905.03
774.073	890.7
774.256	876.36
774.438	888.65
774.621	911.18
774.803	864.07
774.985	894.79
775.168	962.37
775.35	876.36
775.532	847.69
775.715	771.91
775.897	902.98
776.079	851.78
776.261	876.36
776.444	857.93
776.626	778.06
776.808	767.82
776.99	747.34
777.173	773.96
777.355	741.19
777.537	776.01
777.719	716.62
777.901	765.77
778.083	804.68
778.265	646.99
778.447	786.25
778.629	677.71
778.811	730.95
778.993	696.14
779.175	694.09
779.357	757.58
779.539	681.8
779.721	788.3
779.903	704.33
780.085	651.08
780.267	620.36
780.449	683.85
780.631	712.52
780.812	767.82
780.994	644.94
781.176	694.09
781.358	724.81
781.54	640.84
781.721	679.75
781.903	692.04
782.085	587.6
782.267	616.27
782.448	485.2
782.63	587.6
782.812	636.75
782.993	659.28
783.175	667.47
783.357	546.64
783.538	552.78
783.72	587.6
783.901	634.7
784.083	597.84
784.264	552.78
784.446	550.73
784.627	595.79
784.809	548.68
784.99	579.4
785.172	538.45
785.353	571.21
785.535	534.35
785.716	501.58
785.897	520.01
786.079	515.92
786.26	450.38
786.441	505.68
786.623	477.01
786.804	487.25
786.985	505.68
787.167	538.45
787.348	448.33
787.529	452.43
787.71	515.92
787.891	499.53
788.073	434
788.254	440.14
788.435	386.9
788.616	489.29
788.797	352.08
788.978	483.15
789.159	397.14
789.34	393.04
789.522	409.42
789.703	470.86
789.884	487.25
790.065	421.71
790.246	456.53
790.427	423.76
790.607	462.67
790.788	423.76
790.969	378.7
791.15	452.43
791.331	425.81
791.512	378.7
791.693	350.03
791.874	409.42
792.054	403.28
792.235	425.81
792.416	413.52
792.597	347.98
792.778	423.76
792.958	350.03
793.139	468.81
793.32	444.24
793.5	337.74
793.681	380.75
793.862	372.56
794.042	378.7
794.223	331.6
794.404	399.18
794.584	243.54
794.765	354.13
794.945	401.23
795.126	374.61
795.306	382.8
795.487	347.98
795.667	345.94
795.848	325.46
796.028	358.22
796.209	345.94
796.389	411.47
796.57	405.33
796.75	345.94
796.93	374.61
797.111	343.89
797.291	333.65
797.471	292.69
797.652	323.41
797.832	292.69
798.012	327.5
798.192	358.22
798.373	255.83
798.553	350.03
798.733	345.94
798.913	257.87
799.093	323.41
799.274	251.73
799.454	298.83
799.634	343.89
799.814	337.74
799.994	290.64
800.174	231.25
800.354	274.26
800.534	300.88
800.714	300.88
800.894	249.68
801.074	196.43
801.254	276.31
801.434	272.21
801.614	259.92
801.794	247.63
801.974	642.89
802.154	241.49
802.334	317.26
802.514	239.44
802.693	196.43
802.873	298.83
803.053	225.11
803.233	284.5
803.413	243.54
803.592	255.83
803.772	278.35
803.952	257.87
804.131	239.44
804.311	278.35
804.491	304.98
804.67	270.16
804.85	210.77
805.03	325.46
805.209	284.5
805.389	290.64
805.568	255.83
805.748	282.45
805.928	235.35
806.107	264.02
806.287	227.15
806.466	204.63
806.646	298.83
806.825	284.5
807.004	198.48
807.184	214.87
807.363	227.15
807.543	198.48
807.722	272.21
807.901	245.59
808.081	241.49
808.26	245.59
808.439	229.2
808.619	137.04
808.798	229.2
808.977	214.87
809.156	243.54
809.336	192.34
809.515	247.63
809.694	167.76
809.873	223.06
810.052	216.91
810.231	294.74
810.411	210.77
810.59	167.76
810.769	229.2
810.948	159.57
811.127	173.91
811.306	194.39
811.485	218.96
811.664	221.01
811.843	169.81
812.022	206.67
812.201	106.32
812.38	218.96
812.559	239.44
812.737	225.11
812.916	157.52
813.095	112.47
813.274	227.15
813.453	141.14
813.632	225.11
813.811	225.11
813.989	149.33
814.168	233.3
814.347	169.81
814.526	143.19
814.704	165.71
814.883	210.77
815.062	167.76
815.24	139.09
815.419	208.72
815.598	130.9
815.776	163.67
815.955	255.83
816.133	100.18
816.312	173.91
816.49	167.76
816.669	110.42
816.847	149.33
817.026	218.96
817.204	184.15
817.383	135
817.561	175.95
817.74	194.39
817.918	147.28
818.097	137.04
818.275	104.28
818.453	218.96
818.632	155.47
818.81	161.62
818.988	167.76
819.167	124.76
819.345	171.86
819.523	163.67
819.701	182.1
819.879	196.43
820.058	161.62
820.236	165.71
820.414	229.2
820.592	137.04
820.77	114.52
820.948	48.98
821.127	135
821.305	141.14
821.483	110.42
821.661	161.62
821.839	122.71
822.017	110.42
822.195	106.32
822.373	124.76
822.551	202.58
822.729	206.67
822.907	169.81
823.085	161.62
823.262	141.14
823.44	106.32
823.618	98.13
823.796	46.93
823.974	51.03
824.152	110.42
824.329	83.8
824.507	46.93
824.685	196.43
824.863	42.84
825.04	63.32
825.218	91.99
825.396	102.23
825.574	167.76
825.751	91.99
825.929	124.76
826.107	145.24
826.284	71.51
826.462	167.76
826.639	143.19
826.817	159.57
826.994	126.8
827.172	110.42
827.349	157.52
827.527	128.85
827.704	169.81
827.882	169.81
828.059	81.75
828.237	67.41
828.414	147.28
828.591	94.04
828.769	110.42
828.946	87.89
829.124	71.51
829.301	91.99
829.478	61.27
829.655	26.45
829.833	87.89
830.01	65.36
830.187	120.66
830.364	79.7
830.542	96.08
830.719	91.99
830.896	55.12
831.073	110.42
831.25	147.28
831.427	120.66
831.604	46.93
831.782	87.89
831.959	46.93
832.136	137.04
832.313	87.89
832.49	46.93
832.667	102.23
832.844	24.4
833.021	96.08
833.198	89.94
833.374	135
833.551	79.7
833.728	102.23
833.905	124.76
834.082	32.6
834.259	87.89
834.436	112.47
834.612	77.65
834.789	116.56
834.966	63.32
835.143	79.7
835.319	-6.31
835.496	102.23
835.673	10.07
835.85	36.69
836.026	42.84
836.203	94.04
836.38	38.74
836.556	83.8
836.733	83.8
836.909	61.27
837.086	149.33
837.262	44.88
837.439	48.98
837.616	40.79
837.792	46.93
837.968	65.36
838.145	85.84
838.321	28.5
838.498	71.51
838.674	112.47
838.851	102.23
839.027	28.5
839.203	83.8
839.38	94.04
839.556	42.84
839.732	63.32
839.909	38.74
840.085	55.12
840.261	87.89
840.437	46.93
840.614	75.6
840.79	110.42
840.966	40.79
841.142	85.84
841.318	83.8
841.494	98.13
841.671	77.65
841.847	24.4
842.023	57.17
842.199	55.12
842.375	32.6
842.551	57.17
842.727	38.74
842.903	75.6
843.079	30.55
843.255	91.99
843.431	-4.27
843.607	173.91
843.783	51.03
843.959	26.45
844.134	30.55
844.31	126.8
844.486	59.22
844.662	-0.17
844.838	14.17
845.013	65.36
845.189	55.12
845.365	59.22
845.541	34.64
845.716	22.36
845.892	48.98
846.068	102.23
846.244	51.03
846.419	59.22
846.595	69.46
846.77	79.7
846.946	55.12
847.122	-4.27
847.297	22.36
847.473	98.13
847.648	5.97
847.824	63.32
847.999	12.12
848.175	51.03
848.35	46.93
848.526	85.84
848.701	26.45
848.876	126.8
849.052	69.46
849.227	42.84
849.403	14.17
849.578	-2.22
849.753	1.88
849.929	24.4
850.104	-0.17
850.279	30.55
850.454	83.8
850.63	83.8
850.805	12.12
850.98	112.47
851.155	26.45
851.33	3.93
851.505	94.04
851.681	118.61
851.856	108.37
852.031	157.52
852.206	81.75
852.381	87.89
852.556	65.36
852.731	98.13
852.906	89.94
853.081	128.85
853.256	30.55
853.431	42.84
853.606	-22.7
853.781	34.64
853.956	-2.22
854.131	44.88
854.305	24.4
854.48	77.65
854.655	46.93
854.83	36.69
855.005	89.94
855.18	71.51
855.354	69.46
855.529	16.21
855.704	-10.41
855.879	-10.41
856.053	100.18
856.228	26.45
856.403	73.56
856.577	71.51
856.752	69.46
856.926	3.93
857.101	-0.17
857.276	85.84
857.45	5.97
857.625	126.8
857.799	77.65
857.974	3.93
858.148	-10.41
858.323	-20.65
858.497	28.5
858.672	8.02
858.846	10.07
859.02	40.79
859.195	8.02
859.369	48.98
859.543	20.31
859.718	46.93
859.892	14.17
860.066	30.55
860.241	104.28
860.415	85.84
860.589	16.21
860.763	12.12
860.938	61.27
861.112	36.69
861.286	36.69
861.46	75.6
861.634	18.26
861.808	8.02
861.982	-43.18
862.157	77.65
862.331	-12.46
862.505	55.12
862.679	-39.08
862.853	55.12
863.027	32.6
863.201	30.55
863.375	-53.42
863.549	32.6
863.722	22.36
863.896	36.69
864.07	-69.8
864.244	-24.75
864.418	24.4
864.592	-8.36
864.766	28.5
864.939	-32.94
865.113	-14.51
865.287	61.27
865.461	-92.33
865.634	65.36
865.808	63.32
865.982	69.46
866.156	22.36
866.329	63.32
866.503	-41.13
866.676	79.7
866.85	16.21
867.024	38.74
867.197	85.84
867.371	-0.17
867.544	65.36
867.718	42.84
867.891	83.8
868.065	14.17
868.238	53.08
868.412	16.21
868.585	34.64
868.759	73.56
868.932	-43.18
869.105	-47.27
869.279	75.6
869.452	89.94
869.625	10.07
869.799	63.32
869.972	-4.27
870.145	73.56
870.319	-26.79
870.492	-0.17
870.665	57.17
870.838	-22.7
871.011	-4.27
871.185	-12.46
871.358	36.69
871.531	10.07
871.704	12.12
871.877	48.98
872.05	51.03
872.223	65.36
872.396	20.31
872.569	36.69
872.742	-26.79
872.915	28.5
873.088	16.21
873.261	34.64
873.434	3.93
873.607	-12.46
873.78	48.98
873.953	75.6
874.126	16.21
874.299	28.5
874.471	-41.13
874.644	-0.17
874.817	1.88
874.99	28.5
875.163	-2.22
875.335	34.64
875.508	-10.41
875.681	77.65
875.853	3.93
876.026	36.69
876.199	12.12
876.371	28.5
876.544	-20.65
876.717	59.22
876.889	53.08
877.062	46.93
877.234	-2.22
877.407	-37.03
877.579	12.12
877.752	65.36
877.924	-10.41
878.097	42.84
878.269	-12.46
878.442	20.31
878.614	-2.22
878.786	32.6
878.959	55.12
879.131	30.55
879.303	-45.23
879.476	-59.56
879.648	65.36
879.82	10.07
879.993	-37.03
880.165	-10.41
880.337	44.88
880.509	126.8
880.681	-51.37
880.854	22.36
881.026	-6.31
881.198	-14.51
881.37	-30.89
881.542	-18.6
881.714	87.89
881.886	44.88
882.058	-57.51
882.23	-4.27
882.402	-24.75
882.574	94.04
882.746	-24.75
882.918	16.21
883.09	55.12
883.262	14.17
883.434	10.07
883.606	-2.22
883.778	30.55
883.95	69.46
884.122	28.5
884.293	71.51
884.465	42.84
884.637	46.93
884.809	44.88
884.98	18.26
885.152	-24.75
885.324	30.55
885.496	-41.13
885.667	-6.31
885.839	-14.51
886.011	16.21
886.182	32.6
886.354	61.27
886.525	44.88
886.697	20.31
886.869	28.5
887.04	38.74
887.212	34.64
887.383	26.45
887.555	-49.32
887.726	1.88
887.897	55.12
888.069	32.6
888.24	-22.7
888.412	14.17
888.583	8.02
888.754	38.74
888.926	-2.22
889.097	-69.8
889.268	-32.94
889.44	-24.75
889.611	10.07
889.782	-10.41
889.953	36.69
890.125	67.41
890.296	-14.51
890.467	1.88
890.638	-39.08
890.809	59.22
890.98	-24.75
891.151	-53.42
891.323	79.7
891.494	3.93
891.665	-67.75
891.836	5.97
892.007	10.07
892.178	46.93
892.349	-12.46
892.52	40.79
892.691	-32.94
892.862	-2.22
893.032	5.97
893.203	-34.99
893.374	-32.94
893.545	55.12
893.716	-67.75
893.887	71.51
894.057	32.6
894.228	57.17
894.399	-8.36
894.57	65.36
894.74	57.17
894.911	-28.84
895.082	51.03
895.253	1.88
895.423	42.84
895.594	-0.17
895.764	28.5
895.935	1.88
896.106	30.55
896.276	-10.41
896.447	-34.99
896.617	22.36
896.788	20.31
896.958	-6.31
897.129	26.45
897.299	59.22
897.47	-30.89
897.64	38.74
897.81	20.31
897.981	-49.32
898.151	-8.36
898.322	-18.6
898.492	1.88
898.662	-28.84
898.832	-39.08
899.003	-0.17
899.173	-57.51
899.343	26.45
899.513	-49.32
