Data from USB4F104151__71__12-27-45-892.txt Node

Date: Fri Mar 14 12:27:45 EDT 2025
User: louis
Spectrometer: USB4F10415
Trigger mode: 4
Integration Time (sec): 2.000000E-2
Scans to average: 1
Electric dark correction enabled: true
Nonlinearity correction enabled: false
Boxcar width: 0
XAxis mode: Wavelengths
Number of Pixels in Spectrum: 3648
>>>>>Begin Spectral Data<<<<<
178.204	-60.07
178.424	-60.07
178.644	-60.07
178.864	-103.08
179.084	-90.79
179.304	-19.11
179.524	1.37
179.744	-25.26
179.964	-19.11
180.184	36.18
180.404	23.89
180.624	-55.98
180.844	30.04
181.064	-19.11
181.283	38.23
181.503	-29.35
181.723	38.23
181.943	15.7
182.163	-27.31
182.383	38.23
182.602	21.84
182.822	-4.78
183.042	46.42
183.262	30.04
183.482	-0.68
183.701	1.37
183.921	15.7
184.141	-27.31
184.361	109.91
184.58	5.46
184.8	71
185.02	-25.26
185.239	-17.07
185.459	9.56
185.679	48.47
185.898	11.61
186.118	44.37
186.338	54.61
186.557	71
186.777	27.99
186.997	7.51
187.216	36.18
187.436	58.71
187.655	46.42
187.875	42.32
188.095	-21.16
188.314	3.41
188.534	23.89
188.753	-15.02
188.973	23.89
189.192	-4.78
189.412	5.46
189.631	48.47
189.851	-94.89
190.07	52.56
190.29	-4.78
190.509	-21.16
190.729	-10.92
190.948	-27.31
191.168	75.09
191.387	3.41
191.607	5.46
191.826	36.18
192.045	17.75
192.265	-2.73
192.484	-4.78
192.704	46.42
192.923	-68.27
193.142	30.04
193.362	-25.26
193.581	3.41
193.8	75.09
194.02	19.8
194.239	11.61
194.458	73.04
194.678	-2.73
194.897	73.04
195.116	-29.35
195.335	64.85
195.555	-10.92
195.774	-6.83
195.993	40.28
196.212	19.8
196.432	5.46
196.651	11.61
196.87	46.42
197.089	71
197.308	66.9
197.528	58.71
197.747	3.41
197.966	42.32
198.185	103.76
198.404	5.46
198.623	68.95
198.842	-2.73
199.062	-8.87
199.281	32.08
199.5	27.99
199.719	38.23
199.938	3.41
200.157	23.89
200.376	66.9
200.595	-12.97
200.814	38.23
201.033	-51.88
201.252	19.8
201.471	-12.97
201.69	-10.92
201.909	15.7
202.128	25.94
202.347	85.33
202.566	34.13
202.785	-25.26
203.004	-15.02
203.223	128.34
203.442	32.08
203.661	-6.83
203.879	32.08
204.098	44.37
204.317	19.8
204.536	56.66
204.755	64.85
204.974	-27.31
205.193	48.47
205.411	19.8
205.63	71
205.849	23.89
206.068	-6.83
206.287	42.32
206.505	52.56
206.724	62.8
206.943	-0.68
207.162	68.95
207.381	50.52
207.599	-55.98
207.818	13.65
208.037	-31.4
208.255	-27.31
208.474	-6.83
208.693	-8.87
208.911	73.04
209.13	44.37
209.349	19.8
209.567	1.37
209.786	-35.5
210.005	-6.83
210.223	-0.68
210.442	-8.87
210.661	-17.07
210.879	-8.87
211.098	71
211.316	44.37
211.535	38.23
211.753	60.76
211.972	79.19
212.191	30.04
212.409	34.13
212.628	7.51
212.846	15.7
213.065	-12.97
213.283	42.32
213.502	34.13
213.72	-19.11
213.938	36.18
214.157	109.91
214.375	-2.73
214.594	-4.78
214.812	-33.45
215.031	17.75
215.249	-37.55
215.467	-6.83
215.686	-4.78
215.904	81.24
216.122	-39.59
216.341	73.04
216.559	40.28
216.778	105.81
216.996	64.85
217.214	54.61
217.432	99.67
217.651	46.42
217.869	21.84
218.087	7.51
218.306	3.41
218.524	46.42
218.742	30.04
218.96	-62.12
219.179	60.76
219.397	-19.11
219.615	62.8
219.833	17.75
220.051	7.51
220.27	60.76
220.488	36.18
220.706	-23.21
220.924	40.28
221.142	5.46
221.36	73.04
221.578	66.9
221.796	-70.31
222.015	30.04
222.233	32.08
222.451	71
222.669	-4.78
222.887	101.72
223.105	-66.22
223.323	66.9
223.541	3.41
223.759	105.81
223.977	62.8
224.195	-2.73
224.413	-2.73
224.631	5.46
224.849	13.65
225.067	83.28
225.285	-8.87
225.503	17.75
225.721	-39.59
225.939	36.18
226.157	3.41
226.375	71
226.592	-47.79
226.81	7.51
227.028	17.75
227.246	-12.97
227.464	44.37
227.682	66.9
227.9	40.28
228.117	56.66
228.335	-12.97
228.553	11.61
228.771	27.99
228.989	19.8
229.206	56.66
229.424	23.89
229.642	30.04
229.86	36.18
230.077	-17.07
230.295	1.37
230.513	95.57
230.731	60.76
230.948	34.13
231.166	13.65
231.384	-0.68
231.601	56.66
231.819	-19.11
232.037	-2.73
232.254	1.37
232.472	25.94
232.689	71
232.907	136.53
233.125	38.23
233.342	56.66
233.56	52.56
233.777	60.76
233.995	19.8
234.213	93.52
234.43	-37.55
234.648	46.42
234.865	-19.11
235.083	48.47
235.3	17.75
235.518	3.41
235.735	-23.21
235.953	99.67
236.17	36.18
236.388	-49.83
236.605	23.89
236.822	48.47
237.04	1.37
237.257	19.8
237.475	9.56
237.692	52.56
237.909	-4.78
238.127	19.8
238.344	50.52
238.562	40.28
238.779	-12.97
238.996	58.71
239.214	-19.11
239.431	23.89
239.648	-78.51
239.865	-2.73
240.083	79.19
240.3	7.51
240.517	56.66
240.735	-35.5
240.952	25.94
241.169	34.13
241.386	40.28
241.603	66.9
241.821	-41.64
242.038	66.9
242.255	11.61
242.472	30.04
242.689	-27.31
242.907	93.52
243.124	-17.07
243.341	5.46
243.558	9.56
243.775	-29.35
243.992	-43.69
244.209	25.94
244.426	66.9
244.643	-8.87
244.86	13.65
245.078	30.04
245.295	7.51
245.512	-15.02
245.729	46.42
245.946	-12.97
246.163	7.51
246.38	38.23
246.597	-12.97
246.814	21.84
247.031	44.37
247.248	71
247.464	40.28
247.681	19.8
247.898	71
248.115	-25.26
248.332	-29.35
248.549	77.14
248.766	56.66
248.983	40.28
249.2	1.37
249.417	58.71
249.633	13.65
249.85	-6.83
250.067	-68.27
250.284	-4.78
250.501	-2.73
250.717	38.23
250.934	-4.78
251.151	83.28
251.368	52.56
251.585	-6.83
251.801	44.37
252.018	-10.92
252.235	107.86
252.451	-2.73
252.668	19.8
252.885	32.08
253.102	68.95
253.318	50.52
253.535	30.04
253.752	-12.97
253.968	-58.03
254.185	36.18
254.401	-27.31
254.618	9.56
254.835	46.42
255.051	40.28
255.268	21.84
255.484	-21.16
255.701	3.41
255.917	15.7
256.134	-23.21
256.351	36.18
256.567	-37.55
256.784	32.08
257	-21.16
257.217	50.52
257.433	66.9
257.65	97.62
257.866	-19.11
258.082	25.94
258.299	27.99
258.515	54.61
258.732	13.65
258.948	79.19
259.165	81.24
259.381	81.24
259.597	48.47
259.814	64.85
260.03	-27.31
260.246	5.46
260.463	25.94
260.679	52.56
260.895	42.32
261.112	111.96
261.328	9.56
261.544	-4.78
261.761	50.52
261.977	27.99
262.193	-62.12
262.409	32.08
262.626	-33.45
262.842	7.51
263.058	25.94
263.274	13.65
263.49	19.8
263.707	36.18
263.923	48.47
264.139	-4.78
264.355	-39.59
264.571	32.08
264.787	-8.87
265.004	17.75
265.22	52.56
265.436	-17.07
265.652	68.95
265.868	-31.4
266.084	13.65
266.3	23.89
266.516	19.8
266.732	52.56
266.948	11.61
267.164	-15.02
267.38	-60.07
267.596	62.8
267.812	81.24
268.028	25.94
268.244	17.75
268.46	27.99
268.676	32.08
268.892	66.9
269.108	48.47
269.324	83.28
269.54	40.28
269.756	52.56
269.972	-23.21
270.188	-37.55
270.403	34.13
270.619	36.18
270.835	56.66
271.051	-41.64
271.267	38.23
271.483	46.42
271.698	73.04
271.914	85.33
272.13	9.56
272.346	42.32
272.562	-25.26
272.777	54.61
272.993	-33.45
273.209	-0.68
273.425	-12.97
273.64	-19.11
273.856	142.68
274.072	56.66
274.287	3.41
274.503	120.15
274.719	103.76
274.934	48.47
275.15	11.61
275.366	60.76
275.581	-21.16
275.797	-19.11
276.012	13.65
276.228	40.28
276.444	81.24
276.659	95.57
276.875	40.28
277.09	50.52
277.306	-25.26
277.521	23.89
277.737	9.56
277.952	9.56
278.168	42.32
278.383	21.84
278.599	40.28
278.814	-0.68
279.03	34.13
279.245	44.37
279.461	27.99
279.676	46.42
279.892	-12.97
280.107	60.76
280.322	-6.83
280.538	58.71
280.753	50.52
280.969	11.61
281.184	-4.78
281.399	62.8
281.615	15.7
281.83	87.38
282.045	60.76
282.26	-23.21
282.476	50.52
282.691	5.46
282.906	77.14
283.122	-19.11
283.337	23.89
283.552	-6.83
283.767	93.52
283.983	38.23
284.198	5.46
284.413	34.13
284.628	-23.21
284.843	79.19
285.058	111.96
285.274	-23.21
285.489	19.8
285.704	42.32
285.919	-12.97
286.134	56.66
286.349	-8.87
286.564	-19.11
286.779	136.53
286.995	122.2
287.21	52.56
287.425	25.94
287.64	32.08
287.855	-31.4
288.07	-41.64
288.285	79.19
288.5	34.13
288.715	40.28
288.93	66.9
289.145	95.57
289.36	48.47
289.575	56.66
289.79	54.61
290.004	3.41
290.219	83.28
290.434	5.46
290.649	23.89
290.864	23.89
291.079	7.51
291.294	56.66
291.509	-47.79
291.724	60.76
291.938	9.56
292.153	130.39
292.368	13.65
292.583	7.51
292.798	19.8
293.012	62.8
293.227	60.76
293.442	23.89
293.657	-6.83
293.871	42.32
294.086	111.96
294.301	79.19
294.516	-0.68
294.73	38.23
294.945	5.46
295.16	56.66
295.374	-23.21
295.589	3.41
295.804	58.71
296.018	38.23
296.233	11.61
296.447	21.84
296.662	-17.07
296.877	-45.74
297.091	5.46
297.306	15.7
297.52	77.14
297.735	50.52
297.949	13.65
298.164	107.86
298.378	17.75
298.593	-33.45
298.807	11.61
299.022	-33.45
299.236	23.89
299.451	25.94
299.665	40.28
299.88	32.08
300.094	-0.68
300.309	5.46
300.523	77.14
300.737	-62.12
300.952	54.61
301.166	19.8
301.381	17.75
301.595	21.84
301.809	15.7
302.024	17.75
302.238	-0.68
302.452	30.04
302.667	23.89
302.881	95.57
303.095	34.13
303.309	32.08
303.524	17.75
303.738	17.75
303.952	-21.16
304.166	54.61
304.381	-68.27
304.595	36.18
304.809	40.28
305.023	-17.07
305.237	13.65
305.452	81.24
305.666	7.51
305.88	52.56
306.094	19.8
306.308	44.37
306.522	64.85
306.736	87.38
306.95	13.65
307.164	27.99
307.379	83.28
307.593	9.56
307.807	27.99
308.021	44.37
308.235	126.29
308.449	-53.93
308.663	-51.88
308.877	77.14
309.091	-60.07
309.305	7.51
309.519	-19.11
309.733	81.24
309.947	54.61
310.161	89.43
310.374	44.37
310.588	17.75
310.802	48.47
311.016	68.95
311.23	56.66
311.444	73.04
311.658	34.13
311.872	25.94
312.085	109.91
312.299	50.52
312.513	56.66
312.727	66.9
312.941	5.46
313.154	-15.02
313.368	30.04
313.582	30.04
313.796	52.56
314.009	17.75
314.223	34.13
314.437	81.24
314.651	11.61
314.864	64.85
315.078	64.85
315.292	-6.83
315.505	-23.21
315.719	42.32
315.933	25.94
316.146	91.48
316.36	-55.98
316.573	54.61
316.787	32.08
317.001	32.08
317.214	15.7
317.428	13.65
317.641	-0.68
317.855	-6.83
318.068	1.37
318.282	-8.87
318.495	-15.02
318.709	46.42
318.922	73.04
319.136	132.44
319.349	11.61
319.563	40.28
319.776	48.47
319.99	-2.73
320.203	52.56
320.417	60.76
320.63	66.9
320.843	81.24
321.057	-15.02
321.27	9.56
321.483	27.99
321.697	75.09
321.91	7.51
322.124	50.52
322.337	111.96
322.55	-2.73
322.763	44.37
322.977	5.46
323.19	3.41
323.403	66.9
323.617	-6.83
323.83	40.28
324.043	-60.07
324.256	148.82
324.469	95.57
324.683	27.99
324.896	56.66
325.109	9.56
325.322	81.24
325.535	87.38
325.748	38.23
325.962	52.56
326.175	27.99
326.388	42.32
326.601	93.52
326.814	5.46
327.027	46.42
327.24	93.52
327.453	36.18
327.666	-10.92
327.879	93.52
328.092	97.62
328.305	75.09
328.518	48.47
328.731	-90.79
328.944	46.42
329.157	19.8
329.37	32.08
329.583	87.38
329.796	87.38
330.009	27.99
330.222	75.09
330.435	-12.97
330.648	15.7
330.861	23.89
331.073	-12.97
331.286	101.72
331.499	71
331.712	38.23
331.925	27.99
332.138	11.61
332.35	116.05
332.563	52.56
332.776	107.86
332.989	89.43
333.202	77.14
333.414	58.71
333.627	15.7
333.84	23.89
334.053	85.33
334.265	83.28
334.478	-37.55
334.691	15.7
334.903	-17.07
335.116	25.94
335.329	60.76
335.541	58.71
335.754	87.38
335.966	40.28
336.179	-19.11
336.392	32.08
336.604	68.95
336.817	93.52
337.029	64.85
337.242	1.37
337.454	85.33
337.667	83.28
337.88	-25.26
338.092	95.57
338.305	36.18
338.517	-37.55
338.729	116.05
338.942	58.71
339.154	-0.68
339.367	11.61
339.579	64.85
339.792	73.04
340.004	54.61
340.217	34.13
340.429	-6.83
340.641	44.37
340.854	36.18
341.066	17.75
341.278	46.42
341.491	34.13
341.703	93.52
341.915	66.9
342.128	85.33
342.34	58.71
342.552	25.94
342.764	-43.69
342.977	1.37
343.189	46.42
343.401	40.28
343.613	34.13
343.826	56.66
344.038	-2.73
344.25	48.47
344.462	-60.07
344.674	109.91
344.886	44.37
345.099	44.37
345.311	27.99
345.523	75.09
345.735	19.8
345.947	-2.73
346.159	46.42
346.371	30.04
346.583	56.66
346.795	85.33
347.007	56.66
347.219	56.66
347.431	32.08
347.643	73.04
347.855	19.8
348.067	118.1
348.279	81.24
348.491	19.8
348.703	66.9
348.915	81.24
349.127	87.38
349.339	46.42
349.551	89.43
349.763	46.42
349.975	3.41
350.187	21.84
350.399	66.9
350.61	-25.26
350.822	23.89
351.034	44.37
351.246	62.8
351.458	87.38
351.669	60.76
351.881	101.72
352.093	17.75
352.305	40.28
352.517	116.05
352.728	27.99
352.94	75.09
353.152	89.43
353.363	7.51
353.575	54.61
353.787	73.04
353.999	-0.68
354.21	23.89
354.422	1.37
354.633	19.8
354.845	68.95
355.057	52.56
355.268	1.37
355.48	13.65
355.692	15.7
355.903	-15.02
356.115	79.19
356.326	-0.68
356.538	48.47
356.749	38.23
356.961	52.56
357.172	64.85
357.384	48.47
357.595	148.82
357.807	66.9
358.018	36.18
358.23	79.19
358.441	56.66
358.653	25.94
358.864	50.52
359.075	27.99
359.287	66.9
359.498	85.33
359.709	25.94
359.921	56.66
360.132	1.37
360.344	54.61
360.555	56.66
360.766	5.46
360.977	15.7
361.189	89.43
361.4	23.89
361.611	46.42
361.823	-12.97
362.034	38.23
362.245	23.89
362.456	128.34
362.667	23.89
362.879	11.61
363.09	38.23
363.301	81.24
363.512	68.95
363.723	73.04
363.935	103.76
364.146	138.58
364.357	-70.31
364.568	60.76
364.779	-10.92
364.99	40.28
365.201	66.9
365.412	105.81
365.623	-6.83
365.834	75.09
366.045	23.89
366.256	116.05
366.467	36.18
366.678	23.89
366.889	46.42
367.1	50.52
367.311	-6.83
367.522	42.32
367.733	15.7
367.944	122.2
368.155	50.52
368.366	89.43
368.577	9.56
368.788	66.9
368.999	1.37
369.209	81.24
369.42	101.72
369.631	68.95
369.842	36.18
370.053	3.41
370.264	101.72
370.474	32.08
370.685	85.33
370.896	93.52
371.107	71
371.317	79.19
371.528	101.72
371.739	54.61
371.95	30.04
372.16	66.9
372.371	-10.92
372.582	75.09
372.792	60.76
373.003	159.06
373.214	38.23
373.424	132.44
373.635	-17.07
373.846	95.57
374.056	-25.26
374.267	-25.26
374.477	-19.11
374.688	42.32
374.898	56.66
375.109	40.28
375.319	48.47
375.53	95.57
375.74	21.84
375.951	19.8
376.161	-31.4
376.372	79.19
376.582	23.89
376.793	30.04
377.003	60.76
377.214	73.04
377.424	23.89
377.635	38.23
377.845	11.61
378.055	97.62
378.266	44.37
378.476	101.72
378.686	46.42
378.897	93.52
379.107	64.85
379.317	93.52
379.528	42.32
379.738	66.9
379.948	13.65
380.158	50.52
380.369	83.28
380.579	71
380.789	64.85
380.999	89.43
381.21	36.18
381.42	114
381.63	-0.68
381.84	58.71
382.05	56.66
382.261	105.81
382.471	71
382.681	54.61
382.891	48.47
383.101	122.2
383.311	64.85
383.521	48.47
383.731	9.56
383.941	19.8
384.151	152.91
384.361	30.04
384.571	40.28
384.781	13.65
384.991	25.94
385.201	85.33
385.411	19.8
385.621	-43.69
385.831	42.32
386.041	138.58
386.251	62.8
386.461	15.7
386.671	46.42
386.881	64.85
387.091	32.08
387.301	17.75
387.511	93.52
387.72	36.18
387.93	23.89
388.14	60.76
388.35	60.76
388.56	83.28
388.769	17.75
388.979	62.8
389.189	42.32
389.399	91.48
389.609	34.13
389.818	118.1
390.028	99.67
390.238	99.67
390.447	81.24
390.657	71
390.867	36.18
391.076	136.53
391.286	34.13
391.496	89.43
391.705	32.08
391.915	105.81
392.125	122.2
392.334	60.76
392.544	56.66
392.753	118.1
392.963	85.33
393.172	5.46
393.382	91.48
393.591	75.09
393.801	40.28
394.01	116.05
394.22	7.51
394.429	52.56
394.639	93.52
394.848	46.42
395.058	27.99
395.267	21.84
395.477	97.62
395.686	122.2
395.895	107.86
396.105	116.05
396.314	144.72
396.524	48.47
396.733	58.71
396.942	85.33
397.152	175.44
397.361	142.68
397.57	134.48
397.78	81.24
397.989	107.86
398.198	183.63
398.407	83.28
398.617	68.95
398.826	60.76
399.035	19.8
399.244	105.81
399.453	36.18
399.663	122.2
399.872	138.58
400.081	87.38
400.29	60.76
400.499	58.71
400.708	95.57
400.917	134.48
401.127	89.43
401.336	107.86
401.545	189.78
401.754	91.48
401.963	132.44
402.172	152.91
402.381	73.04
402.59	38.23
402.799	132.44
403.008	128.34
403.217	218.45
403.426	144.72
403.635	103.76
403.844	107.86
404.053	87.38
404.262	103.76
404.471	236.88
404.68	187.73
404.888	169.3
405.097	247.12
405.306	159.06
405.515	161.11
405.724	126.29
405.933	222.55
406.142	120.15
406.35	226.64
406.559	206.16
406.768	179.54
406.977	216.4
407.185	255.31
407.394	185.68
407.603	171.35
407.812	318.8
408.02	251.22
408.229	210.26
408.438	298.32
408.646	214.35
408.855	267.6
409.064	324.94
409.272	208.21
409.481	351.57
409.69	251.22
409.898	308.56
410.107	341.33
410.315	380.24
410.524	398.67
410.733	372.05
410.941	333.14
411.15	345.42
411.358	372.05
411.567	347.47
411.775	421.2
411.984	435.53
412.192	490.83
412.401	509.26
412.609	488.78
412.818	478.54
413.026	615.76
413.234	593.23
413.443	482.64
413.651	613.71
413.86	564.56
414.068	638.28
414.276	685.39
414.485	623.95
414.693	648.52
414.901	824.65
415.11	808.26
415.318	691.53
415.526	789.83
415.734	814.41
415.943	728.39
416.151	867.66
416.359	851.27
416.567	888.14
416.776	931.14
416.984	988.49
417.192	984.39
417.4	1062.21
417.608	1029.45
417.817	1142.08
418.025	1187.14
418.233	1256.77
418.441	1242.43
418.649	1334.59
418.857	1406.27
419.065	1426.75
419.273	1342.78
419.481	1529.15
419.689	1500.48
419.897	1459.52
420.105	1584.45
420.313	1666.36
420.521	1668.41
420.729	1846.59
420.937	1807.67
421.145	1842.49
421.353	2049.33
421.561	2088.25
421.769	2172.21
421.977	2131.25
422.185	2188.6
422.393	2391.34
422.601	2372.91
422.809	2268.47
423.017	2446.64
423.224	2540.85
423.432	2759.98
423.64	2657.58
423.848	2733.36
424.056	2899.24
424.263	2987.3
424.471	3089.7
424.679	3085.61
424.887	3228.96
425.094	3452.19
425.302	3337.51
425.51	3476.77
425.718	3613.98
425.925	3587.36
426.133	3816.73
426.341	4068.63
426.548	4132.12
426.756	4226.32
426.964	4312.34
427.171	4551.95
427.379	4693.26
427.586	4719.89
427.794	4850.96
428.001	4969.74
428.209	5264.64
428.417	5338.37
428.624	5723.39
428.832	5682.43
429.039	5489.92
429.247	5629.18
429.454	6180.09
429.662	6571.25
429.869	6198.52
430.076	6495.47
430.284	6407.41
430.491	6698.22
430.699	6884.59
430.906	6982.89
431.114	7173.35
431.321	7292.13
431.528	7482.6
431.736	8187.1
431.943	8422.61
432.15	8205.53
432.358	8285.4
432.565	8858.83
432.772	8680.66
432.979	9120.97
433.187	9467.08
433.394	9241.8
433.601	10032.32
433.808	10028.22
434.016	9956.54
434.223	10378.42
434.43	11021.49
434.637	10921.13
434.844	11412.65
435.052	11803.81
435.259	11635.88
435.466	11629.73
435.673	11687.07
435.88	12323.99
436.087	13233.29
436.294	12948.62
436.501	12717.2
436.708	13036.69
436.915	13376.65
437.122	14036.1
437.329	13894.79
437.537	14578.81
437.743	14648.44
437.95	14548.09
438.157	15447.15
438.364	15981.67
438.571	15662.18
438.778	15748.2
438.985	17632.33
439.192	16643.16
439.399	17589.32
439.606	17015.89
439.813	17929.28
440.02	19070
440.227	18828.34
440.433	18558.01
440.64	19059.76
440.847	19133.49
441.054	19674.15
441.261	20837.4
441.467	20427.81
441.674	20880.41
441.881	21865.48
442.088	21677.07
442.294	21414.93
442.501	21902.34
442.708	22541.31
442.914	23262.19
443.121	24460.26
443.328	23751.66
443.534	25682.89
443.741	24732.64
443.948	24331.23
444.154	26172.36
444.361	25967.56
444.568	26170.31
444.774	26285
444.981	26457.03
445.187	27298.74
445.394	28445.6
445.6	28040.11
445.807	30948.22
446.013	29473.68
446.22	29971.34
446.426	31544.18
446.633	31509.36
446.839	32602.98
447.046	31101.82
447.252	32953.18
447.459	33010.53
447.665	32994.14
447.871	34040.65
448.078	35965.74
448.284	33909.58
448.491	35298.11
448.697	36569.9
448.903	37128.99
449.11	37440.28
449.316	37016.35
449.522	37499.67
449.728	38191.89
449.935	38335.24
450.141	38470.41
450.347	39523.07
450.553	38515.47
450.76	38896.39
450.966	40342.25
451.172	39555.83
451.378	40964.84
451.584	40065.78
451.791	40817.38
451.997	40594.15
452.203	41611.99
452.409	41519.84
452.615	41126.63
452.821	39920.37
453.027	39920.37
453.233	41427.68
453.44	40039.15
453.646	40364.78
453.852	40751.85
454.058	41267.94
454.264	40049.39
454.47	40770.28
454.676	39469.82
454.882	41104.1
455.088	37471
455.294	38318.86
455.5	38914.82
455.705	39011.07
455.911	37925.65
456.117	37190.43
456.323	36356.91
456.529	34263.88
456.735	36041.52
456.941	34980.67
457.147	34087.76
457.352	33602.39
457.558	33282.91
457.764	33233.75
457.97	32736.1
458.176	31746.93
458.381	32133.99
458.587	30335.88
458.793	30442.37
458.999	28775.33
459.204	31312.76
459.41	30126.99
459.616	28347.3
459.821	28249
460.027	28445.6
460.233	27694
460.438	26096.58
460.644	26534.85
460.85	25430.99
461.055	24744.92
461.261	24871.9
461.466	22955
461.672	22328.32
461.878	24007.65
462.083	22219.78
462.289	22096.9
462.494	21541.9
462.7	20706.33
462.905	20243.49
463.111	21134.35
463.316	20970.52
463.522	20169.76
463.727	20339.74
463.932	20452.38
464.138	20243.49
464.343	20274.21
464.549	19608.62
464.754	20534.3
464.959	20167.71
465.165	20180
465.37	19338.29
465.575	18779.19
465.781	19647.53
465.986	19358.77
466.191	19094.58
466.397	18537.53
466.602	17652.81
466.807	18500.67
467.012	18224.19
467.218	18367.55
467.423	17906.76
467.628	17894.47
467.833	18957.36
468.038	18060.35
468.244	17796.17
468.449	18230.34
468.654	17804.36
468.859	17611.85
469.064	17433.68
469.269	16895.06
469.474	17226.83
469.679	17290.32
469.885	17017.94
470.09	16948.31
470.295	16858.2
470.5	16817.24
470.705	16598.1
470.91	16104.54
471.115	16301.15
471.32	16417.88
471.525	16352.35
471.73	16024.67
471.935	15752.29
472.139	15246.44
472.344	15473.77
472.549	15150.19
472.754	15285.36
472.959	15137.9
473.164	14707.83
473.369	14537.85
473.574	14769.27
473.778	14754.93
473.983	14554.23
474.188	14498.94
474.393	13722.76
474.598	13982.85
474.802	13644.93
475.007	13888.64
475.212	13915.26
475.417	13145.23
475.621	13444.23
475.826	13487.24
476.031	13048.97
476.235	12909.71
476.44	12625.04
476.645	12854.42
476.849	12901.52
477.054	12739.73
477.259	12328.09
477.463	12457.11
477.668	12035.23
477.872	12252.31
478.077	12006.56
478.282	11715.75
478.486	11517.09
478.691	11637.92
478.895	11750.56
479.1	11666.6
479.304	11760.8
479.509	11312.3
479.713	11453.61
479.918	11160.75
480.122	10947.76
480.326	11289.77
480.531	11394.22
480.735	11017.39
480.94	10902.7
481.144	11218.09
481.348	10857.65
481.553	10923.18
481.757	10724.53
481.961	10796.21
482.166	11101.36
482.37	10663.09
482.574	10386.61
482.778	10857.65
482.983	10943.66
483.187	10779.82
483.391	10900.65
483.595	10738.87
483.8	10550.45
484.004	10702
484.208	10704.05
484.412	10615.99
484.616	10673.33
484.821	10822.83
485.025	10456.25
485.229	10759.35
485.433	10796.21
485.637	10697.91
485.841	10310.84
486.045	10683.57
486.249	10663.09
486.453	10519.73
486.657	10656.95
486.861	10601.65
487.065	10431.67
487.269	10691.76
487.473	10532.02
487.677	10710.19
487.881	10824.88
488.085	10409.14
488.289	10712.24
488.493	10734.77
488.697	10767.54
488.901	10652.85
489.105	10734.77
489.309	10675.38
489.512	10900.65
489.716	10894.51
489.92	10927.28
490.124	10775.73
490.328	11103.4
490.531	10960.05
490.735	10853.55
490.939	11087.02
491.143	11056.3
491.346	11136.17
491.55	11007.15
491.754	11300.01
491.958	11154.6
492.161	11084.97
492.365	11316.39
492.569	11089.07
492.772	11287.72
492.976	11480.23
493.18	11541.67
493.383	11553.96
493.587	11629.73
493.79	11689.12
493.994	11703.46
494.197	11762.85
494.401	12227.74
494.605	12098.72
494.808	12065.95
495.012	12260.51
495.215	12309.66
495.419	12299.42
495.622	12211.35
495.825	12436.63
496.029	12489.88
496.232	12598.42
496.436	12686.48
496.639	12989.58
496.843	12907.66
497.046	13163.66
497.249	13298.83
497.453	13319.31
497.656	13296.78
497.859	13548.68
498.063	13780.1
498.266	14075.01
498.469	13927.55
498.673	14099.58
498.876	14365.82
499.079	14242.94
499.282	14431.35
499.485	14804.08
499.689	15094.89
499.892	15017.07
500.095	15170.67
500.298	15529.06
500.501	15449.19
500.705	15758.44
500.908	15996
501.111	16067.68
501.314	16274.52
501.517	16223.33
501.72	16540.76
501.923	16335.96
502.126	16768.09
502.329	17050.71
502.532	17288.27
502.735	17208.4
502.938	17984.58
503.141	17785.93
503.344	18074.69
503.547	18074.69
503.75	18351.17
503.953	18521.15
504.156	18656.31
504.359	18926.64
504.562	18873.4
504.765	19559.47
504.968	19833.89
505.17	19809.32
505.373	19876.9
505.576	20147.23
505.779	20444.19
505.982	20638.75
506.185	21066.77
506.387	21312.53
506.59	21396.49
506.793	21677.07
506.996	21801.99
507.198	22297.6
507.401	22225.92
507.604	22119.43
507.807	22838.26
508.009	22987.77
508.212	22782.97
508.415	23309.3
508.617	23868.39
508.82	23604.21
509.022	23602.16
509.225	24411.1
509.428	24441.82
509.63	24746.97
509.833	24646.62
510.035	25359.31
510.238	25297.88
510.44	25934.79
510.643	25908.17
510.845	26303.43
511.048	26291.14
511.25	26452.93
511.453	26880.96
511.655	27673.52
511.858	27157.43
512.06	27579.31
512.262	27868.08
512.465	28218.28
512.667	28513.19
512.87	28842.91
513.072	28652.45
513.274	29117.34
513.477	29664.14
513.679	30016.4
513.881	30100.36
514.084	30282.63
514.286	30495.62
514.488	30755.71
514.69	31320.95
514.893	31429.49
515.095	31697.78
515.297	31765.36
515.499	31880.05
515.701	32263.02
515.904	32932.7
516.106	33106.78
516.308	33061.72
516.51	33895.25
516.712	33842
516.914	34134.86
517.116	34554.69
517.318	34616.13
517.52	34868.03
517.722	34902.85
517.925	35255.1
518.127	35861.3
518.329	36410.15
518.531	35717.94
518.733	36682.53
518.935	36846.37
519.136	37266.2
519.338	37045.02
519.54	37843.73
519.742	37868.31
519.944	37731.09
520.146	38906.63
520.348	38810.37
520.55	38900.48
520.752	39267.07
520.954	39971.57
521.155	39504.63
521.357	40157.94
521.559	40569.58
521.761	40872.68
521.963	41118.43
522.164	41194.21
522.366	41554.65
522.568	41513.69
522.77	42074.84
522.971	42111.7
523.173	41984.72
523.375	42785.48
523.576	42603.21
523.778	42683.08
523.98	43483.84
524.181	43696.83
524.383	43686.59
524.584	43987.64
524.786	43717.31
524.988	44044.98
525.189	44368.56
525.391	44686
525.592	44778.15
525.794	45382.3
525.995	45238.95
526.197	45269.67
526.398	45619.87
526.6	45945.5
526.801	46086.81
527.003	46183.06
527.204	46150.29
527.406	46424.72
527.607	46441.1
527.808	46805.64
528.01	46287.51
528.211	46525.07
528.412	47682.17
528.614	47411.84
528.815	47575.68
529.016	47256.2
529.218	47137.41
529.419	47401.6
529.62	47549.06
529.822	47540.86
530.023	47757.95
530.224	47590.02
530.425	47622.78
530.626	47331.97
530.828	47260.29
531.029	48923.24
531.23	48337.52
531.431	47651.45
531.632	48525.94
531.833	48419.44
532.035	48734.83
532.236	48226.93
532.437	48816.75
532.638	48157.3
532.839	48614
533.04	48990.83
533.241	48108.15
533.442	49097.32
533.643	49166.95
533.844	49003.11
534.045	48849.52
534.246	48194.17
534.447	48929.39
534.648	48771.69
534.849	48829.04
535.05	49052.26
535.251	49228.39
535.451	49125.99
535.652	49728.09
535.853	49238.63
536.054	48710.25
536.255	49115.75
536.456	48560.75
536.657	49369.7
536.857	48796.27
537.058	49021.55
537.259	48927.34
537.46	49422.95
537.66	49125.99
537.861	49087.08
538.062	48919.15
538.263	49414.76
538.463	48906.86
538.664	49220.2
538.865	49003.11
539.065	49433.19
539.266	48624.24
539.466	48900.72
539.667	48857.71
539.868	49447.52
540.068	49134.18
540.269	49089.13
540.469	48843.37
540.67	48558.7
540.87	49001.07
541.071	49050.22
541.271	49594.98
541.472	48767.6
541.672	49074.79
541.873	48927.34
542.073	48505.46
542.274	49373.8
542.474	48601.71
542.675	48456.31
542.875	49275.49
543.075	48648.82
543.276	48165.49
543.476	49164.9
543.676	49058.41
543.877	48978.54
544.077	48951.91
544.277	48329.33
544.478	48894.57
544.678	48820.84
544.878	48906.86
545.078	48513.65
545.279	48870
545.479	48376.44
545.679	48865.9
545.879	48552.56
546.079	48982.63
546.28	48462.45
546.48	48497.27
546.68	48996.97
546.88	48779.89
547.08	48822.89
547.28	49025.64
547.48	48274.04
547.68	48783.98
547.88	48628.34
548.081	48886.38
548.281	48527.98
548.481	48517.75
548.681	48910.96
548.881	48554.61
549.081	48726.64
549.28	48679.53
549.48	48802.41
549.68	48550.51
549.88	49226.34
550.08	48564.85
550.28	48925.29
550.48	48407.15
550.68	48779.89
550.88	48667.25
551.08	48302.71
551.279	48591.47
551.479	48040.57
551.679	48579.18
551.879	48431.73
552.079	48947.82
552.278	48521.84
552.478	48659.05
552.678	48657.01
552.878	48640.62
553.077	48358
553.277	48071.29
553.477	48779.89
553.676	48462.45
553.876	48460.4
554.076	48003.7
554.275	47800.96
554.475	48067.19
554.674	48278.13
554.874	48331.38
555.074	47962.75
555.273	48269.94
555.473	48214.65
555.672	47968.89
555.872	48001.66
556.071	48204.41
556.271	48065.14
556.47	47977.08
556.67	47174.28
556.869	47596.16
557.068	47923.83
557.268	47719.04
557.467	47948.41
557.667	47577.73
557.866	47944.31
558.065	47659.65
558.265	47268.48
558.464	47659.65
558.663	47493.76
558.863	47075.97
559.062	47753.85
559.261	47053.45
559.461	47641.21
559.66	47039.11
559.859	47370.88
560.058	46965.38
560.258	47143.56
560.457	46584.46
560.656	47239.81
560.855	47438.47
561.054	47264.39
561.253	46961.29
561.453	46740.11
561.652	46998.15
561.851	47266.44
562.05	46846.6
562.249	46127.77
562.448	47168.13
562.647	46566.03
562.846	46609.04
563.045	46779.02
563.244	46283.41
563.443	46869.13
563.642	46060.18
563.841	45763.23
564.04	45922.97
564.239	46717.58
564.438	46060.18
564.637	45949.59
564.836	46639.76
565.035	46070.42
565.234	46594.7
565.432	45863.58
565.631	45642.4
565.83	46101.14
566.029	45550.24
566.228	45402.78
566.427	45236.9
566.625	44890.79
566.824	44878.5
567.023	45560.48
567.222	44516.01
567.42	45294.24
567.619	44935.85
567.818	44907.18
568.016	44468.91
568.215	45132.45
568.414	44745.39
568.612	45154.98
568.811	44274.35
569.01	44753.58
569.208	43852.47
569.407	44587.69
569.605	43727.55
569.804	44450.48
570.002	43823.8
570.201	44053.17
570.4	43788.99
570.598	43903.67
570.797	43690.68
570.995	43639.48
571.193	43467.45
571.392	44010.17
571.59	43360.96
571.789	43346.62
571.987	43463.36
572.186	43139.78
572.384	43324.1
572.582	43109.06
572.781	43176.64
572.979	42717.9
573.177	43129.54
573.376	42752.71
573.574	42545.87
573.772	42754.76
573.971	42564.3
574.169	42613.45
574.367	42207.95
574.565	42674.89
574.763	42138.32
574.962	42044.12
575.16	41675.48
575.358	41788.12
575.556	41452.25
575.754	42123.99
575.952	41382.62
576.151	41927.38
576.349	41655
576.547	41911
576.745	41231.07
576.943	41468.64
577.141	41165.54
577.339	41253.6
577.537	40983.27
577.735	40852.2
577.933	40655.59
578.131	40745.7
578.329	40411.88
578.527	40428.27
578.725	40739.56
578.923	40481.52
579.121	40381.17
579.319	40178.42
579.516	40643.31
579.714	40721.13
579.912	40119.03
580.11	39914.23
580.308	39881.46
580.506	39711.48
580.704	39213.82
580.901	39623.42
581.099	39854.84
581.297	38832.9
581.495	39328.51
581.692	39498.49
581.89	39480.06
582.088	39439.1
582.285	38920.96
582.483	38867.72
582.681	39351.04
582.878	38970.11
583.076	38458.12
583.274	38474.51
583.471	38204.17
583.669	38511.37
583.866	38578.95
584.064	38433.55
584.262	38064.91
584.459	38120.21
584.657	37784.34
584.854	38118.16
585.052	38011.67
585.249	37886.74
585.447	37774.1
585.644	37282.59
585.841	37649.17
586.039	37837.59
586.236	37430.04
586.434	37051.17
586.631	37114.65
586.828	36483.88
587.026	36797.22
587.223	37028.64
587.42	36850.47
587.618	36903.71
587.815	36483.88
588.012	35980.08
588.21	36186.93
588.407	36598.57
588.604	36016.94
588.801	35914.55
588.999	36021.04
589.196	35793.72
589.393	36174.64
589.59	35605.3
589.787	35728.18
589.984	35380.03
590.182	35074.88
590.379	35767.09
590.576	35150.65
590.773	35423.03
590.97	35214.14
591.167	35226.43
591.364	34798.4
591.561	34847.55
591.758	34728.77
591.955	34921.28
592.152	34628.42
592.349	34239.31
592.546	34437.96
592.743	34200.4
592.94	34206.54
593.137	34241.35
593.334	34577.22
593.531	33588.05
593.727	33880.91
593.924	33645.4
594.121	33272.67
594.318	33755.99
594.515	33434.46
594.712	33520.47
594.908	33338.2
595.105	33313.62
595.302	33065.82
595.499	33016.67
595.696	33041.25
595.892	32826.21
596.089	32883.55
596.286	32836.45
596.482	32512.87
596.679	32328.55
596.876	32781.15
597.072	32408.42
597.269	32512.87
597.466	31890.29
597.662	32242.54
597.859	32232.3
598.055	32021.36
598.252	31585.14
598.448	31703.92
598.645	31368.05
598.841	31468.41
599.038	31855.47
599.234	31517.56
599.431	30843.77
599.627	31175.55
599.824	31069.05
600.02	31265.66
600.217	31259.51
600.413	30978.94
600.609	31011.71
600.806	30649.22
601.002	30796.67
601.198	30458.76
601.395	30417.8
601.591	30399.37
601.787	30229.38
601.984	29993.87
602.18	30606.21
602.376	30114.7
602.572	29916.04
602.769	29784.97
602.965	29637.52
603.161	29895.57
603.357	29524.88
603.553	29432.72
603.75	29578.13
603.946	29182.87
604.142	29473.68
604.338	29103
604.534	29391.76
604.73	28818.33
604.926	28896.16
605.122	28908.44
605.318	28683.17
605.514	28617.63
605.71	28730.27
605.906	28750.75
606.102	28591.01
606.298	28650.4
606.494	28183.46
606.69	28593.06
606.886	28515.23
607.082	27988.91
607.278	28230.57
607.474	27904.94
607.67	28341.16
607.866	27771.82
608.062	28119.98
608.257	27581.36
608.453	27866.03
608.649	27687.85
608.845	27595.7
609.041	27325.36
609.236	27403.19
609.432	27573.17
609.628	27997.1
609.824	27442.1
610.019	27421.62
610.215	27577.26
610.411	27280.31
610.606	27474.87
610.802	27511.73
610.998	27280.31
611.193	27241.4
611.389	26887.1
611.584	27009.98
611.78	26999.74
611.976	26946.49
612.171	27001.79
612.367	27032.5
612.562	26715.07
612.758	26385.35
612.953	26403.78
613.149	26596.29
613.344	26397.63
613.539	27018.17
613.735	26627.01
613.93	26827.71
614.126	26520.51
614.321	26784.7
614.517	26237.89
614.712	26371.01
614.907	26196.93
615.103	26504.13
615.298	26268.61
615.493	26207.17
615.688	25852.87
615.884	26377.15
616.079	25783.24
616.274	25979.85
616.47	25912.27
616.665	25863.11
616.86	25838.54
617.055	25758.67
617.25	25549.78
617.445	25871.31
617.641	25607.12
617.836	25541.58
618.031	25404.37
618.226	25541.58
618.421	25304.02
618.616	25422.8
618.811	25039.83
619.006	25342.93
619.201	25009.11
619.396	25076.69
619.591	24720.35
619.786	25177.05
619.981	24364
620.176	24562.65
620.371	24560.61
620.566	24564.7
620.761	24402.91
620.956	24339.43
621.151	23843.82
621.346	24318.95
621.541	23520.24
621.735	24052.71
621.93	23442.42
622.125	23444.46
622.32	23360.5
622.515	23407.6
622.709	23364.59
622.904	23364.59
623.099	23184.37
623.294	22963.19
623.488	22647.8
623.683	22852.6
623.878	22414.34
624.072	22805.5
624.267	22582.27
624.462	22074.37
624.656	21984.26
624.851	22072.32
625.046	21799.94
625.24	22170.63
625.435	21548.04
625.629	21705.74
625.824	21619.72
626.018	21431.31
626.213	20933.65
626.407	21134.35
626.602	20892.69
626.796	20888.6
626.991	20780.06
627.185	20702.23
627.38	20436
627.574	20370.46
627.768	20266.02
627.963	20169.76
628.157	20157.47
628.352	20071.46
628.546	19866.66
628.74	20231.2
628.935	19602.47
629.129	19938.34
629.323	19233.84
629.517	19373.1
629.712	19213.36
629.906	19260.46
630.1	19045.43
630.294	19096.63
630.489	18967.6
630.683	19072.05
630.877	18811.96
631.071	18517.05
631.265	18580.54
631.459	18490.43
631.653	18381.88
631.848	18377.79
632.042	18160.7
632.236	18213.95
632.43	18058.31
632.624	18123.84
632.818	17673.29
633.012	17663.05
633.206	17495.11
633.4	17558.6
633.594	17437.77
633.788	17437.77
633.982	17394.76
634.176	17273.93
634.369	17357.9
634.563	17030.23
634.757	17087.57
634.951	17083.47
635.145	17005.65
635.339	16923.73
635.533	16428.12
635.726	16743.51
635.92	16295
636.114	16565.34
636.308	16221.28
636.501	16303.2
636.695	16135.26
636.889	16086.11
637.083	15660.13
637.276	15862.88
637.47	15686.76
637.664	16051.3
637.857	15697
638.051	15563.88
638.244	15070.32
638.438	15332.46
638.632	15348.84
638.825	15228.01
639.019	15176.81
639.212	15297.64
639.406	15006.83
639.599	14838.9
639.793	14894.19
639.986	14857.33
640.18	15021.17
640.373	14558.33
640.567	14675.06
640.76	14656.63
640.954	14466.17
641.147	14410.87
641.34	14314.62
641.534	14220.41
641.727	14144.64
641.92	14199.93
642.114	13864.07
642.307	13999.23
642.5	13976.7
642.694	13812.87
642.887	13526.15
643.08	13784.19
643.273	13603.97
643.467	13114.51
643.66	13307.02
643.853	13438.09
644.046	13194.38
644.239	13294.73
644.432	13124.75
644.626	12782.74
644.819	12778.64
645.012	12838.03
645.205	13106.32
645.398	12811.41
645.591	12694.68
645.784	12639.38
645.977	12684.44
646.17	12760.21
646.363	12397.72
646.556	12385.43
646.749	12389.53
646.942	12362.9
647.135	12180.64
647.328	12590.23
647.521	12098.72
647.714	12051.61
647.907	11725.99
648.099	11994.27
648.292	11916.45
648.485	11887.78
648.678	11863.2
648.871	11717.79
649.064	11463.85
649.256	11816.1
649.449	11433.13
649.642	11513
649.835	11697.31
650.027	11435.17
650.22	11402.41
650.413	11087.02
650.605	11230.38
650.798	11170.99
650.991	11027.63
651.183	11207.85
651.376	10941.61
651.568	10921.13
651.761	11121.84
651.954	10861.74
652.146	10863.79
652.339	10661.04
652.531	10843.31
652.724	10640.56
652.916	10632.37
653.109	10507.44
653.301	10454.2
653.494	10368.18
653.686	10044.6
653.879	10378.42
654.071	10269.88
654.263	10239.16
654.456	10185.91
654.648	10048.7
654.84	9911.49
655.033	9964.73
655.225	9987.26
655.417	9751.74
655.61	9979.07
655.802	9772.22
655.994	9745.6
656.186	9893.05
656.379	9577.67
656.571	9524.42
656.763	9462.98
656.955	9594.05
657.148	9409.73
657.34	9407.69
657.532	9323.72
657.724	9344.2
657.916	9139.4
658.108	9229.51
658.3	9000.14
658.492	9043.15
658.684	9434.31
658.876	9245.9
659.068	8850.64
659.26	8910.03
659.452	8815.82
659.644	8553.68
659.836	8840.4
660.028	8750.29
660.22	8658.13
660.412	8549.59
660.604	8578.26
660.796	8662.23
660.988	8717.52
661.18	8432.85
661.372	8307.93
661.563	8418.52
661.755	8271.06
661.947	8275.16
662.139	8428.76
662.331	8142.04
662.522	8019.16
662.714	8240.34
662.906	7957.72
663.097	8094.94
663.289	8029.4
663.481	7902.43
663.673	8017.11
663.864	7869.66
664.056	7824.61
664.247	7759.07
664.439	7652.58
664.631	7767.26
664.822	7949.53
665.014	7806.17
665.205	7656.67
665.397	7568.61
665.588	7730.4
665.78	7505.12
665.971	7548.13
666.163	7462.12
666.354	7394.53
666.546	7458.02
666.737	7290.09
666.929	7337.19
667.12	7224.55
667.311	7326.95
667.503	6993.13
667.694	7095.53
667.885	7060.71
668.077	7218.41
668.268	7124.2
668.459	6978.79
668.651	7083.24
668.842	7099.62
669.033	7136.49
669.224	6966.51
669.416	6958.32
669.607	6798.57
669.798	6911.21
669.989	6925.55
670.18	6884.59
670.371	6753.52
670.563	6722.8
670.754	6864.11
670.945	6567.15
671.136	6657.26
671.327	6575.34
671.518	6520.05
671.709	6528.24
671.9	6624.5
672.091	6585.58
672.282	6513.91
672.473	6397.17
672.664	6313.2
672.855	6311.16
673.046	6515.95
673.237	6520.05
673.428	6323.44
673.619	6135.03
673.809	6331.64
674	6323.44
674.191	6284.53
674.382	6223.09
674.573	6262.01
674.764	6208.76
674.954	6427.89
675.145	6065.4
675.336	6034.68
675.527	6155.51
675.717	6085.88
675.908	6010.11
676.099	5971.19
676.289	6126.84
676.48	5997.82
676.671	5844.22
676.861	5995.77
677.052	5897.47
677.243	5893.37
677.433	5879.04
677.624	5741.82
677.814	5782.78
678.005	5907.71
678.195	5829.88
678.386	5864.7
678.576	5647.62
678.767	5795.07
678.957	5608.7
679.148	5721.34
679.338	5764.35
679.529	5602.56
679.719	5770.49
679.909	5711.1
680.1	5715.2
680.29	5756.16
680.481	5606.66
680.671	5653.76
680.861	5688.57
681.052	5577.98
681.242	5442.82
681.432	5625.09
681.622	5551.36
681.813	5514.5
682.003	5502.21
682.193	5473.54
682.383	5258.5
682.573	5387.52
682.764	5424.39
682.954	5403.91
683.144	5244.17
683.334	5254.41
683.524	5395.72
683.714	5405.95
683.904	5190.92
684.094	5317.89
684.284	5266.69
684.474	5326.08
684.664	5176.58
684.854	5233.93
685.044	5174.53
685.234	5246.21
685.424	5059.85
685.614	5109
685.804	5201.16
685.994	5076.23
686.184	5260.55
686.374	5164.29
686.564	5219.59
686.753	5074.18
686.943	4947.21
687.133	5016.84
687.323	4984.07
687.513	4930.83
687.702	4959.5
687.892	4863.24
688.082	4977.93
688.272	4871.43
688.461	4859.15
688.651	4865.29
688.841	4738.32
689.03	4773.13
689.22	4787.47
689.41	4863.24
689.599	4810
689.789	4746.51
689.979	4654.35
690.168	4672.78
690.358	4703.5
690.547	4554
690.737	4592.91
690.926	4580.62
691.116	4560.14
691.305	4560.14
691.495	4472.08
691.684	4416.79
691.874	4513.04
692.063	4435.22
692.252	4353.3
692.442	4279.57
692.631	4455.7
692.82	4367.63
693.01	4463.89
693.199	4293.91
693.388	4226.32
693.578	4281.62
693.767	4240.66
693.956	4394.26
694.146	4193.56
694.335	4240.66
694.524	4164.89
694.713	4271.38
694.902	4220.18
695.092	4111.64
695.281	4025.62
695.47	4246.8
695.659	4228.37
695.848	4080.92
696.037	4087.06
696.226	3945.75
696.415	4128.02
696.604	4173.08
696.793	4070.68
696.982	4089.11
697.171	4162.84
697.36	4087.06
697.549	4005.14
697.738	4044.06
697.927	3999
698.116	4093.21
698.305	3818.78
698.494	4050.2
698.683	3953.94
698.872	3939.61
699.061	3880.22
699.25	3904.79
699.438	4019.48
699.627	3955.99
699.816	3829.02
700.005	4068.63
700.193	3829.02
700.382	3947.8
700.571	3740.96
700.76	3906.84
700.948	3910.94
701.137	3763.48
701.326	3933.47
701.514	3730.72
701.703	3767.58
701.892	3685.66
702.08	3831.07
702.269	3888.41
702.457	3820.83
702.646	3693.85
702.834	3759.39
703.023	3716.38
703.212	3800.35
703.4	3753.24
703.589	3710.24
703.777	3826.97
703.965	3597.6
704.154	3781.92
704.342	3720.48
704.531	3552.54
704.719	3677.47
704.907	3837.21
705.096	3579.17
705.284	3706.14
705.472	3745.05
705.661	3714.33
705.849	3773.72
706.037	3583.26
706.226	3687.71
706.414	3775.77
706.602	3597.6
706.79	3585.31
706.979	3577.12
707.167	3519.78
707.355	3667.23
707.543	3476.77
707.731	3673.37
707.919	3497.25
708.107	3564.83
708.296	3546.4
708.484	3564.83
708.672	3747.1
708.86	3583.26
709.048	3564.83
709.236	3656.99
709.424	3587.36
709.612	3530.02
709.8	3562.78
709.988	3587.36
710.176	3644.7
710.364	3579.17
710.551	3431.71
710.739	3503.39
710.927	3575.07
711.115	3511.58
711.303	3648.8
711.491	3554.59
711.679	3538.21
711.866	3669.28
712.054	3622.17
712.242	3575.07
712.43	3534.11
712.617	3357.99
712.805	3546.4
712.993	3458.34
713.181	3368.23
713.368	3423.52
713.556	3482.91
713.744	3458.34
713.931	3495.2
714.119	3575.07
714.306	3435.81
714.494	3329.31
714.682	3415.33
714.869	3339.55
715.057	3470.62
715.244	3374.37
715.432	3476.77
715.619	3497.25
715.807	3525.92
715.994	3421.47
716.182	3460.38
716.369	3527.97
716.556	3491.1
716.744	3355.94
716.931	3362.08
717.119	3423.52
717.306	3523.87
717.493	3413.28
717.681	3413.28
717.868	3388.71
718.055	3390.75
718.242	3466.53
718.43	3405.09
718.617	3468.58
718.804	3415.33
718.991	3470.62
719.179	3446.05
719.366	3413.28
719.553	3474.72
719.74	3394.85
719.927	3362.08
720.114	3493.15
720.301	3331.36
720.488	3351.84
720.676	3349.79
720.863	3374.37
721.05	3495.2
721.237	3394.85
721.424	3462.43
721.611	3398.95
721.798	3241.25
721.985	3276.07
722.172	3382.56
722.358	3278.12
722.545	3314.98
722.732	3341.6
722.919	3312.93
723.106	3302.69
723.293	3243.3
723.48	3325.22
723.667	3175.72
723.853	3343.65
724.04	3390.75
724.227	3263.78
724.414	3241.25
724.6	3296.55
724.787	3339.55
724.974	3364.13
725.161	3304.74
725.347	3233.06
725.534	3212.58
725.72	3274.02
725.907	3231.01
726.094	3290.4
726.28	3173.67
726.467	3343.65
726.653	3288.36
726.84	3267.88
727.027	3347.75
727.213	3183.91
727.4	3196.2
727.586	3374.37
727.773	3274.02
727.959	3165.48
728.145	3306.79
728.332	3210.53
728.518	3145
728.705	3368.23
728.891	3300.64
729.077	3198.24
729.264	3304.74
729.45	3237.16
729.636	3200.29
729.823	3200.29
730.009	3300.64
730.195	3200.29
730.382	3165.48
730.568	3259.68
730.754	3255.59
730.94	3192.1
731.126	3267.88
731.313	3271.97
731.499	3212.58
731.685	3202.34
731.871	3216.68
732.057	3124.52
732.243	3224.87
732.429	3124.52
732.615	3151.14
732.801	3237.16
732.987	3233.06
733.173	3255.59
733.359	3165.48
733.545	3179.81
733.731	3216.68
733.917	3163.43
734.103	3220.77
734.289	3034.41
734.475	3134.76
734.661	3095.85
734.847	3116.33
735.033	3024.17
735.219	3022.12
735.404	3145
735.59	3157.29
735.776	3081.51
735.962	3190.05
736.148	3218.72
736.333	3058.98
736.519	3093.8
736.705	3101.99
736.89	3044.65
737.076	3085.61
737.262	3067.17
737.447	2989.35
737.633	3122.47
737.819	3067.17
738.004	2991.4
738.19	2989.35
738.375	2899.24
738.561	3091.75
738.747	3034.41
738.932	3077.41
739.118	3114.28
739.303	3097.89
739.489	3061.03
739.674	2895.15
739.859	2954.54
740.045	2878.76
740.23	2915.62
740.416	2880.81
740.601	2989.35
740.786	2956.58
740.972	2880.81
741.157	2886.95
741.342	2833.71
741.528	2989.35
741.713	2942.25
741.898	2821.42
742.084	2817.32
742.269	2817.32
742.454	2905.39
742.639	2823.47
742.824	2719.02
743.01	2858.28
743.195	2794.79
743.38	2868.52
743.565	2706.73
743.75	2862.38
743.935	2766.12
744.12	2755.88
744.305	2764.08
744.49	2788.65
744.675	2778.41
744.86	2762.03
745.045	2645.29
745.23	2757.93
745.415	2637.1
745.6	2512.18
745.785	2577.71
745.97	2630.96
746.155	2538.8
746.34	2667.82
746.525	2577.71
746.71	2559.28
746.895	2614.57
747.079	2458.93
747.264	2567.47
747.449	2428.21
747.634	2446.64
747.819	2477.36
748.003	2481.46
748.188	2465.07
748.373	2413.87
748.557	2415.92
748.742	2407.73
748.927	2407.73
749.111	2368.82
749.296	2413.87
749.481	2336.05
749.665	2268.47
749.85	2297.14
750.034	2293.04
750.219	2313.52
750.404	2229.56
750.588	2168.12
750.773	2182.45
750.957	2143.54
751.141	2213.17
751.326	2200.88
751.51	2151.73
751.695	2121.01
751.879	2110.77
752.064	2131.25
752.248	2180.4
752.432	2082.1
752.617	2082.1
752.801	2207.03
752.985	1944.89
753.17	2123.06
753.354	2078.01
753.538	1959.22
753.722	2032.95
753.907	1981.75
754.091	2008.37
754.275	1981.75
754.459	1936.7
754.643	1948.98
754.828	1953.08
755.012	1965.37
755.196	1975.61
755.38	1881.4
755.564	1856.82
755.748	1822.01
755.932	1813.82
756.116	1797.43
756.3	1924.41
756.484	1817.91
756.668	1903.93
756.852	1731.9
757.036	1813.82
757.22	1744.19
757.404	1723.71
757.588	1754.43
757.772	1582.4
757.956	1719.61
758.14	1695.04
758.323	1588.54
758.507	1629.5
758.691	1699.13
758.875	1645.88
759.059	1592.64
759.242	1529.15
759.426	1643.84
759.61	1774.91
759.794	1680.7
759.977	1582.4
760.161	1654.08
760.345	1678.65
760.528	1566.01
760.712	1561.92
760.895	1615.16
761.079	1486.14
761.263	1547.58
761.446	1439.04
761.63	1469.76
761.813	1510.72
761.997	1475.9
762.18	1439.04
762.364	1381.7
762.547	1396.03
762.731	1432.9
762.914	1432.9
763.098	1434.94
763.281	1381.7
763.464	1348.93
763.648	1471.81
763.831	1424.7
764.015	1506.62
764.198	1383.74
764.381	1383.74
764.564	1449.28
764.748	1377.6
764.931	1414.46
765.114	1373.5
765.297	1301.83
765.481	1295.68
765.664	1279.3
765.847	1365.31
766.03	1299.78
766.213	1283.39
766.397	1203.52
766.58	1299.78
766.763	1252.67
766.946	1353.02
767.129	1287.49
767.312	1369.41
767.495	1232.19
767.678	1305.92
767.861	1305.92
768.044	1279.3
768.227	1246.53
768.41	1273.15
768.593	1269.06
768.776	1256.77
768.959	1160.52
769.142	1236.29
769.324	1187.14
769.507	1252.67
769.69	1168.71
769.873	1166.66
770.056	1201.47
770.239	1191.24
770.421	1125.7
770.604	1181
770.787	1205.57
770.97	1125.7
771.152	1121.6
771.335	1109.32
771.518	1146.18
771.7	1172.8
771.883	1109.32
772.066	1178.95
772.248	1178.95
772.431	1158.47
772.613	1121.6
772.796	1049.93
772.978	1037.64
773.161	1099.08
773.343	1072.45
773.526	1066.31
773.708	980.29
773.891	1037.64
774.073	1097.03
774.256	1115.46
774.438	1064.26
774.621	1015.11
774.803	1008.97
774.985	867.66
775.168	1029.45
775.35	1004.87
775.532	951.62
775.715	1029.45
775.897	978.25
776.079	955.72
776.261	918.86
776.444	1033.54
776.626	990.53
776.808	867.66
776.99	933.19
777.173	984.39
777.355	873.8
777.537	945.48
777.719	933.19
777.901	869.7
778.083	867.66
778.265	847.18
778.447	816.46
778.629	869.7
778.811	746.83
778.993	769.35
779.175	802.12
779.357	793.93
779.539	834.89
779.721	832.84
779.903	925
780.085	806.22
780.267	734.54
780.449	847.18
780.631	806.22
780.812	793.93
780.994	699.72
781.176	728.39
781.358	664.91
781.54	791.88
781.721	748.87
781.903	752.97
782.085	722.25
782.267	662.86
782.448	691.53
782.63	736.59
782.812	701.77
782.993	679.24
783.175	675.15
783.357	664.91
783.538	648.52
783.72	709.96
783.901	648.52
784.083	660.81
784.264	673.1
784.446	580.94
784.627	597.32
784.809	582.99
784.99	613.71
785.172	630.09
785.353	642.38
785.535	623.95
785.716	574.8
785.897	580.94
786.079	632.14
786.26	619.85
786.441	597.32
786.623	550.22
786.804	648.52
786.985	572.75
787.167	562.51
787.348	519.5
787.529	513.36
787.71	478.54
787.891	558.41
788.073	468.3
788.254	443.73
788.435	499.02
788.616	546.12
788.797	431.44
788.978	591.18
789.159	482.64
789.34	558.41
789.522	435.53
789.703	499.02
789.884	599.37
790.065	511.31
790.246	474.45
790.427	521.55
790.607	470.35
790.788	478.54
790.969	449.87
791.15	484.69
791.331	484.69
791.512	410.96
791.693	431.44
791.874	443.73
792.054	456.01
792.235	472.4
792.416	464.21
792.597	451.92
792.778	474.45
792.958	458.06
793.139	439.63
793.32	384.34
793.5	388.43
793.681	509.26
793.862	421.2
794.042	382.29
794.223	394.58
794.404	386.38
794.584	392.53
794.765	329.04
794.945	410.96
795.126	437.58
795.306	453.97
795.487	361.81
795.667	310.61
795.848	441.68
796.028	384.34
796.209	361.81
796.389	417.1
796.57	400.72
796.75	400.72
796.93	345.42
797.111	367.95
797.291	384.34
797.471	394.58
797.652	370
797.832	343.38
798.012	359.76
798.192	384.34
798.373	263.51
798.553	322.9
798.733	382.29
798.913	322.9
799.093	335.18
799.274	316.75
799.454	359.76
799.634	380.24
799.814	324.94
799.994	337.23
800.174	384.34
800.354	322.9
800.534	347.47
800.714	310.61
800.894	320.85
801.074	279.89
801.254	318.8
801.434	421.2
801.614	300.37
801.794	290.13
801.974	773.45
802.154	308.56
802.334	386.38
802.514	238.93
802.693	273.75
802.873	310.61
803.053	292.18
803.233	249.17
803.413	290.13
803.592	343.38
803.772	349.52
803.952	249.17
804.131	380.24
804.311	292.18
804.491	251.22
804.67	281.94
804.85	263.51
805.03	298.32
805.209	337.23
805.389	261.46
805.568	251.22
805.748	316.75
805.928	273.75
806.107	249.17
806.287	216.4
806.466	265.55
806.646	294.22
806.825	218.45
807.004	234.83
807.184	326.99
807.363	193.87
807.543	275.79
807.722	243.03
807.901	200.02
808.081	222.55
808.26	283.98
808.439	232.79
808.619	261.46
808.798	251.22
808.977	234.83
809.156	294.22
809.336	310.61
809.515	226.64
809.694	175.44
809.873	222.55
810.052	273.75
810.231	208.21
810.411	214.35
810.59	189.78
810.769	202.07
810.948	279.89
811.127	216.4
811.306	204.11
811.485	208.21
811.664	306.51
811.843	189.78
812.022	204.11
812.201	236.88
812.38	140.63
812.559	259.41
812.737	218.45
812.916	183.63
813.095	267.6
813.274	255.31
813.453	208.21
813.632	255.31
813.811	277.84
813.989	214.35
814.168	165.2
814.347	120.15
814.526	185.68
814.704	222.55
814.883	163.15
815.062	214.35
815.24	283.98
815.419	212.31
815.598	230.74
815.776	89.43
815.955	271.7
816.133	161.11
816.312	177.49
816.49	134.48
816.669	81.24
816.847	116.05
817.026	177.49
817.204	177.49
817.383	206.16
817.561	179.54
817.74	138.58
817.918	253.27
818.097	152.91
818.275	167.25
818.453	136.53
818.632	216.4
818.81	193.87
818.988	93.52
819.167	261.46
819.345	175.44
819.523	163.15
819.701	140.63
819.879	181.59
820.058	109.91
820.236	187.73
820.414	210.26
820.592	77.14
820.77	187.73
820.948	169.3
821.127	99.67
821.305	208.21
821.483	126.29
821.661	157.01
821.839	177.49
822.017	140.63
822.195	109.91
822.373	185.68
822.551	185.68
822.729	132.44
822.907	103.76
823.085	136.53
823.262	197.97
823.44	142.68
823.618	126.29
823.796	159.06
823.974	101.72
824.152	130.39
824.329	99.67
824.507	146.77
824.685	150.87
824.863	126.29
825.04	66.9
825.218	111.96
825.396	126.29
825.574	150.87
825.751	142.68
825.929	136.53
826.107	54.61
826.284	118.1
826.462	128.34
826.639	122.2
826.817	54.61
826.994	77.14
827.172	103.76
827.349	128.34
827.527	105.81
827.704	181.59
827.882	161.11
828.059	116.05
828.237	120.15
828.414	120.15
828.591	109.91
828.769	116.05
828.946	64.85
829.124	116.05
829.301	105.81
829.478	177.49
829.655	126.29
829.833	101.72
830.01	81.24
830.187	120.15
830.364	87.38
830.542	128.34
830.719	148.82
830.896	85.33
831.073	105.81
831.25	93.52
831.427	118.1
831.604	120.15
831.782	36.18
831.959	114
832.136	111.96
832.313	130.39
832.49	46.42
832.667	126.29
832.844	89.43
833.021	122.2
833.198	73.04
833.374	40.28
833.551	79.19
833.728	99.67
833.905	130.39
834.082	25.94
834.259	87.38
834.436	204.11
834.612	46.42
834.789	132.44
834.966	60.76
835.143	111.96
835.319	1.37
835.496	202.07
835.673	42.32
835.85	89.43
836.026	40.28
836.203	27.99
836.38	99.67
836.556	68.95
836.733	42.32
836.909	85.33
837.086	-2.73
837.262	46.42
837.439	105.81
837.616	85.33
837.792	13.65
837.968	99.67
838.145	21.84
838.321	122.2
838.498	81.24
838.674	105.81
838.851	87.38
839.027	50.52
839.203	68.95
839.38	36.18
839.556	19.8
839.732	83.28
839.909	50.52
840.085	68.95
840.261	-0.68
840.437	89.43
840.614	66.9
840.79	-0.68
840.966	93.52
841.142	132.44
841.318	103.76
841.494	101.72
841.671	103.76
841.847	-2.73
842.023	54.61
842.199	50.52
842.375	60.76
842.551	87.38
842.727	93.52
842.903	46.42
843.079	48.47
843.255	77.14
843.431	79.19
843.607	126.29
843.783	27.99
843.959	79.19
844.134	93.52
844.31	101.72
844.486	-8.87
844.662	83.28
844.838	89.43
845.013	109.91
845.189	116.05
845.365	-41.64
845.541	75.09
845.716	38.23
845.892	44.37
846.068	116.05
846.244	9.56
846.419	73.04
846.595	50.52
846.77	-2.73
846.946	64.85
847.122	7.51
847.297	32.08
847.473	136.53
847.648	36.18
847.824	50.52
847.999	44.37
848.175	-4.78
848.35	58.71
848.526	114
848.701	-21.16
848.876	23.89
849.052	46.42
849.227	52.56
849.403	5.46
849.578	54.61
849.753	40.28
849.929	62.8
850.104	21.84
850.279	-4.78
850.454	105.81
850.63	105.81
850.805	52.56
850.98	89.43
851.155	58.71
851.33	11.61
851.505	15.7
851.681	95.57
851.856	-0.68
852.031	75.09
852.206	79.19
852.381	34.13
852.556	-17.07
852.731	62.8
852.906	-0.68
853.081	73.04
853.256	68.95
853.431	118.1
853.606	58.71
853.781	32.08
853.956	68.95
854.131	5.46
854.305	15.7
854.48	-0.68
854.655	32.08
854.83	-4.78
855.005	-6.83
855.18	-35.5
855.354	15.7
855.529	64.85
855.704	-19.11
855.879	17.75
856.053	64.85
856.228	-43.69
856.403	89.43
856.577	40.28
856.752	40.28
856.926	-15.02
857.101	95.57
857.276	60.76
857.45	36.18
857.625	15.7
857.799	21.84
857.974	60.76
858.148	46.42
858.323	15.7
858.497	21.84
858.672	56.66
858.846	32.08
859.02	30.04
859.195	19.8
859.369	46.42
859.543	68.95
859.718	11.61
859.892	1.37
860.066	62.8
860.241	40.28
860.415	-33.45
860.589	1.37
860.763	56.66
860.938	30.04
861.112	25.94
861.286	44.37
861.46	-0.68
861.634	21.84
861.808	27.99
861.982	23.89
862.157	48.47
862.331	19.8
862.505	-12.97
862.679	-49.83
862.853	15.7
863.027	21.84
863.201	48.47
863.375	50.52
863.549	54.61
863.722	89.43
863.896	48.47
864.07	-17.07
864.244	32.08
864.418	66.9
864.592	93.52
864.766	-6.83
864.939	56.66
865.113	1.37
865.287	40.28
865.461	30.04
865.634	48.47
865.808	25.94
865.982	13.65
866.156	-10.92
866.329	42.32
866.503	46.42
866.676	17.75
866.85	44.37
867.024	-23.21
867.197	32.08
867.371	19.8
867.544	79.19
867.718	23.89
867.891	48.47
868.065	30.04
868.238	30.04
868.412	21.84
868.585	-25.26
868.759	-19.11
868.932	62.8
869.105	75.09
869.279	56.66
869.452	7.51
869.625	50.52
869.799	66.9
869.972	-10.92
870.145	42.32
870.319	75.09
870.492	-23.21
870.665	-55.98
870.838	11.61
871.011	-74.41
871.185	5.46
871.358	-4.78
871.531	-21.16
871.704	-53.93
871.877	50.52
872.05	-31.4
872.223	-49.83
872.396	-31.4
872.569	95.57
872.742	-27.31
872.915	19.8
873.088	15.7
873.261	66.9
873.434	21.84
873.607	17.75
873.78	-19.11
873.953	58.71
874.126	1.37
874.299	5.46
874.471	44.37
874.644	19.8
874.817	32.08
874.99	93.52
875.163	-25.26
875.335	27.99
875.508	-35.5
875.681	-23.21
875.853	-31.4
876.026	46.42
876.199	83.28
876.371	30.04
876.544	-25.26
876.717	21.84
876.889	17.75
877.062	30.04
877.234	-4.78
877.407	-2.73
877.579	1.37
877.752	118.1
877.924	-72.36
878.097	75.09
878.269	5.46
878.442	62.8
878.614	77.14
878.786	19.8
878.959	-10.92
879.131	7.51
879.303	-55.98
879.476	42.32
879.648	-4.78
879.82	25.94
879.993	3.41
880.165	-2.73
880.337	-55.98
880.509	-8.87
880.681	17.75
880.854	-33.45
881.026	23.89
881.198	17.75
881.37	-17.07
881.542	32.08
881.714	48.47
881.886	21.84
882.058	23.89
882.23	11.61
882.402	23.89
882.574	46.42
882.746	32.08
882.918	30.04
883.09	46.42
883.262	17.75
883.434	52.56
883.606	7.51
883.778	-25.26
883.95	23.89
884.122	-6.83
884.293	73.04
884.465	-23.21
884.637	-8.87
884.809	71
884.98	13.65
885.152	13.65
885.324	34.13
885.496	-47.79
885.667	7.51
885.839	75.09
886.011	13.65
886.182	13.65
886.354	99.67
886.525	-21.16
886.697	-23.21
886.869	5.46
887.04	-10.92
887.212	-0.68
887.383	58.71
887.555	7.51
887.726	23.89
887.897	-39.59
888.069	-35.5
888.24	77.14
888.412	-27.31
888.583	36.18
888.754	30.04
888.926	30.04
889.097	11.61
889.268	-23.21
889.44	58.71
889.611	-27.31
889.782	19.8
889.953	32.08
890.125	56.66
890.296	-49.83
890.467	7.51
890.638	-31.4
890.809	23.89
890.98	9.56
891.151	7.51
891.323	-45.74
891.494	-41.64
891.665	-51.88
891.836	15.7
892.007	11.61
892.178	42.32
892.349	-25.26
892.52	-25.26
892.691	5.46
892.862	-31.4
893.032	40.28
893.203	-12.97
893.374	36.18
893.545	36.18
893.716	-58.03
893.887	38.23
894.057	-27.31
894.228	1.37
894.399	-55.98
894.57	32.08
894.74	23.89
894.911	23.89
895.082	-19.11
895.253	-35.5
895.423	42.32
895.594	-53.93
895.764	5.46
895.935	-4.78
896.106	-27.31
896.276	-62.12
896.447	-8.87
896.617	48.47
896.788	-88.75
896.958	-94.89
897.129	-47.79
897.299	-45.74
897.47	75.09
897.64	-19.11
897.81	-4.78
897.981	36.18
898.151	-2.73
898.322	-0.68
898.492	-45.74
898.662	-25.26
898.832	-60.07
899.003	1.37
899.173	17.75
899.343	-12.97
899.513	-41.64
