Data from USB4F104151__83__12-27-56-310.txt Node

Date: Fri Mar 14 12:27:56 EDT 2025
User: louis
Spectrometer: USB4F10415
Trigger mode: 4
Integration Time (sec): 2.000000E-2
Scans to average: 1
Electric dark correction enabled: true
Nonlinearity correction enabled: false
Boxcar width: 0
XAxis mode: Wavelengths
Number of Pixels in Spectrum: 3648
>>>>>Begin Spectral Data<<<<<
178.204	-88.57
178.424	-88.57
178.644	-88.57
178.864	-107.01
179.084	-98.81
179.304	-27.14
179.524	-23.04
179.744	30.21
179.964	69.12
180.184	-12.8
180.404	54.78
180.624	-20.99
180.844	7.68
181.064	-78.33
181.283	-8.7
181.503	-4.61
181.723	13.82
181.943	-0.51
182.163	60.93
182.383	69.12
182.602	24.06
182.822	38.4
183.042	67.07
183.262	26.11
183.482	56.83
183.701	73.21
183.921	34.3
184.141	-14.85
184.361	62.98
184.58	73.21
184.8	56.83
185.02	-25.09
185.239	93.69
185.459	7.68
185.679	40.45
185.898	75.26
186.118	-4.61
186.338	38.4
186.557	36.35
186.777	-37.38
186.997	71.17
187.216	83.45
187.436	56.83
187.655	24.06
187.875	48.64
188.095	42.5
188.314	30.21
188.534	175.61
188.753	79.36
188.973	91.65
189.192	120.32
189.412	-0.51
189.631	-8.7
189.851	24.06
190.07	87.55
190.29	-0.51
190.509	34.3
190.729	65.02
190.948	24.06
191.168	73.21
191.387	11.78
191.607	48.64
191.826	3.58
192.045	22.02
192.265	67.07
192.484	38.4
192.704	30.21
192.923	1.54
193.142	87.55
193.362	26.11
193.581	89.6
193.8	99.84
194.02	97.79
194.239	42.5
194.458	97.79
194.678	-10.75
194.897	13.82
195.116	30.21
195.335	36.35
195.555	44.54
195.774	42.5
195.993	65.02
196.212	-27.14
196.432	-0.51
196.651	56.83
196.87	13.82
197.089	77.31
197.308	11.78
197.528	48.64
197.747	24.06
197.966	101.89
198.185	24.06
198.404	85.5
198.623	71.17
198.842	48.64
199.062	93.69
199.281	153.09
199.5	19.97
199.719	73.21
199.938	77.31
200.157	75.26
200.376	28.16
200.595	54.78
200.814	71.17
201.033	3.58
201.252	56.83
201.471	132.61
201.69	116.22
201.909	11.78
202.128	136.7
202.347	79.36
202.566	-29.18
202.785	-20.99
203.004	-16.9
203.223	114.17
203.442	83.45
203.661	120.32
203.879	38.4
204.098	138.75
204.317	36.35
204.536	77.31
204.755	-2.56
204.974	103.93
205.193	136.7
205.411	56.83
205.63	22.02
205.849	50.69
206.068	56.83
206.287	-8.7
206.505	26.11
206.724	28.16
206.943	89.6
207.162	19.97
207.381	120.32
207.599	22.02
207.818	13.82
208.037	1.54
208.255	77.31
208.474	28.16
208.693	83.45
208.911	28.16
209.13	38.4
209.349	24.06
209.567	114.17
209.786	-10.75
210.005	13.82
210.223	-8.7
210.442	56.83
210.661	50.69
210.879	-14.85
211.098	134.65
211.316	93.69
211.535	-4.61
211.753	34.3
211.972	-18.94
212.191	126.46
212.409	58.88
212.628	44.54
212.846	7.68
213.065	62.98
213.283	108.03
213.502	28.16
213.72	155.13
213.938	87.55
214.157	89.6
214.375	148.99
214.594	-23.04
214.812	22.02
215.031	54.78
215.249	75.26
215.467	-51.71
215.686	60.93
215.904	69.12
216.122	32.26
216.341	130.56
216.559	44.54
216.778	85.5
216.996	83.45
217.214	15.87
217.432	22.02
217.651	1.54
217.869	48.64
218.087	11.78
218.306	40.45
218.524	73.21
218.742	52.74
218.96	-8.7
219.179	69.12
219.397	3.58
219.615	46.59
219.833	-20.99
220.051	7.68
220.27	75.26
220.488	28.16
220.706	26.11
220.924	11.78
221.142	-33.28
221.36	36.35
221.578	38.4
221.796	87.55
222.015	105.98
222.233	17.92
222.451	99.84
222.669	56.83
222.887	38.4
223.105	19.97
223.323	69.12
223.541	-41.47
223.759	65.02
223.977	50.69
224.195	75.26
224.413	38.4
224.631	42.5
224.849	-4.61
225.067	73.21
225.285	-18.94
225.503	50.69
225.721	36.35
225.939	101.89
226.157	42.5
226.375	146.94
226.592	22.02
226.81	89.6
227.028	-4.61
227.246	67.07
227.464	-8.7
227.682	24.06
227.9	11.78
228.117	140.8
228.335	48.64
228.553	120.32
228.771	81.41
228.989	62.98
229.206	-2.56
229.424	54.78
229.642	71.17
229.86	44.54
230.077	38.4
230.295	54.78
230.513	91.65
230.731	89.6
230.948	56.83
231.166	44.54
231.384	-4.61
231.601	99.84
231.819	42.5
232.037	28.16
232.254	26.11
232.472	13.82
232.689	13.82
232.907	26.11
233.125	58.88
233.342	7.68
233.56	50.69
233.777	36.35
233.995	67.07
234.213	83.45
234.43	19.97
234.648	42.5
234.865	-8.7
235.083	7.68
235.3	24.06
235.518	112.13
235.735	79.36
235.953	134.65
236.17	32.26
236.388	44.54
236.605	-12.8
236.822	146.94
237.04	60.93
237.257	95.74
237.475	46.59
237.692	114.17
237.909	71.17
238.127	38.4
238.344	46.59
238.562	32.26
238.779	1.54
238.996	54.78
239.214	5.63
239.431	40.45
239.648	15.87
239.865	142.85
240.083	62.98
240.3	97.79
240.517	26.11
240.735	62.98
240.952	75.26
241.169	79.36
241.386	1.54
241.603	48.64
241.821	-39.42
242.038	54.78
242.255	89.6
242.472	19.97
242.689	71.17
242.907	85.5
243.124	56.83
243.341	48.64
243.558	-31.23
243.775	15.87
243.992	65.02
244.209	-8.7
244.426	58.88
244.643	11.78
244.86	69.12
245.078	89.6
245.295	24.06
245.512	30.21
245.729	34.3
245.946	19.97
246.163	99.84
246.38	83.45
246.597	5.63
246.814	52.74
247.031	67.07
247.248	87.55
247.464	75.26
247.681	52.74
247.898	36.35
248.115	62.98
248.332	13.82
248.549	36.35
248.766	65.02
248.983	60.93
249.2	34.3
249.417	15.87
249.633	110.08
249.85	22.02
250.067	58.88
250.284	15.87
250.501	62.98
250.717	36.35
250.934	36.35
251.151	-23.04
251.368	19.97
251.585	65.02
251.801	36.35
252.018	34.3
252.235	89.6
252.451	114.17
252.668	28.16
252.885	75.26
253.102	44.54
253.318	30.21
253.535	83.45
253.752	71.17
253.968	54.78
254.185	11.78
254.401	62.98
254.618	-29.18
254.835	30.21
255.051	56.83
255.268	46.59
255.484	46.59
255.701	32.26
255.917	124.41
256.134	44.54
256.351	87.55
256.567	-14.85
256.784	-0.51
257	22.02
257.217	17.92
257.433	32.26
257.65	1.54
257.866	148.99
258.082	-2.56
258.299	38.4
258.515	22.02
258.732	46.59
258.948	1.54
259.165	56.83
259.381	32.26
259.597	103.93
259.814	83.45
260.03	48.64
260.246	58.88
260.463	99.84
260.679	65.02
260.895	15.87
261.112	67.07
261.328	54.78
261.544	3.58
261.761	85.5
261.977	108.03
262.193	1.54
262.409	15.87
262.626	50.69
262.842	52.74
263.058	58.88
263.274	71.17
263.49	42.5
263.707	48.64
263.923	15.87
264.139	28.16
264.355	79.36
264.571	91.65
264.787	62.98
265.004	69.12
265.22	-23.04
265.436	48.64
265.652	36.35
265.868	52.74
266.084	62.98
266.3	32.26
266.516	62.98
266.732	60.93
266.948	73.21
267.164	50.69
267.38	71.17
267.596	52.74
267.812	62.98
268.028	15.87
268.244	56.83
268.46	42.5
268.676	87.55
268.892	38.4
269.108	67.07
269.324	13.82
269.54	52.74
269.756	99.84
269.972	26.11
270.188	-10.75
270.403	54.78
270.619	83.45
270.835	79.36
271.051	46.59
271.267	-23.04
271.483	56.83
271.698	69.12
271.914	116.22
272.13	81.41
272.346	-2.56
272.562	73.21
272.777	89.6
272.993	38.4
273.209	42.5
273.425	130.56
273.64	50.69
273.856	83.45
274.072	58.88
274.287	1.54
274.503	67.07
274.719	85.5
274.934	77.31
275.15	62.98
275.366	34.3
275.581	-4.61
275.797	44.54
276.012	89.6
276.228	52.74
276.444	34.3
276.659	110.08
276.875	13.82
277.09	62.98
277.306	89.6
277.521	65.02
277.737	36.35
277.952	40.45
278.168	58.88
278.383	7.68
278.599	95.74
278.814	73.21
279.03	5.63
279.245	44.54
279.461	58.88
279.676	95.74
279.892	99.84
280.107	56.83
280.322	36.35
280.538	69.12
280.753	13.82
280.969	3.58
281.184	54.78
281.399	22.02
281.615	32.26
281.83	87.55
282.045	5.63
282.26	46.59
282.476	40.45
282.691	50.69
282.906	26.11
283.122	130.56
283.337	48.64
283.552	67.07
283.767	81.41
283.983	28.16
284.198	99.84
284.413	65.02
284.628	60.93
284.843	42.5
285.058	67.07
285.274	15.87
285.489	-2.56
285.704	28.16
285.919	103.93
286.134	62.98
286.349	19.97
286.564	24.06
286.779	148.99
286.995	22.02
287.21	83.45
287.425	17.92
287.64	7.68
287.855	54.78
288.07	71.17
288.285	77.31
288.5	62.98
288.715	58.88
288.93	65.02
289.145	65.02
289.36	30.21
289.575	62.98
289.79	40.45
290.004	-66.05
290.219	81.41
290.434	32.26
290.649	89.6
290.864	-4.61
291.079	77.31
291.294	24.06
291.509	54.78
291.724	7.68
291.938	65.02
292.153	58.88
292.368	-14.85
292.583	81.41
292.798	48.64
293.012	46.59
293.227	36.35
293.442	75.26
293.657	28.16
293.871	114.17
294.086	36.35
294.301	108.03
294.516	73.21
294.73	5.63
294.945	5.63
295.16	79.36
295.374	15.87
295.589	7.68
295.804	56.83
296.018	58.88
296.233	75.26
296.447	-0.51
296.662	19.97
296.877	3.58
297.091	65.02
297.306	151.04
297.52	30.21
297.735	36.35
297.949	81.41
298.164	81.41
298.378	40.45
298.593	138.75
298.807	52.74
299.022	77.31
299.236	108.03
299.451	38.4
299.665	-20.99
299.88	97.79
300.094	34.3
300.309	130.56
300.523	69.12
300.737	-49.66
300.952	-6.66
301.166	91.65
301.381	48.64
301.595	73.21
301.809	26.11
302.024	30.21
302.238	13.82
302.452	40.45
302.667	30.21
302.881	108.03
303.095	81.41
303.309	52.74
303.524	60.93
303.738	-16.9
303.952	46.59
304.166	101.89
304.381	-0.51
304.595	48.64
304.809	34.3
305.023	44.54
305.237	103.93
305.452	103.93
305.666	32.26
305.88	69.12
306.094	60.93
306.308	60.93
306.522	-0.51
306.736	-2.56
306.95	83.45
307.164	58.88
307.379	52.74
307.593	36.35
307.807	75.26
308.021	24.06
308.235	97.79
308.449	-18.94
308.663	112.13
308.877	114.17
309.091	-29.18
309.305	7.68
309.519	22.02
309.733	60.93
309.947	118.27
310.161	126.46
310.374	67.07
310.588	44.54
310.802	34.3
311.016	114.17
311.23	56.83
311.444	15.87
311.658	56.83
311.872	56.83
312.085	-0.51
312.299	128.51
312.513	58.88
312.727	44.54
312.941	69.12
313.154	65.02
313.368	110.08
313.582	54.78
313.796	50.69
314.009	95.74
314.223	48.64
314.437	44.54
314.651	42.5
314.864	46.59
315.078	13.82
315.292	44.54
315.505	32.26
315.719	130.56
315.933	56.83
316.146	75.26
316.36	73.21
316.573	69.12
316.787	69.12
317.001	97.79
317.214	26.11
317.428	46.59
317.641	38.4
317.855	126.46
318.068	32.26
318.282	58.88
318.495	60.93
318.709	52.74
318.922	40.45
319.136	163.33
319.349	52.74
319.563	32.26
319.776	30.21
319.99	69.12
320.203	40.45
320.417	48.64
320.63	105.98
320.843	91.65
321.057	77.31
321.27	77.31
321.483	71.17
321.697	83.45
321.91	32.26
322.124	77.31
322.337	54.78
322.55	9.73
322.763	85.5
322.977	-6.66
323.19	99.84
323.403	3.58
323.617	71.17
323.83	83.45
324.043	48.64
324.256	38.4
324.469	9.73
324.683	54.78
324.896	75.26
325.109	134.65
325.322	65.02
325.535	73.21
325.748	13.82
325.962	48.64
326.175	118.27
326.388	71.17
326.601	44.54
326.814	-10.75
327.027	36.35
327.24	134.65
327.453	65.02
327.666	75.26
327.879	75.26
328.092	54.78
328.305	48.64
328.518	46.59
328.731	42.5
328.944	52.74
329.157	60.93
329.37	71.17
329.583	81.41
329.796	87.55
330.009	30.21
330.222	89.6
330.435	112.13
330.648	56.83
330.861	46.59
331.073	56.83
331.286	32.26
331.499	114.17
331.712	83.45
331.925	15.87
332.138	93.69
332.35	24.06
332.563	81.41
332.776	93.69
332.989	56.83
333.202	87.55
333.414	73.21
333.627	134.65
333.84	52.74
334.053	87.55
334.265	-6.66
334.478	32.26
334.691	38.4
334.903	77.31
335.116	81.41
335.329	24.06
335.541	97.79
335.754	87.55
335.966	56.83
336.179	69.12
336.392	69.12
336.604	58.88
336.817	9.73
337.029	99.84
337.242	58.88
337.454	95.74
337.667	95.74
337.88	65.02
338.092	19.97
338.305	46.59
338.517	81.41
338.729	114.17
338.942	73.21
339.154	11.78
339.367	60.93
339.579	101.89
339.792	-25.09
340.004	60.93
340.217	34.3
340.429	93.69
340.641	103.93
340.854	83.45
341.066	-27.14
341.278	95.74
341.491	79.36
341.703	67.07
341.915	87.55
342.128	13.82
342.34	75.26
342.552	48.64
342.764	81.41
342.977	54.78
343.189	-20.99
343.401	44.54
343.613	-4.61
343.826	40.45
344.038	17.92
344.25	19.97
344.462	22.02
344.674	83.45
344.886	124.41
345.099	103.93
345.311	108.03
345.523	126.46
345.735	13.82
345.947	48.64
346.159	52.74
346.371	95.74
346.583	91.65
346.795	97.79
347.007	62.98
347.219	93.69
347.431	79.36
347.643	65.02
347.855	103.93
348.067	-2.56
348.279	75.26
348.491	26.11
348.703	62.98
348.915	79.36
349.127	13.82
349.339	89.6
349.551	38.4
349.763	114.17
349.975	26.11
350.187	46.59
350.399	60.93
350.61	79.36
350.822	-16.9
351.034	54.78
351.246	26.11
351.458	50.69
351.669	112.13
351.881	50.69
352.093	103.93
352.305	77.31
352.517	44.54
352.728	26.11
352.94	9.73
353.152	-0.51
353.363	3.58
353.575	85.5
353.787	46.59
353.999	87.55
354.21	65.02
354.422	36.35
354.633	32.26
354.845	87.55
355.057	38.4
355.268	50.69
355.48	75.26
355.692	71.17
355.903	93.69
356.115	75.26
356.326	65.02
356.538	99.84
356.749	60.93
356.961	54.78
357.172	28.16
357.384	-4.61
357.595	42.5
357.807	60.93
358.018	52.74
358.23	48.64
358.441	138.75
358.653	93.69
358.864	36.35
359.075	48.64
359.287	-18.94
359.498	62.98
359.709	40.45
359.921	69.12
360.132	-4.61
360.344	5.63
360.555	146.94
360.766	110.08
360.977	75.26
361.189	91.65
361.4	1.54
361.611	116.22
361.823	60.93
362.034	114.17
362.245	7.68
362.456	62.98
362.667	116.22
362.879	40.45
363.09	62.98
363.301	116.22
363.512	65.02
363.723	79.36
363.935	48.64
364.146	28.16
364.357	73.21
364.568	71.17
364.779	83.45
364.99	77.31
365.201	69.12
365.412	56.83
365.623	40.45
365.834	52.74
366.045	58.88
366.256	93.69
366.467	67.07
366.678	77.31
366.889	105.98
367.1	54.78
367.311	69.12
367.522	81.41
367.733	26.11
367.944	114.17
368.155	95.74
368.366	38.4
368.577	26.11
368.788	42.5
368.999	56.83
369.209	116.22
369.42	87.55
369.631	116.22
369.842	87.55
370.053	97.79
370.264	87.55
370.474	89.6
370.685	69.12
370.896	108.03
371.107	54.78
371.317	71.17
371.528	56.83
371.739	71.17
371.95	60.93
372.16	69.12
372.371	81.41
372.582	69.12
372.792	34.3
373.003	83.45
373.214	15.87
373.424	91.65
373.635	26.11
373.846	32.26
374.056	36.35
374.267	91.65
374.477	157.18
374.688	85.5
374.898	36.35
375.109	105.98
375.319	95.74
375.53	50.69
375.74	-0.51
375.951	26.11
376.161	105.98
376.372	79.36
376.582	101.89
376.793	103.93
377.003	97.79
377.214	52.74
377.424	58.88
377.635	69.12
377.845	169.47
378.055	58.88
378.266	34.3
378.476	99.84
378.686	83.45
378.897	38.4
379.107	151.04
379.317	97.79
379.528	52.74
379.738	151.04
379.948	97.79
380.158	60.93
380.369	46.59
380.579	71.17
380.789	-8.7
380.999	105.98
381.21	128.51
381.42	101.89
381.63	91.65
381.84	48.64
382.05	34.3
382.261	99.84
382.471	34.3
382.681	91.65
382.891	71.17
383.101	108.03
383.311	118.27
383.521	28.16
383.731	79.36
383.941	95.74
384.151	75.26
384.361	122.37
384.571	103.93
384.781	112.13
384.991	60.93
385.201	101.89
385.411	89.6
385.621	99.84
385.831	118.27
386.041	85.5
386.251	99.84
386.461	73.21
386.671	52.74
386.881	132.61
387.091	54.78
387.301	97.79
387.511	19.97
387.72	157.18
387.93	146.94
388.14	-0.51
388.35	62.98
388.56	19.97
388.769	181.76
388.979	122.37
389.189	38.4
389.399	1.54
389.609	73.21
389.818	81.41
390.028	79.36
390.238	79.36
390.447	101.89
390.657	17.92
390.867	103.93
391.076	71.17
391.286	130.56
391.496	58.88
391.705	52.74
391.915	62.98
392.125	179.71
392.334	87.55
392.544	161.28
392.753	93.69
392.963	52.74
393.172	108.03
393.382	32.26
393.591	114.17
393.801	138.75
394.01	155.13
394.22	85.5
394.429	120.32
394.639	118.27
394.848	122.37
395.058	101.89
395.267	93.69
395.477	77.31
395.686	130.56
395.895	136.7
396.105	148.99
396.314	110.08
396.524	161.28
396.733	79.36
396.942	83.45
397.152	95.74
397.361	101.89
397.57	95.74
397.78	50.69
397.989	208.38
398.198	132.61
398.407	67.07
398.617	140.8
398.826	116.22
399.035	105.98
399.244	165.37
399.453	99.84
399.663	132.61
399.872	108.03
400.081	108.03
400.29	173.57
400.499	120.32
400.708	126.46
400.917	71.17
401.127	140.8
401.336	142.85
401.545	155.13
401.754	216.57
401.963	155.13
402.172	153.09
402.381	144.89
402.59	165.37
402.799	93.69
403.008	144.89
403.217	151.04
403.426	167.42
403.635	163.33
403.844	169.47
404.053	142.85
404.262	185.85
404.471	134.65
404.68	126.46
404.888	110.08
405.097	177.66
405.306	235
405.515	116.22
405.724	144.89
405.933	148.99
406.142	200.19
406.35	210.43
406.559	243.2
406.768	216.57
406.977	247.29
407.185	278.01
407.394	163.33
407.603	189.95
407.812	247.29
408.02	265.72
408.229	208.38
408.438	292.35
408.646	220.67
408.855	343.55
409.064	282.11
409.272	198.14
409.481	325.12
409.69	292.35
409.898	296.44
410.107	370.17
410.315	368.12
410.524	388.6
410.733	396.79
410.941	382.46
411.15	343.55
411.358	415.23
411.567	480.76
411.775	427.51
411.984	398.84
412.192	470.52
412.401	435.71
412.609	527.86
412.818	505.34
413.026	607.73
413.234	534.01
413.443	513.53
413.651	548.34
413.86	572.92
414.068	779.76
414.276	632.31
414.485	640.5
414.693	712.18
414.901	663.03
415.11	736.76
415.318	706.04
415.526	695.8
415.734	833.01
415.943	818.68
416.151	906.74
416.359	851.44
416.567	923.12
416.776	927.22
416.984	964.08
417.192	1043.95
417.4	1037.81
417.608	1002.99
417.817	1089.01
418.025	1099.25
418.233	1222.13
418.441	1078.77
418.649	1056.24
418.857	1345
419.065	1338.86
419.273	1349.1
419.481	1351.15
419.689	1420.78
419.897	1514.98
420.105	1609.19
420.313	1525.22
420.521	1691.11
420.729	1680.87
420.937	1748.45
421.145	1787.36
421.353	1852.9
421.561	1965.54
421.769	1992.16
421.977	2143.71
422.185	2094.56
422.393	2201.05
422.601	2442.71
422.809	2307.55
423.017	2418.14
423.224	2438.62
423.432	2504.15
423.64	2477.53
423.848	2717.14
424.056	2729.43
424.263	2801.11
424.471	2829.78
424.679	3005.91
424.887	3053.01
425.094	3311.05
425.302	3143.12
425.51	3395.02
425.718	3329.49
425.925	3390.92
426.133	3511.75
426.341	3851.72
426.548	3978.69
426.756	3921.35
426.964	3999.17
427.171	4244.93
427.379	4382.14
427.586	4296.13
427.794	4435.39
428.001	4824.5
428.209	5094.83
428.417	4887.99
428.624	5205.42
428.832	5287.34
429.039	5375.41
429.247	5172.66
429.454	5737.9
429.662	6178.21
429.869	5553.58
430.076	6124.96
430.284	5940.65
430.491	6088.1
430.699	6632.86
430.906	6667.67
431.114	6808.98
431.321	6895
431.528	7021.97
431.736	7619.98
431.943	7781.77
432.15	7460.24
432.358	7669.13
432.565	7970.18
432.772	8183.17
432.979	8451.46
433.187	8631.68
433.394	8801.66
433.601	9426.29
433.808	9424.24
434.016	9334.13
434.223	9616.75
434.43	10233.19
434.637	10177.89
434.844	10693.98
435.052	10767.71
435.259	10818.91
435.466	11087.19
435.673	10741.08
435.88	11490.64
436.087	12035.4
436.294	12350.79
436.501	11777.36
436.708	12389.7
436.915	12490.05
437.122	13180.21
437.329	13270.33
437.537	13532.47
437.743	13733.17
437.95	13667.63
438.157	14415.14
438.364	15021.34
438.571	14851.36
438.778	15045.91
438.985	16069.9
439.192	15506.71
439.399	16227.59
439.606	15936.78
439.813	16921.85
440.02	17607.92
440.227	17302.78
440.433	17384.69
440.64	17888.5
440.847	17693.94
441.054	18124.01
441.261	19201.24
441.467	19006.69
441.674	19547.35
441.881	20245.71
442.088	20251.85
442.294	19690.71
442.501	20604.1
442.708	21013.7
442.914	21826.74
443.121	22674.6
443.328	21888.18
443.534	23383.2
443.741	23112.86
443.948	22584.49
444.154	24259.73
444.361	24140.94
444.568	24317.07
444.774	24525.96
444.981	24845.44
445.187	25525.37
445.394	26575.98
445.6	26096.75
445.807	28546.12
446.013	27415.65
446.22	27935.83
446.426	29150.28
446.633	29080.64
446.839	30358.58
447.046	29230.15
447.252	30802.99
447.459	30559.28
447.665	30665.77
447.871	32011.29
448.078	33246.21
448.284	31972.38
448.491	32539.66
448.697	33897.47
448.903	34806.76
449.11	34683.89
449.316	34210.81
449.522	34851.82
449.728	35587.04
449.935	36027.35
450.141	35623.9
450.347	36793.29
450.553	35720.16
450.76	36209.62
450.966	37123.02
451.172	37166.02
451.378	37583.81
451.584	37157.83
451.791	38130.62
451.997	37616.58
452.203	38642.61
452.409	38302.65
452.615	38353.85
452.821	37104.59
453.027	36408.28
453.233	38341.56
453.44	36965.32
453.646	37532.61
453.852	37665.73
454.058	38206.39
454.264	37161.93
454.47	37827.52
454.676	37034.95
454.882	38376.37
455.088	35089.38
455.294	34995.18
455.5	36019.16
455.705	36307.93
455.911	35068.9
456.117	34380.79
456.323	34100.22
456.529	31964.18
456.735	33328.13
456.941	32726.03
457.147	31745.05
457.352	31173.67
457.558	31022.12
457.764	31116.33
457.97	30440.5
458.176	29641.79
458.381	29670.46
458.587	28175.44
458.793	28228.69
458.999	26932.33
459.204	28693.58
459.41	27896.92
459.616	26023.03
459.821	25791.61
460.027	25951.35
460.233	25541.75
460.438	24495.24
460.644	24487.05
460.85	23176.35
461.055	22451.37
461.261	22764.71
461.466	21021.89
461.672	20724.93
461.878	22234.28
462.083	20468.94
462.289	20262.09
462.494	20128.97
462.7	18986.21
462.905	18701.54
463.111	18930.91
463.316	19344.6
463.522	18986.21
463.727	19012.83
463.932	18961.63
464.138	18732.26
464.343	18791.65
464.549	18191.59
464.754	18973.92
464.959	18513.13
465.165	18691.3
465.37	17536.24
465.575	17147.13
465.781	17878.26
465.986	18257.13
466.191	17388.79
466.397	17315.06
466.602	16295.18
466.807	16940.29
467.012	17003.77
467.218	16784.64
467.423	16448.77
467.628	16760.06
467.833	17505.52
468.038	16854.27
468.244	16164.11
468.449	16839.94
468.654	16428.29
468.859	16246.02
469.064	16250.12
469.269	15463.7
469.474	15906.06
469.679	16006.41
469.885	15838.48
470.09	15947.02
470.295	15500.56
470.5	15420.69
470.705	15439.12
470.91	15142.17
471.115	14961.95
471.32	15031.58
471.525	14970.14
471.73	14609.7
471.935	14837.02
472.139	14247.21
472.344	14402.85
472.549	14261.54
472.754	14050.6
472.959	13874.48
473.164	13567.28
473.369	13329.72
473.574	13944.11
473.778	13831.47
473.983	13649.2
474.188	13348.15
474.393	12838.2
474.598	13180.21
474.802	12811.58
475.007	12782.91
475.212	12934.46
475.417	12285.25
475.621	12279.11
475.826	12272.96
476.031	12082.5
476.235	11955.53
476.44	12201.29
476.645	11793.74
476.849	11771.21
477.054	11605.33
477.259	11453.78
477.463	11681.1
477.668	11130.2
477.872	11122.01
478.077	11038.04
478.282	10972.5
478.486	10841.43
478.691	10771.8
478.895	10771.8
479.1	10851.67
479.304	10708.32
479.509	10196.32
479.713	10517.86
479.918	10296.67
480.122	10431.84
480.326	10399.07
480.531	10255.72
480.735	9997.67
480.94	10100.07
481.144	10495.33
481.348	9891.18
481.553	9954.66
481.757	9667.95
481.961	10210.66
482.166	10233.19
482.37	10134.89
482.574	9936.23
482.778	10024.3
482.983	10089.83
483.187	10044.77
483.391	9944.42
483.595	9723.24
483.8	9792.87
484.004	9829.74
484.208	9905.51
484.412	9985.38
484.616	10075.49
484.821	9921.9
485.025	9667.95
485.229	10012.01
485.433	9860.46
485.637	10020.2
485.841	9973.1
486.045	9923.94
486.249	9817.45
486.453	9985.38
486.657	9766.25
486.861	10157.41
487.065	9602.41
487.269	9917.8
487.473	9829.74
487.677	9952.62
487.881	9880.94
488.085	9950.57
488.289	9915.75
488.493	9751.92
488.697	9915.75
488.901	10202.47
489.105	9831.79
489.309	10026.34
489.512	9956.71
489.716	9866.6
489.92	9917.8
490.124	9858.41
490.328	10181.99
490.531	10210.66
490.735	10022.25
490.939	10163.56
491.143	10145.13
491.346	10216.8
491.55	10149.22
491.754	10253.67
491.958	10607.97
492.161	10253.67
492.365	10493.28
492.569	10356.07
492.772	10335.59
492.976	10509.66
493.18	10704.22
493.383	10575.2
493.587	10747.23
493.79	10769.76
493.994	10796.38
494.197	10743.13
494.401	11017.56
494.605	10851.67
494.808	11058.52
495.012	11162.97
495.215	11167.06
495.419	11269.46
495.622	11156.82
495.825	11504.98
496.029	11404.63
496.232	11646.29
496.436	11615.57
496.639	12072.26
496.843	11943.24
497.046	12158.28
497.249	12111.18
497.453	12221.77
497.656	12328.26
497.859	12500.29
498.063	12467.52
498.266	12737.85
498.469	12672.32
498.673	13063.48
498.876	12938.55
499.079	13108.54
499.282	13372.72
499.485	13571.38
499.689	13473.07
499.892	13677.87
500.095	13634.86
500.298	14060.84
500.501	13847.85
500.705	14640.42
500.908	14327.08
501.111	14503.2
501.314	14789.92
501.517	15064.35
501.72	15463.7
501.923	15103.26
502.126	15578.39
502.329	15635.73
502.532	15758.61
502.735	15963.4
502.938	16178.44
503.141	16098.57
503.344	16479.49
503.547	16434.44
503.75	17097.98
503.953	16944.38
504.156	17061.12
504.359	17419.51
504.562	17485.05
504.765	17855.73
504.968	18007.28
505.17	17978.61
505.373	18048.24
505.576	18480.36
505.779	18679.01
505.982	18621.67
506.185	19328.22
506.387	19270.87
506.59	19285.21
506.793	19694.8
506.996	19594.45
507.198	20319.43
507.401	20221.13
507.604	20161.74
507.807	20759.75
508.009	20769.99
508.212	20966.59
508.415	21454.01
508.617	21675.19
508.82	21654.71
509.022	21619.89
509.225	22045.87
509.428	22191.28
509.63	22410.41
509.833	22568.1
510.035	23147.68
510.238	22867.11
510.44	23338.14
510.643	23383.2
510.845	23454.87
511.048	23817.36
511.25	24306.83
511.453	24335.5
511.655	25195.65
511.858	24876.16
512.06	24986.75
512.262	25197.7
512.465	25486.46
512.667	25576.57
512.87	25812.09
513.072	26119.28
513.274	26543.21
513.477	26643.56
513.679	26946.66
513.881	27014.24
514.084	27323.49
514.286	27718.75
514.488	27526.24
514.69	28306.51
514.893	28527.69
515.095	28390.48
515.297	28843.08
515.499	28900.42
515.701	29199.43
515.904	29711.42
516.106	29834.3
516.308	30030.9
516.51	30444.59
516.712	30403.63
516.914	30630.96
517.116	31325.22
517.318	31220.77
517.52	31188
517.722	31407.14
517.925	32195.6
518.127	32543.76
518.329	32422.93
518.531	32336.91
518.733	33006.6
518.935	33397.76
519.136	33489.92
519.338	33862.65
519.54	33942.52
519.742	34143.22
519.944	34157.56
520.146	34831.34
520.348	34946.03
520.55	35392.48
520.752	35552.23
520.954	35589.09
521.155	35736.54
521.357	36402.13
521.559	36338.65
521.761	36654.03
521.963	36568.02
522.164	36748.24
522.366	36920.27
522.568	37512.13
522.77	37962.68
522.971	38734.77
523.173	38075.32
523.375	38376.37
523.576	38495.16
523.778	38230.97
523.98	39027.63
524.181	38982.57
524.383	39162.79
524.584	39426.98
524.786	39734.18
524.988	39433.13
525.189	40027.04
525.391	40471.45
525.592	40489.88
525.794	40682.39
525.995	40786.83
526.197	40559.51
526.398	40848.27
526.6	41288.59
526.801	41530.25
527.003	41184.14
527.204	41626.5
527.406	41806.72
527.607	41761.67
527.808	42347.39
528.01	41405.32
528.211	42148.73
528.412	42394.49
528.614	42265.47
528.815	42509.18
529.016	42554.23
529.218	42857.33
529.419	42718.07
529.62	42765.17
529.822	42554.23
530.023	42955.63
530.224	42773.36
530.425	43156.33
530.626	42759.03
530.828	42709.88
531.029	43852.64
531.23	43086.7
531.431	43387.75
531.632	43193.2
531.833	43275.12
532.035	43397.99
532.236	43557.74
532.437	43750.24
532.638	43219.82
532.839	43594.6
533.04	43633.51
533.241	43262.83
533.442	44551
533.643	43387.75
533.844	43797.35
534.045	43567.98
534.246	43713.38
534.447	44024.67
534.648	43539.3
534.849	44067.68
535.05	43529.06
535.251	44280.67
535.451	44002.14
535.652	44335.96
535.853	43742.05
536.054	43823.97
536.255	44256.09
536.456	43580.26
536.657	44473.18
536.857	43993.95
537.058	44039.01
537.259	44174.17
537.46	44051.3
537.66	44071.78
537.861	44600.15
538.062	44225.37
538.263	44184.41
538.463	43856.74
538.664	44106.59
538.865	43866.98
539.065	43971.43
539.266	43281.26
539.466	44260.19
539.667	43774.82
539.868	44049.25
540.068	44350.3
540.269	44133.21
540.469	44264.28
540.67	43891.55
540.87	43697
541.071	43940.71
541.271	43977.57
541.472	43629.41
541.672	43699.05
541.873	43637.61
542.073	43418.47
542.274	44110.69
542.474	43703.14
542.675	43457.38
542.875	43740
543.075	43613.03
543.276	43520.87
543.476	44247.9
543.676	43844.45
543.877	43989.86
544.077	44137.31
544.277	43787.11
544.478	43756.39
544.678	43776.87
544.878	43352.94
545.078	43783.01
545.279	43426.67
545.479	43801.44
545.679	43762.53
545.879	43789.16
546.079	44018.53
546.28	43694.95
546.48	43205.48
546.68	43791.2
546.88	43844.45
547.08	43901.79
547.28	43729.76
547.48	42883.95
547.68	43957.09
547.88	43113.33
548.081	43840.36
548.281	43596.65
548.481	43488.1
548.681	43805.54
548.881	43572.07
549.081	43582.31
549.28	43228.01
549.48	43811.68
549.68	43484.01
549.88	44264.28
550.08	43531.11
550.28	43864.93
550.48	43572.07
550.68	43879.27
550.88	43289.45
551.08	43676.52
551.279	43778.92
551.479	43027.31
551.679	43563.88
551.879	42998.64
552.079	43887.46
552.278	43694.95
552.478	43510.63
552.678	43445.1
552.878	43875.17
553.077	43553.64
553.277	43244.4
553.477	43871.07
553.676	43912.03
553.876	43379.56
554.076	43365.23
554.275	42955.63
554.475	43142
554.674	43666.28
554.874	43359.08
555.074	42908.53
555.273	43103.09
555.473	43559.78
555.672	42965.87
555.872	43207.53
556.071	43191.15
556.271	43434.86
556.47	42572.66
556.67	42425.21
556.869	43375.47
557.068	42961.78
557.268	42548.09
557.467	42744.69
557.667	42974.06
557.866	43242.35
558.065	42187.64
558.265	42267.52
558.464	42449.78
558.663	43072.37
558.863	42001.28
559.062	42986.35
559.261	42396.54
559.461	42638.2
559.66	41966.46
559.859	42097.53
560.058	42064.77
560.258	42005.38
560.457	41919.36
560.656	42101.63
560.855	42285.95
561.054	42214.27
561.253	41808.77
561.453	42414.97
561.652	42244.99
561.851	41941.89
562.05	42070.91
562.249	41726.85
562.448	41980.8
562.647	41814.91
562.846	41819.01
563.045	41655.17
563.244	41311.11
563.443	41954.18
563.642	41106.32
563.841	41350.03
564.04	41214.86
564.239	41864.07
564.438	41188.24
564.637	41397.13
564.836	41403.27
565.035	40508.31
565.234	41266.06
565.432	40997.77
565.631	40698.77
565.83	41022.35
566.029	40743.83
566.228	40526.74
566.427	40307.61
566.625	40561.56
566.824	40045.47
567.023	40872.85
567.222	39799.71
567.42	40448.92
567.619	40311.7
567.818	40205.21
568.016	40145.82
568.215	40410.01
568.414	40070.04
568.612	40379.29
568.811	39791.52
569.01	40123.29
569.208	39680.93
569.407	40016.8
569.605	39361.45
569.804	39664.55
570.002	39445.41
570.201	39459.75
570.4	39230.38
570.598	38945.71
570.797	38886.32
570.995	39222.19
571.193	39158.7
571.392	39314.34
571.59	38853.55
571.789	39037.87
571.987	38970.29
572.186	38800.3
572.384	38988.72
572.582	38792.11
572.781	38206.39
572.979	37891.01
573.177	38163.39
573.376	38626.23
573.574	38228.92
573.772	38304.7
573.971	38206.39
574.169	37782.46
574.367	37549
574.565	37798.85
574.763	37757.89
574.962	37544.9
575.16	37460.93
575.358	37600.19
575.556	37108.68
575.754	37950.4
575.952	37190.6
576.151	37632.96
576.349	36813.77
576.547	37235.66
576.745	36797.39
576.943	36983.76
577.141	36631.51
577.339	36916.17
577.537	36697.04
577.735	36686.8
577.933	36342.74
578.131	36791.25
578.329	36258.77
578.527	36178.9
578.725	36406.23
578.923	36015.07
579.121	36053.98
579.319	35707.87
579.516	36314.07
579.714	36242.39
579.912	35705.82
580.11	35544.03
580.308	35671.01
580.506	35916.76
580.704	35247.08
580.901	35462.11
581.099	35183.59
581.297	35349.48
581.495	35388.39
581.692	35042.28
581.89	35097.58
582.088	35505.12
582.285	34853.87
582.483	34868.2
582.681	34835.44
582.878	34771.95
583.076	34503.67
583.274	34640.88
583.471	34558.96
583.669	34462.71
583.866	34092.02
584.064	34524.15
584.262	33963
584.459	34157.56
584.657	33965.05
584.854	33827.84
585.052	33561.6
585.249	33854.46
585.447	33543.17
585.644	33588.22
585.841	33328.13
586.039	33885.18
586.236	33143.81
586.434	33000.46
586.631	33227.78
586.828	33221.64
587.026	33182.73
587.223	33170.44
587.42	32932.87
587.618	33063.94
587.815	32556.05
588.012	32824.33
588.21	32508.94
588.407	33014.79
588.604	32259.09
588.801	31921.18
588.999	32173.08
589.196	32136.21
589.393	32111.64
589.59	31890.46
589.787	31736.86
589.984	31595.55
590.182	31706.14
590.379	31996.95
590.576	31671.32
590.773	31484.96
590.97	31626.27
591.167	31558.69
591.364	31046.69
591.561	31255.59
591.758	31151.14
591.955	30860.33
592.152	31202.34
592.349	30653.48
592.546	30710.83
592.743	30784.55
592.94	30422.06
593.137	30278.71
593.334	30850.09
593.531	30252.08
593.727	30329.91
593.924	30303.28
594.121	30096.44
594.318	30176.31
594.515	29756.47
594.712	30282.8
594.908	29940.79
595.105	29955.13
595.302	29748.28
595.499	29776.95
595.696	29461.57
595.892	29344.83
596.089	29850.68
596.286	29242.43
596.482	29205.57
596.679	29185.09
596.876	29119.56
597.072	29099.08
597.269	29156.42
597.466	28675.15
597.662	28240.98
597.859	28951.62
598.055	28806.22
598.252	28367.95
598.448	28716.11
598.645	28228.69
598.841	27903.06
599.038	28183.63
599.234	28337.23
599.431	28036.18
599.627	27626.59
599.824	28068.95
600.02	27757.66
600.217	27968.6
600.413	27675.74
600.609	27851.86
600.806	27405.41
601.002	27364.45
601.198	27337.82
601.395	27223.14
601.591	26895.46
601.787	27173.99
601.984	26981.48
602.18	27149.41
602.376	27114.59
602.572	26612.84
602.769	26915.94
602.965	26508.4
603.161	26805.35
603.357	26395.76
603.553	26158.19
603.75	26260.59
603.946	26412.14
604.142	26301.55
604.338	25939.06
604.534	26377.33
604.73	25963.64
604.926	25873.53
605.122	26125.43
605.318	25793.65
605.514	25683.06
605.71	25771.13
605.906	25832.57
606.102	25519.23
606.298	25775.22
606.494	25597.05
606.69	25279.61
606.886	25457.79
607.082	25101.44
607.278	25457.79
607.474	24796.29
607.67	25246.85
607.866	24820.87
608.062	25152.64
608.257	25035.91
608.453	24837.25
608.649	24910.98
608.845	24917.12
609.041	24689.8
609.236	24870.02
609.432	24773.77
609.628	24951.94
609.824	24437.9
610.019	24292.49
610.215	24558.73
610.411	24722.57
610.606	24599.69
610.802	24523.91
610.998	24132.75
611.193	24587.4
611.389	23956.63
611.584	24233.1
611.78	24087.7
611.976	24159.38
612.171	24044.69
612.367	24265.87
612.562	23989.39
612.758	23663.77
612.953	23590.04
613.149	23649.43
613.344	23762.07
613.539	24167.57
613.735	23614.62
613.93	23839.89
614.126	23600.28
614.321	23819.41
614.517	23831.7
614.712	23688.34
614.907	23153.82
615.103	23682.2
615.298	23585.94
615.493	23481.5
615.688	23129.25
615.884	23880.85
616.079	23155.87
616.274	23329.95
616.47	23307.42
616.665	23379.1
616.86	23141.53
617.055	23213.21
617.25	22807.72
617.445	22770.85
617.641	22875.3
617.836	23243.93
618.031	22351.02
618.226	22607.02
618.421	22822.05
618.616	22807.72
618.811	22199.47
619.006	22541.48
619.201	22396.07
619.396	22351.02
619.591	21906.61
619.786	22256.81
619.981	21857.46
620.176	22258.86
620.371	21857.46
620.566	21945.52
620.761	21707.96
620.956	22080.69
621.151	21492.92
621.346	21705.91
621.541	21183.68
621.735	21472.44
621.93	21198.01
622.125	21165.25
622.32	20937.92
622.515	20763.84
622.709	20714.69
622.904	20591.81
623.099	20630.73
623.294	20808.9
623.488	20085.97
623.683	20581.57
623.878	20169.93
624.072	20219.08
624.267	19913.94
624.462	20141.26
624.656	19592.41
624.851	19825.87
625.046	19573.97
625.24	19625.17
625.435	19332.31
625.629	19320.03
625.824	19217.63
626.018	19291.35
626.213	18699.49
626.407	19082.46
626.602	18818.27
626.796	19066.08
626.991	18986.21
627.185	18726.11
627.38	18416.87
627.574	18048.24
627.768	18232.55
627.963	18105.58
628.157	18095.34
628.352	18193.64
628.546	17710.32
628.74	17972.46
628.935	17628.4
629.129	17526
629.323	17552.63
629.517	17341.69
629.712	17261.82
629.906	17304.82
630.1	16958.72
630.294	16819.46
630.489	16909.57
630.683	16936.19
630.877	16837.89
631.071	16674.05
631.265	16989.44
631.459	16633.09
631.653	16481.54
631.848	16338.18
632.042	16530.69
632.236	15930.64
632.43	16028.94
632.624	16178.44
632.818	15916.3
633.012	15844.62
633.206	15789.33
633.4	15951.12
633.594	15508.76
633.788	15621.39
633.982	15451.41
634.176	15496.47
634.369	15240.47
634.563	15258.9
634.757	15418.64
634.951	15181.08
635.145	15072.54
635.339	15142.17
635.533	15007
635.726	14699.81
635.92	14693.66
636.114	14951.71
636.308	14517.54
636.501	14636.32
636.695	14458.15
636.889	14462.24
637.083	14576.93
637.276	14310.69
637.47	14335.27
637.664	14169.38
637.857	14005.55
638.051	14085.42
638.244	13935.92
638.438	13798.7
638.632	13792.56
638.825	13837.61
639.019	13530.42
639.212	13542.71
639.406	13460.79
639.599	13354.29
639.793	13477.17
639.986	13380.92
640.18	13094.2
640.373	13260.09
640.567	13049.14
640.76	13057.34
640.954	13051.19
641.147	12621.12
641.34	12846.4
641.534	12938.55
641.727	12397.89
641.92	12610.88
642.114	12574.02
642.307	12539.2
642.5	12574.02
642.694	12311.88
642.887	12391.75
643.08	12344.64
643.273	12189
643.467	12293.44
643.66	12012.87
643.853	12094.79
644.046	12035.4
644.239	11912.52
644.432	11910.47
644.626	11855.18
644.819	11634
645.012	11679.05
645.205	11597.14
645.398	11511.12
645.591	11451.73
645.784	11662.67
645.977	11318.61
646.17	11433.3
646.363	11361.62
646.556	11199.83
646.749	11306.32
646.942	11199.83
647.135	11062.62
647.328	10968.41
647.521	10939.74
647.714	10849.63
647.907	10685.79
648.099	10992.98
648.292	10773.85
648.485	10593.63
648.678	10554.72
648.871	10665.31
649.064	10663.26
649.256	10595.68
649.449	10433.89
649.642	10401.12
649.835	10280.29
650.027	10290.53
650.22	10069.35
650.413	10229.09
650.605	10016.1
650.798	9987.43
650.991	10147.17
651.183	10034.53
651.376	9809.26
651.568	10024.3
651.761	9655.66
651.954	9942.38
652.146	9774.44
652.339	9592.17
652.531	9559.41
652.724	9837.93
652.916	9586.03
653.109	9540.97
653.301	9465.2
653.494	9516.4
653.686	9356.66
653.879	9514.35
654.071	9233.78
654.263	9168.24
654.456	9035.13
654.648	9233.78
654.84	9125.24
655.033	8967.54
655.225	8820.09
655.417	8803.71
655.61	8963.45
655.802	8889.72
655.994	8723.83
656.186	8848.76
656.379	8492.41
656.571	8732.03
656.763	8684.92
656.955	8435.07
657.148	8555.9
657.34	8473.98
657.532	8437.12
657.724	8379.78
657.916	8381.82
658.108	8406.4
658.3	8119.68
658.492	8213.89
658.684	8111.49
658.876	8162.69
659.068	8134.02
659.26	8072.58
659.452	7978.37
659.644	8041.86
659.836	7875.98
660.028	7988.61
660.22	7765.39
660.412	7830.92
660.604	7742.86
660.796	7681.42
660.988	7890.31
661.18	7552.4
661.372	7632.27
661.563	7677.32
661.755	7562.64
661.947	7495.05
662.139	7454.09
662.331	7488.91
662.522	7454.09
662.714	7361.94
662.906	7327.12
663.097	7337.36
663.289	7351.7
663.481	7312.78
663.673	7267.73
663.864	7206.29
664.056	6954.39
664.247	7171.47
664.439	6907.29
664.631	7054.74
664.822	6935.96
665.014	7042.45
665.205	6946.2
665.397	6989.21
665.588	6997.4
665.78	6833.56
665.971	6858.14
666.163	6915.48
666.354	6737.31
666.546	6845.85
666.737	6659.48
666.929	6561.18
667.12	6583.71
667.311	6667.67
667.503	6512.03
667.694	6489.5
667.885	6315.42
668.077	6520.22
668.268	6596
668.459	6358.43
668.651	6464.93
668.842	6286.75
669.033	6200.74
669.224	6430.11
669.416	6282.66
669.607	6194.59
669.798	6120.87
669.989	6186.4
670.18	6016.42
670.371	6127.01
670.563	6139.3
670.754	6034.85
670.945	6133.15
671.136	6034.85
671.327	6022.56
671.518	5957.03
671.709	5954.98
671.9	5991.84
672.091	5832.1
672.282	5993.89
672.473	5903.78
672.664	5916.07
672.855	5807.53
673.046	5785
673.237	5868.97
673.428	5793.19
673.619	6024.61
673.809	5600.68
674	5684.65
674.191	5709.22
674.382	5572.01
674.573	5782.95
674.764	5561.77
674.954	5629.35
675.145	5602.73
675.336	5565.87
675.527	5612.97
675.717	5551.53
675.908	5412.27
676.099	5492.14
676.289	5584.3
676.48	5406.13
676.671	5352.88
676.861	5481.9
677.052	5268.91
677.243	5273.01
677.433	5303.73
677.624	5350.83
677.814	5408.17
678.005	5291.44
678.195	5223.86
678.386	5152.18
678.576	5254.58
678.767	5072.31
678.957	5141.94
679.148	5285.3
679.338	5201.33
679.529	5053.87
679.719	5137.84
679.909	5123.51
680.1	5062.07
680.29	5186.99
680.481	5103.03
680.671	5088.69
680.861	5178.8
681.052	4978.1
681.242	4957.62
681.432	5041.59
681.622	5029.3
681.813	5064.11
682.003	5037.49
682.193	4933.04
682.383	4994.48
682.573	4879.8
682.764	5053.87
682.954	4855.22
683.144	4949.43
683.334	4918.71
683.524	4838.84
683.714	4931
683.904	4738.49
684.094	4693.43
684.284	4818.36
684.474	5053.87
684.664	4808.12
684.854	4752.82
685.044	4871.61
685.234	4679.1
685.424	4754.87
685.614	4752.82
685.804	4672.95
685.994	4718.01
686.184	4683.19
686.374	4697.53
686.564	4474.3
686.753	4634.04
686.943	4498.88
687.133	4642.23
687.323	4486.59
687.513	4531.64
687.702	4525.5
687.892	4609.47
688.082	4574.65
688.272	4439.48
688.461	4505.02
688.651	4314.56
688.841	4494.78
689.03	4406.72
689.22	4410.81
689.41	4253.12
689.599	4455.87
689.789	4328.89
689.979	4261.31
690.168	4320.7
690.358	4302.27
690.547	4212.16
690.737	4177.34
690.926	4201.92
691.116	4134.34
691.305	4189.63
691.495	4062.66
691.684	3947.97
691.874	4085.19
692.063	4156.86
692.252	4134.34
692.442	4019.65
692.631	4027.84
692.82	4031.94
693.01	4011.46
693.199	3821
693.388	3855.81
693.578	3878.34
693.767	3999.17
693.956	3956.16
694.146	4013.51
694.335	3777.99
694.524	3765.7
694.713	3804.61
694.902	3816.9
695.092	3796.42
695.281	3753.41
695.47	3806.66
695.659	3687.88
695.848	3638.73
696.037	3818.95
696.226	3710.41
696.415	3747.27
696.604	3716.55
696.793	3673.54
696.982	3728.84
697.171	3689.93
697.36	3632.58
697.549	3556.81
697.738	3442.12
697.927	3521.99
698.116	3565
698.305	3599.82
698.494	3579.34
698.683	3505.61
698.872	3573.19
699.061	3612.1
699.25	3499.47
699.438	3526.09
699.627	3446.22
699.816	3435.98
700.005	3513.8
700.193	3474.89
700.382	3503.56
700.571	3454.41
700.76	3415.5
700.948	3460.56
701.137	3474.89
701.326	3362.25
701.514	3597.77
701.703	3470.8
701.892	3487.18
702.08	3481.03
702.269	3554.76
702.457	3358.16
702.646	3413.45
702.834	3466.7
703.023	3253.71
703.212	3409.36
703.4	3470.8
703.589	3292.62
703.777	3417.55
703.965	3462.6
704.154	3374.54
704.342	3560.91
704.531	3278.29
704.719	3251.66
704.907	3352.01
705.096	3360.2
705.284	3327.44
705.472	3345.87
705.661	3341.77
705.849	3337.68
706.037	3294.67
706.226	3319.25
706.414	3356.11
706.602	3200.46
706.79	3329.49
706.979	3304.91
707.167	3266
707.355	3190.22
707.543	3212.75
707.731	3286.48
707.919	3319.25
708.107	3241.42
708.296	3302.86
708.484	3175.89
708.672	3276.24
708.86	3231.18
709.048	3323.34
709.236	3253.71
709.424	3220.94
709.612	3179.98
709.8	3171.79
709.988	3302.86
710.176	3286.48
710.364	3239.37
710.551	3341.77
710.739	3235.28
710.927	3214.8
711.115	3239.37
711.303	3192.27
711.491	3186.13
711.679	3194.32
711.866	3331.53
712.054	3194.32
712.242	3157.46
712.43	3253.71
712.617	3175.89
712.805	3225.04
712.993	3173.84
713.181	3141.07
713.368	3216.85
713.556	3235.28
713.744	3126.74
713.931	3206.61
714.119	3038.67
714.306	3192.27
714.494	3210.7
714.682	3130.83
714.869	3309.01
715.057	3229.13
715.244	3210.7
715.432	3147.22
715.619	3130.83
715.807	3143.12
715.994	3294.67
716.182	3151.31
716.369	3136.98
716.556	3159.5
716.744	3118.54
716.931	3237.33
717.119	3202.51
717.306	3188.18
717.493	3167.7
717.681	3067.35
717.868	3237.33
718.055	3231.18
718.242	3122.64
718.43	3341.77
718.617	3077.59
718.804	3063.25
718.991	3255.76
719.179	3243.47
719.366	3114.45
719.553	3169.74
719.74	3169.74
719.927	3093.97
720.114	3192.27
720.301	3139.02
720.488	3116.5
720.676	3251.66
720.863	3147.22
721.05	3093.97
721.237	3159.5
721.424	3204.56
721.611	3206.61
721.798	3063.25
721.985	3130.83
722.172	3075.54
722.358	3007.95
722.545	3022.29
722.732	3192.27
722.919	3112.4
723.106	3036.63
723.293	3165.65
723.48	3126.74
723.667	3071.44
723.853	3020.24
724.04	3134.93
724.227	3225.04
724.414	3145.17
724.6	3053.01
724.787	3139.02
724.974	3063.25
725.161	3118.54
725.347	3093.97
725.534	3108.3
725.72	3141.07
725.907	3044.82
726.094	3044.82
726.28	3032.53
726.467	3007.95
726.653	3075.54
726.84	3014.1
727.027	2991.57
727.213	2977.23
727.4	3007.95
727.586	2993.62
727.773	3040.72
727.959	3057.11
728.145	3091.92
728.332	3016.15
728.518	3116.5
728.705	3016.15
728.891	3136.98
729.077	3001.81
729.264	2964.95
729.45	2973.14
729.636	3093.97
729.823	2946.52
730.009	3167.7
730.195	2962.9
730.382	3169.74
730.568	2969.04
730.754	3048.91
730.94	2903.51
731.126	2997.71
731.313	3237.33
731.499	3053.01
731.685	3034.58
731.871	2954.71
732.057	3112.4
732.243	3057.11
732.429	2987.47
732.615	2999.76
732.801	2893.27
732.987	2938.32
733.173	3136.98
733.359	3024.34
733.545	2934.23
733.731	2887.12
733.917	3139.02
734.103	2977.23
734.289	2858.45
734.475	3038.67
734.661	3014.1
734.847	2893.27
735.033	3010
735.219	3053.01
735.404	2999.76
735.59	2932.18
735.776	2926.04
735.962	2891.22
736.148	3010
736.333	2907.6
736.519	2954.71
736.705	3044.82
736.89	2850.26
737.076	2919.89
737.262	2905.56
737.447	2856.4
737.633	2809.3
737.819	2975.19
738.004	2801.11
738.19	2930.13
738.375	2850.26
738.561	2850.26
738.747	2878.93
738.932	2850.26
739.118	2878.93
739.303	2756.05
739.489	2905.56
739.674	2809.3
739.859	2823.64
740.045	2835.92
740.23	2711
740.416	2794.97
740.601	2762.2
740.786	2743.77
740.972	2733.53
741.157	2743.77
741.342	2801.11
741.528	2577.88
741.713	2821.59
741.898	2717.14
742.084	2758.1
742.269	2633.18
742.454	2735.57
742.639	2655.7
742.824	2682.33
743.01	2649.56
743.195	2629.08
743.38	2624.98
743.565	2702.81
743.75	2629.08
743.935	2637.27
744.12	2737.62
744.305	2608.6
744.49	2622.94
744.675	2641.37
744.86	2434.52
745.045	2467.29
745.23	2493.91
745.415	2489.82
745.6	2498.01
745.785	2590.17
745.97	2588.12
746.155	2485.72
746.34	2420.19
746.525	2461.15
746.71	2536.92
746.895	2455
747.079	2450.91
747.264	2338.27
747.449	2524.63
747.634	2346.46
747.819	2440.67
748.003	2242.01
748.188	2438.62
748.373	2280.93
748.557	2303.45
748.742	2297.31
748.927	2250.21
749.111	2256.35
749.296	2250.21
749.481	2336.22
749.665	2235.87
749.85	2139.62
750.034	2307.55
750.219	2209.25
750.404	2196.96
750.588	2237.92
750.773	2100.7
750.957	2096.61
751.141	2153.95
751.326	2033.12
751.51	2053.6
751.695	2024.93
751.879	2008.55
752.064	2139.62
752.248	2049.5
752.432	2049.5
752.617	1932.77
752.801	1943.01
752.985	1902.05
753.17	2022.88
753.354	1916.39
753.538	1869.28
753.722	1861.09
753.907	1973.73
754.091	1848.8
754.275	1865.19
754.459	1932.77
754.643	1785.32
754.828	1934.82
755.012	1879.52
755.196	1760.74
755.38	1859.04
755.564	1709.54
755.748	1791.46
755.932	1840.61
756.116	1719.78
756.3	1744.36
756.484	1637.86
756.668	1699.3
756.852	1635.82
757.036	1629.67
757.22	1639.91
757.404	1607.14
757.588	1502.7
757.772	1701.35
757.956	1594.86
758.14	1664.49
758.323	1582.57
758.507	1592.81
758.691	1574.38
758.875	1570.28
759.059	1609.19
759.242	1557.99
759.426	1457.64
759.61	1506.79
759.794	1560.04
759.977	1484.27
760.161	1578.47
760.345	1496.55
760.528	1668.58
760.712	1476.07
760.895	1514.98
761.079	1476.07
761.263	1451.5
761.446	1482.22
761.63	1414.63
761.813	1523.18
761.997	1373.68
762.18	1396.2
762.364	1533.42
762.547	1385.96
762.731	1435.11
762.914	1385.96
763.098	1338.86
763.281	1332.72
763.464	1441.26
763.648	1353.2
763.831	1437.16
764.015	1359.34
764.198	1349.1
764.381	1455.59
764.564	1289.71
764.748	1338.86
764.931	1345
765.114	1336.81
765.297	1330.67
765.481	1187.31
765.664	1293.8
765.847	1158.64
766.03	1215.98
766.213	1187.31
766.397	1295.85
766.58	1224.17
766.763	1302
766.946	1275.37
767.129	1252.84
767.312	1203.69
767.495	1299.95
767.678	1193.45
767.861	1138.16
768.044	1226.22
768.227	1228.27
768.41	1211.89
768.593	1230.32
768.776	1246.7
768.959	1127.92
769.142	1183.21
769.324	1052.14
769.507	1144.3
769.69	1035.76
769.873	1191.41
770.056	1123.82
770.239	1140.21
770.421	1213.93
770.604	1101.3
770.787	1146.35
770.97	1199.6
771.152	1181.17
771.335	1117.68
771.518	1072.62
771.7	1146.35
771.883	1052.14
772.066	1144.3
772.248	1000.94
772.431	1023.47
772.613	1033.71
772.796	1054.19
772.978	1072.62
773.161	1058.29
773.343	976.37
773.526	951.79
773.708	959.99
773.891	994.8
774.073	943.6
774.256	970.23
774.438	1066.48
774.621	923.12
774.803	986.61
774.985	910.83
775.168	984.56
775.35	898.55
775.532	955.89
775.715	935.41
775.897	1013.23
776.079	894.45
776.261	929.27
776.444	888.31
776.626	847.35
776.808	919.03
776.99	865.78
777.173	929.27
777.355	980.47
777.537	841.2
777.719	925.17
777.901	857.59
778.083	902.64
778.265	785.91
778.447	837.11
778.629	841.2
778.811	876.02
778.993	775.67
779.175	769.52
779.357	814.58
779.539	757.24
779.721	794.1
779.903	759.28
780.085	744.95
780.267	722.42
780.449	697.85
780.631	814.58
780.812	759.28
780.994	740.85
781.176	757.24
781.358	732.66
781.54	734.71
781.721	628.21
781.903	773.62
782.085	732.66
782.267	683.51
782.448	683.51
782.63	693.75
782.812	701.94
782.993	665.08
783.175	722.42
783.357	656.89
783.538	724.47
783.72	654.84
783.901	675.32
784.083	689.65
784.264	609.78
784.446	572.92
784.627	572.92
784.809	660.98
784.99	699.89
785.172	660.98
785.353	671.22
785.535	574.97
785.716	579.06
785.897	558.58
786.079	566.78
786.26	558.58
786.441	601.59
786.623	609.78
786.804	579.06
786.985	591.35
787.167	579.06
787.348	599.54
787.529	587.26
787.71	603.64
787.891	529.91
788.073	519.67
788.254	556.54
788.435	597.49
788.616	564.73
788.797	468.47
788.978	495.1
789.159	486.9
789.34	476.66
789.522	556.54
789.703	509.43
789.884	529.91
790.065	466.42
790.246	525.82
790.427	441.85
790.607	413.18
790.788	486.9
790.969	425.47
791.15	558.58
791.331	536.06
791.512	470.52
791.693	447.99
791.874	523.77
792.054	499.19
792.235	529.91
792.416	443.9
792.597	470.52
792.778	447.99
792.958	495.1
793.139	476.66
793.32	468.47
793.5	392.7
793.681	560.63
793.862	447.99
794.042	378.36
794.223	398.84
794.404	374.27
794.584	392.7
794.765	439.8
794.945	427.51
795.126	456.19
795.306	396.79
795.487	341.5
795.667	392.7
795.848	357.88
796.028	413.18
796.209	361.98
796.389	400.89
796.57	382.46
796.75	361.98
796.93	323.07
797.111	337.4
797.291	359.93
797.471	423.42
797.652	300.54
797.832	413.18
798.012	402.94
798.192	288.25
798.373	255.48
798.553	337.4
798.733	349.69
798.913	333.31
799.093	390.65
799.274	376.31
799.454	341.5
799.634	378.36
799.814	331.26
799.994	337.4
800.174	386.55
800.354	343.55
800.534	284.16
800.714	327.16
800.894	333.31
801.074	318.97
801.254	398.84
801.434	329.21
801.614	337.4
801.794	347.64
801.974	734.71
802.154	345.59
802.334	304.64
802.514	296.44
802.693	306.68
802.873	214.52
803.053	308.73
803.233	368.12
803.413	388.6
803.592	308.73
803.772	318.97
803.952	261.63
804.131	355.83
804.311	318.97
804.491	292.35
804.67	275.96
804.85	251.39
805.03	349.69
805.209	253.44
805.389	245.24
805.568	241.15
805.748	247.29
805.928	290.3
806.107	208.38
806.287	345.59
806.466	308.73
806.646	185.85
806.825	312.83
807.004	259.58
807.184	222.72
807.363	261.63
807.543	271.87
807.722	196.09
807.901	302.59
808.081	286.2
808.26	247.29
808.439	237.05
808.619	290.3
808.798	292.35
808.977	255.48
809.156	194.05
809.336	189.95
809.515	243.2
809.694	181.76
809.873	253.44
810.052	226.81
810.231	271.87
810.411	216.57
810.59	245.24
810.769	278.01
810.948	314.88
811.127	163.33
811.306	222.72
811.485	222.72
811.664	237.05
811.843	187.9
812.022	220.67
812.201	294.4
812.38	177.66
812.559	198.14
812.737	273.92
812.916	179.71
813.095	163.33
813.274	198.14
813.453	220.67
813.632	194.05
813.811	218.62
813.989	171.52
814.168	269.82
814.347	198.14
814.526	144.89
814.704	273.92
814.883	196.09
815.062	136.7
815.24	228.86
815.419	130.56
815.598	222.72
815.776	196.09
815.955	220.67
816.133	101.89
816.312	155.13
816.49	144.89
816.669	196.09
816.847	159.23
817.026	235
817.204	192
817.383	163.33
817.561	126.46
817.74	183.81
817.918	157.18
818.097	232.96
818.275	177.66
818.453	175.61
818.632	226.81
818.81	167.42
818.988	161.28
819.167	192
819.345	171.52
819.523	148.99
819.701	204.28
819.879	251.39
820.058	241.15
820.236	192
820.414	224.76
820.592	218.62
820.77	128.51
820.948	122.37
821.127	155.13
821.305	194.05
821.483	173.57
821.661	89.6
821.839	175.61
822.017	142.85
822.195	128.51
822.373	214.52
822.551	210.43
822.729	120.32
822.907	153.09
823.085	232.96
823.262	167.42
823.44	232.96
823.618	259.58
823.796	132.61
823.974	136.7
824.152	173.57
824.329	89.6
824.507	124.41
824.685	163.33
824.863	142.85
825.04	95.74
825.218	208.38
825.396	134.65
825.574	163.33
825.751	132.61
825.929	110.08
826.107	136.7
826.284	198.14
826.462	116.22
826.639	142.85
826.817	91.65
826.994	130.56
827.172	130.56
827.349	161.28
827.527	134.65
827.704	77.31
827.882	181.76
828.059	136.7
828.237	151.04
828.414	155.13
828.591	75.26
828.769	146.94
828.946	42.5
829.124	122.37
829.301	206.33
829.478	161.28
829.655	194.05
829.833	161.28
830.01	118.27
830.187	95.74
830.364	155.13
830.542	103.93
830.719	91.65
830.896	112.13
831.073	122.37
831.25	116.22
831.427	216.57
831.604	146.94
831.782	122.37
831.959	157.18
832.136	87.55
832.313	165.37
832.49	24.06
832.667	169.47
832.844	148.99
833.021	108.03
833.198	146.94
833.374	71.17
833.551	103.93
833.728	105.98
833.905	99.84
834.082	87.55
834.259	151.04
834.436	108.03
834.612	34.3
834.789	99.84
834.966	112.13
835.143	93.69
835.319	50.69
835.496	124.41
835.673	91.65
835.85	142.85
836.026	95.74
836.203	163.33
836.38	67.07
836.556	175.61
836.733	93.69
836.909	105.98
837.086	87.55
837.262	99.84
837.439	81.41
837.616	110.08
837.792	85.5
837.968	118.27
838.145	22.02
838.321	128.51
838.498	95.74
838.674	42.5
838.851	140.8
839.027	91.65
839.203	128.51
839.38	108.03
839.556	105.98
839.732	140.8
839.909	105.98
840.085	189.95
840.261	97.79
840.437	122.37
840.614	79.36
840.79	97.79
840.966	99.84
841.142	146.94
841.318	46.59
841.494	17.92
841.671	124.41
841.847	56.83
842.023	58.88
842.199	108.03
842.375	81.41
842.551	87.55
842.727	62.98
842.903	173.57
843.079	42.5
843.255	108.03
843.431	50.69
843.607	112.13
843.783	30.21
843.959	110.08
844.134	120.32
844.31	48.64
844.486	99.84
844.662	101.89
844.838	91.65
845.013	116.22
845.189	124.41
845.365	161.28
845.541	101.89
845.716	48.64
845.892	122.37
846.068	126.46
846.244	48.64
846.419	40.45
846.595	46.59
846.77	62.98
846.946	79.36
847.122	95.74
847.297	97.79
847.473	32.26
847.648	71.17
847.824	122.37
847.999	34.3
848.175	-4.61
848.35	89.6
848.526	112.13
848.701	58.88
848.876	17.92
849.052	116.22
849.227	114.17
849.403	26.11
849.578	91.65
849.753	52.74
849.929	71.17
850.104	40.45
850.279	56.83
850.454	95.74
850.63	67.07
850.805	87.55
850.98	83.45
851.155	28.16
851.33	91.65
851.505	40.45
851.681	159.23
851.856	65.02
852.031	54.78
852.206	24.06
852.381	103.93
852.556	87.55
852.731	40.45
852.906	-6.66
853.081	36.35
853.256	40.45
853.431	175.61
853.606	22.02
853.781	22.02
853.956	-8.7
854.131	148.99
854.305	77.31
854.48	122.37
854.655	44.54
854.83	1.54
855.005	17.92
855.18	91.65
855.354	126.46
855.529	56.83
855.704	28.16
855.879	44.54
856.053	30.21
856.228	30.21
856.403	36.35
856.577	62.98
856.752	50.69
856.926	46.59
857.101	114.17
857.276	-29.18
857.45	83.45
857.625	38.4
857.799	122.37
857.974	42.5
858.148	38.4
858.323	19.97
858.497	73.21
858.672	15.87
858.846	34.3
859.02	75.26
859.195	54.78
859.369	46.59
859.543	60.93
859.718	97.79
859.892	79.36
860.066	65.02
860.241	-20.99
860.415	22.02
860.589	28.16
860.763	5.63
860.938	-10.75
861.112	91.65
861.286	30.21
861.46	77.31
861.634	93.69
861.808	85.5
861.982	24.06
862.157	73.21
862.331	87.55
862.505	54.78
862.679	32.26
862.853	108.03
863.027	-25.09
863.201	89.6
863.375	36.35
863.549	58.88
863.722	5.63
863.896	65.02
864.07	11.78
864.244	44.54
864.418	46.59
864.592	15.87
864.766	44.54
864.939	44.54
865.113	15.87
865.287	138.75
865.461	67.07
865.634	-23.04
865.808	54.78
865.982	50.69
866.156	95.74
866.329	17.92
866.503	-10.75
866.676	110.08
866.85	9.73
867.024	93.69
867.197	95.74
867.371	65.02
867.544	7.68
867.718	19.97
867.891	11.78
868.065	38.4
868.238	48.64
868.412	62.98
868.585	65.02
868.759	17.92
868.932	93.69
869.105	50.69
869.279	44.54
869.452	-49.66
869.625	91.65
869.799	87.55
869.972	52.74
870.145	17.92
870.319	40.45
870.492	28.16
870.665	34.3
870.838	34.3
871.011	62.98
871.185	40.45
871.358	5.63
871.531	40.45
871.704	19.97
871.877	36.35
872.05	34.3
872.223	-25.09
872.396	97.79
872.569	81.41
872.742	-45.57
872.915	48.64
873.088	89.6
873.261	83.45
873.434	-4.61
873.607	19.97
873.78	67.07
873.953	5.63
874.126	75.26
874.299	17.92
874.471	114.17
874.644	-14.85
874.817	13.82
874.99	42.5
875.163	65.02
875.335	62.98
875.508	52.74
875.681	28.16
875.853	48.64
876.026	24.06
876.199	7.68
876.371	38.4
876.544	24.06
876.717	-0.51
876.889	28.16
877.062	79.36
877.234	34.3
877.407	-18.94
877.579	-12.8
877.752	11.78
877.924	56.83
878.097	34.3
878.269	-55.81
878.442	89.6
878.614	52.74
878.786	99.84
878.959	54.78
879.131	24.06
879.303	24.06
879.476	46.59
879.648	15.87
879.82	36.35
879.993	60.93
880.165	7.68
880.337	40.45
880.509	77.31
880.681	101.89
880.854	-2.56
881.026	46.59
881.198	38.4
881.37	13.82
881.542	-4.61
881.714	-2.56
881.886	22.02
882.058	13.82
882.23	-31.23
882.402	28.16
882.574	52.74
882.746	38.4
882.918	-33.28
883.09	50.69
883.262	40.45
883.434	-0.51
883.606	-41.47
883.778	38.4
883.95	103.93
884.122	-41.47
884.293	65.02
884.465	58.88
884.637	40.45
884.809	15.87
884.98	36.35
885.152	7.68
885.324	50.69
885.496	67.07
885.667	62.98
885.839	36.35
886.011	69.12
886.182	83.45
886.354	75.26
886.525	9.73
886.697	73.21
886.869	13.82
887.04	7.68
887.212	62.98
887.383	28.16
887.555	17.92
887.726	-14.85
887.897	-8.7
888.069	24.06
888.24	-4.61
888.412	46.59
888.583	17.92
888.754	91.65
888.926	3.58
889.097	1.54
889.268	-16.9
889.44	15.87
889.611	3.58
889.782	11.78
889.953	-45.57
890.125	60.93
890.296	28.16
890.467	5.63
890.638	7.68
890.809	-12.8
890.98	108.03
891.151	120.32
891.323	17.92
891.494	26.11
891.665	11.78
891.836	42.5
892.007	58.88
892.178	58.88
892.349	58.88
892.52	-27.14
892.691	48.64
892.862	46.59
893.032	-31.23
893.203	7.68
893.374	24.06
893.545	67.07
893.716	-10.75
893.887	1.54
894.057	46.59
894.228	19.97
894.399	36.35
894.57	-10.75
894.74	24.06
894.911	7.68
895.082	85.5
895.253	-23.04
895.423	58.88
895.594	52.74
895.764	56.83
895.935	46.59
896.106	50.69
896.276	46.59
896.447	58.88
896.617	-33.28
896.788	22.02
896.958	30.21
897.129	17.92
897.299	46.59
897.47	54.78
897.64	40.45
897.81	46.59
897.981	28.16
898.151	-49.66
898.322	50.69
898.492	17.92
898.662	7.68
898.832	7.68
899.003	54.78
899.173	60.93
899.343	22.02
899.513	28.16
