Data from USB4F104151__29__12-27-14-035.txt Node

Date: Fri Mar 14 12:27:14 EDT 2025
User: louis
Spectrometer: USB4F10415
Trigger mode: 4
Integration Time (sec): 2.000000E-2
Scans to average: 1
Electric dark correction enabled: true
Nonlinearity correction enabled: false
Boxcar width: 0
XAxis mode: Wavelengths
Number of Pixels in Spectrum: 3648
>>>>>Begin Spectral Data<<<<<
178.204	-70.65
178.424	-70.65
178.644	-70.65
178.864	-113.66
179.084	-97.28
179.304	-99.33
179.524	9.22
179.744	33.79
179.964	-9.22
180.184	29.7
180.404	-3.07
180.624	1.02
180.844	37.89
181.064	-29.7
181.283	-1.02
181.503	-31.74
181.723	62.46
181.943	-13.31
182.163	76.8
182.383	29.7
182.602	56.32
182.822	91.13
183.042	35.84
183.262	-17.41
183.482	46.08
183.701	44.03
183.921	41.98
184.141	-31.74
184.361	31.74
184.58	52.22
184.8	64.51
185.02	5.12
185.239	-13.31
185.459	25.6
185.679	-1.02
185.898	56.32
186.118	103.42
186.338	48.13
186.557	31.74
186.777	-76.8
186.997	-21.5
187.216	-7.17
187.436	-13.31
187.655	60.42
187.875	115.71
188.095	31.74
188.314	23.55
188.534	37.89
188.753	9.22
188.973	29.7
189.192	37.89
189.412	27.65
189.631	44.03
189.851	-19.46
190.07	33.79
190.29	-11.26
190.509	46.08
190.729	23.55
190.948	50.18
191.168	103.42
191.387	1.02
191.607	-1.02
191.826	113.66
192.045	25.6
192.265	23.55
192.484	44.03
192.704	97.28
192.923	95.23
193.142	9.22
193.362	44.03
193.581	119.81
193.8	9.22
194.02	44.03
194.239	52.22
194.458	19.46
194.678	82.94
194.897	17.41
195.116	33.79
195.335	41.98
195.555	123.9
195.774	58.37
195.993	37.89
196.212	87.04
196.432	19.46
196.651	72.7
196.87	19.46
197.089	78.85
197.308	56.32
197.528	9.22
197.747	23.55
197.966	39.94
198.185	66.56
198.404	-27.65
198.623	70.65
198.842	25.6
199.062	37.89
199.281	39.94
199.5	27.65
199.719	54.27
199.938	23.55
200.157	58.37
200.376	80.89
200.595	15.36
200.814	7.17
201.033	52.22
201.252	21.5
201.471	107.52
201.69	91.13
201.909	27.65
202.128	87.04
202.347	72.7
202.566	33.79
202.785	27.65
203.004	29.7
203.223	52.22
203.442	1.02
203.661	39.94
203.879	58.37
204.098	60.42
204.317	72.7
204.536	-46.08
204.755	44.03
204.974	11.26
205.193	52.22
205.411	13.31
205.63	-37.89
205.849	25.6
206.068	52.22
206.287	-33.79
206.505	-64.51
206.724	-21.5
206.943	-5.12
207.162	31.74
207.381	31.74
207.599	31.74
207.818	48.13
208.037	11.26
208.255	-15.36
208.474	48.13
208.693	-25.6
208.911	72.7
209.13	9.22
209.349	-23.55
209.567	66.56
209.786	37.89
210.005	72.7
210.223	17.41
210.442	-50.18
210.661	-35.84
210.879	107.52
211.098	25.6
211.316	39.94
211.535	62.46
211.753	7.17
211.972	-11.26
212.191	44.03
212.409	66.56
212.628	87.04
212.846	117.76
213.065	72.7
213.283	35.84
213.502	46.08
213.72	99.33
213.938	29.7
214.157	58.37
214.375	48.13
214.594	13.31
214.812	76.8
215.031	64.51
215.249	46.08
215.467	60.42
215.686	97.28
215.904	-17.41
216.122	5.12
216.341	66.56
216.559	-13.31
216.778	-39.94
216.996	64.51
217.214	23.55
217.432	46.08
217.651	80.89
217.869	48.13
218.087	11.26
218.306	-1.02
218.524	97.28
218.742	-31.74
218.96	9.22
219.179	-25.6
219.397	-1.02
219.615	93.18
219.833	-1.02
220.051	35.84
220.27	48.13
220.488	93.18
220.706	-9.22
220.924	109.57
221.142	19.46
221.36	87.04
221.578	52.22
221.796	35.84
222.015	93.18
222.233	-7.17
222.451	99.33
222.669	-3.07
222.887	41.98
223.105	5.12
223.323	54.27
223.541	33.79
223.759	1.02
223.977	80.89
224.195	113.66
224.413	13.31
224.631	9.22
224.849	-21.5
225.067	41.98
225.285	56.32
225.503	7.17
225.721	-33.79
225.939	35.84
226.157	29.7
226.375	50.18
226.592	-17.41
226.81	21.5
227.028	19.46
227.246	70.65
227.464	-23.55
227.682	13.31
227.9	101.37
228.117	105.47
228.335	31.74
228.553	7.17
228.771	-35.84
228.989	62.46
229.206	33.79
229.424	7.17
229.642	54.27
229.86	87.04
230.077	117.76
230.295	62.46
230.513	29.7
230.731	58.37
230.948	52.22
231.166	91.13
231.384	31.74
231.601	-27.65
231.819	93.18
232.037	23.55
232.254	95.23
232.472	95.23
232.689	-9.22
232.907	19.46
233.125	25.6
233.342	111.61
233.56	-54.27
233.777	25.6
233.995	21.5
234.213	74.75
234.43	-37.89
234.648	74.75
234.865	31.74
235.083	97.28
235.3	82.94
235.518	107.52
235.735	41.98
235.953	113.66
236.17	74.75
236.388	13.31
236.605	80.89
236.822	105.47
237.04	72.7
237.257	29.7
237.475	7.17
237.692	58.37
237.909	37.89
238.127	82.94
238.344	31.74
238.562	15.36
238.779	-17.41
238.996	39.94
239.214	89.09
239.431	72.7
239.648	52.22
239.865	89.09
240.083	64.51
240.3	93.18
240.517	35.84
240.735	82.94
240.952	99.33
241.169	46.08
241.386	37.89
241.603	23.55
241.821	76.8
242.038	41.98
242.255	-5.12
242.472	-33.79
242.689	35.84
242.907	87.04
243.124	-37.89
243.341	95.23
243.558	58.37
243.775	41.98
243.992	13.31
244.209	9.22
244.426	15.36
244.643	97.28
244.86	5.12
245.078	46.08
245.295	107.52
245.512	46.08
245.729	5.12
245.946	48.13
246.163	-21.5
246.38	-17.41
246.597	-7.17
246.814	56.32
247.031	-54.27
247.248	54.27
247.464	68.61
247.681	50.18
247.898	-7.17
248.115	41.98
248.332	-15.36
248.549	74.75
248.766	78.85
248.983	70.65
249.2	35.84
249.417	-11.26
249.633	35.84
249.85	132.09
250.067	82.94
250.284	66.56
250.501	15.36
250.717	76.8
250.934	41.98
251.151	80.89
251.368	3.07
251.585	33.79
251.801	-33.79
252.018	19.46
252.235	72.7
252.451	-19.46
252.668	-29.7
252.885	44.03
253.102	11.26
253.318	41.98
253.535	19.46
253.752	52.22
253.968	39.94
254.185	44.03
254.401	80.89
254.618	123.9
254.835	19.46
255.051	9.22
255.268	46.08
255.484	64.51
255.701	48.13
255.917	99.33
256.134	33.79
256.351	82.94
256.567	13.31
256.784	58.37
257	70.65
257.217	21.5
257.433	44.03
257.65	3.07
257.866	23.55
258.082	-27.65
258.299	89.09
258.515	66.56
258.732	31.74
258.948	41.98
259.165	11.26
259.381	3.07
259.597	64.51
259.814	44.03
260.03	56.32
260.246	35.84
260.463	46.08
260.679	91.13
260.895	25.6
261.112	48.13
261.328	-3.07
261.544	-3.07
261.761	89.09
261.977	64.51
262.193	54.27
262.409	15.36
262.626	64.51
262.842	56.32
263.058	56.32
263.274	50.18
263.49	-29.7
263.707	78.85
263.923	1.02
264.139	37.89
264.355	109.57
264.571	54.27
264.787	56.32
265.004	21.5
265.22	103.42
265.436	25.6
265.652	76.8
265.868	5.12
266.084	3.07
266.3	46.08
266.516	9.22
266.732	19.46
266.948	37.89
267.164	72.7
267.38	64.51
267.596	68.61
267.812	84.99
268.028	-11.26
268.244	21.5
268.46	-41.98
268.676	105.47
268.892	66.56
269.108	33.79
269.324	113.66
269.54	15.36
269.756	111.61
269.972	50.18
270.188	62.46
270.403	68.61
270.619	15.36
270.835	50.18
271.051	19.46
271.267	60.42
271.483	13.31
271.698	35.84
271.914	48.13
272.13	11.26
272.346	35.84
272.562	-27.65
272.777	9.22
272.993	-27.65
273.209	62.46
273.425	9.22
273.64	64.51
273.856	60.42
274.072	27.65
274.287	60.42
274.503	-3.07
274.719	37.89
274.934	70.65
275.15	37.89
275.366	78.85
275.581	1.02
275.797	70.65
276.012	7.17
276.228	39.94
276.444	60.42
276.659	37.89
276.875	60.42
277.09	64.51
277.306	95.23
277.521	66.56
277.737	25.6
277.952	1.02
278.168	52.22
278.383	97.28
278.599	41.98
278.814	105.47
279.03	31.74
279.245	58.37
279.461	21.5
279.676	68.61
279.892	37.89
280.107	-15.36
280.322	-21.5
280.538	31.74
280.753	70.65
280.969	80.89
281.184	29.7
281.399	46.08
281.615	56.32
281.83	48.13
282.045	3.07
282.26	21.5
282.476	23.55
282.691	27.65
282.906	13.31
283.122	25.6
283.337	19.46
283.552	123.9
283.767	78.85
283.983	119.81
284.198	9.22
284.413	99.33
284.628	-19.46
284.843	56.32
285.058	107.52
285.274	123.9
285.489	68.61
285.704	56.32
285.919	91.13
286.134	-1.02
286.349	78.85
286.564	5.12
286.779	46.08
286.995	64.51
287.21	-44.03
287.425	19.46
287.64	9.22
287.855	111.61
288.07	7.17
288.285	-3.07
288.5	44.03
288.715	13.31
288.93	39.94
289.145	41.98
289.36	74.75
289.575	50.18
289.79	80.89
290.004	101.37
290.219	44.03
290.434	44.03
290.649	9.22
290.864	72.7
291.079	78.85
291.294	107.52
291.509	82.94
291.724	50.18
291.938	76.8
292.153	113.66
292.368	25.6
292.583	39.94
292.798	82.94
293.012	19.46
293.227	41.98
293.442	41.98
293.657	103.42
293.871	91.13
294.086	62.46
294.301	11.26
294.516	82.94
294.73	41.98
294.945	60.42
295.16	93.18
295.374	50.18
295.589	119.81
295.804	15.36
296.018	136.19
296.233	62.46
296.447	25.6
296.662	11.26
296.877	46.08
297.091	-1.02
297.306	17.41
297.52	66.56
297.735	56.32
297.949	25.6
298.164	74.75
298.378	60.42
298.593	89.09
298.807	140.29
299.022	44.03
299.236	19.46
299.451	78.85
299.665	72.7
299.88	72.7
300.094	-37.89
300.309	109.57
300.523	3.07
300.737	-1.02
300.952	-21.5
301.166	39.94
301.381	52.22
301.595	64.51
301.809	76.8
302.024	27.65
302.238	37.89
302.452	21.5
302.667	-9.22
302.881	44.03
303.095	23.55
303.309	62.46
303.524	9.22
303.738	39.94
303.952	23.55
304.166	76.8
304.381	27.65
304.595	125.95
304.809	13.31
305.023	80.89
305.237	19.46
305.452	80.89
305.666	52.22
305.88	46.08
306.094	35.84
306.308	41.98
306.522	111.61
306.736	33.79
306.95	68.61
307.164	-21.5
307.379	5.12
307.593	70.65
307.807	46.08
308.021	66.56
308.235	46.08
308.449	17.41
308.663	123.9
308.877	84.99
309.091	11.26
309.305	31.74
309.519	82.94
309.733	76.8
309.947	-29.7
310.161	39.94
310.374	31.74
310.588	74.75
310.802	56.32
311.016	74.75
311.23	46.08
311.444	93.18
311.658	48.13
311.872	70.65
312.085	66.56
312.299	93.18
312.513	103.42
312.727	132.09
312.941	68.61
313.154	46.08
313.368	80.89
313.582	37.89
313.796	97.28
314.009	37.89
314.223	50.18
314.437	58.37
314.651	17.41
314.864	146.43
315.078	5.12
315.292	-25.6
315.505	13.31
315.719	44.03
315.933	44.03
316.146	-19.46
316.36	3.07
316.573	74.75
316.787	35.84
317.001	99.33
317.214	13.31
317.428	46.08
317.641	15.36
317.855	48.13
318.068	93.18
318.282	87.04
318.495	72.7
318.709	21.5
318.922	91.13
319.136	48.13
319.349	31.74
319.563	113.66
319.776	60.42
319.99	62.46
320.203	52.22
320.417	48.13
320.63	82.94
320.843	132.09
321.057	74.75
321.27	3.07
321.483	44.03
321.697	56.32
321.91	70.65
322.124	78.85
322.337	-1.02
322.55	-11.26
322.763	13.31
322.977	70.65
323.19	115.71
323.403	33.79
323.617	101.37
323.83	60.42
324.043	117.76
324.256	41.98
324.469	82.94
324.683	87.04
324.896	66.56
325.109	80.89
325.322	48.13
325.535	95.23
325.748	11.26
325.962	-13.31
326.175	97.28
326.388	44.03
326.601	138.24
326.814	84.99
327.027	5.12
327.24	117.76
327.453	-3.07
327.666	97.28
327.879	31.74
328.092	27.65
328.305	15.36
328.518	84.99
328.731	27.65
328.944	93.18
329.157	89.09
329.37	60.42
329.583	52.22
329.796	107.52
330.009	17.41
330.222	48.13
330.435	5.12
330.648	74.75
330.861	101.37
331.073	44.03
331.286	68.61
331.499	87.04
331.712	39.94
331.925	115.71
332.138	76.8
332.35	35.84
332.563	-15.36
332.776	41.98
332.989	56.32
333.202	64.51
333.414	19.46
333.627	-3.07
333.84	17.41
334.053	27.65
334.265	68.61
334.478	111.61
334.691	7.17
334.903	50.18
335.116	50.18
335.329	9.22
335.541	52.22
335.754	111.61
335.966	56.32
336.179	82.94
336.392	50.18
336.604	23.55
336.817	29.7
337.029	54.27
337.242	99.33
337.454	66.56
337.667	19.46
337.88	72.7
338.092	72.7
338.305	9.22
338.517	70.65
338.729	62.46
338.942	56.32
339.154	39.94
339.367	9.22
339.579	52.22
339.792	76.8
340.004	-3.07
340.217	48.13
340.429	72.7
340.641	13.31
340.854	3.07
341.066	62.46
341.278	68.61
341.491	123.9
341.703	19.46
341.915	7.17
342.128	52.22
342.34	11.26
342.552	15.36
342.764	74.75
342.977	19.46
343.189	60.42
343.401	91.13
343.613	1.02
343.826	66.56
344.038	52.22
344.25	130.05
344.462	78.85
344.674	107.52
344.886	48.13
345.099	97.28
345.311	105.47
345.523	9.22
345.735	99.33
345.947	50.18
346.159	72.7
346.371	25.6
346.583	44.03
346.795	84.99
347.007	72.7
347.219	11.26
347.431	29.7
347.643	-13.31
347.855	27.65
348.067	31.74
348.279	156.67
348.491	80.89
348.703	91.13
348.915	21.5
349.127	60.42
349.339	23.55
349.551	37.89
349.763	74.75
349.975	134.14
350.187	84.99
350.399	54.27
350.61	91.13
350.822	64.51
351.034	89.09
351.246	48.13
351.458	78.85
351.669	82.94
351.881	60.42
352.093	31.74
352.305	84.99
352.517	58.37
352.728	134.14
352.94	35.84
353.152	78.85
353.363	50.18
353.575	52.22
353.787	130.05
353.999	95.23
354.21	76.8
354.422	91.13
354.633	27.65
354.845	37.89
355.057	27.65
355.268	33.79
355.48	58.37
355.692	117.76
355.903	11.26
356.115	23.55
356.326	-9.22
356.538	19.46
356.749	17.41
356.961	128
357.172	13.31
357.384	95.23
357.595	119.81
357.807	97.28
358.018	99.33
358.23	109.57
358.441	35.84
358.653	54.27
358.864	66.56
359.075	99.33
359.287	27.65
359.498	58.37
359.709	35.84
359.921	70.65
360.132	33.79
360.344	-1.02
360.555	82.94
360.766	93.18
360.977	23.55
361.189	52.22
361.4	91.13
361.611	58.37
361.823	82.94
362.034	119.81
362.245	11.26
362.456	84.99
362.667	37.89
362.879	11.26
363.09	52.22
363.301	111.61
363.512	17.41
363.723	27.65
363.935	74.75
364.146	130.05
364.357	91.13
364.568	89.09
364.779	5.12
364.99	78.85
365.201	-29.7
365.412	80.89
365.623	33.79
365.834	99.33
366.045	62.46
366.256	95.23
366.467	1.02
366.678	78.85
366.889	7.17
367.1	50.18
367.311	54.27
367.522	19.46
367.733	93.18
367.944	50.18
368.155	74.75
368.366	113.66
368.577	58.37
368.788	54.27
368.999	84.99
369.209	107.52
369.42	148.48
369.631	125.95
369.842	52.22
370.053	41.98
370.264	87.04
370.474	11.26
370.685	87.04
370.896	48.13
371.107	1.02
371.317	103.42
371.528	52.22
371.739	160.77
371.95	58.37
372.16	97.28
372.371	56.32
372.582	39.94
372.792	29.7
373.003	125.95
373.214	103.42
373.424	68.61
373.635	68.61
373.846	60.42
374.056	58.37
374.267	31.74
374.477	66.56
374.688	-27.65
374.898	9.22
375.109	19.46
375.319	39.94
375.53	74.75
375.74	64.51
375.951	138.24
376.161	87.04
376.372	130.05
376.582	35.84
376.793	39.94
377.003	87.04
377.214	80.89
377.424	60.42
377.635	84.99
377.845	76.8
378.055	84.99
378.266	35.84
378.476	80.89
378.686	89.09
378.897	123.9
379.107	68.61
379.317	58.37
379.528	54.27
379.738	58.37
379.948	46.08
380.158	101.37
380.369	66.56
380.579	95.23
380.789	105.47
380.999	52.22
381.21	70.65
381.42	150.53
381.63	101.37
381.84	119.81
382.05	134.14
382.261	78.85
382.471	87.04
382.681	62.46
382.891	37.89
383.101	87.04
383.311	52.22
383.521	70.65
383.731	111.61
383.941	68.61
384.151	56.32
384.361	35.84
384.571	56.32
384.781	119.81
384.991	19.46
385.201	99.33
385.411	23.55
385.621	132.09
385.831	87.04
386.041	41.98
386.251	52.22
386.461	39.94
386.671	78.85
386.881	7.17
387.091	82.94
387.301	115.71
387.511	193.53
387.72	89.09
387.93	31.74
388.14	15.36
388.35	105.47
388.56	107.52
388.769	60.42
388.979	87.04
389.189	95.23
389.399	109.57
389.609	93.18
389.818	84.99
390.028	105.47
390.238	91.13
390.447	76.8
390.657	156.67
390.867	23.55
391.076	62.46
391.286	111.61
391.496	107.52
391.705	21.5
391.915	138.24
392.125	115.71
392.334	-5.12
392.544	39.94
392.753	152.57
392.963	105.47
393.172	44.03
393.382	35.84
393.591	144.38
393.801	54.27
394.01	164.86
394.22	134.14
394.429	175.1
394.639	78.85
394.848	87.04
395.058	70.65
395.267	101.37
395.477	74.75
395.686	101.37
395.895	140.29
396.105	123.9
396.314	117.76
396.524	125.95
396.733	115.71
396.942	109.57
397.152	156.67
397.361	160.77
397.57	146.43
397.78	70.65
397.989	197.63
398.198	87.04
398.407	144.38
398.617	150.53
398.826	72.7
399.035	50.18
399.244	103.42
399.453	158.72
399.663	150.53
399.872	164.86
400.081	150.53
400.29	144.38
400.499	119.81
400.708	82.94
400.917	142.33
401.127	138.24
401.336	113.66
401.545	107.52
401.754	164.86
401.963	197.63
402.172	158.72
402.381	91.13
402.59	146.43
402.799	158.72
403.008	111.61
403.217	132.09
403.426	101.37
403.635	181.25
403.844	160.77
404.053	111.61
404.262	101.37
404.471	168.96
404.68	146.43
404.888	207.87
405.097	187.39
405.306	271.36
405.515	193.53
405.724	250.88
405.933	304.12
406.142	263.16
406.35	203.77
406.559	222.2
406.768	168.96
406.977	220.16
407.185	289.79
407.394	205.82
407.603	226.3
407.812	211.96
408.02	244.73
408.229	244.73
408.438	265.21
408.646	222.2
408.855	250.88
409.064	304.12
409.272	287.74
409.481	359.42
409.69	283.64
409.898	316.41
410.107	410.62
410.315	377.85
410.524	287.74
410.733	402.43
410.941	371.71
411.15	496.63
411.358	422.91
411.567	506.87
411.775	533.5
411.984	441.34
412.192	465.91
412.401	439.29
412.609	570.36
412.818	603.13
413.026	693.24
413.234	662.52
413.443	537.59
413.651	596.98
413.86	588.79
414.068	779.25
414.276	723.96
414.485	783.35
414.693	713.72
414.901	836.6
415.11	771.06
415.318	910.32
415.526	828.4
415.734	900.08
415.943	887.79
416.151	902.13
416.359	936.95
416.567	984.05
416.776	1096.69
416.984	1094.64
417.192	1115.12
417.4	994.29
417.608	1121.26
417.817	1209.33
418.025	1256.43
418.233	1336.3
418.441	1317.87
418.649	1446.89
418.857	1379.31
419.065	1461.23
419.273	1463.27
419.481	1614.82
419.689	1594.34
419.897	1627.11
420.105	1725.41
420.313	1735.65
420.521	1909.73
420.729	1883.11
420.937	2016.23
421.145	2073.57
421.353	2081.76
421.561	2311.13
421.769	2274.27
421.977	2276.32
422.185	2284.51
422.393	2579.42
422.601	2524.12
422.809	2571.22
423.017	2628.57
423.224	2759.64
423.432	2907.09
423.64	2876.37
423.848	3302.35
424.056	2913.24
424.263	3208.14
424.471	3251.15
424.679	3394.51
424.887	3554.25
425.094	3603.4
425.302	3517.39
425.51	3822.53
425.718	3816.39
425.925	4043.71
426.133	4082.63
426.341	4305.85
426.548	4551.61
426.756	4613.05
426.964	4492.22
427.171	4850.61
427.379	4996.02
427.586	5227.44
427.794	5108.66
428.001	5415.85
428.209	5753.77
428.417	5532.59
428.624	5743.53
428.832	5995.43
429.039	5807.02
429.247	5936.04
429.454	6630.3
429.662	7025.56
429.869	6554.52
430.076	7050.13
430.284	6644.63
430.491	7087
430.699	7457.68
430.906	7504.78
431.114	7617.42
431.321	7891.85
431.528	8094.6
431.736	8649.6
431.943	8780.67
432.15	8698.75
432.358	8809.34
432.565	9352.05
432.772	9409.39
432.979	9489.26
433.187	9909.1
433.394	9978.73
433.601	10494.82
433.808	10654.56
434.016	10566.49
434.223	11017.05
434.43	11778.89
434.637	11518.8
434.844	12186.44
435.052	12544.83
435.259	12370.76
435.466	12485.44
435.673	12483.39
435.88	13177.65
436.087	13845.29
436.294	14002.99
436.501	13566.77
436.708	13878.06
436.915	14281.51
437.122	14940.96
437.329	14969.63
437.537	15219.48
437.743	15694.61
437.95	15661.84
438.157	16472.84
438.364	16818.94
438.571	16749.31
438.778	16947.97
438.985	18760.42
439.192	18205.42
439.399	18410.22
439.606	17926.89
439.813	19069.66
440.02	20247.24
440.227	19847.89
440.433	19745.49
440.64	20366.03
440.847	19991.25
441.054	20613.83
441.261	22053.55
441.467	21811.89
441.674	22465.19
441.881	23083.68
442.088	22905.51
442.294	22780.58
442.501	23442.07
442.708	24296.08
442.914	25041.54
443.121	25997.94
443.328	24863.36
443.534	26899.05
443.741	26118.77
443.948	25952.88
444.154	28068.44
444.361	27503.2
444.568	27867.73
444.774	27861.59
444.981	28099.16
445.187	28844.62
445.394	30034.49
445.6	30014.01
445.807	32985.61
446.013	31427.1
446.22	31851.03
446.426	33104.39
446.633	33311.24
446.839	34646.51
447.046	33573.38
447.252	34824.68
447.459	35492.32
447.665	34904.56
447.871	36633.04
448.078	38422.97
448.284	36284.89
448.491	37200.33
448.697	38525.36
448.903	39348.65
449.11	39119.28
449.316	38689.2
449.522	39344.55
449.728	40622.48
449.935	40880.53
450.141	41163.15
450.347	41982.34
450.553	40356.25
450.76	41099.66
450.966	42350.97
451.172	42033.53
451.378	42703.22
451.584	42281.34
451.791	43145.58
451.997	43213.16
452.203	43759.97
452.409	43897.19
452.615	43553.13
452.821	42066.3
453.027	41609.61
453.233	43768.16
453.44	42203.52
453.646	42389.88
453.852	42834.29
454.058	43530.6
454.264	41742.72
454.47	43063.66
454.676	41982.34
454.882	43501.93
455.088	39938.46
455.294	40417.69
455.5	40731.03
455.705	41335.18
455.911	39561.64
456.117	39217.58
456.323	38054.33
456.529	36205.02
456.735	38300.09
456.941	37009.87
457.147	36458.96
457.352	35031.53
457.558	35209.7
457.764	35086.82
457.97	34241.01
458.176	33604.1
458.381	33720.83
458.587	32059.93
458.793	32008.73
458.999	30288.43
459.204	32510.48
459.41	31543.84
459.616	29751.87
459.821	29770.3
460.027	29635.13
460.233	28719.69
460.438	27279.97
460.644	27890.26
460.85	26643.05
461.055	26036.85
461.261	25909.88
461.466	24058.51
461.672	23546.52
461.878	24943.24
462.083	23376.54
462.289	23167.65
462.494	22629.03
462.7	21836.47
462.905	21162.69
463.111	21979.82
463.316	22098.61
463.522	21629.62
463.727	21484.22
463.932	21412.54
464.138	20931.26
464.343	21539.51
464.549	20648.64
464.754	21494.46
464.959	21134.01
465.165	21084.86
465.37	20175.56
465.575	19733.2
465.781	20630.21
465.986	20732.61
466.191	19802.83
466.397	19069.66
466.602	18645.73
466.807	19487.45
467.012	19333.85
467.218	18883.3
467.423	18889.44
467.628	19159.77
467.833	19845.84
468.038	18813.66
468.244	18387.69
468.449	19002.08
468.654	18561.76
468.859	18512.61
469.064	18397.93
469.269	17967.85
469.474	17892.08
469.679	18139.88
469.885	17797.87
470.09	17853.17
470.295	17619.7
470.5	17462.01
470.705	17464.05
470.91	16892.67
471.115	16775.94
471.32	17031.93
471.525	17136.38
471.73	16648.96
471.935	16349.96
472.139	15966.99
472.344	16153.35
472.549	16214.79
472.754	15975.18
472.959	15659.79
473.164	15246.1
473.369	15266.58
473.574	15780.62
473.778	15366.93
473.983	15395.61
474.188	15237.91
474.393	14752.54
474.598	14672.67
474.802	14428.96
475.007	14306.09
475.212	14621.47
475.417	13857.58
475.621	14064.43
475.826	13785.9
476.031	13818.67
476.235	13585.2
476.44	13794.09
476.645	13413.17
476.849	13443.89
477.054	13218.61
477.259	13191.99
477.463	12983.1
477.668	12614.46
477.872	13097.78
478.077	12837.69
478.282	12223.3
478.486	12149.57
478.691	12176.2
478.895	12249.93
479.1	12266.31
479.304	12010.31
479.509	11725.65
479.713	11918.15
479.918	11770.7
480.122	11490.13
480.326	11432.79
480.531	11807.56
480.735	11559.76
480.94	11492.18
481.144	11678.54
481.348	11537.23
481.553	11334.48
481.757	11246.42
481.961	11418.45
482.166	11555.66
482.37	11391.83
482.574	11152.21
482.778	11236.18
482.983	11281.24
483.187	11324.24
483.391	11449.17
483.595	10945.37
483.8	11170.65
484.004	11101.01
484.208	11262.8
484.412	11144.02
484.616	11191.13
484.821	11426.64
485.025	10881.88
485.229	11254.61
485.433	11060.06
485.637	11326.29
485.841	11162.45
486.045	11232.08
486.249	11348.82
486.453	11125.59
486.657	11119.45
486.861	11387.73
487.065	10859.35
487.269	11002.71
487.473	10986.33
487.677	11285.33
487.881	11453.27
488.085	11103.06
488.289	11234.13
488.493	11211.6
488.697	11170.65
488.901	11373.39
489.105	11234.13
489.309	11311.96
489.512	11248.47
489.716	11373.39
489.92	11291.48
490.124	11531.09
490.328	11656.01
490.531	11295.57
490.735	11563.86
490.939	11531.09
491.143	11432.79
491.346	11307.86
491.55	11707.21
491.754	11572.05
491.958	11768.65
492.161	11711.31
492.365	11778.89
492.569	11905.87
492.772	11819.85
492.976	12028.74
493.18	11795.28
493.383	12262.21
493.587	12198.73
493.79	12208.97
493.994	12129.09
494.197	12471.11
494.401	12428.1
494.605	12387.14
494.808	12622.66
495.012	12510.02
495.215	12634.94
495.419	12741.44
495.622	12653.37
495.825	13167.42
496.029	13081.4
496.232	13443.89
496.436	13441.84
496.639	13706.03
496.843	13484.85
497.046	13980.46
497.249	13787.95
497.453	14123.82
497.656	14070.57
497.859	14082.86
498.063	13910.83
498.266	14463.78
498.469	14627.62
498.673	14574.37
498.876	14836.51
499.079	14938.91
499.282	15209.24
499.485	15373.08
499.689	15563.54
499.892	15782.67
500.095	15946.51
500.298	16198.41
500.501	16016.14
500.705	16540.42
500.908	16712.45
501.111	16616.19
501.314	16884.48
501.517	17144.57
501.72	17148.67
501.923	17318.65
502.126	17679.09
502.329	17885.94
502.532	17969.9
502.735	18090.73
502.938	18412.26
503.141	18494.18
503.344	18873.06
503.547	18899.68
503.75	19225.31
503.953	19690.2
504.156	19378.9
504.359	19663.57
504.562	19655.38
504.765	20400.84
504.968	20318.92
505.17	20509.38
505.373	20761.28
505.576	20970.18
505.779	21293.76
505.982	21519.03
506.185	21785.27
506.387	21955.25
506.59	22080.18
506.793	22520.49
506.996	22354.6
507.198	22956.71
507.401	22708.9
507.604	23405.21
507.807	23638.68
508.009	23519.9
508.212	24089.23
508.415	24103.57
508.617	24545.93
508.82	24717.96
509.022	24453.77
509.225	25098.88
509.428	25125.5
509.63	25610.87
509.833	25508.47
510.035	26331.76
510.238	26335.85
510.44	26552.94
510.643	26927.72
510.845	26884.71
511.048	27302.5
511.25	27402.85
511.453	27560.54
511.655	28672.59
511.858	27834.97
512.06	28303.95
512.262	28809.8
512.465	28768.84
512.667	29411.9
512.87	29456.96
513.072	29479.49
513.274	30231.09
513.477	30226.99
513.679	30706.22
513.881	31029.8
514.084	30997.03
514.286	31181.35
514.488	31392.29
514.69	32037.4
514.893	32418.32
515.095	32225.81
515.297	32864.78
515.499	33024.52
515.701	33075.72
515.904	33593.86
516.106	33923.58
516.308	34079.22
516.51	34402.8
516.712	34437.62
516.914	34701.81
517.116	35013.1
517.318	35234.28
517.52	35721.69
517.722	36153.82
517.925	36334.04
518.127	36796.88
518.329	36542.93
518.531	36518.35
518.733	37411.27
518.935	37509.57
519.136	37388.74
519.338	37941.69
519.54	38410.68
519.742	38742.45
519.944	38695.35
520.146	39434.66
520.348	39405.99
520.55	39694.75
520.752	39745.95
520.954	40436.12
521.155	40348.06
521.357	40814.99
521.559	41200.01
521.761	41535.88
521.963	41539.97
522.164	41599.37
522.366	41658.76
522.568	42027.39
522.77	42430.84
522.971	42897.78
523.173	42779
523.375	42991.98
523.576	43051.38
523.778	43037.04
523.98	43934.05
524.181	43843.94
524.383	44341.6
524.584	44536.15
524.786	44521.82
524.988	44345.69
525.189	44792.15
525.391	45150.54
525.592	45160.78
525.794	45343.05
525.995	45478.22
526.197	45494.6
526.398	45560.14
526.6	45996.35
526.801	46016.83
527.003	46403.9
527.204	46154.05
527.406	46518.59
527.607	46989.62
527.808	47157.55
528.01	45965.63
528.211	46387.52
528.412	47520.04
528.614	47331.63
528.815	47462.7
529.016	48093.47
529.218	47528.23
529.419	47483.18
529.62	47751.46
529.822	47710.5
530.023	47855.91
530.224	47733.03
530.425	47722.79
530.626	47597.87
530.828	47569.19
531.029	48605.47
531.23	48326.94
531.431	48437.53
531.632	47792.42
531.833	48781.59
532.035	48470.3
532.236	48341.28
532.437	48767.26
532.638	48578.84
532.839	48914.71
533.04	48687.39
533.241	47984.93
533.442	49053.97
533.643	48855.32
533.844	48562.46
534.045	48462.11
534.246	48189.73
534.447	48773.4
534.648	48642.33
534.849	48920.85
535.05	48429.34
535.251	48949.53
535.451	48138.53
535.652	49004.82
535.853	48982.29
536.054	48933.14
536.255	48732.44
536.456	48558.36
536.657	49469.71
536.857	48791.83
537.058	48552.22
537.259	49244.43
537.46	48916.76
537.66	48720.15
537.861	48906.52
538.062	48570.65
538.263	48795.93
538.463	48742.68
538.664	48779.54
538.865	48797.98
539.065	49117.46
539.266	48437.53
539.466	48679.19
539.667	48372
539.868	49041.68
540.068	48570.65
540.269	48496.92
540.469	48935.19
540.67	48740.63
540.87	48623.9
541.071	48412.96
541.271	48812.31
541.472	48335.13
541.672	48462.11
541.873	48773.4
542.073	48214.3
542.274	48881.94
542.474	49039.64
542.675	48148.77
542.875	49006.87
543.075	48570.65
543.276	48085.28
543.476	48896.28
543.676	48494.88
543.877	48673.05
544.077	48781.59
544.277	48720.15
544.478	47991.08
544.678	49029.4
544.878	48445.72
545.078	48474.4
545.279	48245.02
545.479	47933.73
545.679	48421.15
545.879	48570.65
546.079	48159.01
546.28	48447.77
546.48	47997.22
546.68	48617.75
546.88	48083.23
547.08	48470.3
547.28	47937.83
547.48	48107.81
547.68	48320.8
547.88	47798.57
548.081	48302.37
548.281	48136.48
548.481	48402.72
548.681	48703.77
548.881	48271.65
549.081	47941.92
549.28	47878.44
549.48	48185.63
549.68	47692.07
549.88	48593.18
550.08	48077.09
550.28	47827.24
550.48	47927.59
550.68	48257.31
550.88	47626.54
551.08	48099.62
551.279	48044.32
551.479	47798.57
551.679	48253.22
551.879	48222.5
552.079	48152.87
552.278	47989.03
552.478	48251.17
552.678	47683.88
552.878	48322.85
553.077	48159.01
553.277	47532.33
553.477	48687.39
553.676	47718.7
553.876	47474.99
554.076	47794.47
554.275	47479.08
554.475	47327.53
554.674	47720.74
554.874	47814.95
555.074	47581.48
555.273	47776.04
555.473	48251.17
555.672	47745.32
555.872	47206.7
556.071	47851.81
556.271	47497.52
556.47	47384.88
556.67	47022.39
556.869	47040.82
557.068	47812.9
557.268	47366.45
557.467	47438.12
557.667	47860.01
557.866	47018.29
558.065	47348.01
558.265	46868.79
558.464	46754.1
558.663	47294.77
558.863	46604.6
559.062	47773.99
559.261	46698.81
559.461	47102.26
559.66	46641.46
559.859	46991.67
560.058	46414.14
560.258	46704.95
560.457	46604.6
560.656	46989.62
560.855	46651.7
561.054	46668.09
561.253	46186.82
561.453	46268.73
561.652	46305.6
561.851	46440.76
562.05	46321.98
562.249	46410.04
562.448	46618.94
562.647	46364.99
562.846	45926.72
563.045	46041.41
563.244	45846.85
563.443	46256.45
563.642	45521.23
563.841	46014.79
564.04	45797.7
564.239	46057.79
564.438	45521.23
564.637	45660.49
564.836	45926.72
565.035	45625.67
565.234	45427.02
565.432	45453.64
565.631	45142.35
565.83	45592.9
566.029	45156.69
566.228	44898.64
566.427	45097.3
566.625	45189.45
566.824	44241.24
567.023	45130.06
567.222	44192.09
567.42	44794.2
567.619	44800.34
567.818	44165.47
568.016	44198.24
568.215	45128.02
568.414	44269.92
568.612	44849.49
568.811	44284.25
569.01	44237.15
569.208	43929.95
569.407	44276.06
569.605	43692.39
569.804	44349.79
570.002	43719.01
570.201	44276.06
570.4	43571.56
570.598	43581.8
570.797	43204.97
570.995	43788.64
571.193	43202.92
571.392	43956.58
571.59	43202.92
571.789	42885.49
571.987	43252.08
572.186	43247.98
572.384	42856.82
572.582	43059.57
572.781	43354.47
572.979	42475.9
573.177	42465.66
573.376	42899.83
573.574	42469.75
573.772	42434.94
573.971	42434.94
574.169	42398.07
574.367	42213.76
574.565	42797.43
574.763	42211.71
574.962	41759.11
575.16	41644.42
575.358	41648.52
575.556	41333.13
575.754	41927.04
575.952	41331.08
576.151	42105.21
576.349	40995.21
576.547	41331.08
576.745	41513.35
576.943	40976.78
577.141	41099.66
577.339	41550.21
577.537	41134.48
577.735	40774.03
577.933	40524.18
578.131	41150.86
578.329	40460.69
578.527	40454.55
578.725	40270.23
578.923	40769.94
579.121	40087.96
579.319	40010.14
579.516	40358.3
579.714	40329.62
579.912	39639.46
580.11	39614.88
580.308	39870.88
580.506	39684.51
580.704	39143.85
580.901	39874.98
581.099	39805.34
581.297	39389.61
581.495	38990.25
581.692	39487.91
581.89	39307.69
582.088	39414.18
582.285	38633.91
582.483	39547.3
582.681	38769.07
582.878	39238.06
583.076	38349.24
583.274	38949.29
583.471	38312.38
583.669	38349.24
583.866	38195.64
584.064	38486.45
584.262	37974.46
584.459	38328.76
584.657	38035.9
584.854	37908.93
585.052	37491.14
585.249	37501.38
585.447	37947.84
585.644	37446.08
585.841	38085.05
586.039	37999.04
586.236	37261.77
586.434	37108.17
586.631	37030.35
586.828	37284.3
587.026	37200.33
587.223	36813.26
587.42	36854.22
587.618	36917.71
587.815	36268.5
588.012	36569.55
588.21	36579.79
588.407	36653.52
588.604	36645.33
588.801	36028.89
588.999	36004.31
589.196	36147.67
589.393	36026.84
589.59	35744.22
589.787	35776.99
589.984	35297.77
590.182	35320.29
590.379	35832.29
590.576	35410.4
590.773	35553.76
590.97	35299.81
591.167	35258.85
591.364	34755.05
591.561	35052.01
591.758	34632.18
591.955	34587.12
592.152	34853.36
592.349	34105.85
592.546	34662.9
592.743	34587.12
592.94	33712.64
593.137	34068.98
593.334	34693.61
593.531	33792.51
593.727	33845.76
593.924	33907.19
594.121	33407.49
594.318	34042.36
594.515	33434.11
594.712	33991.16
594.908	33182.21
595.105	33448.45
595.302	32967.18
595.499	33423.87
595.696	32999.94
595.892	32627.21
596.089	33171.97
596.286	32674.32
596.482	32815.63
596.679	32659.98
596.876	33018.38
597.072	32608.78
597.269	32385.55
597.466	32393.75
597.662	32119.32
597.859	32246.29
598.055	32096.79
598.252	32094.74
598.448	31830.55
598.645	31455.78
598.841	31767.07
599.038	31801.88
599.234	31640.09
599.431	31363.62
599.627	31578.65
599.824	31513.12
600.02	31306.27
600.217	31642.14
600.413	31441.44
600.609	30917.16
600.806	30704.17
601.002	30999.08
601.198	30515.76
601.395	30226.99
601.591	30689.84
601.787	30505.52
601.984	30169.65
602.18	30562.86
602.376	30112.31
602.572	29966.9
602.769	30212.66
602.965	29798.97
603.161	29948.47
603.357	29473.34
603.553	29870.65
603.75	29600.32
603.946	29506.11
604.142	29653.56
604.338	29153.86
604.534	29647.42
604.73	29020.74
604.926	29319.74
605.122	29225.54
605.318	28971.59
605.514	28932.68
605.71	28668.49
605.906	28828.23
606.102	28643.91
606.298	28521.04
606.494	28574.28
606.69	28283.47
606.886	28338.77
607.082	28181.07
607.278	28338.77
607.474	28099.16
607.67	28324.43
607.866	27707.99
608.062	28297.81
608.257	27757.14
608.453	28211.79
608.649	27732.57
608.845	27918.93
609.041	27961.94
609.236	27503.2
609.432	27712.09
609.628	27988.56
609.824	27660.89
610.019	27587.16
610.215	27513.44
610.411	27527.77
610.606	27294.3
610.802	27519.58
610.998	27351.65
611.193	27486.81
611.389	27216.48
611.584	27091.55
611.78	26845.8
611.976	26894.95
612.171	27146.85
612.367	26702.44
612.562	26923.62
612.758	26538.6
612.953	26622.57
613.149	27144.8
613.344	26796.65
613.539	27191.91
613.735	26577.51
613.93	27114.08
614.126	26423.92
614.321	26411.63
614.517	26610.28
614.712	26364.53
614.907	26239.6
615.103	26837.61
615.298	26038.9
615.493	26483.31
615.688	26098.29
615.884	26282.61
616.079	25854.58
616.274	26247.79
616.47	26221.17
616.665	26034.8
616.86	25887.35
617.055	25961.08
617.25	25727.61
617.445	25903.73
617.641	25541.24
617.836	25776.76
618.031	25377.4
618.226	25719.42
618.421	25277.05
618.616	25653.88
618.811	25102.98
619.006	25666.17
619.201	24711.81
619.396	25254.53
619.591	24801.93
619.786	25213.57
619.981	25023.11
620.176	24971.91
620.371	24615.56
620.566	24697.48
620.761	24101.52
620.956	24554.12
621.151	24154.77
621.346	24203.92
621.541	23675.54
621.735	24240.78
621.93	23519.9
622.125	23800.47
622.32	23394.97
622.515	23536.28
622.709	23380.64
622.904	23102.11
623.099	23308.96
623.294	23171.74
623.488	22502.06
623.683	22772.39
623.878	22471.34
624.072	22493.86
624.267	22665.89
624.462	22571.69
624.656	22268.59
624.851	22448.81
625.046	21805.75
625.24	21871.28
625.435	21734.07
625.629	21772.98
625.824	21648.05
626.018	21435.06
626.213	21068.48
626.407	21183.16
626.602	20896.45
626.796	21025.47
626.991	21033.66
627.185	20601.54
627.38	20583.11
627.574	20710.08
627.768	20331.21
627.963	20212.43
628.157	20024.01
628.352	20247.24
628.546	19962.58
628.74	20148.94
628.935	20032.21
629.129	19770.07
629.323	19389.14
629.517	19583.7
629.712	19137.24
629.906	19460.82
630.1	18954.97
630.294	19047.13
630.489	18762.47
630.683	18899.68
630.877	18688.74
631.071	18787.04
631.265	18563.81
631.459	18572
631.653	18498.28
631.848	18344.68
632.042	18324.2
632.236	18219.75
632.43	17656.56
632.624	18412.26
632.818	17836.78
633.012	17691.38
633.206	17511.16
633.4	17748.72
633.594	17656.56
633.788	17507.06
633.982	17244.92
634.176	17404.66
634.369	17212.15
634.563	17013.5
634.757	17097.47
634.951	17160.95
635.145	17099.52
635.339	16872.19
635.533	16769.79
635.726	16644.87
635.92	16194.31
636.114	16712.45
636.308	16259.85
636.501	16239.37
636.695	16403.21
636.889	16175.88
637.083	16167.69
637.276	15901.45
637.47	16046.86
637.664	15645.46
637.857	15858.45
638.051	15655.7
638.244	15405.84
638.438	15491.86
638.632	15321.88
638.825	15371.03
639.019	15162.14
639.212	15022.87
639.406	15168.28
639.599	15053.59
639.793	15174.42
639.986	14746.4
640.18	14719.78
640.373	14777.12
640.567	14723.87
640.76	14375.72
640.954	14261.03
641.147	14510.88
641.34	14551.84
641.534	14484.26
641.727	14353.19
641.92	14359.33
642.114	13814.57
642.307	13898.54
642.5	14093.1
642.694	13706.03
642.887	13546.29
643.08	13736.75
643.273	13452.08
643.467	13531.95
643.66	13445.94
643.853	13671.22
644.046	13318.96
644.239	13501.23
644.432	13155.13
644.626	13386.55
644.819	13239.09
645.012	13138.74
645.205	13095.74
645.398	13069.11
645.591	12849.98
645.784	12731.2
645.977	12792.64
646.17	12749.63
646.363	12456.77
646.556	12497.73
646.749	12448.58
646.942	12409.67
647.135	12260.16
647.328	12262.21
647.521	12180.29
647.714	12049.22
647.907	12020.55
648.099	12120.9
648.292	11864.91
648.485	12034.89
648.678	11885.39
648.871	11873.1
649.064	11717.45
649.256	11721.55
649.449	11529.04
649.642	11666.25
649.835	11707.21
650.027	11451.22
650.22	11500.37
650.413	11273.04
650.605	11141.97
650.798	11221.84
650.991	11053.91
651.183	11227.99
651.376	10986.33
651.568	10941.27
651.761	10847.07
651.954	10955.61
652.146	10904.41
652.339	10881.88
652.531	10586.97
652.724	10509.15
652.916	10468.19
653.109	10519.39
653.301	10617.69
653.494	10443.62
653.686	10382.18
653.879	10380.13
654.071	10337.12
654.263	10171.24
654.456	10236.77
654.648	10042.21
654.84	9970.54
655.033	10044.26
655.225	9935.72
655.417	9831.27
655.61	9818.99
655.802	9847.66
655.994	9792.36
656.186	9833.32
656.379	9585.52
656.571	9769.83
656.763	9675.63
656.955	9552.75
657.148	9497.46
657.34	9395.06
657.532	9413.49
657.724	9184.12
657.916	9192.31
658.108	9220.98
658.3	9128.82
658.492	9167.73
658.684	8936.31
658.876	8977.27
659.068	9073.53
659.26	8713.08
659.452	8932.22
659.644	9061.24
659.836	8805.24
660.028	8795
660.22	8733.56
660.412	8649.6
660.604	8582.01
660.796	8741.75
660.988	8629.12
661.18	8598.4
661.372	8364.93
661.563	8369.02
661.755	8323.97
661.947	8446.85
662.139	8336.26
662.331	8293.25
662.522	8211.33
662.714	8053.64
662.906	8129.41
663.097	8043.4
663.289	7926.66
663.481	8084.36
663.673	7973.77
663.864	7877.51
664.056	7881.61
664.247	7805.83
664.439	7742.35
664.631	7834.5
664.822	7728.01
665.014	7768.97
665.205	7756.68
665.397	7375.76
665.588	7541.64
665.78	7539.6
665.971	7605.13
666.163	7381.9
666.354	7496.59
666.546	7400.34
666.737	7433.1
666.929	7252.88
667.12	7189.39
667.311	7226.26
667.503	7203.73
667.694	7357.33
667.885	7246.74
668.077	7037.84
668.268	7076.76
668.459	6962.07
668.651	6941.59
668.842	7160.72
669.033	7099.28
669.224	6986.65
669.416	7011.22
669.607	6921.11
669.798	6874.01
669.989	6810.52
670.18	6706.07
670.371	6898.58
670.563	6818.71
670.754	6691.74
670.945	6642.59
671.136	6869.91
671.327	6589.34
671.518	6429.6
671.709	6552.48
671.9	6394.78
672.091	6618.01
672.282	6456.22
672.473	6249.38
672.664	6394.78
672.855	6427.55
673.046	6323.1
673.237	6273.95
673.428	6372.25
673.619	6140.83
673.809	6398.88
674	6202.27
674.191	6276
674.382	6173.6
674.573	6079.4
674.764	6083.49
674.954	6224.8
675.145	5993.38
675.336	6069.16
675.527	5886.89
675.717	5958.57
675.908	5878.69
676.099	5811.11
676.289	5725.1
676.48	5911.46
676.671	5819.3
676.861	5798.82
677.052	5864.36
677.243	5716.9
677.433	5735.34
677.624	5745.58
677.814	5772.2
678.005	5667.75
678.195	5843.88
678.386	5600.17
678.576	5432.24
678.767	5620.65
678.957	5548.97
679.148	5526.44
679.338	5544.88
679.529	5587.88
679.719	5573.55
679.909	5563.31
680.1	5540.78
680.29	5530.54
680.481	5487.53
680.671	5235.63
680.861	5417.9
681.052	5483.44
681.242	5241.78
681.432	5401.52
681.622	5497.77
681.813	5211.06
682.003	5303.22
682.193	5194.67
682.383	5256.11
682.573	5237.68
682.764	5086.13
682.954	5266.35
683.144	5143.47
683.334	5211.06
683.524	5065.65
683.714	5209.01
683.904	5215.15
684.094	5200.82
684.284	5014.45
684.474	5202.86
684.664	5084.08
684.854	5118.9
685.044	4953.01
685.234	4836.28
685.424	4871.09
685.614	5010.36
685.804	4877.24
685.994	5012.4
686.184	4973.49
686.374	4946.87
686.564	4879.29
686.753	4823.99
686.943	4889.53
687.133	4809.65
687.323	4760.5
687.513	4701.11
687.702	4733.88
687.892	4608.95
688.082	4721.59
688.272	4670.39
688.461	4600.76
688.651	4645.82
688.841	4682.68
689.03	4467.64
689.22	4471.74
689.41	4547.51
689.599	4414.4
689.789	4547.51
689.979	4481.98
690.168	4361.15
690.358	4426.68
690.547	4426.68
690.737	4531.13
690.926	4400.06
691.116	4264.89
691.305	4412.35
691.495	4101.06
691.684	4197.31
691.874	4385.73
692.063	4228.03
692.252	4430.78
692.442	4238.27
692.631	4223.94
692.82	4119.49
693.01	4168.64
693.199	4021.19
693.388	4178.88
693.578	4158.4
693.767	4111.3
693.956	4002.75
694.146	3961.8
694.335	3961.8
694.524	4037.57
694.713	3969.99
694.902	3900.36
695.092	3935.17
695.281	3982.28
695.47	3920.84
695.659	3857.35
695.848	3836.87
696.037	3810.25
696.226	3752.9
696.415	3763.14
696.604	3787.72
696.793	3609.54
696.982	3681.22
697.171	3838.92
697.36	3789.77
697.549	3623.88
697.738	3779.53
697.927	3685.32
698.116	3740.61
698.305	3552.2
698.494	3642.31
698.683	3709.9
698.872	3699.66
699.061	3580.87
699.25	3605.45
699.438	3492.81
699.627	3656.65
699.816	3523.53
700.005	3490.76
700.193	3617.74
700.382	3535.82
700.571	3529.67
700.76	3525.58
700.948	3556.3
701.137	3460.04
701.326	3529.67
701.514	3501
701.703	3466.19
701.892	3396.56
702.08	3435.47
702.269	3568.59
702.457	3406.8
702.646	3406.8
702.834	3316.69
703.023	3359.69
703.212	3425.23
703.4	3292.11
703.589	3394.51
703.777	3513.29
703.965	3369.93
704.154	3290.06
704.342	3433.42
704.531	3384.27
704.719	3308.49
704.907	3257.29
705.096	3359.69
705.284	3324.88
705.472	3300.3
705.661	3314.64
705.849	3369.93
706.037	3279.82
706.226	3202
706.414	3279.82
706.602	3404.75
706.79	3331.02
706.979	3292.11
707.167	3204.05
707.355	3249.1
707.543	3380.17
707.731	3206.1
707.919	3148.75
708.107	3195.86
708.296	3269.58
708.484	3216.33
708.672	3228.62
708.86	3236.81
709.048	3120.08
709.236	3218.38
709.424	3306.45
709.612	3238.86
709.8	3206.1
709.988	3177.42
710.176	3224.53
710.364	3197.9
710.551	3298.25
710.739	3255.25
710.927	3132.37
711.115	3173.33
711.303	3158.99
711.491	3156.94
711.679	3126.22
711.866	3212.24
712.054	3142.61
712.242	3099.6
712.43	3234.77
712.617	3154.9
712.805	3185.62
712.993	3115.98
713.181	3070.93
713.368	3197.9
713.556	3181.52
713.744	2968.53
713.931	3222.48
714.119	3140.56
714.306	3181.52
714.494	3021.78
714.682	2989.01
714.869	3017.68
715.057	3040.21
715.244	3023.83
715.432	3017.68
715.619	3027.92
715.807	3038.16
715.994	3083.22
716.182	3054.55
716.369	3140.56
716.556	3056.59
716.744	2960.34
716.931	3109.84
717.119	2896.85
717.306	3034.07
717.493	3058.64
717.681	2935.76
717.868	2989.01
718.055	3107.79
718.242	3034.07
718.43	2984.91
718.617	3056.59
718.804	2962.39
718.991	2941.91
719.179	3029.97
719.366	3034.07
719.553	3109.84
719.74	3111.89
719.927	3087.31
720.114	3064.79
720.301	2968.53
720.488	2980.82
720.676	2978.77
720.863	2993.11
721.05	2978.77
721.237	2986.96
721.424	2911.19
721.611	3005.39
721.798	2978.77
721.985	2894.8
722.172	2997.2
722.358	2859.99
722.545	2927.57
722.732	2866.13
722.919	2952.15
723.106	2849.75
723.293	3044.31
723.48	2995.15
723.667	2900.95
723.853	2907.09
724.04	3013.59
724.227	2841.56
724.414	3017.68
724.6	3017.68
724.787	3068.88
724.974	2976.72
725.161	2925.52
725.347	3015.63
725.534	2933.72
725.72	2956.24
725.907	2900.95
726.094	2839.51
726.28	2829.27
726.467	2843.6
726.653	2925.52
726.84	2948.05
727.027	3032.02
727.213	2767.83
727.4	3040.21
727.586	2950.1
727.773	2839.51
727.959	2991.06
728.145	2794.45
728.332	2941.91
728.518	2909.14
728.705	2812.89
728.891	2790.36
729.077	2898.9
729.264	2880.47
729.45	2917.33
729.636	2923.48
729.823	2972.63
730.009	2841.56
730.195	2913.24
730.382	2913.24
730.568	2859.99
730.754	2995.15
730.94	2972.63
731.126	2917.33
731.313	2884.56
731.499	2919.38
731.685	2917.33
731.871	2845.65
732.057	2935.76
732.243	2970.58
732.429	2843.6
732.615	2829.27
732.801	2913.24
732.987	2851.8
733.173	2915.28
733.359	2735.06
733.545	2773.97
733.731	2876.37
733.917	2724.82
734.103	2919.38
734.289	2907.09
734.475	2773.97
734.661	2743.25
734.847	2804.69
735.033	2814.93
735.219	2751.45
735.404	2788.31
735.59	2737.11
735.776	2714.58
735.962	2816.98
736.148	2769.88
736.333	2706.39
736.519	2733.01
736.705	2757.59
736.89	2786.26
737.076	2730.97
737.262	2763.73
737.447	2628.57
737.633	2661.34
737.819	2755.54
738.004	2767.83
738.19	2778.07
738.375	2786.26
738.561	2681.82
738.747	2784.21
738.932	2571.22
739.118	2712.53
739.303	2624.47
739.489	2726.87
739.674	2685.91
739.859	2589.66
740.045	2778.07
740.23	2628.57
740.416	2599.9
740.601	2630.62
740.786	2751.45
740.972	2671.58
741.157	2698.2
741.342	2573.27
741.528	2563.03
741.713	2509.79
741.898	2603.99
742.084	2612.18
742.269	2669.53
742.454	2552.79
742.639	2581.46
742.824	2614.23
743.01	2569.18
743.195	2393.05
743.38	2532.31
743.565	2460.63
743.75	2434.01
743.935	2524.12
744.12	2493.4
744.305	2558.94
744.49	2391
744.675	2452.44
744.86	2378.72
745.045	2485.21
745.23	2348
745.415	2472.92
745.6	2388.96
745.785	2374.62
745.97	2276.32
746.155	2278.37
746.34	2206.69
746.525	2229.21
746.71	2282.46
746.895	2253.79
747.079	2354.14
747.264	2343.9
747.449	2358.24
747.634	2225.12
747.819	2216.93
748.003	2186.21
748.188	2186.21
748.373	2089.95
748.557	2255.84
748.742	2214.88
748.927	2180.06
749.111	2237.41
749.296	2169.82
749.481	2214.88
749.665	2040.8
749.85	2077.66
750.034	2204.64
750.219	2167.77
750.404	2139.1
750.588	2048.99
750.773	1983.46
750.957	1999.84
751.141	1952.74
751.326	2038.75
751.51	2081.76
751.695	1899.49
751.879	1987.55
752.064	1960.93
752.248	1973.22
752.432	1895.4
752.617	1983.46
752.801	1840.1
752.985	1913.83
753.17	1860.58
753.354	1913.83
753.538	1780.71
753.722	1893.35
753.907	1836
754.091	1774.56
754.275	1745.89
754.459	1758.18
754.643	1670.12
754.828	1756.13
755.012	1729.51
755.196	1663.97
755.38	1684.45
755.564	1704.93
755.748	1598.44
755.932	1641.45
756.116	1547.24
756.3	1657.83
756.484	1657.83
756.668	1592.3
756.852	1571.82
757.036	1522.66
757.22	1651.69
757.404	1610.73
757.588	1573.86
757.772	1571.82
757.956	1612.78
758.14	1537
758.323	1496.04
758.507	1524.71
758.691	1487.85
758.875	1498.09
759.059	1559.53
759.242	1459.18
759.426	1428.46
759.61	1420.27
759.794	1498.09
759.977	1375.21
760.161	1518.57
760.345	1453.03
760.528	1432.55
760.712	1362.92
760.895	1397.74
761.079	1326.06
761.263	1303.53
761.446	1467.37
761.63	1461.23
761.813	1342.44
761.997	1293.29
762.18	1332.2
762.364	1330.16
762.547	1344.49
762.731	1399.79
762.914	1332.2
763.098	1324.01
763.281	1352.68
763.464	1287.15
763.648	1338.35
763.831	1334.25
764.015	1215.47
764.198	1270.76
764.381	1346.54
764.564	1317.87
764.748	1254.38
764.931	1264.62
765.114	1287.15
765.297	1262.57
765.481	1199.09
765.664	1238
765.847	1225.71
766.03	1295.34
766.213	1194.99
766.397	1151.98
766.58	1096.69
766.763	1164.27
766.946	1072.11
767.129	1141.74
767.312	1127.41
767.495	1184.75
767.678	1147.89
767.861	1147.89
768.044	1207.28
768.227	1213.42
768.41	1137.65
768.593	1145.84
768.776	1207.28
768.959	1147.89
769.142	1156.08
769.324	1104.88
769.507	1225.71
769.69	1129.45
769.873	1086.45
770.056	1106.93
770.239	1108.98
770.421	1147.89
770.604	1106.93
770.787	1068.02
770.97	1065.97
771.152	1022.96
771.335	1065.97
771.518	1020.91
771.7	1018.86
771.883	1055.73
772.066	1049.58
772.248	1061.87
772.431	1113.07
772.613	1088.5
772.796	951.28
772.978	1012.72
773.161	1008.62
773.343	975.86
773.526	898.03
773.708	986.1
773.891	945.14
774.073	920.56
774.256	877.55
774.438	918.51
774.621	863.22
774.803	910.32
774.985	895.99
775.168	973.81
775.35	961.52
775.532	1020.91
775.715	928.75
775.897	961.52
776.079	844.79
776.261	869.36
776.444	769.01
776.626	830.45
776.808	920.56
776.99	795.64
777.173	834.55
777.355	932.85
777.537	861.17
777.719	910.32
777.901	861.17
778.083	738.29
778.265	797.68
778.447	803.83
778.629	736.24
778.811	775.16
778.993	850.93
779.175	840.69
779.357	789.49
779.539	732.15
779.721	717.81
779.903	818.16
780.085	738.29
780.267	795.64
780.449	736.24
780.631	781.3
780.812	660.47
780.994	721.91
781.176	758.77
781.358	685.05
781.54	736.24
781.721	703.48
781.903	639.99
782.085	609.27
782.267	637.94
782.448	670.71
782.63	689.14
782.812	736.24
782.993	642.04
783.175	678.9
783.357	621.56
783.538	637.94
783.72	537.59
783.901	642.04
784.083	599.03
784.264	664.57
784.446	701.43
784.627	508.92
784.809	617.46
784.99	621.56
785.172	556.02
785.353	596.98
785.535	637.94
785.716	601.08
785.897	564.22
786.079	545.78
786.26	535.54
786.441	506.87
786.623	525.3
786.804	488.44
786.985	541.69
787.167	484.34
787.348	519.16
787.529	517.11
787.71	545.78
787.891	521.21
788.073	560.12
788.254	584.7
788.435	510.97
788.616	513.02
788.797	521.21
788.978	574.46
789.159	459.77
789.34	523.26
789.522	474.1
789.703	549.88
789.884	521.21
790.065	488.44
790.246	553.98
790.427	406.52
790.607	476.15
790.788	492.54
790.969	420.86
791.15	386.04
791.331	441.34
791.512	478.2
791.693	437.24
791.874	394.23
792.054	541.69
792.235	474.1
792.416	381.95
792.597	408.57
792.778	359.42
792.958	388.09
793.139	355.32
793.32	412.67
793.5	408.57
793.681	447.48
793.862	455.67
794.042	404.47
794.223	441.34
794.404	381.95
794.584	424.95
794.765	371.71
794.945	396.28
795.126	455.67
795.306	293.88
795.487	375.8
795.667	437.24
795.848	414.71
796.028	355.32
796.209	351.23
796.389	422.91
796.57	332.79
796.75	373.75
796.93	353.27
797.111	392.19
797.291	388.09
797.471	334.84
797.652	297.98
797.832	314.36
798.012	386.04
798.192	347.13
798.373	351.23
798.553	306.17
798.733	338.94
798.913	351.23
799.093	398.33
799.274	377.85
799.454	377.85
799.634	318.46
799.814	357.37
799.994	312.32
800.174	322.56
800.354	338.94
800.534	238.59
800.714	293.88
800.894	293.88
801.074	334.84
801.254	365.56
801.434	347.13
801.614	314.36
801.794	228.35
801.974	662.52
802.154	324.6
802.334	281.6
802.514	283.64
802.693	285.69
802.873	328.7
803.053	291.84
803.233	265.21
803.413	336.89
803.592	291.84
803.772	259.07
803.952	224.25
804.131	273.4
804.311	232.44
804.491	271.36
804.67	271.36
804.85	265.21
805.03	279.55
805.209	285.69
805.389	236.54
805.568	285.69
805.748	238.59
805.928	265.21
806.107	185.34
806.287	252.92
806.466	338.94
806.646	320.51
806.825	236.54
807.004	279.55
807.184	226.3
807.363	295.93
807.543	269.31
807.722	238.59
807.901	193.53
808.081	222.2
808.26	259.07
808.439	240.64
808.619	252.92
808.798	283.64
808.977	175.1
809.156	263.16
809.336	228.35
809.515	189.44
809.694	250.88
809.873	254.97
810.052	179.2
810.231	193.53
810.411	271.36
810.59	236.54
810.769	193.53
810.948	242.68
811.127	173.05
811.306	189.44
811.485	216.06
811.664	275.45
811.843	171.01
812.022	222.2
812.201	209.92
812.38	183.29
812.559	230.4
812.737	222.2
812.916	207.87
813.095	197.63
813.274	193.53
813.453	168.96
813.632	250.88
813.811	146.43
813.989	228.35
814.168	138.24
814.347	154.62
814.526	248.83
814.704	183.29
814.883	224.25
815.062	105.47
815.24	191.49
815.419	179.2
815.598	150.53
815.776	70.65
815.955	156.67
816.133	181.25
816.312	177.15
816.49	156.67
816.669	138.24
816.847	236.54
817.026	209.92
817.204	160.77
817.383	119.81
817.561	146.43
817.74	244.73
817.918	156.67
818.097	175.1
818.275	179.2
818.453	193.53
818.632	128
818.81	158.72
818.988	193.53
819.167	150.53
819.345	142.33
819.523	117.76
819.701	254.97
819.879	148.48
820.058	187.39
820.236	189.44
820.414	128
820.592	156.67
820.77	230.4
820.948	128
821.127	175.1
821.305	226.3
821.483	187.39
821.661	183.29
821.839	197.63
822.017	160.77
822.195	103.42
822.373	138.24
822.551	99.33
822.729	195.58
822.907	150.53
823.085	117.76
823.262	228.35
823.44	162.81
823.618	189.44
823.796	209.92
823.974	113.66
824.152	134.14
824.329	113.66
824.507	132.09
824.685	173.05
824.863	175.1
825.04	134.14
825.218	154.62
825.396	195.58
825.574	140.29
825.751	35.84
825.929	150.53
826.107	99.33
826.284	128
826.462	142.33
826.639	146.43
826.817	60.42
826.994	80.89
827.172	99.33
827.349	123.9
827.527	111.61
827.704	142.33
827.882	128
828.059	162.81
828.237	138.24
828.414	224.25
828.591	84.99
828.769	107.52
828.946	58.37
829.124	168.96
829.301	158.72
829.478	64.51
829.655	123.9
829.833	197.63
830.01	76.8
830.187	150.53
830.364	99.33
830.542	128
830.719	181.25
830.896	128
831.073	113.66
831.25	150.53
831.427	46.08
831.604	107.52
831.782	150.53
831.959	189.44
832.136	154.62
832.313	103.42
832.49	121.85
832.667	144.38
832.844	72.7
833.021	115.71
833.198	82.94
833.374	115.71
833.551	93.18
833.728	119.81
833.905	203.77
834.082	72.7
834.259	97.28
834.436	117.76
834.612	105.47
834.789	107.52
834.966	111.61
835.143	154.62
835.319	19.46
835.496	25.6
835.673	168.96
835.85	103.42
836.026	9.22
836.203	136.19
836.38	72.7
836.556	41.98
836.733	125.95
836.909	148.48
837.086	29.7
837.262	48.13
837.439	132.09
837.616	123.9
837.792	70.65
837.968	19.46
838.145	13.31
838.321	54.27
838.498	123.9
838.674	99.33
838.851	138.24
839.027	93.18
839.203	80.89
839.38	87.04
839.556	1.02
839.732	121.85
839.909	95.23
840.085	52.22
840.261	142.33
840.437	99.33
840.614	70.65
840.79	66.56
840.966	15.36
841.142	84.99
841.318	44.03
841.494	91.13
841.671	134.14
841.847	62.46
842.023	58.37
842.199	105.47
842.375	46.08
842.551	25.6
842.727	60.42
842.903	84.99
843.079	21.5
843.255	105.47
843.431	87.04
843.607	70.65
843.783	74.75
843.959	37.89
844.134	93.18
844.31	158.72
844.486	76.8
844.662	70.65
844.838	115.71
845.013	33.79
845.189	15.36
845.365	15.36
845.541	23.55
845.716	128
845.892	121.85
846.068	93.18
846.244	39.94
846.419	72.7
846.595	128
846.77	13.31
846.946	68.61
847.122	132.09
847.297	-11.26
847.473	66.56
847.648	11.26
847.824	68.61
847.999	33.79
848.175	37.89
848.35	35.84
848.526	123.9
848.701	35.84
848.876	144.38
849.052	74.75
849.227	103.42
849.403	72.7
849.578	29.7
849.753	89.09
849.929	107.52
850.104	78.85
850.279	128
850.454	25.6
850.63	58.37
850.805	89.09
850.98	66.56
851.155	93.18
851.33	91.13
851.505	13.31
851.681	105.47
851.856	54.27
852.031	115.71
852.206	9.22
852.381	62.46
852.556	58.37
852.731	82.94
852.906	35.84
853.081	111.61
853.256	95.23
853.431	17.41
853.606	44.03
853.781	74.75
853.956	-15.36
854.131	113.66
854.305	-48.13
854.48	44.03
854.655	72.7
854.83	52.22
855.005	48.13
855.18	64.51
855.354	80.89
855.529	107.52
855.704	33.79
855.879	95.23
856.053	74.75
856.228	58.37
856.403	37.89
856.577	99.33
856.752	-3.07
856.926	91.13
857.101	109.57
857.276	72.7
857.45	-3.07
857.625	84.99
857.799	84.99
857.974	25.6
858.148	-3.07
858.323	-25.6
858.497	-9.22
858.672	91.13
858.846	7.17
859.02	50.18
859.195	31.74
859.369	101.37
859.543	41.98
859.718	44.03
859.892	15.36
860.066	52.22
860.241	76.8
860.415	37.89
860.589	13.31
860.763	41.98
860.938	15.36
861.112	78.85
861.286	21.5
861.46	113.66
861.634	37.89
861.808	13.31
861.982	76.8
862.157	-54.27
862.331	19.46
862.505	89.09
862.679	3.07
862.853	-15.36
863.027	80.89
863.201	70.65
863.375	-15.36
863.549	54.27
863.722	23.55
863.896	3.07
864.07	62.46
864.244	35.84
864.418	39.94
864.592	25.6
864.766	39.94
864.939	-3.07
865.113	95.23
865.287	87.04
865.461	60.42
865.634	15.36
865.808	48.13
865.982	109.57
866.156	46.08
866.329	-33.79
866.503	101.37
866.676	97.28
866.85	70.65
867.024	33.79
867.197	3.07
867.371	132.09
867.544	11.26
867.718	-9.22
867.891	91.13
868.065	44.03
868.238	-9.22
868.412	82.94
868.585	-7.17
868.759	74.75
868.932	68.61
869.105	37.89
869.279	78.85
869.452	5.12
869.625	62.46
869.799	50.18
869.972	-70.65
870.145	60.42
870.319	-1.02
870.492	54.27
870.665	1.02
870.838	23.55
871.011	-29.7
871.185	15.36
871.358	-17.41
871.531	66.56
871.704	46.08
871.877	-11.26
872.05	-23.55
872.223	7.17
872.396	74.75
872.569	50.18
872.742	-54.27
872.915	136.19
873.088	66.56
873.261	41.98
873.434	1.02
873.607	-31.74
873.78	31.74
873.953	-35.84
874.126	82.94
874.299	5.12
874.471	27.65
874.644	23.55
874.817	-52.22
874.99	9.22
875.163	46.08
875.335	66.56
875.508	-5.12
875.681	-3.07
875.853	9.22
876.026	33.79
876.199	82.94
876.371	-44.03
876.544	-13.31
876.717	11.26
876.889	33.79
877.062	56.32
877.234	25.6
877.407	41.98
877.579	72.7
877.752	-31.74
877.924	50.18
878.097	58.37
878.269	-31.74
878.442	11.26
878.614	87.04
878.786	74.75
878.959	29.7
879.131	25.6
879.303	-15.36
879.476	1.02
879.648	44.03
879.82	33.79
879.993	21.5
880.165	68.61
880.337	-97.28
880.509	-31.74
880.681	29.7
880.854	-5.12
881.026	72.7
881.198	140.29
881.37	-21.5
881.542	27.65
881.714	-9.22
881.886	-25.6
882.058	58.37
882.23	41.98
882.402	9.22
882.574	31.74
882.746	-11.26
882.918	41.98
883.09	82.94
883.262	3.07
883.434	5.12
883.606	25.6
883.778	89.09
883.95	41.98
884.122	27.65
884.293	52.22
884.465	107.52
884.637	31.74
884.809	-60.42
884.98	3.07
885.152	-41.98
885.324	33.79
885.496	-11.26
885.667	25.6
885.839	48.13
886.011	-7.17
886.182	41.98
886.354	70.65
886.525	-9.22
886.697	46.08
886.869	25.6
887.04	39.94
887.212	70.65
887.383	-35.84
887.555	72.7
887.726	58.37
887.897	54.27
888.069	48.13
888.24	5.12
888.412	78.85
888.583	23.55
888.754	39.94
888.926	-7.17
889.097	121.85
889.268	-64.51
889.44	13.31
889.611	52.22
889.782	11.26
889.953	7.17
890.125	7.17
890.296	23.55
890.467	19.46
890.638	70.65
890.809	35.84
890.98	-1.02
891.151	9.22
891.323	37.89
891.494	35.84
891.665	50.18
891.836	-11.26
892.007	76.8
892.178	68.61
892.349	23.55
892.52	17.41
892.691	48.13
892.862	-64.51
893.032	23.55
893.203	48.13
893.374	19.46
893.545	80.89
893.716	-21.5
893.887	21.5
894.057	54.27
894.228	31.74
894.399	1.02
894.57	17.41
894.74	64.51
894.911	44.03
895.082	17.41
895.253	27.65
895.423	109.57
895.594	52.22
895.764	33.79
895.935	-15.36
896.106	27.65
896.276	-31.74
896.447	-39.94
896.617	-72.7
896.788	-35.84
896.958	-23.55
897.129	33.79
897.299	-54.27
897.47	33.79
897.64	1.02
897.81	41.98
897.981	19.46
898.151	-5.12
898.322	13.31
898.492	-9.22
898.662	-11.26
898.832	-54.27
899.003	9.22
899.173	3.07
899.343	17.41
899.513	7.17
