Data from USB4F104151__30__12-27-14-302.txt Node

Date: Fri Mar 14 12:27:14 EDT 2025
User: louis
Spectrometer: USB4F10415
Trigger mode: 4
Integration Time (sec): 2.000000E-2
Scans to average: 1
Electric dark correction enabled: true
Nonlinearity correction enabled: false
Boxcar width: 0
XAxis mode: Wavelengths
Number of Pixels in Spectrum: 3648
>>>>>Begin Spectral Data<<<<<
178.204	-58.88
178.424	-58.88
178.644	-58.88
178.864	-85.5
179.084	-52.74
179.304	-148.99
179.524	2.56
179.744	41.47
179.964	74.24
180.184	-3.58
180.404	12.8
180.624	-28.16
180.844	-9.73
181.064	59.9
181.283	-7.68
181.503	-32.26
181.723	39.42
181.943	-42.5
182.163	121.34
182.383	14.85
182.602	88.57
182.822	37.38
183.042	72.19
183.262	-15.87
183.482	33.28
183.701	16.9
183.921	61.95
184.141	2.56
184.361	64
184.58	-15.87
184.8	23.04
185.02	6.66
185.239	35.33
185.459	27.14
185.679	68.09
185.898	-28.16
186.118	39.42
186.338	53.76
186.557	57.86
186.777	41.47
186.997	10.75
187.216	25.09
187.436	53.76
187.655	37.38
187.875	109.05
188.095	31.23
188.314	131.58
188.534	6.66
188.753	66.05
188.973	6.66
189.192	94.72
189.412	29.18
189.631	-30.21
189.851	-19.97
190.07	20.99
190.29	94.72
190.509	109.05
190.729	35.33
190.948	-1.54
191.168	109.05
191.387	45.57
191.607	-9.73
191.826	57.86
192.045	59.9
192.265	-34.3
192.484	27.14
192.704	23.04
192.923	31.23
193.142	111.1
193.362	33.28
193.581	31.23
193.8	35.33
194.02	29.18
194.239	49.66
194.458	31.23
194.678	33.28
194.897	35.33
195.116	78.33
195.335	113.15
195.555	127.49
195.774	88.57
195.993	57.86
196.212	10.75
196.432	49.66
196.651	4.61
196.87	12.8
197.089	74.24
197.308	-3.58
197.528	45.57
197.747	4.61
197.966	35.33
198.185	76.29
198.404	-40.45
198.623	82.43
198.842	74.24
199.062	133.63
199.281	78.33
199.5	20.99
199.719	70.14
199.938	135.68
200.157	51.71
200.376	27.14
200.595	23.04
200.814	2.56
201.033	2.56
201.252	82.43
201.471	125.44
201.69	102.91
201.909	102.91
202.128	20.99
202.347	49.66
202.566	16.9
202.785	-17.92
203.004	-13.82
203.223	33.28
203.442	66.05
203.661	25.09
203.879	125.44
204.098	104.96
204.317	14.85
204.536	12.8
204.755	57.86
204.974	68.09
205.193	43.52
205.411	14.85
205.63	59.9
205.849	57.86
206.068	59.9
206.287	104.96
206.505	18.94
206.724	-5.63
206.943	31.23
207.162	8.7
207.381	35.33
207.599	45.57
207.818	31.23
208.037	25.09
208.255	-48.64
208.474	45.57
208.693	72.19
208.911	25.09
209.13	29.18
209.349	51.71
209.567	-19.97
209.786	31.23
210.005	145.92
210.223	51.71
210.442	61.95
210.661	20.99
210.879	98.81
211.098	53.76
211.316	20.99
211.535	59.9
211.753	0.51
211.972	49.66
212.191	68.09
212.409	59.9
212.628	41.47
212.846	18.94
213.065	33.28
213.283	45.57
213.502	8.7
213.72	37.38
213.938	-17.92
214.157	-1.54
214.375	18.94
214.594	-3.58
214.812	14.85
215.031	98.81
215.249	39.42
215.467	66.05
215.686	-26.11
215.904	59.9
216.122	72.19
216.341	113.15
216.559	-32.26
216.778	104.96
216.996	49.66
217.214	72.19
217.432	-38.4
217.651	49.66
217.869	66.05
218.087	86.53
218.306	68.09
218.524	82.43
218.742	80.38
218.96	80.38
219.179	12.8
219.397	25.09
219.615	41.47
219.833	53.76
220.051	49.66
220.27	33.28
220.488	12.8
220.706	90.62
220.924	35.33
221.142	61.95
221.36	35.33
221.578	37.38
221.796	84.48
222.015	-9.73
222.233	10.75
222.451	125.44
222.669	8.7
222.887	4.61
223.105	51.71
223.323	8.7
223.541	41.47
223.759	107.01
223.977	76.29
224.195	127.49
224.413	94.72
224.631	53.76
224.849	-5.63
225.067	141.82
225.285	27.14
225.503	6.66
225.721	29.18
225.939	10.75
226.157	84.48
226.375	117.25
226.592	18.94
226.81	31.23
227.028	72.19
227.246	47.62
227.464	16.9
227.682	23.04
227.9	66.05
228.117	18.94
228.335	39.42
228.553	53.76
228.771	-1.54
228.989	16.9
229.206	59.9
229.424	119.29
229.642	-13.82
229.86	47.62
230.077	25.09
230.295	82.43
230.513	31.23
230.731	100.86
230.948	68.09
231.166	25.09
231.384	-75.26
231.601	66.05
231.819	64
232.037	-54.78
232.254	78.33
232.472	14.85
232.689	64
232.907	64
233.125	76.29
233.342	39.42
233.56	4.61
233.777	45.57
233.995	90.62
234.213	94.72
234.43	78.33
234.648	23.04
234.865	8.7
235.083	16.9
235.3	-11.78
235.518	23.04
235.735	82.43
235.953	39.42
236.17	6.66
236.388	94.72
236.605	-28.16
236.822	76.29
237.04	23.04
237.257	39.42
237.475	104.96
237.692	18.94
237.909	14.85
238.127	29.18
238.344	55.81
238.562	96.77
238.779	8.7
238.996	14.85
239.214	74.24
239.431	29.18
239.648	-19.97
239.865	55.81
240.083	59.9
240.3	14.85
240.517	-7.68
240.735	59.9
240.952	100.86
241.169	117.25
241.386	27.14
241.603	59.9
241.821	-15.87
242.038	143.87
242.255	76.29
242.472	-26.11
242.689	90.62
242.907	68.09
243.124	29.18
243.341	4.61
243.558	59.9
243.775	14.85
243.992	-5.63
244.209	-1.54
244.426	35.33
244.643	80.38
244.86	76.29
245.078	68.09
245.295	-3.58
245.512	31.23
245.729	51.71
245.946	27.14
246.163	43.52
246.38	51.71
246.597	35.33
246.814	53.76
247.031	27.14
247.248	139.77
247.464	78.33
247.681	-3.58
247.898	23.04
248.115	84.48
248.332	-46.59
248.549	66.05
248.766	104.96
248.983	84.48
249.2	8.7
249.417	-87.55
249.633	-9.73
249.85	6.66
250.067	14.85
250.284	39.42
250.501	47.62
250.717	76.29
250.934	20.99
251.151	92.67
251.368	43.52
251.585	8.7
251.801	20.99
252.018	0.51
252.235	72.19
252.451	-28.16
252.668	57.86
252.885	84.48
253.102	49.66
253.318	35.33
253.535	-5.63
253.752	33.28
253.968	57.86
254.185	-5.63
254.401	72.19
254.618	-46.59
254.835	14.85
255.051	45.57
255.268	80.38
255.484	35.33
255.701	-1.54
255.917	20.99
256.134	-7.68
256.351	84.48
256.567	0.51
256.784	55.81
257	55.81
257.217	86.53
257.433	10.75
257.65	37.38
257.866	53.76
258.082	-9.73
258.299	76.29
258.515	68.09
258.732	47.62
258.948	20.99
259.165	59.9
259.381	57.86
259.597	-7.68
259.814	0.51
260.03	82.43
260.246	107.01
260.463	-19.97
260.679	49.66
260.895	64
261.112	16.9
261.328	84.48
261.544	31.23
261.761	70.14
261.977	8.7
262.193	-11.78
262.409	80.38
262.626	-36.35
262.842	6.66
263.058	70.14
263.274	10.75
263.49	45.57
263.707	-28.16
263.923	76.29
264.139	10.75
264.355	37.38
264.571	76.29
264.787	53.76
265.004	90.62
265.22	6.66
265.436	23.04
265.652	72.19
265.868	72.19
266.084	27.14
266.3	64
266.516	-38.4
266.732	68.09
266.948	-19.97
267.164	12.8
267.38	31.23
267.596	45.57
267.812	41.47
268.028	29.18
268.244	-15.87
268.46	59.9
268.676	12.8
268.892	14.85
269.108	70.14
269.324	37.38
269.54	66.05
269.756	94.72
269.972	31.23
270.188	68.09
270.403	10.75
270.619	-5.63
270.835	66.05
271.051	68.09
271.267	39.42
271.483	94.72
271.698	43.52
271.914	39.42
272.13	23.04
272.346	-52.74
272.562	-5.63
272.777	174.59
272.993	109.05
273.209	10.75
273.425	-22.02
273.64	133.63
273.856	61.95
274.072	31.23
274.287	6.66
274.503	66.05
274.719	88.57
274.934	59.9
275.15	6.66
275.366	33.28
275.581	6.66
275.797	53.76
276.012	57.86
276.228	10.75
276.444	57.86
276.659	61.95
276.875	-40.45
277.09	37.38
277.306	76.29
277.521	59.9
277.737	39.42
277.952	98.81
278.168	61.95
278.383	-3.58
278.599	45.57
278.814	10.75
279.03	-3.58
279.245	107.01
279.461	59.9
279.676	41.47
279.892	33.28
280.107	29.18
280.322	12.8
280.538	25.09
280.753	72.19
280.969	37.38
281.184	20.99
281.399	39.42
281.615	57.86
281.83	51.71
282.045	10.75
282.26	92.67
282.476	74.24
282.691	29.18
282.906	16.9
283.122	80.38
283.337	10.75
283.552	135.68
283.767	23.04
283.983	127.49
284.198	59.9
284.413	6.66
284.628	-62.98
284.843	2.56
285.058	57.86
285.274	23.04
285.489	-7.68
285.704	33.28
285.919	23.04
286.134	39.42
286.349	113.15
286.564	35.33
286.779	20.99
286.995	74.24
287.21	66.05
287.425	64
287.64	-1.54
287.855	96.77
288.07	49.66
288.285	57.86
288.5	43.52
288.715	51.71
288.93	2.56
289.145	39.42
289.36	109.05
289.575	37.38
289.79	76.29
290.004	-9.73
290.219	-17.92
290.434	49.66
290.649	20.99
290.864	76.29
291.079	27.14
291.294	-13.82
291.509	88.57
291.724	55.81
291.938	23.04
292.153	115.2
292.368	55.81
292.583	55.81
292.798	43.52
293.012	92.67
293.227	18.94
293.442	41.47
293.657	107.01
293.871	123.39
294.086	70.14
294.301	61.95
294.516	4.61
294.73	35.33
294.945	6.66
295.16	0.51
295.374	45.57
295.589	51.71
295.804	10.75
296.018	66.05
296.233	49.66
296.447	23.04
296.662	39.42
296.877	55.81
297.091	59.9
297.306	53.76
297.52	-1.54
297.735	-9.73
297.949	41.47
298.164	121.34
298.378	12.8
298.593	45.57
298.807	-3.58
299.022	-5.63
299.236	37.38
299.451	66.05
299.665	2.56
299.88	53.76
300.094	61.95
300.309	88.57
300.523	78.33
300.737	4.61
300.952	86.53
301.166	0.51
301.381	4.61
301.595	64
301.809	88.57
302.024	23.04
302.238	-32.26
302.452	78.33
302.667	-42.5
302.881	131.58
303.095	8.7
303.309	102.91
303.524	31.23
303.738	16.9
303.952	68.09
304.166	113.15
304.381	-26.11
304.595	49.66
304.809	18.94
305.023	59.9
305.237	76.29
305.452	-15.87
305.666	-5.63
305.88	113.15
306.094	125.44
306.308	64
306.522	20.99
306.736	33.28
306.95	92.67
307.164	-32.26
307.379	47.62
307.593	29.18
307.807	59.9
308.021	66.05
308.235	47.62
308.449	57.86
308.663	49.66
308.877	25.09
309.091	41.47
309.305	49.66
309.519	29.18
309.733	45.57
309.947	45.57
310.161	49.66
310.374	111.1
310.588	102.91
310.802	59.9
311.016	-26.11
311.23	84.48
311.444	72.19
311.658	-5.63
311.872	123.39
312.085	74.24
312.299	72.19
312.513	74.24
312.727	-1.54
312.941	33.28
313.154	53.76
313.368	72.19
313.582	125.44
313.796	68.09
314.009	-95.74
314.223	43.52
314.437	49.66
314.651	104.96
314.864	-1.54
315.078	86.53
315.292	-3.58
315.505	35.33
315.719	47.62
315.933	61.95
316.146	82.43
316.36	2.56
316.573	96.77
316.787	92.67
317.001	12.8
317.214	35.33
317.428	115.2
317.641	37.38
317.855	31.23
318.068	37.38
318.282	16.9
318.495	113.15
318.709	70.14
318.922	57.86
319.136	121.34
319.349	57.86
319.563	37.38
319.776	0.51
319.99	-22.02
320.203	57.86
320.417	31.23
320.63	29.18
320.843	64
321.057	78.33
321.27	45.57
321.483	94.72
321.697	70.14
321.91	72.19
322.124	51.71
322.337	55.81
322.55	61.95
322.763	18.94
322.977	113.15
323.19	23.04
323.403	76.29
323.617	78.33
323.83	35.33
324.043	0.51
324.256	61.95
324.469	6.66
324.683	16.9
324.896	-19.97
325.109	-1.54
325.322	14.85
325.535	18.94
325.748	47.62
325.962	39.42
326.175	39.42
326.388	37.38
326.601	29.18
326.814	18.94
327.027	88.57
327.24	117.25
327.453	51.71
327.666	70.14
327.879	92.67
328.092	61.95
328.305	68.09
328.518	14.85
328.731	45.57
328.944	49.66
329.157	35.33
329.37	8.7
329.583	39.42
329.796	84.48
330.009	12.8
330.222	59.9
330.435	-42.5
330.648	90.62
330.861	57.86
331.073	6.66
331.286	8.7
331.499	90.62
331.712	-38.4
331.925	68.09
332.138	8.7
332.35	70.14
332.563	68.09
332.776	49.66
332.989	47.62
333.202	49.66
333.414	49.66
333.627	45.57
333.84	27.14
334.053	47.62
334.265	64
334.478	18.94
334.691	127.49
334.903	131.58
335.116	20.99
335.329	78.33
335.541	47.62
335.754	6.66
335.966	18.94
336.179	45.57
336.392	111.1
336.604	88.57
336.817	59.9
337.029	41.47
337.242	-1.54
337.454	23.04
337.667	-17.92
337.88	43.52
338.092	84.48
338.305	59.9
338.517	51.71
338.729	39.42
338.942	70.14
339.154	55.81
339.367	45.57
339.579	39.42
339.792	133.63
340.004	76.29
340.217	8.7
340.429	43.52
340.641	53.76
340.854	-15.87
341.066	76.29
341.278	33.28
341.491	51.71
341.703	78.33
341.915	6.66
342.128	72.19
342.34	90.62
342.552	-19.97
342.764	35.33
342.977	57.86
343.189	2.56
343.401	64
343.613	-48.64
343.826	80.38
344.038	57.86
344.25	82.43
344.462	64
344.674	113.15
344.886	8.7
345.099	25.09
345.311	92.67
345.523	20.99
345.735	37.38
345.947	96.77
346.159	20.99
346.371	-3.58
346.583	53.76
346.795	115.2
347.007	59.9
347.219	-19.97
347.431	-1.54
347.643	47.62
347.855	31.23
348.067	-26.11
348.279	6.66
348.491	33.28
348.703	64
348.915	49.66
349.127	23.04
349.339	64
349.551	37.38
349.763	117.25
349.975	35.33
350.187	12.8
350.399	111.1
350.61	-1.54
350.822	78.33
351.034	74.24
351.246	80.38
351.458	90.62
351.669	27.14
351.881	45.57
352.093	33.28
352.305	80.38
352.517	55.81
352.728	107.01
352.94	111.1
353.152	111.1
353.363	39.42
353.575	70.14
353.787	61.95
353.999	68.09
354.21	-15.87
354.422	123.39
354.633	39.42
354.845	66.05
355.057	51.71
355.268	39.42
355.48	68.09
355.692	43.52
355.903	90.62
356.115	-58.88
356.326	51.71
356.538	154.11
356.749	145.92
356.961	57.86
357.172	96.77
357.384	64
357.595	94.72
357.807	53.76
358.018	68.09
358.23	29.18
358.441	102.91
358.653	121.34
358.864	57.86
359.075	39.42
359.287	16.9
359.498	90.62
359.709	86.53
359.921	20.99
360.132	121.34
360.344	74.24
360.555	61.95
360.766	-38.4
360.977	8.7
361.189	129.53
361.4	-28.16
361.611	92.67
361.823	14.85
362.034	66.05
362.245	39.42
362.456	68.09
362.667	27.14
362.879	100.86
363.09	14.85
363.301	55.81
363.512	70.14
363.723	64
363.935	76.29
364.146	6.66
364.357	25.09
364.568	49.66
364.779	43.52
364.99	88.57
365.201	51.71
365.412	45.57
365.623	80.38
365.834	29.18
366.045	37.38
366.256	8.7
366.467	66.05
366.678	102.91
366.889	100.86
367.1	51.71
367.311	37.38
367.522	66.05
367.733	41.47
367.944	45.57
368.155	45.57
368.366	90.62
368.577	25.09
368.788	66.05
368.999	104.96
369.209	45.57
369.42	37.38
369.631	76.29
369.842	31.23
370.053	115.2
370.264	33.28
370.474	18.94
370.685	70.14
370.896	45.57
371.107	117.25
371.317	92.67
371.528	76.29
371.739	35.33
371.95	127.49
372.16	86.53
372.371	45.57
372.582	57.86
372.792	115.2
373.003	41.47
373.214	49.66
373.424	61.95
373.635	74.24
373.846	109.05
374.056	59.9
374.267	64
374.477	53.76
374.688	25.09
374.898	59.9
375.109	31.23
375.319	43.52
375.53	156.16
375.74	16.9
375.951	127.49
376.161	55.81
376.372	41.47
376.582	102.91
376.793	25.09
377.003	2.56
377.214	115.2
377.424	53.76
377.635	33.28
377.845	4.61
378.055	84.48
378.266	88.57
378.476	45.57
378.686	59.9
378.897	29.18
379.107	96.77
379.317	45.57
379.528	64
379.738	127.49
379.948	76.29
380.158	102.91
380.369	43.52
380.579	51.71
380.789	88.57
380.999	-17.92
381.21	100.86
381.42	121.34
381.63	23.04
381.84	66.05
382.05	111.1
382.261	100.86
382.471	70.14
382.681	61.95
382.891	131.58
383.101	72.19
383.311	55.81
383.521	98.81
383.731	78.33
383.941	72.19
384.151	8.7
384.361	135.68
384.571	80.38
384.781	78.33
384.991	113.15
385.201	100.86
385.411	102.91
385.621	49.66
385.831	92.67
386.041	78.33
386.251	51.71
386.461	92.67
386.671	45.57
386.881	109.05
387.091	72.19
387.301	92.67
387.511	92.67
387.72	94.72
387.93	96.77
388.14	-7.68
388.35	74.24
388.56	109.05
388.769	127.49
388.979	119.29
389.189	86.53
389.399	135.68
389.609	23.04
389.818	51.71
390.028	104.96
390.238	43.52
390.447	31.23
390.657	41.47
390.867	45.57
391.076	55.81
391.286	82.43
391.496	102.91
391.705	123.39
391.915	72.19
392.125	90.62
392.334	111.1
392.544	143.87
392.753	80.38
392.963	94.72
393.172	127.49
393.382	72.19
393.591	111.1
393.801	43.52
394.01	119.29
394.22	139.77
394.429	127.49
394.639	172.54
394.848	129.53
395.058	78.33
395.267	143.87
395.477	115.2
395.686	107.01
395.895	115.2
396.105	137.73
396.314	111.1
396.524	92.67
396.733	137.73
396.942	154.11
397.152	92.67
397.361	113.15
397.57	219.64
397.78	131.58
397.989	37.38
398.198	59.9
398.407	121.34
398.617	133.63
398.826	80.38
399.035	176.64
399.244	172.54
399.453	74.24
399.663	45.57
399.872	199.16
400.081	145.92
400.29	107.01
400.499	121.34
400.708	205.31
400.917	135.68
401.127	205.31
401.336	123.39
401.545	164.35
401.754	176.64
401.963	139.77
402.172	117.25
402.381	143.87
402.59	135.68
402.799	55.81
403.008	180.73
403.217	125.44
403.426	172.54
403.635	100.86
403.844	107.01
404.053	188.93
404.262	125.44
404.471	252.41
404.68	188.93
404.888	178.69
405.097	117.25
405.306	242.17
405.515	147.97
405.724	115.2
405.933	207.36
406.142	205.31
406.35	252.41
406.559	160.25
406.768	250.36
406.977	231.93
407.185	258.56
407.394	203.26
407.603	172.54
407.812	242.17
408.02	268.8
408.229	274.94
408.438	371.19
408.646	256.51
408.855	305.66
409.064	326.14
409.272	334.33
409.481	326.14
409.69	330.23
409.898	350.71
410.107	307.71
410.315	406.01
410.524	346.62
410.733	455.16
410.941	369.15
411.15	422.39
411.358	418.3
411.567	469.5
411.775	522.74
411.984	477.69
412.192	526.84
412.401	522.74
412.609	600.57
412.818	563.7
413.026	578.04
413.234	608.76
413.443	592.37
413.651	641.53
413.86	709.11
414.068	721.4
414.276	733.68
414.485	711.16
414.693	700.92
414.901	791.03
415.11	782.84
415.318	748.02
415.526	883.19
415.734	813.56
415.943	862.71
416.151	1047.02
416.359	979.44
416.567	977.39
416.776	1059.31
416.984	1184.24
417.192	1114.61
417.4	1079.79
417.608	1155.57
417.817	1198.57
418.025	1239.53
418.233	1214.96
418.441	1300.97
418.649	1409.51
418.857	1450.47
419.065	1554.92
419.273	1446.38
419.481	1591.78
419.689	1642.98
419.897	1655.27
420.105	1724.9
420.313	1821.16
420.521	1855.97
420.729	1872.36
420.937	1935.84
421.145	1958.37
421.353	2046.43
421.561	2134.5
421.769	2240.99
421.977	2245.09
422.185	2327
422.393	2566.62
422.601	2595.29
422.809	2556.38
423.017	2628.06
423.224	2761.17
423.432	2828.76
423.64	2906.58
423.848	3099.09
424.056	3033.55
424.263	3232.21
424.471	3176.91
424.679	3281.36
424.887	3543.5
425.094	3570.12
425.302	3740.1
425.51	3660.23
425.718	3860.93
425.925	3953.09
426.133	4061.63
426.341	4342.21
426.548	4487.61
426.756	4467.13
426.964	4598.2
427.171	4878.77
427.379	5005.75
427.586	5036.47
427.794	5040.56
428.001	5390.77
428.209	5706.15
428.417	5581.23
428.624	6058.4
428.832	6062.5
429.039	5951.91
429.247	5939.62
429.454	6537.63
429.662	6887.83
429.869	6445.47
430.076	6943.13
430.284	6693.27
430.491	7008.66
430.699	7524.75
430.906	7512.46
431.114	7559.56
431.321	7879.05
431.528	8253.83
431.736	8442.24
431.943	8745.34
432.15	8614.27
432.358	8743.29
432.565	9259.38
432.772	9322.87
432.979	9908.58
433.187	9861.48
433.394	9789.8
433.601	10522.98
433.808	10637.66
434.016	10709.34
434.223	10801.5
434.43	11671.89
434.637	11516.24
434.844	11983.18
435.052	12306.76
435.259	12273.99
435.466	12478.79
435.673	12288.32
435.88	13240.63
436.087	13838.64
436.294	13830.44
436.501	13564.21
436.708	13766.96
436.915	14362.92
437.122	15149.34
437.329	15116.57
437.537	15417.62
437.743	15663.38
437.95	15548.69
438.157	16275.72
438.364	16879.87
438.571	16982.27
438.778	16976.12
438.985	18473.19
439.192	17725.68
439.399	18612.45
439.606	18129.13
439.813	18938.08
440.02	20015.31
440.227	19777.75
440.433	19370.2
440.64	20291.79
440.847	20226.25
441.054	20674.76
441.261	21854.39
441.467	21921.97
441.674	22171.82
441.881	22841.51
442.088	22827.17
442.294	22849.7
442.501	23586.97
442.708	24078.48
442.914	24598.66
443.121	25796.73
443.328	25016.45
443.534	26687.59
443.741	25888.88
443.948	25815.16
444.154	27986
444.361	27496.54
444.568	27928.66
444.774	27721.82
444.981	27899.99
445.187	28758.09
445.394	30603.31
445.6	29982.77
445.807	32731.15
446.013	31293.47
446.22	31754.27
446.426	32952.33
446.633	33421.31
446.839	34557.94
447.046	32872.46
447.252	35016.68
447.459	35182.57
447.665	34996.2
447.871	36497.36
448.078	37425.09
448.284	36349.91
448.491	37212.1
448.697	38436.79
448.903	39270.31
449.11	39327.66
449.316	38637.49
449.522	39417.77
449.728	40564.63
449.935	40746.9
450.141	40947.6
450.347	41875.33
450.553	40327.06
450.76	41381.77
450.966	42682.23
451.172	41881.47
451.378	42940.27
451.584	42164.09
451.791	42747.76
451.997	42739.57
452.203	43634.53
452.409	44052.32
452.615	43468.65
452.821	42289.02
453.027	41230.22
453.233	43517.8
453.44	42227.58
453.646	42217.34
453.852	42962.8
454.058	43671.4
454.264	42418.04
454.47	42704.76
454.676	41682.82
454.882	43192.17
455.088	39354.28
455.294	40177.56
455.5	40662.93
455.705	41146.25
455.911	39675.81
456.117	38979.5
456.323	38186.94
456.529	36261.85
456.735	38033.34
456.941	36876.24
457.147	36405.2
457.352	35084.26
457.558	34846.7
457.764	34746.35
457.97	34174.97
458.176	33765.37
458.381	33527.81
458.587	31969.3
458.793	32317.46
458.999	30300.21
459.204	32485.39
459.41	31473.7
459.616	29587.52
459.821	29374.53
460.027	29483.07
460.233	28704.84
460.438	27533.4
460.644	27566.17
460.85	26456.17
461.055	26101.87
461.261	26026.1
461.466	24072.34
461.672	23105.7
461.878	24897.67
462.083	23435.42
462.289	23056.54
462.494	22683.81
462.7	21450.94
462.905	21016.77
463.111	21459.13
463.316	22073.52
463.522	21481.66
463.727	21708.98
463.932	21500.09
464.138	21033.15
464.343	21119.17
464.549	20486.34
464.754	21502.14
464.959	21176.51
465.165	21158.08
465.37	20213.96
465.575	19753.17
465.781	20420.81
465.986	20248.78
466.191	19839.19
466.397	19275.99
466.602	18421.99
466.807	19181.79
467.012	19011.81
467.218	18913.5
467.423	18843.87
467.628	18901.22
467.833	19751.12
468.038	19054.81
468.244	18266.35
468.449	19060.96
468.654	18565.35
468.859	18522.34
469.064	18309.35
469.269	17246.46
469.474	17760.5
469.679	18172.14
469.885	17617.14
470.09	17953.01
470.295	17682.67
470.5	17348.86
470.705	17297.66
470.91	17086.72
471.115	17107.19
471.32	17436.92
471.525	17139.96
471.73	16683.27
471.935	16498.95
472.139	16154.89
472.344	16103.69
472.549	15960.33
472.754	15939.85
472.959	15624.47
473.164	15558.93
473.369	15190.3
473.574	15620.37
473.778	15474.96
473.983	15438.1
474.188	15171.86
474.393	14561.57
474.598	14637.34
474.802	14473.51
475.007	14418.21
475.212	14295.33
475.417	14039.34
475.621	13705.52
475.826	13904.17
476.031	13658.42
476.235	13416.76
476.44	13687.09
476.645	13424.95
476.849	13240.63
477.054	13021.5
477.259	12919.1
477.463	13093.18
477.668	12482.88
477.872	12876.09
478.077	12947.77
478.282	12206.41
478.486	12489.03
478.691	12214.6
478.895	12253.51
479.1	12114.25
479.304	12054.86
479.509	11805
479.713	11917.64
479.918	11462.99
480.122	11250
480.326	11569.49
480.531	11653.45
480.735	11346.26
480.94	11458.9
481.144	11774.28
481.348	11446.61
481.553	11409.75
481.757	11145.56
481.961	11305.3
482.166	11645.26
482.37	11350.35
482.574	11204.95
482.778	10879.32
482.983	11450.71
483.187	11305.3
483.391	11211.09
483.595	11188.57
483.8	11161.94
484.004	11247.96
484.208	11262.29
484.412	11094.36
484.616	11274.58
484.821	11247.96
485.025	10907.99
485.229	11315.54
485.433	11100.5
485.637	11114.84
485.841	11020.63
486.045	11176.28
486.249	11172.18
486.453	11098.45
486.657	11114.84
486.861	11047.26
487.065	10879.32
487.269	11129.17
487.473	10930.52
487.677	11166.04
487.881	11366.74
488.085	11086.17
488.289	11207
488.493	11207
488.697	11344.21
488.901	11262.29
489.105	11166.04
489.309	11266.39
489.512	11239.76
489.716	11305.3
489.92	11315.54
490.124	11379.03
490.328	11538.77
490.531	11499.86
490.735	11389.27
490.939	11467.09
491.143	11475.28
491.346	11594.06
491.55	11718.99
491.754	11735.37
491.958	11727.18
492.161	11788.62
492.365	11718.99
492.569	11753.8
492.772	11741.52
492.976	11831.63
493.18	11974.99
493.383	12263.75
493.587	12224.84
493.79	12357.96
493.994	11993.42
494.197	12462.4
494.401	12302.66
494.605	12357.96
494.808	12745.02
495.012	12474.69
495.215	12892.48
495.419	12872
495.622	12785.98
495.825	13074.74
496.029	13146.42
496.232	13308.21
496.436	13293.88
496.639	13637.94
496.843	13134.14
497.046	13723.95
497.249	13705.52
497.453	13938.99
497.656	14170.41
497.859	13975.85
498.063	14278.95
498.266	14661.92
498.469	14532.9
498.673	14741.79
498.876	14643.49
499.079	15175.96
499.282	15042.84
499.485	15515.92
499.689	15274.26
499.892	15718.67
500.095	15675.66
500.298	16015.63
500.501	15816.97
500.705	16335.11
500.908	16466.18
501.111	16679.17
501.314	16767.23
501.517	16892.16
501.72	17215.74
501.923	17178.87
502.126	17639.67
502.329	17920.24
502.532	18012.4
502.735	17813.74
502.938	18241.77
503.141	18413.8
503.344	19007.71
503.547	18884.83
503.75	18749.67
503.953	19171.55
504.156	19593.43
504.359	19474.65
504.562	19656.92
504.765	20254.92
504.968	20496.58
505.17	20633.8
505.373	20482.25
505.576	20996.29
505.779	21452.98
505.982	21139.65
506.185	21639.35
506.387	21831.86
506.59	22034.61
506.793	22345.9
506.996	22247.6
507.198	22974.63
507.401	22888.61
507.604	23044.26
507.807	23654.55
508.009	23722.13
508.212	23877.78
508.415	24031.38
508.617	24385.68
508.82	24526.99
509.022	24221.84
509.225	25081.99
509.428	25251.97
509.63	25346.17
509.833	25356.41
510.035	26210.42
510.238	25804.92
510.44	26443.88
510.643	26568.81
510.845	27019.36
511.048	26826.85
511.25	27564.12
511.453	27424.86
511.655	28442.7
511.858	28024.92
512.06	28143.7
512.262	28790.86
512.465	28852.3
512.667	29243.46
512.87	29089.86
513.072	29591.61
513.274	30079.03
513.477	30259.25
513.679	30689.32
513.881	31041.57
514.084	30998.57
514.286	30736.43
514.488	31166.5
514.69	32399.38
514.893	32262.16
515.095	32090.13
515.297	32864.27
515.499	32694.29
515.701	33134.6
515.904	33230.85
516.106	33708.03
516.308	34441.2
516.51	34465.78
516.712	34045.94
516.914	34623.47
517.116	35262.44
517.318	34959.34
517.52	35467.23
517.722	35497.95
517.925	36577.23
518.127	36667.34
518.329	36507.6
518.531	36429.78
518.733	37599.17
518.935	37388.23
519.136	37631.94
519.338	37961.66
519.54	38012.86
519.742	38549.43
519.944	38873.01
520.146	38799.28
520.348	39743.39
520.55	39524.26
520.752	39536.55
520.954	40718.23
521.155	39983.01
521.357	40957.84
521.559	40920.98
521.761	41320.33
521.963	41355.14
522.164	41084.81
522.366	41496.45
522.568	41942.91
522.77	42415.99
522.971	42741.62
523.173	42665.84
523.375	43265.9
523.576	42925.94
523.778	43372.39
523.98	43474.79
524.181	43806.56
524.383	44199.77
524.584	44375.9
524.786	44371.8
524.988	44437.34
525.189	44539.74
525.391	45119.31
525.592	44955.47
525.794	45352.78
525.995	45344.59
526.197	45365.07
526.398	45535.05
526.6	45979.46
526.801	46223.17
527.003	46088
527.204	46171.97
527.406	46583.61
527.607	46505.79
527.808	46704.44
528.01	46319.42
528.211	46952.24
528.412	47609.64
528.614	47441.71
528.815	47339.31
529.016	47187.76
529.218	47005.49
529.419	47656.74
529.62	48041.76
529.822	47666.98
530.023	47779.62
530.224	47886.12
530.425	47888.17
530.626	47511.34
530.828	47384.36
531.029	48707.35
531.23	47750.95
531.431	47877.93
531.632	48408.35
531.833	48344.86
532.035	48549.66
532.236	48439.07
532.437	48285.47
532.638	47879.97
532.839	48680.73
533.04	48553.76
533.241	48215.84
533.442	48887.57
533.643	48664.35
533.844	48353.05
534.045	48946.97
534.246	48439.07
534.447	48881.43
534.648	48631.58
534.849	48703.26
535.05	48320.29
535.251	48641.82
535.451	48516.89
535.652	48633.63
535.853	48590.62
536.054	48627.48
536.255	49114.9
536.456	48394.01
536.657	48901.91
536.857	48523.04
537.058	48353.05
537.259	48932.63
537.46	48695.06
537.66	48672.54
537.861	48764.7
538.062	48416.54
538.263	49155.86
538.463	48236.32
538.664	48707.35
538.865	48992.02
539.065	48987.92
539.266	48000.8
539.466	49012.5
539.667	48264.99
539.868	48944.92
540.068	48695.06
540.269	48658.2
540.469	49092.37
540.67	48303.9
540.87	48566.04
541.071	48385.82
541.271	48881.43
541.472	48617.24
541.672	48312.09
541.873	48660.25
542.073	47718.18
542.274	49268.5
542.474	48394.01
542.675	48076.58
542.875	49162
543.075	48379.68
543.276	47890.21
543.476	48758.55
543.676	48381.73
543.877	48875.29
544.077	48314.14
544.277	47947.56
544.478	48535.32
544.678	48121.63
544.878	48738.07
545.078	48453.4
545.279	47894.31
545.479	47961.89
545.679	48412.45
545.879	48377.63
546.079	48510.75
546.28	47841.06
546.48	47929.12
546.68	48068.39
546.88	48613.15
547.08	48097.06
547.28	48465.69
547.48	48066.34
547.68	48486.17
547.88	47961.89
548.081	48394.01
548.281	48099.11
548.481	48000.8
548.681	48422.69
548.881	47980.32
549.081	47988.52
549.28	47730.47
549.48	48520.99
549.68	47654.7
549.88	48555.8
550.08	47785.77
550.28	47908.64
550.48	47808.29
550.68	48267.04
550.88	47757.1
551.08	47712.04
551.279	48320.29
551.479	47494.96
551.679	48062.24
551.879	47525.67
552.079	48043.81
552.278	47830.82
552.478	47712.04
552.678	48039.71
552.878	48101.15
553.077	47556.39
553.277	47652.65
553.477	48434.97
553.676	47722.28
553.876	47458.09
554.076	47611.69
554.275	47443.76
554.475	47185.71
554.674	47576.87
554.874	47324.97
555.074	47259.44
555.273	47527.72
555.473	47724.33
555.672	47533.87
555.872	47474.48
556.071	47251.25
556.271	47464.24
556.47	47091.51
556.67	47089.46
556.869	47062.83
557.068	47507.24
557.268	46980.92
557.467	47171.38
557.667	47230.77
557.866	46997.3
558.065	46939.96
558.265	46563.13
558.464	47050.55
558.663	46923.57
558.863	46079.81
559.062	47140.66
559.261	46610.23
559.461	47431.47
559.66	46688.06
559.859	46870.32
560.058	46235.45
560.258	46378.81
560.457	46157.63
560.656	46387
560.855	46341.95
561.054	46565.18
561.253	45977.41
561.453	46106.43
561.652	46602.04
561.851	46616.38
562.05	46010.18
562.249	46300.99
562.448	46096.19
562.647	46243.65
562.846	45969.22
563.045	46231.36
563.244	45594.44
563.443	46712.63
563.642	45313.87
563.841	45555.53
564.04	45821.76
564.239	46126.91
564.438	45455.18
564.637	45612.87
564.836	45485.9
565.035	44922.71
565.234	45195.09
565.432	45535.05
565.631	44965.71
565.83	45068.11
566.029	45072.21
566.228	45002.58
566.427	44887.89
566.625	44707.67
566.824	44095.33
567.023	44908.37
567.222	43968.35
567.42	44834.64
567.619	44734.29
567.818	44470.11
568.016	44523.35
568.215	44732.25
568.414	44216.16
568.612	44543.83
568.811	43904.87
569.01	44167.01
569.208	44101.47
569.407	44398.43
569.605	43892.58
569.804	44007.26
570.002	43206.51
570.201	43863.91
570.4	43548.52
570.598	43427.69
570.797	43581.29
570.995	43446.12
571.193	43061.1
571.392	43431.79
571.59	42786.68
571.789	43122.54
571.987	43175.79
572.186	42827.63
572.384	42909.55
572.582	43100.01
572.781	42878.83
572.979	42383.23
573.177	42471.29
573.376	42540.92
573.574	42295.16
573.772	42729.33
573.971	41940.86
574.169	41920.38
574.367	42069.89
574.565	41822.08
574.763	41668.48
574.962	41830.27
575.16	41437.06
575.358	41967.49
575.556	41408.39
575.754	41369.48
575.952	41150.35
576.151	41330.57
576.349	41465.74
576.547	41609.09
576.745	41465.74
576.943	41269.13
577.141	41230.22
577.339	40906.64
577.537	41105.29
577.735	40601.49
577.933	40081.31
578.131	40886.16
578.329	40419.22
578.527	40488.85
578.725	40327.06
578.923	40331.16
579.121	40374.17
579.319	40081.31
579.516	39921.57
579.714	39858.08
579.912	39772.07
580.11	39620.52
580.308	39767.97
580.506	39573.41
580.704	39047.08
580.901	39946.14
581.099	40009.63
581.297	39411.62
581.495	38997.93
581.692	39641
581.89	39311.27
582.088	39376.81
582.285	38899.63
582.483	38967.21
582.681	39147.43
582.878	38420.41
583.076	38604.72
583.274	38633.39
583.471	38455.22
583.669	38766.51
583.866	38010.81
584.064	38440.89
584.262	37904.32
584.459	37883.84
584.657	37932.99
584.854	37799.87
585.052	37165
585.249	37961.66
585.447	37746.62
585.644	37529.54
585.841	37273.54
586.039	37539.78
586.236	37042.12
586.434	37015.5
586.631	36849.61
586.828	37033.93
587.026	37093.32
587.223	37107.66
587.42	36866
587.618	36745.17
587.815	36319.19
588.012	36499.41
588.21	36478.93
588.407	36845.52
588.604	36171.74
588.801	36009.95
588.999	36274.13
589.196	35932.12
589.393	35663.84
589.59	36026.33
589.787	35766.24
589.984	35702.75
590.182	35250.15
590.379	35885.02
590.576	35512.29
590.773	35504.1
590.97	35049.45
591.167	35078.12
591.364	34867.18
591.561	35155.94
591.758	34445.3
591.955	34744.3
592.152	34770.93
592.349	34760.69
592.546	34072.57
592.743	34396.15
592.94	33835
593.137	34156.53
593.334	34103.29
593.531	33452.03
593.727	33978.36
593.924	33601.54
594.121	33847.29
594.318	34099.19
594.515	33159.17
594.712	33509.38
594.908	33185.8
595.105	33613.82
595.302	32907.27
595.499	33173.51
595.696	33101.83
595.892	32798.73
596.089	32858.12
596.286	32841.74
596.482	32696.33
596.679	32788.49
596.876	32749.58
597.072	32477.2
597.269	32397.33
597.466	32004.12
597.662	32096.28
597.859	32053.27
598.055	32286.74
598.252	31686.68
598.448	31621.15
598.645	31416.35
598.841	31195.17
599.038	31834.14
599.234	31518.75
599.431	30892.07
599.627	31180.84
599.824	31619.1
600.02	31060.01
600.217	31039.53
600.413	31014.95
600.609	30568.49
600.806	30797.87
601.002	30822.44
601.198	30713.9
601.395	30615.6
601.591	30083.12
601.787	30234.67
601.984	30154.8
602.18	30484.53
602.376	29993.01
602.572	29855.8
602.769	29892.66
602.965	29636.67
603.161	29788.22
603.357	29769.79
603.553	29399.1
603.75	29663.29
603.946	29366.34
604.142	29456.45
604.338	29026.37
604.534	29511.74
604.73	28715.08
604.926	29012.04
605.122	29083.72
605.318	28594.25
605.514	28776.52
605.71	28815.43
605.906	28649.55
606.102	28725.32
606.298	28696.65
606.494	28682.31
606.69	28287.06
606.886	28760.14
607.082	28190.8
607.278	28477.52
607.474	27766.87
607.67	28090.45
607.866	27940.95
608.062	28047.44
608.257	27652.19
608.453	27893.85
608.649	27699.29
608.845	27721.82
609.041	27682.91
609.236	27805.78
609.432	27514.97
609.628	27437.15
609.824	27525.21
610.019	27342.94
610.215	27433.05
610.411	27353.18
610.606	27121.76
610.802	27306.08
610.998	26886.25
611.193	27529.31
611.389	27052.13
611.584	27101.28
611.78	26806.37
611.976	26929.25
612.171	26775.66
612.367	26650.73
612.562	27088.99
612.758	26517.61
612.953	26316.91
613.149	26855.53
613.344	26458.22
613.539	26933.35
613.735	26357.87
613.93	26677.35
614.126	26271.86
614.321	26140.79
614.517	26259.57
614.712	26583.15
614.907	26507.37
615.103	26384.49
615.298	26239.09
615.493	26517.61
615.688	25755.77
615.884	26712.17
616.079	25616.51
616.274	26105.97
616.47	26173.55
616.665	26095.73
616.86	25974.9
617.055	25555.07
617.25	25444.48
617.445	26153.07
617.641	25243.77
617.836	25675.9
618.031	25692.28
618.226	25532.54
618.421	25380.99
618.616	25546.87
618.811	25340.03
619.006	25352.32
619.201	24959.11
619.396	25047.17
619.591	24645.77
619.786	24764.55
619.981	24438.92
620.176	24541.32
620.371	24770.69
620.566	24526.99
620.761	24117.39
620.956	24567.95
621.151	24203.41
621.346	24240.27
621.541	23677.08
621.735	24096.91
621.93	23568.54
622.125	23767.19
622.32	23609.5
622.515	23468.19
622.709	23226.53
622.904	23191.71
623.099	22931.62
623.294	23003.3
623.488	22649
623.683	22759.59
623.878	22550.7
624.072	22661.29
624.267	22685.86
624.462	22311.08
624.656	21977.26
624.851	22040.75
625.046	21985.46
625.24	21661.88
625.435	21823.67
625.629	21526.71
625.824	21407.93
626.018	21334.2
626.213	21041.34
626.407	21201.08
626.602	20910.27
626.796	20863.17
626.991	21014.72
627.185	20938.94
627.38	20592.84
627.574	20515.01
627.768	20328.65
627.963	20373.71
628.157	19933.39
628.352	20101.33
628.546	19742.93
628.74	19927.25
628.935	19710.16
629.129	19726.55
629.323	19654.87
629.517	19308.76
629.712	19321.05
629.906	19351.77
630.1	19275.99
630.294	19011.81
630.489	18979.04
630.683	19052.77
630.877	18620.64
631.071	18632.93
631.265	18788.58
631.459	18350.31
631.653	18290.92
631.848	18168.04
632.042	18061.55
632.236	18172.14
632.43	17758.45
632.624	18002.16
632.818	17778.93
633.012	17281.27
633.206	17633.52
633.4	17705.2
633.594	17447.16
633.788	17393.91
633.982	17647.86
634.176	17180.92
634.369	17012.99
634.563	17115.39
634.757	16640.26
634.951	17068.28
635.145	16675.07
635.339	16863.49
635.533	16535.81
635.726	16472.32
635.92	16435.46
636.114	16376.07
636.308	16130.31
636.501	16341.25
636.695	16277.77
636.889	16093.45
637.083	15833.36
637.276	16005.39
637.47	15956.24
637.664	15644.95
637.857	15526.16
638.051	15593.75
638.244	15530.26
638.438	15448.34
638.632	15298.84
638.825	15178.01
639.019	15149.34
639.212	15010.07
639.406	15309.08
639.599	15159.58
639.793	15091.99
639.986	14655.78
640.18	14893.34
640.373	14770.46
640.567	14516.51
640.76	14713.12
640.954	14448.93
641.147	14326.05
641.34	14096.68
641.534	14219.56
641.727	14070.06
641.92	13867.31
642.114	13977.9
642.307	14217.51
642.5	13785.39
642.694	13623.6
642.887	13738.29
643.08	13875.5
643.273	13496.63
643.467	13791.53
643.66	13406.52
643.853	13383.99
644.046	13111.61
644.239	13285.69
644.432	13162.81
644.626	13193.53
644.819	13203.77
645.012	13039.93
645.205	13148.47
645.398	13156.66
645.591	12595.52
645.784	12747.07
645.977	12603.71
646.17	12919.1
646.363	12466.5
646.556	12319.04
646.749	12554.56
646.942	12329.28
647.135	12435.78
647.328	12456.26
647.521	12157.25
647.714	12276.04
647.907	12106.06
648.099	11999.56
648.292	12280.13
648.485	11725.13
648.678	11667.79
648.871	11794.76
649.064	11753.8
649.256	11657.55
649.449	11540.82
649.642	11395.41
649.835	11419.99
650.027	11106.65
650.22	11145.56
650.413	11135.32
650.605	11362.64
650.798	11323.73
650.991	11000.15
651.183	11047.26
651.376	10852.7
651.568	10897.75
651.761	11196.76
651.954	11059.54
652.146	10842.46
652.339	10852.7
652.531	10541.41
652.724	10576.22
652.916	10385.76
653.109	10606.94
653.301	10463.58
653.494	10660.19
653.686	10352.99
653.879	10344.8
654.071	10248.55
654.263	10049.89
654.456	10045.8
654.648	10242.4
654.84	9998.7
655.033	9808.23
655.225	9986.41
655.417	9914.73
655.61	9843.05
655.802	9783.66
655.994	9734.51
656.186	9771.37
656.379	9652.59
656.571	9648.49
656.763	9488.75
656.955	9443.7
657.148	9517.42
657.34	9453.94
657.532	9372.02
657.724	9247.09
657.916	9179.51
658.108	9267.57
658.3	9154.93
658.492	9265.52
658.684	9036.15
658.876	9042.29
659.068	9073.01
659.26	8943.99
659.452	8841.59
659.644	8880.5
659.836	8747.39
660.028	8720.76
660.22	8657.28
660.412	8550.78
660.604	8599.93
660.796	8612.22
660.988	8599.93
661.18	8563.07
661.372	8360.32
661.563	8569.21
661.755	8454.53
661.947	8395.14
662.139	8157.57
662.331	8190.34
662.522	8266.11
662.714	8196.48
662.906	8071.56
663.097	8323.46
663.289	8022.41
663.481	8020.36
663.673	7846.28
663.864	7883.14
664.056	7770.51
664.247	7805.32
664.439	7670.15
664.631	7715.21
664.822	7819.66
665.014	7760.27
665.205	7555.47
665.397	7711.11
665.588	7563.66
665.78	7559.56
665.971	7520.65
666.163	7539.08
666.354	7303.57
666.546	7299.47
666.737	7195.03
666.929	7258.51
667.12	7221.65
667.311	7266.71
667.503	7164.31
667.694	7129.49
667.885	7256.47
668.077	7164.31
668.268	7057.81
668.459	7176.59
668.651	6945.17
668.842	6924.69
669.033	6910.36
669.224	6838.68
669.416	6988.18
669.607	6834.58
669.798	6795.67
669.989	6769.05
670.18	6781.34
670.371	6781.34
670.563	6818.2
670.754	6744.47
670.945	6568.35
671.136	6711.71
671.327	6599.07
671.518	6590.88
671.709	6455.71
671.9	6498.72
672.091	6564.25
672.282	6451.61
672.473	6357.41
672.664	6470.05
672.855	6332.83
673.046	6357.41
673.237	6320.54
673.428	6304.16
673.619	6117.79
673.809	6199.71
674	6199.71
674.191	6248.86
674.382	6199.71
674.573	6123.94
674.764	6013.35
674.954	6037.92
675.145	6027.68
675.336	5992.87
675.527	5892.52
675.717	5966.24
675.908	5872.04
676.099	5841.32
676.289	5839.27
676.48	5796.26
676.671	5704.1
676.861	5953.96
677.052	5812.65
677.243	5683.63
677.433	5855.65
677.624	5800.36
677.814	5581.23
678.005	5730.73
678.195	5706.15
678.386	5650.86
678.576	5566.89
678.767	5536.17
678.957	5622.19
679.148	5581.23
679.338	5558.7
679.529	5505.45
679.719	5358
679.909	5550.51
680.1	5470.64
680.29	5353.9
680.481	5456.3
680.671	5476.78
680.861	5409.2
681.052	5353.9
681.242	5335.47
681.432	5312.94
681.622	5312.94
681.813	5276.08
682.003	5310.89
682.193	5138.87
682.383	5274.03
682.573	5171.63
682.764	5087.67
682.954	5188.02
683.144	5167.54
683.334	5159.35
683.524	5134.77
683.714	5126.58
683.904	5200.3
684.094	5099.95
684.284	5298.61
684.474	5220.78
684.664	5052.85
684.854	4997.56
685.044	4909.49
685.234	4827.57
685.424	4954.55
685.614	4854.2
685.804	5054.9
685.994	4901.3
686.184	4999.6
686.374	4872.63
686.564	4899.25
686.753	4768.18
686.943	4688.31
687.133	4630.97
687.323	4663.74
687.513	4829.62
687.702	4610.49
687.892	4606.39
688.082	4671.93
688.272	4805.05
688.461	4567.48
688.651	4669.88
688.841	4477.37
689.03	4442.56
689.22	4551.1
689.41	4379.07
689.599	4477.37
689.789	4483.52
689.979	4364.73
690.168	4362.69
690.358	4260.29
690.547	4377.02
690.737	4403.64
690.926	4256.19
691.116	4291.01
691.305	4235.71
691.495	4297.15
691.684	4301.25
691.874	4235.71
692.063	4256.19
692.252	4161.98
692.442	4098.5
692.631	4065.73
692.82	4151.74
693.01	4028.87
693.199	4078.02
693.388	4172.22
693.578	4114.88
693.767	3940.8
693.956	4043.2
694.146	3932.61
694.335	3973.57
694.524	3842.5
694.713	3998.15
694.902	3989.96
695.092	3805.64
695.281	3908.04
695.47	3793.35
695.659	3840.45
695.848	3967.43
696.037	3795.4
696.226	3824.07
696.415	3826.12
696.604	3850.69
696.793	3715.53
696.982	3721.67
697.171	3817.93
697.36	3793.35
697.549	3627.46
697.738	3598.79
697.927	3639.75
698.116	3807.69
698.305	3736.01
698.494	3723.72
698.683	3787.21
698.872	3504.59
699.061	3606.98
699.25	3531.21
699.438	3535.31
699.627	3561.93
699.816	3566.03
700.005	3461.58
700.193	3516.87
700.382	3584.46
700.571	3613.13
700.76	3455.44
700.948	3543.5
701.137	3498.44
701.326	3432.91
701.514	3480.01
701.703	3469.77
701.892	3484.11
702.08	3385.8
702.269	3394
702.457	3445.2
702.646	3559.88
702.834	3377.61
703.023	3338.7
703.212	3396.04
703.4	3342.8
703.589	3215.82
703.777	3523.02
703.965	3203.54
704.154	3520.97
704.342	3301.84
704.531	3551.69
704.719	3330.51
704.907	3330.51
705.096	3264.97
705.284	3404.24
705.472	3221.97
705.661	3283.41
705.849	3226.06
706.037	3262.93
706.226	3361.23
706.414	3441.1
706.602	3174.86
706.79	3197.39
706.979	3307.98
707.167	3365.32
707.355	3236.3
707.543	3344.84
707.731	3185.1
707.919	3166.67
708.107	3252.69
708.296	3295.69
708.484	3174.86
708.672	3203.54
708.86	3232.21
709.048	3273.17
709.236	3133.9
709.424	3205.58
709.612	3113.42
709.8	3348.94
709.988	3228.11
710.176	3129.81
710.364	3166.67
710.551	3252.69
710.739	2998.74
710.927	3328.46
711.115	3135.95
711.303	3252.69
711.491	3103.18
711.679	3170.77
711.866	3060.18
712.054	3164.62
712.242	3092.94
712.43	3189.2
712.617	3142.1
712.805	3103.18
712.993	3084.75
713.181	3148.24
713.368	3181.01
713.556	3076.56
713.744	3148.24
713.931	3135.95
714.119	3004.88
714.306	3025.36
714.494	2998.74
714.682	3015.12
714.869	3062.23
715.057	3060.18
715.244	3097.04
715.432	3082.7
715.619	3113.42
715.807	2998.74
715.994	3111.38
716.182	3025.36
716.369	3062.23
716.556	3082.7
716.744	3113.42
716.931	2912.72
717.119	3049.94
717.306	3006.93
717.493	3013.07
717.681	3047.89
717.868	3051.99
718.055	3082.7
718.242	3006.93
718.43	3021.27
718.617	2873.81
718.804	2963.92
718.991	3015.12
719.179	2945.49
719.366	2984.4
719.553	2947.54
719.74	3025.36
719.927	2945.49
720.114	2953.68
720.301	3029.46
720.488	2970.07
720.676	2933.2
720.863	3072.47
721.05	2914.77
721.237	2978.26
721.424	2943.44
721.611	2970.07
721.798	2886.1
721.985	3033.55
722.172	2830.8
722.358	2945.49
722.545	2939.35
722.732	2896.34
722.919	2972.11
723.106	2957.78
723.293	2888.15
723.48	2959.83
723.667	2849.24
723.853	2918.87
724.04	3013.07
724.227	3000.79
724.414	2970.07
724.6	2851.28
724.787	2867.67
724.974	2865.62
725.161	2931.16
725.347	2828.76
725.534	2951.63
725.72	3066.32
725.907	2802.13
726.094	2843.09
726.28	2916.82
726.467	2873.81
726.653	2828.76
726.84	2822.61
727.027	3015.12
727.213	2906.58
727.4	2900.44
727.586	2939.35
727.773	2951.63
727.959	2843.09
728.145	2959.83
728.332	2914.77
728.518	2974.16
728.705	2894.29
728.891	2882
729.077	2892.24
729.264	2759.13
729.45	2922.96
729.636	2888.15
729.823	2845.14
730.009	2922.96
730.195	2873.81
730.382	2826.71
730.568	2793.94
730.754	2806.23
730.94	2857.43
731.126	2865.62
731.313	2783.7
731.499	2861.52
731.685	2752.98
731.871	2834.9
732.057	2898.39
732.243	2871.76
732.429	2886.1
732.615	2863.57
732.801	2705.88
732.987	2748.89
733.173	2787.8
733.359	2918.87
733.545	2767.32
733.731	2752.98
733.917	2951.63
734.103	2875.86
734.289	2851.28
734.475	2734.55
734.661	2871.76
734.847	2787.8
735.033	2791.89
735.219	2765.27
735.404	2814.42
735.59	2839
735.776	2808.28
735.962	2691.54
736.148	2806.23
736.333	2769.37
736.519	2658.78
736.705	2666.97
736.89	2742.74
737.076	2859.48
737.262	2732.5
737.447	2623.96
737.633	2740.69
737.819	2681.3
738.004	2623.96
738.19	2757.08
738.375	2816.47
738.561	2812.37
738.747	2726.36
738.932	2537.95
739.118	2746.84
739.303	2662.87
739.489	2777.56
739.674	2816.47
739.859	2666.97
740.045	2773.46
740.23	2609.62
740.416	2611.67
740.601	2755.03
740.786	2615.77
740.972	2636.25
741.157	2587.1
741.342	2529.75
741.528	2593.24
741.713	2513.37
741.898	2662.87
742.084	2595.29
742.269	2537.95
742.454	2464.22
742.639	2597.34
742.824	2390.49
743.01	2576.86
743.195	2517.47
743.38	2537.95
743.565	2470.36
743.75	2601.43
743.935	2519.51
744.12	2417.12
744.305	2367.96
744.49	2460.12
744.675	2460.12
744.86	2425.31
745.045	2521.56
745.23	2408.92
745.415	2324.96
745.6	2525.66
745.785	2292.19
745.97	2298.33
746.155	2367.96
746.34	2263.52
746.525	2290.14
746.71	2359.77
746.895	2234.85
747.079	2161.12
747.264	2216.41
747.449	2193.89
747.634	2249.18
747.819	2159.07
748.003	2208.22
748.188	2210.27
748.373	2240.99
748.557	2212.32
748.742	2140.64
748.927	2126.3
749.111	2206.17
749.296	2079.2
749.481	2150.88
749.665	2206.17
749.85	2066.91
750.034	2079.2
750.219	2148.83
750.404	2060.77
750.588	1995.23
750.773	1989.09
750.957	2083.3
751.141	1962.47
751.326	2036.19
751.51	2023.91
751.695	1956.32
751.879	1956.32
752.064	1931.75
752.248	1913.31
752.432	1982.95
752.617	1776.1
752.801	1925.6
752.985	1958.37
753.17	1921.51
753.354	1839.59
753.538	1849.83
753.722	1855.97
753.907	1710.57
754.091	1874.4
754.275	1872.36
754.459	1802.72
754.643	1769.96
754.828	1645.03
755.012	1702.37
755.196	1753.57
755.38	1722.85
755.564	1729
755.748	1743.33
755.932	1812.96
756.116	1645.03
756.3	1704.42
756.484	1743.33
756.668	1589.74
756.852	1653.22
757.036	1653.22
757.22	1563.11
757.404	1647.08
757.588	1509.86
757.772	1657.32
757.956	1513.96
758.14	1585.64
758.323	1389.03
758.507	1587.69
758.691	1571.3
758.875	1552.87
759.059	1546.73
759.242	1446.38
759.426	1354.22
759.61	1399.27
759.794	1477.1
759.977	1505.77
760.161	1507.82
760.345	1442.28
760.528	1577.45
760.712	1460.71
760.895	1380.84
761.079	1419.75
761.263	1407.47
761.446	1391.08
761.63	1276.4
761.813	1307.12
761.997	1358.32
762.18	1292.78
762.364	1399.27
762.547	1315.31
762.731	1290.73
762.914	1294.83
763.098	1296.88
763.281	1278.44
763.464	1217.01
763.648	1372.65
763.831	1206.77
764.015	1249.77
764.198	1366.51
764.381	1329.64
764.564	1389.03
764.748	1268.2
764.931	1266.16
765.114	1260.01
765.297	1315.31
765.481	1145.33
765.664	1272.3
765.847	1135.09
766.03	1239.53
766.213	1161.71
766.397	1192.43
766.58	1294.83
766.763	1174
766.946	1161.71
767.129	1294.83
767.312	1202.67
767.495	1153.52
767.678	1079.79
767.861	1139.18
768.044	1159.66
768.227	1120.75
768.41	1200.62
768.593	1104.37
768.776	1120.75
768.959	1044.98
769.142	1124.85
769.324	1145.33
769.507	1145.33
769.69	1085.94
769.873	1133.04
770.056	1163.76
770.239	1157.61
770.421	1036.78
770.604	1122.8
770.787	989.68
770.97	1038.83
771.152	1065.46
771.335	991.73
771.518	1018.35
771.7	997.87
771.883	942.58
772.066	1004.02
772.248	1055.22
772.431	1051.12
772.613	991.73
772.796	946.67
772.978	1012.21
773.161	1071.6
773.343	983.54
773.526	973.3
773.708	963.06
773.891	932.34
774.073	1006.06
774.256	932.34
774.438	1038.83
774.621	952.82
774.803	948.72
774.985	981.49
775.168	942.58
775.35	852.47
775.532	909.81
775.715	819.7
775.897	885.23
776.079	850.42
776.261	952.82
776.444	924.15
776.626	860.66
776.808	901.62
776.99	870.9
777.173	911.86
777.355	918
777.537	811.51
777.719	803.32
777.901	778.74
778.083	893.43
778.265	774.64
778.447	836.08
778.629	772.6
778.811	811.51
778.993	811.51
779.175	891.38
779.357	770.55
779.539	692.73
779.721	735.73
779.903	737.78
780.085	791.03
780.267	772.6
780.449	743.92
780.631	719.35
780.812	782.84
780.994	737.78
781.176	719.35
781.358	743.92
781.54	725.49
781.721	760.31
781.903	678.39
782.085	700.92
782.267	700.92
782.448	705.01
782.63	637.43
782.812	614.9
782.993	629.24
783.175	662.01
783.357	553.46
783.538	582.14
783.72	565.75
783.901	606.71
784.083	629.24
784.264	641.53
784.446	610.81
784.627	547.32
784.809	586.23
784.99	598.52
785.172	594.42
785.353	606.71
785.535	666.1
785.716	524.79
785.897	575.99
786.079	604.66
786.26	547.32
786.441	563.7
786.623	575.99
786.804	487.93
786.985	526.84
787.167	438.78
787.348	539.13
787.529	547.32
787.71	520.7
787.891	545.27
788.073	465.4
788.254	512.5
788.435	553.46
788.616	489.98
788.797	430.59
788.978	553.46
789.159	444.92
789.34	438.78
789.522	434.68
789.703	465.4
789.884	494.07
790.065	420.35
790.246	557.56
790.427	453.11
790.607	508.41
790.788	446.97
790.969	426.49
791.15	442.87
791.331	418.3
791.512	434.68
791.693	365.05
791.874	432.63
792.054	465.4
792.235	440.83
792.416	416.25
792.597	432.63
792.778	477.69
792.958	463.35
793.139	408.06
793.32	453.11
793.5	395.77
793.681	426.49
793.862	430.59
794.042	389.63
794.223	397.82
794.404	317.95
794.584	408.06
794.765	348.67
794.945	426.49
795.126	391.67
795.306	391.67
795.487	350.71
795.667	356.86
795.848	436.73
796.028	463.35
796.209	360.95
796.389	416.25
796.57	344.57
796.75	385.53
796.93	414.2
797.111	342.52
797.291	309.76
797.471	387.58
797.652	360.95
797.832	311.8
798.012	287.23
798.192	309.76
798.373	301.56
798.553	309.76
798.733	313.85
798.913	252.41
799.093	295.42
799.274	291.32
799.454	397.82
799.634	336.38
799.814	346.62
799.994	268.8
800.174	320
800.354	332.28
800.534	352.76
800.714	299.52
800.894	356.86
801.074	211.45
801.254	268.8
801.434	332.28
801.614	281.08
801.794	274.94
801.974	760.31
802.154	299.52
802.334	320
802.514	270.84
802.693	303.61
802.873	231.93
803.053	367.1
803.233	283.13
803.413	279.04
803.592	305.66
803.772	348.67
803.952	250.36
804.131	233.98
804.311	389.63
804.491	365.05
804.67	244.22
804.85	233.98
805.03	297.47
805.209	268.8
805.389	219.64
805.568	250.36
805.748	240.12
805.928	281.08
806.107	250.36
806.287	291.32
806.466	246.27
806.646	180.73
806.825	242.17
807.004	283.13
807.184	279.04
807.363	299.52
807.543	203.26
807.722	262.65
807.901	332.28
808.081	227.84
808.26	207.36
808.439	283.13
808.619	217.6
808.798	233.98
808.977	307.71
809.156	291.32
809.336	295.42
809.515	236.03
809.694	172.54
809.873	227.84
810.052	238.08
810.231	281.08
810.411	270.84
810.59	258.56
810.769	209.4
810.948	262.65
811.127	201.21
811.306	154.11
811.485	264.7
811.664	248.32
811.843	260.6
812.022	223.74
812.201	264.7
812.38	268.8
812.559	193.02
812.737	195.07
812.916	174.59
813.095	193.02
813.274	166.4
813.453	174.59
813.632	207.36
813.811	231.93
813.989	186.88
814.168	133.63
814.347	127.49
814.526	203.26
814.704	213.5
814.883	274.94
815.062	147.97
815.24	252.41
815.419	158.21
815.598	229.88
815.776	147.97
815.955	221.69
816.133	104.96
816.312	219.64
816.49	201.21
816.669	125.44
816.847	96.77
817.026	170.49
817.204	246.27
817.383	125.44
817.561	104.96
817.74	193.02
817.918	188.93
818.097	195.07
818.275	188.93
818.453	276.99
818.632	203.26
818.81	164.35
818.988	160.25
819.167	147.97
819.345	168.45
819.523	141.82
819.701	184.83
819.879	205.31
820.058	180.73
820.236	139.77
820.414	121.34
820.592	111.1
820.77	182.78
820.948	154.11
821.127	133.63
821.305	193.02
821.483	107.01
821.661	74.24
821.839	119.29
822.017	125.44
822.195	107.01
822.373	188.93
822.551	158.21
822.729	107.01
822.907	133.63
823.085	152.06
823.262	176.64
823.44	55.81
823.618	164.35
823.796	145.92
823.974	84.48
824.152	78.33
824.329	115.2
824.507	152.06
824.685	123.39
824.863	66.05
825.04	127.49
825.218	96.77
825.396	109.05
825.574	104.96
825.751	143.87
825.929	201.21
826.107	113.15
826.284	94.72
826.462	98.81
826.639	117.25
826.817	127.49
826.994	166.4
827.172	121.34
827.349	113.15
827.527	78.33
827.704	139.77
827.882	143.87
828.059	78.33
828.237	150.01
828.414	96.77
828.591	74.24
828.769	162.3
828.946	127.49
829.124	145.92
829.301	164.35
829.478	111.1
829.655	61.95
829.833	115.2
830.01	70.14
830.187	164.35
830.364	72.19
830.542	150.01
830.719	139.77
830.896	78.33
831.073	201.21
831.25	49.66
831.427	166.4
831.604	92.67
831.782	72.19
831.959	143.87
832.136	211.45
832.313	121.34
832.49	72.19
832.667	125.44
832.844	176.64
833.021	154.11
833.198	168.45
833.374	154.11
833.551	98.81
833.728	117.25
833.905	84.48
834.082	76.29
834.259	96.77
834.436	92.67
834.612	35.33
834.789	113.15
834.966	68.09
835.143	158.21
835.319	113.15
835.496	94.72
835.673	188.93
835.85	102.91
836.026	125.44
836.203	152.06
836.38	86.53
836.556	68.09
836.733	119.29
836.909	104.96
837.086	43.52
837.262	35.33
837.439	55.81
837.616	29.18
837.792	61.95
837.968	23.04
838.145	115.2
838.321	72.19
838.498	25.09
838.674	119.29
838.851	109.05
839.027	113.15
839.203	84.48
839.38	141.82
839.556	33.28
839.732	107.01
839.909	37.38
840.085	18.94
840.261	45.57
840.437	193.02
840.614	80.38
840.79	141.82
840.966	137.73
841.142	125.44
841.318	6.66
841.494	123.39
841.671	90.62
841.847	121.34
842.023	59.9
842.199	92.67
842.375	92.67
842.551	100.86
842.727	115.2
842.903	96.77
843.079	35.33
843.255	100.86
843.431	100.86
843.607	94.72
843.783	31.23
843.959	100.86
844.134	96.77
844.31	135.68
844.486	68.09
844.662	78.33
844.838	61.95
845.013	96.77
845.189	55.81
845.365	96.77
845.541	78.33
845.716	25.09
845.892	119.29
846.068	125.44
846.244	53.76
846.419	119.29
846.595	33.28
846.77	10.75
846.946	47.62
847.122	16.9
847.297	53.76
847.473	37.38
847.648	64
847.824	137.73
847.999	12.8
848.175	37.38
848.35	53.76
848.526	10.75
848.701	98.81
848.876	35.33
849.052	90.62
849.227	133.63
849.403	47.62
849.578	96.77
849.753	127.49
849.929	121.34
850.104	51.71
850.279	-1.54
850.454	86.53
850.63	55.81
850.805	64
850.98	66.05
851.155	72.19
851.33	35.33
851.505	25.09
851.681	104.96
851.856	16.9
852.031	90.62
852.206	66.05
852.381	55.81
852.556	82.43
852.731	66.05
852.906	64
853.081	61.95
853.256	51.71
853.431	147.97
853.606	53.76
853.781	25.09
853.956	-13.82
854.131	64
854.305	12.8
854.48	23.04
854.655	115.2
854.83	49.66
855.005	-32.26
855.18	-15.87
855.354	70.14
855.529	12.8
855.704	82.43
855.879	78.33
856.053	80.38
856.228	80.38
856.403	-1.54
856.577	61.95
856.752	49.66
856.926	-1.54
857.101	-24.06
857.276	41.47
857.45	55.81
857.625	68.09
857.799	16.9
857.974	10.75
858.148	70.14
858.323	96.77
858.497	-28.16
858.672	-26.11
858.846	4.61
859.02	35.33
859.195	25.09
859.369	6.66
859.543	2.56
859.718	10.75
859.892	45.57
860.066	78.33
860.241	76.29
860.415	29.18
860.589	86.53
860.763	29.18
860.938	88.57
861.112	49.66
861.286	-1.54
861.46	-3.58
861.634	-22.02
861.808	125.44
861.982	80.38
862.157	37.38
862.331	-19.97
862.505	37.38
862.679	-5.63
862.853	39.42
863.027	43.52
863.201	86.53
863.375	80.38
863.549	8.7
863.722	14.85
863.896	68.09
864.07	-15.87
864.244	29.18
864.418	20.99
864.592	45.57
864.766	88.57
864.939	76.29
865.113	-11.78
865.287	2.56
865.461	61.95
865.634	-7.68
865.808	51.71
865.982	0.51
866.156	8.7
866.329	53.76
866.503	102.91
866.676	-22.02
866.85	35.33
867.024	45.57
867.197	-46.59
867.371	16.9
867.544	12.8
867.718	43.52
867.891	23.04
868.065	27.14
868.238	78.33
868.412	66.05
868.585	90.62
868.759	18.94
868.932	4.61
869.105	33.28
869.279	37.38
869.452	-15.87
869.625	29.18
869.799	25.09
869.972	94.72
870.145	-32.26
870.319	37.38
870.492	14.85
870.665	-26.11
870.838	61.95
871.011	-26.11
871.185	31.23
871.358	-38.4
871.531	18.94
871.704	18.94
871.877	47.62
872.05	14.85
872.223	37.38
872.396	37.38
872.569	111.1
872.742	8.7
872.915	37.38
873.088	14.85
873.261	35.33
873.434	20.99
873.607	25.09
873.78	41.47
873.953	-5.63
874.126	37.38
874.299	-7.68
874.471	51.71
874.644	-7.68
874.817	53.76
874.99	37.38
875.163	23.04
875.335	4.61
875.508	47.62
875.681	53.76
875.853	-28.16
876.026	66.05
876.199	64
876.371	-1.54
876.544	92.67
876.717	51.71
876.889	41.47
877.062	45.57
877.234	-54.78
877.407	31.23
877.579	6.66
877.752	86.53
877.924	18.94
878.097	80.38
878.269	68.09
878.442	-13.82
878.614	10.75
878.786	35.33
878.959	29.18
879.131	-9.73
879.303	-32.26
879.476	-9.73
879.648	96.77
879.82	18.94
879.993	-15.87
880.165	18.94
880.337	33.28
880.509	41.47
880.681	23.04
880.854	37.38
881.026	8.7
881.198	152.06
881.37	16.9
881.542	-1.54
881.714	-17.92
881.886	4.61
882.058	10.75
882.23	23.04
882.402	12.8
882.574	6.66
882.746	25.09
882.918	20.99
883.09	-5.63
883.262	68.09
883.434	-40.45
883.606	-3.58
883.778	10.75
883.95	109.05
884.122	31.23
884.293	4.61
884.465	20.99
884.637	59.9
884.809	-19.97
884.98	27.14
885.152	4.61
885.324	10.75
885.496	12.8
885.667	20.99
885.839	37.38
886.011	35.33
886.182	33.28
886.354	80.38
886.525	-3.58
886.697	68.09
886.869	8.7
887.04	51.71
887.212	53.76
887.383	82.43
887.555	-52.74
887.726	-11.78
887.897	8.7
888.069	-11.78
888.24	84.48
888.412	-3.58
888.583	39.42
888.754	64
888.926	10.75
889.097	0.51
889.268	-32.26
889.44	64
889.611	33.28
889.782	-11.78
889.953	-1.54
890.125	-38.4
890.296	-24.06
890.467	-11.78
890.638	45.57
890.809	12.8
890.98	92.67
891.151	-9.73
891.323	4.61
891.494	57.86
891.665	45.57
891.836	-17.92
892.007	49.66
892.178	-40.45
892.349	53.76
892.52	8.7
892.691	-56.83
892.862	8.7
893.032	2.56
893.203	27.14
893.374	47.62
893.545	37.38
893.716	-95.74
893.887	61.95
894.057	82.43
894.228	59.9
894.399	-58.88
894.57	45.57
894.74	39.42
894.911	2.56
895.082	-1.54
895.253	23.04
895.423	33.28
895.594	18.94
895.764	2.56
895.935	29.18
896.106	92.67
896.276	-7.68
896.447	-9.73
896.617	-30.21
896.788	4.61
896.958	-1.54
897.129	39.42
897.299	39.42
897.47	16.9
897.64	4.61
897.81	-1.54
897.981	20.99
898.151	-1.54
898.322	16.9
898.492	59.9
898.662	18.94
898.832	10.75
899.003	-5.63
899.173	64
899.343	25.09
899.513	-32.26
