Data from USB4F104151__20__12-27-06-396.txt Node

Date: Fri Mar 14 12:27:06 EDT 2025
User: louis
Spectrometer: USB4F10415
Trigger mode: 4
Integration Time (sec): 2.000000E-2
Scans to average: 1
Electric dark correction enabled: true
Nonlinearity correction enabled: false
Boxcar width: 0
XAxis mode: Wavelengths
Number of Pixels in Spectrum: 3648
>>>>>Begin Spectral Data<<<<<
178.204	-82.43
178.424	-82.43
178.644	-82.43
178.864	-16.9
179.084	-90.62
179.304	-6.66
179.524	15.87
179.744	-16.9
179.964	-25.09
180.184	-16.9
180.404	50.69
180.624	-33.28
180.844	11.78
181.064	-23.04
181.283	17.92
181.503	-23.04
181.723	48.64
181.943	30.21
182.163	-4.61
182.383	24.06
182.602	83.45
182.822	56.83
183.042	73.21
183.262	22.02
183.482	46.59
183.701	52.74
183.921	83.45
184.141	-25.09
184.361	19.97
184.58	24.06
184.8	52.74
185.02	-14.85
185.239	-6.66
185.459	108.03
185.679	-6.66
185.898	-45.57
186.118	-14.85
186.338	5.63
186.557	56.83
186.777	-12.8
186.997	30.21
187.216	-31.23
187.436	79.36
187.655	67.07
187.875	65.02
188.095	22.02
188.314	42.5
188.534	34.3
188.753	7.68
188.973	36.35
189.192	19.97
189.412	40.45
189.631	-27.14
189.851	-4.61
190.07	95.74
190.29	-33.28
190.509	44.54
190.729	-12.8
190.948	13.82
191.168	73.21
191.387	42.5
191.607	-39.42
191.826	3.58
192.045	19.97
192.265	77.31
192.484	32.26
192.704	95.74
192.923	-12.8
193.142	28.16
193.362	40.45
193.581	71.17
193.8	5.63
194.02	56.83
194.239	-12.8
194.458	-12.8
194.678	-29.18
194.897	-18.94
195.116	62.98
195.335	34.3
195.555	42.5
195.774	-39.42
195.993	-43.52
196.212	28.16
196.432	-12.8
196.651	-8.7
196.87	-4.61
197.089	48.64
197.308	-8.7
197.528	65.02
197.747	-4.61
197.966	-55.81
198.185	38.4
198.404	60.93
198.623	79.36
198.842	126.46
199.062	11.78
199.281	67.07
199.5	30.21
199.719	69.12
199.938	62.98
200.157	69.12
200.376	30.21
200.595	67.07
200.814	-39.42
201.033	-57.86
201.252	54.78
201.471	120.32
201.69	24.06
201.909	40.45
202.128	87.55
202.347	81.41
202.566	-18.94
202.785	-20.99
203.004	11.78
203.223	58.88
203.442	-18.94
203.661	7.68
203.879	-4.61
204.098	95.74
204.317	26.11
204.536	26.11
204.755	32.26
204.974	65.02
205.193	13.82
205.411	54.78
205.63	134.65
205.849	30.21
206.068	-25.09
206.287	-47.62
206.505	56.83
206.724	1.54
206.943	56.83
207.162	-27.14
207.381	56.83
207.599	9.73
207.818	-12.8
208.037	22.02
208.255	52.74
208.474	56.83
208.693	48.64
208.911	46.59
209.13	13.82
209.349	46.59
209.567	-12.8
209.786	1.54
210.005	-0.51
210.223	3.58
210.442	22.02
210.661	36.35
210.879	-18.94
211.098	3.58
211.316	-33.28
211.535	-41.47
211.753	48.64
211.972	1.54
212.191	60.93
212.409	24.06
212.628	83.45
212.846	-27.14
213.065	-37.38
213.283	56.83
213.502	-47.62
213.72	87.55
213.938	44.54
214.157	60.93
214.375	79.36
214.594	-37.38
214.812	-2.56
215.031	15.87
215.249	32.26
215.467	79.36
215.686	1.54
215.904	36.35
216.122	13.82
216.341	24.06
216.559	40.45
216.778	13.82
216.996	3.58
217.214	58.88
217.432	3.58
217.651	-33.28
217.869	99.84
218.087	34.3
218.306	118.27
218.524	32.26
218.742	-4.61
218.96	48.64
219.179	38.4
219.397	-2.56
219.615	32.26
219.833	67.07
220.051	-12.8
220.27	52.74
220.488	-23.04
220.706	-64
220.924	-6.66
221.142	-18.94
221.36	13.82
221.578	11.78
221.796	32.26
222.015	-41.47
222.233	79.36
222.451	93.69
222.669	13.82
222.887	3.58
223.105	5.63
223.323	62.98
223.541	-2.56
223.759	93.69
223.977	56.83
224.195	71.17
224.413	-6.66
224.631	-18.94
224.849	36.35
225.067	32.26
225.285	26.11
225.503	32.26
225.721	13.82
225.939	95.74
226.157	38.4
226.375	62.98
226.592	36.35
226.81	-25.09
227.028	60.93
227.246	32.26
227.464	77.31
227.682	95.74
227.9	42.5
228.117	116.22
228.335	-14.85
228.553	44.54
228.771	11.78
228.989	-35.33
229.206	28.16
229.424	83.45
229.642	-25.09
229.86	-6.66
230.077	58.88
230.295	58.88
230.513	54.78
230.731	-2.56
230.948	36.35
231.166	-27.14
231.384	15.87
231.601	5.63
231.819	15.87
232.037	-0.51
232.254	-25.09
232.472	58.88
232.689	52.74
232.907	62.98
233.125	24.06
233.342	101.89
233.56	30.21
233.777	75.26
233.995	9.73
234.213	9.73
234.43	5.63
234.648	83.45
234.865	13.82
235.083	28.16
235.3	79.36
235.518	67.07
235.735	48.64
235.953	134.65
236.17	17.92
236.388	134.65
236.605	17.92
236.822	36.35
237.04	17.92
237.257	73.21
237.475	30.21
237.692	32.26
237.909	26.11
238.127	38.4
238.344	-20.99
238.562	36.35
238.779	-43.52
238.996	-8.7
239.214	-14.85
239.431	89.6
239.648	-51.71
239.865	22.02
240.083	32.26
240.3	15.87
240.517	-31.23
240.735	3.58
240.952	50.69
241.169	44.54
241.386	75.26
241.603	36.35
241.821	52.74
242.038	32.26
242.255	-12.8
242.472	-45.57
242.689	48.64
242.907	22.02
243.124	-33.28
243.341	62.98
243.558	42.5
243.775	-10.75
243.992	50.69
244.209	83.45
244.426	26.11
244.643	75.26
244.86	56.83
245.078	54.78
245.295	34.3
245.512	54.78
245.729	26.11
245.946	56.83
246.163	30.21
246.38	44.54
246.597	58.88
246.814	30.21
247.031	36.35
247.248	60.93
247.464	101.89
247.681	83.45
247.898	56.83
248.115	46.59
248.332	40.45
248.549	13.82
248.766	97.79
248.983	85.5
249.2	-25.09
249.417	26.11
249.633	-8.7
249.85	-20.99
250.067	-39.42
250.284	67.07
250.501	60.93
250.717	17.92
250.934	40.45
251.151	42.5
251.368	-33.28
251.585	36.35
251.801	67.07
252.018	112.13
252.235	138.75
252.451	24.06
252.668	-27.14
252.885	-18.94
253.102	-10.75
253.318	32.26
253.535	-102.91
253.752	56.83
253.968	-59.9
254.185	44.54
254.401	54.78
254.618	44.54
254.835	-35.33
255.051	56.83
255.268	87.55
255.484	67.07
255.701	77.31
255.917	22.02
256.134	-72.19
256.351	60.93
256.567	26.11
256.784	-12.8
257	13.82
257.217	-12.8
257.433	32.26
257.65	42.5
257.866	13.82
258.082	30.21
258.299	9.73
258.515	-25.09
258.732	40.45
258.948	-23.04
259.165	56.83
259.381	-23.04
259.597	22.02
259.814	36.35
260.03	95.74
260.246	17.92
260.463	15.87
260.679	-0.51
260.895	-6.66
261.112	32.26
261.328	52.74
261.544	48.64
261.761	-14.85
261.977	7.68
262.193	30.21
262.409	36.35
262.626	118.27
262.842	44.54
263.058	-29.18
263.274	67.07
263.49	-59.9
263.707	42.5
263.923	71.17
264.139	-55.81
264.355	-0.51
264.571	93.69
264.787	-4.61
265.004	36.35
265.22	50.69
265.436	24.06
265.652	9.73
265.868	50.69
266.084	34.3
266.3	-0.51
266.516	24.06
266.732	-23.04
266.948	-27.14
267.164	67.07
267.38	32.26
267.596	62.98
267.812	56.83
268.028	13.82
268.244	48.64
268.46	-18.94
268.676	44.54
268.892	73.21
269.108	15.87
269.324	48.64
269.54	32.26
269.756	75.26
269.972	54.78
270.188	91.65
270.403	9.73
270.619	-20.99
270.835	9.73
271.051	19.97
271.267	-68.09
271.483	-4.61
271.698	-25.09
271.914	28.16
272.13	-2.56
272.346	24.06
272.562	19.97
272.777	105.98
272.993	-37.38
273.209	34.3
273.425	58.88
273.64	28.16
273.856	-39.42
274.072	-45.57
274.287	32.26
274.503	5.63
274.719	71.17
274.934	40.45
275.15	42.5
275.366	-14.85
275.581	30.21
275.797	13.82
276.012	36.35
276.228	19.97
276.444	22.02
276.659	69.12
276.875	-14.85
277.09	28.16
277.306	19.97
277.521	36.35
277.737	19.97
277.952	85.5
278.168	95.74
278.383	11.78
278.599	67.07
278.814	22.02
279.03	-0.51
279.245	56.83
279.461	-41.47
279.676	30.21
279.892	56.83
280.107	73.21
280.322	38.4
280.538	3.58
280.753	-2.56
280.969	-2.56
281.184	34.3
281.399	40.45
281.615	58.88
281.83	-4.61
282.045	-35.33
282.26	65.02
282.476	-6.66
282.691	97.79
282.906	34.3
283.122	71.17
283.337	46.59
283.552	34.3
283.767	22.02
283.983	-25.09
284.198	50.69
284.413	44.54
284.628	13.82
284.843	32.26
285.058	15.87
285.274	11.78
285.489	60.93
285.704	42.5
285.919	62.98
286.134	54.78
286.349	15.87
286.564	-33.28
286.779	58.88
286.995	7.68
287.21	42.5
287.425	30.21
287.64	-0.51
287.855	34.3
288.07	-45.57
288.285	38.4
288.5	75.26
288.715	83.45
288.93	-43.52
289.145	56.83
289.36	97.79
289.575	30.21
289.79	-10.75
290.004	58.88
290.219	46.59
290.434	-4.61
290.649	13.82
290.864	9.73
291.079	11.78
291.294	3.58
291.509	11.78
291.724	13.82
291.938	-4.61
292.153	30.21
292.368	-23.04
292.583	40.45
292.798	69.12
293.012	52.74
293.227	62.98
293.442	60.93
293.657	48.64
293.871	87.55
294.086	65.02
294.301	36.35
294.516	26.11
294.73	58.88
294.945	24.06
295.16	77.31
295.374	101.89
295.589	24.06
295.804	32.26
296.018	73.21
296.233	77.31
296.447	38.4
296.662	38.4
296.877	17.92
297.091	60.93
297.306	40.45
297.52	-14.85
297.735	112.13
297.949	28.16
298.164	77.31
298.378	30.21
298.593	-23.04
298.807	-47.62
299.022	17.92
299.236	5.63
299.451	-8.7
299.665	34.3
299.88	42.5
300.094	22.02
300.309	28.16
300.523	69.12
300.737	19.97
300.952	15.87
301.166	58.88
301.381	28.16
301.595	11.78
301.809	71.17
302.024	30.21
302.238	65.02
302.452	24.06
302.667	24.06
302.881	89.6
303.095	52.74
303.309	-10.75
303.524	-45.57
303.738	-6.66
303.952	48.64
304.166	69.12
304.381	-8.7
304.595	48.64
304.809	-70.14
305.023	87.55
305.237	22.02
305.452	93.69
305.666	48.64
305.88	62.98
306.094	79.36
306.308	-53.76
306.522	34.3
306.736	9.73
306.95	50.69
307.164	32.26
307.379	-12.8
307.593	79.36
307.807	-10.75
308.021	24.06
308.235	7.68
308.449	-33.28
308.663	56.83
308.877	48.64
309.091	26.11
309.305	56.83
309.519	5.63
309.733	128.51
309.947	28.16
310.161	103.93
310.374	3.58
310.588	5.63
310.802	-68.09
311.016	-18.94
311.23	19.97
311.444	9.73
311.658	62.98
311.872	42.5
312.085	89.6
312.299	87.55
312.513	52.74
312.727	24.06
312.941	-35.33
313.154	40.45
313.368	52.74
313.582	48.64
313.796	5.63
314.009	11.78
314.223	56.83
314.437	71.17
314.651	17.92
314.864	69.12
315.078	52.74
315.292	17.92
315.505	5.63
315.719	60.93
315.933	-4.61
316.146	13.82
316.36	1.54
316.573	28.16
316.787	36.35
317.001	60.93
317.214	-27.14
317.428	89.6
317.641	11.78
317.855	11.78
318.068	13.82
318.282	-53.76
318.495	30.21
318.709	34.3
318.922	19.97
319.136	34.3
319.349	52.74
319.563	46.59
319.776	24.06
319.99	40.45
320.203	101.89
320.417	54.78
320.63	-0.51
320.843	42.5
321.057	-6.66
321.27	71.17
321.483	77.31
321.697	101.89
321.91	28.16
322.124	3.58
322.337	108.03
322.55	22.02
322.763	46.59
322.977	22.02
323.19	99.84
323.403	87.55
323.617	122.37
323.83	15.87
324.043	38.4
324.256	-43.52
324.469	73.21
324.683	32.26
324.896	50.69
325.109	40.45
325.322	24.06
325.535	22.02
325.748	26.11
325.962	28.16
326.175	62.98
326.388	3.58
326.601	32.26
326.814	75.26
327.027	79.36
327.24	15.87
327.453	11.78
327.666	52.74
327.879	79.36
328.092	9.73
328.305	11.78
328.518	36.35
328.731	77.31
328.944	34.3
329.157	97.79
329.37	67.07
329.583	69.12
329.796	13.82
330.009	44.54
330.222	36.35
330.435	36.35
330.648	32.26
330.861	34.3
331.073	44.54
331.286	103.93
331.499	32.26
331.712	5.63
331.925	40.45
332.138	9.73
332.35	46.59
332.563	1.54
332.776	128.51
332.989	-2.56
333.202	-18.94
333.414	71.17
333.627	77.31
333.84	60.93
334.053	7.68
334.265	50.69
334.478	7.68
334.691	34.3
334.903	77.31
335.116	-2.56
335.329	93.69
335.541	36.35
335.754	67.07
335.966	48.64
336.179	13.82
336.392	44.54
336.604	26.11
336.817	62.98
337.029	44.54
337.242	71.17
337.454	44.54
337.667	36.35
337.88	71.17
338.092	30.21
338.305	67.07
338.517	28.16
338.729	101.89
338.942	42.5
339.154	19.97
339.367	13.82
339.579	77.31
339.792	36.35
340.004	75.26
340.217	22.02
340.429	83.45
340.641	38.4
340.854	-0.51
341.066	-4.61
341.278	52.74
341.491	46.59
341.703	36.35
341.915	3.58
342.128	52.74
342.34	-16.9
342.552	42.5
342.764	103.93
342.977	67.07
343.189	71.17
343.401	22.02
343.613	28.16
343.826	-12.8
344.038	99.84
344.25	36.35
344.462	89.6
344.674	81.41
344.886	-4.61
345.099	5.63
345.311	19.97
345.523	7.68
345.735	-8.7
345.947	79.36
346.159	-2.56
346.371	44.54
346.583	77.31
346.795	91.65
347.007	44.54
347.219	-8.7
347.431	97.79
347.643	95.74
347.855	58.88
348.067	34.3
348.279	-45.57
348.491	50.69
348.703	65.02
348.915	101.89
349.127	75.26
349.339	40.45
349.551	85.5
349.763	48.64
349.975	-4.61
350.187	97.79
350.399	62.98
350.61	60.93
350.822	28.16
351.034	-6.66
351.246	26.11
351.458	65.02
351.669	1.54
351.881	3.58
352.093	52.74
352.305	40.45
352.517	103.93
352.728	50.69
352.94	79.36
353.152	32.26
353.363	-23.04
353.575	42.5
353.787	36.35
353.999	93.69
354.21	54.78
354.422	32.26
354.633	7.68
354.845	-4.61
355.057	54.78
355.268	69.12
355.48	120.32
355.692	91.65
355.903	60.93
356.115	-4.61
356.326	-27.14
356.538	146.94
356.749	58.88
356.961	108.03
357.172	52.74
357.384	56.83
357.595	95.74
357.807	-18.94
358.018	13.82
358.23	140.8
358.441	91.65
358.653	40.45
358.864	-10.75
359.075	-2.56
359.287	36.35
359.498	36.35
359.709	3.58
359.921	103.93
360.132	79.36
360.344	99.84
360.555	19.97
360.766	75.26
360.977	58.88
361.189	22.02
361.4	48.64
361.611	105.98
361.823	60.93
362.034	79.36
362.245	-64
362.456	-10.75
362.667	79.36
362.879	32.26
363.09	54.78
363.301	44.54
363.512	48.64
363.723	1.54
363.935	62.98
364.146	58.88
364.357	87.55
364.568	32.26
364.779	-2.56
364.99	101.89
365.201	13.82
365.412	62.98
365.623	19.97
365.834	48.64
366.045	60.93
366.256	48.64
366.467	77.31
366.678	67.07
366.889	73.21
367.1	-0.51
367.311	48.64
367.522	30.21
367.733	38.4
367.944	-8.7
368.155	56.83
368.366	54.78
368.577	28.16
368.788	89.6
368.999	69.12
369.209	69.12
369.42	112.13
369.631	17.92
369.842	-6.66
370.053	77.31
370.264	73.21
370.474	69.12
370.685	89.6
370.896	67.07
371.107	118.27
371.317	67.07
371.528	24.06
371.739	105.98
371.95	58.88
372.16	-16.9
372.371	69.12
372.582	85.5
372.792	13.82
373.003	56.83
373.214	19.97
373.424	30.21
373.635	32.26
373.846	122.37
374.056	22.02
374.267	50.69
374.477	52.74
374.688	73.21
374.898	56.83
375.109	19.97
375.319	91.65
375.53	65.02
375.74	97.79
375.951	9.73
376.161	24.06
376.372	89.6
376.582	36.35
376.793	30.21
377.003	36.35
377.214	-43.52
377.424	-25.09
377.635	91.65
377.845	30.21
378.055	38.4
378.266	60.93
378.476	85.5
378.686	75.26
378.897	116.22
379.107	69.12
379.317	-4.61
379.528	99.84
379.738	71.17
379.948	56.83
380.158	48.64
380.369	62.98
380.579	124.41
380.789	48.64
380.999	30.21
381.21	65.02
381.42	97.79
381.63	19.97
381.84	30.21
382.05	-8.7
382.261	79.36
382.471	52.74
382.681	15.87
382.891	79.36
383.101	93.69
383.311	40.45
383.521	-2.56
383.731	62.98
383.941	73.21
384.151	36.35
384.361	24.06
384.571	30.21
384.781	87.55
384.991	103.93
385.201	155.13
385.411	56.83
385.621	79.36
385.831	26.11
386.041	52.74
386.251	79.36
386.461	130.56
386.671	136.7
386.881	54.78
387.091	91.65
387.301	95.74
387.511	38.4
387.72	44.54
387.93	24.06
388.14	-23.04
388.35	91.65
388.56	81.41
388.769	128.51
388.979	85.5
389.189	15.87
389.399	50.69
389.609	42.5
389.818	101.89
390.028	22.02
390.238	56.83
390.447	34.3
390.657	13.82
390.867	73.21
391.076	79.36
391.286	52.74
391.496	56.83
391.705	17.92
391.915	87.55
392.125	89.6
392.334	177.66
392.544	56.83
392.753	44.54
392.963	103.93
393.172	95.74
393.382	112.13
393.591	118.27
393.801	71.17
394.01	105.98
394.22	120.32
394.429	114.17
394.639	71.17
394.848	48.64
395.058	-0.51
395.267	22.02
395.477	130.56
395.686	95.74
395.895	108.03
396.105	136.7
396.314	62.98
396.524	103.93
396.733	81.41
396.942	83.45
397.152	97.79
397.361	153.09
397.57	95.74
397.78	134.65
397.989	134.65
398.198	46.59
398.407	108.03
398.617	122.37
398.826	65.02
399.035	103.93
399.244	140.8
399.453	108.03
399.663	73.21
399.872	159.23
400.081	85.5
400.29	67.07
400.499	67.07
400.708	185.85
400.917	157.18
401.127	110.08
401.336	24.06
401.545	153.09
401.754	114.17
401.963	93.69
402.172	140.8
402.381	79.36
402.59	67.07
402.799	144.89
403.008	89.6
403.217	108.03
403.426	210.43
403.635	159.23
403.844	173.57
404.053	155.13
404.262	148.99
404.471	224.76
404.68	148.99
404.888	159.23
405.097	173.57
405.306	214.52
405.515	228.86
405.724	151.04
405.933	237.05
406.142	196.09
406.35	192
406.559	212.48
406.768	192
406.977	208.38
407.185	245.24
407.394	243.2
407.603	308.73
407.812	187.9
408.02	249.34
408.229	183.81
408.438	228.86
408.646	300.54
408.855	318.97
409.064	173.57
409.272	286.2
409.481	249.34
409.69	269.82
409.898	269.82
410.107	376.31
410.315	390.65
410.524	312.83
410.733	316.92
410.941	331.26
411.15	443.9
411.358	421.37
411.567	491
411.775	415.23
411.984	343.55
412.192	527.86
412.401	509.43
412.609	499.19
412.818	480.76
413.026	427.51
413.234	577.02
413.443	495.1
413.651	630.26
413.86	669.17
414.068	699.89
414.276	652.79
414.485	654.84
414.693	701.94
414.901	701.94
415.11	783.86
415.318	720.37
415.526	771.57
415.734	845.3
415.943	908.79
416.151	845.3
416.359	873.97
416.567	888.31
416.776	986.61
416.984	1013.23
417.192	1015.28
417.4	1074.67
417.608	1005.04
417.817	1134.06
418.025	1041.9
418.233	1281.52
418.441	1228.27
418.649	1285.61
418.857	1396.2
419.065	1312.24
419.273	1375.72
419.481	1439.21
419.689	1557.99
419.897	1512.94
420.105	1668.58
420.313	1609.19
420.521	1785.32
420.729	1758.69
420.937	1809.89
421.145	1834.47
421.353	2020.83
421.561	2020.83
421.769	2051.55
421.977	2227.68
422.185	2176.48
422.393	2291.17
422.601	2430.43
422.809	2430.43
423.017	2444.76
423.224	2549.21
423.432	2665.94
423.64	2692.57
423.848	2930.13
424.056	2885.08
424.263	3091.92
424.471	3112.4
424.679	3116.5
424.887	3331.53
425.094	3257.81
425.302	3343.82
425.51	3630.54
425.718	3667.4
425.925	3745.22
426.133	3821
426.341	4021.7
426.548	4208.06
426.756	4099.52
426.964	4222.4
427.171	4421.05
427.379	4715.96
427.586	4689.34
427.794	4812.21
428.001	5043.64
428.209	5270.96
428.417	5064.11
428.624	5602.73
428.832	5598.63
429.039	5561.77
429.247	5641.64
429.454	6081.96
429.662	6600.09
429.869	6055.33
430.076	6573.47
430.284	6260.13
430.491	6655.39
430.699	7011.73
430.906	6954.39
431.114	6960.53
431.321	7382.42
431.528	7355.79
431.736	7988.61
431.943	8435.07
432.15	8078.72
432.358	8187.27
432.565	8529.28
432.772	8742.27
432.979	9141.62
433.187	9254.26
433.394	9131.38
433.601	10106.21
433.808	9932.14
434.016	9708.91
434.223	10417.51
434.43	10968.41
434.637	10753.37
434.844	11511.12
435.052	11601.23
435.259	11527.5
435.466	11634
435.673	11513.17
435.88	12258.63
436.087	13014.33
436.294	13020.47
436.501	12647.74
436.708	12905.79
436.915	13253.94
437.122	14001.45
437.329	13804.85
437.537	14359.84
437.743	14722.34
437.95	14505.25
438.157	15410.45
438.364	15975.69
438.571	16117
438.778	15926.54
438.985	17087.74
439.192	16491.78
439.399	17165.56
439.606	16848.13
439.813	17831.15
440.02	18898.14
440.227	18498.79
440.433	18220.27
440.64	19012.83
440.847	18924.77
441.054	19483.86
441.261	20749.51
441.467	20192.46
441.674	20810.95
441.881	21499.06
442.088	21492.92
442.294	21324.99
442.501	21552.31
442.708	22383.79
442.914	23461.02
443.121	24280.21
443.328	23551.13
443.534	25232.51
443.741	24306.83
443.948	24794.25
444.154	26293.36
444.361	26127.47
444.568	26025.07
444.774	26080.37
444.981	26113.14
445.187	26940.52
445.394	28001.36
445.6	27907.16
445.807	30581.81
446.013	29058.12
446.22	29936.7
446.426	30809.13
446.633	31271.97
446.839	32345.11
447.046	30811.18
447.252	32795.66
447.459	32830.48
447.665	32820.24
447.871	34622.45
448.078	35568.61
448.284	34024.44
448.491	34741.23
448.697	36101.08
448.903	36764.62
449.11	36969.42
449.316	36590.55
449.522	37243.85
449.728	37669.83
449.935	38437.81
450.141	38304.7
450.347	39289.77
450.553	37915.58
450.76	38273.98
450.966	39893.92
451.172	39191.47
451.378	40151.96
451.584	39238.57
451.791	40131.48
451.997	40346.52
452.203	41139.08
452.409	41307.02
452.615	40840.08
452.821	39562.15
453.027	38769.58
453.233	40807.31
453.44	39058.35
453.646	40080.28
453.852	40184.73
454.058	40700.82
454.264	39277.48
454.47	39916.45
454.676	39312.3
454.882	40577.94
455.088	37077.96
455.294	37827.52
455.5	38335.42
455.705	38484.92
455.911	37223.37
456.117	36662.22
456.323	35693.54
456.529	34231.29
456.735	35496.93
456.941	34644.98
457.147	34171.89
457.352	33049.61
457.558	33016.84
457.764	32814.09
457.97	32414.74
458.176	31351.84
458.381	31317.03
458.587	29713.47
458.793	29819.96
458.999	28593.23
459.204	30700.59
459.41	29826.1
459.616	27409.5
459.821	27612.25
460.027	27520.09
460.233	26852.45
460.438	25793.65
460.644	25877.62
460.85	24673.42
461.055	24298.64
461.261	24251.53
461.466	22858.92
461.672	21943.47
461.878	23350.43
462.083	22133.93
462.289	21599.41
462.494	21191.87
462.7	20131.02
462.905	19504.34
463.111	20253.9
463.316	20309.19
463.522	20366.54
463.727	20337.87
463.932	20096.21
464.138	19881.17
464.343	20163.79
464.549	19393.75
464.754	19997.9
464.959	19926.22
465.165	19799.25
465.37	19109.08
465.575	18406.63
465.781	19162.33
465.986	19195.1
466.191	18633.96
466.397	17935.6
466.602	17300.73
466.807	18099.44
467.012	17886.45
467.218	17761.52
467.423	17906.93
467.628	17706.23
467.833	18480.36
468.038	17886.45
468.244	17550.58
468.449	18078.96
468.654	17294.58
468.859	17358.07
469.064	17489.14
469.269	16698.63
469.474	16948.48
469.679	17001.72
469.885	16657.67
470.09	16657.67
470.295	16741.63
470.5	16311.56
470.705	16319.75
470.91	16076.04
471.115	15807.76
471.32	16088.33
471.525	15871.25
471.73	15580.43
471.935	15562
472.139	15125.79
472.344	15281.43
472.549	15349.01
472.754	15244.57
472.959	14714.14
473.164	14294.31
473.369	14427.43
473.574	14896.41
473.778	14384.42
473.983	14290.21
474.188	14357.8
474.393	13559.09
474.598	13673.78
474.802	13821.23
475.007	13538.61
475.212	13620.53
475.417	12969.27
475.621	13069.62
475.826	13235.51
476.031	12778.81
476.235	12690.75
476.44	13016.38
476.645	12516.67
476.849	12793.15
477.054	12379.46
477.259	12328.26
477.463	12344.64
477.668	12064.07
477.872	11984.2
478.077	11963.72
478.282	11791.69
478.486	11443.54
478.691	11685.2
478.895	11517.26
479.1	11363.67
479.304	11427.15
479.509	10997.08
479.713	11296.08
479.918	11105.62
480.122	10814.81
480.326	11189.59
480.531	10960.22
480.735	10906.97
480.94	10745.18
481.144	10925.4
481.348	10607.97
481.553	10759.52
481.757	10564.96
481.961	10513.76
482.166	10960.22
482.37	10894.68
482.574	10429.79
482.778	10605.92
482.983	10763.61
483.187	10536.29
483.391	10765.66
483.595	10755.42
483.8	10661.21
484.004	10642.78
484.208	10739.04
484.412	10687.84
484.616	10638.69
484.821	10493.28
485.025	10362.21
485.229	10837.34
485.433	10554.72
485.637	10771.8
485.841	10478.94
486.045	10616.16
486.249	10706.27
486.453	10689.88
486.657	10489.18
486.861	10560.86
487.065	10401.12
487.269	10552.67
487.473	10397.03
487.677	10691.93
487.881	10681.69
488.085	10622.3
488.289	10765.66
488.493	10474.85
488.697	10724.7
488.901	10677.6
489.105	10648.93
489.309	10960.22
489.512	10810.72
489.716	10671.45
489.92	10726.75
490.124	10741.08
490.328	10687.84
490.531	10833.24
490.735	10943.83
490.939	11050.33
491.143	10982.74
491.346	10900.83
491.55	11070.81
491.754	11060.57
491.958	11040.09
492.161	11017.56
492.365	11398.48
492.569	11185.49
492.772	11244.88
492.976	11281.75
493.18	11216.21
493.383	11423.06
493.587	11341.14
493.79	11601.23
493.994	11322.71
494.197	11599.18
494.401	11799.88
494.605	11744.59
494.808	12100.94
495.012	12227.91
495.215	11941.19
495.419	12160.33
495.622	12285.25
495.825	12416.32
496.029	12426.56
496.232	12684.61
496.436	12705.09
496.639	13108.54
496.843	12889.4
497.046	12856.64
497.249	13245.75
497.453	13190.45
497.656	13356.34
497.859	13112.63
498.063	13749.55
498.266	13743.41
498.469	13927.72
498.673	13890.86
498.876	13999.4
499.079	14304.55
499.282	14105.9
499.485	14550.31
499.689	14660.9
499.892	14787.87
500.095	14955.8
500.298	15297.81
500.501	14990.62
500.705	15314.2
500.908	15383.83
501.111	15811.85
501.314	15990.03
501.517	16131.34
501.72	16391.43
501.923	16370.95
502.126	16862.46
502.329	16848.13
502.532	16882.94
502.735	17128.7
502.938	17546.48
503.141	17437.94
503.344	17786.1
503.547	17743.09
503.75	18021.61
503.953	18453.73
504.156	18396.39
504.359	18568.42
504.562	18830.56
504.765	19082.46
504.968	19254.49
505.17	19295.45
505.373	19533.01
505.576	19774.67
505.779	20098.25
505.982	20212.94
506.185	20843.71
506.387	20610.25
506.59	20972.74
506.793	21103.81
506.996	21398.71
507.198	21667
507.401	21351.61
507.604	21847.22
507.807	22357.16
508.009	22424.75
508.212	22557.86
508.415	22908.07
508.617	22959.27
508.82	23323.8
509.022	22889.63
509.225	23731.35
509.428	23803.03
509.63	24292.49
509.833	24210.57
510.035	24761.48
510.238	25064.58
510.44	24913.03
510.643	25207.94
510.845	25640.06
511.048	25134.21
511.25	25754.74
511.453	25879.67
511.655	27165.79
511.858	26516.59
512.06	26608.75
512.262	27313.25
512.465	27012.2
512.667	27440.22
512.87	28167.25
513.072	28011.6
513.274	28462.16
513.477	28554.32
513.679	28849.22
513.881	29404.22
514.084	29422.66
514.286	29594.68
514.488	29531.2
514.69	30463.02
514.893	30645.29
515.095	30780.46
515.297	30850.09
515.499	30587.95
515.701	31730.72
515.904	31661.08
516.106	31728.67
516.308	32314.39
516.51	32437.27
516.712	32590.86
516.914	33020.94
517.116	33543.17
517.318	33362.95
517.52	33559.55
517.722	34135.03
517.925	34434.03
518.127	34593.78
518.329	34661.36
518.531	34575.34
518.733	35402.72
518.935	35408.87
519.136	35277.8
519.338	35967.96
519.54	36309.97
519.742	36193.24
519.944	36498.39
520.146	37010.38
520.348	37532.61
520.55	37387.21
520.752	37262.28
520.954	38783.92
521.155	37792.7
521.357	38429.62
521.559	38822.83
521.761	39465.89
521.963	38831.02
522.164	39396.26
522.366	39205.8
522.568	39824.29
522.77	40115.1
522.971	40625.04
523.173	40606.61
523.375	40885.14
523.576	40428.44
523.778	40835.98
523.98	41591.69
524.181	41503.62
524.383	41296.78
524.584	42353.53
524.786	42046.33
524.988	41634.69
525.189	42691.44
525.391	42593.14
525.592	43025.26
525.794	42840.95
525.995	42875.76
526.197	42842.99
526.398	43596.65
526.6	43723.62
526.801	43920.23
527.003	43881.31
527.204	43828.07
527.406	44481.37
527.607	44223.33
527.808	44237.66
528.01	44022.62
528.211	44454.75
528.412	44981.07
528.614	44909.39
528.815	44837.72
529.016	45112.14
529.218	44733.27
529.419	45224.78
529.62	45304.65
529.822	45298.51
530.023	45058.9
530.224	45384.52
530.425	45214.54
530.626	45208.4
530.828	45200.21
531.029	46236.48
531.23	45460.3
531.431	45644.62
531.632	45574.98
531.833	46080.83
532.035	45785.93
532.236	46220.09
532.437	45898.56
532.638	45849.41
532.839	46048.07
533.04	46373.69
533.241	45368.14
533.442	46463.8
533.643	46420.8
533.844	46234.43
534.045	46246.72
534.246	46388.03
534.447	46328.64
534.648	46029.63
534.849	46273.34
535.05	45497.16
535.251	45894.47
535.451	46183.23
535.652	46267.2
535.853	46496.57
536.054	46496.57
536.255	46422.84
536.456	45722.44
536.657	46689.08
536.857	46312.25
537.058	45943.62
537.259	46265.15
537.46	46584.63
537.66	46414.65
537.861	46533.43
538.062	46064.45
538.263	46441.28
538.463	45878.08
538.664	46209.85
538.865	46224.19
539.065	46566.2
539.266	45796.17
539.466	46631.74
539.667	46011.2
539.868	46701.37
540.068	46054.21
540.269	45949.76
540.469	46058.31
540.67	46119.74
540.87	45962.05
541.071	46156.61
541.271	46398.27
541.472	46113.6
541.672	46127.94
541.873	45898.56
542.073	45919.04
542.274	46312.25
542.474	46144.32
542.675	45785.93
542.875	46644.02
543.075	46469.95
543.276	45470.54
543.476	46279.49
543.676	45677.38
543.877	45990.72
544.077	46093.12
544.277	45882.18
544.478	46246.72
544.678	45906.76
544.878	46150.46
545.078	46355.26
545.279	46007.11
545.479	45732.68
545.679	46027.59
545.879	46166.85
546.079	46150.46
546.28	45534.03
546.48	45767.49
546.68	45923.14
546.88	46025.54
547.08	45753.16
547.28	45607.75
547.48	45470.54
547.68	45695.81
547.88	45585.22
548.081	46064.45
548.281	45771.59
548.481	45708.1
548.681	45792.07
548.881	45792.07
549.081	45927.24
549.28	45675.34
549.48	45855.56
549.68	45554.5
549.88	46076.74
550.08	45581.13
550.28	45636.42
550.48	45382.48
550.68	45935.43
550.88	45667.14
551.08	45763.4
551.279	45697.86
551.479	45155.15
551.679	45593.42
551.879	45192.01
552.079	46048.07
552.278	45413.2
552.478	45673.29
552.678	45796.17
552.878	45714.25
553.077	45357.9
553.277	45196.11
553.477	45681.48
553.676	45452.11
553.876	45890.37
554.076	45069.14
554.275	45093.71
554.475	45097.81
554.674	45073.23
554.874	45224.78
555.074	45249.36
555.273	45329.23
555.473	45347.66
555.672	45122.38
555.872	45507.4
556.071	44972.88
556.271	45239.12
556.47	45022.03
556.67	44651.35
556.869	44647.25
557.068	45112.14
557.268	45173.58
557.467	45198.16
557.667	45138.77
557.866	44884.82
558.065	44860.24
558.265	44432.22
558.464	44469.08
558.663	45071.18
558.863	43977.57
559.062	45120.34
559.261	44188.51
559.461	45108.05
559.66	44186.46
559.859	44401.5
560.058	44155.74
560.258	44598.1
560.457	44256.09
560.656	44575.58
560.855	43877.22
561.054	44260.19
561.253	43926.37
561.453	44200.8
561.652	44231.52
561.851	44075.87
562.05	44258.14
562.249	43647.85
562.448	44399.45
562.647	43940.71
562.846	43742.05
563.045	43539.3
563.244	43488.1
563.443	44026.72
563.642	43377.51
563.841	43602.79
564.04	43334.51
564.239	43842.4
564.438	43357.03
564.637	43283.31
564.836	43162.48
565.035	43191.15
565.234	43092.85
565.432	42804.08
565.631	42734.45
565.83	42701.68
566.029	42947.44
566.228	42691.44
566.427	42761.08
566.625	42673.01
566.824	42220.41
567.023	42816.37
567.222	41952.13
567.42	42756.98
567.619	42107.77
567.818	41966.46
568.016	42271.61
568.215	42197.88
568.414	41769.86
568.612	42138.49
568.811	41972.61
569.01	42224.51
569.208	41786.24
569.407	42582.9
569.605	41411.46
569.804	41941.89
570.002	41556.87
570.201	41593.73
570.4	41466.76
570.598	41495.43
570.797	41116.56
570.995	41044.88
571.193	40696.72
571.392	41163.66
571.59	40766.35
571.789	41280.39
571.987	40928.14
572.186	40733.59
572.384	40506.26
572.582	40498.07
572.781	41071.5
572.979	40086.43
573.177	40448.92
573.376	40627.09
573.574	40156.06
573.772	40094.62
573.971	39975.84
574.169	39955.36
574.367	40008.61
574.565	40371.1
574.763	39758.75
574.962	39795.62
575.16	39625.64
575.358	39766.95
575.556	39082.92
575.754	39181.23
575.952	39248.81
576.151	39590.82
576.349	38824.88
576.547	39117.74
576.745	38949.81
576.943	39011.24
577.141	38986.67
577.339	39054.25
577.537	38665.14
577.735	38611.89
577.933	37876.67
578.131	38853.55
578.329	38708.15
578.527	38474.68
578.725	38374.33
578.923	38497.2
579.121	38224.82
579.319	38032.32
579.516	38484.92
579.714	38357.94
579.912	37766.08
580.11	37686.21
580.308	37725.12
580.506	37721.02
580.704	37188.55
580.901	37860.29
581.099	37821.37
581.297	37321.67
581.495	37026.76
581.692	37327.81
581.89	36629.46
582.088	37284.81
582.285	36752.34
582.483	36858.83
582.681	36758.48
582.878	36789.2
583.076	36500.44
583.274	36983.76
583.471	36185.05
583.669	36520.91
583.866	35961.82
584.064	36418.52
584.262	35838.94
584.459	36156.38
584.657	35503.07
584.854	36092.89
585.052	35478.5
585.249	35527.65
585.447	35763.17
585.644	35294.18
585.841	35099.62
586.039	35644.38
586.236	34968.55
586.434	35320.81
586.631	34794.48
586.828	35005.42
587.026	35210.21
587.223	35265.51
587.42	34550.77
587.618	34479.09
587.815	34554.86
588.012	34335.73
588.21	34350.07
588.407	34362.36
588.604	34262.01
588.801	34089.98
588.999	34536.43
589.196	34305.01
589.393	34163.7
589.59	33664
589.787	33993.72
589.984	33442.82
590.182	33598.46
590.379	33664
590.576	33344.52
590.773	33518.59
590.97	33195.01
591.167	33383.43
591.364	33240.07
591.561	33201.16
591.758	32584.72
591.955	33096.71
592.152	33022.98
592.349	32594.96
592.546	32670.73
592.743	32205.84
592.94	32078.87
593.137	32611.34
593.334	32437.27
593.531	32158.74
593.727	32295.96
593.924	32185.36
594.121	31716.38
594.318	32138.26
594.515	31765.53
594.712	32021.53
594.908	31200.29
595.105	31867.93
595.302	31546.4
595.499	31704.09
595.696	31515.68
595.892	31517.73
596.089	31294.5
596.286	31237.16
596.482	31173.67
596.679	30829.61
596.876	30626.86
597.072	30747.69
597.269	30995.5
597.466	30610.48
597.662	30266.42
597.859	30790.7
598.055	30727.21
598.252	30078.01
598.448	30250.03
598.645	30157.88
598.841	29760.57
599.038	29961.27
599.234	29951.03
599.431	29809.72
599.627	29676.6
599.824	29557.82
600.02	29496.38
600.217	29426.75
600.413	29412.42
600.609	29189.19
600.806	29242.43
601.002	29074.5
601.198	29008.97
601.395	28761.16
601.591	28595.28
601.787	28580.94
601.984	28265.55
602.18	29023.3
602.376	28468.3
602.572	28808.26
602.769	28496.97
602.965	27759.7
603.161	28288.08
603.357	28114
603.553	28410.96
603.75	28220.5
603.946	27829.34
604.142	28044.37
604.338	27593.82
604.534	27516
604.73	27589.72
604.926	27452.51
605.122	27565.15
605.318	27593.82
605.514	27104.35
605.71	27495.52
605.906	27053.16
606.102	27290.72
606.298	26995.81
606.494	27313.25
606.69	27014.24
606.886	27047.01
607.082	26768.49
607.278	26700.9
607.474	26319.98
607.67	26907.75
607.866	26240.11
608.062	26621.03
608.257	26244.21
608.453	26551.4
608.649	26508.4
608.845	26344.56
609.041	26231.92
609.236	26186.86
609.432	26211.44
609.628	25865.33
609.824	26182.77
610.019	26072.18
610.215	26078.32
610.411	26213.49
610.606	25846.9
610.802	26248.3
610.998	25805.94
611.193	25986.16
611.389	25506.94
611.584	25799.8
611.78	25640.06
611.976	25455.74
612.171	25764.98
612.367	25695.35
612.562	25214.08
612.758	25142.4
612.953	25388.16
613.149	25355.39
613.344	25132.16
613.539	25330.81
613.735	24996.99
613.93	25304.19
614.126	25025.67
614.321	25312.38
614.517	25339.01
614.712	24960.13
614.907	25146.5
615.103	25150.59
615.298	25232.51
615.493	25130.11
615.688	24624.26
615.884	25267.33
616.079	24489.1
616.274	24947.84
616.47	24575.11
616.665	24777.86
616.86	24181.9
617.055	24462.47
617.25	24591.5
617.445	24515.72
617.641	24220.81
617.836	24384.65
618.031	24030.35
618.226	24337.55
618.421	24134.8
618.616	24188.05
618.811	23936.15
619.006	24108.18
619.201	23473.31
619.396	23725.21
619.591	23420.06
619.786	23563.42
619.981	23219.36
620.176	23583.9
620.371	23022.75
620.566	23479.45
620.761	23028.9
620.956	23123.1
621.151	22899.87
621.346	22992.03
621.541	22287.53
621.735	22858.92
621.93	22256.81
622.125	22650.02
622.32	22062.26
622.515	22391.98
622.709	21810.36
622.904	22076.59
623.099	21953.71
623.294	22002.86
623.488	21664.95
623.683	21646.52
623.878	21333.18
624.072	21437.62
624.267	21226.68
624.462	20772.04
624.656	20853.95
624.851	21028.03
625.046	20866.24
625.24	20438.22
625.435	20561.09
625.629	20337.87
625.824	20303.05
626.018	20194.51
626.213	20122.83
626.407	20468.94
626.602	19950.8
626.796	20018.38
626.991	19958.99
627.185	19946.7
627.38	19469.53
627.574	19494.1
627.768	19115.23
627.963	19131.61
628.157	18967.77
628.352	18820.32
628.546	18728.16
628.74	19096.8
628.935	18935.01
629.129	18967.77
629.323	18420.97
629.517	18439.4
629.712	18312.42
629.906	18406.63
630.1	17984.75
630.294	18068.72
630.489	18040.04
630.683	17915.12
630.877	17652.98
631.071	17581.3
631.265	17958.13
631.459	17417.46
631.653	17419.51
631.848	17558.77
632.042	17198.33
632.236	17345.78
632.43	17120.51
632.624	17192.19
632.818	16930.05
633.012	16981.24
633.206	16831.74
633.4	16819.46
633.594	16778.5
633.788	16524.55
633.982	16284.94
634.176	16301.32
634.369	16487.68
634.563	16149.77
634.757	16221.45
634.951	15713.55
635.145	15979.79
635.339	16035.08
635.533	15850.77
635.726	15840.53
635.92	15637.78
636.114	15521.04
636.308	15533.33
636.501	15338.77
636.695	15437.08
636.889	15287.57
637.083	15025.43
637.276	15252.76
637.47	14904.6
637.664	15015.19
637.857	14927.13
638.051	14845.21
638.244	14538.02
638.438	14630.18
638.632	14806.3
638.825	14560.55
639.019	14669.09
639.212	14265.64
639.406	14462.24
639.599	14181.67
639.793	14390.56
639.986	14015.79
640.18	14097.7
640.373	14003.5
640.567	13784.37
640.76	13819.18
640.954	13919.53
641.147	13554.99
641.34	13671.73
641.534	13479.22
641.727	13651.25
641.92	13618.48
642.114	13378.87
642.307	13511.99
642.5	13233.46
642.694	12997.95
642.887	12883.26
643.08	13020.47
643.273	12932.41
643.467	12936.51
643.66	12799.29
643.853	12674.37
644.046	12600.64
644.239	12467.52
644.432	12621.12
644.626	12365.12
644.819	12465.47
645.012	12543.3
645.205	12369.22
645.398	12334.4
645.591	12184.9
645.784	12006.73
645.977	12160.33
646.17	12064.07
646.363	11922.76
646.556	11785.55
646.749	12012.87
646.942	11939.15
647.135	11670.86
647.328	11455.83
647.521	11818.32
647.714	11285.84
647.907	11361.62
648.099	11429.2
648.292	11597.14
648.485	11244.88
648.678	11099.48
648.871	11158.87
649.064	11271.51
649.256	11191.64
649.449	11027.8
649.642	10911.07
649.835	10992.98
650.027	10792.28
650.22	10935.64
650.413	10743.13
650.605	10564.96
650.798	10835.29
650.991	10638.69
651.183	10577.25
651.376	10718.56
651.568	10585.44
651.761	10304.87
651.954	10530.14
652.146	10446.18
652.339	10235.24
652.531	10247.52
652.724	10034.53
652.916	10040.68
653.109	10065.25
653.301	10024.3
653.494	9944.42
653.686	9895.27
653.879	9839.98
654.071	9819.5
654.263	9649.52
654.456	9739.63
654.648	9672.04
654.84	9450.86
655.033	9600.37
655.225	9332.08
655.417	9375.09
655.61	9375.09
655.802	9229.68
655.994	9164.15
656.186	9293.17
656.379	9309.55
656.571	9065.85
656.763	8924.54
656.955	9119.09
657.148	9108.85
657.34	8914.3
657.532	8826.23
657.724	8709.5
657.916	8936.82
658.108	8777.08
658.3	8791.42
658.492	8828.28
658.684	8678.78
658.876	8686.97
659.068	8539.52
659.26	8414.59
659.452	8510.85
659.644	8310.15
659.836	8347.01
660.028	8523.13
660.22	8211.84
660.412	8197.51
660.604	8314.24
660.796	8277.38
660.988	8107.4
661.18	8058.25
661.372	8160.64
661.563	8207.75
661.755	8050.05
661.947	7898.5
662.139	7875.98
662.331	7912.84
662.522	7736.71
662.714	7888.26
662.906	7753.1
663.097	7769.48
663.289	7814.54
663.481	7751.05
663.673	7531.92
663.864	7576.97
664.056	7386.51
664.247	7478.67
664.439	7415.18
664.631	7415.18
664.822	7261.59
665.014	7495.05
665.205	7384.46
665.397	7280.02
665.588	7331.22
665.78	7163.28
665.971	7234.96
666.163	7171.47
666.354	7054.74
666.546	6927.77
666.737	6981.01
666.929	6940.05
667.12	6907.29
667.311	6796.7
667.503	6993.3
667.694	6929.81
667.885	6880.66
668.077	6835.61
668.268	6835.61
668.459	6782.36
668.651	6686.11
668.842	6649.24
669.033	6706.59
669.224	6618.52
669.416	6589.85
669.607	6616.48
669.798	6509.98
669.989	6639
670.18	6487.45
670.371	6442.4
670.563	6405.53
670.754	6460.83
670.945	6202.79
671.136	6374.81
671.327	6239.65
671.518	6067.62
671.709	6180.26
671.9	6288.8
672.091	6059.43
672.282	6133.15
672.473	6077.86
672.664	6143.39
672.855	6104.48
673.046	6133.15
673.237	6127.01
673.428	6077.86
673.619	6116.77
673.809	6030.76
674	6008.23
674.191	5817.77
674.382	5950.89
674.573	5938.6
674.764	5846.44
674.954	5877.16
675.145	5854.63
675.336	5875.11
675.527	5764.52
675.717	5832.1
675.908	5772.71
676.099	5748.14
676.289	5617.07
676.48	5707.18
676.671	5559.72
676.861	5629.35
677.052	5506.48
677.243	5596.59
677.433	5359.02
677.624	5662.12
677.814	5445.04
678.005	5426.61
678.195	5461.42
678.386	5416.37
678.576	5463.47
678.767	5361.07
678.957	5473.71
679.148	5494.19
679.338	5412.27
679.529	5252.53
679.719	5236.14
679.909	5340.59
680.1	5291.44
680.29	5320.11
680.481	5189.04
680.671	5342.64
680.861	5199.28
681.052	5201.33
681.242	5154.23
681.432	5160.37
681.622	5189.04
681.813	5236.14
682.003	5205.42
682.193	5057.97
682.383	5133.75
682.573	5068.21
682.764	5019.06
682.954	5107.12
683.144	5055.92
683.334	5010.87
683.524	5084.59
683.714	5041.59
683.904	4914.61
684.094	4916.66
684.284	4881.85
684.474	4974
684.664	5006.77
684.854	4832.69
685.044	4943.28
685.234	4681.14
685.424	4783.54
685.614	4824.5
685.804	4904.37
685.994	4726.2
686.184	4822.45
686.374	4634.04
686.564	4660.66
686.753	4695.48
686.943	4631.99
687.133	4464.06
687.323	4595.13
687.513	4652.47
687.702	4439.48
687.892	4654.52
688.082	4437.44
688.272	4451.77
688.461	4584.89
688.651	4502.97
688.841	4382.14
689.03	4357.57
689.22	4277.69
689.41	4341.18
689.599	4390.33
689.789	4160.96
689.979	4314.56
690.168	4351.42
690.358	4320.7
690.547	4208.06
690.737	4191.68
690.926	4222.4
691.116	4183.49
691.305	4249.02
691.495	4103.62
691.684	4122.05
691.874	3972.55
692.063	4117.95
692.252	4070.85
692.442	4062.66
692.631	3954.12
692.82	4122.05
693.01	3931.59
693.199	3915.2
693.388	3917.25
693.578	3919.3
693.767	3980.74
693.956	3816.9
694.146	3734.98
694.335	3821
694.524	3937.73
694.713	3880.39
694.902	3777.99
695.092	3861.96
695.281	3669.45
695.47	3790.28
695.659	3579.34
695.848	3722.7
696.037	3653.06
696.226	3675.59
696.415	3634.63
696.604	3644.87
696.793	3618.25
696.982	3503.56
697.171	3657.16
697.36	3646.92
697.549	3511.75
697.738	3612.1
697.927	3567.05
698.116	3544.52
698.305	3565
698.494	3513.8
698.683	3519.95
698.872	3538.38
699.061	3423.69
699.25	3444.17
699.438	3493.32
699.627	3489.23
699.816	3497.42
700.005	3421.64
700.193	3478.99
700.382	3298.77
700.571	3335.63
700.76	3452.36
700.948	3460.56
701.137	3399.12
701.326	3347.92
701.514	3247.57
701.703	3388.88
701.892	3249.61
702.08	3378.64
702.269	3329.49
702.457	3259.85
702.646	3298.77
702.834	3347.92
703.023	3364.3
703.212	3259.85
703.4	3321.29
703.589	3306.96
703.777	3333.58
703.965	3354.06
704.154	3313.1
704.342	3294.67
704.531	3186.13
704.719	3134.93
704.907	3317.2
705.096	3169.74
705.284	3378.64
705.472	3163.6
705.661	3100.11
705.849	3171.79
706.037	3292.62
706.226	3306.96
706.414	3309.01
706.602	3120.59
706.79	3159.5
706.979	3075.54
707.167	3179.98
707.355	2919.89
707.543	3192.27
707.731	3130.83
707.919	3110.35
708.107	3093.97
708.296	3018.19
708.484	3120.59
708.672	3120.59
708.86	3055.06
709.048	3173.84
709.236	3126.74
709.424	3202.51
709.612	3073.49
709.8	3083.73
709.988	2997.71
710.176	3132.88
710.364	3132.88
710.551	3255.76
710.739	3173.84
710.927	3128.78
711.115	3186.13
711.303	3110.35
711.491	3001.81
711.679	2958.8
711.866	3091.92
712.054	3067.35
712.242	3093.97
712.43	3110.35
712.617	3073.49
712.805	2956.75
712.993	3069.39
713.181	3030.48
713.368	3124.69
713.556	3012.05
713.744	3065.3
713.931	3053.01
714.119	3044.82
714.306	2993.62
714.494	2977.23
714.682	3171.79
714.869	3112.4
715.057	2997.71
715.244	2952.66
715.432	3067.35
715.619	2860.5
715.807	3007.95
715.994	2975.19
716.182	3061.2
716.369	3007.95
716.556	3020.24
716.744	2946.52
716.931	3010
717.119	2934.23
717.306	2946.52
717.493	2987.47
717.681	2975.19
717.868	3042.77
718.055	3067.35
718.242	3098.06
718.43	2975.19
718.617	3020.24
718.804	2946.52
718.991	3042.77
719.179	3069.39
719.366	3050.96
719.553	2870.74
719.74	3200.46
719.927	3093.97
720.114	2983.38
720.301	2907.6
720.488	2815.45
720.676	2940.37
720.863	2901.46
721.05	3044.82
721.237	3026.39
721.424	2926.04
721.611	2999.76
721.798	2885.08
721.985	2948.56
722.172	2844.12
722.358	2823.64
722.545	2905.56
722.732	2833.88
722.919	2989.52
723.106	2938.32
723.293	2815.45
723.48	2883.03
723.667	2870.74
723.853	2936.28
724.04	2915.8
724.227	2932.18
724.414	2852.31
724.6	2889.17
724.787	2868.69
724.974	2854.36
725.161	2809.3
725.347	2813.4
725.534	2993.62
725.72	2948.56
725.907	2807.25
726.094	2971.09
726.28	2842.07
726.467	2764.25
726.653	2907.6
726.84	2911.7
727.027	2858.45
727.213	2780.63
727.4	3014.1
727.586	2825.68
727.773	2999.76
727.959	2880.98
728.145	2811.35
728.332	2962.9
728.518	2856.4
728.705	2989.52
728.891	2842.07
729.077	2831.83
729.264	2829.78
729.45	2782.68
729.636	2913.75
729.823	2764.25
730.009	2971.09
730.195	2903.51
730.382	2825.68
730.568	2827.73
730.754	2848.21
730.94	2854.36
731.126	2948.56
731.313	2807.25
731.499	2770.39
731.685	2807.25
731.871	2729.43
732.057	3018.19
732.243	2739.67
732.429	2950.61
732.615	2786.77
732.801	2842.07
732.987	2819.54
733.173	2805.21
733.359	2907.6
733.545	2729.43
733.731	2792.92
733.917	2852.31
734.103	2862.55
734.289	2776.53
734.475	2776.53
734.661	2794.97
734.847	2858.45
735.033	2780.63
735.219	2754.01
735.404	2743.77
735.59	2799.06
735.776	2866.64
735.962	2731.48
736.148	2864.6
736.333	2686.42
736.519	2866.64
736.705	2715.09
736.89	2807.25
737.076	2774.49
737.262	2694.61
737.447	2733.53
737.633	2684.38
737.819	2794.97
738.004	2758.1
738.19	2627.03
738.375	2606.55
738.561	2665.94
738.747	2682.33
738.932	2739.67
739.118	2690.52
739.303	2665.94
739.489	2729.43
739.674	2665.94
739.859	2692.57
740.045	2665.94
740.23	2756.05
740.416	2561.5
740.601	2674.14
740.786	2678.23
740.972	2543.07
741.157	2575.83
741.342	2584.02
741.528	2514.39
741.713	2557.4
741.898	2543.07
742.084	2518.49
742.269	2442.71
742.454	2581.98
742.639	2612.7
742.824	2584.02
743.01	2481.63
743.195	2602.46
743.38	2506.2
743.565	2520.54
743.75	2442.71
743.935	2471.39
744.12	2450.91
744.305	2479.58
744.49	2428.38
744.675	2512.35
744.86	2444.76
745.045	2510.3
745.23	2436.57
745.415	2368.99
745.6	2346.46
745.785	2344.41
745.97	2336.22
746.155	2309.6
746.34	2239.97
746.525	2205.15
746.71	2309.6
746.895	2248.16
747.079	2221.53
747.264	2256.35
747.449	2215.39
747.634	2270.69
747.819	2276.83
748.003	2276.83
748.188	2233.82
748.373	2199.01
748.557	2239.97
748.742	2209.25
748.927	2063.84
749.111	2162.14
749.296	2151.9
749.481	2065.89
749.665	2184.67
749.85	1992.16
750.034	2096.61
750.219	2029.03
750.404	2072.03
750.588	2082.27
750.773	1963.49
750.957	2045.41
751.141	1973.73
751.326	1918.43
751.51	1918.43
751.695	1873.38
751.879	1822.18
752.064	1953.25
752.248	1938.91
752.432	1881.57
752.617	1947.11
752.801	1828.32
752.985	1867.24
753.17	1873.38
753.354	1871.33
753.538	1811.94
753.722	1854.95
753.907	1828.32
754.091	1824.23
754.275	1785.32
754.459	1779.17
754.643	1697.25
754.828	1707.49
755.012	1742.31
755.196	1703.4
755.38	1783.27
755.564	1744.36
755.748	1732.07
755.932	1525.22
756.116	1588.71
756.3	1680.87
756.484	1549.8
756.668	1545.7
756.852	1576.42
757.036	1609.19
757.22	1523.18
757.404	1611.24
757.588	1547.75
757.772	1582.57
757.956	1560.04
758.14	1568.23
758.323	1461.74
758.507	1447.4
758.691	1435.11
758.875	1451.5
759.059	1512.94
759.242	1545.7
759.426	1543.66
759.61	1527.27
759.794	1404.39
759.977	1551.85
760.161	1514.98
760.345	1445.35
760.528	1422.83
760.712	1461.74
760.895	1388.01
761.079	1428.97
761.263	1349.1
761.446	1277.42
761.63	1314.28
761.813	1318.38
761.997	1338.86
762.18	1322.48
762.364	1291.76
762.547	1244.65
762.731	1297.9
762.914	1265.13
763.098	1279.47
763.281	1412.59
763.464	1189.36
763.648	1330.67
763.831	1189.36
764.015	1299.95
764.198	1220.08
764.381	1230.32
764.564	1269.23
764.748	1181.17
764.931	1269.23
765.114	1275.37
765.297	1220.08
765.481	1099.25
765.664	1189.36
765.847	1267.18
766.03	1193.45
766.213	1240.56
766.397	1111.54
766.58	1160.69
766.763	1205.74
766.946	1191.41
767.129	1181.17
767.312	1031.66
767.495	1136.11
767.678	1132.01
767.861	1127.92
768.044	1144.3
768.227	1113.58
768.41	1121.77
768.593	1199.6
768.776	1117.68
768.959	1072.62
769.142	1062.38
769.324	1144.3
769.507	1027.57
769.69	1048.05
769.873	1021.42
770.056	1144.3
770.239	1086.96
770.421	1078.77
770.604	1019.38
770.787	1160.69
770.97	1011.18
771.152	1005.04
771.335	992.75
771.518	978.42
771.7	935.41
771.883	982.51
772.066	1052.14
772.248	1068.53
772.431	990.7
772.613	945.65
772.796	962.03
772.978	947.7
773.161	1017.33
773.343	1000.94
773.526	990.7
773.708	890.35
773.891	902.64
774.073	980.47
774.256	964.08
774.438	935.41
774.621	947.7
774.803	880.11
774.985	923.12
775.168	912.88
775.35	878.07
775.532	968.18
775.715	843.25
775.897	886.26
776.079	884.21
776.261	884.21
776.444	937.46
776.626	783.86
776.808	871.92
776.99	810.48
777.173	892.4
777.355	830.96
777.537	830.96
777.719	847.35
777.901	796.15
778.083	787.96
778.265	749.04
778.447	783.86
778.629	718.33
778.811	720.37
778.993	835.06
779.175	781.81
779.357	775.67
779.539	730.61
779.721	712.18
779.903	802.29
780.085	716.28
780.267	699.89
780.449	685.56
780.631	734.71
780.812	708.09
780.994	722.42
781.176	525.82
781.358	691.7
781.54	695.8
781.721	654.84
781.903	636.41
782.085	605.69
782.267	665.08
782.448	681.46
782.63	640.5
782.812	622.07
782.993	620.02
783.175	732.66
783.357	577.02
783.538	644.6
783.72	617.97
783.901	611.83
784.083	609.78
784.264	599.54
784.446	630.26
784.627	562.68
784.809	568.82
784.99	556.54
785.172	644.6
785.353	673.27
785.535	583.16
785.716	568.82
785.897	482.81
786.079	464.38
786.26	605.69
786.441	550.39
786.623	542.2
786.804	513.53
786.985	472.57
787.167	605.69
787.348	556.54
787.529	550.39
787.71	454.14
787.891	476.66
788.073	505.34
788.254	544.25
788.435	493.05
788.616	521.72
788.797	441.85
788.978	503.29
789.159	404.99
789.34	480.76
789.522	466.42
789.703	513.53
789.884	509.43
790.065	431.61
790.246	488.95
790.427	431.61
790.607	534.01
790.788	458.23
790.969	388.6
791.15	484.86
791.331	447.99
791.512	392.7
791.693	415.23
791.874	462.33
792.054	460.28
792.235	458.23
792.416	392.7
792.597	429.56
792.778	423.42
792.958	417.27
793.139	378.36
793.32	400.89
793.5	390.65
793.681	462.33
793.862	386.55
794.042	341.5
794.223	392.7
794.404	417.27
794.584	382.46
794.765	347.64
794.945	374.27
795.126	335.35
795.306	411.13
795.487	409.08
795.667	364.03
795.848	388.6
796.028	310.78
796.209	361.98
796.389	476.66
796.57	331.26
796.75	318.97
796.93	347.64
797.111	308.73
797.291	341.5
797.471	290.3
797.652	411.13
797.832	343.55
798.012	349.69
798.192	318.97
798.373	316.92
798.553	390.65
798.733	370.17
798.913	364.03
799.093	302.59
799.274	345.59
799.454	259.58
799.634	384.51
799.814	292.35
799.994	345.59
800.174	351.74
800.354	316.92
800.534	355.83
800.714	327.16
800.894	316.92
801.074	216.57
801.254	271.87
801.434	364.03
801.614	294.4
801.794	226.81
801.974	761.33
802.154	257.53
802.334	343.55
802.514	245.24
802.693	255.48
802.873	247.29
803.053	316.92
803.233	243.2
803.413	269.82
803.592	273.92
803.772	230.91
803.952	271.87
804.131	296.44
804.311	218.62
804.491	316.92
804.67	243.2
804.85	237.05
805.03	331.26
805.209	273.92
805.389	204.28
805.568	218.62
805.748	292.35
805.928	251.39
806.107	292.35
806.287	261.63
806.466	241.15
806.646	140.8
806.825	314.88
807.004	220.67
807.184	235
807.363	185.85
807.543	208.38
807.722	181.76
807.901	255.48
808.081	267.77
808.26	263.68
808.439	187.9
808.619	206.33
808.798	204.28
808.977	206.33
809.156	282.11
809.336	275.96
809.515	273.92
809.694	214.52
809.873	171.52
810.052	251.39
810.231	230.91
810.411	163.33
810.59	192
810.769	155.13
810.948	204.28
811.127	179.71
811.306	194.05
811.485	210.43
811.664	202.24
811.843	159.23
812.022	181.76
812.201	210.43
812.38	189.95
812.559	214.52
812.737	241.15
812.916	165.37
813.095	210.43
813.274	202.24
813.453	208.38
813.632	198.14
813.811	224.76
813.989	206.33
814.168	192
814.347	140.8
814.526	140.8
814.704	224.76
814.883	208.38
815.062	99.84
815.24	151.04
815.419	200.19
815.598	185.85
815.776	208.38
815.955	198.14
816.133	159.23
816.312	134.65
816.49	187.9
816.669	118.27
816.847	105.98
817.026	108.03
817.204	206.33
817.383	144.89
817.561	95.74
817.74	173.57
817.918	89.6
818.097	177.66
818.275	153.09
818.453	159.23
818.632	165.37
818.81	134.65
818.988	99.84
819.167	179.71
819.345	216.57
819.523	126.46
819.701	181.76
819.879	224.76
820.058	128.51
820.236	155.13
820.414	155.13
820.592	132.61
820.77	126.46
820.948	153.09
821.127	136.7
821.305	153.09
821.483	116.22
821.661	202.24
821.839	206.33
822.017	105.98
822.195	148.99
822.373	181.76
822.551	116.22
822.729	175.61
822.907	173.57
823.085	126.46
823.262	183.81
823.44	153.09
823.618	128.51
823.796	175.61
823.974	85.5
824.152	105.98
824.329	110.08
824.507	120.32
824.685	148.99
824.863	122.37
825.04	183.81
825.218	101.89
825.396	116.22
825.574	101.89
825.751	58.88
825.929	144.89
826.107	110.08
826.284	204.28
826.462	194.05
826.639	187.9
826.817	65.02
826.994	79.36
827.172	112.13
827.349	208.38
827.527	189.95
827.704	87.55
827.882	103.93
828.059	71.17
828.237	114.17
828.414	101.89
828.591	77.31
828.769	42.5
828.946	87.55
829.124	56.83
829.301	73.21
829.478	79.36
829.655	103.93
829.833	126.46
830.01	-12.8
830.187	89.6
830.364	79.36
830.542	93.69
830.719	157.18
830.896	85.5
831.073	52.74
831.25	101.89
831.427	83.45
831.604	130.56
831.782	60.93
831.959	67.07
832.136	-23.04
832.313	89.6
832.49	71.17
832.667	136.7
832.844	101.89
833.021	210.43
833.198	140.8
833.374	56.83
833.551	114.17
833.728	48.64
833.905	85.5
834.082	105.98
834.259	87.55
834.436	114.17
834.612	11.78
834.789	167.42
834.966	124.41
835.143	62.98
835.319	153.09
835.496	65.02
835.673	112.13
835.85	120.32
836.026	67.07
836.203	77.31
836.38	26.11
836.556	75.26
836.733	-0.51
836.909	89.6
837.086	56.83
837.262	40.45
837.439	65.02
837.616	99.84
837.792	91.65
837.968	155.13
838.145	67.07
838.321	34.3
838.498	34.3
838.674	28.16
838.851	-2.56
839.027	77.31
839.203	83.45
839.38	103.93
839.556	75.26
839.732	83.45
839.909	87.55
840.085	56.83
840.261	13.82
840.437	95.74
840.614	56.83
840.79	56.83
840.966	89.6
841.142	118.27
841.318	85.5
841.494	116.22
841.671	9.73
841.847	42.5
842.023	65.02
842.199	85.5
842.375	99.84
842.551	24.06
842.727	60.93
842.903	120.32
843.079	1.54
843.255	83.45
843.431	130.56
843.607	42.5
843.783	-16.9
843.959	89.6
844.134	46.59
844.31	95.74
844.486	5.63
844.662	79.36
844.838	85.5
845.013	56.83
845.189	56.83
845.365	62.98
845.541	40.45
845.716	44.54
845.892	-6.66
846.068	13.82
846.244	9.73
846.419	87.55
846.595	-14.85
846.77	67.07
846.946	52.74
847.122	73.21
847.297	46.59
847.473	73.21
847.648	-51.71
847.824	54.78
847.999	30.21
848.175	26.11
848.35	38.4
848.526	71.17
848.701	-14.85
848.876	110.08
849.052	34.3
849.227	58.88
849.403	26.11
849.578	89.6
849.753	32.26
849.929	46.59
850.104	-45.57
850.279	60.93
850.454	87.55
850.63	46.59
850.805	46.59
850.98	30.21
851.155	52.74
851.33	75.26
851.505	32.26
851.681	50.69
851.856	24.06
852.031	52.74
852.206	-6.66
852.381	81.41
852.556	58.88
852.731	73.21
852.906	48.64
853.081	19.97
853.256	108.03
853.431	118.27
853.606	58.88
853.781	36.35
853.956	36.35
854.131	103.93
854.305	40.45
854.48	46.59
854.655	79.36
854.83	-0.51
855.005	26.11
855.18	36.35
855.354	17.92
855.529	48.64
855.704	36.35
855.879	114.17
856.053	17.92
856.228	24.06
856.403	15.87
856.577	40.45
856.752	19.97
856.926	40.45
857.101	-10.75
857.276	42.5
857.45	26.11
857.625	15.87
857.799	-6.66
857.974	77.31
858.148	30.21
858.323	46.59
858.497	54.78
858.672	-6.66
858.846	-4.61
859.02	128.51
859.195	79.36
859.369	50.69
859.543	69.12
859.718	122.37
859.892	-6.66
860.066	36.35
860.241	77.31
860.415	9.73
860.589	-2.56
860.763	42.5
860.938	60.93
861.112	15.87
861.286	5.63
861.46	24.06
861.634	48.64
861.808	126.46
861.982	-16.9
862.157	50.69
862.331	101.89
862.505	-2.56
862.679	-39.42
862.853	52.74
863.027	30.21
863.201	26.11
863.375	24.06
863.549	-12.8
863.722	-14.85
863.896	28.16
864.07	-41.47
864.244	67.07
864.418	36.35
864.592	48.64
864.766	-0.51
864.939	44.54
865.113	17.92
865.287	62.98
865.461	-8.7
865.634	-23.04
865.808	-8.7
865.982	-14.85
866.156	58.88
866.329	9.73
866.503	42.5
866.676	75.26
866.85	-29.18
867.024	19.97
867.197	30.21
867.371	38.4
867.544	-20.99
867.718	71.17
867.891	40.45
868.065	38.4
868.238	54.78
868.412	46.59
868.585	24.06
868.759	71.17
868.932	-10.75
869.105	105.98
869.279	1.54
869.452	-18.94
869.625	32.26
869.799	-2.56
869.972	3.58
870.145	-10.75
870.319	17.92
870.492	77.31
870.665	-53.76
870.838	3.58
871.011	-41.47
871.185	19.97
871.358	19.97
871.531	93.69
871.704	73.21
871.877	1.54
872.05	34.3
872.223	-12.8
872.396	42.5
872.569	79.36
872.742	-14.85
872.915	1.54
873.088	34.3
873.261	26.11
873.434	34.3
873.607	11.78
873.78	48.64
873.953	24.06
874.126	58.88
874.299	-20.99
874.471	42.5
874.644	56.83
874.817	-51.71
874.99	34.3
875.163	-29.18
875.335	83.45
875.508	46.59
875.681	30.21
875.853	-12.8
876.026	-70.14
876.199	-29.18
876.371	22.02
876.544	-6.66
876.717	46.59
876.889	-23.04
877.062	-2.56
877.234	-0.51
877.407	-45.57
877.579	48.64
877.752	3.58
877.924	52.74
878.097	46.59
878.269	-35.33
878.442	9.73
878.614	28.16
878.786	73.21
878.959	56.83
879.131	-4.61
879.303	22.02
879.476	56.83
879.648	36.35
879.82	46.59
879.993	-74.24
880.165	-8.7
880.337	1.54
880.509	17.92
880.681	-12.8
880.854	95.74
881.026	-0.51
881.198	54.78
881.37	58.88
881.542	17.92
881.714	9.73
881.886	36.35
882.058	69.12
882.23	36.35
882.402	71.17
882.574	22.02
882.746	46.59
882.918	69.12
883.09	-12.8
883.262	73.21
883.434	-12.8
883.606	-10.75
883.778	-14.85
883.95	9.73
884.122	3.58
884.293	-12.8
884.465	-2.56
884.637	44.54
884.809	5.63
884.98	-31.23
885.152	-80.38
885.324	26.11
885.496	9.73
885.667	-16.9
885.839	-29.18
886.011	-12.8
886.182	17.92
886.354	28.16
886.525	5.63
886.697	50.69
886.869	44.54
887.04	15.87
887.212	22.02
887.383	50.69
887.555	-16.9
887.726	22.02
887.897	3.58
888.069	-0.51
888.24	89.6
888.412	40.45
888.583	15.87
888.754	30.21
888.926	32.26
889.097	-12.8
889.268	-29.18
889.44	36.35
889.611	-23.04
889.782	-12.8
889.953	-16.9
890.125	-8.7
890.296	-16.9
890.467	-37.38
890.638	26.11
890.809	-20.99
890.98	89.6
891.151	36.35
891.323	77.31
891.494	46.59
891.665	40.45
891.836	-43.52
892.007	-37.38
892.178	-27.14
892.349	3.58
892.52	19.97
892.691	40.45
892.862	52.74
893.032	11.78
893.203	28.16
893.374	9.73
893.545	65.02
893.716	9.73
893.887	-37.38
894.057	56.83
894.228	11.78
894.399	-59.9
894.57	32.26
894.74	34.3
894.911	28.16
895.082	-33.28
895.253	54.78
895.423	19.97
895.594	75.26
895.764	-18.94
895.935	-27.14
896.106	44.54
896.276	30.21
896.447	73.21
896.617	46.59
896.788	-45.57
896.958	-25.09
897.129	-8.7
897.299	30.21
897.47	17.92
897.64	54.78
897.81	9.73
897.981	3.58
898.151	-29.18
898.322	15.87
898.492	52.74
898.662	-4.61
898.832	81.41
899.003	3.58
899.173	34.3
899.343	-41.47
899.513	-25.09
