Data from USB4F104151__75__12-27-49-271.txt Node

Date: Fri Mar 14 12:27:49 EDT 2025
User: louis
Spectrometer: USB4F10415
Trigger mode: 4
Integration Time (sec): 2.000000E-2
Scans to average: 1
Electric dark correction enabled: true
Nonlinearity correction enabled: false
Boxcar width: 0
XAxis mode: Wavelengths
Number of Pixels in Spectrum: 3648
>>>>>Begin Spectral Data<<<<<
178.204	-105.98
178.424	-105.98
178.644	-105.98
178.864	-157.18
179.084	-22.02
179.304	-17.92
179.524	41.47
179.744	45.57
179.964	68.09
180.184	16.9
180.404	29.18
180.624	-11.78
180.844	-24.06
181.064	-26.11
181.283	-3.58
181.503	-112.13
181.723	-5.63
181.943	41.47
182.163	14.85
182.383	-3.58
182.602	-22.02
182.822	10.75
183.042	49.66
183.262	-46.59
183.482	-5.63
183.701	-52.74
183.921	-56.83
184.141	0.51
184.361	39.42
184.58	80.38
184.8	-7.68
185.02	2.56
185.239	-58.88
185.459	59.9
185.679	61.95
185.898	-22.02
186.118	-15.87
186.338	35.33
186.557	57.86
186.777	-38.4
186.997	-36.35
187.216	6.66
187.436	20.99
187.655	68.09
187.875	2.56
188.095	18.94
188.314	14.85
188.534	70.14
188.753	-7.68
188.973	66.05
189.192	72.19
189.412	16.9
189.631	-7.68
189.851	35.33
190.07	35.33
190.29	0.51
190.509	-22.02
190.729	2.56
190.948	16.9
191.168	84.48
191.387	35.33
191.607	0.51
191.826	111.1
192.045	-5.63
192.265	45.57
192.484	-46.59
192.704	47.62
192.923	-30.21
193.142	33.28
193.362	-17.92
193.581	49.66
193.8	23.04
194.02	12.8
194.239	6.66
194.458	8.7
194.678	-7.68
194.897	39.42
195.116	-3.58
195.335	41.47
195.555	66.05
195.774	-26.11
195.993	39.42
196.212	53.76
196.432	-24.06
196.651	-34.3
196.87	20.99
197.089	90.62
197.308	8.7
197.528	25.09
197.747	-34.3
197.966	-5.63
198.185	4.61
198.404	20.99
198.623	4.61
198.842	-50.69
199.062	18.94
199.281	61.95
199.5	20.99
199.719	49.66
199.938	55.81
200.157	55.81
200.376	-40.45
200.595	2.56
200.814	-3.58
201.033	-5.63
201.252	23.04
201.471	37.38
201.69	12.8
201.909	37.38
202.128	43.52
202.347	37.38
202.566	2.56
202.785	-54.78
203.004	-79.36
203.223	90.62
203.442	4.61
203.661	12.8
203.879	8.7
204.098	2.56
204.317	-28.16
204.536	29.18
204.755	135.68
204.974	-28.16
205.193	2.56
205.411	76.29
205.63	-19.97
205.849	-7.68
206.068	2.56
206.287	-13.82
206.505	35.33
206.724	6.66
206.943	53.76
207.162	-38.4
207.381	-26.11
207.599	-3.58
207.818	-15.87
208.037	84.48
208.255	25.09
208.474	20.99
208.693	-11.78
208.911	-42.5
209.13	43.52
209.349	41.47
209.567	18.94
209.786	-1.54
210.005	51.71
210.223	59.9
210.442	-73.21
210.661	-7.68
210.879	4.61
211.098	41.47
211.316	-83.45
211.535	12.8
211.753	-30.21
211.972	33.28
212.191	10.75
212.409	-11.78
212.628	8.7
212.846	-5.63
213.065	-48.64
213.283	45.57
213.502	-67.07
213.72	-15.87
213.938	-13.82
214.157	-36.35
214.375	-7.68
214.594	47.62
214.812	14.85
215.031	-17.92
215.249	-28.16
215.467	8.7
215.686	-11.78
215.904	16.9
216.122	14.85
216.341	-13.82
216.559	-26.11
216.778	-15.87
216.996	-28.16
217.214	0.51
217.432	-22.02
217.651	4.61
217.869	0.51
218.087	14.85
218.306	16.9
218.524	18.94
218.742	41.47
218.96	16.9
219.179	-13.82
219.397	-34.3
219.615	-5.63
219.833	25.09
220.051	12.8
220.27	-40.45
220.488	-56.83
220.706	20.99
220.924	-7.68
221.142	2.56
221.36	-26.11
221.578	-24.06
221.796	2.56
222.015	39.42
222.233	47.62
222.451	6.66
222.669	10.75
222.887	-1.54
223.105	-69.12
223.323	-30.21
223.541	4.61
223.759	51.71
223.977	-19.97
224.195	51.71
224.413	-38.4
224.631	90.62
224.849	-48.64
225.067	92.67
225.285	-44.54
225.503	47.62
225.721	31.23
225.939	88.57
226.157	-40.45
226.375	35.33
226.592	-38.4
226.81	47.62
227.028	41.47
227.246	-3.58
227.464	14.85
227.682	29.18
227.9	2.56
228.117	39.42
228.335	33.28
228.553	61.95
228.771	33.28
228.989	-30.21
229.206	86.53
229.424	-36.35
229.642	35.33
229.86	10.75
230.077	-15.87
230.295	-32.26
230.513	-24.06
230.731	41.47
230.948	59.9
231.166	-30.21
231.384	6.66
231.601	-36.35
231.819	0.51
232.037	-9.73
232.254	-42.5
232.472	-42.5
232.689	-7.68
232.907	64
233.125	2.56
233.342	-50.69
233.56	-67.07
233.777	10.75
233.995	39.42
234.213	53.76
234.43	-1.54
234.648	27.14
234.865	10.75
235.083	4.61
235.3	4.61
235.518	-46.59
235.735	90.62
235.953	16.9
236.17	-11.78
236.388	141.82
236.605	-1.54
236.822	82.43
237.04	41.47
237.257	66.05
237.475	23.04
237.692	14.85
237.909	20.99
238.127	20.99
238.344	59.9
238.562	53.76
238.779	12.8
238.996	-9.73
239.214	55.81
239.431	47.62
239.648	4.61
239.865	20.99
240.083	43.52
240.3	61.95
240.517	29.18
240.735	-30.21
240.952	14.85
241.169	-5.63
241.386	53.76
241.603	-56.83
241.821	-11.78
242.038	72.19
242.255	49.66
242.472	10.75
242.689	12.8
242.907	-1.54
243.124	35.33
243.341	76.29
243.558	10.75
243.775	45.57
243.992	12.8
244.209	64
244.426	41.47
244.643	55.81
244.86	-1.54
245.078	64
245.295	-17.92
245.512	18.94
245.729	23.04
245.946	2.56
246.163	27.14
246.38	96.77
246.597	64
246.814	-52.74
247.031	59.9
247.248	-24.06
247.464	0.51
247.681	-11.78
247.898	6.66
248.115	94.72
248.332	-30.21
248.549	-26.11
248.766	41.47
248.983	-26.11
249.2	61.95
249.417	23.04
249.633	8.7
249.85	31.23
250.067	37.38
250.284	-46.59
250.501	47.62
250.717	33.28
250.934	10.75
251.151	14.85
251.368	-5.63
251.585	64
251.801	6.66
252.018	-1.54
252.235	-24.06
252.451	100.86
252.668	33.28
252.885	20.99
253.102	-11.78
253.318	-22.02
253.535	-40.45
253.752	-42.5
253.968	-32.26
254.185	49.66
254.401	4.61
254.618	29.18
254.835	-75.26
255.051	33.28
255.268	0.51
255.484	-40.45
255.701	-9.73
255.917	25.09
256.134	-48.64
256.351	2.56
256.567	23.04
256.784	-40.45
257	14.85
257.217	-3.58
257.433	-22.02
257.65	43.52
257.866	12.8
258.082	47.62
258.299	37.38
258.515	68.09
258.732	8.7
258.948	-3.58
259.165	-17.92
259.381	70.14
259.597	82.43
259.814	12.8
260.03	2.56
260.246	-9.73
260.463	84.48
260.679	-9.73
260.895	-32.26
261.112	10.75
261.328	-71.17
261.544	8.7
261.761	92.67
261.977	33.28
262.193	-30.21
262.409	51.71
262.626	100.86
262.842	66.05
263.058	-50.69
263.274	55.81
263.49	0.51
263.707	41.47
263.923	49.66
264.139	-60.93
264.355	18.94
264.571	10.75
264.787	-30.21
265.004	57.86
265.22	47.62
265.436	41.47
265.652	10.75
265.868	-24.06
266.084	10.75
266.3	-17.92
266.516	-13.82
266.732	39.42
266.948	-11.78
267.164	20.99
267.38	6.66
267.596	10.75
267.812	8.7
268.028	20.99
268.244	-54.78
268.46	47.62
268.676	45.57
268.892	61.95
269.108	-24.06
269.324	-7.68
269.54	-26.11
269.756	37.38
269.972	-62.98
270.188	-19.97
270.403	92.67
270.619	-15.87
270.835	107.01
271.051	45.57
271.267	4.61
271.483	20.99
271.698	4.61
271.914	45.57
272.13	-1.54
272.346	-5.63
272.562	-42.5
272.777	80.38
272.993	-101.89
273.209	47.62
273.425	23.04
273.64	-26.11
273.856	47.62
274.072	-22.02
274.287	-52.74
274.503	64
274.719	16.9
274.934	27.14
275.15	-36.35
275.366	2.56
275.581	74.24
275.797	6.66
276.012	-5.63
276.228	-34.3
276.444	12.8
276.659	18.94
276.875	-15.87
277.09	-9.73
277.306	2.56
277.521	23.04
277.737	-17.92
277.952	0.51
278.168	-15.87
278.383	14.85
278.599	37.38
278.814	10.75
279.03	-32.26
279.245	49.66
279.461	29.18
279.676	4.61
279.892	16.9
280.107	-34.3
280.322	-7.68
280.538	64
280.753	-42.5
280.969	51.71
281.184	8.7
281.399	100.86
281.615	-79.36
281.83	-15.87
282.045	2.56
282.26	25.09
282.476	16.9
282.691	76.29
282.906	31.23
283.122	45.57
283.337	0.51
283.552	45.57
283.767	-30.21
283.983	8.7
284.198	-13.82
284.413	57.86
284.628	31.23
284.843	33.28
285.058	-50.69
285.274	10.75
285.489	-44.54
285.704	78.33
285.919	8.7
286.134	35.33
286.349	8.7
286.564	18.94
286.779	16.9
286.995	-17.92
287.21	16.9
287.425	-28.16
287.64	43.52
287.855	-17.92
288.07	-56.83
288.285	16.9
288.5	64
288.715	20.99
288.93	2.56
289.145	-13.82
289.36	51.71
289.575	-44.54
289.79	16.9
290.004	31.23
290.219	76.29
290.434	16.9
290.649	61.95
290.864	-13.82
291.079	-19.97
291.294	10.75
291.509	49.66
291.724	12.8
291.938	59.9
292.153	51.71
292.368	66.05
292.583	10.75
292.798	16.9
293.012	6.66
293.227	-28.16
293.442	45.57
293.657	-24.06
293.871	45.57
294.086	20.99
294.301	12.8
294.516	-13.82
294.73	-42.5
294.945	-9.73
295.16	6.66
295.374	41.47
295.589	76.29
295.804	61.95
296.018	68.09
296.233	-9.73
296.447	-5.63
296.662	70.14
296.877	-19.97
297.091	-22.02
297.306	4.61
297.52	-19.97
297.735	8.7
297.949	45.57
298.164	74.24
298.378	35.33
298.593	16.9
298.807	33.28
299.022	27.14
299.236	64
299.451	-28.16
299.665	39.42
299.88	-65.02
300.094	-26.11
300.309	-13.82
300.523	-34.3
300.737	-17.92
300.952	39.42
301.166	45.57
301.381	-11.78
301.595	80.38
301.809	37.38
302.024	-19.97
302.238	-58.88
302.452	2.56
302.667	12.8
302.881	23.04
303.095	2.56
303.309	61.95
303.524	-44.54
303.738	-1.54
303.952	78.33
304.166	-38.4
304.381	-9.73
304.595	-7.68
304.809	31.23
305.023	59.9
305.237	-13.82
305.452	55.81
305.666	-46.59
305.88	2.56
306.094	-56.83
306.308	-26.11
306.522	18.94
306.736	29.18
306.95	23.04
307.164	61.95
307.379	-5.63
307.593	35.33
307.807	27.14
308.021	33.28
308.235	61.95
308.449	-48.64
308.663	59.9
308.877	0.51
309.091	59.9
309.305	43.52
309.519	-42.5
309.733	82.43
309.947	20.99
310.161	20.99
310.374	84.48
310.588	33.28
310.802	4.61
311.016	-26.11
311.23	20.99
311.444	47.62
311.658	45.57
311.872	-5.63
312.085	8.7
312.299	25.09
312.513	-36.35
312.727	43.52
312.941	-40.45
313.154	33.28
313.368	16.9
313.582	51.71
313.796	-48.64
314.009	-7.68
314.223	-11.78
314.437	107.01
314.651	35.33
314.864	-30.21
315.078	61.95
315.292	-75.26
315.505	-28.16
315.719	33.28
315.933	23.04
316.146	41.47
316.36	-3.58
316.573	107.01
316.787	8.7
317.001	18.94
317.214	-105.98
317.428	27.14
317.641	39.42
317.855	-56.83
318.068	25.09
318.282	-17.92
318.495	49.66
318.709	-1.54
318.922	-24.06
319.136	47.62
319.349	64
319.563	-44.54
319.776	6.66
319.99	45.57
320.203	78.33
320.417	53.76
320.63	8.7
320.843	16.9
321.057	33.28
321.27	-11.78
321.483	12.8
321.697	70.14
321.91	-3.58
322.124	123.39
322.337	49.66
322.55	12.8
322.763	33.28
322.977	4.61
323.19	55.81
323.403	31.23
323.617	35.33
323.83	8.7
324.043	29.18
324.256	0.51
324.469	27.14
324.683	12.8
324.896	18.94
325.109	82.43
325.322	6.66
325.535	-52.74
325.748	35.33
325.962	0.51
326.175	49.66
326.388	20.99
326.601	-13.82
326.814	16.9
327.027	-9.73
327.24	29.18
327.453	-17.92
327.666	-22.02
327.879	68.09
328.092	2.56
328.305	6.66
328.518	-1.54
328.731	-5.63
328.944	-13.82
329.157	94.72
329.37	14.85
329.583	0.51
329.796	104.96
330.009	-38.4
330.222	51.71
330.435	31.23
330.648	-5.63
330.861	-24.06
331.073	16.9
331.286	70.14
331.499	-58.88
331.712	61.95
331.925	37.38
332.138	53.76
332.35	41.47
332.563	-75.26
332.776	82.43
332.989	-58.88
333.202	-62.98
333.414	61.95
333.627	-24.06
333.84	74.24
334.053	76.29
334.265	0.51
334.478	-3.58
334.691	61.95
334.903	-1.54
335.116	-15.87
335.329	-19.97
335.541	2.56
335.754	37.38
335.966	-79.36
336.179	31.23
336.392	-7.68
336.604	8.7
336.817	-3.58
337.029	109.05
337.242	57.86
337.454	12.8
337.667	2.56
337.88	90.62
338.092	-46.59
338.305	20.99
338.517	20.99
338.729	64
338.942	72.19
339.154	-3.58
339.367	6.66
339.579	-24.06
339.792	-54.78
340.004	98.81
340.217	14.85
340.429	66.05
340.641	35.33
340.854	47.62
341.066	35.33
341.278	66.05
341.491	115.2
341.703	39.42
341.915	-26.11
342.128	53.76
342.34	-1.54
342.552	35.33
342.764	64
342.977	-36.35
343.189	18.94
343.401	57.86
343.613	-62.98
343.826	25.09
344.038	8.7
344.25	64
344.462	-38.4
344.674	35.33
344.886	70.14
345.099	43.52
345.311	29.18
345.523	-26.11
345.735	27.14
345.947	16.9
346.159	14.85
346.371	-44.54
346.583	10.75
346.795	80.38
347.007	14.85
347.219	25.09
347.431	29.18
347.643	51.71
347.855	53.76
348.067	29.18
348.279	-5.63
348.491	31.23
348.703	-9.73
348.915	-17.92
349.127	20.99
349.339	113.15
349.551	4.61
349.763	37.38
349.975	31.23
350.187	88.57
350.399	45.57
350.61	74.24
350.822	51.71
351.034	104.96
351.246	4.61
351.458	57.86
351.669	2.56
351.881	70.14
352.093	86.53
352.305	76.29
352.517	33.28
352.728	96.77
352.94	2.56
353.152	-17.92
353.363	20.99
353.575	59.9
353.787	47.62
353.999	-52.74
354.21	31.23
354.422	43.52
354.633	-1.54
354.845	-56.83
355.057	61.95
355.268	8.7
355.48	20.99
355.692	31.23
355.903	41.47
356.115	35.33
356.326	25.09
356.538	-3.58
356.749	59.9
356.961	35.33
357.172	59.9
357.384	59.9
357.595	80.38
357.807	-40.45
358.018	86.53
358.23	14.85
358.441	39.42
358.653	66.05
358.864	-7.68
359.075	-13.82
359.287	-7.68
359.498	98.81
359.709	45.57
359.921	25.09
360.132	-17.92
360.344	39.42
360.555	23.04
360.766	61.95
360.977	14.85
361.189	74.24
361.4	27.14
361.611	113.15
361.823	66.05
362.034	49.66
362.245	23.04
362.456	33.28
362.667	16.9
362.879	33.28
363.09	-28.16
363.301	47.62
363.512	12.8
363.723	27.14
363.935	61.95
364.146	107.01
364.357	39.42
364.568	107.01
364.779	33.28
364.99	-48.64
365.201	27.14
365.412	70.14
365.623	8.7
365.834	16.9
366.045	84.48
366.256	102.91
366.467	-34.3
366.678	0.51
366.889	-34.3
367.1	-28.16
367.311	29.18
367.522	25.09
367.733	49.66
367.944	25.09
368.155	-60.93
368.366	-11.78
368.577	-13.82
368.788	12.8
368.999	6.66
369.209	14.85
369.42	76.29
369.631	-7.68
369.842	23.04
370.053	2.56
370.264	51.71
370.474	18.94
370.685	2.56
370.896	43.52
371.107	37.38
371.317	-19.97
371.528	-9.73
371.739	57.86
371.95	31.23
372.16	47.62
372.371	14.85
372.582	2.56
372.792	18.94
373.003	4.61
373.214	37.38
373.424	37.38
373.635	25.09
373.846	78.33
374.056	-7.68
374.267	8.7
374.477	23.04
374.688	23.04
374.898	0.51
375.109	74.24
375.319	53.76
375.53	61.95
375.74	55.81
375.951	-38.4
376.161	23.04
376.372	90.62
376.582	16.9
376.793	0.51
377.003	-3.58
377.214	37.38
377.424	0.51
377.635	12.8
377.845	61.95
378.055	107.01
378.266	31.23
378.476	-58.88
378.686	92.67
378.897	64
379.107	-9.73
379.317	35.33
379.528	35.33
379.738	104.96
379.948	20.99
380.158	4.61
380.369	-13.82
380.579	-7.68
380.789	100.86
380.999	47.62
381.21	12.8
381.42	57.86
381.63	84.48
381.84	41.47
382.05	59.9
382.261	78.33
382.471	29.18
382.681	20.99
382.891	-7.68
383.101	29.18
383.311	78.33
383.521	70.14
383.731	0.51
383.941	78.33
384.151	35.33
384.361	-9.73
384.571	80.38
384.781	39.42
384.991	55.81
385.201	53.76
385.411	115.2
385.621	102.91
385.831	-13.82
386.041	37.38
386.251	-24.06
386.461	53.76
386.671	33.28
386.881	20.99
387.091	51.71
387.301	109.05
387.511	33.28
387.72	92.67
387.93	33.28
388.14	94.72
388.35	33.28
388.56	27.14
388.769	78.33
388.979	84.48
389.189	8.7
389.399	6.66
389.609	76.29
389.818	80.38
390.028	84.48
390.238	10.75
390.447	-5.63
390.657	53.76
390.867	-3.58
391.076	-7.68
391.286	64
391.496	12.8
391.705	-1.54
391.915	29.18
392.125	20.99
392.334	27.14
392.544	88.57
392.753	102.91
392.963	74.24
393.172	4.61
393.382	-11.78
393.591	66.05
393.801	35.33
394.01	57.86
394.22	78.33
394.429	-22.02
394.639	25.09
394.848	66.05
395.058	64
395.267	8.7
395.477	12.8
395.686	66.05
395.895	12.8
396.105	80.38
396.314	49.66
396.524	94.72
396.733	102.91
396.942	121.34
397.152	55.81
397.361	139.77
397.57	70.14
397.78	164.35
397.989	61.95
398.198	76.29
398.407	29.18
398.617	55.81
398.826	61.95
399.035	100.86
399.244	90.62
399.453	53.76
399.663	68.09
399.872	123.39
400.081	16.9
400.29	72.19
400.499	57.86
400.708	150.01
400.917	55.81
401.127	49.66
401.336	59.9
401.545	90.62
401.754	41.47
401.963	123.39
402.172	39.42
402.381	59.9
402.59	66.05
402.799	70.14
403.008	150.01
403.217	78.33
403.426	70.14
403.635	90.62
403.844	104.96
404.053	94.72
404.262	76.29
404.471	147.97
404.68	133.63
404.888	100.86
405.097	133.63
405.306	82.43
405.515	47.62
405.724	80.38
405.933	78.33
406.142	115.2
406.35	158.21
406.559	145.92
406.768	84.48
406.977	147.97
407.185	152.06
407.394	141.82
407.603	195.07
407.812	139.77
408.02	164.35
408.229	178.69
408.438	215.55
408.646	154.11
408.855	178.69
409.064	268.8
409.272	160.25
409.481	248.32
409.69	231.93
409.898	164.35
410.107	201.21
410.315	258.56
410.524	244.22
410.733	356.86
410.941	272.89
411.15	258.56
411.358	295.42
411.567	289.28
411.775	291.32
411.984	399.87
412.192	320
412.401	256.51
412.609	332.28
412.818	315.9
413.026	424.44
413.234	369.15
413.443	358.91
413.651	346.62
413.86	449.02
414.068	451.07
414.276	377.34
414.485	430.59
414.693	508.41
414.901	565.75
415.11	475.64
415.318	508.41
415.526	637.43
415.734	600.57
415.943	647.67
416.151	625.14
416.359	631.29
416.567	664.05
416.776	676.34
416.984	764.4
417.192	782.84
417.4	764.4
417.608	713.21
417.817	737.78
418.025	897.52
418.233	915.95
418.441	907.76
418.649	911.86
418.857	971.25
419.065	975.35
419.273	915.95
419.481	983.54
419.689	1182.19
419.897	1047.02
420.105	1192.43
420.313	1200.62
420.521	1200.62
420.729	1243.63
420.937	1290.73
421.145	1382.89
421.353	1575.4
421.561	1483.24
421.769	1544.68
421.977	1622.5
422.185	1538.54
422.393	1722.85
422.601	1769.96
422.809	1751.53
423.017	1769.96
423.224	1790.44
423.432	1976.8
423.64	1939.94
423.848	2228.7
424.056	2138.59
424.263	2152.93
424.471	2284
424.679	2302.43
424.887	2337.24
425.094	2496.99
425.302	2458.07
425.51	2468.31
425.718	2603.48
425.925	2458.07
426.133	2771.41
426.341	2843.09
426.548	3051.99
426.756	3115.47
426.964	3049.94
427.171	3207.63
427.379	3295.69
427.586	3367.37
427.794	3604.94
428.001	3557.83
428.209	3824.07
428.417	3746.25
428.624	3996.1
428.832	4096.45
429.039	4069.83
429.247	4012.48
429.454	4266.43
429.662	4696.5
429.869	4336.06
430.076	4614.59
430.284	4565.43
430.491	4827.57
430.699	5200.3
430.906	5163.44
431.114	5226.93
431.321	5441.96
431.528	5534.12
431.736	5790.12
431.943	5992.87
432.15	5874.09
432.358	5902.76
432.565	6179.23
432.772	6263.2
432.979	6517.15
433.187	6537.63
433.394	6816.15
433.601	7158.16
433.808	7197.07
434.016	7172.5
434.223	7385.49
434.43	8003.97
434.637	7788.94
434.844	8288.64
435.052	8413.57
435.259	8243.59
435.466	8438.14
435.673	8192.39
435.88	8851.83
436.087	9415.02
436.294	9288.05
436.501	9292.15
436.708	9265.52
436.915	9836.91
437.122	9994.6
437.329	10097
437.537	10414.43
437.743	10658.14
437.95	10568.03
438.157	11022.68
438.364	11411.79
438.571	11385.17
438.778	11532.62
438.985	12611.9
439.192	11985.23
439.399	12259.65
439.606	12022.09
439.813	12941.63
440.02	13726
440.227	13615.41
440.433	13332.79
440.64	13726
440.847	13682.99
441.054	14029.1
441.261	14825.76
441.467	14688.54
441.674	14944.54
441.881	15556.88
442.088	15634.71
442.294	15372.57
442.501	15825.17
442.708	16253.19
442.914	16875.77
443.121	17637.62
443.328	17076.48
443.534	18350.31
443.741	17862.9
443.948	17371.38
444.154	18772.19
444.361	18829.54
444.568	18800.87
444.774	18792.67
444.981	18931.94
445.187	19538.13
445.394	20486.34
445.6	20242.64
445.807	22040.75
446.013	21135.55
446.22	21661.88
446.426	22456.49
446.633	22716.58
446.839	23345.31
447.046	22446.25
447.252	23646.36
447.459	23834.77
447.665	23625.88
447.871	24991.87
448.078	25432.19
448.284	24823.94
448.491	25303.17
448.697	26187.89
448.903	26740.84
449.11	26789.99
449.316	26108.02
449.522	26650.73
449.728	27533.4
449.935	27787.35
450.141	27856.98
450.347	28483.66
450.553	27381.85
450.76	27893.85
450.966	28731.47
451.172	28397.65
451.378	29300.8
451.584	28770.38
451.791	29485.12
451.997	29517.89
452.203	29808.7
452.409	29990.97
452.615	29526.08
452.821	28842.06
453.027	27887.7
453.233	29857.85
453.44	28555.34
453.646	28733.51
453.852	29005.89
454.058	29507.65
454.264	28534.86
454.47	29245.51
454.676	28522.57
454.882	29425.73
455.088	27127.91
455.294	27449.44
455.5	28057.68
455.705	27945.05
455.911	26822.76
456.117	26323.05
456.323	26067.06
456.529	24850.56
456.735	26077.3
456.941	25268.35
457.147	24719.49
457.352	23926.93
457.558	23986.32
457.764	23654.55
457.97	23705.75
458.176	22878.37
458.381	22663.33
458.587	21942.45
458.793	21504.18
458.999	20715.72
459.204	22214.83
459.41	21485.75
459.616	20195.53
459.821	20177.1
460.027	20158.67
460.233	19556.57
460.438	18786.53
460.644	18735.33
460.85	18110.7
461.055	17578.23
461.261	17688.82
461.466	16376.07
461.672	15974.67
461.878	16869.63
462.083	15960.33
462.289	15776.02
462.494	15497.49
462.7	14799.13
462.905	14520.61
463.111	15012.12
463.316	14864.67
463.522	14690.59
463.727	14612.77
463.932	14424.36
464.138	14410.02
464.343	14461.22
464.549	14162.22
464.754	14749.98
464.959	14367.01
465.165	14600.48
465.37	13457.71
465.575	13367.6
465.781	13914.41
465.986	13879.6
466.191	13470
466.397	13406.52
466.602	12685.63
466.807	13097.27
467.012	12800.32
467.218	12964.15
467.423	12910.91
467.628	13117.75
467.833	13355.32
468.038	12915
468.244	12552.51
468.449	13130.04
468.654	12577.09
468.859	12566.85
469.064	12538.18
469.269	12273.99
469.474	12171.59
469.679	12298.56
469.885	12091.72
470.09	12224.84
470.295	12265.8
470.5	11931.98
470.705	11907.4
470.91	11540.82
471.115	11309.4
471.32	11835.72
471.525	11632.97
471.73	11374.93
471.935	11366.74
472.139	10979.67
472.344	10918.23
472.549	11180.37
472.754	10961.24
472.959	10615.13
473.164	10396
473.369	10580.32
473.574	10785.12
473.778	10514.78
473.983	10496.35
474.188	10258.79
474.393	9945.45
474.598	10041.7
474.802	9767.27
475.007	9976.17
475.212	9843.05
475.417	9611.63
475.621	9404.78
475.826	9462.13
476.031	9367.92
476.235	9054.58
476.44	9415.02
476.645	9165.17
476.849	9230.71
477.054	9181.56
477.259	8937.85
477.463	8866.17
477.668	8782.2
477.872	8888.7
478.077	8530.3
478.282	8532.35
478.486	8593.79
478.691	8221.06
478.895	8302.98
479.1	8227.2
479.304	8339.84
479.509	7993.73
479.713	8089.99
479.918	7872.9
480.122	7899.53
480.326	7922.06
480.531	8065.41
480.735	7780.75
480.94	7842.18
481.144	8063.36
481.348	7678.35
481.553	8010.12
481.757	7592.33
481.961	7831.94
482.166	7823.75
482.37	7723.4
482.574	7696.78
482.778	7426.45
482.983	7795.08
483.187	7778.7
483.391	7741.83
483.595	7616.91
483.8	7506.32
484.004	7623.05
484.208	7713.16
484.412	7674.25
484.616	7649.68
484.821	7737.74
485.025	7463.31
485.229	7721.35
485.433	7670.15
485.637	7666.06
485.841	7670.15
486.045	7686.54
486.249	7625.1
486.453	7618.96
486.657	7565.71
486.861	7846.28
487.065	7516.56
487.269	7743.88
487.473	7467.41
487.677	7645.58
487.881	7799.18
488.085	7707.02
488.289	7868.81
488.493	7561.61
488.697	7774.6
488.901	7713.16
489.105	7725.45
489.309	7582.09
489.512	7776.65
489.716	7944.58
489.92	7760.27
490.124	7920.01
490.328	8036.74
490.531	7782.79
490.735	7756.17
490.939	7913.86
491.143	7899.53
491.346	7983.49
491.55	8042.89
491.754	8063.36
491.958	8157.57
492.161	8110.47
492.365	8165.76
492.569	8077.7
492.772	8294.79
492.976	8059.27
493.18	8210.82
493.383	8237.44
493.587	8286.59
493.79	8544.64
493.994	8360.32
494.197	8515.97
494.401	8589.69
494.605	8614.27
494.808	8821.11
495.012	8546.69
495.215	8821.11
495.419	8874.36
495.622	8819.07
495.825	8943.99
496.029	8956.28
496.232	9095.54
496.436	9042.29
496.639	9351.54
496.843	9412.98
497.046	9410.93
497.249	9556.33
497.453	9591.15
497.656	9662.83
497.859	9783.66
498.063	9566.57
498.266	9763.18
498.469	10039.65
498.673	9978.22
498.876	10266.98
499.079	10398.05
499.282	10424.67
499.485	10539.36
499.689	10768.73
499.892	10951
500.095	10869.08
500.298	11231.57
500.501	10948.95
500.705	11245.91
500.908	11432.27
501.111	11366.74
501.314	11604.3
501.517	11592.02
501.72	11888.97
501.923	11888.97
502.126	11954.51
502.329	12286.28
502.532	12462.4
502.735	12546.37
502.938	12769.6
503.141	12814.65
503.344	12933.43
503.547	12726.59
503.75	13228.34
503.953	13377.84
504.156	13529.39
504.359	13625.65
504.562	13703.47
504.765	13990.19
504.968	14022.95
505.17	14164.26
505.373	14149.93
505.576	14516.51
505.779	14739.74
505.982	14721.31
506.185	14969.12
506.387	14936.35
506.59	15337.75
506.793	15616.27
506.996	15577.36
507.198	15859.98
507.401	15868.17
507.604	15823.12
507.807	16245
508.009	16318.73
508.212	16437.51
508.415	16892.16
508.617	17008.89
508.82	16922.88
509.022	16691.46
509.225	17559.8
509.428	17344.76
509.63	18012.4
509.833	17852.66
510.035	18053.36
510.238	17961.2
510.44	18387.18
510.643	18485.48
510.845	18735.33
511.048	18612.45
511.25	19097.82
511.453	19149.02
511.655	19712.21
511.858	19513.56
512.06	19796.18
512.262	20013.26
512.465	19687.64
512.667	20408.52
512.87	20347.08
513.072	20691.14
513.274	21022.91
513.477	21254.33
513.679	21127.36
513.881	21485.75
514.084	21645.49
514.286	21711.03
514.488	21835.95
514.69	22466.73
514.893	22665.38
515.095	22558.89
515.297	22902.95
515.499	22798.5
515.701	23185.57
515.904	23347.36
516.106	23564.44
516.308	23726.23
516.51	24193.17
516.712	24084.62
516.914	24346.76
517.116	24727.69
517.318	24739.97
517.52	25018.5
517.722	25254.01
517.925	24846.47
518.127	25610.36
518.329	26351.73
518.531	25790.58
518.733	25987.19
518.935	26306.67
519.136	26673.26
519.338	26951.78
519.54	26587.24
519.742	27377.76
519.944	27134.05
520.146	27627.61
520.348	27725.91
520.55	28096.6
520.752	27949.14
520.954	28358.74
521.155	28307.54
521.357	28758.09
521.559	28647.5
521.761	29395.01
521.963	29419.58
522.164	29564.99
522.366	29392.96
522.568	29712.44
522.77	29714.49
522.971	30314.55
523.173	30058.55
523.375	30789.67
523.576	30298.16
523.778	30801.96
523.98	31049.77
524.181	31733.79
524.383	31342.63
524.584	31606.81
524.786	31907.87
524.988	31772.7
525.189	32045.08
525.391	32509.97
525.592	32315.41
525.794	32325.65
525.995	32401.43
526.197	32581.65
526.398	32727.05
526.6	33073.16
526.801	33087.5
527.003	33175.56
527.204	33204.23
527.406	33466.37
527.607	33366.02
527.808	33765.37
528.01	33277.96
528.211	33843.2
528.412	34310.13
528.614	33853.44
528.815	34469.87
529.016	34410.48
529.218	34074.62
529.419	34052.09
529.62	34717.68
529.822	34844.65
530.023	34447.35
530.224	34347
530.425	34791.41
530.626	34355.19
530.828	34265.08
531.029	34781.17
531.23	34654.19
531.431	34779.12
531.632	34865.13
531.833	35223.53
532.035	34985.96
532.236	35037.16
532.437	35264.49
532.638	35364.84
532.839	35188.71
533.04	35317.73
533.241	34865.13
533.442	36032.47
533.643	35381.22
533.844	35446.76
534.045	35643.36
534.246	35164.14
534.447	35540.96
534.648	35346.4
534.849	35639.26
535.05	35385.32
535.251	35352.55
535.451	35364.84
535.652	35739.61
535.853	35407.84
536.054	35540.96
536.255	35514.34
536.456	35459.04
536.657	35925.98
536.857	35520.48
537.058	35403.75
537.259	35905.5
537.46	35450.85
537.66	35581.92
537.861	35588.06
538.062	35747.81
538.263	35778.53
538.463	35481.57
538.664	35551.2
538.865	35809.25
539.065	36167.64
539.266	35772.38
539.466	35950.56
539.667	35084.26
539.868	36050.91
540.068	35559.39
540.269	35258.34
540.469	35729.37
540.67	35299.3
540.87	35737.57
541.071	35899.36
541.271	35915.74
541.472	35923.93
541.672	35456.99
541.873	35561.44
542.073	35250.15
542.274	35946.46
542.474	35882.97
542.675	35194.85
542.875	35545.06
543.075	35534.82
543.276	35315.69
543.476	35729.37
543.676	35549.15
543.877	36071.39
544.077	35854.3
544.277	35598.3
544.478	35438.56
544.678	35557.35
544.878	35198.95
545.078	35704.8
545.279	35233.77
545.479	35377.12
545.679	35506.15
545.879	35469.28
546.079	35456.99
546.28	35330.02
546.48	35375.08
546.68	35471.33
546.88	35461.09
547.08	35991.51
547.28	34981.87
547.48	35299.3
547.68	35583.97
547.88	35534.82
548.081	35416.04
548.281	35407.84
548.481	35674.08
548.681	35831.77
548.881	35321.83
549.081	35819.49
549.28	35389.41
549.48	35608.54
549.68	35475.43
549.88	35790.81
550.08	35397.6
550.28	35244.01
550.48	35090.41
550.68	35805.15
550.88	35405.8
551.08	35579.87
551.279	35639.26
551.479	35221.48
551.679	35665.89
551.879	35422.18
552.079	35854.3
552.278	34926.57
552.478	35338.21
552.678	35409.89
552.878	35618.78
553.077	35037.16
553.277	34998.25
553.477	35479.52
553.676	35379.17
553.876	35233.77
554.076	35129.32
554.275	35084.26
554.475	34895.85
554.674	35344.36
554.874	35188.71
555.074	35053.55
555.273	35102.7
555.473	35432.42
555.672	34791.41
555.872	35123.18
556.071	35178.47
556.271	35520.48
556.47	34897.9
556.67	34668.53
556.869	35028.97
557.068	34617.33
557.268	35033.07
557.467	35074.02
557.667	34783.21
557.866	34744.3
558.065	34822.12
558.265	34531.31
558.464	34461.68
558.663	34805.74
558.863	34428.91
559.062	35309.54
559.261	34471.92
559.461	34963.43
559.66	34502.64
559.859	34576.37
560.058	33918.97
560.258	34480.11
560.457	34207.73
560.656	34705.39
560.855	34017.27
561.054	34459.63
561.253	34177.01
561.453	34236.41
561.652	34353.14
561.851	34289.65
562.05	34277.36
562.249	33974.27
562.448	34291.7
562.647	33933.31
562.846	34025.46
563.045	33675.26
563.244	33712.13
563.443	33935.35
563.642	33386.5
563.841	33755.13
564.04	33486.85
564.239	33939.45
564.438	33572.86
564.637	33335.3
564.836	33525.76
565.035	33245.19
565.234	33484.8
565.432	33230.85
565.631	33468.42
565.83	33566.72
566.029	33032.2
566.228	33157.13
566.427	33032.2
566.625	33097.73
566.824	32294.93
567.023	33060.87
567.222	32311.31
567.42	32710.67
567.619	32581.65
567.818	32458.77
568.016	32428.05
568.215	32886.79
568.414	32641.04
568.612	32894.99
568.811	32606.22
569.01	32002.07
569.208	32116.76
569.407	32409.62
569.605	31932.44
569.804	32030.74
570.002	32014.36
570.201	32127
570.4	31647.77
570.598	31705.12
570.797	31696.92
570.995	31658.01
571.193	31455.26
571.392	31932.44
571.59	31088.68
571.789	31393.82
571.987	31463.46
572.186	31574.05
572.384	31156.26
572.582	31502.37
572.781	31516.7
572.979	31117.35
573.177	30906.41
573.376	31219.75
573.574	30570.54
573.772	31043.62
573.971	30705.71
574.169	30418.99
574.367	30574.64
574.565	30597.17
574.763	30763.05
574.962	30425.14
575.16	30369.84
575.358	30181.43
575.556	30042.17
575.754	30435.38
575.952	30007.35
576.151	30326.83
576.349	30001.21
576.547	29718.59
576.745	29894.71
576.943	29956.15
577.141	29982.77
577.339	29845.56
577.537	29691.96
577.735	29843.51
577.933	29614.14
578.131	29925.43
578.329	29132.87
578.527	29362.24
578.725	29249.6
578.923	29409.34
579.121	29560.89
579.319	28987.46
579.516	29448.25
579.714	29196.35
579.912	29182.02
580.11	28883.02
580.308	28858.44
580.506	29081.67
580.704	28311.63
580.901	28471.37
581.099	28667.98
581.297	28362.83
581.495	28362.83
581.692	28702.79
581.89	28102.74
582.088	28461.13
582.285	28160.08
582.483	28289.1
582.681	28305.49
582.878	27818.07
583.076	27947.09
583.274	27670.62
583.471	27631.71
583.669	27734.1
583.866	27861.08
584.064	27992.15
584.262	27316.32
584.459	27365.47
584.657	27304.03
584.854	27654.23
585.052	27179.11
585.249	27431.01
585.447	27187.3
585.644	26898.53
585.841	26988.64
586.039	27455.58
586.236	26738.79
586.434	26515.56
586.631	26916.97
586.828	27023.46
587.026	26413.16
587.223	26591.34
587.42	26560.62
587.618	26695.78
587.815	26447.98
588.012	26292.33
588.21	26056.82
588.407	26368.11
588.604	26202.22
588.801	25997.43
588.999	26112.11
589.196	25636.98
589.393	25868.41
589.59	25888.88
589.787	25776.25
589.984	25378.94
590.182	25378.94
590.379	25761.91
590.576	25401.47
590.773	25385.08
590.97	24903.81
591.167	25440.38
591.364	25243.77
591.561	25460.86
591.758	24965.25
591.955	25014.4
592.152	25428.09
592.349	24961.16
592.546	25145.47
592.743	25057.41
592.94	24440.97
593.137	24617.1
593.334	24825.99
593.531	24434.83
593.727	24574.09
593.924	24461.45
594.121	24498.31
594.318	24438.92
594.515	24297.61
594.712	24440.97
594.908	24289.42
595.105	24141.97
595.302	23943.31
595.499	24174.74
595.696	23847.06
595.892	23761.05
596.089	23568.54
596.286	23701.65
596.482	23916.69
596.679	23548.06
596.876	23670.93
597.072	23539.86
597.269	23625.88
597.466	23470.23
597.662	23392.41
597.859	23277.72
598.055	23324.83
598.252	22726.82
598.448	23025.82
598.645	23167.13
598.841	23019.68
599.038	22698.15
599.234	22722.73
599.431	22653.09
599.627	22460.59
599.824	22692.01
600.02	22368.43
600.217	22575.27
600.413	22657.19
600.609	22216.88
600.806	21944.5
601.002	22071.47
601.198	22102.19
601.395	21999.79
601.591	21911.73
601.787	21969.07
601.984	21797.04
602.18	21844.15
602.376	21878.96
602.572	21821.62
602.769	21819.57
602.965	21696.69
603.161	21604.53
603.357	21240
603.553	21479.61
603.75	21522.62
603.946	21487.8
604.142	21348.54
604.338	21131.45
604.534	20936.9
604.73	20859.07
604.926	21063.87
605.122	21043.39
605.318	20912.32
605.514	20908.22
605.71	20641.99
605.906	20816.07
606.102	20584.65
606.298	20713.67
606.494	20568.26
606.69	20797.63
606.886	20680.9
607.082	20283.59
607.278	20490.44
607.474	20228.3
607.67	20060.37
607.866	20228.3
608.062	20545.73
608.257	19937.49
608.453	20064.46
608.649	20181.2
608.845	19787.99
609.041	20017.36
609.236	20160.72
609.432	20279.5
609.628	20228.3
609.824	20115.66
610.019	19734.74
610.215	19810.51
610.411	19984.59
610.606	19511.51
610.802	19790.03
610.998	19749.07
611.193	19726.55
611.389	19507.41
611.584	19677.4
611.78	19728.59
611.976	19730.64
612.171	19439.83
612.367	19458.26
612.562	19439.83
612.758	19261.66
612.953	19517.65
613.149	19433.69
613.344	18940.13
613.539	19564.76
613.735	19382.49
613.93	19509.46
614.126	19357.91
614.321	19652.82
614.517	19341.53
614.712	19335.38
614.907	19081.44
615.103	19245.27
615.298	19210.46
615.493	19368.15
615.688	18606.31
615.884	19368.15
616.079	18905.31
616.274	19077.34
616.47	18772.19
616.665	18839.78
616.86	18663.65
617.055	18829.54
617.25	18688.23
617.445	19130.59
617.641	18225.39
617.836	18716.9
618.031	18151.66
618.226	18639.08
618.421	18475.24
618.616	18483.43
618.811	18288.87
619.006	18409.7
619.201	18043.12
619.396	18299.11
619.591	17938.67
619.786	18036.97
619.981	17723.63
620.176	18100.46
620.371	17727.73
620.566	17789.17
620.761	17621.24
620.956	17889.52
621.151	17447.16
621.346	17692.91
621.541	17041.66
621.735	17410.29
621.93	16810.24
622.125	17332.47
622.32	17090.81
622.515	16949.5
622.709	17066.24
622.904	16961.79
623.099	16587.01
623.294	17035.52
623.488	16546.05
623.683	16642.31
623.878	16236.81
624.072	16558.34
624.267	16333.06
624.462	16304.39
624.656	15974.67
624.851	16232.71
625.046	16093.45
625.24	15710.48
625.435	15640.85
625.629	15880.46
625.824	15718.67
626.018	15679.76
626.213	15065.37
626.407	15419.67
626.602	15427.86
626.796	15245.59
626.991	15071.51
627.185	15229.21
627.38	14874.91
627.574	14940.44
627.768	14987.55
627.963	14754.08
628.157	14749.98
628.352	14639.39
628.546	14487.84
628.74	14582.05
628.935	14393.64
629.129	14293.29
629.323	14184.74
629.517	14246.18
629.712	14156.07
629.906	14133.54
630.1	13807.92
630.294	13916.46
630.489	13893.93
630.683	13736.24
630.877	13695.28
631.071	13607.22
631.265	13558.07
631.459	13578.54
631.653	13265.21
631.848	13416.76
632.042	13338.93
632.236	13277.49
632.43	13261.11
632.624	13267.25
632.818	12958.01
633.012	12820.8
633.206	12679.49
633.4	12964.15
633.594	12581.18
633.788	12826.94
633.982	12681.53
634.176	12654.91
634.369	12454.21
634.563	12386.63
634.757	12370.24
634.951	12607.81
635.145	12204.36
635.339	12192.07
635.533	12198.21
635.726	12269.89
635.92	12165.45
636.114	11903.31
636.308	11872.59
636.501	11675.98
636.695	11897.16
636.889	11630.93
637.083	11835.72
637.276	11604.3
637.47	11600.21
637.664	11471.18
637.857	11598.16
638.051	11587.92
638.244	11620.69
638.438	11448.66
638.632	11250
638.825	11114.84
639.019	11135.32
639.212	10934.62
639.406	10850.65
639.599	10961.24
639.793	11022.68
639.986	10850.65
640.18	10740.06
640.373	10897.75
640.567	10596.7
640.76	10809.69
640.954	10633.57
641.147	10463.58
641.34	10660.19
641.534	10369.38
641.727	10512.74
641.92	10387.81
642.114	10219.88
642.307	10301.79
642.5	10058.09
642.694	10060.13
642.887	10115.43
643.08	10047.85
643.273	9847.15
643.467	9916.78
643.66	9990.5
643.853	9767.27
644.046	9576.81
644.239	9795.95
644.432	9763.18
644.626	9574.77
644.819	9482.61
645.012	9533.81
645.205	9498.99
645.398	9703.79
645.591	9660.78
645.784	9466.22
645.977	9329.01
646.17	9361.78
646.363	8943.99
646.556	9204.08
646.749	9134.45
646.942	9128.31
647.135	9036.15
647.328	8958.33
647.521	8804.73
647.714	8882.55
647.907	8733.05
648.099	8647.04
648.292	8790.39
648.485	8735.1
648.678	8731
648.871	8700.28
649.064	8712.57
649.256	8644.99
649.449	8364.42
649.642	8397.18
649.835	8397.18
650.027	8368.51
650.22	8317.31
650.413	8268.16
650.605	8239.49
650.798	8028.55
650.991	8171.91
651.183	8077.7
651.376	7997.83
651.568	8008.07
651.761	7950.73
651.954	8030.6
652.146	7856.52
652.339	7803.27
652.531	7887.24
652.724	7833.99
652.916	7520.65
653.109	7844.23
653.301	7743.88
653.494	7612.81
653.686	7463.31
653.879	7651.72
654.071	7524.75
654.263	7545.23
654.456	7553.42
654.648	7401.87
654.84	7367.06
655.033	7350.67
655.225	7291.28
655.417	7197.07
655.61	7524.75
655.802	7229.84
655.994	7311.76
656.186	7217.55
656.379	7180.69
656.571	6994.33
656.763	6939.03
656.955	7061.91
657.148	6986.13
657.34	6922.65
657.532	6820.25
657.724	6853.02
657.916	6936.98
658.108	6896.02
658.3	6834.58
658.492	6760.86
658.684	6785.43
658.876	6695.32
659.068	6715.8
659.26	6455.71
659.452	6687.13
659.644	6631.83
659.836	6586.78
660.028	6457.76
660.22	6453.66
660.412	6398.37
660.604	6269.34
660.796	6443.42
660.988	6308.26
661.18	6218.15
661.372	6164.9
661.563	6304.16
661.755	6158.75
661.947	6052.26
662.139	6242.72
662.331	6101.41
662.522	6064.55
662.714	6044.07
662.906	5857.7
663.097	5947.81
663.289	6117.79
663.481	5861.8
663.673	6007.2
663.864	5857.7
664.056	5796.26
664.247	5833.13
664.439	5798.31
664.631	5843.37
664.822	5720.49
665.014	5816.74
665.205	5657
665.397	5622.19
665.588	5702.06
665.78	5613.99
665.971	5525.93
666.163	5546.41
666.354	5650.86
666.546	5536.17
666.737	5562.8
666.929	5333.42
667.12	5413.29
667.311	5396.91
667.503	5423.53
667.694	5314.99
667.885	5454.25
668.077	5278.13
668.268	5292.46
668.459	5441.96
668.651	5312.94
668.842	5435.82
669.033	5247.41
669.224	5183.92
669.416	5194.16
669.607	5177.78
669.798	5200.3
669.989	5233.07
670.18	5099.95
670.371	5077.43
670.563	5097.91
670.754	5116.34
670.945	4985.27
671.136	5048.75
671.327	4956.6
671.518	4997.56
671.709	4852.15
671.9	4954.55
672.091	4893.11
672.282	4999.6
672.473	4968.88
672.664	4878.77
672.855	4811.19
673.046	4958.64
673.237	4915.64
673.428	4790.71
673.619	4821.43
673.809	4843.96
674	4762.04
674.191	4821.43
674.382	4659.64
674.573	4747.7
674.764	4757.94
674.954	4805.05
675.145	4581.82
675.336	4764.09
675.527	4770.23
675.717	4762.04
675.908	4579.77
676.099	4610.49
676.289	4616.63
676.48	4686.26
676.671	4661.69
676.861	4536.76
677.052	4454.84
677.243	4551.1
677.433	4473.28
677.624	4616.63
677.814	4491.71
678.005	4520.38
678.195	4479.42
678.386	4458.94
678.576	4561.34
678.767	4397.5
678.957	4483.52
679.148	4491.71
679.338	4389.31
679.529	4413.88
679.719	4454.84
679.909	4442.56
680.1	4284.86
680.29	4387.26
680.481	4399.55
680.671	4393.4
680.861	4334.01
681.052	4370.88
681.242	4397.5
681.432	4325.82
681.622	4362.69
681.813	4260.29
682.003	4325.82
682.193	4159.94
682.383	4334.01
682.573	4291.01
682.764	4239.81
682.954	4284.86
683.144	4422.08
683.334	4164.03
683.524	4182.46
683.714	4157.89
683.904	4215.23
684.094	4188.61
684.284	4254.14
684.474	4215.23
684.664	4159.94
684.854	4118.98
685.044	4194.75
685.234	4053.44
685.424	3944.9
685.614	4090.31
685.804	4133.31
685.994	4102.59
686.184	3842.5
686.374	4028.87
686.564	4145.6
686.753	4022.72
686.943	3957.19
687.133	4006.34
687.323	4047.3
687.513	3944.9
687.702	3899.84
687.892	3791.3
688.082	3949
688.272	3951.04
688.461	3897.8
688.651	3848.65
688.841	3752.39
689.03	3799.49
689.22	3727.82
689.41	3733.96
689.599	3779.01
689.789	3721.67
689.979	3680.71
690.168	3652.04
690.358	3490.25
690.547	3580.36
690.737	3680.71
690.926	3582.41
691.116	3543.5
691.305	3617.22
691.495	3467.72
691.684	3523.02
691.874	3531.21
692.063	3549.64
692.252	3369.42
692.442	3520.97
692.631	3451.34
692.82	3424.72
693.01	3418.57
693.199	3504.59
693.388	3385.8
693.578	3269.07
693.767	3174.86
693.956	3289.55
694.146	3414.48
694.335	3326.41
694.524	3336.65
694.713	3475.91
694.902	3367.37
695.092	3383.76
695.281	3344.84
695.47	3285.45
695.659	3170.77
695.848	3234.25
696.037	3262.93
696.226	3197.39
696.415	3295.69
696.604	3281.36
696.793	3168.72
696.982	3367.37
697.171	3174.86
697.36	3277.26
697.549	3080.66
697.738	3117.52
697.927	3113.42
698.116	3203.54
698.305	3160.53
698.494	3129.81
698.683	3021.27
698.872	3086.8
699.061	3221.97
699.25	3082.7
699.438	3133.9
699.627	3045.84
699.816	3070.42
700.005	3172.82
700.193	3115.47
700.382	3099.09
700.571	3031.51
700.76	2963.92
700.948	3082.7
701.137	3002.83
701.326	3062.23
701.514	2943.44
701.703	2984.4
701.892	3074.51
702.08	3068.37
702.269	3062.23
702.457	2990.55
702.646	3060.18
702.834	2902.48
703.023	3000.79
703.212	2916.82
703.4	3078.61
703.589	2859.48
703.777	2927.06
703.965	2933.2
704.154	3002.83
704.342	2951.63
704.531	2957.78
704.719	3045.84
704.907	2925.01
705.096	2902.48
705.284	2976.21
705.472	3021.27
705.661	2906.58
705.849	2951.63
706.037	2996.69
706.226	2961.87
706.414	2961.87
706.602	2740.69
706.79	3013.07
706.979	2900.44
707.167	2976.21
707.355	2970.07
707.543	2957.78
707.731	2980.31
707.919	2812.37
708.107	2879.96
708.296	2945.49
708.484	2871.76
708.672	2904.53
708.86	2808.28
709.048	3062.23
709.236	2824.66
709.424	3033.55
709.612	2929.11
709.8	2855.38
709.988	2972.11
710.176	2867.67
710.364	2832.85
710.551	2836.95
710.739	2769.37
710.927	2963.92
711.115	2968.02
711.303	2779.61
711.491	2892.24
711.679	2875.86
711.866	2896.34
712.054	2863.57
712.242	2867.67
712.43	2916.82
712.617	2937.3
712.805	2912.72
712.993	2931.16
713.181	2886.1
713.368	2832.85
713.556	2931.16
713.744	2779.61
713.931	2892.24
714.119	2978.26
714.306	2851.28
714.494	2888.15
714.682	2859.48
714.869	2822.61
715.057	2904.53
715.244	2793.94
715.432	2884.05
715.619	2904.53
715.807	2931.16
715.994	2927.06
716.182	3011.03
716.369	2834.9
716.556	2974.16
716.744	2910.68
716.931	2925.01
717.119	2965.97
717.306	2814.42
717.493	2818.52
717.681	2916.82
717.868	2908.63
718.055	2746.84
718.242	2922.96
718.43	2808.28
718.617	2863.57
718.804	3066.32
718.991	2814.42
719.179	2943.44
719.366	2949.59
719.553	2857.43
719.74	2922.96
719.927	2914.77
720.114	2853.33
720.301	3002.83
720.488	2894.29
720.676	2828.76
720.863	2980.31
721.05	2867.67
721.237	2925.01
721.424	2800.09
721.611	2916.82
721.798	2916.82
721.985	2902.48
722.172	2845.14
722.358	2834.9
722.545	2914.77
722.732	2855.38
722.919	2910.68
723.106	2972.11
723.293	2961.87
723.48	2855.38
723.667	2890.2
723.853	2904.53
724.04	2914.77
724.227	2943.44
724.414	2945.49
724.6	2781.65
724.787	2931.16
724.974	2812.37
725.161	2867.67
725.347	2867.67
725.534	2937.3
725.72	2861.52
725.907	2892.24
726.094	2847.19
726.28	2900.44
726.467	2900.44
726.653	2906.58
726.84	2922.96
727.027	2959.83
727.213	2771.41
727.4	2920.92
727.586	2798.04
727.773	3021.27
727.959	2900.44
728.145	2812.37
728.332	2945.49
728.518	2869.72
728.705	3049.94
728.891	2875.86
729.077	2873.81
729.264	2892.24
729.45	2800.09
729.636	2927.06
729.823	2765.27
730.009	2900.44
730.195	2908.63
730.382	2968.02
730.568	2863.57
730.754	2939.35
730.94	2884.05
731.126	2818.52
731.313	2931.16
731.499	2978.26
731.685	2949.59
731.871	2922.96
732.057	2970.07
732.243	2974.16
732.429	2812.37
732.615	2953.68
732.801	2927.06
732.987	2886.1
733.173	2834.9
733.359	2931.16
733.545	2892.24
733.731	2752.98
733.917	2857.43
734.103	2834.9
734.289	2804.18
734.475	2732.5
734.661	2861.52
734.847	2994.64
735.033	2767.32
735.219	2828.76
735.404	2787.8
735.59	2808.28
735.776	2922.96
735.962	2845.14
736.148	2847.19
736.333	2910.68
736.519	2771.41
736.705	2752.98
736.89	2828.76
737.076	2793.94
737.262	2781.65
737.447	2834.9
737.633	2791.89
737.819	2765.27
738.004	2683.35
738.19	2722.26
738.375	2798.04
738.561	2890.2
738.747	2806.23
738.932	2734.55
739.118	2699.73
739.303	2777.56
739.489	2783.7
739.674	2849.24
739.859	2595.29
740.045	2724.31
740.23	2806.23
740.416	2675.16
740.601	2691.54
740.786	2847.19
740.972	2746.84
741.157	2752.98
741.342	2605.53
741.528	2742.74
741.713	2595.29
741.898	2789.85
742.084	2662.87
742.269	2605.53
742.454	2804.18
742.639	2703.83
742.824	2593.24
743.01	2691.54
743.195	2554.33
743.38	2589.14
743.565	2664.92
743.75	2560.47
743.935	2482.65
744.12	2519.51
744.305	2507.23
744.49	2539.99
744.675	2443.74
744.86	2429.4
745.045	2496.99
745.23	2568.66
745.415	2539.99
745.6	2537.95
745.785	2427.35
745.97	2474.46
746.155	2406.88
746.34	2365.92
746.525	2410.97
746.71	2351.58
746.895	2294.24
747.079	2408.92
747.264	2310.62
747.449	2269.66
747.634	2314.72
747.819	2277.85
748.003	2216.41
748.188	2222.56
748.373	2175.45
748.557	2318.81
748.742	2251.23
748.927	2275.81
749.111	2175.45
749.296	2206.17
749.481	2165.21
749.665	2142.69
749.85	2085.34
750.034	2202.08
750.219	2181.6
750.404	2019.81
750.588	2179.55
750.773	1995.23
750.957	2120.16
751.141	2163.17
751.326	2101.73
751.51	2054.62
751.695	2019.81
751.879	1933.79
752.064	2005.47
752.248	2011.62
752.432	2025.95
752.617	1888.74
752.801	1958.37
752.985	1901.03
753.17	1970.66
753.354	1925.6
753.538	1903.07
753.722	1878.5
753.907	1835.49
754.091	1747.43
754.275	1849.83
754.459	1802.72
754.643	1804.77
754.828	1839.59
755.012	1802.72
755.196	1757.67
755.38	1767.91
755.564	1667.56
755.748	1696.23
755.932	1741.29
756.116	1755.62
756.3	1757.67
756.484	1739.24
756.668	1638.89
756.852	1696.23
757.036	1671.65
757.22	1645.03
757.404	1571.3
757.588	1618.41
757.772	1630.7
757.956	1491.43
758.14	1538.54
758.323	1552.87
758.507	1559.02
758.691	1536.49
758.875	1495.53
759.059	1409.51
759.242	1407.47
759.426	1450.47
759.61	1493.48
759.794	1397.23
759.977	1583.59
760.161	1485.29
760.345	1493.48
760.528	1442.28
760.712	1389.03
760.895	1518.06
761.079	1438.19
761.263	1452.52
761.446	1483.24
761.63	1425.9
761.813	1374.7
761.997	1438.19
762.18	1319.4
762.364	1354.22
762.547	1354.22
762.731	1333.74
762.914	1278.44
763.098	1317.36
763.281	1323.5
763.464	1253.87
763.648	1362.41
763.831	1276.4
764.015	1346.03
764.198	1327.6
764.381	1251.82
764.564	1311.21
764.748	1235.44
764.931	1341.93
765.114	1208.81
765.297	1358.32
765.481	1249.77
765.664	1307.12
765.847	1223.15
766.03	1272.3
766.213	1237.49
766.397	1278.44
766.58	1184.24
766.763	1200.62
766.946	1233.39
767.129	1214.96
767.312	1219.05
767.495	1241.58
767.678	1147.37
767.861	1139.18
768.044	1137.13
768.227	1133.04
768.41	1329.64
768.593	1161.71
768.776	1192.43
768.959	1094.13
769.142	1159.66
769.324	1149.42
769.507	1137.13
769.69	1059.31
769.873	1114.61
770.056	1167.85
770.239	1051.12
770.421	1104.37
770.604	1141.23
770.787	1051.12
770.97	1151.47
771.152	1081.84
771.335	1055.22
771.518	1036.78
771.7	1069.55
771.883	1114.61
772.066	1077.74
772.248	1044.98
772.431	1139.18
772.613	1004.02
772.796	999.92
772.978	1006.06
773.161	983.54
773.343	918
773.526	1004.02
773.708	934.39
773.891	922.1
774.073	918
774.256	860.66
774.438	1004.02
774.621	831.99
774.803	967.15
774.985	852.47
775.168	985.58
775.35	797.17
775.532	928.24
775.715	909.81
775.897	874.99
776.079	907.76
776.261	934.39
776.444	803.32
776.626	756.21
776.808	877.04
776.99	694.77
777.173	809.46
777.355	801.27
777.537	772.6
777.719	793.08
777.901	768.5
778.083	788.98
778.265	795.12
778.447	862.71
778.629	768.5
778.811	700.92
778.993	868.85
779.175	772.6
779.357	711.16
779.539	717.3
779.721	733.68
779.903	705.01
780.085	651.77
780.267	786.93
780.449	725.49
780.631	721.4
780.812	666.1
780.994	735.73
781.176	676.34
781.358	682.49
781.54	641.53
781.721	760.31
781.903	680.44
782.085	739.83
782.267	672.25
782.448	561.66
782.63	588.28
782.812	692.73
782.993	569.85
783.175	569.85
783.357	594.42
783.538	639.48
783.72	639.48
783.901	606.71
784.083	639.48
784.264	600.57
784.446	633.33
784.627	528.89
784.809	604.66
784.99	631.29
785.172	571.9
785.353	467.45
785.535	608.76
785.716	524.79
785.897	565.75
786.079	514.55
786.26	530.94
786.441	543.22
786.623	416.25
786.804	539.13
786.985	463.35
787.167	541.18
787.348	475.64
787.529	526.84
787.71	518.65
787.891	469.5
788.073	520.7
788.254	512.5
788.435	502.26
788.616	580.09
788.797	459.26
788.978	479.74
789.159	365.05
789.34	434.68
789.522	375.29
789.703	506.36
789.884	449.02
790.065	526.84
790.246	461.3
790.427	471.54
790.607	440.83
790.788	395.77
790.969	389.63
791.15	414.2
791.331	440.83
791.512	385.53
791.693	346.62
791.874	348.67
792.054	473.59
792.235	418.3
792.416	412.15
792.597	381.43
792.778	424.44
792.958	363
793.139	342.52
793.32	373.24
793.5	328.19
793.681	395.77
793.862	379.39
794.042	346.62
794.223	311.8
794.404	389.63
794.584	367.1
794.765	340.47
794.945	418.3
795.126	336.38
795.306	432.63
795.487	406.01
795.667	281.08
795.848	383.48
796.028	324.09
796.209	334.33
796.389	342.52
796.57	401.91
796.75	344.57
796.93	342.52
797.111	334.33
797.291	412.15
797.471	383.48
797.652	315.9
797.832	385.53
798.012	293.37
798.192	274.94
798.373	360.95
798.553	330.23
798.733	334.33
798.913	250.36
799.093	338.43
799.274	313.85
799.454	324.09
799.634	276.99
799.814	311.8
799.994	276.99
800.174	274.94
800.354	258.56
800.534	246.27
800.714	240.12
800.894	317.95
801.074	215.55
801.254	283.13
801.434	336.38
801.614	287.23
801.794	244.22
801.974	707.06
802.154	293.37
802.334	205.31
802.514	242.17
802.693	285.18
802.873	260.6
803.053	330.23
803.233	229.88
803.413	313.85
803.592	233.98
803.772	344.57
803.952	252.41
804.131	297.47
804.311	236.03
804.491	272.89
804.67	320
804.85	250.36
805.03	215.55
805.209	217.6
805.389	258.56
805.568	240.12
805.748	219.64
805.928	201.21
806.107	170.49
806.287	264.7
806.466	223.74
806.646	283.13
806.825	207.36
807.004	141.82
807.184	246.27
807.363	250.36
807.543	252.41
807.722	139.77
807.901	229.88
808.081	229.88
808.26	205.31
808.439	291.32
808.619	242.17
808.798	219.64
808.977	188.93
809.156	178.69
809.336	276.99
809.515	205.31
809.694	203.26
809.873	203.26
810.052	231.93
810.231	256.51
810.411	184.83
810.59	168.45
810.769	293.37
810.948	170.49
811.127	190.97
811.306	223.74
811.485	207.36
811.664	252.41
811.843	111.1
812.022	156.16
812.201	168.45
812.38	147.97
812.559	143.87
812.737	184.83
812.916	182.78
813.095	217.6
813.274	246.27
813.453	188.93
813.632	236.03
813.811	227.84
813.989	193.02
814.168	145.92
814.347	96.77
814.526	145.92
814.704	193.02
814.883	166.4
815.062	172.54
815.24	211.45
815.419	133.63
815.598	141.82
815.776	104.96
815.955	197.12
816.133	143.87
816.312	195.07
816.49	135.68
816.669	182.78
816.847	139.77
817.026	133.63
817.204	150.01
817.383	123.39
817.561	164.35
817.74	115.2
817.918	139.77
818.097	158.21
818.275	156.16
818.453	123.39
818.632	199.16
818.81	111.1
818.988	119.29
819.167	166.4
819.345	172.54
819.523	127.49
819.701	131.58
819.879	121.34
820.058	207.36
820.236	213.5
820.414	88.57
820.592	123.39
820.77	193.02
820.948	113.15
821.127	145.92
821.305	178.69
821.483	61.95
821.661	131.58
821.839	119.29
822.017	102.91
822.195	104.96
822.373	156.16
822.551	180.73
822.729	186.88
822.907	109.05
823.085	182.78
823.262	117.25
823.44	205.31
823.618	29.18
823.796	141.82
823.974	147.97
824.152	127.49
824.329	135.68
824.507	78.33
824.685	90.62
824.863	123.39
825.04	139.77
825.218	137.73
825.396	92.67
825.574	123.39
825.751	33.28
825.929	188.93
826.107	76.29
826.284	113.15
826.462	139.77
826.639	123.39
826.817	61.95
826.994	96.77
827.172	78.33
827.349	133.63
827.527	59.9
827.704	100.86
827.882	133.63
828.059	111.1
828.237	92.67
828.414	158.21
828.591	55.81
828.769	66.05
828.946	84.48
829.124	111.1
829.301	147.97
829.478	64
829.655	145.92
829.833	139.77
830.01	162.3
830.187	88.57
830.364	96.77
830.542	96.77
830.719	82.43
830.896	129.53
831.073	57.86
831.25	104.96
831.427	66.05
831.604	113.15
831.782	109.05
831.959	51.71
832.136	100.86
832.313	147.97
832.49	88.57
832.667	78.33
832.844	86.53
833.021	115.2
833.198	31.23
833.374	82.43
833.551	111.1
833.728	90.62
833.905	121.34
834.082	64
834.259	80.38
834.436	154.11
834.612	92.67
834.789	125.44
834.966	82.43
835.143	82.43
835.319	92.67
835.496	27.14
835.673	84.48
835.85	74.24
836.026	80.38
836.203	66.05
836.38	39.42
836.556	-22.02
836.733	129.53
836.909	115.2
837.086	102.91
837.262	100.86
837.439	82.43
837.616	92.67
837.792	129.53
837.968	45.57
838.145	4.61
838.321	74.24
838.498	55.81
838.674	68.09
838.851	86.53
839.027	84.48
839.203	41.47
839.38	18.94
839.556	119.29
839.732	82.43
839.909	14.85
840.085	53.76
840.261	88.57
840.437	84.48
840.614	33.28
840.79	100.86
840.966	49.66
841.142	78.33
841.318	84.48
841.494	43.52
841.671	88.57
841.847	43.52
842.023	-5.63
842.199	72.19
842.375	70.14
842.551	94.72
842.727	47.62
842.903	100.86
843.079	-22.02
843.255	14.85
843.431	31.23
843.607	47.62
843.783	72.19
843.959	51.71
844.134	33.28
844.31	49.66
844.486	16.9
844.662	55.81
844.838	86.53
845.013	55.81
845.189	4.61
845.365	43.52
845.541	53.76
845.716	14.85
845.892	68.09
846.068	139.77
846.244	41.47
846.419	104.96
846.595	64
846.77	61.95
846.946	72.19
847.122	49.66
847.297	119.29
847.473	29.18
847.648	4.61
847.824	59.9
847.999	4.61
848.175	-1.54
848.35	18.94
848.526	74.24
848.701	80.38
848.876	64
849.052	41.47
849.227	57.86
849.403	16.9
849.578	74.24
849.753	23.04
849.929	84.48
850.104	25.09
850.279	27.14
850.454	33.28
850.63	70.14
850.805	59.9
850.98	25.09
851.155	29.18
851.33	41.47
851.505	18.94
851.681	94.72
851.856	2.56
852.031	39.42
852.206	100.86
852.381	74.24
852.556	-17.92
852.731	45.57
852.906	86.53
853.081	4.61
853.256	23.04
853.431	35.33
853.606	27.14
853.781	16.9
853.956	-46.59
854.131	76.29
854.305	80.38
854.48	6.66
854.655	68.09
854.83	12.8
855.005	-44.54
855.18	31.23
855.354	86.53
855.529	-26.11
855.704	8.7
855.879	-30.21
856.053	27.14
856.228	2.56
856.403	-19.97
856.577	88.57
856.752	-1.54
856.926	8.7
857.101	12.8
857.276	35.33
857.45	80.38
857.625	25.09
857.799	8.7
857.974	6.66
858.148	-38.4
858.323	51.71
858.497	-30.21
858.672	-3.58
858.846	25.09
859.02	68.09
859.195	-50.69
859.369	-24.06
859.543	-17.92
859.718	80.38
859.892	-30.21
860.066	8.7
860.241	-58.88
860.415	43.52
860.589	-17.92
860.763	-1.54
860.938	14.85
861.112	76.29
861.286	53.76
861.46	57.86
861.634	76.29
861.808	31.23
861.982	-7.68
862.157	-7.68
862.331	41.47
862.505	82.43
862.679	47.62
862.853	-34.3
863.027	-19.97
863.201	18.94
863.375	20.99
863.549	-9.73
863.722	20.99
863.896	8.7
864.07	-36.35
864.244	6.66
864.418	20.99
864.592	72.19
864.766	-22.02
864.939	16.9
865.113	-32.26
865.287	31.23
865.461	6.66
865.634	10.75
865.808	49.66
865.982	8.7
866.156	-13.82
866.329	82.43
866.503	41.47
866.676	-5.63
866.85	14.85
867.024	-13.82
867.197	-13.82
867.371	53.76
867.544	-19.97
867.718	2.56
867.891	45.57
868.065	12.8
868.238	-13.82
868.412	12.8
868.585	-44.54
868.759	18.94
868.932	-5.63
869.105	57.86
869.279	33.28
869.452	61.95
869.625	-87.55
869.799	61.95
869.972	18.94
870.145	12.8
870.319	25.09
870.492	119.29
870.665	29.18
870.838	16.9
871.011	-40.45
871.185	-42.5
871.358	-40.45
871.531	12.8
871.704	12.8
871.877	18.94
872.05	-9.73
872.223	-79.36
872.396	33.28
872.569	66.05
872.742	-11.78
872.915	27.14
873.088	53.76
873.261	-5.63
873.434	-11.78
873.607	59.9
873.78	-15.87
873.953	31.23
874.126	-26.11
874.299	23.04
874.471	-24.06
874.644	-65.02
874.817	8.7
874.99	47.62
875.163	-9.73
875.335	41.47
875.508	4.61
875.681	-40.45
875.853	-13.82
876.026	33.28
876.199	-48.64
876.371	10.75
876.544	12.8
876.717	61.95
876.889	49.66
877.062	25.09
877.234	2.56
877.407	-1.54
877.579	-67.07
877.752	6.66
877.924	31.23
878.097	6.66
878.269	20.99
878.442	39.42
878.614	33.28
878.786	27.14
878.959	53.76
879.131	47.62
879.303	35.33
879.476	61.95
879.648	-22.02
879.82	-15.87
879.993	57.86
880.165	68.09
880.337	-1.54
880.509	37.38
880.681	25.09
880.854	-24.06
881.026	37.38
881.198	39.42
881.37	45.57
881.542	-30.21
881.714	-11.78
881.886	-34.3
882.058	-95.74
882.23	76.29
882.402	16.9
882.574	55.81
882.746	-40.45
882.918	12.8
883.09	6.66
883.262	-22.02
883.434	37.38
883.606	-65.02
883.778	18.94
883.95	-5.63
884.122	-11.78
884.293	-28.16
884.465	-60.93
884.637	29.18
884.809	-69.12
884.98	-15.87
885.152	68.09
885.324	12.8
885.496	10.75
885.667	-67.07
885.839	35.33
886.011	53.76
886.182	37.38
886.354	4.61
886.525	-15.87
886.697	25.09
886.869	-24.06
887.04	4.61
887.212	66.05
887.383	25.09
887.555	-9.73
887.726	45.57
887.897	4.61
888.069	-48.64
888.24	-81.41
888.412	78.33
888.583	23.04
888.754	16.9
888.926	-22.02
889.097	-30.21
889.268	27.14
889.44	-69.12
889.611	31.23
889.782	-44.54
889.953	-22.02
890.125	94.72
890.296	-3.58
890.467	12.8
890.638	-19.97
890.809	45.57
890.98	-56.83
891.151	-9.73
891.323	23.04
891.494	61.95
891.665	18.94
891.836	-56.83
892.007	51.71
892.178	92.67
892.349	-46.59
892.52	-13.82
892.691	35.33
892.862	-48.64
893.032	-95.74
893.203	64
893.374	18.94
893.545	14.85
893.716	57.86
893.887	-13.82
894.057	-91.65
894.228	33.28
894.399	55.81
894.57	33.28
894.74	-48.64
894.911	-50.69
895.082	0.51
895.253	-56.83
895.423	33.28
895.594	0.51
895.764	-24.06
895.935	-26.11
896.106	-5.63
896.276	-22.02
896.447	-1.54
896.617	41.47
896.788	12.8
896.958	-60.93
897.129	55.81
897.299	14.85
897.47	-13.82
897.64	10.75
897.81	27.14
897.981	25.09
898.151	18.94
898.322	86.53
898.492	27.14
898.662	-58.88
898.832	-1.54
899.003	0.51
899.173	-79.36
899.343	18.94
899.513	-52.74
