Data from USB4F104151__58__12-27-37-892.txt Node

Date: Fri Mar 14 12:27:37 EDT 2025
User: louis
Spectrometer: USB4F10415
Trigger mode: 4
Integration Time (sec): 2.000000E-2
Scans to average: 1
Electric dark correction enabled: true
Nonlinearity correction enabled: false
Boxcar width: 0
XAxis mode: Wavelengths
Number of Pixels in Spectrum: 3648
>>>>>Begin Spectral Data<<<<<
178.204	-67.24
178.424	-67.24
178.644	-67.24
178.864	-34.47
179.084	-75.43
179.304	-7.85
179.524	-22.19
179.744	0.34
179.964	22.87
180.184	26.96
180.404	-40.62
180.624	72.02
180.844	24.92
181.064	-34.47
181.283	12.63
181.503	-67.24
181.723	12.63
181.943	-3.75
182.163	112.98
182.383	8.53
182.602	-11.95
182.822	61.78
183.042	-22.19
183.262	16.73
183.482	-5.8
183.701	26.96
183.921	49.49
184.141	-26.28
184.361	26.96
184.58	39.25
184.8	29.01
185.02	-69.29
185.239	-13.99
185.459	-67.24
185.679	-48.81
185.898	-36.52
186.118	41.3
186.338	31.06
186.557	35.16
186.777	-28.33
186.997	-34.47
187.216	76.12
187.436	29.01
187.655	41.3
187.875	22.87
188.095	31.06
188.314	18.77
188.534	31.06
188.753	33.11
188.973	-24.23
189.192	92.5
189.412	63.83
189.631	-18.09
189.851	59.73
190.07	43.35
190.29	-22.19
190.509	-3.75
190.729	51.54
190.948	76.12
191.168	98.64
191.387	76.12
191.607	49.49
191.826	86.36
192.045	45.4
192.265	78.16
192.484	96.6
192.704	22.87
192.923	-46.76
193.142	90.45
193.362	37.2
193.581	-3.75
193.8	63.83
194.02	37.2
194.239	24.92
194.458	-3.75
194.678	2.39
194.897	24.92
195.116	2.39
195.335	41.3
195.555	61.78
195.774	8.53
195.993	84.31
196.212	14.68
196.432	-20.14
196.651	43.35
196.87	-52.91
197.089	10.58
197.308	24.92
197.528	0.34
197.747	-18.09
197.966	-91.82
198.185	-1.71
198.404	12.63
198.623	45.4
198.842	45.4
199.062	117.08
199.281	110.93
199.5	2.39
199.719	8.53
199.938	12.63
200.157	41.3
200.376	26.96
200.595	-63.15
200.814	2.39
201.033	53.59
201.252	0.34
201.471	-18.09
201.69	41.3
201.909	37.2
202.128	29.01
202.347	69.97
202.566	-9.9
202.785	45.4
203.004	24.92
203.223	-7.85
203.442	29.01
203.661	29.01
203.879	4.44
204.098	57.68
204.317	96.6
204.536	33.11
204.755	2.39
204.974	37.2
205.193	-9.9
205.411	112.98
205.63	-30.38
205.849	0.34
206.068	49.49
206.287	53.59
206.505	69.97
206.724	76.12
206.943	-54.95
207.162	-22.19
207.381	35.16
207.599	-16.04
207.818	18.77
208.037	47.44
208.255	39.25
208.474	51.54
208.693	33.11
208.911	-16.04
209.13	-16.04
209.349	4.44
209.567	12.63
209.786	98.64
210.005	115.03
210.223	12.63
210.442	-34.47
210.661	49.49
210.879	82.26
211.098	-3.75
211.316	-7.85
211.535	6.49
211.753	-13.99
211.972	4.44
212.191	-28.33
212.409	37.2
212.628	92.5
212.846	14.68
213.065	53.59
213.283	92.5
213.502	-22.19
213.72	-3.75
213.938	-11.95
214.157	-9.9
214.375	16.73
214.594	63.83
214.812	53.59
215.031	43.35
215.249	-5.8
215.467	-59.05
215.686	8.53
215.904	45.4
216.122	16.73
216.341	0.34
216.559	-3.75
216.778	47.44
216.996	-26.28
217.214	-30.38
217.432	10.58
217.651	88.4
217.869	35.16
218.087	26.96
218.306	-42.67
218.524	80.21
218.742	-36.52
218.96	72.02
219.179	86.36
219.397	20.82
219.615	80.21
219.833	4.44
220.051	53.59
220.27	61.78
220.488	39.25
220.706	41.3
220.924	37.2
221.142	0.34
221.36	4.44
221.578	16.73
221.796	-9.9
222.015	65.88
222.233	39.25
222.451	80.21
222.669	33.11
222.887	41.3
223.105	18.77
223.323	24.92
223.541	-24.23
223.759	47.44
223.977	26.96
224.195	-1.71
224.413	18.77
224.631	63.83
224.849	51.54
225.067	18.77
225.285	67.92
225.503	96.6
225.721	20.82
225.939	67.92
226.157	47.44
226.375	63.83
226.592	-50.86
226.81	-18.09
227.028	29.01
227.246	53.59
227.464	8.53
227.682	65.88
227.9	74.07
228.117	49.49
228.335	100.69
228.553	49.49
228.771	-7.85
228.989	57.68
229.206	22.87
229.424	41.3
229.642	96.6
229.86	16.73
230.077	61.78
230.295	53.59
230.513	110.93
230.731	4.44
230.948	59.73
231.166	24.92
231.384	-42.67
231.601	31.06
231.819	31.06
232.037	33.11
232.254	18.77
232.472	26.96
232.689	-36.52
232.907	-7.85
233.125	26.96
233.342	72.02
233.56	0.34
233.777	47.44
233.995	49.49
234.213	63.83
234.43	-24.23
234.648	78.16
234.865	14.68
235.083	18.77
235.3	-57
235.518	37.2
235.735	22.87
235.953	33.11
236.17	-11.95
236.388	-16.04
236.605	43.35
236.822	86.36
237.04	-7.85
237.257	49.49
237.475	-18.09
237.692	26.96
237.909	-3.75
238.127	74.07
238.344	41.3
238.562	12.63
238.779	41.3
238.996	102.74
239.214	-26.28
239.431	4.44
239.648	-3.75
239.865	49.49
240.083	16.73
240.3	35.16
240.517	10.58
240.735	29.01
240.952	26.96
241.169	31.06
241.386	37.2
241.603	-11.95
241.821	-36.52
242.038	26.96
242.255	86.36
242.472	-36.52
242.689	14.68
242.907	41.3
243.124	0.34
243.341	8.53
243.558	35.16
243.775	-16.04
243.992	33.11
244.209	98.64
244.426	65.88
244.643	29.01
244.86	6.49
245.078	80.21
245.295	16.73
245.512	18.77
245.729	26.96
245.946	47.44
246.163	-30.38
246.38	-3.75
246.597	104.79
246.814	-5.8
247.031	6.49
247.248	65.88
247.464	-34.47
247.681	47.44
247.898	72.02
248.115	-5.8
248.332	-16.04
248.549	49.49
248.766	84.31
248.983	8.53
249.2	8.53
249.417	57.68
249.633	29.01
249.85	45.4
250.067	-1.71
250.284	-32.43
250.501	31.06
250.717	8.53
250.934	4.44
251.151	37.2
251.368	90.45
251.585	33.11
251.801	61.78
252.018	-7.85
252.235	100.69
252.451	24.92
252.668	-24.23
252.885	-46.76
253.102	4.44
253.318	-9.9
253.535	26.96
253.752	8.53
253.968	59.73
254.185	49.49
254.401	133.46
254.618	26.96
254.835	8.53
255.051	47.44
255.268	-24.23
255.484	20.82
255.701	6.49
255.917	29.01
256.134	-44.71
256.351	22.87
256.567	24.92
256.784	-38.57
257	24.92
257.217	12.63
257.433	141.65
257.65	-59.05
257.866	53.59
258.082	16.73
258.299	12.63
258.515	31.06
258.732	86.36
258.948	-28.33
259.165	63.83
259.381	14.68
259.597	-11.95
259.814	-5.8
260.03	2.39
260.246	65.88
260.463	59.73
260.679	12.63
260.895	-22.19
261.112	104.79
261.328	4.44
261.544	-50.86
261.761	65.88
261.977	26.96
262.193	-3.75
262.409	35.16
262.626	-16.04
262.842	37.2
263.058	72.02
263.274	-1.71
263.49	63.83
263.707	61.78
263.923	31.06
264.139	-11.95
264.355	29.01
264.571	49.49
264.787	35.16
265.004	29.01
265.22	31.06
265.436	-7.85
265.652	-16.04
265.868	33.11
266.084	-18.09
266.3	80.21
266.516	-1.71
266.732	41.3
266.948	55.64
267.164	18.77
267.38	29.01
267.596	-20.14
267.812	78.16
268.028	22.87
268.244	53.59
268.46	26.96
268.676	33.11
268.892	14.68
269.108	49.49
269.324	12.63
269.54	-9.9
269.756	16.73
269.972	24.92
270.188	35.16
270.403	18.77
270.619	4.44
270.835	-124.58
271.051	-36.52
271.267	-1.71
271.483	45.4
271.698	61.78
271.914	51.54
272.13	57.68
272.346	24.92
272.562	-44.71
272.777	16.73
272.993	-18.09
273.209	-3.75
273.425	67.92
273.64	-81.58
273.856	59.73
274.072	45.4
274.287	4.44
274.503	76.12
274.719	45.4
274.934	0.34
275.15	0.34
275.366	31.06
275.581	-65.19
275.797	8.53
276.012	-13.99
276.228	67.92
276.444	39.25
276.659	-16.04
276.875	-22.19
277.09	29.01
277.306	53.59
277.521	80.21
277.737	74.07
277.952	110.93
278.168	74.07
278.383	20.82
278.599	-3.75
278.814	82.26
279.03	47.44
279.245	39.25
279.461	29.01
279.676	117.08
279.892	-16.04
280.107	-5.8
280.322	49.49
280.538	0.34
280.753	-30.38
280.969	102.74
281.184	-22.19
281.399	90.45
281.615	-1.71
281.83	39.25
282.045	47.44
282.26	-18.09
282.476	-3.75
282.691	20.82
282.906	65.88
283.122	49.49
283.337	14.68
283.552	37.2
283.767	53.59
283.983	47.44
284.198	86.36
284.413	45.4
284.628	6.49
284.843	65.88
285.058	59.73
285.274	35.16
285.489	51.54
285.704	20.82
285.919	-30.38
286.134	123.22
286.349	-24.23
286.564	49.49
286.779	82.26
286.995	39.25
287.21	33.11
287.425	45.4
287.64	74.07
287.855	72.02
288.07	74.07
288.285	43.35
288.5	94.55
288.715	55.64
288.93	-3.75
289.145	-9.9
289.36	33.11
289.575	0.34
289.79	127.32
290.004	8.53
290.219	155.99
290.434	67.92
290.649	47.44
290.864	-28.33
291.079	45.4
291.294	33.11
291.509	67.92
291.724	0.34
291.938	4.44
292.153	43.35
292.368	-38.57
292.583	20.82
292.798	18.77
293.012	-20.14
293.227	29.01
293.442	-9.9
293.657	6.49
293.871	92.5
294.086	57.68
294.301	112.98
294.516	-30.38
294.73	57.68
294.945	31.06
295.16	63.83
295.374	117.08
295.589	57.68
295.804	-26.28
296.018	14.68
296.233	2.39
296.447	69.97
296.662	-5.8
296.877	49.49
297.091	78.16
297.306	45.4
297.52	6.49
297.735	16.73
297.949	96.6
298.164	47.44
298.378	-13.99
298.593	33.11
298.807	-67.24
299.022	43.35
299.236	45.4
299.451	69.97
299.665	-1.71
299.88	-1.71
300.094	65.88
300.309	12.63
300.523	-52.91
300.737	16.73
300.952	72.02
301.166	88.4
301.381	41.3
301.595	-7.85
301.809	18.77
302.024	41.3
302.238	88.4
302.452	-7.85
302.667	78.16
302.881	84.31
303.095	10.58
303.309	10.58
303.524	59.73
303.738	53.59
303.952	43.35
304.166	55.64
304.381	39.25
304.595	10.58
304.809	31.06
305.023	110.93
305.237	35.16
305.452	82.26
305.666	20.82
305.88	20.82
306.094	6.49
306.308	78.16
306.522	-3.75
306.736	-40.62
306.95	51.54
307.164	6.49
307.379	45.4
307.593	121.17
307.807	-22.19
308.021	82.26
308.235	57.68
308.449	-9.9
308.663	31.06
308.877	53.59
309.091	65.88
309.305	43.35
309.519	45.4
309.733	74.07
309.947	41.3
310.161	143.7
310.374	4.44
310.588	90.45
310.802	43.35
311.016	76.12
311.23	24.92
311.444	-1.71
311.658	10.58
311.872	8.53
312.085	41.3
312.299	80.21
312.513	98.64
312.727	86.36
312.941	49.49
313.154	14.68
313.368	24.92
313.582	65.88
313.796	-48.81
314.009	-7.85
314.223	33.11
314.437	86.36
314.651	16.73
314.864	-20.14
315.078	-1.71
315.292	0.34
315.505	57.68
315.719	0.34
315.933	69.97
316.146	29.01
316.36	63.83
316.573	121.17
316.787	8.53
317.001	16.73
317.214	78.16
317.428	41.3
317.641	-3.75
317.855	117.08
318.068	51.54
318.282	76.12
318.495	84.31
318.709	69.97
318.922	55.64
319.136	123.22
319.349	2.39
319.563	-7.85
319.776	100.69
319.99	6.49
320.203	24.92
320.417	41.3
320.63	63.83
320.843	55.64
321.057	37.2
321.27	69.97
321.483	31.06
321.697	88.4
321.91	-9.9
322.124	72.02
322.337	6.49
322.55	33.11
322.763	45.4
322.977	26.96
323.19	76.12
323.403	10.58
323.617	24.92
323.83	-3.75
324.043	-11.95
324.256	10.58
324.469	90.45
324.683	55.64
324.896	31.06
325.109	61.78
325.322	-18.09
325.535	88.4
325.748	61.78
325.962	22.87
326.175	35.16
326.388	33.11
326.601	84.31
326.814	59.73
327.027	59.73
327.24	-11.95
327.453	-5.8
327.666	37.2
327.879	67.92
328.092	24.92
328.305	20.82
328.518	24.92
328.731	29.01
328.944	33.11
329.157	53.59
329.37	-11.95
329.583	117.08
329.796	49.49
330.009	82.26
330.222	67.92
330.435	51.54
330.648	18.77
330.861	53.59
331.073	16.73
331.286	96.6
331.499	49.49
331.712	-7.85
331.925	8.53
332.138	-7.85
332.35	100.69
332.563	10.58
332.776	92.5
332.989	18.77
333.202	-11.95
333.414	45.4
333.627	41.3
333.84	63.83
334.053	6.49
334.265	57.68
334.478	55.64
334.691	-44.71
334.903	33.11
335.116	18.77
335.329	20.82
335.541	41.3
335.754	100.69
335.966	121.17
336.179	65.88
336.392	31.06
336.604	82.26
336.817	-5.8
337.029	82.26
337.242	69.97
337.454	90.45
337.667	-30.38
337.88	41.3
338.092	65.88
338.305	51.54
338.517	12.63
338.729	43.35
338.942	14.68
339.154	-42.67
339.367	4.44
339.579	6.49
339.792	39.25
340.004	24.92
340.217	-20.14
340.429	108.88
340.641	18.77
340.854	47.44
341.066	39.25
341.278	69.97
341.491	102.74
341.703	110.93
341.915	26.96
342.128	78.16
342.34	35.16
342.552	-1.71
342.764	24.92
342.977	59.73
343.189	20.82
343.401	43.35
343.613	-54.95
343.826	61.78
344.038	49.49
344.25	74.07
344.462	33.11
344.674	41.3
344.886	4.44
345.099	61.78
345.311	92.5
345.523	6.49
345.735	12.63
345.947	94.55
346.159	29.01
346.371	53.59
346.583	53.59
346.795	131.41
347.007	-1.71
347.219	-18.09
347.431	24.92
347.643	55.64
347.855	10.58
348.067	18.77
348.279	18.77
348.491	20.82
348.703	43.35
348.915	24.92
349.127	76.12
349.339	12.63
349.551	-18.09
349.763	26.96
349.975	72.02
350.187	143.7
350.399	6.49
350.61	61.78
350.822	55.64
351.034	57.68
351.246	14.68
351.458	88.4
351.669	67.92
351.881	18.77
352.093	100.69
352.305	112.98
352.517	33.11
352.728	74.07
352.94	92.5
353.152	115.03
353.363	-9.9
353.575	-34.47
353.787	72.02
353.999	22.87
354.21	31.06
354.422	-26.28
354.633	2.39
354.845	24.92
355.057	88.4
355.268	57.68
355.48	12.63
355.692	2.39
355.903	82.26
356.115	39.25
356.326	0.34
356.538	39.25
356.749	29.01
356.961	43.35
357.172	10.58
357.384	37.2
357.595	69.97
357.807	67.92
358.018	29.01
358.23	31.06
358.441	45.4
358.653	53.59
358.864	86.36
359.075	74.07
359.287	-24.23
359.498	8.53
359.709	35.16
359.921	-16.04
360.132	43.35
360.344	-18.09
360.555	39.25
360.766	63.83
360.977	24.92
361.189	88.4
361.4	-16.04
361.611	74.07
361.823	22.87
362.034	53.59
362.245	4.44
362.456	14.68
362.667	41.3
362.879	67.92
363.09	69.97
363.301	92.5
363.512	16.73
363.723	65.88
363.935	45.4
364.146	6.49
364.357	-13.99
364.568	37.2
364.779	-59.05
364.99	12.63
365.201	76.12
365.412	-11.95
365.623	88.4
365.834	24.92
366.045	-40.62
366.256	65.88
366.467	80.21
366.678	33.11
366.889	12.63
367.1	26.96
367.311	41.3
367.522	2.39
367.733	47.44
367.944	20.82
368.155	-16.04
368.366	41.3
368.577	131.41
368.788	49.49
368.999	10.58
369.209	4.44
369.42	129.36
369.631	35.16
369.842	72.02
370.053	6.49
370.264	43.35
370.474	47.44
370.685	78.16
370.896	51.54
371.107	65.88
371.317	33.11
371.528	26.96
371.739	59.73
371.95	55.64
372.16	74.07
372.371	59.73
372.582	80.21
372.792	-11.95
373.003	69.97
373.214	26.96
373.424	14.68
373.635	74.07
373.846	24.92
374.056	92.5
374.267	100.69
374.477	4.44
374.688	108.88
374.898	37.2
375.109	43.35
375.319	43.35
375.53	69.97
375.74	80.21
375.951	26.96
376.161	59.73
376.372	119.12
376.582	43.35
376.793	76.12
377.003	20.82
377.214	-40.62
377.424	41.3
377.635	39.25
377.845	39.25
378.055	43.35
378.266	61.78
378.476	-13.99
378.686	72.02
378.897	92.5
379.107	-5.8
379.317	47.44
379.528	41.3
379.738	41.3
379.948	-24.23
380.158	59.73
380.369	-16.04
380.579	-5.8
380.789	59.73
380.999	106.84
381.21	104.79
381.42	123.22
381.63	8.53
381.84	82.26
382.05	84.31
382.261	92.5
382.471	67.92
382.681	-22.19
382.891	72.02
383.101	72.02
383.311	31.06
383.521	6.49
383.731	96.6
383.941	135.51
384.151	72.02
384.361	78.16
384.571	-20.14
384.781	80.21
384.991	92.5
385.201	33.11
385.411	78.16
385.621	55.64
385.831	33.11
386.041	2.39
386.251	24.92
386.461	92.5
386.671	55.64
386.881	24.92
387.091	59.73
387.301	63.83
387.511	74.07
387.72	20.82
387.93	72.02
388.14	76.12
388.35	49.49
388.56	125.27
388.769	80.21
388.979	39.25
389.189	16.73
389.399	39.25
389.609	53.59
389.818	112.98
390.028	86.36
390.238	72.02
390.447	24.92
390.657	29.01
390.867	-5.8
391.076	90.45
391.286	59.73
391.496	84.31
391.705	53.59
391.915	49.49
392.125	147.8
392.334	78.16
392.544	178.51
392.753	65.88
392.963	47.44
393.172	115.03
393.382	153.94
393.591	78.16
393.801	20.82
394.01	135.51
394.22	170.32
394.429	51.54
394.639	24.92
394.848	84.31
395.058	51.54
395.267	106.84
395.477	53.59
395.686	61.78
395.895	112.98
396.105	172.37
396.314	76.12
396.524	88.4
396.733	88.4
396.942	145.75
397.152	127.32
397.361	41.3
397.57	65.88
397.78	20.82
397.989	86.36
398.198	67.92
398.407	88.4
398.617	119.12
398.826	76.12
399.035	72.02
399.244	137.56
399.453	59.73
399.663	108.88
399.872	131.41
400.081	143.7
400.29	98.64
400.499	33.11
400.708	160.08
400.917	131.41
401.127	63.83
401.336	24.92
401.545	162.13
401.754	119.12
401.963	67.92
402.172	102.74
402.381	151.89
402.59	209.23
402.799	137.56
403.008	160.08
403.217	86.36
403.426	86.36
403.635	131.41
403.844	104.79
404.053	162.13
404.262	112.98
404.471	201.04
404.68	201.04
404.888	92.5
405.097	108.88
405.306	164.18
405.515	133.46
405.724	96.6
405.933	98.64
406.142	192.85
406.35	129.36
406.559	201.04
406.768	186.71
406.977	270.67
407.185	178.51
407.394	121.17
407.603	188.75
407.812	145.75
408.02	258.39
408.229	201.04
408.438	174.42
408.646	186.71
408.855	209.23
409.064	289.1
409.272	219.47
409.481	291.15
409.69	242
409.898	242
410.107	239.95
410.315	358.74
410.524	270.67
410.733	317.78
410.941	338.26
411.15	313.68
411.358	270.67
411.567	373.07
411.775	342.35
411.984	375.12
412.192	366.93
412.401	344.4
412.609	422.22
412.818	416.08
413.026	452.94
413.234	498
413.443	493.9
413.651	360.78
413.86	426.32
414.068	541.01
414.276	565.58
414.485	606.54
414.693	569.68
414.901	649.55
415.11	665.93
415.318	577.87
415.526	708.94
415.734	610.64
415.943	676.17
416.151	663.88
416.359	772.43
416.567	741.71
416.776	821.58
416.984	835.91
417.192	856.39
417.4	809.29
417.608	883.02
417.817	901.45
418.025	1009.99
418.233	1022.28
418.441	1061.19
418.649	1130.82
418.857	1143.11
419.065	1112.39
419.273	1061.19
419.481	1235.27
419.689	1284.42
419.897	1245.51
420.105	1370.43
420.313	1337.66
420.521	1399.1
420.729	1519.93
420.937	1528.13
421.145	1562.94
421.353	1603.9
421.561	1669.44
421.769	1771.83
421.977	1837.37
422.185	1665.34
422.393	1876.28
422.601	2025.78
422.809	2074.93
423.017	2023.73
423.224	2179.38
423.432	2234.68
423.64	2175.28
423.848	2451.76
424.056	2378.03
424.263	2568.49
424.471	2554.16
424.679	2677.04
424.887	2703.66
425.094	2793.77
425.302	2769.2
425.51	2904.36
425.718	3074.34
425.925	3103.01
426.133	3154.21
426.341	3295.52
426.548	3590.43
426.756	3371.3
426.964	3721.5
427.171	3766.56
427.379	3946.78
427.586	3952.92
427.794	4122.9
428.001	4317.46
428.209	4436.24
428.417	4389.14
428.624	4616.46
428.832	4692.24
429.039	4663.57
429.247	4550.93
429.454	5112.07
429.662	5337.35
429.869	5034.25
430.076	5384.45
430.284	5253.38
430.491	5374.21
430.699	5974.27
430.906	5853.44
431.114	5961.98
431.321	6088.95
431.528	6232.31
431.736	6646
431.943	7059.69
432.15	6605.04
432.358	6822.13
432.565	7094.51
432.772	7031.02
432.979	7512.29
433.187	7608.55
433.394	7805.15
433.601	8067.29
433.808	8298.71
434.016	8149.21
434.223	8517.84
434.43	9085.13
434.637	8915.15
434.844	9439.43
435.052	9603.27
435.259	9527.49
435.466	9664.71
435.673	9525.44
435.88	10275
436.087	10803.38
436.294	10592.44
436.501	10203.32
436.708	10748.08
436.915	11172.01
437.122	11638.95
437.329	11477.16
437.537	11882.66
437.743	12189.85
437.95	11911.33
438.157	12472.47
438.364	13095.05
438.571	13226.12
438.778	13023.37
438.985	14123.13
439.192	13922.43
439.399	14123.13
439.606	13707.4
439.813	14733.43
440.02	15372.39
440.227	15425.64
440.433	15009.9
440.64	15525.99
440.847	15372.39
441.054	15925.35
441.261	17100.88
441.467	16728.15
441.674	17115.22
441.881	17934.4
442.088	17494.09
442.294	17758.28
442.501	18024.51
442.708	18440.25
442.914	19052.59
443.121	19863.59
443.328	19173.42
443.534	20871.19
443.741	20453.41
443.948	19884.07
444.154	21374.99
444.361	21395.47
444.568	21506.06
444.774	21352.46
444.981	21792.78
445.187	22521.85
445.394	23316.47
445.6	23039.99
445.807	25130.97
446.013	24012.77
446.22	24555.49
446.426	25364.43
446.633	25667.53
446.839	26480.58
447.046	25585.61
447.252	26763.2
447.459	27238.33
447.665	27191.22
447.871	28067.75
448.078	29437.84
448.284	27961.26
448.491	28704.67
448.697	30197.64
448.903	30236.55
449.11	30504.84
449.316	30199.69
449.522	30250.89
449.728	31479.67
449.935	31577.97
450.141	31666.03
450.347	32368.49
450.553	31401.85
450.76	31731.57
450.966	32411.49
451.172	32804.7
451.378	33195.87
451.584	32730.98
451.791	33230.68
451.997	33124.19
452.203	34037.58
452.409	33898.32
452.615	33371.99
452.821	32712.55
453.027	32157.55
453.233	33980.24
453.44	32569.19
453.646	32747.36
453.852	32837.47
454.058	33546.07
454.264	32661.35
454.47	32853.86
454.676	32634.72
454.882	33646.42
455.088	30578.56
455.294	31201.15
455.5	31500.15
455.705	31727.47
455.911	30719.87
456.117	29872.01
456.323	29456.28
456.529	28030.89
456.735	29237.14
456.941	28571.55
457.147	27981.74
457.352	27357.11
457.558	26867.64
457.764	27017.15
457.97	26234.82
458.176	25921.48
458.381	26109.89
458.587	24713.18
458.793	24623.07
458.999	23185.4
459.204	24774.62
459.41	24448.99
459.616	22614.01
459.821	22597.63
460.027	22738.94
460.233	21966.85
460.438	21315.6
460.644	21610.51
460.85	20375.58
461.055	20115.49
461.261	20033.57
461.466	18481.21
461.672	17844.29
461.878	19013.68
462.083	17938.5
462.289	17797.19
462.494	17678.41
462.7	16783.45
462.905	16486.49
463.111	17021.01
463.316	16707.67
463.522	16562.26
463.727	16531.55
463.932	16382.04
464.138	16124
464.343	16320.6
464.549	15943.78
464.754	16361.56
464.959	16236.64
465.165	16228.45
465.37	15554.66
465.575	14946.42
465.781	15755.36
465.986	15712.36
466.191	15126.64
466.397	14948.47
466.602	14209.15
466.807	14639.22
467.012	14657.65
467.218	14641.27
467.423	14463.1
467.628	14555.26
467.833	15261.8
468.038	14665.85
468.244	14082.17
468.449	14643.32
468.654	14297.21
468.859	14182.52
469.064	14221.44
469.269	13494.41
469.474	13652.1
469.679	13985.92
469.885	13596.81
470.09	13691.01
470.295	13723.78
470.5	13418.63
470.705	13518.98
470.91	13070.48
471.115	12945.55
471.32	13203.6
471.525	13258.89
471.73	12884.11
471.935	12771.47
472.139	12398.74
472.344	12480.66
472.549	12253.34
472.754	12132.51
472.959	11956.38
473.164	11720.87
473.369	11489.45
473.574	12054.69
473.778	11778.21
473.983	11921.57
474.188	11690.15
474.393	11217.07
474.598	11294.89
474.802	11057.32
475.007	11133.1
475.212	11022.51
475.417	10750.13
475.621	10752.18
475.826	10918.06
476.031	10387.64
476.235	10195.13
476.44	10440.89
476.645	10197.18
476.849	10395.83
477.054	10211.51
477.259	9945.28
477.463	10090.68
477.668	9701.57
477.872	10062.01
478.077	9687.23
478.282	9525.44
478.486	9410.76
478.691	9273.54
478.895	9273.54
479.1	9406.66
479.304	9187.53
479.509	9068.75
479.713	9179.34
479.918	9040.08
480.122	8812.75
480.326	8976.59
480.531	8947.92
480.735	8872.14
480.94	8841.42
481.144	9083.08
481.348	8724.69
481.553	8579.28
481.757	8554.71
481.961	8710.35
482.166	8880.33
482.37	8777.94
482.574	8392.92
482.778	8589.52
482.983	8759.5
483.187	8749.26
483.391	8456.4
483.595	8394.97
483.8	8571.09
484.004	8538.32
484.208	8739.02
484.412	8632.53
484.616	8501.46
484.821	8612.05
485.025	8515.8
485.229	8511.7
485.433	8526.04
485.637	8792.27
485.841	8552.66
486.045	8405.21
486.249	8413.4
486.453	8511.7
486.657	8665.3
486.861	8681.68
487.065	8411.35
487.269	8591.57
487.473	8392.92
487.677	8683.73
487.881	8579.28
488.085	8724.69
488.289	8790.22
488.493	8593.62
488.697	8655.06
488.901	8487.12
489.105	8644.82
489.309	8562.9
489.512	8765.65
489.716	8528.08
489.92	8732.88
490.124	8681.68
490.328	9054.41
490.531	8581.33
490.735	8886.48
490.939	8859.85
491.143	8847.57
491.346	8808.65
491.55	8886.48
491.754	8937.68
491.958	8980.68
492.161	8909.01
492.365	9015.5
492.569	8978.64
492.772	9099.47
492.976	9117.9
493.18	9128.14
493.383	9271.5
493.587	9535.68
493.79	9400.52
493.994	9517.25
494.197	9363.65
494.401	9595.07
494.605	9382.09
494.808	9599.17
495.012	9674.95
495.215	9877.69
495.419	9715.91
495.622	9695.43
495.825	9707.71
496.029	9879.74
496.232	10309.82
496.436	10135.74
496.639	10395.83
496.843	10303.67
497.046	10580.15
497.249	10494.13
497.453	10514.61
497.656	10844.34
497.859	10905.77
498.063	10934.45
498.266	11133.1
498.469	11010.22
498.673	11215.02
498.876	11350.18
499.079	11446.44
499.282	11368.62
499.485	11849.89
499.689	11851.94
499.892	12021.92
500.095	12040.35
500.298	12384.41
500.501	12220.57
500.705	12617.88
500.908	12656.79
501.111	12724.37
501.314	12880.02
501.517	12941.46
501.72	13146.25
501.923	13170.83
502.126	13535.37
502.329	13658.24
502.532	13836.42
502.735	13961.34
502.938	14127.23
503.141	13953.15
503.344	14325.88
503.547	14116.99
503.75	14542.97
503.953	14579.83
504.156	14973.04
504.359	14983.28
504.562	14788.72
504.765	15253.61
504.968	15644.77
505.17	15808.61
505.373	15700.07
505.576	16076.9
505.779	16097.38
505.982	16281.69
506.185	16685.14
506.387	16660.57
506.59	16521.31
506.793	17049.68
506.996	16910.42
507.198	17475.66
507.401	17496.14
507.604	17594.44
507.807	18210.88
508.009	17915.97
508.212	18395.2
508.415	18589.75
508.617	18731.06
508.82	18810.93
509.022	18855.99
509.225	19327.02
509.428	19410.99
509.63	19595.31
509.833	19488.81
510.035	19869.73
510.238	19771.43
510.44	20262.94
510.643	20559.9
510.845	20576.28
511.048	20592.67
511.25	20811.8
511.453	20987.93
511.655	21397.52
511.858	21358.61
512.06	21686.28
512.262	21919.75
512.465	21436.43
512.667	22276.1
512.87	22460.41
513.072	22779.9
513.274	22786.04
513.477	23250.93
513.679	23218.16
513.881	23582.7
514.084	23619.56
514.286	23871.47
514.488	24299.49
514.69	24739.8
514.893	24602.59
515.095	24858.59
515.297	25049.05
515.499	24948.7
515.701	25237.46
515.904	25716.68
516.106	26056.65
516.308	26195.91
516.51	26386.37
516.712	26318.79
516.914	26830.78
517.116	27140.02
517.318	27273.14
517.52	27535.28
517.722	27230.13
517.925	27844.52
518.127	28225.45
518.329	28088.23
518.531	28282.79
518.733	28882.84
518.935	28929.95
519.136	28749.73
519.338	29364.12
519.54	29562.77
519.742	29568.91
519.944	29869.97
520.146	30642.05
520.348	30424.97
520.55	30480.26
520.752	30332.81
520.954	31303.54
521.155	31223.67
521.357	31436.66
521.559	31696.75
521.761	32071.53
521.963	32231.27
522.164	32212.84
522.366	32464.74
522.568	32444.26
522.77	32782.18
522.971	33251.16
523.173	33070.94
523.375	33404.76
523.576	33300.31
523.778	33507.16
523.98	33533.78
524.181	34062.16
524.383	33949.52
524.584	34379.59
524.786	34316.11
524.988	34383.69
525.189	34850.63
525.391	35241.79
525.592	35327.8
525.794	35358.52
525.995	35612.47
526.197	35409.72
526.398	35370.81
526.6	36204.33
526.801	36110.13
527.003	36312.88
527.204	36116.27
527.406	36716.33
527.607	36351.79
527.808	36914.98
528.01	36134.7
528.211	36312.88
528.412	37429.02
528.614	37242.65
528.815	36933.41
529.016	37279.52
529.218	37318.43
529.419	37361.44
529.62	37502.75
529.822	37263.13
530.023	37332.76
530.224	37424.92
530.425	37807.89
530.626	37629.72
530.828	37054.24
531.029	38094.61
531.23	37584.66
531.431	37758.74
531.632	38061.84
531.833	37963.54
532.035	38211.34
532.236	37883.67
532.437	38063.89
532.638	37773.08
532.839	38438.67
533.04	38450.95
533.241	37898
533.442	38575.88
533.643	38303.5
533.844	38311.69
534.045	38522.63
534.246	38102.8
534.447	38555.4
534.648	38489.87
534.849	38758.15
535.05	38127.38
535.251	38303.5
535.451	38047.5
535.652	38446.86
535.853	38602.5
536.054	38514.44
536.255	38496.01
536.456	38444.81
536.657	39081.73
536.857	38035.22
537.058	38088.46
537.259	38592.26
537.46	38534.92
537.66	38633.22
537.861	38622.98
538.062	37986.07
538.263	38397.71
538.463	38186.77
538.664	38592.26
538.865	38778.63
539.065	38893.32
539.266	38278.93
539.466	38475.53
539.667	37967.63
539.868	38797.06
540.068	38575.88
540.269	38328.08
540.469	38823.68
540.67	38295.31
540.87	38545.16
541.071	38692.61
541.271	38655.75
541.472	38342.41
541.672	38086.42
541.873	38264.59
542.073	37885.72
542.274	38541.07
542.474	38231.82
542.675	38424.33
542.875	38311.69
543.075	38612.74
543.276	38022.93
543.476	38330.12
543.676	38303.5
543.877	38637.32
544.077	38299.4
544.277	37924.63
544.478	38121.23
544.678	38162.19
544.878	38528.78
545.078	38231.82
545.279	38070.03
545.479	38289.17
545.679	38248.21
545.879	38289.17
546.079	38283.02
546.28	38004.5
546.48	37834.52
546.68	38225.68
546.88	38416.14
547.08	37988.11
547.28	38029.07
547.48	38217.49
547.68	38285.07
547.88	38131.47
548.081	38405.9
548.281	38180.62
548.481	37898
548.681	38457.1
548.881	38287.12
549.081	38131.47
549.28	38100.75
549.48	38057.74
549.68	38125.33
549.88	38330.12
550.08	38045.46
550.28	38403.85
550.48	38340.36
550.68	38508.3
550.88	38164.24
551.08	37803.8
551.279	38033.17
551.479	38018.83
551.679	38164.24
551.879	37613.34
552.079	38598.41
552.278	37953.3
552.478	38172.43
552.678	37912.34
552.878	38391.56
553.077	37754.65
553.277	37988.11
553.477	38369.04
553.676	37707.54
553.876	37830.42
554.076	37885.72
554.275	37830.42
554.475	37218.08
554.674	38393.61
554.874	37930.77
555.074	37519.13
555.273	38067.98
555.473	37885.72
555.672	37623.58
555.872	37674.77
556.071	37738.26
556.271	37674.77
556.47	37685.01
556.67	37152.54
556.869	37490.46
557.068	37453.59
557.268	37152.54
557.467	37551.9
557.667	37476.12
557.866	37435.16
558.065	37480.22
558.265	37078.82
558.464	36804.39
558.663	37277.47
558.863	36804.39
559.062	37287.71
559.261	37185.31
559.461	37533.46
559.66	36615.97
559.859	37177.12
560.058	36800.29
560.258	37089.06
560.457	36831.01
560.656	36884.26
560.855	36712.23
561.054	37166.88
561.253	36439.85
561.453	36892.45
561.652	36542.25
561.851	36429.61
562.05	36577.06
562.249	36149.04
562.448	36736.8
562.647	36454.19
562.846	36638.5
563.045	36128.56
563.244	36069.17
563.443	36427.56
563.642	35800.88
563.841	36308.78
564.04	36103.98
564.239	36241.2
564.438	36060.98
564.637	36044.59
564.836	35938.1
565.035	35233.6
565.234	35931.95
565.432	35651.38
565.631	35534.65
565.83	35841.84
566.029	35718.96
566.228	35626.81
566.427	35149.63
566.625	34852.67
566.824	34680.64
567.023	35383.1
567.222	34504.52
567.42	35428.15
567.619	34936.64
567.818	34971.46
568.016	34660.16
568.215	35235.64
568.414	34815.81
568.612	34377.54
568.811	34576.2
569.01	34688.84
569.208	33965.9
569.407	34770.75
569.605	34250.57
569.804	34510.66
570.002	33914.7
570.201	34355.02
570.4	34234.19
570.598	33875.79
570.797	33808.21
570.995	34006.86
571.193	33765.2
571.392	33914.7
571.59	33271.64
571.789	33722.19
571.987	33396.57
572.186	33359.7
572.384	32972.64
572.582	33714
572.781	33568.6
572.979	32900.96
573.177	32989.02
573.376	33116
573.574	33109.85
573.772	33476.44
573.971	32921.44
574.169	32425.83
574.367	32495.46
574.565	32950.11
574.763	32700.26
574.962	32620.39
575.16	32153.45
575.358	32354.15
575.556	32077.68
575.754	32575.33
575.952	31936.37
576.151	32354.15
576.349	31735.67
576.547	32051.05
576.745	32132.97
576.943	32132.97
577.141	31874.93
577.339	32165.74
577.537	31459.19
577.735	31919.98
577.933	31162.23
578.131	31649.65
578.329	31436.66
578.527	30861.18
578.725	31147.9
578.923	31618.93
579.121	31135.61
579.319	31170.43
579.516	31272.82
579.714	31397.75
579.912	30943.1
580.11	30781.31
580.308	30539.65
580.506	30707.58
580.704	30181.26
580.901	30711.68
581.099	30885.76
581.297	30224.26
581.495	30338.95
581.692	30531.46
581.89	30017.42
582.088	30367.62
582.285	30185.35
582.483	30214.02
582.681	30093.19
582.878	29779.85
583.076	29751.18
583.274	29943.69
583.471	29441.94
583.669	29824.91
583.866	29370.26
584.064	29925.26
584.262	29396.88
584.459	29386.64
584.657	29407.12
584.854	29716.37
585.052	28708.77
585.249	29396.88
585.447	29333.4
585.644	28331.94
585.841	28860.32
586.039	29097.88
586.236	28747.68
586.434	28542.88
586.631	28534.69
586.828	28553.12
587.026	28714.91
587.223	28676
587.42	28256.17
587.618	28252.07
587.815	27854.76
588.012	28006.31
588.21	28307.37
588.407	27721.65
588.604	27672.5
588.801	27670.45
588.999	27547.57
589.196	27695.02
589.393	27738.03
589.59	27469.75
589.787	27246.52
589.984	27264.95
590.182	27223.99
590.379	27504.56
590.576	27039.67
590.773	27256.76
590.97	27088.82
591.167	27056.06
591.364	26777.53
591.561	27334.58
591.758	26363.84
591.955	26736.57
592.152	26632.13
592.349	26513.34
592.546	26648.51
592.743	26681.28
592.94	25935.82
593.137	26273.73
593.334	26124.23
593.531	25653.2
593.727	25968.59
593.924	26058.7
594.121	26017.74
594.318	25946.06
594.515	25718.73
594.712	25821.13
594.908	25814.99
595.105	25577.42
595.302	25317.33
595.499	25655.25
595.696	25364.43
595.892	25122.77
596.089	25190.36
596.286	25558.99
596.482	25294.8
596.679	24854.49
596.876	25221.08
597.072	24971.22
597.269	24899.55
597.466	24614.88
597.662	24879.07
597.859	24420.32
598.055	24518.62
598.252	24479.71
598.448	24442.85
598.645	24373.22
598.841	24236
599.038	24489.95
599.234	24254.44
599.431	24184.8
599.627	23971.82
599.824	24215.52
600.02	23969.77
600.217	23857.13
600.413	23771.11
600.609	23664.62
600.806	23648.24
601.002	23785.45
601.198	23513.07
601.395	23484.4
601.591	23394.29
601.787	23177.2
601.984	23203.83
602.18	23482.35
602.376	23154.68
602.572	23017.46
602.769	22867.96
602.965	22722.55
603.161	23093.24
603.357	22810.62
603.553	22433.79
603.75	22650.88
603.946	22519.81
604.142	22757.37
604.338	22087.68
604.534	22521.85
604.73	22153.22
604.926	22050.82
605.122	22329.34
605.318	21991.43
605.514	22364.16
605.71	22124.55
605.906	21985.29
606.102	21913.61
606.298	21725.19
606.494	22097.92
606.69	22075.4
606.886	22016.01
607.082	21454.86
607.278	21911.56
607.474	21268.5
607.67	21389.33
607.866	21303.31
608.062	21481.49
608.257	21463.05
608.453	21456.91
608.649	21391.37
608.845	21286.93
609.041	21184.53
609.236	21501.97
609.432	21121.04
609.628	21012.5
609.824	21037.08
610.019	21110.8
610.215	21284.88
610.411	21110.8
610.606	20856.86
610.802	21059.6
610.998	20819.99
611.193	20940.82
611.389	20856.86
611.584	20654.11
611.78	20572.19
611.976	20791.32
612.171	20727.83
612.367	20783.13
612.562	20525.08
612.758	20324.38
612.953	20310.05
613.149	20666.39
613.344	20090.91
613.539	20783.13
613.735	20439.07
613.93	20285.47
614.126	20357.15
614.321	20553.76
614.517	20185.12
614.712	20162.59
614.907	20115.49
615.103	20078.63
615.298	20099.11
615.493	20226.08
615.688	19857.45
615.884	20234.27
616.079	19822.63
616.274	19937.32
616.47	19572.78
616.665	19867.69
616.86	19890.21
617.055	19673.13
617.25	19806.25
617.445	19834.92
617.641	19435.56
617.836	20025.38
618.031	19288.11
618.226	19718.18
618.421	19214.38
618.616	19623.98
618.811	19294.25
619.006	19515.44
619.201	19120.18
619.396	19210.29
619.591	18888.76
619.786	19040.31
619.981	18610.23
620.176	19083.31
620.371	18602.04
620.566	18599.99
620.761	18726.97
620.956	18921.52
621.151	18401.34
621.346	18706.49
621.541	17877.06
621.735	18526.27
621.93	17891.4
622.125	18337.85
622.32	17969.22
622.515	17985.6
622.709	17920.07
622.904	17850.44
623.099	17700.94
623.294	17891.4
623.488	17496.14
623.683	17633.35
623.878	17295.44
624.072	17393.74
624.267	17307.73
624.462	17107.02
624.656	17045.59
624.851	16769.11
625.046	16496.73
625.24	16787.54
625.435	16468.06
625.629	16547.93
625.824	16504.92
626.018	16486.49
626.213	16189.53
626.407	16289.88
626.602	16072.8
626.796	15906.91
626.991	16033.89
627.185	15962.21
627.38	15763.56
627.574	15741.03
627.768	15665.25
627.963	15501.42
628.157	15403.11
628.352	15403.11
628.546	15204.46
628.74	15364.2
628.935	15157.36
629.129	15349.87
629.323	14657.65
629.517	14833.78
629.712	14932.08
629.906	14837.87
630.1	14612.6
630.294	14798.96
630.489	14495.86
630.683	14510.2
630.877	14375.03
631.071	14143.61
631.265	14424.19
631.459	14307.45
631.653	14026.88
631.848	14071.93
632.042	13996.16
632.236	13985.92
632.43	13772.93
632.624	14022.78
632.818	13922.43
633.012	13627.53
633.206	13357.19
633.4	13379.72
633.594	13533.32
633.788	13273.23
633.982	13258.89
634.176	13207.69
634.369	13176.97
634.563	12994.7
634.757	12839.06
634.951	13207.69
635.145	12968.08
635.339	13045.9
635.533	12851.35
635.726	12877.97
635.92	12667.03
636.114	12380.31
636.308	12515.48
636.501	12456.09
636.695	12411.03
636.889	12220.57
637.083	12265.63
637.276	12134.56
637.47	12300.44
637.664	12109.98
637.857	12132.51
638.051	11946.14
638.244	11786.4
638.438	11862.18
638.632	11913.38
638.825	11747.49
639.019	11651.24
639.212	11567.27
639.406	11643.04
639.599	11411.62
639.793	11534.5
639.986	11149.48
640.18	11399.34
640.373	11339.94
640.567	11249.83
640.76	11092.14
640.954	11024.56
641.147	11040.94
641.34	10991.79
641.534	11008.17
641.727	10786.99
641.92	10778.8
642.114	10967.21
642.307	10719.41
642.5	10453.17
642.694	10494.13
642.887	10528.95
643.08	10494.13
643.273	10500.28
643.467	10188.99
643.66	10322.1
643.853	10223.8
644.046	10289.34
644.239	10236.09
644.432	10084.54
644.626	10127.55
644.819	9939.13
645.012	10053.82
645.205	9928.89
645.398	10053.82
645.591	9666.75
645.784	9830.59
645.977	9615.55
646.17	9765.06
646.363	9410.76
646.556	9582.79
646.749	9619.65
646.942	9601.22
647.135	9318.6
647.328	9328.84
647.521	9341.13
647.714	9177.29
647.907	9294.02
648.099	9275.59
648.292	9365.7
648.485	9074.89
648.678	8927.44
648.871	9126.09
649.064	8870.09
649.256	9009.36
649.449	8939.72
649.642	8757.46
649.835	8720.59
650.027	8765.65
650.22	8679.63
650.413	8550.61
650.605	8855.76
650.798	8538.32
650.991	8566.99
651.183	8573.14
651.376	8341.72
651.568	8511.7
651.761	8364.25
651.954	8427.73
652.146	8313.05
652.339	8114.39
652.531	8210.65
652.724	8237.27
652.916	8083.67
653.109	8007.9
653.301	8179.93
653.494	8057.05
653.686	7766.24
653.879	8204.5
654.071	7776.48
654.263	7942.36
654.456	7799.01
654.648	7706.85
654.84	7729.38
655.033	7520.48
655.225	7563.49
655.417	7565.54
655.61	7749.86
655.802	7571.68
655.994	7510.24
656.186	7520.48
656.379	7528.67
656.571	7442.66
656.763	7438.56
656.955	7239.91
657.148	7327.97
657.34	7315.69
657.532	7117.03
657.724	7323.88
657.916	7215.34
658.108	6936.81
658.3	6971.63
658.492	6996.2
658.684	6906.09
658.876	6963.44
659.068	7051.5
659.26	6881.52
659.452	6832.37
659.644	6922.48
659.836	6725.87
660.028	6789.36
660.22	6758.64
660.412	6654.19
660.604	6562.03
660.796	6717.68
660.988	6615.28
661.18	6498.55
661.372	6713.58
661.563	6596.85
661.755	6383.86
661.947	6373.62
662.139	6373.62
662.331	6359.28
662.522	6387.96
662.714	6326.52
662.906	6400.24
663.097	6220.02
663.289	6138.1
663.481	6242.55
663.673	6021.37
663.864	6113.53
664.056	6060.28
664.247	6064.38
664.439	6158.58
664.631	5939.45
664.822	5929.21
665.014	5898.49
665.205	6007.03
665.397	5849.34
665.588	5861.63
665.78	5943.55
665.971	5830.91
666.163	5898.49
666.354	5830.91
666.546	5937.4
666.737	5673.21
666.929	5714.17
667.12	5732.61
667.311	5656.83
667.503	5624.06
667.694	5622.02
667.885	5452.03
668.077	5617.92
668.268	5452.03
668.459	5568.77
668.651	5429.51
668.842	5384.45
669.033	5429.51
669.224	5294.34
669.416	5552.38
669.607	5492.99
669.798	5241.09
669.989	5394.69
670.18	5191.94
670.371	5273.86
670.563	5189.89
670.754	5185.8
670.945	5122.31
671.136	5173.51
671.327	5050.63
671.518	5206.28
671.709	5138.69
671.9	5132.55
672.091	5122.31
672.282	4866.32
672.473	4909.32
672.664	5097.74
672.855	5052.68
673.046	5050.63
673.237	5011.72
673.428	4968.71
673.619	4997.39
673.809	4841.74
674	4813.07
674.191	4907.27
674.382	4903.18
674.573	4733.2
674.764	4751.63
674.954	4802.83
675.145	4708.62
675.336	4856.08
675.527	4675.85
675.717	4761.87
675.908	4645.13
676.099	4659.47
676.289	4851.98
676.48	4763.92
676.671	4626.7
676.861	4641.04
677.052	4638.99
677.243	4534.54
677.433	4569.36
677.624	4716.81
677.814	4690.19
678.005	4665.61
678.195	4577.55
678.386	4561.17
678.576	4612.37
678.767	4626.7
678.957	4571.41
679.148	4589.84
679.338	4632.85
679.529	4548.88
679.719	4573.46
679.909	4507.92
680.1	4505.87
680.29	4598.03
680.481	4593.94
680.671	4466.96
680.861	4454.67
681.052	4421.91
681.242	4342.04
681.432	4456.72
681.622	4395.28
681.813	4208.92
682.003	4258.07
682.193	4378.9
682.383	4350.23
682.573	4358.42
682.764	4364.56
682.954	4335.89
683.144	4376.85
683.334	4307.22
683.524	4393.23
683.714	4290.84
683.904	4143.38
684.094	4354.32
684.284	4208.92
684.474	4237.59
684.664	4239.64
684.854	4256.02
685.044	4229.4
685.234	4141.33
685.424	4159.77
685.614	4083.99
685.804	4110.61
685.994	4172.05
686.184	4213.01
686.374	4165.91
686.564	4002.07
686.753	4077.85
686.943	4073.75
687.133	4032.79
687.323	3985.69
687.513	4022.55
687.702	3967.26
687.892	4079.9
688.082	3967.26
688.272	3934.49
688.461	3985.69
688.651	4024.6
688.841	3653.92
689.03	3733.79
689.22	3881.24
689.41	3744.03
689.599	3811.61
689.789	3707.16
689.979	3883.29
690.168	3713.31
690.358	3729.69
690.547	3629.34
690.737	3672.35
690.926	3514.66
691.116	3602.72
691.305	3678.49
691.495	3729.69
691.684	3576.09
691.874	3473.7
692.063	3592.48
692.252	3410.21
692.442	3469.6
692.631	3500.32
692.82	3385.63
693.01	3451.17
693.199	3455.26
693.388	3410.21
693.578	3426.59
693.767	3338.53
693.956	3467.55
694.146	3465.5
694.335	3395.87
694.524	3332.39
694.713	3428.64
694.902	3283.24
695.092	3377.44
695.281	3402.02
695.47	3344.67
695.659	3242.28
695.848	3320.1
696.037	3248.42
696.226	3344.67
696.415	3221.8
696.604	3227.94
696.793	3197.22
696.982	3248.42
697.171	3246.37
697.36	3238.18
697.549	3248.42
697.738	3113.25
697.927	3195.17
698.116	3383.59
698.305	3184.93
698.494	3180.84
698.683	3174.69
698.872	3176.74
699.061	3137.83
699.25	3234.08
699.438	3047.72
699.627	3135.78
699.816	3105.06
700.005	3080.49
700.193	3211.56
700.382	3076.39
700.571	3066.15
700.76	3094.82
700.948	3053.86
701.137	3051.81
701.326	3162.41
701.514	3180.84
701.703	3014.95
701.892	3006.76
702.08	2961.7
702.269	3154.21
702.457	3008.81
702.646	3092.77
702.834	3019.05
703.023	2990.38
703.212	3105.06
703.4	3150.12
703.589	2986.28
703.777	3019.05
703.965	3064.1
704.154	3010.86
704.342	2941.22
704.531	2973.99
704.719	2904.36
704.907	2953.51
705.096	2953.51
705.284	3076.39
705.472	3006.76
705.661	2986.28
705.849	2922.79
706.037	3105.06
706.226	3010.86
706.414	3017
706.602	2926.89
706.79	2994.47
706.979	2912.55
707.167	2916.65
707.355	3019.05
707.543	2959.66
707.731	2996.52
707.919	2894.12
708.107	2871.59
708.296	2910.5
708.484	2851.11
708.672	2824.49
708.86	2914.6
709.048	2953.51
709.236	2957.61
709.424	2863.4
709.612	2887.98
709.8	2894.12
709.988	2969.9
710.176	2887.98
710.364	2830.63
710.551	3025.19
710.739	2988.33
710.927	2988.33
711.115	2887.98
711.303	2967.85
711.491	2883.88
711.679	2920.74
711.866	2922.79
712.054	2930.98
712.242	2963.75
712.43	2896.17
712.617	2818.35
712.805	3014.95
712.993	2943.27
713.181	2955.56
713.368	3090.73
713.556	2871.59
713.744	2826.54
713.931	3047.72
714.119	2980.14
714.306	3010.86
714.494	2920.74
714.682	2941.22
714.869	2861.35
715.057	2965.8
715.244	2859.31
715.432	2916.65
715.619	2910.5
715.807	2992.42
715.994	2926.89
716.182	2935.08
716.369	2834.73
716.556	2898.22
716.744	2847.02
716.931	2797.87
717.119	2881.83
717.306	2973.99
717.493	2935.08
717.681	2898.22
717.868	2945.32
718.055	3000.62
718.242	2867.5
718.43	2904.36
718.617	2922.79
718.804	2865.45
718.991	2855.21
719.179	2865.45
719.366	3004.71
719.553	3006.76
719.74	2883.88
719.927	3019.05
720.114	2916.65
720.301	2851.11
720.488	2847.02
720.676	2924.84
720.863	2926.89
721.05	2904.36
721.237	3017
721.424	2810.15
721.611	2828.59
721.798	2808.11
721.985	2840.87
722.172	2865.45
722.358	2814.25
722.545	2918.7
722.732	2861.35
722.919	2779.43
723.106	2865.45
723.293	2855.21
723.48	3008.81
723.667	2871.59
723.853	2859.31
724.04	2875.69
724.227	2875.69
724.414	2920.74
724.6	2951.46
724.787	2840.87
724.974	2783.53
725.161	2826.54
725.347	2781.48
725.534	2838.83
725.72	2877.74
725.907	2922.79
726.094	2947.37
726.28	2849.07
726.467	2877.74
726.653	2851.11
726.84	2947.37
727.027	3008.81
727.213	2877.74
727.4	2863.4
727.586	2949.42
727.773	2885.93
727.959	2924.84
728.145	2951.46
728.332	2869.55
728.518	2793.77
728.705	2859.31
728.891	2767.15
729.077	2779.43
729.264	2752.81
729.45	2881.83
729.636	2883.88
729.823	2961.7
730.009	2830.63
730.195	2791.72
730.382	2842.92
730.568	2869.55
730.754	2908.46
730.94	3008.81
731.126	2816.3
731.313	2742.57
731.499	2943.27
731.685	2887.98
731.871	2758.96
732.057	2928.94
732.243	2763.05
732.429	2777.39
732.615	3010.86
732.801	2775.34
732.987	2994.47
733.173	2826.54
733.359	2824.49
733.545	2771.24
733.731	2859.31
733.917	2857.26
734.103	2918.7
734.289	2947.37
734.475	2756.91
734.661	2812.2
734.847	2908.46
735.033	2849.07
735.219	2892.07
735.404	2916.65
735.59	2785.58
735.776	2722.09
735.962	2861.35
736.148	2795.82
736.333	2687.28
736.519	2722.09
736.705	2861.35
736.89	2795.82
737.076	2797.87
737.262	2804.01
737.447	2662.7
737.633	2720.04
737.819	2828.59
738.004	2658.6
738.19	2724.14
738.375	2877.74
738.561	2812.2
738.747	2795.82
738.932	2617.65
739.118	2777.39
739.303	2773.29
739.489	2701.61
739.674	2724.14
739.859	2709.8
740.045	2722.09
740.23	2709.8
740.416	2631.98
740.601	2769.2
740.786	2650.41
740.972	2593.07
741.157	2750.76
741.342	2631.98
741.528	2627.89
741.713	2711.85
741.898	2588.97
742.084	2720.04
742.269	2662.7
742.454	2646.32
742.639	2459.95
742.824	2650.41
743.01	2593.07
743.195	2562.35
743.38	2529.58
743.565	2533.68
743.75	2480.43
743.935	2564.4
744.12	2683.18
744.305	2531.63
744.49	2500.91
744.675	2472.24
744.86	2400.56
745.045	2404.66
745.23	2482.48
745.415	2355.51
745.6	2423.09
745.785	2310.45
745.97	2429.23
746.155	2341.17
746.34	2457.9
746.525	2326.83
746.71	2371.89
746.895	2306.35
747.079	2402.61
747.264	2328.88
747.449	2302.26
747.634	2322.74
747.819	2244.92
748.003	2337.07
748.188	2206
748.373	2238.77
748.557	2158.9
748.742	2224.44
748.927	2177.33
749.111	2093.37
749.296	2177.33
749.481	2222.39
749.665	2115.89
749.85	2113.85
750.034	2156.85
750.219	2009.4
750.404	2150.71
750.588	2152.76
750.773	2007.35
750.957	1970.49
751.141	1984.82
751.326	2015.54
751.51	1990.97
751.695	1927.48
751.879	1962.3
752.064	1982.78
752.248	2038.07
752.432	1878.33
752.617	1984.82
752.801	1904.95
752.985	1802.55
753.17	1878.33
753.354	1845.56
753.538	1892.66
753.722	1767.74
753.907	1722.68
754.091	1798.46
754.275	1734.97
754.459	1790.27
754.643	1739.07
754.828	1784.12
755.012	1759.55
755.196	1730.87
755.38	1634.62
755.564	1540.41
755.748	1722.68
755.932	1685.82
756.116	1741.11
756.3	1646.91
756.484	1741.11
756.668	1634.62
756.852	1601.85
757.036	1618.24
757.22	1591.61
757.404	1599.8
757.588	1560.89
757.772	1532.22
757.956	1595.71
758.14	1671.48
758.323	1462.59
758.507	1501.5
758.691	1507.65
758.875	1593.66
759.059	1540.41
759.242	1450.3
759.426	1450.3
759.61	1483.07
759.794	1386.82
759.977	1468.73
760.161	1524.03
760.345	1431.87
760.528	1427.78
760.712	1345.86
760.895	1425.73
761.079	1296.71
761.263	1415.49
761.446	1388.86
761.63	1401.15
761.813	1358.14
761.997	1407.3
762.18	1421.63
762.364	1376.58
762.547	1245.51
762.731	1358.14
762.914	1368.38
763.098	1343.81
763.281	1321.28
763.464	1270.08
763.648	1222.98
763.831	1261.89
764.015	1229.12
764.198	1218.88
764.381	1184.07
764.564	1308.99
764.748	1308.99
764.931	1315.14
765.114	1198.4
765.297	1229.12
765.481	1239.36
765.664	1188.16
765.847	1231.17
766.03	1304.9
766.213	1143.11
766.397	1206.59
766.58	1173.83
766.763	1202.5
766.946	1110.34
767.129	1192.26
767.312	1216.83
767.495	1237.31
767.678	1098.05
767.861	1182.02
768.044	1106.24
768.227	1161.54
768.41	1132.87
768.593	1173.83
768.776	1106.24
768.959	1161.54
769.142	1132.87
769.324	1020.23
769.507	1087.81
769.69	1046.85
769.873	1108.29
770.056	1122.63
770.239	1093.96
770.421	1110.34
770.604	964.93
770.787	999.75
770.97	1108.29
771.152	1038.66
771.335	985.41
771.518	1005.89
771.7	1106.24
771.883	1161.54
772.066	1030.47
772.248	952.65
772.431	1001.8
772.613	1028.42
772.796	921.93
772.978	995.65
773.161	987.46
773.343	936.26
773.526	962.89
773.708	883.02
773.891	876.87
774.073	897.35
774.256	950.6
774.438	995.65
774.621	858.44
774.803	958.79
774.985	819.53
775.168	891.21
775.35	809.29
775.532	835.91
775.715	833.86
775.897	874.82
776.079	807.24
776.261	940.36
776.444	831.82
776.626	801.1
776.808	860.49
776.99	829.77
777.173	956.74
777.355	817.48
777.537	799.05
777.719	811.34
777.901	762.19
778.083	753.99
778.265	741.71
778.447	840.01
778.629	692.55
778.811	737.61
778.993	774.47
779.175	739.66
779.357	792.91
779.539	741.71
779.721	756.04
779.903	678.22
780.085	733.51
780.267	719.18
780.449	713.03
780.631	782.67
780.812	647.5
780.994	751.95
781.176	700.75
781.358	674.12
781.54	616.78
781.721	577.87
781.903	647.5
782.085	692.55
782.267	659.79
782.448	575.82
782.63	536.91
782.812	645.45
782.993	631.12
783.175	600.4
783.357	588.11
783.538	631.12
783.72	534.86
783.901	553.29
784.083	618.83
784.264	557.39
784.446	627.02
784.627	526.67
784.809	526.67
784.99	581.96
785.172	627.02
785.353	610.64
785.535	463.18
785.716	498
785.897	526.67
786.079	549.2
786.26	563.53
786.441	489.81
786.623	534.86
786.804	444.75
786.985	481.61
787.167	489.81
787.348	590.16
787.529	440.65
787.71	567.63
787.891	522.57
788.073	444.75
788.254	538.96
788.435	477.52
788.616	424.27
788.797	495.95
788.978	360.78
789.159	481.61
789.34	428.37
789.522	461.13
789.703	516.43
789.884	489.81
790.065	405.84
790.246	487.76
790.427	432.46
790.607	471.37
790.788	475.47
790.969	325.97
791.15	414.03
791.331	473.42
791.512	397.65
791.693	371.02
791.874	426.32
792.054	514.38
792.235	481.61
792.416	352.59
792.597	387.41
792.778	391.5
792.958	459.09
793.139	362.83
793.32	409.94
793.5	375.12
793.681	432.46
793.862	397.65
794.042	321.87
794.223	340.3
794.404	360.78
794.584	313.68
794.765	375.12
794.945	336.21
795.126	387.41
795.306	348.5
795.487	352.59
795.667	362.83
795.848	377.17
796.028	332.11
796.209	352.59
796.389	280.91
796.57	373.07
796.75	289.1
796.93	381.26
797.111	350.54
797.291	379.22
797.471	358.74
797.652	348.5
797.832	323.92
798.012	301.39
798.192	354.64
798.373	309.58
798.553	289.1
798.733	317.78
798.913	313.68
799.093	299.34
799.274	268.63
799.454	328.02
799.634	289.1
799.814	344.4
799.994	258.39
800.174	360.78
800.354	270.67
800.534	211.28
800.714	252.24
800.894	293.2
801.074	319.82
801.254	307.54
801.434	299.34
801.614	311.63
801.794	215.38
801.974	713.03
802.154	239.95
802.334	242
802.514	321.87
802.693	235.86
802.873	299.34
803.053	194.9
803.233	301.39
803.413	246.1
803.592	258.39
803.772	211.28
803.952	229.71
804.131	196.95
804.311	262.48
804.491	272.72
804.67	256.34
804.85	266.58
805.03	321.87
805.209	235.86
805.389	231.76
805.568	336.21
805.748	332.11
805.928	266.58
806.107	244.05
806.287	278.87
806.466	278.87
806.646	242
806.825	264.53
807.004	229.71
807.184	235.86
807.363	227.67
807.543	237.91
807.722	323.92
807.901	299.34
808.081	262.48
808.26	180.56
808.439	229.71
808.619	276.82
808.798	280.91
808.977	223.57
809.156	190.8
809.336	239.95
809.515	305.49
809.694	184.66
809.873	180.56
810.052	219.47
810.231	260.43
810.411	186.71
810.59	278.87
810.769	270.67
810.948	194.9
811.127	182.61
811.306	215.38
811.485	160.08
811.664	164.18
811.843	190.8
812.022	211.28
812.201	168.27
812.38	184.66
812.559	186.71
812.737	233.81
812.916	151.89
813.095	207.19
813.274	168.27
813.453	174.42
813.632	180.56
813.811	215.38
813.989	198.99
814.168	221.52
814.347	203.09
814.526	196.95
814.704	145.75
814.883	190.8
815.062	137.56
815.24	233.81
815.419	155.99
815.598	201.04
815.776	170.32
815.955	164.18
816.133	31.06
816.312	192.85
816.49	72.02
816.669	112.98
816.847	174.42
817.026	160.08
817.204	190.8
817.383	153.94
817.561	162.13
817.74	164.18
817.918	125.27
818.097	112.98
818.275	143.7
818.453	170.32
818.632	100.69
818.81	178.51
818.988	158.03
819.167	149.84
819.345	186.71
819.523	217.43
819.701	149.84
819.879	182.61
820.058	129.36
820.236	106.84
820.414	174.42
820.592	166.23
820.77	139.6
820.948	211.28
821.127	104.79
821.305	198.99
821.483	127.32
821.661	119.12
821.839	141.65
822.017	153.94
822.195	127.32
822.373	131.41
822.551	158.03
822.729	239.95
822.907	110.93
823.085	123.22
823.262	182.61
823.44	67.92
823.618	51.54
823.796	110.93
823.974	92.5
824.152	59.73
824.329	117.08
824.507	137.56
824.685	133.46
824.863	110.93
825.04	121.17
825.218	155.99
825.396	141.65
825.574	147.8
825.751	184.66
825.929	92.5
826.107	119.12
826.284	76.12
826.462	51.54
826.639	45.4
826.817	178.51
826.994	117.08
827.172	86.36
827.349	119.12
827.527	102.74
827.704	123.22
827.882	121.17
828.059	69.97
828.237	108.88
828.414	153.94
828.591	98.64
828.769	69.97
828.946	108.88
829.124	117.08
829.301	117.08
829.478	94.55
829.655	139.6
829.833	125.27
830.01	63.83
830.187	65.88
830.364	57.68
830.542	125.27
830.719	139.6
830.896	112.98
831.073	63.83
831.25	108.88
831.427	205.14
831.604	59.73
831.782	45.4
831.959	123.22
832.136	151.89
832.313	135.51
832.49	125.27
832.667	12.63
832.844	92.5
833.021	155.99
833.198	115.03
833.374	117.08
833.551	-5.8
833.728	135.51
833.905	55.64
834.082	65.88
834.259	47.44
834.436	147.8
834.612	4.44
834.789	108.88
834.966	164.18
835.143	125.27
835.319	94.55
835.496	98.64
835.673	65.88
835.85	26.96
836.026	74.07
836.203	82.26
836.38	61.78
836.556	88.4
836.733	45.4
836.909	72.02
837.086	98.64
837.262	26.96
837.439	61.78
837.616	55.64
837.792	133.46
837.968	88.4
838.145	51.54
838.321	135.51
838.498	121.17
838.674	59.73
838.851	88.4
839.027	78.16
839.203	59.73
839.38	55.64
839.556	88.4
839.732	98.64
839.909	88.4
840.085	49.49
840.261	74.07
840.437	100.69
840.614	59.73
840.79	67.92
840.966	63.83
841.142	82.26
841.318	12.63
841.494	41.3
841.671	94.55
841.847	53.59
842.023	61.78
842.199	61.78
842.375	47.44
842.551	74.07
842.727	80.21
842.903	47.44
843.079	8.53
843.255	100.69
843.431	67.92
843.607	-9.9
843.783	-7.85
843.959	53.59
844.134	4.44
844.31	74.07
844.486	51.54
844.662	63.83
844.838	14.68
845.013	4.44
845.189	72.02
845.365	76.12
845.541	31.06
845.716	80.21
845.892	24.92
846.068	22.87
846.244	14.68
846.419	41.3
846.595	20.82
846.77	94.55
846.946	69.97
847.122	69.97
847.297	82.26
847.473	59.73
847.648	37.2
847.824	76.12
847.999	31.06
848.175	96.6
848.35	74.07
848.526	55.64
848.701	98.64
848.876	57.68
849.052	86.36
849.227	-9.9
849.403	53.59
849.578	57.68
849.753	121.17
849.929	145.75
850.104	69.97
850.279	119.12
850.454	20.82
850.63	63.83
850.805	59.73
850.98	18.77
851.155	65.88
851.33	115.03
851.505	94.55
851.681	31.06
851.856	10.58
852.031	49.49
852.206	-28.33
852.381	18.77
852.556	14.68
852.731	74.07
852.906	80.21
853.081	39.25
853.256	45.4
853.431	26.96
853.606	59.73
853.781	10.58
853.956	8.53
854.131	33.11
854.305	24.92
854.48	127.32
854.655	-42.67
854.83	-16.04
855.005	-16.04
855.18	76.12
855.354	80.21
855.529	80.21
855.704	26.96
855.879	86.36
856.053	33.11
856.228	51.54
856.403	2.39
856.577	115.03
856.752	41.3
856.926	31.06
857.101	61.78
857.276	33.11
857.45	82.26
857.625	43.35
857.799	-13.99
857.974	69.97
858.148	-5.8
858.323	57.68
858.497	67.92
858.672	22.87
858.846	-36.52
859.02	-18.09
859.195	-11.95
859.369	18.77
859.543	-38.57
859.718	16.73
859.892	72.02
860.066	33.11
860.241	72.02
860.415	61.78
860.589	35.16
860.763	37.2
860.938	16.73
861.112	63.83
861.286	18.77
861.46	-44.71
861.634	-30.38
861.808	92.5
861.982	84.31
862.157	22.87
862.331	-34.47
862.505	57.68
862.679	8.53
862.853	80.21
863.027	33.11
863.201	86.36
863.375	20.82
863.549	72.02
863.722	39.25
863.896	10.58
864.07	24.92
864.244	-24.23
864.418	-36.52
864.592	-50.86
864.766	45.4
864.939	-30.38
865.113	-5.8
865.287	74.07
865.461	0.34
865.634	-24.23
865.808	26.96
865.982	18.77
866.156	-46.76
866.329	49.49
866.503	-3.75
866.676	-11.95
866.85	0.34
867.024	-7.85
867.197	29.01
867.371	45.4
867.544	20.82
867.718	-20.14
867.891	41.3
868.065	-24.23
868.238	10.58
868.412	33.11
868.585	10.58
868.759	24.92
868.932	14.68
869.105	63.83
869.279	16.73
869.452	14.68
869.625	43.35
869.799	2.39
869.972	12.63
870.145	-26.28
870.319	45.4
870.492	-3.75
870.665	39.25
870.838	-18.09
871.011	-20.14
871.185	10.58
871.358	43.35
871.531	55.64
871.704	-26.28
871.877	10.58
872.05	47.44
872.223	-22.19
872.396	-81.58
872.569	86.36
872.742	-24.23
872.915	10.58
873.088	-22.19
873.261	6.49
873.434	41.3
873.607	4.44
873.78	20.82
873.953	65.88
874.126	-20.14
874.299	14.68
874.471	86.36
874.644	37.2
874.817	39.25
874.99	94.55
875.163	119.12
875.335	55.64
875.508	108.88
875.681	94.55
875.853	4.44
876.026	90.45
876.199	41.3
876.371	10.58
876.544	33.11
876.717	20.82
876.889	72.02
877.062	-3.75
877.234	33.11
877.407	43.35
877.579	69.97
877.752	33.11
877.924	-16.04
878.097	47.44
878.269	-93.87
878.442	16.73
878.614	53.59
878.786	4.44
878.959	-54.95
879.131	33.11
879.303	-32.43
879.476	-7.85
879.648	76.12
879.82	53.59
879.993	-13.99
880.165	-40.62
880.337	-97.96
880.509	16.73
880.681	59.73
880.854	-30.38
881.026	22.87
881.198	100.69
881.37	35.16
881.542	72.02
881.714	-26.28
881.886	-5.8
882.058	82.26
882.23	4.44
882.402	-28.33
882.574	-7.85
882.746	-30.38
882.918	26.96
883.09	90.45
883.262	2.39
883.434	55.64
883.606	10.58
883.778	96.6
883.95	14.68
884.122	-11.95
884.293	-1.71
884.465	49.49
884.637	100.69
884.809	37.2
884.98	65.88
885.152	-9.9
885.324	55.64
885.496	-48.81
885.667	-50.86
885.839	-24.23
886.011	16.73
886.182	-26.28
886.354	35.16
886.525	35.16
886.697	55.64
886.869	-36.52
887.04	-18.09
887.212	0.34
887.383	61.78
887.555	10.58
887.726	20.82
887.897	47.44
888.069	-3.75
888.24	-9.9
888.412	-9.9
888.583	8.53
888.754	37.2
888.926	0.34
889.097	-3.75
889.268	-20.14
889.44	88.4
889.611	45.4
889.782	41.3
889.953	-59.05
890.125	98.64
890.296	-18.09
890.467	-54.95
890.638	-40.62
890.809	35.16
890.98	-79.53
891.151	49.49
891.323	108.88
891.494	72.02
891.665	0.34
891.836	4.44
892.007	45.4
892.178	18.77
892.349	-1.71
892.52	41.3
892.691	-46.76
892.862	-11.95
893.032	37.2
893.203	14.68
893.374	4.44
893.545	8.53
893.716	-38.57
893.887	45.4
894.057	-9.9
894.228	57.68
894.399	-65.19
894.57	47.44
894.74	8.53
894.911	6.49
895.082	-67.24
895.253	6.49
895.423	22.87
895.594	33.11
895.764	10.58
895.935	4.44
896.106	112.98
896.276	10.58
896.447	8.53
896.617	35.16
896.788	2.39
896.958	31.06
897.129	20.82
897.299	45.4
897.47	74.07
897.64	12.63
897.81	-5.8
897.981	-22.19
898.151	39.25
898.322	-3.75
898.492	22.87
898.662	-48.81
898.832	22.87
899.003	-22.19
899.173	-77.48
899.343	-44.71
899.513	-46.76
