Data from USB4F104151__55__12-27-34-973.txt Node

Date: Fri Mar 14 12:27:34 EDT 2025
User: louis
Spectrometer: USB4F10415
Trigger mode: 4
Integration Time (sec): 2.000000E-2
Scans to average: 1
Electric dark correction enabled: true
Nonlinearity correction enabled: false
Boxcar width: 0
XAxis mode: Wavelengths
Number of Pixels in Spectrum: 3648
>>>>>Begin Spectral Data<<<<<
178.204	-159.4
178.424	-159.4
178.644	-159.4
178.864	-26.28
179.084	-71.34
179.304	41.3
179.524	2.39
179.744	-28.33
179.964	33.11
180.184	74.07
180.404	12.63
180.624	-73.39
180.844	55.64
181.064	-71.34
181.283	-20.14
181.503	-11.95
181.723	-13.99
181.943	-7.85
182.163	-20.14
182.383	98.64
182.602	117.08
182.822	78.16
183.042	88.4
183.262	2.39
183.482	35.16
183.701	8.53
183.921	37.2
184.141	22.87
184.361	-13.99
184.58	-16.04
184.8	-9.9
185.02	-3.75
185.239	-77.48
185.459	49.49
185.679	37.2
185.898	-50.86
186.118	14.68
186.338	86.36
186.557	-32.43
186.777	0.34
186.997	-28.33
187.216	65.88
187.436	47.44
187.655	18.77
187.875	-11.95
188.095	2.39
188.314	16.73
188.534	22.87
188.753	86.36
188.973	4.44
189.192	90.45
189.412	33.11
189.631	53.59
189.851	98.64
190.07	0.34
190.29	-32.43
190.509	-18.09
190.729	20.82
190.948	59.73
191.168	168.27
191.387	47.44
191.607	-44.71
191.826	29.01
192.045	63.83
192.265	35.16
192.484	41.3
192.704	-11.95
192.923	0.34
193.142	98.64
193.362	18.77
193.581	31.06
193.8	4.44
194.02	65.88
194.239	47.44
194.458	-50.86
194.678	63.83
194.897	-61.1
195.116	119.12
195.335	106.84
195.555	63.83
195.774	4.44
195.993	22.87
196.212	-34.47
196.432	12.63
196.651	-34.47
196.87	67.92
197.089	69.97
197.308	78.16
197.528	86.36
197.747	4.44
197.966	53.59
198.185	82.26
198.404	47.44
198.623	108.88
198.842	22.87
199.062	82.26
199.281	-100.01
199.5	-9.9
199.719	-3.75
199.938	45.4
200.157	67.92
200.376	31.06
200.595	29.01
200.814	33.11
201.033	31.06
201.252	37.2
201.471	74.07
201.69	90.45
201.909	80.21
202.128	33.11
202.347	90.45
202.566	104.79
202.785	-44.71
203.004	59.73
203.223	57.68
203.442	2.39
203.661	53.59
203.879	39.25
204.098	45.4
204.317	-11.95
204.536	12.63
204.755	-11.95
204.974	59.73
205.193	94.55
205.411	-22.19
205.63	33.11
205.849	63.83
206.068	37.2
206.287	43.35
206.505	43.35
206.724	63.83
206.943	24.92
207.162	0.34
207.381	6.49
207.599	10.58
207.818	35.16
208.037	67.92
208.255	57.68
208.474	22.87
208.693	110.93
208.911	63.83
209.13	2.39
209.349	-18.09
209.567	37.2
209.786	63.83
210.005	26.96
210.223	67.92
210.442	37.2
210.661	31.06
210.879	-22.19
211.098	57.68
211.316	74.07
211.535	100.69
211.753	88.4
211.972	18.77
212.191	43.35
212.409	67.92
212.628	86.36
212.846	20.82
213.065	61.78
213.283	35.16
213.502	2.39
213.72	45.4
213.938	-11.95
214.157	53.59
214.375	49.49
214.594	24.92
214.812	39.25
215.031	59.73
215.249	-16.04
215.467	6.49
215.686	31.06
215.904	43.35
216.122	0.34
216.341	84.31
216.559	-9.9
216.778	-11.95
216.996	78.16
217.214	-18.09
217.432	-28.33
217.651	-18.09
217.869	33.11
218.087	76.12
218.306	18.77
218.524	41.3
218.742	-54.95
218.96	43.35
219.179	35.16
219.397	-16.04
219.615	45.4
219.833	-28.33
220.051	35.16
220.27	57.68
220.488	141.65
220.706	37.2
220.924	41.3
221.142	35.16
221.36	2.39
221.578	55.64
221.796	24.92
222.015	14.68
222.233	-16.04
222.451	51.54
222.669	20.82
222.887	35.16
223.105	-20.14
223.323	43.35
223.541	-11.95
223.759	39.25
223.977	-61.1
224.195	4.44
224.413	-38.57
224.631	33.11
224.849	24.92
225.067	35.16
225.285	14.68
225.503	-1.71
225.721	10.58
225.939	-13.99
226.157	-44.71
226.375	57.68
226.592	29.01
226.81	49.49
227.028	53.59
227.246	86.36
227.464	-20.14
227.682	94.55
227.9	57.68
228.117	72.02
228.335	59.73
228.553	22.87
228.771	76.12
228.989	-5.8
229.206	2.39
229.424	47.44
229.642	2.39
229.86	0.34
230.077	65.88
230.295	-5.8
230.513	108.88
230.731	63.83
230.948	18.77
231.166	108.88
231.384	22.87
231.601	20.82
231.819	45.4
232.037	49.49
232.254	-1.71
232.472	65.88
232.689	29.01
232.907	14.68
233.125	-13.99
233.342	31.06
233.56	49.49
233.777	119.12
233.995	16.73
234.213	37.2
234.43	2.39
234.648	26.96
234.865	14.68
235.083	-1.71
235.3	-11.95
235.518	22.87
235.735	43.35
235.953	16.73
236.17	-13.99
236.388	43.35
236.605	14.68
236.822	37.2
237.04	51.54
237.257	-1.71
237.475	6.49
237.692	51.54
237.909	-59.05
238.127	-7.85
238.344	-3.75
238.562	63.83
238.779	-30.38
238.996	-16.04
239.214	69.97
239.431	37.2
239.648	0.34
239.865	-7.85
240.083	57.68
240.3	57.68
240.517	-54.95
240.735	125.27
240.952	69.97
241.169	16.73
241.386	10.58
241.603	-13.99
241.821	-24.23
242.038	14.68
242.255	-36.52
242.472	-38.57
242.689	24.92
242.907	6.49
243.124	35.16
243.341	86.36
243.558	-46.76
243.775	41.3
243.992	41.3
244.209	10.58
244.426	65.88
244.643	26.96
244.86	24.92
245.078	41.3
245.295	84.31
245.512	88.4
245.729	-38.57
245.946	55.64
246.163	69.97
246.38	-11.95
246.597	-3.75
246.814	88.4
247.031	20.82
247.248	78.16
247.464	47.44
247.681	-1.71
247.898	-24.23
248.115	43.35
248.332	-9.9
248.549	-42.67
248.766	78.16
248.983	33.11
249.2	29.01
249.417	61.78
249.633	63.83
249.85	49.49
250.067	-59.05
250.284	96.6
250.501	-16.04
250.717	22.87
250.934	2.39
251.151	0.34
251.368	12.63
251.585	26.96
251.801	0.34
252.018	-13.99
252.235	55.64
252.451	16.73
252.668	84.31
252.885	16.73
253.102	78.16
253.318	84.31
253.535	8.53
253.752	10.58
253.968	59.73
254.185	6.49
254.401	-28.33
254.618	72.02
254.835	65.88
255.051	12.63
255.268	61.78
255.484	72.02
255.701	2.39
255.917	-42.67
256.134	-24.23
256.351	2.39
256.567	18.77
256.784	-3.75
257	-7.85
257.217	4.44
257.433	16.73
257.65	-11.95
257.866	121.17
258.082	49.49
258.299	-13.99
258.515	78.16
258.732	39.25
258.948	26.96
259.165	57.68
259.381	2.39
259.597	72.02
259.814	59.73
260.03	47.44
260.246	41.3
260.463	39.25
260.679	61.78
260.895	33.11
261.112	61.78
261.328	-11.95
261.544	14.68
261.761	131.41
261.977	4.44
262.193	-38.57
262.409	82.26
262.626	72.02
262.842	53.59
263.058	-36.52
263.274	47.44
263.49	12.63
263.707	35.16
263.923	4.44
264.139	-22.19
264.355	18.77
264.571	129.36
264.787	2.39
265.004	33.11
265.22	-9.9
265.436	8.53
265.652	-11.95
265.868	-1.71
266.084	106.84
266.3	-11.95
266.516	33.11
266.732	0.34
266.948	57.68
267.164	24.92
267.38	63.83
267.596	72.02
267.812	98.64
268.028	-28.33
268.244	20.82
268.46	57.68
268.676	20.82
268.892	12.63
269.108	-13.99
269.324	51.54
269.54	8.53
269.756	45.4
269.972	-22.19
270.188	59.73
270.403	45.4
270.619	-20.14
270.835	76.12
271.051	-36.52
271.267	-7.85
271.483	20.82
271.698	84.31
271.914	24.92
272.13	-7.85
272.346	37.2
272.562	55.64
272.777	-3.75
272.993	20.82
273.209	102.74
273.425	16.73
273.64	-13.99
273.856	39.25
274.072	80.21
274.287	37.2
274.503	65.88
274.719	14.68
274.934	18.77
275.15	2.39
275.366	29.01
275.581	6.49
275.797	26.96
276.012	57.68
276.228	-34.47
276.444	78.16
276.659	-24.23
276.875	-16.04
277.09	18.77
277.306	51.54
277.521	14.68
277.737	37.2
277.952	14.68
278.168	-1.71
278.383	-24.23
278.599	-28.33
278.814	-18.09
279.03	-24.23
279.245	72.02
279.461	22.87
279.676	14.68
279.892	26.96
280.107	22.87
280.322	-16.04
280.538	-28.33
280.753	-22.19
280.969	49.49
281.184	-18.09
281.399	45.4
281.615	37.2
281.83	80.21
282.045	-59.05
282.26	-75.43
282.476	8.53
282.691	35.16
282.906	88.4
283.122	78.16
283.337	65.88
283.552	88.4
283.767	-32.43
283.983	57.68
284.198	10.58
284.413	57.68
284.628	-1.71
284.843	39.25
285.058	22.87
285.274	12.63
285.489	94.55
285.704	129.36
285.919	20.82
286.134	39.25
286.349	100.69
286.564	26.96
286.779	53.59
286.995	2.39
287.21	53.59
287.425	-28.33
287.64	-48.81
287.855	82.26
288.07	12.63
288.285	92.5
288.5	57.68
288.715	39.25
288.93	18.77
289.145	16.73
289.36	35.16
289.575	117.08
289.79	69.97
290.004	53.59
290.219	51.54
290.434	96.6
290.649	37.2
290.864	8.53
291.079	26.96
291.294	86.36
291.509	67.92
291.724	-11.95
291.938	88.4
292.153	51.54
292.368	22.87
292.583	90.45
292.798	14.68
293.012	69.97
293.227	-5.8
293.442	-30.38
293.657	41.3
293.871	39.25
294.086	121.17
294.301	2.39
294.516	55.64
294.73	43.35
294.945	-3.75
295.16	104.79
295.374	57.68
295.589	45.4
295.804	-5.8
296.018	47.44
296.233	100.69
296.447	22.87
296.662	26.96
296.877	47.44
297.091	39.25
297.306	74.07
297.52	53.59
297.735	35.16
297.949	-57
298.164	4.44
298.378	80.21
298.593	10.58
298.807	-3.75
299.022	22.87
299.236	43.35
299.451	22.87
299.665	29.01
299.88	31.06
300.094	6.49
300.309	-34.47
300.523	22.87
300.737	57.68
300.952	0.34
301.166	-46.76
301.381	12.63
301.595	29.01
301.809	14.68
302.024	43.35
302.238	20.82
302.452	151.89
302.667	24.92
302.881	76.12
303.095	-1.71
303.309	35.16
303.524	43.35
303.738	8.53
303.952	31.06
304.166	162.13
304.381	-11.95
304.595	57.68
304.809	119.12
305.023	37.2
305.237	-7.85
305.452	-3.75
305.666	45.4
305.88	-30.38
306.094	69.97
306.308	0.34
306.522	8.53
306.736	80.21
306.95	96.6
307.164	-5.8
307.379	37.2
307.593	86.36
307.807	74.07
308.021	100.69
308.235	4.44
308.449	-18.09
308.663	-11.95
308.877	143.7
309.091	53.59
309.305	74.07
309.519	18.77
309.733	26.96
309.947	-32.43
310.161	76.12
310.374	-20.14
310.588	100.69
310.802	14.68
311.016	29.01
311.23	-18.09
311.444	2.39
311.658	29.01
311.872	20.82
312.085	67.92
312.299	-16.04
312.513	-18.09
312.727	86.36
312.941	51.54
313.154	69.97
313.368	-36.52
313.582	-20.14
313.796	-1.71
314.009	53.59
314.223	20.82
314.437	51.54
314.651	53.59
314.864	51.54
315.078	67.92
315.292	29.01
315.505	41.3
315.719	16.73
315.933	37.2
316.146	24.92
316.36	78.16
316.573	80.21
316.787	45.4
317.001	-13.99
317.214	22.87
317.428	-5.8
317.641	67.92
317.855	10.58
318.068	143.7
318.282	55.64
318.495	131.41
318.709	-1.71
318.922	51.54
319.136	119.12
319.349	106.84
319.563	35.16
319.776	98.64
319.99	-75.43
320.203	57.68
320.417	33.11
320.63	57.68
320.843	-38.57
321.057	115.03
321.27	63.83
321.483	69.97
321.697	57.68
321.91	92.5
322.124	84.31
322.337	26.96
322.55	45.4
322.763	22.87
322.977	-40.62
323.19	37.2
323.403	-13.99
323.617	-38.57
323.83	20.82
324.043	82.26
324.256	26.96
324.469	102.74
324.683	102.74
324.896	16.73
325.109	49.49
325.322	31.06
325.535	41.3
325.748	96.6
325.962	41.3
326.175	145.75
326.388	90.45
326.601	69.97
326.814	96.6
327.027	57.68
327.24	61.78
327.453	59.73
327.666	63.83
327.879	88.4
328.092	10.58
328.305	29.01
328.518	-7.85
328.731	14.68
328.944	6.49
329.157	43.35
329.37	16.73
329.583	69.97
329.796	84.31
330.009	57.68
330.222	22.87
330.435	49.49
330.648	33.11
330.861	37.2
331.073	63.83
331.286	16.73
331.499	53.59
331.712	-69.29
331.925	-30.38
332.138	39.25
332.35	102.74
332.563	-1.71
332.776	22.87
332.989	22.87
333.202	12.63
333.414	-1.71
333.627	29.01
333.84	26.96
334.053	47.44
334.265	-18.09
334.478	43.35
334.691	12.63
334.903	6.49
335.116	24.92
335.329	86.36
335.541	37.2
335.754	119.12
335.966	-18.09
336.179	39.25
336.392	8.53
336.604	26.96
336.817	29.01
337.029	-5.8
337.242	6.49
337.454	86.36
337.667	65.88
337.88	69.97
338.092	88.4
338.305	57.68
338.517	96.6
338.729	37.2
338.942	65.88
339.154	-1.71
339.367	49.49
339.579	65.88
339.792	-42.67
340.004	16.73
340.217	88.4
340.429	37.2
340.641	29.01
340.854	80.21
341.066	41.3
341.278	84.31
341.491	102.74
341.703	33.11
341.915	61.78
342.128	37.2
342.34	22.87
342.552	16.73
342.764	12.63
342.977	6.49
343.189	29.01
343.401	35.16
343.613	-9.9
343.826	84.31
344.038	-5.8
344.25	43.35
344.462	33.11
344.674	41.3
344.886	6.49
345.099	-3.75
345.311	22.87
345.523	69.97
345.735	-42.67
345.947	108.88
346.159	22.87
346.371	100.69
346.583	22.87
346.795	69.97
347.007	59.73
347.219	24.92
347.431	29.01
347.643	57.68
347.855	39.25
348.067	22.87
348.279	-9.9
348.491	16.73
348.703	-13.99
348.915	18.77
349.127	51.54
349.339	24.92
349.551	16.73
349.763	115.03
349.975	72.02
350.187	82.26
350.399	10.58
350.61	76.12
350.822	39.25
351.034	4.44
351.246	45.4
351.458	76.12
351.669	59.73
351.881	59.73
352.093	24.92
352.305	-9.9
352.517	47.44
352.728	63.83
352.94	47.44
353.152	47.44
353.363	35.16
353.575	135.51
353.787	63.83
353.999	49.49
354.21	31.06
354.422	-32.43
354.633	31.06
354.845	14.68
355.057	67.92
355.268	65.88
355.48	37.2
355.692	16.73
355.903	80.21
356.115	-3.75
356.326	24.92
356.538	57.68
356.749	51.54
356.961	98.64
357.172	4.44
357.384	49.49
357.595	51.54
357.807	84.31
358.018	22.87
358.23	90.45
358.441	-13.99
358.653	43.35
358.864	92.5
359.075	4.44
359.287	112.98
359.498	55.64
359.709	20.82
359.921	26.96
360.132	47.44
360.344	100.69
360.555	100.69
360.766	59.73
360.977	-18.09
361.189	18.77
361.4	49.49
361.611	106.84
361.823	115.03
362.034	-3.75
362.245	84.31
362.456	57.68
362.667	47.44
362.879	47.44
363.09	63.83
363.301	74.07
363.512	6.49
363.723	63.83
363.935	98.64
364.146	90.45
364.357	-16.04
364.568	112.98
364.779	33.11
364.99	63.83
365.201	24.92
365.412	41.3
365.623	31.06
365.834	57.68
366.045	57.68
366.256	108.88
366.467	-20.14
366.678	78.16
366.889	82.26
367.1	49.49
367.311	108.88
367.522	29.01
367.733	24.92
367.944	43.35
368.155	37.2
368.366	133.46
368.577	45.4
368.788	98.64
368.999	-3.75
369.209	108.88
369.42	18.77
369.631	104.79
369.842	10.58
370.053	67.92
370.264	35.16
370.474	0.34
370.685	33.11
370.896	39.25
371.107	57.68
371.317	67.92
371.528	6.49
371.739	49.49
371.95	55.64
372.16	82.26
372.371	-30.38
372.582	35.16
372.792	51.54
373.003	96.6
373.214	162.13
373.424	102.74
373.635	-1.71
373.846	100.69
374.056	76.12
374.267	98.64
374.477	49.49
374.688	18.77
374.898	53.59
375.109	22.87
375.319	74.07
375.53	82.26
375.74	53.59
375.951	-26.28
376.161	59.73
376.372	59.73
376.582	6.49
376.793	-46.76
377.003	74.07
377.214	2.39
377.424	61.78
377.635	45.4
377.845	72.02
378.055	41.3
378.266	20.82
378.476	100.69
378.686	6.49
378.897	6.49
379.107	-1.71
379.317	43.35
379.528	18.77
379.738	57.68
379.948	67.92
380.158	94.55
380.369	31.06
380.579	49.49
380.789	47.44
380.999	49.49
381.21	72.02
381.42	94.55
381.63	112.98
381.84	37.2
382.05	61.78
382.261	63.83
382.471	39.25
382.681	-13.99
382.891	61.78
383.101	78.16
383.311	110.93
383.521	-38.57
383.731	22.87
383.941	43.35
384.151	-3.75
384.361	43.35
384.571	55.64
384.781	63.83
384.991	82.26
385.201	121.17
385.411	45.4
385.621	-20.14
385.831	67.92
386.041	37.2
386.251	102.74
386.461	12.63
386.671	47.44
386.881	37.2
387.091	57.68
387.301	129.36
387.511	82.26
387.72	51.54
387.93	45.4
388.14	94.55
388.35	80.21
388.56	55.64
388.769	41.3
388.979	82.26
389.189	-3.75
389.399	22.87
389.609	78.16
389.818	24.92
390.028	102.74
390.238	-24.23
390.447	43.35
390.657	78.16
390.867	78.16
391.076	65.88
391.286	29.01
391.496	22.87
391.705	35.16
391.915	33.11
392.125	104.79
392.334	45.4
392.544	6.49
392.753	100.69
392.963	92.5
393.172	94.55
393.382	39.25
393.591	110.93
393.801	108.88
394.01	108.88
394.22	12.63
394.429	57.68
394.639	110.93
394.848	51.54
395.058	49.49
395.267	100.69
395.477	74.07
395.686	84.31
395.895	123.22
396.105	135.51
396.314	53.59
396.524	63.83
396.733	55.64
396.942	108.88
397.152	39.25
397.361	78.16
397.57	78.16
397.78	49.49
397.989	-9.9
398.198	145.75
398.407	110.93
398.617	67.92
398.826	72.02
399.035	108.88
399.244	26.96
399.453	92.5
399.663	94.55
399.872	55.64
400.081	96.6
400.29	55.64
400.499	94.55
400.708	158.03
400.917	69.97
401.127	123.22
401.336	59.73
401.545	102.74
401.754	104.79
401.963	162.13
402.172	37.2
402.381	166.23
402.59	96.6
402.799	69.97
403.008	92.5
403.217	92.5
403.426	162.13
403.635	110.93
403.844	92.5
404.053	176.47
404.262	76.12
404.471	170.32
404.68	98.64
404.888	129.36
405.097	102.74
405.306	137.56
405.515	104.79
405.724	90.45
405.933	69.97
406.142	123.22
406.35	201.04
406.559	117.08
406.768	137.56
406.977	166.23
407.185	110.93
407.394	172.37
407.603	133.46
407.812	221.52
408.02	213.33
408.229	143.7
408.438	149.84
408.646	123.22
408.855	135.51
409.064	155.99
409.272	178.51
409.481	231.76
409.69	172.37
409.898	170.32
410.107	194.9
410.315	215.38
410.524	242
410.733	168.27
410.941	242
411.15	276.82
411.358	321.87
411.567	239.95
411.775	239.95
411.984	274.77
412.192	313.68
412.401	276.82
412.609	373.07
412.818	336.21
413.026	375.12
413.234	348.5
413.443	399.7
413.651	401.74
413.86	364.88
414.068	502.09
414.276	483.66
414.485	430.41
414.693	498
414.901	559.44
415.11	409.94
415.318	491.85
415.526	516.43
415.734	561.48
415.943	614.73
416.151	606.54
416.359	618.83
416.567	631.12
416.776	639.31
416.984	710.99
417.192	678.22
417.4	684.36
417.608	670.03
417.817	829.77
418.025	764.23
418.233	831.82
418.441	815.43
418.649	815.43
418.857	905.54
419.065	921.93
419.273	969.03
419.481	928.07
419.689	971.08
419.897	1161.54
420.105	1093.96
420.313	1100.1
420.521	1126.72
420.729	1177.92
420.937	1167.68
421.145	1198.4
421.353	1370.43
421.561	1388.86
421.769	1501.5
421.977	1421.63
422.185	1376.58
422.393	1661.24
422.601	1550.65
422.809	1464.64
423.017	1560.89
423.224	1687.87
423.432	1804.6
423.64	1782.07
423.848	1931.58
424.056	1954.1
424.263	1986.87
424.471	1995.06
424.679	2017.59
424.887	2117.94
425.094	2259.25
425.302	2402.61
425.51	2455.86
425.718	2312.5
425.925	2312.5
426.133	2513.2
426.341	2613.55
426.548	2787.63
426.756	2804.01
426.964	2793.77
427.171	2988.33
427.379	3066.15
427.586	3021.1
427.794	3223.84
428.001	3346.72
428.209	3488.03
428.417	3410.21
428.624	3752.22
428.832	3649.82
429.039	3655.97
429.247	3741.98
429.454	4108.57
429.662	4243.73
429.869	4040.98
430.076	4376.85
430.284	4172.05
430.491	4243.73
430.699	4602.13
430.906	4520.21
431.114	4612.37
431.321	4780.3
431.528	5019.91
431.736	5439.75
431.943	5517.57
432.15	5341.44
432.358	5404.93
432.565	5871.87
432.772	5542.14
432.979	5976.31
433.187	5923.07
433.394	6162.68
433.601	6623.47
433.808	6498.55
434.016	6523.12
434.223	6734.06
434.43	7219.43
434.637	7225.58
434.844	7420.13
435.052	7569.63
435.259	7633.12
435.466	7536.87
435.673	7430.37
435.88	8098.01
436.087	8566.99
436.294	8724.69
436.501	8474.84
436.708	8478.93
436.915	8898.77
437.122	9195.72
437.329	9273.54
437.537	9535.68
437.743	9830.59
437.95	9652.42
438.157	10051.77
438.364	10461.37
438.571	10451.13
438.778	10666.16
438.985	11200.68
439.192	11008.17
439.399	11600.04
439.606	11014.32
439.813	11638.95
440.02	12320.92
440.227	12175.52
440.433	12058.78
440.64	12503.19
440.847	12423.32
441.054	12718.23
441.261	13568.13
441.467	13471.88
441.674	13926.53
441.881	14049.41
442.088	14266.49
442.294	14096.51
442.501	14676.09
442.708	14620.79
442.914	15288.43
443.121	16091.23
443.328	15411.31
443.534	16470.11
443.741	16025.7
443.948	16087.14
444.154	17160.27
444.361	16996.43
444.568	17061.97
444.774	17035.35
444.981	17377.36
445.187	17727.56
445.394	18470.97
445.6	18362.43
445.807	20025.38
446.013	19050.55
446.22	19626.03
446.426	20693.02
446.633	20785.18
446.839	21245.97
447.046	20477.98
447.252	21477.39
447.459	21854.22
447.665	21536.78
447.871	22274.05
448.078	23427.06
448.284	22317.06
448.491	22898.68
448.697	23857.13
448.903	24422.37
449.11	24291.3
449.316	24147.94
449.522	24346.59
449.728	25143.25
449.935	25415.63
450.141	25294.8
450.347	25716.68
450.553	24954.84
450.76	25389.01
450.966	26587.07
451.172	26052.55
451.378	26470.34
451.584	26224.58
451.791	27074.49
451.997	26730.43
452.203	27176.89
452.409	27350.96
452.615	27361.2
452.821	26191.81
453.027	25700.3
453.233	27369.4
453.44	26175.43
453.646	26406.85
453.852	26630.08
454.058	27283.38
454.264	26060.74
454.47	26490.82
454.676	25796.56
454.882	26941.37
455.088	24559.58
455.294	24758.24
455.5	25411.54
455.705	25264.08
455.911	24774.62
456.117	24100.84
456.323	23658.48
456.529	22853.62
456.735	23732.2
456.941	22927.35
457.147	22890.49
457.352	22054.92
457.558	21567.5
457.764	21766.15
457.97	21352.46
458.176	20815.9
458.381	20863
458.587	19718.18
458.793	20033.57
458.999	18786.36
459.204	19902.5
459.41	19738.66
459.616	18251.84
459.821	18219.07
460.027	18147.39
460.233	17518.67
460.438	17139.79
460.644	17074.26
460.85	16519.26
461.055	16111.71
461.261	16138.34
461.466	14841.97
461.672	14336.12
461.878	15423.59
462.083	14528.63
462.289	14299.26
462.494	13944.96
462.7	13305.99
462.905	13029.52
463.111	13435.02
463.316	13635.72
463.522	13158.54
463.727	13193.36
463.932	13514.89
464.138	12992.66
464.343	13172.88
464.549	12773.52
464.754	13246.6
464.959	13168.78
465.165	13242.51
465.37	12349.59
465.575	12210.33
465.781	12779.67
465.986	12939.41
466.191	12325.02
466.397	12017.82
466.602	11561.12
466.807	11870.37
467.012	12036.25
467.218	11868.32
467.423	11851.94
467.628	12097.69
467.833	12232.86
468.038	11886.75
468.244	11415.72
468.449	11946.14
468.654	11575.46
468.859	11462.82
469.064	11468.97
469.269	10879.15
469.474	11057.32
469.679	11471.01
469.885	11016.37
470.09	11038.89
470.295	10950.83
470.5	10803.38
470.705	10809.52
470.91	10758.32
471.115	10498.23
471.32	10762.42
471.525	10637.49
471.73	10420.41
471.935	10326.2
472.139	9810.11
472.344	10117.31
472.549	9930.94
472.754	9971.9
472.959	9787.58
473.164	9345.22
473.369	9412.81
473.574	9621.7
473.778	9578.69
473.983	9298.12
474.188	9683.14
474.393	9140.43
474.598	9136.33
474.802	8931.53
475.007	8956.11
475.212	8861.9
475.417	8560.85
475.621	8618.19
475.826	8655.06
476.031	8419.54
476.235	8167.64
476.44	8433.88
476.645	8194.26
476.849	8503.51
477.054	8272.09
477.259	7966.94
477.463	8089.82
477.668	7973.08
477.872	8009.95
478.077	7891.16
478.282	7567.59
478.486	7710.94
478.691	7594.21
478.895	7751.9
479.1	7418.08
479.304	7631.07
479.509	7266.53
479.713	7606.5
479.918	7172.33
480.122	7293.16
480.326	7330.02
480.531	7297.25
480.735	7071.98
480.94	7188.71
481.144	7366.88
481.348	6951.15
481.553	7035.11
481.757	6951.15
481.961	7076.07
482.166	7178.47
482.37	7059.69
482.574	6965.48
482.778	6957.29
482.983	7153.9
483.187	7270.63
483.391	6971.63
483.595	6738.16
483.8	6899.95
484.004	7141.61
484.208	7160.04
484.412	7041.26
484.616	6899.95
484.821	6930.67
485.025	6904.04
485.229	7215.34
485.433	7096.55
485.637	7033.07
485.841	6990.06
486.045	6942.96
486.249	6895.85
486.453	6985.96
486.657	7026.92
486.861	7119.08
487.065	6979.82
487.269	7088.36
487.473	6842.6
487.677	6967.53
487.881	7151.85
488.085	6867.18
488.289	6734.06
488.493	6945
488.697	7006.44
488.901	7037.16
489.105	6998.25
489.309	7186.66
489.512	7100.65
489.716	7094.51
489.92	7051.5
490.124	6858.99
490.328	7166.18
490.531	7037.16
490.735	7028.97
490.939	7076.07
491.143	7166.18
491.346	7258.34
491.55	7403.75
491.754	7444.71
491.958	7391.46
492.161	7311.59
492.365	7610.59
492.569	7491.81
492.772	7360.74
492.976	7430.37
493.18	7397.6
493.383	7618.79
493.587	7803.1
493.79	7751.9
493.994	7516.39
494.197	7645.41
494.401	7762.14
494.605	7844.06
494.808	8155.35
495.012	8114.39
495.215	7983.32
495.419	8048.86
495.622	7956.7
495.825	8120.54
496.029	8243.42
496.232	8300.76
496.436	8435.92
496.639	8650.96
496.843	8411.35
497.046	8632.53
497.249	8673.49
497.453	8667.35
497.656	8847.57
497.859	8532.18
498.063	9003.21
498.266	8886.48
498.469	9130.19
498.673	9222.34
498.876	9273.54
499.079	9275.59
499.282	9400.52
499.485	9758.91
499.689	9441.48
499.892	10090.68
500.095	10059.96
500.298	9881.79
500.501	9894.08
500.705	10168.51
500.908	10406.07
501.111	10395.83
501.314	10606.77
501.517	10596.53
501.72	10821.81
501.923	10862.77
502.126	11083.95
502.329	11163.82
502.532	11221.16
502.735	11346.09
502.938	11583.65
503.141	11298.98
503.344	11894.94
503.547	11849.89
503.75	12032.16
503.953	11980.96
504.156	12167.32
504.359	12249.24
504.562	12165.28
504.765	12730.52
504.968	12763.28
505.17	12904.59
505.373	13066.38
505.576	13084.81
505.779	13291.66
505.982	13181.07
506.185	13543.56
506.387	13789.31
506.59	13738.12
506.793	13985.92
506.996	13848.71
507.198	14602.36
507.401	14461.05
507.604	14481.53
507.807	14753.91
508.009	14975.09
508.212	14936.18
508.415	15259.76
508.617	15272.04
508.82	15493.22
509.022	15534.18
509.225	15589.48
509.428	15917.15
509.63	16001.12
509.833	16406.62
510.035	16328.8
510.238	16463.96
510.44	16758.87
510.643	16834.64
510.845	17137.74
511.048	17092.69
511.25	17047.63
511.453	17229.9
511.655	17862.72
511.858	17487.95
512.06	17901.64
512.262	18255.93
512.465	18370.62
512.667	18511.93
512.87	18622.52
513.072	18739.26
513.274	19091.51
513.477	19267.63
513.679	19241.01
513.881	19601.45
514.084	19687.46
514.286	19793.96
514.488	19980.32
514.69	20590.62
514.893	20432.93
515.095	20314.14
515.297	21075.99
515.499	20930.58
515.701	21004.31
515.904	21252.11
516.106	21432.33
516.308	21803.02
516.51	21958.66
516.712	21983.24
516.914	22095.88
517.116	22456.32
517.318	22593.53
517.52	22611.96
517.722	22802.43
517.925	22865.91
518.127	23228.4
518.329	23535.6
518.531	23435.25
518.733	23943.14
518.935	24631.26
519.136	24276.96
519.338	24352.74
519.54	24285.15
519.742	24606.69
519.944	24879.07
520.146	24944.6
520.348	25460.69
520.55	25618.38
520.752	25454.54
520.954	25849.8
521.155	25821.13
521.357	26290.12
521.559	26349.51
521.761	26826.68
521.963	26675.13
522.164	27277.24
522.366	26961.85
522.568	27164.6
522.77	27135.93
522.971	27641.78
523.173	27709.36
523.375	28135.34
523.576	27903.92
523.778	27910.06
523.98	28379.04
524.181	28458.92
524.383	28465.06
524.584	28946.33
524.786	28891.04
524.988	28852.13
525.189	28932
525.391	29278.1
525.592	29603.73
525.794	29478.8
525.995	29783.95
526.197	29996.94
526.398	29798.29
526.6	30052.23
526.801	30410.63
527.003	30504.84
527.204	30308.23
527.406	30785.41
527.607	31119.23
527.808	30924.67
528.01	30209.93
528.211	30820.22
528.412	30898.05
528.614	31139.71
528.815	30746.5
529.016	31262.58
529.218	31229.82
529.419	31297.4
529.62	31442.81
529.822	31418.23
530.023	31485.81
530.224	31629.17
530.425	31809.39
530.626	31281.02
530.828	31330.17
531.029	32251.75
531.23	31537.01
531.431	31725.43
531.632	31881.07
531.833	32149.35
532.035	32196.46
532.236	31967.09
532.437	32171.88
532.638	32026.48
532.839	32360.3
533.04	32350.06
533.241	32118.64
533.442	32581.48
533.643	32448.36
533.844	32182.12
534.045	32546.66
534.246	32089.96
534.447	32841.57
534.648	32530.28
534.849	32511.85
535.05	32366.44
535.251	32556.9
535.451	32458.6
535.652	32489.32
535.853	32311.14
536.054	32581.48
536.255	32429.93
536.456	32360.3
536.657	33310.55
536.857	32845.66
537.058	32573.28
537.259	32739.17
537.46	32624.48
537.66	32597.86
537.861	32610.15
538.062	32450.41
538.263	32995.17
538.463	32894.82
538.664	32601.96
538.865	32749.41
539.065	32980.83
539.266	32395.11
539.466	32634.72
539.667	32356.2
539.868	32896.86
540.068	32860
540.269	32642.92
540.469	32894.82
540.67	32614.24
540.87	32747.36
541.071	32241.51
541.271	32634.72
541.472	32540.52
541.672	32718.69
541.873	32612.2
542.073	32425.83
542.274	32886.62
542.474	32286.57
542.675	32530.28
542.875	32769.89
543.075	32610.15
543.276	32083.82
543.476	33167.2
543.676	32477.03
543.877	32845.66
544.077	32546.66
544.277	32436.07
544.478	32487.27
544.678	32683.87
544.878	32483.17
545.078	32640.87
545.279	32374.63
545.479	32411.49
545.679	32894.82
545.879	32597.86
546.079	32454.5
546.28	32655.2
546.48	32423.78
546.68	32769.89
546.88	32866.14
547.08	32348.01
547.28	32362.34
547.48	32065.39
547.68	32835.42
547.88	32143.21
548.081	32937.82
548.281	32661.35
548.481	32393.06
548.681	32919.39
548.881	32599.91
549.081	32280.42
549.28	32472.93
549.48	32544.61
549.68	32448.36
549.88	32814.94
550.08	32628.58
550.28	32644.96
550.48	32284.52
550.68	32802.66
550.88	32335.72
551.08	32505.7
551.279	32481.13
551.479	32616.29
551.679	32522.09
551.879	32503.65
552.079	32741.22
552.278	32515.94
552.478	32397.16
552.678	32548.71
552.878	32374.63
553.077	32229.23
553.277	32192.36
553.477	32526.18
553.676	32434.02
553.876	32225.13
554.076	32327.53
554.275	32290.66
554.475	31903.6
554.674	32450.41
554.874	32679.78
555.074	32300.9
555.273	32173.93
555.473	32651.11
555.672	32139.11
555.872	31948.65
556.071	31946.61
556.271	32565.09
556.47	32102.25
556.67	32135.02
556.869	32124.78
557.068	32296.81
557.268	32008.04
557.467	32108.4
557.667	31883.12
557.866	31823.73
558.065	31879.02
558.265	31952.75
558.464	31721.33
558.663	32225.13
558.863	31246.2
559.062	32413.54
559.261	31780.72
559.461	32288.62
559.66	31311.74
559.859	31549.3
560.058	31360.89
560.258	31809.39
560.457	31111.03
560.656	31453.05
560.855	31309.69
561.054	31561.59
561.253	31031.16
561.453	31565.68
561.652	31260.54
561.851	31551.35
562.05	31039.36
562.249	31246.2
562.448	31410.04
562.647	31158.14
562.846	30861.18
563.045	31006.59
563.244	30861.18
563.443	31151.99
563.642	30572.42
563.841	31022.97
564.04	30773.12
564.239	31223.67
564.438	30701.44
564.637	30740.35
564.836	30463.88
565.035	30416.77
565.234	30637.95
565.432	30441.35
565.631	30244.74
565.83	30384.01
566.029	30183.3
566.228	30269.32
566.427	29966.22
566.625	30480.26
566.824	29872.01
567.023	30107.53
567.222	29677.46
567.42	30197.64
567.619	29794.19
567.818	29941.64
568.016	29876.11
568.215	30033.8
568.414	29525.91
568.612	30099.34
568.811	29650.83
569.01	29761.42
569.208	29147.03
569.407	29464.47
569.605	29321.11
569.804	29282.2
570.002	29185.94
570.201	29605.78
570.4	28962.72
570.598	29155.22
570.797	29048.73
570.995	29038.49
571.193	28747.68
571.392	29114.27
571.59	28688.29
571.789	28938.14
571.987	28729.25
572.186	28549.03
572.384	28542.88
572.582	28880.8
572.781	28764.06
572.979	28071.85
573.177	28411.81
573.376	28815.26
573.574	28174.25
573.772	28194.73
573.971	28172.2
574.169	28139.43
574.367	27733.93
574.565	27768.75
574.763	28137.38
574.962	27905.96
575.16	27631.54
575.358	27846.57
575.556	27396.02
575.754	27924.4
575.952	27819.95
576.151	27858.86
576.349	27084.73
576.547	27152.31
576.745	27471.79
576.943	27346.87
577.141	27246.52
577.339	27361.2
577.537	27035.58
577.735	26933.18
577.933	26843.07
578.131	26804.16
578.329	26757.05
578.527	26800.06
578.725	26693.57
578.923	26666.94
579.121	26695.61
579.319	26494.91
579.516	26761.15
579.714	26597.31
579.912	26630.08
580.11	26388.42
580.308	26247.11
580.506	26283.97
580.704	26034.12
580.901	26134.47
581.099	26372.03
581.297	25901
581.495	25759.69
581.692	25901
581.89	25755.6
582.088	26154.95
582.285	25671.63
582.483	25980.87
582.681	25481.17
582.878	25511.89
583.076	25092.05
583.274	25774.03
583.471	25237.46
583.669	25735.12
583.866	25454.54
584.064	25397.2
584.262	24989.66
584.459	25511.89
584.657	24997.85
584.854	24928.22
585.052	24645.6
585.249	25077.72
585.447	24991.7
585.644	24563.68
585.841	24901.59
586.039	24729.56
586.236	24643.55
586.434	24664.03
586.631	24354.79
586.828	24489.95
587.026	24268.77
587.223	24367.07
587.42	24440.8
587.618	24072.17
587.815	24256.48
588.012	23943.14
588.21	23906.28
588.407	24029.16
588.604	23746.54
588.801	23951.34
588.999	23619.56
589.196	23883.75
589.393	23556.08
589.59	23664.62
589.787	23652.33
589.984	23496.69
590.182	23418.86
590.379	23492.59
590.576	23308.27
590.773	23287.79
590.97	23177.2
591.167	23457.78
591.364	22829.05
591.561	23058.42
591.758	22890.49
591.955	22824.95
592.152	23035.89
592.349	22695.93
592.546	22886.39
592.743	22630.4
592.94	22306.82
593.137	22577.15
593.334	22726.65
593.531	22317.06
593.727	22575.1
593.924	22493.18
594.121	22265.86
594.318	22237.19
594.515	21952.52
594.712	22331.39
594.908	21835.78
595.105	21968.9
595.302	21815.3
595.499	21655.56
595.696	21680.14
595.892	21866.5
596.089	21807.11
596.286	21573.64
596.482	21659.66
596.679	21686.28
596.876	21641.23
597.072	21362.7
597.269	21536.78
597.466	21264.4
597.662	21168.15
597.859	21305.36
598.055	21059.6
598.252	21106.71
598.448	21073.94
598.645	21114.9
598.841	20875.29
599.038	20729.88
599.234	20613.15
599.431	20658.2
599.627	20508.7
599.824	20477.98
600.02	20592.67
600.217	20510.75
600.413	20525.08
600.609	20449.31
600.806	20523.04
601.002	20359.2
601.198	20043.81
601.395	20154.4
601.591	20129.83
601.787	20219.94
601.984	20154.4
602.18	19996.71
602.376	19812.39
602.572	19896.36
602.769	19832.87
602.965	19740.71
603.161	19728.42
603.357	19351.6
603.553	19492.91
603.75	19494.96
603.946	19556.39
604.142	19544.11
604.338	19111.99
604.534	19337.26
604.73	19298.35
604.926	19001.4
605.122	19144.75
605.318	19230.77
605.514	19075.12
605.71	19105.84
605.906	18907.19
606.102	19212.34
606.298	18944.05
606.494	18708.54
606.69	18960.44
606.886	18880.57
607.082	18698.3
607.278	18853.94
607.474	18647.1
607.67	18952.24
607.866	18391.1
608.062	18735.16
608.257	18589.75
608.453	18487.36
608.649	18692.15
608.845	18358.33
609.041	18204.74
609.236	18352.19
609.432	18360.38
609.628	18597.95
609.824	18051.14
610.019	18204.74
610.215	18229.31
610.411	18137.15
610.606	18163.78
610.802	18194.5
610.998	18196.54
611.193	18294.85
611.389	18069.57
611.584	17952.84
611.78	17737.8
611.976	17875.01
612.171	17827.91
612.367	18051.14
612.562	17748.04
612.758	17520.71
612.953	17659.98
613.149	17877.06
613.344	17727.56
613.539	17825.86
613.735	17571.91
613.93	17414.22
614.126	17686.6
614.321	17856.58
614.517	17545.29
614.712	17670.22
614.907	17473.61
615.103	17385.55
615.298	17287.25
615.493	17840.2
615.688	17305.68
615.884	17795.14
616.079	17100.88
616.274	17367.12
616.47	17479.75
616.665	17307.73
616.86	17436.75
617.055	17018.96
617.25	16996.43
617.445	17336.4
617.641	16848.98
617.836	17053.78
618.031	16939.09
618.226	17158.22
618.421	16797.78
618.616	16934.99
618.811	16875.6
619.006	17025.11
619.201	16468.06
619.396	16609.37
619.591	16511.07
619.786	16394.33
619.981	16312.41
620.176	16545.88
620.371	16025.7
620.566	16652.38
620.761	16099.42
620.956	16312.41
621.151	15941.73
621.346	16142.43
621.541	15872.1
621.735	15941.73
621.93	15831.14
622.125	15689.83
622.32	15829.09
622.515	15616.1
622.709	15429.74
622.904	15464.55
623.099	15358.06
623.294	15399.02
623.488	15413.35
623.683	15231.08
623.878	15108.21
624.072	15294.57
624.267	14803.06
624.462	15124.59
624.656	14712.95
624.851	14815.35
625.046	14725.24
625.24	14684.28
625.435	14796.92
625.629	14557.3
625.824	14651.51
626.018	14405.75
626.213	14162.05
626.407	14219.39
626.602	13879.43
626.796	14194.81
626.991	13969.54
627.185	13807.75
627.38	13756.55
627.574	13521.03
627.768	13666.44
627.963	13711.49
628.157	13568.13
628.352	13363.34
628.546	13334.67
628.74	13412.49
628.935	13303.95
629.129	13058.19
629.323	13160.59
629.517	12882.06
629.712	12914.83
629.906	13047.95
630.1	12787.86
630.294	12818.58
630.489	12740.75
630.683	12906.64
630.877	12624.02
631.071	12261.53
631.265	12732.56
631.459	12421.27
631.653	12335.26
631.848	12208.28
632.042	12282.01
632.236	12165.28
632.43	12128.41
632.624	12126.36
632.818	12101.79
633.012	11819.17
633.206	11790.5
633.4	11727.01
633.594	11671.72
633.788	11520.17
633.982	11655.33
634.176	11645.09
634.369	11409.58
634.563	11675.81
634.757	11466.92
634.951	11634.85
635.145	11567.27
635.339	11311.27
635.533	11202.73
635.726	11190.44
635.92	11184.3
636.114	11045.04
636.308	10795.18
636.501	11075.76
636.695	10891.44
636.889	10827.95
637.083	10887.34
637.276	10641.59
637.47	10692.79
637.664	10475.7
637.857	10639.54
638.051	10408.12
638.244	10574
638.438	10535.09
638.632	10412.21
638.825	10203.32
639.019	10223.8
639.212	10258.62
639.406	10180.79
639.599	10119.35
639.793	10053.82
639.986	9855.17
640.18	10041.53
640.373	9984.19
640.567	9730.24
640.76	10006.72
640.954	9640.13
641.147	9533.64
641.34	9681.09
641.534	9679.04
641.727	9531.59
641.92	9388.23
642.114	9588.93
642.307	9568.45
642.5	9431.24
642.694	9277.64
642.887	9412.81
643.08	9396.42
643.273	9222.34
643.467	9273.54
643.66	9103.56
643.853	8958.16
644.046	9109.71
644.239	8900.81
644.432	8812.75
644.626	8921.29
644.819	8722.64
645.012	8859.85
645.205	8839.37
645.398	8702.16
645.591	8610
645.784	8571.09
645.977	8569.04
646.17	8501.46
646.363	8306.9
646.556	8171.74
646.749	8562.9
646.942	8501.46
647.135	8095.96
647.328	8278.23
647.521	8102.11
647.714	7874.78
647.907	8116.44
648.099	7936.22
648.292	8155.35
648.485	8081.63
648.678	8001.76
648.871	8018.14
649.064	7911.64
649.256	7887.07
649.449	7880.93
649.642	7960.8
649.835	7973.08
650.027	7776.48
650.22	7559.39
650.413	7663.84
650.605	7749.86
650.798	7602.4
650.991	7614.69
651.183	7438.56
651.376	7366.88
651.568	7338.21
651.761	7274.73
651.954	7250.15
652.146	7405.8
652.339	7309.54
652.531	7319.78
652.724	7266.53
652.916	7100.65
653.109	7217.38
653.301	7192.81
653.494	7127.27
653.686	6899.95
653.879	6988.01
654.071	6949.1
654.263	6867.18
654.456	6906.09
654.648	6985.96
654.84	6713.58
655.033	6732.01
655.225	6797.55
655.417	6582.51
655.61	6797.55
655.802	6674.67
655.994	6588.66
656.186	6775.02
656.379	6562.03
656.571	6471.92
656.763	6467.83
656.955	6369.52
657.148	6463.73
657.34	6430.96
657.532	6375.67
657.724	6287.61
657.916	6246.65
658.108	6177.02
658.3	6240.5
658.492	6396.15
658.684	6121.72
658.876	6127.86
659.068	6088.95
659.26	5943.55
659.452	6115.58
659.644	5898.49
659.836	5972.22
660.028	6072.57
660.22	5880.06
660.412	5949.69
660.604	5957.88
660.796	5931.26
660.988	5792
661.18	5845.24
661.372	5859.58
661.563	5845.24
661.755	5808.38
661.947	5695.74
662.139	5671.17
662.331	5619.97
662.522	5640.45
662.714	5681.41
662.906	5482.75
663.097	5685.5
663.289	5556.48
663.481	5603.58
663.673	5472.51
663.864	5437.7
664.056	5300.48
664.247	5386.5
664.439	5333.25
664.631	5355.78
664.822	5355.78
665.014	5390.6
665.205	5417.22
665.397	5380.36
665.588	5286.15
665.78	5144.84
665.971	5173.51
666.163	5243.14
666.354	5243.14
666.546	5114.12
666.737	5015.82
666.929	5202.18
667.12	5097.74
667.311	5081.35
667.503	4937.99
667.694	4993.29
667.885	4841.74
668.077	4923.66
668.268	4972.81
668.459	4878.6
668.651	4921.61
668.842	4880.65
669.033	4847.88
669.224	4739.34
669.416	4802.83
669.607	4864.27
669.798	4788.49
669.989	4858.12
670.18	4862.22
670.371	4610.32
670.563	4790.54
670.754	4686.09
670.945	4716.81
671.136	4602.13
671.327	4497.68
671.518	4544.78
671.709	4682
671.9	4610.32
672.091	4616.46
672.282	4557.07
672.473	4528.4
672.664	4630.8
672.855	4550.93
673.046	4514.06
673.237	4675.85
673.428	4466.96
673.619	4602.13
673.809	4489.49
674	4411.67
674.191	4462.87
674.382	4378.9
674.573	4413.71
674.764	4509.97
674.954	4546.83
675.145	4366.61
675.336	4315.41
675.527	4303.12
675.717	4438.29
675.908	4391.19
676.099	4249.88
676.289	4282.64
676.48	4471.06
676.671	4256.02
676.861	4243.73
677.052	4223.25
677.243	4178.2
677.433	4098.33
677.624	4307.22
677.814	4219.16
678.005	4159.77
678.195	4243.73
678.386	4233.49
678.576	4210.97
678.767	4094.23
678.957	4143.38
679.148	4165.91
679.338	4165.91
679.529	4180.25
679.719	4159.77
679.909	4200.73
680.1	4071.7
680.29	4157.72
680.481	4184.34
680.671	4161.81
680.861	3916.06
681.052	4131.09
681.242	4065.56
681.432	4010.26
681.622	4024.6
681.813	3971.35
682.003	4057.37
682.193	4215.06
682.383	4014.36
682.573	4086.04
682.764	4034.84
682.954	4053.27
683.144	4008.22
683.334	4034.84
683.524	3963.16
683.714	4030.74
683.904	4083.99
684.094	3975.45
684.284	4034.84
684.474	3864.86
684.664	3963.16
684.854	3907.87
685.044	3942.68
685.234	3959.06
685.424	3772.7
685.614	3889.43
685.804	4008.22
685.994	3871
686.184	3873.05
686.374	3754.27
686.564	3903.77
686.753	3811.61
686.943	3756.32
687.133	3830.04
687.323	3838.23
687.513	3645.73
687.702	3778.84
687.892	3629.34
688.082	3735.84
688.272	3739.93
688.461	3580.19
688.651	3608.86
688.841	3684.64
689.03	3698.97
689.22	3584.29
689.41	3541.28
689.599	3629.34
689.789	3533.09
689.979	3375.39
690.168	3463.46
690.358	3485.98
690.547	3500.32
690.737	3537.18
690.926	3479.84
691.116	3428.64
691.305	3445.02
691.495	3246.37
691.684	3326.24
691.874	3334.43
692.063	3275.04
692.252	3135.78
692.442	3485.98
692.631	3293.48
692.82	3227.94
693.01	3184.93
693.199	3264.8
693.388	3168.55
693.578	3141.93
693.767	3311.91
693.956	3252.52
694.146	3254.56
694.335	3170.6
694.524	3227.94
694.713	3076.39
694.902	3156.26
695.092	3078.44
695.281	3043.62
695.47	3166.5
695.659	3125.54
695.848	3039.53
696.037	3055.91
696.226	3100.97
696.415	3078.44
696.604	3115.3
696.793	3023.14
696.982	3051.81
697.171	3242.28
697.36	3010.86
697.549	3057.96
697.738	3014.95
697.927	2902.31
698.116	3002.66
698.305	2992.42
698.494	3033.38
698.683	2984.23
698.872	2980.14
699.061	2814.25
699.25	2894.12
699.438	2744.62
699.627	2879.79
699.816	3074.34
700.005	2986.28
700.193	2935.08
700.382	2939.18
700.571	3019.05
700.76	3043.62
700.948	3074.34
701.137	2906.41
701.326	2801.96
701.514	2947.37
701.703	2910.5
701.892	3033.38
702.08	2863.4
702.269	2789.67
702.457	2844.97
702.646	2939.18
702.834	2908.46
703.023	2791.72
703.212	2918.7
703.4	2793.77
703.589	2742.57
703.777	2904.36
703.965	2752.81
704.154	2781.48
704.342	2801.96
704.531	2849.07
704.719	2799.91
704.907	2838.83
705.096	2804.01
705.284	2748.72
705.472	2902.31
705.661	2844.97
705.849	2828.59
706.037	2810.15
706.226	2781.48
706.414	2785.58
706.602	2787.63
706.79	2910.5
706.979	2689.32
707.167	2787.63
707.355	2902.31
707.543	2670.89
707.731	2720.04
707.919	2769.2
708.107	2816.3
708.296	2777.39
708.484	2881.83
708.672	2939.18
708.86	2724.14
709.048	2765.1
709.236	2851.11
709.424	2740.52
709.612	2777.39
709.8	2799.91
709.988	2691.37
710.176	2681.13
710.364	2636.08
710.551	2781.48
710.739	2814.25
710.927	2804.01
711.115	2842.92
711.303	2695.47
711.491	2799.91
711.679	2765.1
711.866	2728.24
712.054	2869.55
712.242	2767.15
712.43	2875.69
712.617	2834.73
712.805	2820.39
712.993	2638.13
713.181	2756.91
713.368	2797.87
713.556	2824.49
713.744	2713.9
713.931	2822.44
714.119	2783.53
714.306	2697.52
714.494	2900.27
714.682	2752.81
714.869	2939.18
715.057	2875.69
715.244	2799.91
715.432	2793.77
715.619	2844.97
715.807	2728.24
715.994	2797.87
716.182	2783.53
716.369	2744.62
716.556	2806.06
716.744	2711.85
716.931	2824.49
717.119	2820.39
717.306	2873.64
717.493	2804.01
717.681	2902.31
717.868	2804.01
718.055	2900.27
718.242	2844.97
718.43	2849.07
718.617	2664.75
718.804	2810.15
718.991	2873.64
719.179	2824.49
719.366	2896.17
719.553	2853.16
719.74	2933.03
719.927	2709.8
720.114	2787.63
720.301	2779.43
720.488	2904.36
720.676	2732.33
720.863	2761
721.05	2824.49
721.237	2810.15
721.424	2885.93
721.611	2804.01
721.798	2799.91
721.985	2804.01
722.172	2867.5
722.358	2771.24
722.545	2941.22
722.732	2773.29
722.919	2795.82
723.106	2742.57
723.293	2851.11
723.48	2885.93
723.667	2779.43
723.853	2830.63
724.04	2806.06
724.227	2820.39
724.414	2877.74
724.6	2806.06
724.787	2855.21
724.974	2824.49
725.161	2789.67
725.347	2738.48
725.534	2834.73
725.72	2779.43
725.907	2822.44
726.094	2730.28
726.28	2824.49
726.467	2726.19
726.653	2644.27
726.84	2744.62
727.027	2785.58
727.213	2787.63
727.4	2935.08
727.586	2769.2
727.773	2863.4
727.959	2814.25
728.145	2765.1
728.332	2865.45
728.518	2793.77
728.705	2857.26
728.891	2787.63
729.077	2836.78
729.264	2816.3
729.45	2707.76
729.636	2857.26
729.823	2775.34
730.009	2844.97
730.195	2894.12
730.382	2740.52
730.568	2765.1
730.754	2752.81
730.94	2734.38
731.126	2691.37
731.313	2816.3
731.499	2769.2
731.685	2879.79
731.871	2881.83
732.057	2777.39
732.243	2859.31
732.429	2875.69
732.615	2795.82
732.801	2922.79
732.987	2777.39
733.173	2691.37
733.359	2758.96
733.545	2818.35
733.731	2847.02
733.917	2769.2
734.103	2797.87
734.289	2740.52
734.475	2789.67
734.661	2947.37
734.847	2761
735.033	2908.46
735.219	2904.36
735.404	2951.46
735.59	2685.23
735.776	2707.76
735.962	2873.64
736.148	2896.17
736.333	2842.92
736.519	2814.25
736.705	2781.48
736.89	2808.11
737.076	2918.7
737.262	2726.19
737.447	2775.34
737.633	2701.61
737.819	2918.7
738.004	2732.33
738.19	2857.26
738.375	2713.9
738.561	2777.39
738.747	2769.2
738.932	2638.13
739.118	2742.57
739.303	2791.72
739.489	2724.14
739.674	2660.65
739.859	2674.99
740.045	2644.27
740.23	2664.75
740.416	2625.84
740.601	2615.6
740.786	2685.23
740.972	2711.85
741.157	2572.59
741.342	2609.45
741.528	2636.08
741.713	2621.74
741.898	2558.25
742.084	2609.45
742.269	2654.51
742.454	2611.5
742.639	2685.23
742.824	2656.56
743.01	2539.82
743.195	2576.69
743.38	2638.13
743.565	2490.67
743.75	2576.69
743.935	2482.48
744.12	2494.77
744.305	2505.01
744.49	2429.23
744.675	2425.14
744.86	2439.47
745.045	2416.94
745.23	2455.86
745.415	2459.95
745.6	2308.4
745.785	2355.51
745.97	2386.22
746.155	2404.66
746.34	2480.43
746.525	2406.7
746.71	2437.42
746.895	2320.69
747.079	2451.76
747.264	2361.65
747.449	2277.68
747.634	2326.83
747.819	2244.92
748.003	2232.63
748.188	2228.53
748.373	2326.83
748.557	2214.2
748.742	2304.31
748.927	2193.72
749.111	2152.76
749.296	2273.59
749.481	2181.43
749.665	2249.01
749.85	2085.17
750.034	2150.71
750.219	2089.27
750.404	2091.32
750.588	2089.27
750.773	2007.35
750.957	2085.17
751.141	2011.45
751.326	1972.54
751.51	1995.06
751.695	2038.07
751.879	1878.33
752.064	1956.15
752.248	1907
752.432	1878.33
752.617	1941.82
752.801	1952.06
752.985	1827.13
753.17	1900.86
753.354	1900.86
753.538	1841.47
753.722	1790.27
753.907	1829.18
754.091	1689.92
754.275	1847.61
754.459	1720.64
754.643	1767.74
754.828	1806.65
755.012	1784.12
755.196	1716.54
755.38	1745.21
755.564	1618.24
755.748	1653.05
755.932	1718.59
756.116	1599.8
756.3	1640.76
756.484	1685.82
756.668	1542.46
756.852	1640.76
757.036	1519.93
757.22	1560.89
757.404	1601.85
757.588	1495.36
757.772	1562.94
757.956	1579.33
758.14	1556.8
758.323	1456.45
758.507	1474.88
758.691	1575.23
758.875	1517.89
759.059	1491.26
759.242	1503.55
759.426	1501.5
759.61	1491.26
759.794	1421.63
759.977	1462.59
760.161	1395.01
760.345	1532.22
760.528	1454.4
760.712	1417.54
760.895	1435.97
761.079	1415.49
761.263	1536.32
761.446	1311.04
761.63	1345.86
761.813	1458.5
761.997	1378.62
762.18	1335.62
762.364	1360.19
762.547	1282.37
762.731	1421.63
762.914	1296.71
763.098	1253.7
763.281	1304.9
763.464	1235.27
763.648	1300.8
763.831	1284.42
764.015	1313.09
764.198	1245.51
764.381	1337.66
764.564	1204.55
764.748	1276.23
764.931	1251.65
765.114	1276.23
765.297	1257.79
765.481	1257.79
765.664	1159.49
765.847	1218.88
766.03	1274.18
766.213	1261.89
766.397	1308.99
766.58	1243.46
766.763	1206.59
766.946	1245.51
767.129	1204.55
767.312	1112.39
767.495	1222.98
767.678	1173.83
767.861	1096
768.044	1050.95
768.227	1102.15
768.41	1083.72
768.593	1063.24
768.776	1096
768.959	1075.52
769.142	1145.16
769.324	1128.77
769.507	1153.35
769.69	1042.76
769.873	1012.04
770.056	1044.81
770.239	1073.48
770.421	1067.33
770.604	1046.85
770.787	1020.23
770.97	1124.68
771.152	1020.23
771.335	1102.15
771.518	1065.29
771.7	1048.9
771.883	1020.23
772.066	1089.86
772.248	1077.57
772.431	1030.47
772.613	1089.86
772.796	1003.85
772.978	1022.28
773.161	1042.76
773.343	966.98
773.526	1007.94
773.708	995.65
773.891	948.55
774.073	872.78
774.256	876.87
774.438	1032.52
774.621	977.22
774.803	944.45
774.985	856.39
775.168	919.88
775.35	921.93
775.532	903.5
775.715	753.99
775.897	862.54
776.079	825.67
776.261	835.91
776.444	893.26
776.626	844.1
776.808	856.39
776.99	846.15
777.173	803.15
777.355	815.43
777.537	891.21
777.719	745.8
777.901	817.48
778.083	852.3
778.265	686.41
778.447	782.67
778.629	778.57
778.811	768.33
778.993	737.61
779.175	717.13
779.357	680.27
779.539	647.5
779.721	764.23
779.903	743.75
780.085	678.22
780.267	753.99
780.449	672.08
780.631	702.79
780.812	667.98
780.994	715.08
781.176	680.27
781.358	713.03
781.54	622.92
781.721	682.31
781.903	663.88
782.085	655.69
782.267	627.02
782.448	678.22
782.63	706.89
782.812	596.3
782.993	526.67
783.175	614.73
783.357	600.4
783.538	643.4
783.72	586.06
783.901	641.36
784.083	620.88
784.264	584.01
784.446	545.1
784.627	588.11
784.809	579.92
784.99	493.9
785.172	641.36
785.353	495.95
785.535	524.62
785.716	543.05
785.897	530.77
786.079	596.3
786.26	518.48
786.441	522.57
786.623	555.34
786.804	489.81
786.985	444.75
787.167	493.9
787.348	469.33
787.529	520.53
787.71	487.76
787.891	481.61
788.073	465.23
788.254	403.79
788.435	459.09
788.616	418.13
788.797	444.75
788.978	553.29
789.159	483.66
789.34	381.26
789.522	559.44
789.703	457.04
789.884	510.29
790.065	463.18
790.246	461.13
790.427	471.37
790.607	440.65
790.788	493.9
790.969	444.75
791.15	422.22
791.331	342.35
791.512	438.61
791.693	459.09
791.874	373.07
792.054	485.71
792.235	467.28
792.416	354.64
792.597	446.8
792.778	420.17
792.958	346.45
793.139	334.16
793.32	420.17
793.5	383.31
793.681	303.44
793.862	360.78
794.042	391.5
794.223	305.49
794.404	403.79
794.584	332.11
794.765	444.75
794.945	401.74
795.126	379.22
795.306	401.74
795.487	385.36
795.667	364.88
795.848	385.36
796.028	348.5
796.209	315.73
796.389	305.49
796.57	323.92
796.75	319.82
796.93	340.3
797.111	311.63
797.291	295.25
797.471	268.63
797.652	268.63
797.832	373.07
798.012	358.74
798.192	340.3
798.373	268.63
798.553	260.43
798.733	354.64
798.913	239.95
799.093	336.21
799.274	278.87
799.454	303.44
799.634	295.25
799.814	325.97
799.994	309.58
800.174	371.02
800.354	325.97
800.534	299.34
800.714	309.58
800.894	334.16
801.074	254.29
801.254	338.26
801.434	268.63
801.614	291.15
801.794	223.57
801.974	708.94
802.154	256.34
802.334	223.57
802.514	244.05
802.693	256.34
802.873	315.73
803.053	393.55
803.233	387.41
803.413	262.48
803.592	207.19
803.772	227.67
803.952	272.72
804.131	227.67
804.311	213.33
804.491	258.39
804.67	170.32
804.85	231.76
805.03	260.43
805.209	301.39
805.389	209.23
805.568	282.96
805.748	233.81
805.928	172.37
806.107	303.44
806.287	233.81
806.466	242
806.646	276.82
806.825	262.48
807.004	227.67
807.184	213.33
807.363	270.67
807.543	209.23
807.722	205.14
807.901	299.34
808.081	250.19
808.26	172.37
808.439	258.39
808.619	262.48
808.798	203.09
808.977	190.8
809.156	237.91
809.336	262.48
809.515	266.58
809.694	246.1
809.873	155.99
810.052	233.81
810.231	311.63
810.411	215.38
810.59	254.29
810.769	219.47
810.948	190.8
811.127	133.46
811.306	244.05
811.485	131.41
811.664	254.29
811.843	174.42
812.022	123.22
812.201	250.19
812.38	186.71
812.559	225.62
812.737	190.8
812.916	141.65
813.095	180.56
813.274	129.36
813.453	201.04
813.632	227.67
813.811	182.61
813.989	221.52
814.168	239.95
814.347	217.43
814.526	174.42
814.704	235.86
814.883	244.05
815.062	155.99
815.24	237.91
815.419	172.37
815.598	215.38
815.776	123.22
815.955	141.65
816.133	178.51
816.312	180.56
816.49	217.43
816.669	170.32
816.847	176.47
817.026	139.6
817.204	174.42
817.383	98.64
817.561	121.17
817.74	147.8
817.918	164.18
818.097	190.8
818.275	129.36
818.453	143.7
818.632	151.89
818.81	182.61
818.988	121.17
819.167	139.6
819.345	131.41
819.523	72.02
819.701	135.51
819.879	168.27
820.058	180.56
820.236	158.03
820.414	129.36
820.592	164.18
820.77	119.12
820.948	155.99
821.127	80.21
821.305	207.19
821.483	67.92
821.661	102.74
821.839	108.88
822.017	108.88
822.195	31.06
822.373	100.69
822.551	182.61
822.729	188.75
822.907	217.43
823.085	211.28
823.262	147.8
823.44	155.99
823.618	117.08
823.796	104.79
823.974	155.99
824.152	121.17
824.329	166.23
824.507	135.51
824.685	98.64
824.863	63.83
825.04	135.51
825.218	112.98
825.396	201.04
825.574	147.8
825.751	137.56
825.929	168.27
826.107	166.23
826.284	102.74
826.462	100.69
826.639	170.32
826.817	117.08
826.994	158.03
827.172	59.73
827.349	119.12
827.527	125.27
827.704	205.14
827.882	145.75
828.059	119.12
828.237	133.46
828.414	127.32
828.591	8.53
828.769	47.44
828.946	133.46
829.124	67.92
829.301	151.89
829.478	102.74
829.655	125.27
829.833	88.4
830.01	63.83
830.187	125.27
830.364	67.92
830.542	115.03
830.719	168.27
830.896	121.17
831.073	147.8
831.25	121.17
831.427	129.36
831.604	162.13
831.782	108.88
831.959	108.88
832.136	86.36
832.313	84.31
832.49	153.94
832.667	117.08
832.844	78.16
833.021	133.46
833.198	65.88
833.374	149.84
833.551	135.51
833.728	123.22
833.905	182.61
834.082	82.26
834.259	102.74
834.436	84.31
834.612	53.59
834.789	112.98
834.966	84.31
835.143	51.54
835.319	43.35
835.496	96.6
835.673	135.51
835.85	166.23
836.026	125.27
836.203	102.74
836.38	115.03
836.556	90.45
836.733	6.49
836.909	16.73
837.086	147.8
837.262	82.26
837.439	102.74
837.616	112.98
837.792	63.83
837.968	92.5
838.145	33.11
838.321	55.64
838.498	100.69
838.674	121.17
838.851	41.3
839.027	123.22
839.203	49.49
839.38	63.83
839.556	65.88
839.732	127.32
839.909	72.02
840.085	86.36
840.261	119.12
840.437	57.68
840.614	61.78
840.79	31.06
840.966	96.6
841.142	123.22
841.318	151.89
841.494	74.07
841.671	49.49
841.847	76.12
842.023	59.73
842.199	92.5
842.375	139.6
842.551	129.36
842.727	-5.8
842.903	168.27
843.079	37.2
843.255	51.54
843.431	115.03
843.607	100.69
843.783	53.59
843.959	26.96
844.134	39.25
844.31	57.68
844.486	29.01
844.662	86.36
844.838	41.3
845.013	78.16
845.189	59.73
845.365	57.68
845.541	88.4
845.716	-16.04
845.892	158.03
846.068	137.56
846.244	41.3
846.419	67.92
846.595	8.53
846.77	57.68
846.946	80.21
847.122	96.6
847.297	53.59
847.473	121.17
847.648	8.53
847.824	49.49
847.999	37.2
848.175	59.73
848.35	31.06
848.526	94.55
848.701	102.74
848.876	16.73
849.052	22.87
849.227	76.12
849.403	10.58
849.578	22.87
849.753	49.49
849.929	86.36
850.104	37.2
850.279	63.83
850.454	14.68
850.63	63.83
850.805	6.49
850.98	12.63
851.155	33.11
851.33	115.03
851.505	115.03
851.681	92.5
851.856	16.73
852.031	53.59
852.206	14.68
852.381	53.59
852.556	4.44
852.731	106.84
852.906	78.16
853.081	51.54
853.256	129.36
853.431	41.3
853.606	51.54
853.781	63.83
853.956	90.45
854.131	39.25
854.305	104.79
854.48	24.92
854.655	-24.23
854.83	63.83
855.005	43.35
855.18	84.31
855.354	88.4
855.529	53.59
855.704	69.97
855.879	84.31
856.053	10.58
856.228	-50.86
856.403	-13.99
856.577	45.4
856.752	29.01
856.926	49.49
857.101	20.82
857.276	26.96
857.45	12.63
857.625	-1.71
857.799	84.31
857.974	51.54
858.148	2.39
858.323	78.16
858.497	29.01
858.672	61.78
858.846	-16.04
859.02	-13.99
859.195	63.83
859.369	-1.71
859.543	37.2
859.718	-5.8
859.892	65.88
860.066	37.2
860.241	33.11
860.415	65.88
860.589	6.49
860.763	51.54
860.938	-34.47
861.112	10.58
861.286	61.78
861.46	76.12
861.634	22.87
861.808	88.4
861.982	-40.62
862.157	-26.28
862.331	12.63
862.505	0.34
862.679	51.54
862.853	26.96
863.027	12.63
863.201	47.44
863.375	49.49
863.549	16.73
863.722	94.55
863.896	94.55
864.07	135.51
864.244	49.49
864.418	47.44
864.592	53.59
864.766	18.77
864.939	51.54
865.113	6.49
865.287	43.35
865.461	4.44
865.634	2.39
865.808	69.97
865.982	59.73
866.156	-44.71
866.329	47.44
866.503	14.68
866.676	31.06
866.85	49.49
867.024	33.11
867.197	-22.19
867.371	57.68
867.544	43.35
867.718	-65.19
867.891	24.92
868.065	-1.71
868.238	53.59
868.412	51.54
868.585	59.73
868.759	35.16
868.932	8.53
869.105	78.16
869.279	-5.8
869.452	59.73
869.625	67.92
869.799	82.26
869.972	22.87
870.145	53.59
870.319	6.49
870.492	39.25
870.665	16.73
870.838	14.68
871.011	-50.86
871.185	4.44
871.358	20.82
871.531	26.96
871.704	20.82
871.877	0.34
872.05	0.34
872.223	-52.91
872.396	4.44
872.569	61.78
872.742	22.87
872.915	6.49
873.088	29.01
873.261	51.54
873.434	8.53
873.607	18.77
873.78	12.63
873.953	43.35
874.126	2.39
874.299	45.4
874.471	-46.76
874.644	84.31
874.817	84.31
874.99	90.45
875.163	8.53
875.335	67.92
875.508	37.2
875.681	4.44
875.853	41.3
876.026	47.44
876.199	110.93
876.371	49.49
876.544	61.78
876.717	14.68
876.889	74.07
877.062	41.3
877.234	14.68
877.407	6.49
877.579	67.92
877.752	37.2
877.924	-40.62
878.097	16.73
878.269	53.59
878.442	-20.14
878.614	-61.1
878.786	-13.99
878.959	-24.23
879.131	72.02
879.303	-3.75
879.476	74.07
879.648	31.06
879.82	98.64
879.993	12.63
880.165	-40.62
880.337	45.4
880.509	69.97
880.681	10.58
880.854	26.96
881.026	-30.38
881.198	-30.38
881.37	-38.57
881.542	0.34
881.714	0.34
881.886	4.44
882.058	-16.04
882.23	6.49
882.402	-11.95
882.574	20.82
882.746	16.73
882.918	117.08
883.09	-48.81
883.262	-9.9
883.434	84.31
883.606	-59.05
883.778	37.2
883.95	98.64
884.122	2.39
884.293	-11.95
884.465	65.88
884.637	67.92
884.809	12.63
884.98	-24.23
885.152	67.92
885.324	33.11
885.496	8.53
885.667	33.11
885.839	33.11
886.011	100.69
886.182	37.2
886.354	-13.99
886.525	12.63
886.697	-26.28
886.869	-69.29
887.04	24.92
887.212	61.78
887.383	-13.99
887.555	20.82
887.726	55.64
887.897	8.53
888.069	31.06
888.24	63.83
888.412	18.77
888.583	-22.19
888.754	8.53
888.926	8.53
889.097	-54.95
889.268	49.49
889.44	33.11
889.611	-71.34
889.782	-32.43
889.953	-20.14
890.125	123.22
890.296	-24.23
890.467	10.58
890.638	47.44
890.809	26.96
890.98	69.97
891.151	37.2
891.323	51.54
891.494	-7.85
891.665	4.44
891.836	-57
892.007	12.63
892.178	18.77
892.349	12.63
892.52	37.2
892.691	-32.43
892.862	-9.9
893.032	4.44
893.203	39.25
893.374	-5.8
893.545	2.39
893.716	-9.9
893.887	37.2
894.057	14.68
894.228	-11.95
894.399	-9.9
894.57	51.54
894.74	-3.75
894.911	86.36
895.082	8.53
895.253	35.16
895.423	-11.95
895.594	59.73
895.764	35.16
895.935	26.96
896.106	35.16
896.276	-1.71
896.447	80.21
896.617	-34.47
896.788	16.73
896.958	2.39
897.129	-3.75
897.299	-9.9
897.47	29.01
897.64	90.45
897.81	-50.86
897.981	35.16
898.151	-71.34
898.322	67.92
898.492	65.88
898.662	8.53
898.832	39.25
899.003	18.77
899.173	22.87
899.343	-18.09
899.513	-3.75
