Data from USB4F104151__70__12-27-45-632.txt Node

Date: Fri Mar 14 12:27:45 EDT 2025
User: louis
Spectrometer: USB4F10415
Trigger mode: 4
Integration Time (sec): 2.000000E-2
Scans to average: 1
Electric dark correction enabled: true
Nonlinearity correction enabled: false
Boxcar width: 0
XAxis mode: Wavelengths
Number of Pixels in Spectrum: 3648
>>>>>Begin Spectral Data<<<<<
178.204	-144.38
178.424	-144.38
178.644	-144.38
178.864	-95.23
179.084	-54.27
179.304	19.46
179.524	5.12
179.744	29.7
179.964	64.51
180.184	-29.7
180.404	19.46
180.624	-9.22
180.844	-9.22
181.064	-41.98
181.283	-5.12
181.503	-23.55
181.723	-19.46
181.943	-50.18
182.163	111.61
182.383	44.03
182.602	21.5
182.822	-58.37
183.042	68.61
183.262	-58.37
183.482	-13.31
183.701	-19.46
183.921	9.22
184.141	-99.33
184.361	136.19
184.58	33.79
184.8	52.22
185.02	64.51
185.239	52.22
185.459	54.27
185.679	41.98
185.898	-31.74
186.118	-48.13
186.338	37.89
186.557	-17.41
186.777	19.46
186.997	-9.22
187.216	78.85
187.436	48.13
187.655	19.46
187.875	130.05
188.095	3.07
188.314	60.42
188.534	119.81
188.753	5.12
188.973	31.74
189.192	95.23
189.412	35.84
189.631	48.13
189.851	80.89
190.07	52.22
190.29	58.37
190.509	27.65
190.729	46.08
190.948	82.94
191.168	74.75
191.387	11.26
191.607	99.33
191.826	56.32
192.045	68.61
192.265	-9.22
192.484	29.7
192.704	-11.26
192.923	21.5
193.142	89.09
193.362	84.99
193.581	91.13
193.8	3.07
194.02	37.89
194.239	68.61
194.458	48.13
194.678	52.22
194.897	3.07
195.116	41.98
195.335	39.94
195.555	58.37
195.774	41.98
195.993	9.22
196.212	-19.46
196.432	115.71
196.651	13.31
196.87	29.7
197.089	58.37
197.308	87.04
197.528	-31.74
197.747	-62.46
197.966	-72.7
198.185	72.7
198.404	9.22
198.623	-15.36
198.842	56.32
199.062	33.79
199.281	97.28
199.5	15.36
199.719	60.42
199.938	68.61
200.157	89.09
200.376	91.13
200.595	54.27
200.814	31.74
201.033	35.84
201.252	23.55
201.471	3.07
201.69	76.8
201.909	56.32
202.128	5.12
202.347	-15.36
202.566	13.31
202.785	-62.46
203.004	1.02
203.223	144.38
203.442	35.84
203.661	11.26
203.879	-5.12
204.098	1.02
204.317	15.36
204.536	82.94
204.755	35.84
204.974	78.85
205.193	-5.12
205.411	56.32
205.63	23.55
205.849	-1.02
206.068	31.74
206.287	52.22
206.505	9.22
206.724	-23.55
206.943	41.98
207.162	11.26
207.381	13.31
207.599	44.03
207.818	93.18
208.037	76.8
208.255	56.32
208.474	66.56
208.693	33.79
208.911	37.89
209.13	76.8
209.349	80.89
209.567	-11.26
209.786	101.37
210.005	44.03
210.223	41.98
210.442	-27.65
210.661	39.94
210.879	48.13
211.098	89.09
211.316	-23.55
211.535	89.09
211.753	37.89
211.972	27.65
212.191	-5.12
212.409	37.89
212.628	-3.07
212.846	-44.03
213.065	-3.07
213.283	44.03
213.502	41.98
213.72	84.99
213.938	33.79
214.157	58.37
214.375	68.61
214.594	37.89
214.812	41.98
215.031	33.79
215.249	74.75
215.467	-11.26
215.686	3.07
215.904	64.51
216.122	17.41
216.341	111.61
216.559	62.46
216.778	39.94
216.996	74.75
217.214	-7.17
217.432	-9.22
217.651	-17.41
217.869	52.22
218.087	17.41
218.306	62.46
218.524	91.13
218.742	62.46
218.96	50.18
219.179	68.61
219.397	21.5
219.615	41.98
219.833	121.85
220.051	21.5
220.27	48.13
220.488	76.8
220.706	56.32
220.924	15.36
221.142	80.89
221.36	15.36
221.578	31.74
221.796	31.74
222.015	39.94
222.233	64.51
222.451	107.52
222.669	5.12
222.887	121.85
223.105	33.79
223.323	93.18
223.541	37.89
223.759	101.37
223.977	70.65
224.195	76.8
224.413	72.7
224.631	62.46
224.849	76.8
225.067	31.74
225.285	-17.41
225.503	5.12
225.721	35.84
225.939	52.22
226.157	62.46
226.375	166.91
226.592	39.94
226.81	-19.46
227.028	68.61
227.246	119.81
227.464	84.99
227.682	87.04
227.9	76.8
228.117	64.51
228.335	58.37
228.553	15.36
228.771	-29.7
228.989	58.37
229.206	80.89
229.424	54.27
229.642	7.17
229.86	66.56
230.077	68.61
230.295	27.65
230.513	60.42
230.731	97.28
230.948	93.18
231.166	35.84
231.384	87.04
231.601	1.02
231.819	119.81
232.037	41.98
232.254	-3.07
232.472	80.89
232.689	78.85
232.907	23.55
233.125	25.6
233.342	72.7
233.56	19.46
233.777	21.5
233.995	44.03
234.213	9.22
234.43	123.9
234.648	91.13
234.865	3.07
235.083	70.65
235.3	62.46
235.518	117.76
235.735	-1.02
235.953	111.61
236.17	46.08
236.388	58.37
236.605	60.42
236.822	58.37
237.04	82.94
237.257	-1.02
237.475	58.37
237.692	62.46
237.909	48.13
238.127	66.56
238.344	66.56
238.562	76.8
238.779	58.37
238.996	-60.42
239.214	-5.12
239.431	23.55
239.648	72.7
239.865	-9.22
240.083	21.5
240.3	68.61
240.517	11.26
240.735	109.57
240.952	23.55
241.169	64.51
241.386	54.27
241.603	35.84
241.821	48.13
242.038	74.75
242.255	37.89
242.472	39.94
242.689	70.65
242.907	64.51
243.124	99.33
243.341	91.13
243.558	33.79
243.775	39.94
243.992	7.17
244.209	31.74
244.426	1.02
244.643	11.26
244.86	58.37
245.078	46.08
245.295	29.7
245.512	89.09
245.729	-9.22
245.946	80.89
246.163	19.46
246.38	-7.17
246.597	27.65
246.814	-19.46
247.031	56.32
247.248	84.99
247.464	9.22
247.681	-19.46
247.898	74.75
248.115	35.84
248.332	15.36
248.549	93.18
248.766	89.09
248.983	99.33
249.2	31.74
249.417	119.81
249.633	74.75
249.85	111.61
250.067	-17.41
250.284	80.89
250.501	50.18
250.717	25.6
250.934	29.7
251.151	82.94
251.368	-29.7
251.585	46.08
251.801	91.13
252.018	64.51
252.235	60.42
252.451	62.46
252.668	33.79
252.885	37.89
253.102	9.22
253.318	23.55
253.535	54.27
253.752	87.04
253.968	29.7
254.185	56.32
254.401	66.56
254.618	64.51
254.835	39.94
255.051	31.74
255.268	56.32
255.484	154.62
255.701	82.94
255.917	66.56
256.134	-13.31
256.351	70.65
256.567	27.65
256.784	-1.02
257	15.36
257.217	95.23
257.433	58.37
257.65	-5.12
257.866	101.37
258.082	-1.02
258.299	3.07
258.515	70.65
258.732	29.7
258.948	-17.41
259.165	68.61
259.381	48.13
259.597	15.36
259.814	72.7
260.03	52.22
260.246	54.27
260.463	113.66
260.679	44.03
260.895	25.6
261.112	48.13
261.328	11.26
261.544	5.12
261.761	87.04
261.977	91.13
262.193	64.51
262.409	27.65
262.626	1.02
262.842	-9.22
263.058	50.18
263.274	99.33
263.49	5.12
263.707	44.03
263.923	70.65
264.139	33.79
264.355	11.26
264.571	80.89
264.787	15.36
265.004	62.46
265.22	27.65
265.436	48.13
265.652	5.12
265.868	103.42
266.084	-29.7
266.3	152.57
266.516	37.89
266.732	41.98
266.948	19.46
267.164	31.74
267.38	103.42
267.596	115.71
267.812	54.27
268.028	-3.07
268.244	-1.02
268.46	91.13
268.676	70.65
268.892	52.22
269.108	109.57
269.324	41.98
269.54	-7.17
269.756	54.27
269.972	101.37
270.188	62.46
270.403	-66.56
270.619	134.14
270.835	54.27
271.051	80.89
271.267	41.98
271.483	44.03
271.698	95.23
271.914	52.22
272.13	-11.26
272.346	91.13
272.562	52.22
272.777	3.07
272.993	33.79
273.209	56.32
273.425	76.8
273.64	54.27
273.856	35.84
274.072	-48.13
274.287	25.6
274.503	70.65
274.719	54.27
274.934	37.89
275.15	99.33
275.366	52.22
275.581	23.55
275.797	52.22
276.012	140.29
276.228	35.84
276.444	95.23
276.659	72.7
276.875	-3.07
277.09	54.27
277.306	-3.07
277.521	74.75
277.737	-7.17
277.952	64.51
278.168	48.13
278.383	7.17
278.599	31.74
278.814	66.56
279.03	3.07
279.245	115.71
279.461	-7.17
279.676	121.85
279.892	33.79
280.107	91.13
280.322	-5.12
280.538	48.13
280.753	11.26
280.969	-5.12
281.184	3.07
281.399	128
281.615	95.23
281.83	46.08
282.045	11.26
282.26	15.36
282.476	123.9
282.691	52.22
282.906	74.75
283.122	7.17
283.337	19.46
283.552	89.09
283.767	-7.17
283.983	3.07
284.198	35.84
284.413	54.27
284.628	-50.18
284.843	9.22
285.058	-3.07
285.274	15.36
285.489	9.22
285.704	48.13
285.919	48.13
286.134	46.08
286.349	-11.26
286.564	-46.08
286.779	39.94
286.995	76.8
287.21	-5.12
287.425	-17.41
287.64	21.5
287.855	1.02
288.07	15.36
288.285	70.65
288.5	95.23
288.715	82.94
288.93	35.84
289.145	17.41
289.36	113.66
289.575	93.18
289.79	115.71
290.004	23.55
290.219	74.75
290.434	3.07
290.649	48.13
290.864	58.37
291.079	1.02
291.294	35.84
291.509	23.55
291.724	64.51
291.938	46.08
292.153	41.98
292.368	9.22
292.583	74.75
292.798	60.42
293.012	58.37
293.227	80.89
293.442	11.26
293.657	74.75
293.871	99.33
294.086	140.29
294.301	-7.17
294.516	39.94
294.73	13.31
294.945	3.07
295.16	52.22
295.374	25.6
295.589	29.7
295.804	35.84
296.018	62.46
296.233	39.94
296.447	62.46
296.662	72.7
296.877	54.27
297.091	56.32
297.306	46.08
297.52	19.46
297.735	70.65
297.949	66.56
298.164	58.37
298.378	25.6
298.593	64.51
298.807	5.12
299.022	82.94
299.236	91.13
299.451	76.8
299.665	99.33
299.88	13.31
300.094	80.89
300.309	25.6
300.523	54.27
300.737	15.36
300.952	-29.7
301.166	-1.02
301.381	62.46
301.595	13.31
301.809	164.86
302.024	-15.36
302.238	82.94
302.452	105.47
302.667	44.03
302.881	37.89
303.095	68.61
303.309	72.7
303.524	46.08
303.738	25.6
303.952	21.5
304.166	-19.46
304.381	7.17
304.595	37.89
304.809	50.18
305.023	39.94
305.237	62.46
305.452	140.29
305.666	5.12
305.88	50.18
306.094	119.81
306.308	9.22
306.522	70.65
306.736	29.7
306.95	64.51
307.164	-1.02
307.379	21.5
307.593	9.22
307.807	68.61
308.021	39.94
308.235	-13.31
308.449	27.65
308.663	13.31
308.877	41.98
309.091	13.31
309.305	93.18
309.519	-1.02
309.733	72.7
309.947	41.98
310.161	5.12
310.374	44.03
310.588	62.46
310.802	19.46
311.016	7.17
311.23	56.32
311.444	89.09
311.658	74.75
311.872	80.89
312.085	111.61
312.299	21.5
312.513	41.98
312.727	84.99
312.941	64.51
313.154	66.56
313.368	-9.22
313.582	37.89
313.796	64.51
314.009	138.24
314.223	54.27
314.437	52.22
314.651	68.61
314.864	39.94
315.078	39.94
315.292	87.04
315.505	29.7
315.719	54.27
315.933	66.56
316.146	13.31
316.36	-11.26
316.573	-5.12
316.787	9.22
317.001	68.61
317.214	3.07
317.428	130.05
317.641	-29.7
317.855	97.28
318.068	121.85
318.282	23.55
318.495	117.76
318.709	41.98
318.922	97.28
319.136	37.89
319.349	68.61
319.563	93.18
319.776	27.65
319.99	64.51
320.203	60.42
320.417	99.33
320.63	9.22
320.843	76.8
321.057	19.46
321.27	46.08
321.483	113.66
321.697	101.37
321.91	80.89
322.124	17.41
322.337	89.09
322.55	48.13
322.763	48.13
322.977	130.05
323.19	46.08
323.403	27.65
323.617	9.22
323.83	66.56
324.043	48.13
324.256	119.81
324.469	-64.51
324.683	97.28
324.896	27.65
325.109	17.41
325.322	23.55
325.535	152.57
325.748	72.7
325.962	-11.26
326.175	17.41
326.388	64.51
326.601	76.8
326.814	-25.6
327.027	37.89
327.24	33.79
327.453	39.94
327.666	64.51
327.879	39.94
328.092	58.37
328.305	25.6
328.518	70.65
328.731	50.18
328.944	27.65
329.157	158.72
329.37	39.94
329.583	31.74
329.796	46.08
330.009	-35.84
330.222	64.51
330.435	82.94
330.648	15.36
330.861	72.7
331.073	21.5
331.286	70.65
331.499	5.12
331.712	27.65
331.925	46.08
332.138	39.94
332.35	-5.12
332.563	35.84
332.776	15.36
332.989	74.75
333.202	19.46
333.414	48.13
333.627	29.7
333.84	95.23
334.053	48.13
334.265	87.04
334.478	56.32
334.691	56.32
334.903	11.26
335.116	33.79
335.329	-5.12
335.541	21.5
335.754	15.36
335.966	25.6
336.179	33.79
336.392	27.65
336.604	91.13
336.817	39.94
337.029	46.08
337.242	119.81
337.454	13.31
337.667	41.98
337.88	-5.12
338.092	80.89
338.305	33.79
338.517	17.41
338.729	64.51
338.942	74.75
339.154	107.52
339.367	62.46
339.579	13.31
339.792	39.94
340.004	37.89
340.217	29.7
340.429	119.81
340.641	-11.26
340.854	17.41
341.066	-35.84
341.278	62.46
341.491	103.42
341.703	37.89
341.915	21.5
342.128	101.37
342.34	97.28
342.552	25.6
342.764	15.36
342.977	62.46
343.189	99.33
343.401	72.7
343.613	31.74
343.826	56.32
344.038	52.22
344.25	25.6
344.462	41.98
344.674	15.36
344.886	9.22
345.099	7.17
345.311	46.08
345.523	48.13
345.735	-19.46
345.947	72.7
346.159	27.65
346.371	54.27
346.583	25.6
346.795	134.14
347.007	134.14
347.219	-17.41
347.431	-1.02
347.643	76.8
347.855	48.13
348.067	50.18
348.279	27.65
348.491	97.28
348.703	54.27
348.915	132.09
349.127	54.27
349.339	29.7
349.551	50.18
349.763	9.22
349.975	93.18
350.187	115.71
350.399	44.03
350.61	84.99
350.822	109.57
351.034	56.32
351.246	39.94
351.458	41.98
351.669	74.75
351.881	9.22
352.093	82.94
352.305	91.13
352.517	76.8
352.728	119.81
352.94	58.37
353.152	64.51
353.363	35.84
353.575	91.13
353.787	97.28
353.999	109.57
354.21	58.37
354.422	60.42
354.633	107.52
354.845	11.26
355.057	37.89
355.268	89.09
355.48	-15.36
355.692	31.74
355.903	58.37
356.115	58.37
356.326	11.26
356.538	142.33
356.749	64.51
356.961	160.77
357.172	50.18
357.384	44.03
357.595	95.23
357.807	48.13
358.018	46.08
358.23	58.37
358.441	19.46
358.653	109.57
358.864	-25.6
359.075	-3.07
359.287	107.52
359.498	105.47
359.709	91.13
359.921	78.85
360.132	41.98
360.344	58.37
360.555	66.56
360.766	21.5
360.977	5.12
361.189	89.09
361.4	46.08
361.611	166.91
361.823	109.57
362.034	44.03
362.245	29.7
362.456	-35.84
362.667	136.19
362.879	72.7
363.09	50.18
363.301	82.94
363.512	27.65
363.723	52.22
363.935	60.42
364.146	136.19
364.357	27.65
364.568	125.95
364.779	93.18
364.99	95.23
365.201	31.74
365.412	52.22
365.623	66.56
365.834	80.89
366.045	-9.22
366.256	89.09
366.467	64.51
366.678	64.51
366.889	-5.12
367.1	-5.12
367.311	130.05
367.522	64.51
367.733	19.46
367.944	52.22
368.155	91.13
368.366	62.46
368.577	52.22
368.788	23.55
368.999	19.46
369.209	15.36
369.42	136.19
369.631	50.18
369.842	66.56
370.053	48.13
370.264	17.41
370.474	25.6
370.685	39.94
370.896	56.32
371.107	35.84
371.317	87.04
371.528	48.13
371.739	99.33
371.95	105.47
372.16	91.13
372.371	9.22
372.582	103.42
372.792	29.7
373.003	58.37
373.214	66.56
373.424	-21.5
373.635	109.57
373.846	78.85
374.056	15.36
374.267	39.94
374.477	117.76
374.688	164.86
374.898	132.09
375.109	7.17
375.319	46.08
375.53	121.85
375.74	140.29
375.951	33.79
376.161	101.37
376.372	103.42
376.582	103.42
376.793	76.8
377.003	37.89
377.214	56.32
377.424	72.7
377.635	123.9
377.845	70.65
378.055	7.17
378.266	64.51
378.476	68.61
378.686	66.56
378.897	109.57
379.107	33.79
379.317	84.99
379.528	80.89
379.738	97.28
379.948	62.46
380.158	99.33
380.369	91.13
380.579	48.13
380.789	132.09
380.999	72.7
381.21	101.37
381.42	158.72
381.63	95.23
381.84	62.46
382.05	89.09
382.261	111.61
382.471	54.27
382.681	78.85
382.891	56.32
383.101	89.09
383.311	74.75
383.521	15.36
383.731	58.37
383.941	68.61
384.151	60.42
384.361	74.75
384.571	72.7
384.781	101.37
384.991	91.13
385.201	107.52
385.411	130.05
385.621	72.7
385.831	87.04
386.041	128
386.251	15.36
386.461	107.52
386.671	54.27
386.881	56.32
387.091	89.09
387.301	158.72
387.511	84.99
387.72	115.71
387.93	125.95
388.14	144.38
388.35	33.79
388.56	93.18
388.769	58.37
388.979	156.67
389.189	41.98
389.399	70.65
389.609	37.89
389.818	103.42
390.028	46.08
390.238	80.89
390.447	156.67
390.657	91.13
390.867	68.61
391.076	46.08
391.286	37.89
391.496	76.8
391.705	89.09
391.915	138.24
392.125	44.03
392.334	138.24
392.544	154.62
392.753	84.99
392.963	33.79
393.172	148.48
393.382	54.27
393.591	150.53
393.801	84.99
394.01	115.71
394.22	187.39
394.429	140.29
394.639	111.61
394.848	175.1
395.058	117.76
395.267	35.84
395.477	136.19
395.686	117.76
395.895	175.1
396.105	115.71
396.314	107.52
396.524	74.75
396.733	74.75
396.942	168.96
397.152	168.96
397.361	130.05
397.57	130.05
397.78	97.28
397.989	128
398.198	220.16
398.407	107.52
398.617	146.43
398.826	138.24
399.035	128
399.244	117.76
399.453	164.86
399.663	105.47
399.872	138.24
400.081	128
400.29	171.01
400.499	111.61
400.708	113.66
400.917	99.33
401.127	125.95
401.336	185.34
401.545	105.47
401.754	164.86
401.963	111.61
402.172	162.81
402.381	173.05
402.59	68.61
402.799	97.28
403.008	199.68
403.217	201.72
403.426	185.34
403.635	197.63
403.844	185.34
404.053	148.48
404.262	76.8
404.471	162.81
404.68	160.77
404.888	211.96
405.097	171.01
405.306	164.86
405.515	205.82
405.724	171.01
405.933	216.06
406.142	205.82
406.35	230.4
406.559	160.77
406.768	244.73
406.977	195.58
407.185	246.78
407.394	261.12
407.603	234.49
407.812	297.98
408.02	345.08
408.229	189.44
408.438	240.64
408.646	326.65
408.855	228.35
409.064	271.36
409.272	275.45
409.481	293.88
409.69	402.43
409.898	283.64
410.107	326.65
410.315	392.19
410.524	320.51
410.733	437.24
410.941	410.62
411.15	451.58
411.358	412.67
411.567	386.04
411.775	433.15
411.984	541.69
412.192	502.78
412.401	474.1
412.609	549.88
412.818	566.26
413.026	605.17
413.234	652.28
413.443	549.88
413.651	549.88
413.86	621.56
414.068	713.72
414.276	699.38
414.485	674.81
414.693	668.66
414.901	721.91
415.11	740.34
415.318	764.92
415.526	795.64
415.734	879.6
415.943	926.71
416.151	881.65
416.359	857.07
416.567	932.85
416.776	936.95
416.984	902.13
417.192	1061.87
417.4	1088.5
417.608	1096.69
417.817	1174.51
418.025	1238
418.233	1334.25
418.441	1223.66
418.649	1330.16
418.857	1338.35
419.065	1397.74
419.273	1340.4
419.481	1541.1
419.689	1498.09
419.897	1614.82
420.105	1596.39
420.313	1682.41
420.521	1758.18
420.729	1754.09
420.937	1874.92
421.145	1879.01
421.353	2069.47
421.561	2075.62
421.769	2188.25
421.977	2286.56
422.185	2231.26
422.393	2339.8
422.601	2481.11
422.809	2540.51
423.017	2517.98
423.224	2589.66
423.432	2640.86
423.64	2694.1
423.848	2931.67
424.056	2796.5
424.263	3060.69
424.471	3072.98
424.679	2999.25
424.887	3283.92
425.094	3462.09
425.302	3374.03
425.51	3562.44
425.718	3668.94
425.925	3722.18
426.133	3892.16
426.341	4033.47
426.548	4193.22
426.756	4258.75
426.964	4213.7
427.171	4627.39
427.379	4778.94
427.586	4766.65
427.794	4930.48
428.001	5129.14
428.209	5428.14
428.417	5266.35
428.624	5532.59
428.832	5544.88
429.039	5567.4
429.247	5731.24
429.454	6153.12
429.662	6579.1
429.869	6167.46
430.076	6460.32
430.284	6521.76
430.491	6695.83
430.699	7179.15
430.906	7078.8
431.114	7275.41
431.321	7492.49
431.528	7613.32
431.736	7947.14
431.943	8450.94
432.15	8141.7
432.358	8307.59
432.565	8717.18
432.772	8721.27
432.979	9075.57
433.187	9384.82
433.394	9567.09
433.601	10068.84
433.808	10017.64
434.016	9945.96
434.223	10290.02
434.43	10879.83
434.637	10861.4
434.844	11451.22
435.052	11684.69
435.259	11508.56
435.466	11791.18
435.673	11854.67
435.88	12352.32
436.087	13105.98
436.294	13028.15
436.501	12688.19
436.708	13001.53
436.915	13382.45
437.122	14285.61
437.329	14013.23
437.537	14457.64
437.743	14691.1
437.95	14678.82
438.157	15459.09
438.364	15928.08
438.571	16161.55
438.778	16116.49
438.985	17292.02
439.192	16896.77
439.399	17218.3
439.606	17187.58
439.813	18010.86
440.02	19225.31
440.227	18475.75
440.433	18721.51
440.64	19014.37
440.847	19010.27
441.054	19567.32
441.261	20720.32
441.467	20689.6
441.674	20957.89
441.881	21904.05
442.088	21619.38
442.294	21303.99
442.501	21920.43
442.708	22592.17
442.914	23497.37
443.121	24083.09
443.328	23923.35
443.534	25303.68
443.741	24720.01
443.948	24390.28
444.154	26362.48
444.361	25805.43
444.568	26448.49
444.774	26124.91
444.981	26804.84
445.187	27406.94
445.394	28625.48
445.6	28334.67
445.807	30894.63
446.013	29801.02
446.22	30274.1
446.426	31119.91
446.633	31357.47
446.839	32627.21
447.046	31791.64
447.252	33061.38
447.459	33290.76
447.665	33063.43
447.871	34529.78
448.078	35914.2
448.284	34085.37
448.491	35308.01
448.697	36387.28
448.903	37380.55
449.11	37108.17
449.316	36866.51
449.522	37525.96
449.728	38343.09
449.935	38717.87
450.141	39225.77
450.347	39616.93
450.553	37904.83
450.76	38689.2
450.966	39932.32
451.172	39899.55
451.378	41103.76
451.584	39537.06
451.791	41062.8
451.997	41193.87
452.203	41503.11
452.409	41453.96
452.615	41361.8
452.821	40014.24
453.027	39573.92
453.233	41431.43
453.44	40141.21
453.646	40364.44
453.852	40640.92
454.058	41470.34
454.264	39608.74
454.47	40964.49
454.676	39680.42
454.882	41306.51
455.088	37986.75
455.294	38195.64
455.5	38656.43
455.705	39522.72
455.911	38003.13
456.117	37097.93
456.323	36426.2
456.529	34636.27
456.735	36225.5
456.941	35494.37
457.147	34687.47
457.352	33724.93
457.558	33018.38
457.764	33395.2
457.97	32733.71
458.176	32041.5
458.381	32035.35
458.587	30501.42
458.793	30577.2
458.999	28992.07
459.204	31146.53
459.41	30089.78
459.616	28162.64
459.821	28209.75
460.027	28318.29
460.233	27396.7
460.438	26233.46
460.644	26468.97
460.85	25297.53
461.055	24707.72
461.261	24799.88
461.466	22938.27
461.672	22373.03
461.878	23902.87
462.083	22295.21
462.289	22102.7
462.494	21580.47
462.7	20716.23
462.905	20335.31
463.111	20701.89
463.316	20955.84
463.522	20476.62
463.727	20263.63
463.932	20366.03
464.138	20271.82
464.343	20284.11
464.549	19991.25
464.754	20417.22
464.959	19888.85
465.165	20198.09
465.37	18997.98
465.575	18789.09
465.781	19616.47
465.986	19569.37
466.191	18795.23
466.397	18559.72
466.602	17715.95
466.807	18324.2
467.012	18514.66
467.218	18391.78
467.423	17978.09
467.628	18342.63
467.833	18825.95
468.038	18432.74
468.244	17847.02
468.449	18268.91
468.654	17670.9
468.859	17951.47
469.064	17550.07
469.269	16982.78
469.474	16898.81
469.679	17531.64
469.885	16720.64
470.09	17302.26
470.295	16876.29
470.5	16331.53
470.705	16667.39
470.91	16372.49
471.115	15917.84
471.32	16550.66
471.525	16349.96
471.73	15919.89
471.935	16012.04
472.139	15409.94
472.344	15493.91
472.549	15219.48
472.754	15299.35
472.959	14940.96
473.164	14560.03
473.369	14371.62
473.574	14809.89
473.778	14697.25
473.983	14584.61
474.188	14715.68
474.393	14156.58
474.598	14117.67
474.802	13759.28
475.007	13847.34
475.212	13722.41
475.417	13376.31
475.621	13351.73
475.826	13452.08
476.031	12958.52
476.235	12768.06
476.44	13214.52
476.645	12833.6
476.849	12927.8
477.054	12530.5
477.259	12458.82
477.463	12510.02
477.668	12127.05
477.872	12122.95
478.077	11979.59
478.282	11778.89
478.486	11780.94
478.691	11637.58
478.895	11944.78
479.1	11598.67
479.304	11514.7
479.509	11373.39
479.713	11467.6
479.918	11242.32
480.122	10984.28
480.326	11088.73
480.531	11053.91
480.735	11098.97
480.94	11029.34
481.144	11524.94
481.348	10627.93
481.553	10877.79
481.757	10525.54
481.961	11008.86
482.166	10910.55
482.37	10902.36
482.574	10703.71
482.778	10648.41
482.983	10873.69
483.187	10984.28
483.391	10699.61
483.595	10644.32
483.8	10726.24
484.004	10627.93
484.208	10697.56
484.412	10769.24
484.616	10740.57
484.821	10853.21
485.025	10568.54
485.229	10746.72
485.433	10642.27
485.637	10785.63
485.841	10826.59
486.045	10830.68
486.249	10697.56
486.453	10750.81
486.657	10855.26
486.861	10806.11
487.065	10681.18
487.269	10736.48
487.473	10568.54
487.677	10677.09
487.881	10746.72
488.085	10660.7
488.289	10734.43
488.493	10658.65
488.697	11058.01
488.901	10525.54
489.105	10908.51
489.309	10773.34
489.512	10896.22
489.716	10763.1
489.92	10974.04
490.124	10941.27
490.328	11133.78
490.531	11158.36
490.735	11078.49
490.939	11205.46
491.143	10883.93
491.346	10996.57
491.55	11152.21
491.754	11195.22
491.958	11422.55
492.161	11111.25
492.365	11361.11
492.569	11191.13
492.772	11248.47
492.976	11479.89
493.18	11522.9
493.383	11508.56
493.587	11565.9
493.79	11826
493.994	11785.04
494.197	11907.91
494.401	11936.59
494.605	11858.76
494.808	12008.26
495.012	12217.16
495.215	12112.71
495.419	12401.47
495.622	12331.84
495.825	12561.22
496.029	12598.08
496.232	12698.43
496.436	12634.94
496.639	12856.12
496.843	12901.18
497.046	13345.59
497.249	13359.92
497.453	13366.07
497.656	13425.46
497.859	13746.99
498.063	13878.06
498.266	14107.43
498.469	14095.14
498.673	14215.98
498.876	14547.75
499.079	14453.54
499.282	14510.88
499.485	14773.02
499.689	14963.48
499.892	15059.74
500.095	15057.69
500.298	15483.67
500.501	15192.86
500.705	15835.92
500.908	16026.38
501.111	15917.84
501.314	16243.46
501.517	16364.29
501.72	16757.5
501.923	16476.93
502.126	16941.82
502.329	17146.62
502.532	17275.64
502.735	17517.3
502.938	17910.51
503.141	17722.1
503.344	18211.56
503.547	18264.81
503.75	18244.33
503.953	18494.18
504.156	18690.79
504.359	18987.74
504.562	19292.89
504.765	19557.08
504.968	19763.92
505.17	19938
505.373	20032.21
505.576	20388.55
505.779	20427.46
505.982	20462.28
506.185	21177.02
506.387	20957.89
506.59	21371.58
506.793	21596.85
506.996	21686.97
507.198	22231.72
507.401	22010.54
507.604	22461.1
507.807	22768.29
508.009	22864.55
508.212	22960.8
508.415	23304.86
508.617	23759.51
508.82	23640.73
509.022	24040.08
509.225	24361.61
509.428	24709.77
509.63	24820.36
509.833	24654.47
510.035	25311.87
510.238	25213.57
510.44	25868.92
510.643	26176.11
510.845	26126.96
511.048	26086
511.25	26690.15
511.453	26516.08
511.655	27753.05
511.858	27179.62
512.06	27542.11
512.262	28154.45
512.465	27847.26
512.667	28539.47
512.87	28772.94
513.072	28791.37
513.274	29372.99
513.477	29553.21
513.679	29678.14
513.881	29893.18
514.084	30589.49
514.286	30476.85
514.488	30558.77
514.69	31490.59
514.893	31808.03
515.095	31453.73
515.297	31775.26
515.499	32143.89
515.701	32215.57
515.904	32936.46
516.106	32735.76
516.308	33257.99
516.51	33583.62
516.712	33739.26
516.914	34077.18
517.116	34359.8
517.318	34638.32
517.52	34937.32
517.722	35301.86
517.925	35498.47
518.127	35908.06
518.329	36190.68
518.531	35977.69
518.733	36753.87
518.935	37065.16
519.136	37229
519.338	37896.64
519.54	37927.36
519.742	37861.82
519.944	38175.16
520.146	38777.26
520.348	39008.68
520.55	39215.53
520.752	39266.73
520.954	39799.2
521.155	39545.25
521.357	39920.03
521.559	40778.13
521.761	40962.45
521.963	40997.26
522.164	41318.79
522.366	41337.23
522.568	41343.37
522.77	41996.67
522.971	42396.03
523.173	42422.65
523.375	42367.35
523.576	42787.19
523.778	42740.08
523.98	43448.68
524.181	43827.56
524.383	43366.76
524.584	44196.19
524.786	44388.7
524.988	44337.5
525.189	44450.14
525.391	44501.34
525.592	45316.43
525.794	45168.97
525.995	45070.67
526.197	45177.17
526.398	45150.54
526.6	45609.29
526.801	45824.32
527.003	46330.17
527.204	45975.87
527.406	46483.77
527.607	46612.79
527.808	46680.38
528.01	46033.22
528.211	46489.91
528.412	47378.73
528.614	47173.94
528.815	47069.49
529.016	47626.54
529.218	47565.1
529.419	48032.04
529.62	47487.28
529.822	47419.69
530.023	47833.38
530.224	47911.2
530.425	48191.78
530.626	47534.38
530.828	47915.3
531.029	48738.58
531.23	48380.19
531.431	47952.16
531.632	48576.79
531.833	48552.22
532.035	48318.75
532.236	48535.84
532.437	48793.88
532.638	48091.43
532.839	48793.88
533.04	49182.99
533.241	48138.53
533.442	49279.25
533.643	49041.68
533.844	48847.13
534.045	48994.58
534.246	48300.32
534.447	49594.64
534.648	48767.26
534.849	48883.99
535.05	48720.15
535.251	49004.82
535.451	48877.85
535.652	49328.4
535.853	48986.39
536.054	49111.31
536.255	49033.49
536.456	48818.46
536.657	49537.29
536.857	48886.04
537.058	48535.84
537.259	49443.09
537.46	49266.96
537.66	48705.82
537.861	49051.92
538.062	49324.3
538.263	49486.09
538.463	48767.26
538.664	48603.42
538.865	49062.16
539.065	49582.35
539.266	48552.22
539.466	49436.94
539.667	48470.3
539.868	49447.18
540.068	49045.78
540.269	49318.16
540.469	49547.53
540.67	48881.94
540.87	48988.44
541.071	49334.54
541.271	49535.24
541.472	49004.82
541.672	48847.13
541.873	48775.45
542.073	48273.7
542.274	49375.5
542.474	48967.96
542.675	48404.77
542.875	49205.52
543.075	49162.51
543.276	48650.52
543.476	48982.29
543.676	48517.4
543.877	49027.35
544.077	48849.17
544.277	48814.36
544.478	48906.52
544.678	49228.05
544.878	49180.95
545.078	48662.81
545.279	48687.39
545.479	48687.39
545.679	48996.63
545.879	48791.83
546.079	48501.02
546.28	48701.72
546.48	48535.84
546.68	48828.69
546.88	49355.02
547.08	48947.48
547.28	48699.67
547.48	48111.91
547.68	48726.3
547.88	48277.79
548.081	48726.3
548.281	48806.17
548.481	48337.18
548.681	48978.2
548.881	48636.19
549.081	48437.53
549.28	48722.2
549.48	48988.44
549.68	48351.52
549.88	49221.9
550.08	48519.45
550.28	48783.64
550.48	48017.7
550.68	48589.08
550.88	48359.71
551.08	48689.43
551.279	48720.15
551.479	48341.28
551.679	48623.9
551.879	48591.13
552.079	48677.15
552.278	48220.45
552.478	48439.58
552.678	48656.67
552.878	48617.75
553.077	48357.66
553.277	47536.43
553.477	48740.63
553.676	48159.01
553.876	48601.37
554.076	47817
554.275	48140.58
554.475	47413.55
554.674	48429.34
554.874	48359.71
555.074	48083.23
555.273	48165.15
555.473	48316.7
555.672	47896.87
555.872	47888.68
556.071	48093.47
556.271	48224.54
556.47	47909.16
556.67	47425.84
556.869	47573.29
557.068	48245.02
557.268	47405.36
557.467	47798.57
557.667	47773.99
557.866	47548.71
558.065	47974.69
558.265	47350.06
558.464	47298.86
558.663	47669.54
558.863	47110.45
559.062	47704.36
559.261	47333.68
559.461	47712.55
559.66	47511.85
559.859	46932.28
560.058	47151.41
560.258	47474.99
560.457	47006
560.656	46958.9
560.855	46911.8
561.054	47247.66
561.253	46729.53
561.453	46797.11
561.652	46616.89
561.851	47315.25
562.05	46952.76
562.249	46596.41
562.448	47184.18
562.647	46774.58
562.846	46401.85
563.045	46707
563.244	46244.16
563.443	46854.45
563.642	45779.27
563.841	46551.35
564.04	46143.81
564.239	46539.07
564.438	46014.79
564.637	45992.26
564.836	46405.95
565.035	45529.42
565.234	45465.93
565.432	45683.01
565.631	45451.59
565.83	45883.72
566.029	45816.13
566.228	45392.2
566.427	45513.03
566.625	45021.52
566.824	44687.7
567.023	45214.03
567.222	44849.49
567.42	45152.59
567.619	45205.84
567.818	45078.86
568.016	44613.98
568.215	45199.69
568.414	44638.55
568.612	44980.56
568.811	44771.67
569.01	44679.51
569.208	44073.31
569.407	44628.31
569.605	43891.04
569.804	44374.36
570.002	43878.75
570.201	44202.33
570.4	43993.44
570.598	43903.33
570.797	43598.18
570.995	43688.29
571.193	43764.07
571.392	43633
571.59	43383.15
571.789	43567.46
571.987	43184.49
572.186	43368.81
572.384	43514.22
572.582	43362.67
572.781	43358.57
572.979	42764.66
573.177	43170.16
573.376	43407.72
573.574	42672.5
573.772	42811.76
573.971	42422.65
574.169	42240.38
574.367	42217.85
574.565	42531.19
574.763	42346.87
574.962	41982.34
575.16	41712
575.358	42322.3
575.556	41638.28
575.754	41648.52
575.952	41187.72
576.151	41642.37
576.349	41034.13
576.547	41521.54
576.745	41802.11
576.943	41335.18
577.141	41269.64
577.339	41415.05
577.537	41019.79
577.735	40866.19
577.933	40823.19
578.131	41073.04
578.329	40659.35
578.527	40530.33
578.725	40726.93
578.923	40518.04
579.121	40440.21
579.319	40206.75
579.516	40266.14
579.714	40145.31
579.912	39917.98
580.11	39905.7
580.308	39997.85
580.506	39586.21
580.704	39487.91
580.901	39852.45
581.099	39960.99
581.297	39281.06
581.495	39442.85
581.692	39389.61
581.89	38973.87
582.088	39139.75
582.285	38640.05
582.483	39141.8
582.681	38855.09
582.878	38830.51
583.076	38203.83
583.274	38494.64
583.471	38123.96
583.669	38744.5
583.866	38199.74
584.064	38246.84
584.262	37775.81
584.459	38013.37
584.657	38070.72
584.854	38363.57
585.052	37583.3
585.249	37747.14
585.447	38095.29
585.644	37272.01
585.841	37405.13
586.039	37321.16
586.236	37251.53
586.434	37241.29
586.631	37214.66
586.828	37237.19
587.026	37132.75
587.223	36641.23
587.42	36897.23
587.618	36674
587.815	36319.7
588.012	36612.56
588.21	36190.68
588.407	36776.4
588.604	36145.62
588.801	35850.72
588.999	36020.7
589.196	35903.96
589.393	35856.86
589.59	35903.96
589.787	35705.31
589.984	35217.89
590.182	35195.37
590.379	35914.2
590.576	35211.75
590.773	35506.66
590.97	35121.64
591.167	35142.12
591.364	34847.21
591.561	34982.38
591.758	34793.97
591.955	34830.83
592.152	34746.86
592.349	34454
592.546	34558.45
592.743	34585.07
592.94	33427.97
593.137	34306.55
593.334	34109.94
593.531	33927.67
593.727	34179.57
593.924	34249.21
594.121	33790.46
594.318	33870.33
594.515	33378.82
594.712	33829.37
594.908	33315.33
595.105	33528.32
595.302	33141.25
595.499	33038.86
595.696	32688.65
595.892	32866.83
596.089	32856.59
596.286	32803.34
596.482	32547.34
596.679	32809.48
596.876	32696.85
597.072	32090.65
597.269	32403.99
597.466	32080.41
597.662	32184.85
597.859	32074.26
598.055	31939.1
598.252	32037.4
598.448	31724.06
598.645	31822.36
598.841	31592.99
599.038	31543.84
599.234	31511.07
599.431	31244.84
599.627	31105.57
599.824	31279.65
600.02	31007.27
600.217	30956.07
600.413	30964.26
600.609	30763.56
600.806	30636.59
601.002	30757.42
601.198	30331.44
601.395	30470.7
601.591	30399.02
601.787	30448.18
601.984	29934.14
602.18	30345.78
602.376	30317.11
602.572	30016.05
602.769	30202.42
602.965	29452.86
603.161	29856.31
603.357	29809.21
603.553	29446.72
603.75	29409.86
603.946	29334.08
604.142	29692.47
604.338	28799.56
604.534	29403.71
604.73	28904.01
604.926	29073.99
605.122	28834.38
605.318	28916.29
605.514	28836.42
605.71	28838.47
605.906	28430.93
606.102	28662.35
606.298	28424.78
606.494	28455.5
606.69	28398.16
606.886	28250.7
607.082	28050
607.278	28144.21
607.474	27804.25
607.67	28330.58
607.866	27703.9
608.062	28021.33
608.257	28269.14
608.453	27982.42
608.649	27949.65
608.845	27636.31
609.041	27976.28
609.236	27589.21
609.432	27282.02
609.628	27701.85
609.824	27540.06
610.019	27128.42
610.215	27308.64
610.411	27406.94
610.606	27337.31
610.802	27257.44
610.998	27101.79
611.193	27234.91
611.389	27060.84
611.584	26825.32
611.78	26514.03
611.976	26987.11
612.171	27152.99
612.367	26647.15
612.562	26647.15
612.758	26751.59
612.953	26501.74
613.149	26843.75
613.344	26180.21
613.539	26905.19
613.735	26413.68
613.93	26649.19
614.126	26374.77
614.321	26337.9
614.517	26280.56
614.712	26124.91
614.907	25999.99
615.103	26612.33
615.298	26114.67
615.493	26335.85
615.688	26147.44
615.884	26159.73
616.079	25823.86
616.274	26038.9
616.47	25922.16
616.665	26157.68
616.86	25561.72
617.055	25862.77
617.25	25856.63
617.445	25950.84
617.641	25334.4
617.836	25330.3
618.031	25191.04
618.226	25381.5
618.421	25344.64
618.616	25352.83
618.811	25229.95
619.006	25555.58
619.201	24578.7
619.396	25002.63
619.591	24711.81
619.786	24973.95
619.981	24470.15
620.176	24687.24
620.371	24343.18
620.566	24412.81
620.761	24183.44
620.956	24242.83
621.151	24001.17
621.346	24308.37
621.541	23779.99
621.735	24081.04
621.93	23407.26
622.125	23880.34
622.32	23308.96
622.515	23503.51
622.709	23116.45
622.904	23093.92
623.099	22960.8
623.294	23067.3
623.488	22563.5
623.683	23052.96
623.878	22510.25
624.072	22651.56
624.267	22256.3
624.462	22278.83
624.656	22268.59
624.851	21940.91
625.046	21709.49
625.24	21994.16
625.435	21592.76
625.629	21390.01
625.824	21482.17
626.018	21689.01
626.213	21031.62
626.407	21197.5
626.602	20708.04
626.796	20945.6
626.991	20867.78
627.185	20566.73
627.38	20632.26
627.574	20572.87
627.768	20390.6
627.963	20298.44
628.157	20142.8
628.352	19999.44
628.546	19829.46
628.74	19825.36
628.935	19436.25
629.129	19976.91
629.323	19585.75
629.517	19534.55
629.712	19256.03
629.906	19190.49
630.1	18971.36
630.294	18840.29
630.489	18879.2
630.683	18922.21
630.877	18576.1
631.071	18703.07
631.265	18494.18
631.459	18643.68
631.653	18240.23
631.848	18240.23
632.042	18215.66
632.236	18273
632.43	18096.88
632.624	18002.67
632.818	17908.46
633.012	17605.36
633.206	17527.54
633.4	17662.71
633.594	17457.91
633.788	17560.31
633.982	17373.94
634.176	17361.66
634.369	17036.03
634.563	17093.37
634.757	16935.68
634.951	17029.88
635.145	16812.8
635.339	16880.38
635.533	16675.59
635.726	16536.32
635.92	16392.97
636.114	16499.46
636.308	16425.73
636.501	16468.74
636.695	16179.98
636.889	16065.29
637.083	16222.98
637.276	16059.15
637.47	15780.62
637.664	15663.89
637.857	15667.98
638.051	15934.22
638.244	15514.39
638.438	15487.76
638.632	15465.24
638.825	15305.49
639.019	14973.72
639.212	15121.18
639.406	15057.69
639.599	14924.57
639.793	14914.33
639.986	14377.76
640.18	14680.86
640.373	14734.11
640.567	14480.16
640.76	14633.76
640.954	14256.93
641.147	14402.34
641.34	14285.61
641.534	14328.61
641.727	14177.06
641.92	14048.04
642.114	14009.13
642.307	13761.33
642.5	13884.2
642.694	13724.46
642.887	13660.98
643.08	13738.8
643.273	13517.62
643.467	13736.75
643.66	13376.31
643.853	13198.13
644.046	13153.08
644.239	13429.56
644.432	13480.75
644.626	13232.95
644.819	12927.8
645.012	12856.12
645.205	12874.56
645.398	13022.01
645.591	12933.95
645.784	12845.88
645.977	12534.59
646.17	12600.13
646.363	12485.44
646.556	12387.14
646.749	12471.11
646.942	12421.95
647.135	12227.4
647.328	12274.5
647.521	12045.13
647.714	12047.18
647.907	12010.31
648.099	11942.73
648.292	12010.31
648.485	11934.54
648.678	11533.14
648.871	11797.32
649.064	11666.25
649.256	11840.33
649.449	11438.93
649.642	11365.2
649.835	11514.7
650.027	11385.68
650.22	11367.25
650.413	11471.7
650.605	11213.65
650.798	11203.41
650.991	11017.05
651.183	11123.54
651.376	10949.46
651.568	10916.7
651.761	10988.38
651.954	10916.7
652.146	10752.86
652.339	10722.14
652.531	10906.46
652.724	10625.89
652.916	10318.69
653.109	10541.92
653.301	10537.82
653.494	10464.1
653.686	10181.48
653.879	10406.75
654.071	10345.31
654.263	10124.13
654.456	10120.04
654.648	10161
654.84	10013.54
655.033	9882.47
655.225	9917.29
655.417	10148.71
655.61	9818.99
655.802	9939.82
655.994	9663.34
656.186	9798.51
656.379	9632.62
656.571	9622.38
656.763	9573.23
656.955	9485.17
657.148	9503.6
657.34	9390.96
657.532	9173.88
657.724	9288.56
657.916	9339.76
658.108	9282.42
658.3	9225.08
658.492	9175.92
658.684	9075.57
658.876	9038.71
659.068	8964.98
659.26	8897.4
659.452	8954.74
659.644	9014.13
659.836	8651.64
660.028	8903.54
660.22	8536.96
660.412	8708.99
660.604	8502.14
660.796	8655.74
660.988	8424.32
661.18	8424.32
661.372	8428.42
661.563	8512.38
661.755	8549.25
661.947	8379.26
662.139	8207.23
662.331	8297.35
662.522	8037.25
662.714	8141.7
662.906	8190.85
663.097	8110.98
663.289	8045.45
663.481	7971.72
663.673	8094.6
663.864	7928.71
664.056	7959.43
664.247	7879.56
664.439	7850.89
664.631	7863.18
664.822	7803.78
665.014	7707.53
665.205	7447.44
665.397	7519.12
665.588	7529.36
665.78	7570.32
665.971	7631.76
666.163	7494.54
666.354	7525.26
666.546	7443.34
666.737	7316.37
666.929	7334.8
667.12	7207.83
667.311	7256.98
667.503	7048.08
667.694	7224.21
667.885	7193.49
668.077	7193.49
668.268	7060.37
668.459	7060.37
668.651	7000.98
668.842	7166.87
669.033	7177.11
669.224	7023.51
669.416	7070.61
669.607	6753.18
669.798	6716.31
669.989	6818.71
670.18	6763.42
670.371	6806.42
670.563	6726.55
670.754	6933.4
670.945	6693.79
671.136	6902.68
671.327	6661.02
671.518	6587.29
671.709	6554.52
671.9	6644.63
672.091	6400.93
672.282	6640.54
672.473	6343.58
672.664	6452.13
672.855	6333.34
673.046	6390.69
673.237	6312.86
673.428	6312.86
673.619	6298.53
673.809	6345.63
674	6247.33
674.191	6157.22
674.382	6214.56
674.573	6116.26
674.764	6063.01
674.954	6208.42
675.145	6103.97
675.336	6112.16
675.527	6073.25
675.717	6099.87
675.908	6054.82
676.099	6017.96
676.289	6142.88
676.48	5897.13
676.671	5977
676.861	5897.13
677.052	5954.47
677.243	5917.61
677.433	5890.98
677.624	5974.95
677.814	5749.67
678.005	5802.92
678.195	5829.54
678.386	5837.73
678.576	5749.67
678.767	5766.06
678.957	5721
679.148	5790.63
679.338	5698.47
679.529	5749.67
679.719	5704.62
679.909	5645.23
680.1	5610.41
680.29	5790.63
680.481	5600.17
680.671	5727.14
680.861	5546.92
681.052	5516.2
681.242	5542.83
681.432	5649.32
681.622	5700.52
681.813	5469.1
682.003	5497.77
682.193	5350.32
682.383	5483.44
682.573	5594.03
682.764	5505.96
682.954	5587.88
683.144	5512.11
683.334	5366.7
683.524	5344.17
683.714	5413.81
683.904	5305.26
684.094	5342.13
684.284	5145.52
684.474	5358.51
684.664	5389.23
684.854	5231.54
685.044	5387.18
685.234	5194.67
685.424	5211.06
685.614	5258.16
685.804	5118.9
685.994	5149.62
686.184	5098.42
686.374	5145.52
686.564	4973.49
686.753	5082.03
686.943	4963.25
687.133	5006.26
687.323	5020.6
687.513	4934.58
687.702	4885.43
687.892	4932.53
688.082	4905.91
688.272	4910.01
688.461	4907.96
688.651	4813.75
688.841	4848.57
689.03	4692.92
689.22	4750.26
689.41	4819.89
689.599	4690.87
689.789	4731.83
689.979	4721.59
690.168	4830.13
690.358	4703.16
690.547	4645.82
690.737	4611
690.926	4731.83
691.116	4567.99
691.305	4635.58
691.495	4494.27
691.684	4502.46
691.874	4518.84
692.063	4387.77
692.252	4443.07
692.442	4371.39
692.631	4357.05
692.82	4428.73
693.01	4496.32
693.199	4266.94
693.388	4244.42
693.578	4139.97
693.767	4238.27
693.956	4197.31
694.146	4180.93
694.335	4258.75
694.524	4211.65
694.713	4182.98
694.902	4107.2
695.092	4125.63
695.281	4092.87
695.47	4195.26
695.659	4150.21
695.848	4139.97
696.037	4111.3
696.226	4105.15
696.415	4021.19
696.604	4088.77
696.793	4256.7
696.982	4068.29
697.171	4064.19
697.36	4160.45
697.549	3963.84
697.738	3931.08
697.927	3992.52
698.116	4002.75
698.305	3992.52
698.494	3902.4
698.683	4101.06
698.872	4008.9
699.061	3828.68
699.25	3986.37
699.438	3857.35
699.627	3820.49
699.816	3910.6
700.005	3838.92
700.193	3902.4
700.382	3986.37
700.571	3759.05
700.76	3847.11
700.948	3814.34
701.137	3791.81
701.326	3816.39
701.514	3941.32
701.703	3806.15
701.892	3888.07
702.08	3900.36
702.269	3918.79
702.457	3836.87
702.646	3836.87
702.834	3826.63
703.023	3816.39
703.212	3695.56
703.4	3765.19
703.589	3771.33
703.777	3785.67
703.965	3791.81
704.154	3779.53
704.342	3630.02
704.531	3789.77
704.719	3601.35
704.907	3851.21
705.096	3705.8
705.284	3720.14
705.472	3767.24
705.661	3638.22
705.849	3804.1
706.037	3648.46
706.226	3744.71
706.414	3840.97
706.602	3603.4
706.79	3750.85
706.979	3722.18
707.167	3584.97
707.355	3656.65
707.543	3627.98
707.731	3806.15
707.919	3689.42
708.107	3595.21
708.296	3642.31
708.484	3595.21
708.672	3804.1
708.86	3607.5
709.048	3668.94
709.236	3521.48
709.424	3574.73
709.612	3744.71
709.8	3636.17
709.988	3662.79
710.176	3769.29
710.364	3666.89
710.551	3593.16
710.739	3601.35
710.927	3623.88
711.115	3537.87
711.303	3511.24
711.491	3623.88
711.679	3458
711.866	3494.86
712.054	3472.33
712.242	3501
712.43	3609.54
712.617	3447.76
712.805	3664.84
712.993	3478.47
713.181	3472.33
713.368	3474.38
713.556	3605.45
713.744	3433.42
713.931	3537.87
714.119	3501
714.306	3402.7
714.494	3529.67
714.682	3535.82
714.869	3371.98
715.057	3566.54
715.244	3435.47
715.432	3720.14
715.619	3474.38
715.807	3580.87
715.994	3546.06
716.182	3507.15
716.369	3507.15
716.556	3482.57
716.744	3384.27
716.931	3365.84
717.119	3447.76
717.306	3544.01
717.493	3531.72
717.681	3496.91
717.868	3429.32
718.055	3433.42
718.242	3419.08
718.43	3478.47
718.617	3374.03
718.804	3505.1
718.991	3474.38
719.179	3367.88
719.366	3365.84
719.553	3423.18
719.74	3361.74
719.927	3380.17
720.114	3408.84
720.301	3392.46
720.488	3468.24
720.676	3322.83
720.863	3392.46
721.05	3597.26
721.237	3341.26
721.424	3341.26
721.611	3351.5
721.798	3328.97
721.985	3443.66
722.172	3290.06
722.358	3353.55
722.545	3390.41
722.732	3261.39
722.919	3353.55
723.106	3214.29
723.293	3335.12
723.48	3218.38
723.667	3392.46
723.853	3335.12
724.04	3341.26
724.227	3337.17
724.414	3359.69
724.6	3263.44
724.787	3439.56
724.974	3314.64
725.161	3302.35
725.347	3312.59
725.534	3273.68
725.72	3326.93
725.907	3267.53
726.094	3376.08
726.28	3242.96
726.467	3204.05
726.653	3371.98
726.84	3236.81
727.027	3371.98
727.213	3257.29
727.4	3302.35
727.586	3300.3
727.773	3169.23
727.959	3183.57
728.145	3339.21
728.332	3214.29
728.518	3216.33
728.705	3226.57
728.891	3263.44
729.077	3331.02
729.264	3269.58
729.45	3318.73
729.636	3255.25
729.823	3175.38
730.009	3214.29
730.195	3371.98
730.382	3175.38
730.568	3275.73
730.754	3222.48
730.94	3294.16
731.126	3355.6
731.313	3245.01
731.499	3095.5
731.685	3249.1
731.871	3202
732.057	3175.38
732.243	3261.39
732.429	3175.38
732.615	3122.13
732.801	3150.8
732.987	3271.63
733.173	3263.44
733.359	3163.09
733.545	3089.36
733.731	3191.76
733.917	3265.49
734.103	3347.4
734.289	3150.8
734.475	3158.99
734.661	3142.61
734.847	3181.52
735.033	3195.86
735.219	3181.52
735.404	3179.47
735.59	3109.84
735.776	3056.59
735.962	3165.14
736.148	3095.5
736.333	3095.5
736.519	3132.37
736.705	3005.39
736.89	3077.07
737.076	3064.79
737.262	3085.26
737.447	3095.5
737.633	3050.45
737.819	3111.89
738.004	3115.98
738.19	3083.22
738.375	3019.73
738.561	2911.19
738.747	3068.88
738.932	2943.96
739.118	3058.64
739.303	3142.61
739.489	2986.96
739.674	3156.94
739.859	3046.35
740.045	3040.21
740.23	2976.72
740.416	2982.87
740.601	3019.73
740.786	2868.18
740.972	2935.76
741.157	2812.89
741.342	2870.23
741.528	2886.61
741.713	2761.69
741.898	2839.51
742.084	2921.43
742.269	2946
742.454	2853.84
742.639	2810.84
742.824	2788.31
743.01	2806.74
743.195	2778.07
743.38	2671.58
743.565	2800.6
743.75	2806.74
743.935	2673.62
744.12	2741.21
744.305	2741.21
744.49	2745.3
744.675	2673.62
744.86	2771.93
745.045	2749.4
745.23	2673.62
745.415	2700.25
745.6	2636.76
745.785	2675.67
745.97	2597.85
746.155	2642.9
746.34	2724.82
746.525	2477.02
746.71	2616.28
746.895	2530.27
747.079	2438.11
747.264	2548.7
747.449	2536.41
747.634	2538.46
747.819	2497.5
748.003	2503.64
748.188	2474.97
748.373	2464.73
748.557	2501.59
748.742	2368.48
748.927	2468.83
749.111	2317.28
749.296	2452.44
749.481	2327.52
749.665	2288.61
749.85	2278.37
750.034	2264.03
750.219	2327.52
750.404	2257.89
750.588	2221.02
750.773	2204.64
750.957	2253.79
751.141	2165.73
751.326	2206.69
751.51	2163.68
751.695	2116.58
751.879	2108.38
752.064	2161.63
752.248	2139.1
752.432	2229.21
752.617	2120.67
752.801	2165.73
752.985	2223.07
753.17	2118.62
753.354	2030.56
753.538	2067.42
753.722	2053.09
753.907	2169.82
754.091	1926.11
754.275	1940.45
754.459	2048.99
754.643	1930.21
754.828	2001.89
755.012	1911.78
755.196	1934.31
755.38	1932.26
755.564	1885.16
755.748	1872.87
755.932	1995.75
756.116	1831.91
756.3	1838.05
756.484	1829.86
756.668	1741.8
756.852	1754.09
757.036	1774.56
757.22	1811.43
757.404	1704.93
757.588	1793
757.772	1659.88
757.956	1729.51
758.14	1711.08
758.323	1696.74
758.507	1762.28
758.691	1600.49
758.875	1606.63
759.059	1641.45
759.242	1608.68
759.426	1606.63
759.61	1618.92
759.794	1588.2
759.977	1563.62
760.161	1596.39
760.345	1530.86
760.528	1631.21
760.712	1580.01
760.895	1551.34
761.079	1504.23
761.263	1483.75
761.446	1514.47
761.63	1461.23
761.813	1508.33
761.997	1520.62
762.18	1479.66
762.364	1463.27
762.547	1461.23
762.731	1475.56
762.914	1561.58
763.098	1446.89
763.281	1489.9
763.464	1512.42
763.648	1412.07
763.831	1434.6
764.015	1385.45
764.198	1428.46
764.381	1481.71
764.564	1344.49
764.748	1414.12
764.931	1362.92
765.114	1364.97
765.297	1461.23
765.481	1377.26
765.664	1268.72
765.847	1321.96
766.03	1324.01
766.213	1403.88
766.397	1264.62
766.58	1244.14
766.763	1289.2
766.946	1332.2
767.129	1268.72
767.312	1221.61
767.495	1364.97
767.678	1324.01
767.861	1242.09
768.044	1227.76
768.227	1248.24
768.41	1250.28
768.593	1190.89
768.776	1238
768.959	1268.72
769.142	1201.13
769.324	1233.9
769.507	1205.23
769.69	1223.66
769.873	1127.41
770.056	1248.24
770.239	1270.76
770.421	1197.04
770.604	1244.14
770.787	1131.5
770.97	1100.78
771.152	1100.78
771.335	1201.13
771.518	1072.11
771.7	1158.13
771.883	1180.65
772.066	1197.04
772.248	1106.93
772.431	1147.89
772.613	1143.79
772.796	1133.55
772.978	1137.65
773.161	1100.78
773.343	1051.63
773.526	1020.91
773.708	1049.58
773.891	1045.49
774.073	1037.3
774.256	1025.01
774.438	1102.83
774.621	1022.96
774.803	1070.06
774.985	1053.68
775.168	959.47
775.35	1035.25
775.532	1020.91
775.715	922.61
775.897	951.28
776.079	1018.86
776.261	926.71
776.444	973.81
776.626	910.32
776.808	904.18
776.99	924.66
777.173	898.03
777.355	984.05
777.537	902.13
777.719	973.81
777.901	924.66
778.083	945.14
778.265	912.37
778.447	885.75
778.629	830.45
778.811	865.27
778.993	814.07
779.175	861.17
779.357	836.6
779.539	867.31
779.721	881.65
779.903	812.02
780.085	846.84
780.267	836.6
780.449	799.73
780.631	869.36
780.812	771.06
780.994	754.68
781.176	785.4
781.358	719.86
781.54	883.7
781.721	697.33
781.903	721.91
782.085	719.86
782.267	742.39
782.448	728.05
782.63	656.37
782.812	766.96
782.993	758.77
783.175	795.64
783.357	685.05
783.538	711.67
783.72	687.09
783.901	689.14
784.083	683
784.264	656.37
784.446	719.86
784.627	625.65
784.809	644.09
784.99	699.38
785.172	639.99
785.353	646.13
785.535	674.81
785.716	625.65
785.897	535.54
786.079	631.8
786.26	599.03
786.441	556.02
786.623	570.36
786.804	594.93
786.985	543.74
787.167	596.98
787.348	539.64
787.529	545.78
787.71	572.41
787.891	506.87
788.073	558.07
788.254	519.16
788.435	533.5
788.616	584.7
788.797	535.54
788.978	564.22
789.159	533.5
789.34	549.88
789.522	494.58
789.703	594.93
789.884	564.22
790.065	451.58
790.246	562.17
790.427	531.45
790.607	470.01
790.788	504.82
790.969	506.87
791.15	551.93
791.331	472.06
791.512	486.39
791.693	494.58
791.874	465.91
792.054	467.96
792.235	502.78
792.416	500.73
792.597	480.25
792.778	459.77
792.958	470.01
793.139	449.53
793.32	461.82
793.5	402.43
793.681	431.1
793.862	455.67
794.042	447.48
794.223	416.76
794.404	451.58
794.584	406.52
794.765	474.1
794.945	474.1
795.126	416.76
795.306	457.72
795.487	476.15
795.667	355.32
795.848	459.77
796.028	371.71
796.209	490.49
796.389	418.81
796.57	390.14
796.75	412.67
796.93	396.28
797.111	404.47
797.291	334.84
797.471	416.76
797.652	336.89
797.832	349.18
798.012	386.04
798.192	361.47
798.373	388.09
798.553	361.47
798.733	414.71
798.913	308.22
799.093	414.71
799.274	330.75
799.454	340.99
799.634	375.8
799.814	388.09
799.994	379.9
800.174	437.24
800.354	371.71
800.534	367.61
800.714	367.61
800.894	383.99
801.074	322.56
801.254	357.37
801.434	375.8
801.614	373.75
801.794	293.88
801.974	680.95
802.154	306.17
802.334	404.47
802.514	312.32
802.693	336.89
802.873	316.41
803.053	345.08
803.233	363.51
803.413	324.6
803.592	302.08
803.772	271.36
803.952	343.03
804.131	332.79
804.311	283.64
804.491	328.7
804.67	259.07
804.85	179.2
805.03	357.37
805.209	306.17
805.389	312.32
805.568	287.74
805.748	295.93
805.928	273.4
806.107	300.03
806.287	261.12
806.466	254.97
806.646	283.64
806.825	232.44
807.004	277.5
807.184	209.92
807.363	322.56
807.543	261.12
807.722	275.45
807.901	330.75
808.081	287.74
808.26	232.44
808.439	252.92
808.619	236.54
808.798	220.16
808.977	248.83
809.156	207.87
809.336	228.35
809.515	254.97
809.694	205.82
809.873	281.6
810.052	232.44
810.231	377.85
810.411	166.91
810.59	218.11
810.769	205.82
810.948	214.01
811.127	222.2
811.306	119.81
811.485	234.49
811.664	279.55
811.843	224.25
812.022	218.11
812.201	195.58
812.38	254.97
812.559	259.07
812.737	261.12
812.916	185.34
813.095	269.31
813.274	265.21
813.453	228.35
813.632	271.36
813.811	144.38
813.989	128
814.168	205.82
814.347	166.91
814.526	156.67
814.704	230.4
814.883	218.11
815.062	189.44
815.24	185.34
815.419	222.2
815.598	195.58
815.776	150.53
815.955	220.16
816.133	156.67
816.312	254.97
816.49	162.81
816.669	211.96
816.847	193.53
817.026	179.2
817.204	136.19
817.383	207.87
817.561	220.16
817.74	259.07
817.918	222.2
818.097	160.77
818.275	234.49
818.453	179.2
818.632	226.3
818.81	162.81
818.988	224.25
819.167	173.05
819.345	166.91
819.523	121.85
819.701	164.86
819.879	189.44
820.058	166.91
820.236	244.73
820.414	160.77
820.592	171.01
820.77	142.33
820.948	111.61
821.127	183.29
821.305	158.72
821.483	158.72
821.661	148.48
821.839	93.18
822.017	187.39
822.195	168.96
822.373	146.43
822.551	125.95
822.729	203.77
822.907	173.05
823.085	140.29
823.262	150.53
823.44	160.77
823.618	132.09
823.796	273.4
823.974	166.91
824.152	193.53
824.329	166.91
824.507	152.57
824.685	273.4
824.863	128
825.04	130.05
825.218	128
825.396	179.2
825.574	136.19
825.751	111.61
825.929	134.14
826.107	80.89
826.284	136.19
826.462	140.29
826.639	183.29
826.817	107.52
826.994	117.76
827.172	78.85
827.349	101.37
827.527	123.9
827.704	160.77
827.882	191.49
828.059	140.29
828.237	160.77
828.414	166.91
828.591	95.23
828.769	115.71
828.946	125.95
829.124	136.19
829.301	105.47
829.478	62.46
829.655	66.56
829.833	117.76
830.01	62.46
830.187	181.25
830.364	142.33
830.542	142.33
830.719	136.19
830.896	156.67
831.073	150.53
831.25	80.89
831.427	123.9
831.604	74.75
831.782	103.42
831.959	138.24
832.136	113.66
832.313	95.23
832.49	123.9
832.667	101.37
832.844	130.05
833.021	166.91
833.198	130.05
833.374	74.75
833.551	93.18
833.728	95.23
833.905	119.81
834.082	54.27
834.259	58.37
834.436	95.23
834.612	64.51
834.789	173.05
834.966	60.42
835.143	80.89
835.319	109.57
835.496	80.89
835.673	21.5
835.85	195.58
836.026	113.66
836.203	87.04
836.38	113.66
836.556	138.24
836.733	50.18
836.909	130.05
837.086	72.7
837.262	173.05
837.439	68.61
837.616	44.03
837.792	171.01
837.968	97.28
838.145	148.48
838.321	-1.02
838.498	76.8
838.674	21.5
838.851	117.76
839.027	68.61
839.203	117.76
839.38	132.09
839.556	113.66
839.732	105.47
839.909	154.62
840.085	93.18
840.261	52.22
840.437	62.46
840.614	87.04
840.79	68.61
840.966	140.29
841.142	44.03
841.318	21.5
841.494	66.56
841.671	37.89
841.847	91.13
842.023	52.22
842.199	179.2
842.375	164.86
842.551	105.47
842.727	54.27
842.903	121.85
843.079	80.89
843.255	105.47
843.431	84.99
843.607	119.81
843.783	113.66
843.959	119.81
844.134	89.09
844.31	107.52
844.486	64.51
844.662	162.81
844.838	113.66
845.013	72.7
845.189	132.09
845.365	44.03
845.541	91.13
845.716	19.46
845.892	115.71
846.068	48.13
846.244	89.09
846.419	62.46
846.595	99.33
846.77	56.32
846.946	64.51
847.122	41.98
847.297	97.28
847.473	123.9
847.648	52.22
847.824	91.13
847.999	44.03
848.175	125.95
848.35	95.23
848.526	105.47
848.701	95.23
848.876	87.04
849.052	111.61
849.227	41.98
849.403	66.56
849.578	70.65
849.753	29.7
849.929	177.15
850.104	27.65
850.279	48.13
850.454	136.19
850.63	46.08
850.805	35.84
850.98	33.79
851.155	64.51
851.33	91.13
851.505	68.61
851.681	103.42
851.856	46.08
852.031	46.08
852.206	95.23
852.381	54.27
852.556	19.46
852.731	125.95
852.906	68.61
853.081	89.09
853.256	21.5
853.431	78.85
853.606	113.66
853.781	37.89
853.956	142.33
854.131	82.94
854.305	-17.41
854.48	84.99
854.655	35.84
854.83	50.18
855.005	58.37
855.18	19.46
855.354	68.61
855.529	78.85
855.704	56.32
855.879	23.55
856.053	41.98
856.228	74.75
856.403	52.22
856.577	89.09
856.752	-11.26
856.926	31.74
857.101	50.18
857.276	-11.26
857.45	56.32
857.625	68.61
857.799	46.08
857.974	64.51
858.148	64.51
858.323	109.57
858.497	56.32
858.672	35.84
858.846	60.42
859.02	39.94
859.195	35.84
859.369	91.13
859.543	31.74
859.718	-25.6
859.892	-1.02
860.066	87.04
860.241	-3.07
860.415	27.65
860.589	5.12
860.763	89.09
860.938	50.18
861.112	72.7
861.286	72.7
861.46	91.13
861.634	-29.7
861.808	3.07
861.982	48.13
862.157	35.84
862.331	50.18
862.505	97.28
862.679	-29.7
862.853	11.26
863.027	50.18
863.201	115.71
863.375	31.74
863.549	11.26
863.722	68.61
863.896	-21.5
864.07	13.31
864.244	76.8
864.418	44.03
864.592	39.94
864.766	33.79
864.939	78.85
865.113	35.84
865.287	41.98
865.461	19.46
865.634	25.6
865.808	11.26
865.982	-1.02
866.156	3.07
866.329	46.08
866.503	72.7
866.676	9.22
866.85	5.12
867.024	74.75
867.197	82.94
867.371	54.27
867.544	54.27
867.718	-23.55
867.891	66.56
868.065	58.37
868.238	27.65
868.412	89.09
868.585	-9.22
868.759	66.56
868.932	44.03
869.105	66.56
869.279	3.07
869.452	62.46
869.625	52.22
869.799	56.32
869.972	5.12
870.145	54.27
870.319	-50.18
870.492	33.79
870.665	33.79
870.838	17.41
871.011	-39.94
871.185	39.94
871.358	46.08
871.531	80.89
871.704	25.6
871.877	70.65
872.05	41.98
872.223	50.18
872.396	60.42
872.569	56.32
872.742	84.99
872.915	9.22
873.088	87.04
873.261	-15.36
873.434	-5.12
873.607	46.08
873.78	82.94
873.953	5.12
874.126	68.61
874.299	23.55
874.471	97.28
874.644	-31.74
874.817	60.42
874.99	-11.26
875.163	-11.26
875.335	23.55
875.508	95.23
875.681	62.46
875.853	-21.5
876.026	72.7
876.199	5.12
876.371	50.18
876.544	-1.02
876.717	25.6
876.889	11.26
877.062	-27.65
877.234	70.65
877.407	-11.26
877.579	37.89
877.752	74.75
877.924	-27.65
878.097	-33.79
878.269	64.51
878.442	74.75
878.614	9.22
878.786	27.65
878.959	54.27
879.131	33.79
879.303	19.46
879.476	21.5
879.648	70.65
879.82	33.79
879.993	25.6
880.165	-1.02
880.337	-5.12
880.509	44.03
880.681	-35.84
880.854	37.89
881.026	11.26
881.198	13.31
881.37	62.46
881.542	46.08
881.714	-3.07
881.886	37.89
882.058	13.31
882.23	35.84
882.402	1.02
882.574	-7.17
882.746	9.22
882.918	66.56
883.09	52.22
883.262	-1.02
883.434	-7.17
883.606	-21.5
883.778	-9.22
883.95	58.37
884.122	25.6
884.293	9.22
884.465	-19.46
884.637	48.13
884.809	27.65
884.98	-3.07
885.152	87.04
885.324	-23.55
885.496	15.36
885.667	-9.22
885.839	-3.07
886.011	27.65
886.182	-1.02
886.354	52.22
886.525	-13.31
886.697	39.94
886.869	46.08
887.04	-72.7
887.212	144.38
887.383	46.08
887.555	19.46
887.726	66.56
887.897	-13.31
888.069	35.84
888.24	41.98
888.412	-76.8
888.583	66.56
888.754	3.07
888.926	-7.17
889.097	7.17
889.268	-25.6
889.44	37.89
889.611	3.07
889.782	11.26
889.953	-25.6
890.125	13.31
890.296	46.08
890.467	25.6
890.638	-35.84
890.809	1.02
890.98	-11.26
891.151	-9.22
891.323	93.18
891.494	23.55
891.665	19.46
891.836	-9.22
892.007	27.65
892.178	74.75
892.349	-15.36
892.52	52.22
892.691	-58.37
892.862	21.5
893.032	48.13
893.203	7.17
893.374	3.07
893.545	41.98
893.716	1.02
893.887	7.17
894.057	66.56
894.228	33.79
894.399	-13.31
894.57	25.6
894.74	19.46
894.911	52.22
895.082	-41.98
895.253	-37.89
895.423	37.89
895.594	35.84
895.764	23.55
895.935	58.37
896.106	35.84
896.276	35.84
896.447	82.94
896.617	-37.89
896.788	-31.74
896.958	-17.41
897.129	23.55
897.299	-3.07
897.47	37.89
897.64	48.13
897.81	64.51
897.981	41.98
898.151	-19.46
898.322	-23.55
898.492	-1.02
898.662	25.6
898.832	58.37
899.003	29.7
899.173	27.65
899.343	58.37
899.513	44.03
