Data from USB4F104151__93__12-28-17-987.txt Node

Date: Fri Mar 14 12:28:17 EDT 2025
User: louis
Spectrometer: USB4F10415
Trigger mode: 4
Integration Time (sec): 2.000000E-2
Scans to average: 1
Electric dark correction enabled: true
Nonlinearity correction enabled: false
Boxcar width: 0
XAxis mode: Wavelengths
Number of Pixels in Spectrum: 3648
>>>>>Begin Spectral Data<<<<<
178.204	-39.42
178.424	-39.42
178.644	-39.42
178.864	-139.77
179.084	-43.52
179.304	-107.01
179.524	-37.38
179.744	-18.94
179.964	-10.75
180.184	-33.28
180.404	38.4
180.624	114.17
180.844	62.98
181.064	5.63
181.283	-20.99
181.503	-4.61
181.723	11.78
181.943	-39.42
182.163	15.87
182.383	-2.56
182.602	-8.7
182.822	62.98
183.042	5.63
183.262	-16.9
183.482	-12.8
183.701	-12.8
183.921	32.26
184.141	-74.24
184.361	46.59
184.58	-16.9
184.8	19.97
185.02	11.78
185.239	38.4
185.459	22.02
185.679	-4.61
185.898	81.41
186.118	-23.04
186.338	58.88
186.557	79.36
186.777	60.93
186.997	54.78
187.216	-43.52
187.436	62.98
187.655	17.92
187.875	-39.42
188.095	-12.8
188.314	112.13
188.534	-14.85
188.753	65.02
188.973	24.06
189.192	97.79
189.412	38.4
189.631	-23.04
189.851	1.54
190.07	85.5
190.29	69.12
190.509	-53.76
190.729	7.68
190.948	30.21
191.168	79.36
191.387	50.69
191.607	28.16
191.826	32.26
192.045	-23.04
192.265	-4.61
192.484	42.5
192.704	11.78
192.923	9.73
193.142	71.17
193.362	-45.57
193.581	77.31
193.8	5.63
194.02	9.73
194.239	-23.04
194.458	9.73
194.678	130.56
194.897	-4.61
195.116	-25.09
195.335	17.92
195.555	-10.75
195.774	-20.99
195.993	42.5
196.212	91.65
196.432	75.26
196.651	67.07
196.87	-37.38
197.089	62.98
197.308	7.68
197.528	22.02
197.747	-49.66
197.966	-94.72
198.185	11.78
198.404	19.97
198.623	108.03
198.842	17.92
199.062	22.02
199.281	-31.23
199.5	-59.9
199.719	-2.56
199.938	-31.23
200.157	-10.75
200.376	-25.09
200.595	79.36
200.814	22.02
201.033	-12.8
201.252	79.36
201.471	99.84
201.69	19.97
201.909	-20.99
202.128	69.12
202.347	-16.9
202.566	28.16
202.785	-70.14
203.004	-6.66
203.223	136.7
203.442	-109.05
203.661	34.3
203.879	58.88
204.098	19.97
204.317	9.73
204.536	-23.04
204.755	24.06
204.974	54.78
205.193	-14.85
205.411	13.82
205.63	-10.75
205.849	15.87
206.068	-41.47
206.287	-27.14
206.505	58.88
206.724	50.69
206.943	-31.23
207.162	-12.8
207.381	44.54
207.599	-18.94
207.818	30.21
208.037	44.54
208.255	-31.23
208.474	48.64
208.693	34.3
208.911	40.45
209.13	36.35
209.349	17.92
209.567	77.31
209.786	110.08
210.005	91.65
210.223	62.98
210.442	1.54
210.661	-90.62
210.879	9.73
211.098	17.92
211.316	54.78
211.535	79.36
211.753	-31.23
211.972	83.45
212.191	15.87
212.409	-37.38
212.628	1.54
212.846	-37.38
213.065	-45.57
213.283	-4.61
213.502	-6.66
213.72	-18.94
213.938	36.35
214.157	-0.51
214.375	73.21
214.594	77.31
214.812	65.02
215.031	19.97
215.249	5.63
215.467	62.98
215.686	-41.47
215.904	5.63
216.122	58.88
216.341	75.26
216.559	24.06
216.778	-12.8
216.996	-10.75
217.214	-2.56
217.432	36.35
217.651	-64
217.869	-0.51
218.087	28.16
218.306	62.98
218.524	34.3
218.742	-0.51
218.96	-8.7
219.179	-57.86
219.397	17.92
219.615	-0.51
219.833	-12.8
220.051	5.63
220.27	40.45
220.488	65.02
220.706	71.17
220.924	36.35
221.142	42.5
221.36	71.17
221.578	95.74
221.796	-68.09
222.015	-23.04
222.233	32.26
222.451	-8.7
222.669	5.63
222.887	40.45
223.105	81.41
223.323	17.92
223.541	-0.51
223.759	-2.56
223.977	52.74
224.195	50.69
224.413	52.74
224.631	42.5
224.849	44.54
225.067	28.16
225.285	36.35
225.503	36.35
225.721	3.58
225.939	52.74
226.157	22.02
226.375	110.08
226.592	36.35
226.81	-10.75
227.028	22.02
227.246	75.26
227.464	-16.9
227.682	11.78
227.9	69.12
228.117	-23.04
228.335	38.4
228.553	65.02
228.771	24.06
228.989	38.4
229.206	-49.66
229.424	-43.52
229.642	1.54
229.86	42.5
230.077	-31.23
230.295	9.73
230.513	3.58
230.731	-43.52
230.948	-6.66
231.166	-23.04
231.384	40.45
231.601	5.63
231.819	108.03
232.037	-6.66
232.254	13.82
232.472	-31.23
232.689	9.73
232.907	58.88
233.125	15.87
233.342	22.02
233.56	-37.38
233.777	-4.61
233.995	52.74
234.213	34.3
234.43	1.54
234.648	36.35
234.865	-16.9
235.083	7.68
235.3	52.74
235.518	7.68
235.735	69.12
235.953	-16.9
236.17	-6.66
236.388	17.92
236.605	3.58
236.822	83.45
237.04	-27.14
237.257	7.68
237.475	-10.75
237.692	-18.94
237.909	42.5
238.127	69.12
238.344	-6.66
238.562	32.26
238.779	-0.51
238.996	40.45
239.214	5.63
239.431	28.16
239.648	7.68
239.865	60.93
240.083	36.35
240.3	-35.33
240.517	-20.99
240.735	-10.75
240.952	67.07
241.169	69.12
241.386	81.41
241.603	-45.57
241.821	28.16
242.038	65.02
242.255	-59.9
242.472	-6.66
242.689	-2.56
242.907	19.97
243.124	-2.56
243.341	54.78
243.558	81.41
243.775	-41.47
243.992	-10.75
244.209	34.3
244.426	-33.28
244.643	83.45
244.86	13.82
245.078	-16.9
245.295	30.21
245.512	3.58
245.729	50.69
245.946	58.88
246.163	28.16
246.38	42.5
246.597	40.45
246.814	46.59
247.031	11.78
247.248	46.59
247.464	13.82
247.681	85.5
247.898	24.06
248.115	-25.09
248.332	-4.61
248.549	46.59
248.766	42.5
248.983	91.65
249.2	32.26
249.417	24.06
249.633	44.54
249.85	118.27
250.067	-12.8
250.284	19.97
250.501	32.26
250.717	-20.99
250.934	58.88
251.151	9.73
251.368	-10.75
251.585	36.35
251.801	38.4
252.018	54.78
252.235	112.13
252.451	28.16
252.668	9.73
252.885	40.45
253.102	-8.7
253.318	-29.18
253.535	58.88
253.752	60.93
253.968	34.3
254.185	-29.18
254.401	-23.04
254.618	38.4
254.835	-4.61
255.051	42.5
255.268	28.16
255.484	36.35
255.701	83.45
255.917	91.65
256.134	22.02
256.351	-23.04
256.567	-18.94
256.784	19.97
257	-14.85
257.217	44.54
257.433	120.32
257.65	62.98
257.866	-33.28
258.082	60.93
258.299	-29.18
258.515	22.02
258.732	30.21
258.948	50.69
259.165	22.02
259.381	-59.9
259.597	32.26
259.814	40.45
260.03	-20.99
260.246	52.74
260.463	56.83
260.679	73.21
260.895	-2.56
261.112	-31.23
261.328	-10.75
261.544	15.87
261.761	44.54
261.977	-8.7
262.193	-6.66
262.409	67.07
262.626	24.06
262.842	56.83
263.058	-14.85
263.274	99.84
263.49	50.69
263.707	26.11
263.923	-18.94
264.139	11.78
264.355	-20.99
264.571	13.82
264.787	-25.09
265.004	50.69
265.22	44.54
265.436	19.97
265.652	-68.09
265.868	99.84
266.084	46.59
266.3	34.3
266.516	-31.23
266.732	-4.61
266.948	-18.94
267.164	17.92
267.38	56.83
267.596	5.63
267.812	28.16
268.028	-27.14
268.244	13.82
268.46	13.82
268.676	-57.86
268.892	34.3
269.108	101.89
269.324	-25.09
269.54	17.92
269.756	22.02
269.972	-20.99
270.188	60.93
270.403	-8.7
270.619	-39.42
270.835	42.5
271.051	62.98
271.267	-6.66
271.483	-8.7
271.698	-10.75
271.914	58.88
272.13	17.92
272.346	32.26
272.562	75.26
272.777	114.17
272.993	65.02
273.209	-25.09
273.425	-35.33
273.64	13.82
273.856	79.36
274.072	-29.18
274.287	15.87
274.503	73.21
274.719	22.02
274.934	60.93
275.15	-10.75
275.366	-4.61
275.581	-37.38
275.797	-31.23
276.012	-16.9
276.228	-66.05
276.444	30.21
276.659	36.35
276.875	9.73
277.09	-8.7
277.306	1.54
277.521	44.54
277.737	-53.76
277.952	46.59
278.168	-39.42
278.383	15.87
278.599	3.58
278.814	38.4
279.03	44.54
279.245	7.68
279.461	-6.66
279.676	42.5
279.892	-23.04
280.107	67.07
280.322	81.41
280.538	54.78
280.753	28.16
280.969	22.02
281.184	24.06
281.399	52.74
281.615	13.82
281.83	32.26
282.045	-2.56
282.26	-78.33
282.476	15.87
282.691	1.54
282.906	-68.09
283.122	-43.52
283.337	13.82
283.552	9.73
283.767	5.63
283.983	-10.75
284.198	42.5
284.413	67.07
284.628	1.54
284.843	65.02
285.058	79.36
285.274	40.45
285.489	-14.85
285.704	-12.8
285.919	93.69
286.134	3.58
286.349	38.4
286.564	87.55
286.779	42.5
286.995	60.93
287.21	62.98
287.425	60.93
287.64	-8.7
287.855	-23.04
288.07	-25.09
288.285	50.69
288.5	79.36
288.715	75.26
288.93	56.83
289.145	17.92
289.36	9.73
289.575	-10.75
289.79	81.41
290.004	-35.33
290.219	-14.85
290.434	30.21
290.649	-43.52
290.864	-27.14
291.079	38.4
291.294	-4.61
291.509	-4.61
291.724	9.73
291.938	24.06
292.153	56.83
292.368	22.02
292.583	34.3
292.798	15.87
293.012	89.6
293.227	-16.9
293.442	77.31
293.657	24.06
293.871	77.31
294.086	19.97
294.301	-12.8
294.516	75.26
294.73	38.4
294.945	30.21
295.16	-23.04
295.374	73.21
295.589	28.16
295.804	-8.7
296.018	54.78
296.233	-29.18
296.447	-55.81
296.662	69.12
296.877	-12.8
297.091	28.16
297.306	30.21
297.52	54.78
297.735	-4.61
297.949	7.68
298.164	28.16
298.378	9.73
298.593	-37.38
298.807	103.93
299.022	52.74
299.236	46.59
299.451	58.88
299.665	3.58
299.88	32.26
300.094	40.45
300.309	34.3
300.523	-16.9
300.737	19.97
300.952	7.68
301.166	7.68
301.381	28.16
301.595	-12.8
301.809	-10.75
302.024	36.35
302.238	-18.94
302.452	95.74
302.667	7.68
302.881	54.78
303.095	126.46
303.309	56.83
303.524	50.69
303.738	60.93
303.952	34.3
304.166	13.82
304.381	40.45
304.595	40.45
304.809	5.63
305.023	19.97
305.237	19.97
305.452	-74.24
305.666	-6.66
305.88	-6.66
306.094	62.98
306.308	36.35
306.522	42.5
306.736	46.59
306.95	-12.8
307.164	-33.28
307.379	13.82
307.593	42.5
307.807	46.59
308.021	22.02
308.235	36.35
308.449	-39.42
308.663	15.87
308.877	-12.8
309.091	32.26
309.305	30.21
309.519	7.68
309.733	22.02
309.947	28.16
310.161	67.07
310.374	11.78
310.588	-23.04
310.802	67.07
311.016	50.69
311.23	67.07
311.444	91.65
311.658	28.16
311.872	30.21
312.085	81.41
312.299	69.12
312.513	-10.75
312.727	52.74
312.941	15.87
313.154	11.78
313.368	28.16
313.582	28.16
313.796	28.16
314.009	42.5
314.223	-4.61
314.437	19.97
314.651	-25.09
314.864	-23.04
315.078	34.3
315.292	-12.8
315.505	-18.94
315.719	-16.9
315.933	17.92
316.146	-82.43
316.36	-10.75
316.573	32.26
316.787	-14.85
317.001	-18.94
317.214	-35.33
317.428	42.5
317.641	-6.66
317.855	60.93
318.068	5.63
318.282	24.06
318.495	126.46
318.709	-10.75
318.922	46.59
319.136	120.32
319.349	48.64
319.563	124.41
319.776	-4.61
319.99	11.78
320.203	89.6
320.417	60.93
320.63	71.17
320.843	56.83
321.057	38.4
321.27	77.31
321.483	-8.7
321.697	-8.7
321.91	32.26
322.124	-4.61
322.337	69.12
322.55	42.5
322.763	17.92
322.977	-25.09
323.19	-14.85
323.403	85.5
323.617	-33.28
323.83	103.93
324.043	13.82
324.256	46.59
324.469	-10.75
324.683	81.41
324.896	5.63
325.109	40.45
325.322	-31.23
325.535	9.73
325.748	1.54
325.962	3.58
326.175	28.16
326.388	36.35
326.601	-18.94
326.814	-23.04
327.027	93.69
327.24	54.78
327.453	-43.52
327.666	7.68
327.879	62.98
328.092	73.21
328.305	87.55
328.518	19.97
328.731	30.21
328.944	62.98
329.157	7.68
329.37	-14.85
329.583	75.26
329.796	144.89
330.009	-25.09
330.222	-0.51
330.435	22.02
330.648	15.87
330.861	-14.85
331.073	73.21
331.286	24.06
331.499	65.02
331.712	-31.23
331.925	9.73
332.138	-59.9
332.35	48.64
332.563	-0.51
332.776	77.31
332.989	17.92
333.202	-14.85
333.414	-12.8
333.627	11.78
333.84	13.82
334.053	58.88
334.265	-8.7
334.478	54.78
334.691	99.84
334.903	17.92
335.116	60.93
335.329	26.11
335.541	3.58
335.754	-0.51
335.966	42.5
336.179	7.68
336.392	7.68
336.604	38.4
336.817	3.58
337.029	91.65
337.242	-55.81
337.454	50.69
337.667	5.63
337.88	36.35
338.092	24.06
338.305	38.4
338.517	50.69
338.729	91.65
338.942	40.45
339.154	26.11
339.367	15.87
339.579	58.88
339.792	30.21
340.004	13.82
340.217	-20.99
340.429	26.11
340.641	-51.71
340.854	22.02
341.066	11.78
341.278	60.93
341.491	62.98
341.703	60.93
341.915	1.54
342.128	52.74
342.34	-0.51
342.552	24.06
342.764	46.59
342.977	81.41
343.189	24.06
343.401	24.06
343.613	-57.86
343.826	32.26
344.038	19.97
344.25	5.63
344.462	13.82
344.674	40.45
344.886	58.88
345.099	75.26
345.311	38.4
345.523	28.16
345.735	30.21
345.947	26.11
346.159	79.36
346.371	52.74
346.583	3.58
346.795	60.93
347.007	-12.8
347.219	-12.8
347.431	-37.38
347.643	91.65
347.855	-96.77
348.067	75.26
348.279	9.73
348.491	24.06
348.703	67.07
348.915	1.54
349.127	-12.8
349.339	5.63
349.551	-8.7
349.763	60.93
349.975	52.74
350.187	132.61
350.399	34.3
350.61	-29.18
350.822	-2.56
351.034	-47.62
351.246	62.98
351.458	75.26
351.669	-8.7
351.881	114.17
352.093	30.21
352.305	58.88
352.517	40.45
352.728	42.5
352.94	34.3
353.152	73.21
353.363	-18.94
353.575	38.4
353.787	99.84
353.999	-4.61
354.21	60.93
354.422	48.64
354.633	17.92
354.845	1.54
355.057	38.4
355.268	58.88
355.48	-4.61
355.692	120.32
355.903	-12.8
356.115	75.26
356.326	26.11
356.538	77.31
356.749	-0.51
356.961	73.21
357.172	7.68
357.384	24.06
357.595	56.83
357.807	1.54
358.018	-4.61
358.23	-6.66
358.441	54.78
358.653	85.5
358.864	71.17
359.075	58.88
359.287	52.74
359.498	77.31
359.709	65.02
359.921	7.68
360.132	77.31
360.344	93.69
360.555	73.21
360.766	44.54
360.977	30.21
361.189	124.41
361.4	24.06
361.611	46.59
361.823	54.78
362.034	-29.18
362.245	-45.57
362.456	44.54
362.667	42.5
362.879	-14.85
363.09	46.59
363.301	1.54
363.512	44.54
363.723	-25.09
363.935	-2.56
364.146	60.93
364.357	28.16
364.568	24.06
364.779	-31.23
364.99	157.18
365.201	9.73
365.412	75.26
365.623	-37.38
365.834	91.65
366.045	60.93
366.256	101.89
366.467	73.21
366.678	22.02
366.889	32.26
367.1	-8.7
367.311	62.98
367.522	-55.81
367.733	38.4
367.944	38.4
368.155	15.87
368.366	73.21
368.577	13.82
368.788	116.22
368.999	-16.9
369.209	-72.19
369.42	46.59
369.631	108.03
369.842	19.97
370.053	40.45
370.264	67.07
370.474	30.21
370.685	-31.23
370.896	36.35
371.107	52.74
371.317	38.4
371.528	87.55
371.739	48.64
371.95	46.59
372.16	71.17
372.371	17.92
372.582	17.92
372.792	13.82
373.003	48.64
373.214	-2.56
373.424	13.82
373.635	-16.9
373.846	-39.42
374.056	15.87
374.267	32.26
374.477	75.26
374.688	112.13
374.898	46.59
375.109	19.97
375.319	17.92
375.53	75.26
375.74	-10.75
375.951	40.45
376.161	75.26
376.372	75.26
376.582	30.21
376.793	34.3
377.003	15.87
377.214	36.35
377.424	32.26
377.635	65.02
377.845	-2.56
378.055	99.84
378.266	34.3
378.476	44.54
378.686	42.5
378.897	9.73
379.107	9.73
379.317	15.87
379.528	22.02
379.738	73.21
379.948	-57.86
380.158	108.03
380.369	24.06
380.579	52.74
380.789	38.4
380.999	5.63
381.21	11.78
381.42	17.92
381.63	15.87
381.84	-8.7
382.05	3.58
382.261	101.89
382.471	79.36
382.681	36.35
382.891	73.21
383.101	26.11
383.311	34.3
383.521	-8.7
383.731	89.6
383.941	71.17
384.151	15.87
384.361	-57.86
384.571	105.98
384.781	19.97
384.991	120.32
385.201	99.84
385.411	34.3
385.621	-14.85
385.831	75.26
386.041	30.21
386.251	22.02
386.461	91.65
386.671	17.92
386.881	11.78
387.091	26.11
387.301	93.69
387.511	36.35
387.72	19.97
387.93	81.41
388.14	44.54
388.35	-70.14
388.56	-2.56
388.769	13.82
388.979	56.83
389.189	32.26
389.399	-51.71
389.609	-43.52
389.818	52.74
390.028	71.17
390.238	-2.56
390.447	65.02
390.657	40.45
390.867	-8.7
391.076	62.98
391.286	56.83
391.496	85.5
391.705	28.16
391.915	97.79
392.125	34.3
392.334	97.79
392.544	17.92
392.753	11.78
392.963	38.4
393.172	34.3
393.382	17.92
393.591	67.07
393.801	28.16
394.01	101.89
394.22	15.87
394.429	9.73
394.639	48.64
394.848	46.59
395.058	73.21
395.267	24.06
395.477	-12.8
395.686	50.69
395.895	69.12
396.105	44.54
396.314	24.06
396.524	46.59
396.733	11.78
396.942	60.93
397.152	95.74
397.361	99.84
397.57	62.98
397.78	108.03
397.989	116.22
398.198	81.41
398.407	83.45
398.617	30.21
398.826	50.69
399.035	126.46
399.244	75.26
399.453	83.45
399.663	93.69
399.872	101.89
400.081	89.6
400.29	126.46
400.499	46.59
400.708	67.07
400.917	32.26
401.127	97.79
401.336	58.88
401.545	87.55
401.754	30.21
401.963	112.13
402.172	71.17
402.381	-0.51
402.59	95.74
402.799	124.41
403.008	95.74
403.217	52.74
403.426	60.93
403.635	222.72
403.844	101.89
404.053	30.21
404.262	89.6
404.471	124.41
404.68	60.93
404.888	89.6
405.097	87.55
405.306	75.26
405.515	153.09
405.724	77.31
405.933	163.33
406.142	118.27
406.35	114.17
406.559	101.89
406.768	81.41
406.977	105.98
407.185	110.08
407.394	148.99
407.603	120.32
407.812	132.61
408.02	214.52
408.229	194.05
408.438	189.95
408.646	169.47
408.855	114.17
409.064	169.47
409.272	157.18
409.481	163.33
409.69	214.52
409.898	269.82
410.107	157.18
410.315	222.72
410.524	171.52
410.733	292.35
410.941	245.24
411.15	239.1
411.358	239.1
411.567	282.11
411.775	216.57
411.984	282.11
412.192	284.16
412.401	306.68
412.609	325.12
412.818	325.12
413.026	288.25
413.234	359.93
413.443	361.98
413.651	329.21
413.86	398.84
414.068	337.4
414.276	409.08
414.485	335.35
414.693	460.28
414.901	486.9
415.11	499.19
415.318	447.99
415.526	509.43
415.734	519.67
415.943	515.58
416.151	558.58
416.359	552.44
416.567	595.45
416.776	587.26
416.984	689.65
417.192	689.65
417.4	650.74
417.608	640.5
417.817	656.89
418.025	818.68
418.233	812.53
418.441	798.2
418.649	779.76
418.857	802.29
419.065	849.4
419.273	857.59
419.481	923.12
419.689	941.55
419.897	970.23
420.105	1002.99
420.313	1076.72
420.521	1070.58
420.729	1121.77
420.937	1125.87
421.145	1226.22
421.353	1258.99
421.561	1320.43
421.769	1398.25
421.977	1302
422.185	1295.85
422.393	1445.35
422.601	1566.18
422.809	1641.96
423.017	1431.02
423.224	1666.53
423.432	1678.82
423.64	1658.34
423.848	1805.8
424.056	1617.38
424.263	1961.44
424.471	2037.22
424.679	1934.82
424.887	2002.4
425.094	2110.94
425.302	2112.99
425.51	2217.44
425.718	2239.97
425.925	2405.85
426.133	2309.6
426.341	2528.73
426.548	2592.22
426.756	2596.31
426.964	2704.85
427.171	2784.73
427.379	2864.6
427.586	3063.25
427.794	2964.95
428.001	3177.94
428.209	3304.91
428.417	3268.05
428.624	3423.69
428.832	3521.99
429.039	3521.99
429.247	3507.66
429.454	3777.99
429.662	4013.51
429.869	3722.7
430.076	4130.24
430.284	4007.36
430.491	4150.72
430.699	4353.47
430.906	4351.42
431.114	4345.28
431.321	4627.9
431.528	4720.06
431.736	4908.47
431.943	5066.16
432.15	5127.6
432.358	5027.25
432.565	5348.78
432.772	5496.24
432.979	5563.82
433.187	5623.21
433.394	5866.92
433.601	6135.2
433.808	6233.5
434.016	6051.24
434.223	6473.12
434.43	6849.94
434.637	6563.23
434.844	7005.59
435.052	7214.48
435.259	7222.67
435.466	7339.41
435.673	7163.28
435.88	7638.41
436.087	8150.4
436.294	8000.9
436.501	7865.74
436.708	8045.96
436.915	8195.46
437.122	8510.85
437.329	8562.05
437.537	8879.48
437.743	9133.43
437.95	8775.03
438.157	9368.95
438.364	9706.86
438.571	9852.27
438.778	9985.38
438.985	10806.62
439.192	10446.18
439.399	10675.55
439.606	10425.7
439.813	10790.24
440.02	11517.26
440.227	11414.87
440.433	11279.7
440.64	11949.39
440.847	11595.09
441.054	11898.19
441.261	12584.26
441.467	12703.04
441.674	12821.82
441.881	13276.47
442.088	13155.64
442.294	13231.41
442.501	13577.52
442.708	13790.51
442.914	14273.83
443.121	14755.1
443.328	14445.86
443.534	15695.12
443.741	15097.11
443.948	14871.84
444.154	15873.29
444.361	16022.8
444.568	16045.32
444.774	16203.02
444.981	16329.99
445.187	16665.86
445.394	17468.66
445.6	17204.47
445.807	18875.62
446.013	18029.8
446.22	18375.91
446.426	19135.71
446.633	19258.59
446.839	19946.7
447.046	19178.72
447.252	20233.42
447.459	20194.51
447.665	20153.55
447.871	21318.84
448.078	22070.45
448.284	21087.42
448.491	21208.25
448.697	22367.4
448.903	22908.07
449.11	22938.79
449.316	22377.64
449.522	22955.17
449.728	23635.1
449.935	23710.87
450.141	23663.77
450.347	24302.73
450.553	23395.48
450.76	23749.78
450.966	24747.14
451.172	24272.01
451.378	24648.84
451.584	24296.59
451.791	24818.82
451.997	25093.25
452.203	25447.55
452.409	25283.71
452.615	25560.19
452.821	24511.63
453.027	23954.58
453.233	25246.85
453.44	24331.4
453.646	24442
453.852	25044.1
454.058	25158.78
454.264	24407.18
454.47	25207.94
454.676	24280.21
454.882	25445.5
455.088	22963.36
455.294	23202.97
455.5	23440.54
455.705	23858.32
455.911	23237.79
456.117	22758.56
456.323	22467.75
456.529	20960.45
456.735	22197.42
456.941	21490.87
457.147	21060.8
457.352	20208.84
457.558	20374.73
457.764	20411.59
457.97	20151.5
458.176	19391.7
458.381	19412.18
458.587	18504.93
458.793	18633.96
458.999	17597.68
459.204	18752.74
459.41	18523.37
459.616	17016.06
459.821	17294.58
460.027	16991.48
460.233	16704.77
460.438	16065.8
460.644	16194.82
460.85	15224.09
461.055	15099.16
461.261	15252.76
461.466	14085.42
461.672	13485.36
461.878	14306.6
462.083	13278.52
462.289	13198.65
462.494	12852.54
462.7	12721.47
462.905	12346.69
463.111	12444.99
463.316	12737.85
463.522	12416.32
463.727	12453.19
463.932	12459.33
464.138	12270.92
464.343	12291.4
464.549	12078.41
464.754	12397.89
464.959	12195.14
465.165	12082.5
465.37	11683.15
465.575	11175.25
465.781	11640.14
465.986	11892.04
466.191	11337.04
466.397	11294.04
466.602	10585.44
466.807	11091.29
467.012	11115.86
467.218	10898.78
467.423	11021.66
467.628	11007.32
467.833	11513.17
468.038	11165.01
468.244	10597.73
468.449	11244.88
468.654	10597.73
468.859	10847.58
469.064	10626.4
469.269	10290.53
469.474	10534.24
469.679	10470.75
469.885	10116.45
470.09	10349.92
470.295	10104.17
470.5	9850.22
470.705	10153.32
470.91	9942.38
471.115	9885.03
471.32	9977.19
471.525	9846.12
471.73	9682.28
471.935	9540.97
472.139	9180.53
472.344	9184.63
472.549	9411.95
472.754	9190.77
472.959	9041.27
473.164	8856.95
473.369	8662.4
473.574	9043.32
473.778	9065.85
473.983	8848.76
474.188	8893.82
474.393	8437.12
474.598	8471.93
474.802	8414.59
475.007	8273.28
475.212	8226.18
475.417	7933.32
475.621	8160.64
475.826	8039.81
476.031	7890.31
476.235	7927.18
476.44	8005
476.645	7683.47
476.849	7658.89
477.054	7732.62
477.259	7544.2
477.463	7630.22
477.668	7361.94
477.872	7300.5
478.077	7538.06
478.282	7024.02
478.486	7177.62
478.691	7036.31
478.895	7038.36
479.1	6940.05
479.304	7134.61
479.509	6641.05
479.713	6993.3
479.918	6747.55
480.122	6655.39
480.326	6811.03
480.531	6720.92
480.735	6651.29
480.94	6542.75
481.144	6825.37
481.348	6442.4
481.553	6495.64
481.757	6411.68
481.961	6458.78
482.166	6663.58
482.37	6555.04
482.574	6350.24
482.778	6391.2
482.983	6413.73
483.187	6628.76
483.391	6567.32
483.595	6497.69
483.8	6340
484.004	6634.91
484.208	6366.62
484.412	6491.55
484.616	6544.8
484.821	6434.21
485.025	6256.03
485.229	6653.34
485.433	6669.72
485.637	6335.9
485.841	6340
486.045	6575.52
486.249	6514.08
486.453	6360.48
486.657	6432.16
486.861	6432.16
487.065	6321.57
487.269	6403.49
487.473	6317.47
487.677	6501.79
487.881	6512.03
488.085	6393.25
488.289	6507.93
488.493	6522.27
488.697	6481.31
488.901	6550.94
489.105	6471.07
489.309	6471.07
489.512	6364.57
489.716	6618.52
489.92	6630.81
490.124	6333.86
490.328	6653.34
490.531	6655.39
490.735	6469.02
490.939	6755.74
491.143	6729.11
491.346	6520.22
491.55	6598.04
491.754	6659.48
491.958	6716.83
492.161	6780.31
492.365	6786.46
492.569	6841.75
492.772	6962.58
492.976	6919.57
493.18	6735.26
493.383	6829.46
493.587	6763.93
493.79	7185.81
493.994	6927.77
494.197	7073.17
494.401	7142.8
494.605	7210.39
494.808	7280.02
495.012	7232.91
495.215	7339.41
495.419	7456.14
495.622	7400.85
495.825	7482.77
496.029	7384.46
496.232	7583.12
496.436	7753.1
496.639	8002.95
496.843	7691.66
497.046	7935.37
497.249	7990.66
497.453	7957.89
497.656	8000.9
497.859	8105.35
498.063	8070.53
498.266	8402.3
498.469	8277.38
498.673	8394.11
498.876	8535.42
499.079	8502.65
499.282	8697.21
499.485	8779.13
499.689	8850.81
499.892	9026.93
500.095	9182.58
500.298	9262.45
500.501	9115
500.705	9225.59
500.908	9387.38
501.111	9454.96
501.314	9749.87
501.517	9813.35
501.72	9987.43
501.923	9829.74
502.126	10253.67
502.329	10245.48
502.532	10384.74
502.735	10263.91
502.938	10757.47
503.141	10610.01
503.344	10831.19
503.547	10823
503.75	11097.43
503.953	10943.83
504.156	11109.72
504.359	11427.15
504.562	11423.06
504.765	11584.85
504.968	11681.1
505.17	11775.31
505.373	11625.81
505.576	11840.84
505.779	12111.18
505.982	12318.02
506.185	12444.99
506.387	12571.97
506.59	12686.65
506.793	12725.57
506.996	13086.01
507.198	13075.77
507.401	13167.93
507.604	13317.43
507.807	13505.84
508.009	13520.18
508.212	13876.52
508.415	13788.46
508.617	14044.46
508.82	14269.73
509.022	14005.55
509.225	14427.43
509.428	14474.53
509.63	14499.11
509.833	14945.56
510.035	15080.73
510.238	14828.83
510.44	15103.26
510.643	15344.92
510.845	15439.12
511.048	15449.36
511.25	15674.64
511.453	15820.05
511.655	16121.1
511.858	16237.83
512.06	16389.38
512.262	16489.73
512.465	16837.89
512.667	16866.56
512.87	16958.72
513.072	17048.83
513.274	17102.08
513.477	17642.74
513.679	17605.88
513.881	17732.85
514.084	17923.31
514.286	17843.44
514.488	17992.94
514.69	18865.38
514.893	18535.65
515.095	18535.65
515.297	18730.21
515.499	18795.75
515.701	19254.49
515.904	19453.14
516.106	19584.21
516.308	19420.38
516.51	19766.48
516.712	19928.27
516.914	20143.31
517.116	20311.24
517.318	20661.44
517.52	20536.52
517.722	20501.7
517.925	20974.78
518.127	21097.66
518.329	21404.86
518.531	20933.82
518.733	21734.58
518.935	21484.73
519.136	21822.64
519.338	22191.28
519.54	22391.98
519.742	22508.71
519.944	22568.1
520.146	22975.65
520.348	23094.43
520.55	23047.33
520.752	22957.22
520.954	23618.71
521.155	23243.93
521.357	23567.51
521.559	23964.82
521.761	24142.99
521.963	24472.71
522.164	24423.56
522.366	24343.69
522.568	24724.61
522.77	24829.06
522.971	25107.58
523.173	25068.67
523.375	25222.27
523.576	25140.35
523.778	25261.18
523.98	25576.57
524.181	25836.66
524.383	26092.66
524.584	26115.19
524.786	26084.47
524.988	25955.44
525.189	26135.67
525.391	26901.61
525.592	26713.19
525.794	26602.6
525.995	26741.86
526.197	26702.95
526.398	27182.18
526.6	27118.69
526.801	27348.06
527.003	27606.11
527.204	27452.51
527.406	27522.14
527.607	27599.96
527.808	28027.99
528.01	27491.42
528.211	27866.2
528.412	28312.66
528.614	28222.55
528.815	28224.59
529.016	28550.22
529.218	28212.31
529.419	28472.4
529.62	28413.01
529.822	28408.91
530.023	28361.81
530.224	28826.7
530.425	28456.01
530.626	28175.44
530.828	28462.16
531.029	29041.73
531.23	28779.59
531.431	28677.19
531.632	28576.84
531.833	28476.49
532.035	28326.99
532.236	29006.92
532.437	29039.68
532.638	28769.35
532.839	29359.17
533.04	29187.14
533.241	28773.45
533.442	29477.95
533.643	28998.73
533.844	28986.44
534.045	29195.33
534.246	28863.56
534.447	29215.81
534.648	28742.73
534.849	29180.99
535.05	28929.09
535.251	28972.1
535.451	28892.23
535.652	29101.12
535.853	28943.43
536.054	29246.53
536.255	29279.3
536.456	29281.35
536.657	29779
536.857	28918.85
537.058	29127.75
537.259	29293.63
537.46	29228.1
537.66	29111.36
537.861	29426.75
538.062	29187.14
538.263	29641.79
538.463	28922.95
538.664	29156.42
538.865	29330.5
539.065	29381.7
539.266	28947.53
539.466	29209.67
539.667	29011.01
539.868	29146.18
540.068	29240.39
540.269	29262.91
540.469	29434.94
540.67	29004.87
540.87	29332.54
541.071	29248.58
541.271	29164.61
541.472	29307.97
541.672	28943.43
541.873	28957.77
542.073	28677.19
542.274	29107.27
542.474	29131.84
542.675	29035.59
542.875	29305.92
543.075	29195.33
543.276	28736.59
543.476	29242.43
543.676	28949.57
543.877	28687.43
544.077	29193.28
544.277	29086.79
544.478	28795.98
544.678	29334.59
544.878	29021.25
545.078	29320.26
545.279	28939.33
545.479	28853.32
545.679	29236.29
545.879	29293.63
546.079	28968.01
546.28	28798.02
546.48	28718.15
546.68	29121.6
546.88	29043.78
547.08	28933.19
547.28	29109.32
547.48	28808.26
547.68	29170.75
547.88	28765.26
548.081	29060.16
548.281	29064.26
548.481	28859.46
548.681	29168.71
548.881	29002.82
549.081	29242.43
549.28	28681.29
549.48	28861.51
549.68	28830.79
549.88	29410.37
550.08	28828.74
550.28	29228.1
550.48	28834.89
550.68	29189.19
550.88	28890.18
551.08	28589.13
551.279	29082.69
551.479	28722.25
551.679	28886.09
551.879	28675.15
552.079	29185.09
552.278	28726.35
552.478	28791.88
552.678	28576.84
552.878	29008.97
553.077	28693.58
553.277	28492.88
553.477	28957.77
553.676	28613.71
553.876	28558.41
554.076	28619.85
554.275	28501.07
554.475	28050.52
554.674	28644.43
554.874	28382.29
555.074	28462.16
555.273	28802.12
555.473	28675.15
555.672	28159.06
555.872	28429.39
556.071	28660.81
556.271	28843.08
556.47	28294.22
556.67	27802.71
556.869	28273.74
557.068	28513.36
557.268	27845.72
557.467	28345.42
557.667	28273.74
557.866	28433.49
558.065	28437.58
558.265	28413.01
558.464	27839.58
558.663	28116.05
558.863	27866.2
559.062	28488.78
559.261	27921.49
559.461	27839.58
559.66	28001.36
559.859	27810.9
560.058	27548.76
560.258	27700.31
560.457	27456.61
560.656	27835.48
560.855	27659.35
561.054	28040.28
561.253	27427.93
561.453	27366.49
561.652	27728.98
561.851	27827.29
562.05	27679.83
562.249	27419.74
562.448	27491.42
562.647	27317.34
562.846	27169.89
563.045	27397.21
563.244	27270.24
563.443	27485.28
563.642	26963.04
563.841	27286.62
564.04	26991.72
564.239	27083.87
564.438	26676.33
564.637	27143.27
564.836	27055.2
565.035	26825.83
565.234	26903.65
565.432	26631.27
565.631	26887.27
565.83	26514.54
566.029	26891.37
566.228	26502.25
566.427	26532.97
566.625	26236.02
566.824	26233.97
567.023	26659.95
567.222	25848.95
567.42	26530.92
567.619	26152.05
567.818	26502.25
568.016	26158.19
568.215	26215.54
568.414	26066.03
568.612	26549.35
568.811	25713.78
569.01	26096.75
569.208	25551.99
569.407	25873.53
569.605	25891.96
569.804	25961.59
570.002	25689.21
570.201	25760.89
570.4	25209.98
570.598	25015.43
570.797	25169.02
570.995	25603.19
571.193	25083.01
571.392	25570.43
571.59	24896.64
571.789	24904.84
571.987	25205.89
572.186	24714.37
572.384	24741
572.582	25187.46
572.781	25046.15
572.979	24462.47
573.177	24634.5
573.376	25171.07
573.574	24691.85
573.772	24765.57
573.971	24525.96
574.169	24442
574.367	24233.1
574.565	24521.87
574.763	24325.26
574.962	24433.8
575.16	24054.93
575.358	24104.08
575.556	23829.65
575.754	24237.2
575.952	23893.14
576.151	24061.07
576.349	23973.01
576.547	23663.77
576.745	23790.74
576.943	24075.41
577.141	23872.66
577.339	23864.47
577.537	23401.63
577.735	23422.11
577.933	23325.85
578.131	23524.51
578.329	23143.58
578.527	23395.48
578.725	23137.44
578.923	23110.82
579.121	23032.99
579.319	23301.28
579.516	23086.24
579.714	23147.68
579.912	23288.99
580.11	22701.22
580.308	23057.57
580.506	22752.42
580.704	22299.82
580.901	22817.96
581.099	23080.1
581.297	22303.92
581.495	22451.37
581.692	22453.42
581.89	22584.49
582.088	22824.1
582.285	22406.31
582.483	22506.66
582.681	22502.57
582.878	22166.7
583.076	21939.38
583.274	22273.2
583.471	21888.18
583.669	22092.97
583.866	21902.51
584.064	21898.42
584.262	21519.54
584.459	21974.19
584.657	21417.15
584.854	22021.3
585.052	21447.86
585.249	21605.56
585.447	21972.14
585.644	21245.12
585.841	21255.36
586.039	21548.22
586.236	21179.58
586.434	21257.4
586.631	21316.79
586.828	21249.21
587.026	21302.46
587.223	21300.41
587.42	21046.46
587.618	21066.94
587.815	20890.82
588.012	20796.61
588.21	20634.82
588.407	20876.48
588.604	20917.44
588.801	20489.42
588.999	20827.33
589.196	20557
589.393	20483.27
589.59	20475.08
589.787	20450.5
589.984	20356.3
590.182	19946.7
590.379	20268.23
590.576	19930.32
590.773	20245.71
590.97	20212.94
591.167	19930.32
591.364	20042.96
591.561	19705.04
591.758	19766.48
591.955	19799.25
592.152	19930.32
592.349	19690.71
592.546	19858.64
592.743	19377.37
592.94	19387.61
593.137	19477.72
593.334	19516.63
593.531	19244.25
593.727	19205.34
593.924	19485.91
594.121	19129.56
594.318	19397.85
594.515	18939.1
594.712	19330.27
594.908	18947.29
595.105	18875.62
595.302	19025.12
595.499	19199.2
595.696	18918.62
595.892	18597.09
596.089	18689.25
596.286	18935.01
596.482	18664.68
596.679	18404.58
596.876	18611.43
597.072	18396.39
597.269	18537.7
597.466	18380.01
597.662	18181.35
597.859	18384.1
598.055	18224.36
598.252	18207.98
598.448	18232.55
598.645	17683.7
598.841	17841.39
599.038	17882.35
599.234	17855.73
599.431	18087.15
599.627	17626.36
599.824	17704.18
600.02	17591.54
600.217	17753.33
600.413	17726.71
600.609	17511.67
600.806	17423.61
601.002	17792.24
601.198	17212.67
601.395	17249.53
601.591	17427.7
601.787	17145.08
601.984	17079.55
602.18	17538.29
602.376	17227
602.572	17028.35
602.769	17077.5
602.965	16721.15
603.161	16848.13
603.357	16645.38
603.553	16928
603.75	16889.09
603.946	16583.94
604.142	16661.76
604.338	16446.73
604.534	16753.92
604.73	16131.34
604.926	16352.52
605.122	16444.68
605.318	16565.51
605.514	16510.21
605.71	16117
605.906	16315.66
606.102	16407.81
606.298	16186.63
606.494	16233.74
606.69	16389.38
606.886	16164.11
607.082	15936.78
607.278	16039.18
607.474	15809.81
607.67	15973.64
607.866	15852.81
608.062	15768.85
608.257	15858.96
608.453	15920.4
608.649	15807.76
608.845	15621.39
609.041	15709.46
609.236	15887.63
609.432	15523.09
609.628	15531.28
609.824	15717.65
610.019	15637.78
610.215	15648.02
610.411	15660.31
610.606	15428.88
610.802	15369.49
610.998	15359.25
611.193	15324.44
611.389	15058.2
611.584	15273.24
611.78	15174.94
611.976	15199.51
612.171	15279.38
612.367	15408.4
612.562	15080.73
612.758	14941.47
612.953	15205.66
613.149	15252.76
613.344	15179.03
613.539	15258.9
613.735	15136.03
613.93	14853.41
614.126	14732.58
614.321	14949.66
614.517	14837.02
614.712	14867.74
614.907	14832.93
615.103	14998.81
615.298	14677.28
615.493	14759.2
615.688	14576.93
615.884	14834.97
616.079	14427.43
616.274	14740.77
616.47	14740.77
616.665	14546.21
616.86	14320.93
617.055	14468.39
617.25	14558.5
617.445	14685.47
617.641	14132.52
617.836	14507.3
618.031	14296.36
618.226	14427.43
618.421	14300.45
618.616	14249.25
618.811	14243.11
619.006	14187.82
619.201	14069.03
619.396	13995.31
619.591	13815.09
619.786	13884.72
619.981	13765.93
620.176	13858.09
620.371	13569.33
620.566	13626.67
620.761	13813.04
620.956	13796.65
621.151	13389.11
621.346	13722.93
621.541	13479.22
621.735	13534.51
621.93	13026.62
622.125	13380.92
622.32	13262.13
622.515	13253.94
622.709	12985.66
622.904	13104.44
623.099	12830.01
623.294	13018.43
623.488	12832.06
623.683	12662.08
623.878	12727.61
624.072	12692.8
624.267	12592.45
624.462	12533.06
624.656	12420.42
624.851	12277.06
625.046	12342.6
625.24	12322.12
625.435	12109.13
625.629	12307.78
625.824	12256.58
626.018	12100.94
626.213	11709.77
626.407	12092.74
626.602	11521.36
626.796	12006.73
626.991	11672.91
627.185	11627.85
627.38	11373.91
627.574	11736.4
627.768	11234.64
627.963	11431.25
628.157	11230.55
628.352	11296.08
628.546	11242.84
628.74	11033.94
628.935	10853.72
629.129	11300.18
629.323	10931.55
629.517	10812.76
629.712	10780
629.906	10712.41
630.1	10700.12
630.294	10904.92
630.489	10382.69
630.683	10728.8
630.877	10485.09
631.071	10345.83
631.265	10564.96
631.459	10274.15
631.653	10313.06
631.848	10167.65
632.042	10198.37
632.236	10261.86
632.43	10102.12
632.624	10196.32
632.818	10024.3
633.012	9919.85
633.206	9848.17
633.4	10026.34
633.594	9813.35
633.788	9799.02
633.982	9962.86
634.176	9569.65
634.369	9772.39
634.563	9635.18
634.757	9479.54
634.951	9477.49
635.145	9538.93
635.339	9418.1
635.533	9336.18
635.726	9264.5
635.92	9235.83
636.114	9385.33
636.308	9115
636.501	9151.86
636.695	8953.21
636.889	8992.12
637.083	9000.31
637.276	8940.92
637.47	8783.23
637.664	8887.67
637.857	8811.9
638.051	8715.64
638.244	8568.19
638.438	8500.61
638.632	8695.16
638.825	8500.61
639.019	8527.23
639.212	8410.5
639.406	8512.89
639.599	8301.95
639.793	8471.93
639.986	8281.47
640.18	8228.23
640.373	8299.91
640.567	8002.95
640.76	8213.89
640.954	7990.66
641.147	8201.6
641.34	8240.51
641.534	8170.88
641.727	8031.62
641.92	7808.39
642.114	8009.09
642.307	7759.24
642.5	7853.45
642.694	7939.46
642.887	7718.28
643.08	7814.54
643.273	7718.28
643.467	7615.88
643.66	7650.7
643.853	7531.92
644.046	7515.53
644.239	7548.3
644.432	7476.62
644.626	7122.32
644.819	7398.8
645.012	7224.72
645.205	7302.54
645.398	7122.32
645.591	7277.97
645.784	7110.04
645.977	7030.16
646.17	7081.36
646.363	7050.64
646.556	7058.84
646.749	6917.53
646.942	6864.28
647.135	6833.56
647.328	6851.99
647.521	6808.98
647.714	6849.94
647.907	6892.95
648.099	6657.43
648.292	6671.77
648.485	6626.71
648.678	6616.48
648.871	6569.37
649.064	6700.44
649.256	6522.27
649.449	6507.93
649.642	6479.26
649.835	6253.98
650.027	6462.88
650.22	6337.95
650.413	6464.93
650.605	6391.2
650.798	6387.1
650.991	6335.9
651.183	6208.93
651.376	6215.07
651.568	6264.22
651.761	6147.49
651.954	5944.74
652.146	5924.26
652.339	5981.6
652.531	5924.26
652.724	5989.8
652.916	5854.63
653.109	5965.22
653.301	5905.83
653.494	5832.1
653.686	5729.7
653.879	6010.28
654.071	5760.42
654.263	5768.62
654.456	5621.16
654.648	5918.12
654.84	5553.58
655.033	5506.48
655.225	5586.35
655.417	5539.24
655.61	5498.28
655.802	5475.76
655.994	5424.56
656.186	5453.23
656.379	5348.78
656.571	5463.47
656.763	5361.07
656.955	5291.44
657.148	5508.52
657.34	5447.08
657.532	5154.23
657.724	5111.22
657.916	5334.45
658.108	5264.82
658.3	5170.61
658.492	5148.08
658.684	5019.06
658.876	5062.07
659.068	4906.42
659.26	4963.76
659.452	5082.55
659.644	4965.81
659.836	4840.89
660.028	4953.52
660.22	4906.42
660.412	4928.95
660.604	4892.09
660.796	4908.47
660.988	4836.79
661.18	4742.58
661.372	4502.97
661.563	4806.07
661.755	4767.16
661.947	4746.68
662.139	4582.84
662.331	4640.19
662.522	4558.27
662.714	4609.47
662.906	4595.13
663.097	4625.85
663.289	4611.51
663.481	4447.68
663.673	4386.24
663.864	4570.55
664.056	4513.21
664.247	4464.06
664.439	4353.47
664.631	4451.77
664.822	4324.8
665.014	4378.05
665.205	4373.95
665.397	4310.46
665.588	4246.98
665.78	4251.07
665.971	4277.69
666.163	4279.74
666.354	4179.39
666.546	4175.3
666.737	4208.06
666.929	4107.71
667.12	4128.19
667.311	4107.71
667.503	4201.92
667.694	4175.3
667.885	4087.23
668.077	4023.75
668.268	4046.27
668.459	3956.16
668.651	4060.61
668.842	3960.26
669.033	3978.69
669.224	3845.57
669.416	3904.96
669.607	3990.98
669.798	3919.3
669.989	4009.41
670.18	3939.78
670.371	3874.24
670.563	3829.19
670.754	3704.26
670.945	3671.5
671.136	3814.85
671.327	3714.5
671.518	3833.29
671.709	3796.42
671.9	3864.01
672.091	3685.83
672.282	3644.87
672.473	3671.5
672.664	3585.48
672.855	3661.26
673.046	3665.35
673.237	3771.85
673.428	3648.97
673.619	3798.47
673.809	3560.91
674	3651.02
674.191	3495.37
674.382	3546.57
674.573	3536.33
674.764	3546.57
674.954	3538.38
675.145	3565
675.336	3614.15
675.527	3679.69
675.717	3612.1
675.908	3495.37
676.099	3345.87
676.289	3657.16
676.48	3425.74
676.671	3360.2
676.861	3435.98
677.052	3362.25
677.243	3454.41
677.433	3487.18
677.624	3333.58
677.814	3399.12
678.005	3360.2
678.195	3450.32
678.386	3380.68
678.576	3452.36
678.767	3419.6
678.957	3225.04
679.148	3352.01
679.338	3304.91
679.529	3327.44
679.719	3317.2
679.909	3356.11
680.1	3364.3
680.29	3323.34
680.481	3323.34
680.671	3372.49
680.861	3333.58
681.052	3266
681.242	3360.2
681.432	3280.33
681.622	3327.44
681.813	3292.62
682.003	3202.51
682.193	3196.37
682.383	3233.23
682.573	3245.52
682.764	3235.28
682.954	3210.7
683.144	3274.19
683.334	3167.7
683.524	3167.7
683.714	3171.79
683.904	3222.99
684.094	3186.13
684.284	3184.08
684.474	3325.39
684.664	3186.13
684.854	3126.74
685.044	3067.35
685.234	3141.07
685.424	3100.11
685.614	3126.74
685.804	3028.43
685.994	3169.74
686.184	3196.37
686.374	3179.98
686.564	3155.41
686.753	3067.35
686.943	2971.09
687.133	3077.59
687.323	3083.73
687.513	3139.02
687.702	2962.9
687.892	2991.57
688.082	2960.85
688.272	2926.04
688.461	2985.43
688.651	2915.8
688.841	2917.84
689.03	2946.52
689.22	2889.17
689.41	2870.74
689.599	2799.06
689.789	2928.08
689.979	2866.64
690.168	2792.92
690.358	2823.64
690.547	2821.59
690.737	2842.07
690.926	2840.02
691.116	2784.73
691.305	2835.92
691.495	2639.32
691.684	2751.96
691.874	2661.85
692.063	2708.95
692.252	2680.28
692.442	2692.57
692.631	2667.99
692.82	2629.08
693.01	2713.05
693.199	2586.07
693.388	2555.35
693.578	2647.51
693.767	2616.79
693.956	2571.74
694.146	2485.72
694.335	2612.7
694.524	2399.71
694.713	2614.74
694.902	2604.5
695.092	2598.36
695.281	2436.57
695.47	2397.66
695.659	2463.19
695.848	2403.8
696.037	2500.06
696.226	2502.11
696.415	2493.91
696.604	2555.35
696.793	2407.9
696.982	2409.95
697.171	2489.82
697.36	2299.36
697.549	2330.08
697.738	2323.93
697.927	2362.84
698.116	2377.18
698.305	2285.02
698.494	2268.64
698.683	2287.07
698.872	2342.36
699.061	2364.89
699.25	2260.45
699.438	2328.03
699.627	2356.7
699.816	2289.12
700.005	2291.17
700.193	2317.79
700.382	2395.61
700.571	2301.4
700.76	2407.9
700.948	2379.23
701.137	2409.95
701.326	2309.6
701.514	2416.09
701.703	2282.97
701.892	2274.78
702.08	2383.32
702.269	2276.83
702.457	2330.08
702.646	2463.19
702.834	2223.58
703.023	2352.6
703.212	2387.42
703.4	2377.18
703.589	2272.73
703.777	2301.4
703.965	2199.01
704.154	2188.77
704.342	2289.12
704.531	2348.51
704.719	2250.21
704.907	2309.6
705.096	2403.8
705.284	2338.27
705.472	2268.64
705.661	2293.21
705.849	2354.65
706.037	2309.6
706.226	2364.89
706.414	2325.98
706.602	2209.25
706.79	2295.26
706.979	2237.92
707.167	2252.25
707.355	2237.92
707.543	2127.33
707.731	2203.1
707.919	2291.17
708.107	2287.07
708.296	2299.36
708.484	2205.15
708.672	2328.03
708.86	2305.5
709.048	2203.1
709.236	2317.79
709.424	2272.73
709.612	2285.02
709.8	2278.88
709.988	2248.16
710.176	2313.69
710.364	2385.37
710.551	2352.6
710.739	2297.31
710.927	2305.5
711.115	2340.32
711.303	2203.1
711.491	2321.88
711.679	2289.12
711.866	2188.77
712.054	2446.81
712.242	2268.64
712.43	2303.45
712.617	2158.05
712.805	2319.84
712.993	2227.68
713.181	2276.83
713.368	2397.66
713.556	2297.31
713.744	2276.83
713.931	2399.71
714.119	2330.08
714.306	2338.27
714.494	2151.9
714.682	2254.3
714.869	2354.65
715.057	2315.74
715.244	2274.78
715.432	2248.16
715.619	2332.12
715.807	2377.18
715.994	2401.76
716.182	2248.16
716.369	2475.48
716.556	2414.04
716.744	2246.11
716.931	2172.38
717.119	2379.23
717.306	2352.6
717.493	2393.56
717.681	2348.51
717.868	2305.5
718.055	2379.23
718.242	2393.56
718.43	2285.02
718.617	2477.53
718.804	2381.28
718.991	2299.36
719.179	2385.37
719.366	2352.6
719.553	2278.88
719.74	2348.51
719.927	2307.55
720.114	2375.13
720.301	2381.28
720.488	2330.08
720.676	2323.93
720.863	2375.13
721.05	2299.36
721.237	2491.87
721.424	2438.62
721.611	2368.99
721.798	2334.17
721.985	2254.3
722.172	2422.24
722.358	2350.56
722.545	2481.63
722.732	2321.88
722.919	2287.07
723.106	2360.8
723.293	2381.28
723.48	2491.87
723.667	2219.49
723.853	2385.37
724.04	2493.91
724.227	2379.23
724.414	2416.09
724.6	2471.39
724.787	2317.79
724.974	2442.71
725.161	2459.1
725.347	2383.32
725.534	2350.56
725.72	2334.17
725.907	2446.81
726.094	2538.97
726.28	2405.85
726.467	2358.75
726.653	2430.43
726.84	2436.57
727.027	2579.93
727.213	2338.27
727.4	2409.95
727.586	2457.05
727.773	2393.56
727.959	2420.19
728.145	2409.95
728.332	2371.04
728.518	2348.51
728.705	2463.19
728.891	2407.9
729.077	2395.61
729.264	2541.02
729.45	2465.24
729.636	2420.19
729.823	2485.72
730.009	2389.47
730.195	2475.48
730.382	2414.04
730.568	2389.47
730.754	2426.33
730.94	2395.61
731.126	2356.7
731.313	2432.47
731.499	2436.57
731.685	2418.14
731.871	2313.69
732.057	2436.57
732.243	2416.09
732.429	2471.39
732.615	2459.1
732.801	2530.78
732.987	2498.01
733.173	2559.45
733.359	2436.57
733.545	2483.67
733.731	2512.35
733.917	2577.88
734.103	2387.42
734.289	2498.01
734.475	2504.15
734.661	2459.1
734.847	2450.91
735.033	2416.09
735.219	2426.33
735.404	2393.56
735.59	2399.71
735.776	2371.04
735.962	2405.85
736.148	2412
736.333	2291.17
736.519	2340.32
736.705	2393.56
736.89	2385.37
737.076	2295.26
737.262	2348.51
737.447	2354.65
737.633	2342.36
737.819	2393.56
738.004	2289.12
738.19	2332.12
738.375	2403.8
738.561	2401.76
738.747	2371.04
738.932	2350.56
739.118	2377.18
739.303	2342.36
739.489	2305.5
739.674	2366.94
739.859	2295.26
740.045	2334.17
740.23	2381.28
740.416	2237.92
740.601	2319.84
740.786	2239.97
740.972	2358.75
741.157	2231.77
741.342	2235.87
741.528	2268.64
741.713	2305.5
741.898	2254.3
742.084	2237.92
742.269	2233.82
742.454	2209.25
742.639	2225.63
742.824	2225.63
743.01	2315.74
743.195	2188.77
743.38	2184.67
743.565	2082.27
743.75	2153.95
743.935	2184.67
744.12	2309.6
744.305	2102.75
744.49	2076.13
744.675	2170.33
744.86	2203.1
745.045	2178.53
745.23	2147.81
745.415	2092.51
745.6	2139.62
745.785	2143.71
745.97	2069.98
746.155	2115.04
746.34	2035.17
746.525	1994.21
746.71	2207.2
746.895	1971.68
747.079	1998.31
747.264	1943.01
747.449	1883.62
747.634	1947.11
747.819	1945.06
748.003	1965.54
748.188	1889.76
748.373	1975.78
748.557	1959.39
748.742	1971.68
748.927	1852.9
749.111	1857
749.296	1813.99
749.481	1996.26
749.665	1912.29
749.85	1818.08
750.034	1895.91
750.219	1809.89
750.404	1754.6
750.588	1844.71
750.773	1732.07
750.957	1834.47
751.141	1773.03
751.326	1748.45
751.51	1646.05
751.695	1750.5
751.879	1687.01
752.064	1832.42
752.248	1742.31
752.432	1736.17
752.617	1674.73
752.801	1674.73
752.985	1713.64
753.17	1541.61
753.354	1582.57
753.538	1617.38
753.722	1592.81
753.907	1676.77
754.091	1480.17
754.275	1500.65
754.459	1529.32
754.643	1500.65
754.828	1539.56
755.012	1445.35
755.196	1412.59
755.38	1572.33
755.564	1465.83
755.748	1539.56
755.932	1451.5
756.116	1457.64
756.3	1531.37
756.484	1408.49
756.668	1437.16
756.852	1388.01
757.036	1375.72
757.22	1318.38
757.404	1326.57
757.588	1396.2
757.772	1318.38
757.956	1306.09
758.14	1256.94
758.323	1242.61
758.507	1267.18
758.691	1367.53
758.875	1220.08
759.059	1371.63
759.242	1250.8
759.426	1367.53
759.61	1252.84
759.794	1345
759.977	1232.37
760.161	1269.23
760.345	1394.15
760.528	1236.46
760.712	1181.17
760.895	1203.69
761.079	1273.32
761.263	1195.5
761.446	1164.78
761.63	1166.83
761.813	1213.93
761.997	1236.46
762.18	1175.02
762.364	1152.49
762.547	1164.78
762.731	1076.72
762.914	1109.49
763.098	1144.3
763.281	1132.01
763.464	1187.31
763.648	1119.73
763.831	1011.18
764.015	1019.38
764.198	1084.91
764.381	1097.2
764.564	1107.44
764.748	1060.34
764.931	1080.82
765.114	1017.33
765.297	1031.66
765.481	1000.94
765.664	988.66
765.847	992.75
766.03	1107.44
766.213	1064.43
766.397	1111.54
766.58	1011.18
766.763	1091.06
766.946	1070.58
767.129	988.66
767.312	974.32
767.495	988.66
767.678	955.89
767.861	996.85
768.044	976.37
768.227	972.27
768.41	959.99
768.593	962.03
768.776	976.37
768.959	955.89
769.142	937.46
769.324	929.27
769.507	929.27
769.69	927.22
769.873	937.46
770.056	931.31
770.239	945.65
770.421	929.27
770.604	896.5
770.787	896.5
770.97	855.54
771.152	867.83
771.335	880.11
771.518	804.34
771.7	861.68
771.883	896.5
772.066	912.88
772.248	884.21
772.431	810.48
772.613	857.59
772.796	818.68
772.978	871.92
773.161	923.12
773.343	884.21
773.526	753.14
773.708	712.18
773.891	816.63
774.073	818.68
774.256	802.29
774.438	794.1
774.621	785.91
774.803	796.15
774.985	783.86
775.168	747
775.35	685.56
775.532	730.61
775.715	751.09
775.897	773.62
776.079	697.85
776.261	726.52
776.444	667.13
776.626	794.1
776.808	726.52
776.99	595.45
777.173	712.18
777.355	675.32
777.537	646.65
777.719	683.51
777.901	622.07
778.083	714.23
778.265	613.88
778.447	716.28
778.629	699.89
778.811	654.84
778.993	708.09
779.175	677.37
779.357	665.08
779.539	667.13
779.721	687.61
779.903	751.09
780.085	587.26
780.267	665.08
780.449	558.58
780.631	617.97
780.812	607.73
780.994	558.58
781.176	548.34
781.358	534.01
781.54	611.83
781.721	589.3
781.903	568.82
782.085	593.4
782.267	519.67
782.448	466.42
782.63	538.1
782.812	583.16
782.993	460.28
783.175	568.82
783.357	579.06
783.538	472.57
783.72	556.54
783.901	488.95
784.083	519.67
784.264	445.95
784.446	495.1
784.627	398.84
784.809	470.52
784.99	386.55
785.172	431.61
785.353	509.43
785.535	419.32
785.716	566.78
785.897	447.99
786.079	495.1
786.26	488.95
786.441	480.76
786.623	370.17
786.804	480.76
786.985	470.52
787.167	417.27
787.348	447.99
787.529	468.47
787.71	456.19
787.891	464.38
788.073	464.38
788.254	411.13
788.435	427.51
788.616	388.6
788.797	361.98
788.978	388.6
789.159	411.13
789.34	361.98
789.522	390.65
789.703	470.52
789.884	392.7
790.065	378.36
790.246	443.9
790.427	398.84
790.607	361.98
790.788	300.54
790.969	390.65
791.15	290.3
791.331	347.64
791.512	404.99
791.693	364.03
791.874	300.54
792.054	396.79
792.235	333.31
792.416	284.16
792.597	333.31
792.778	394.75
792.958	357.88
793.139	298.49
793.32	298.49
793.5	345.59
793.681	290.3
793.862	321.02
794.042	247.29
794.223	278.01
794.404	325.12
794.584	243.2
794.765	263.68
794.945	302.59
795.126	372.22
795.306	392.7
795.487	353.79
795.667	273.92
795.848	224.76
796.028	261.63
796.209	372.22
796.389	259.58
796.57	275.96
796.75	278.01
796.93	208.38
797.111	280.06
797.291	288.25
797.471	331.26
797.652	198.14
797.832	300.54
798.012	247.29
798.192	216.57
798.373	259.58
798.553	269.82
798.733	273.92
798.913	257.53
799.093	235
799.274	241.15
799.454	196.09
799.634	275.96
799.814	282.11
799.994	181.76
800.174	278.01
800.354	308.73
800.534	126.46
800.714	257.53
800.894	204.28
801.074	189.95
801.254	306.68
801.434	220.67
801.614	189.95
801.794	263.68
801.974	642.55
802.154	275.96
802.334	210.43
802.514	230.91
802.693	261.63
802.873	290.3
803.053	265.72
803.233	181.76
803.413	241.15
803.592	228.86
803.772	212.48
803.952	218.62
804.131	196.09
804.311	179.71
804.491	263.68
804.67	161.28
804.85	138.75
805.03	200.19
805.209	251.39
805.389	265.72
805.568	226.81
805.748	192
805.928	189.95
806.107	216.57
806.287	122.37
806.466	232.96
806.646	224.76
806.825	171.52
807.004	284.16
807.184	192
807.363	151.04
807.543	138.75
807.722	228.86
807.901	171.52
808.081	192
808.26	177.66
808.439	148.99
808.619	210.43
808.798	208.38
808.977	181.76
809.156	159.23
809.336	159.23
809.515	161.28
809.694	173.57
809.873	118.27
810.052	237.05
810.231	237.05
810.411	126.46
810.59	226.81
810.769	216.57
810.948	224.76
811.127	140.8
811.306	218.62
811.485	91.65
811.664	189.95
811.843	138.75
812.022	116.22
812.201	130.56
812.38	120.32
812.559	148.99
812.737	169.47
812.916	126.46
813.095	157.18
813.274	103.93
813.453	91.65
813.632	179.71
813.811	161.28
813.989	130.56
814.168	187.9
814.347	116.22
814.526	116.22
814.704	179.71
814.883	138.75
815.062	179.71
815.24	130.56
815.419	120.32
815.598	165.37
815.776	91.65
815.955	194.05
816.133	112.13
816.312	235
816.49	134.65
816.669	118.27
816.847	171.52
817.026	198.14
817.204	142.85
817.383	91.65
817.561	114.17
817.74	181.76
817.918	124.41
818.097	134.65
818.275	62.98
818.453	159.23
818.632	167.42
818.81	144.89
818.988	185.85
819.167	69.12
819.345	73.21
819.523	89.6
819.701	118.27
819.879	151.04
820.058	52.74
820.236	138.75
820.414	116.22
820.592	60.93
820.77	159.23
820.948	163.33
821.127	120.32
821.305	134.65
821.483	81.41
821.661	167.42
821.839	67.07
822.017	79.36
822.195	95.74
822.373	89.6
822.551	214.52
822.729	103.93
822.907	108.03
823.085	105.98
823.262	9.73
823.44	159.23
823.618	114.17
823.796	163.33
823.974	58.88
824.152	65.02
824.329	97.79
824.507	126.46
824.685	132.61
824.863	142.85
825.04	126.46
825.218	60.93
825.396	97.79
825.574	85.5
825.751	126.46
825.929	42.5
826.107	69.12
826.284	116.22
826.462	97.79
826.639	175.61
826.817	46.59
826.994	134.65
827.172	48.64
827.349	120.32
827.527	116.22
827.704	103.93
827.882	101.89
828.059	140.8
828.237	134.65
828.414	95.74
828.591	75.26
828.769	60.93
828.946	75.26
829.124	167.42
829.301	114.17
829.478	192
829.655	79.36
829.833	73.21
830.01	44.54
830.187	69.12
830.364	128.51
830.542	73.21
830.719	87.55
830.896	93.69
831.073	62.98
831.25	73.21
831.427	67.07
831.604	56.83
831.782	17.92
831.959	99.84
832.136	71.17
832.313	97.79
832.49	134.65
832.667	73.21
832.844	108.03
833.021	54.78
833.198	79.36
833.374	71.17
833.551	42.5
833.728	69.12
833.905	142.85
834.082	24.06
834.259	46.59
834.436	60.93
834.612	175.61
834.789	103.93
834.966	116.22
835.143	5.63
835.319	-6.66
835.496	40.45
835.673	3.58
835.85	62.98
836.026	56.83
836.203	97.79
836.38	-2.56
836.556	60.93
836.733	-0.51
836.909	87.55
837.086	24.06
837.262	52.74
837.439	77.31
837.616	60.93
837.792	165.37
837.968	67.07
838.145	5.63
838.321	114.17
838.498	116.22
838.674	32.26
838.851	65.02
839.027	54.78
839.203	73.21
839.38	105.98
839.556	126.46
839.732	112.13
839.909	-4.61
840.085	30.21
840.261	30.21
840.437	67.07
840.614	124.41
840.79	75.26
840.966	93.69
841.142	22.02
841.318	46.59
841.494	83.45
841.671	81.41
841.847	73.21
842.023	26.11
842.199	48.64
842.375	91.65
842.551	83.45
842.727	69.12
842.903	5.63
843.079	-14.85
843.255	108.03
843.431	15.87
843.607	110.08
843.783	-35.33
843.959	36.35
844.134	56.83
844.31	56.83
844.486	58.88
844.662	58.88
844.838	54.78
845.013	38.4
845.189	38.4
845.365	99.84
845.541	26.11
845.716	73.21
845.892	93.69
846.068	40.45
846.244	-49.66
846.419	30.21
846.595	54.78
846.77	36.35
846.946	62.98
847.122	97.79
847.297	22.02
847.473	93.69
847.648	67.07
847.824	71.17
847.999	28.16
848.175	-33.28
848.35	54.78
848.526	93.69
848.701	-16.9
848.876	34.3
849.052	26.11
849.227	67.07
849.403	24.06
849.578	48.64
849.753	56.83
849.929	-10.75
850.104	110.08
850.279	67.07
850.454	-0.51
850.63	17.92
850.805	50.69
850.98	89.6
851.155	54.78
851.33	85.5
851.505	-4.61
851.681	19.97
851.856	24.06
852.031	54.78
852.206	-10.75
852.381	24.06
852.556	73.21
852.731	28.16
852.906	52.74
853.081	67.07
853.256	26.11
853.431	58.88
853.606	-29.18
853.781	40.45
853.956	32.26
854.131	46.59
854.305	17.92
854.48	26.11
854.655	26.11
854.83	79.36
855.005	-45.57
855.18	42.5
855.354	-8.7
855.529	56.83
855.704	-25.09
855.879	26.11
856.053	5.63
856.228	42.5
856.403	-43.52
856.577	-33.28
856.752	-20.99
856.926	81.41
857.101	87.55
857.276	60.93
857.45	42.5
857.625	67.07
857.799	48.64
857.974	36.35
858.148	38.4
858.323	108.03
858.497	36.35
858.672	77.31
858.846	-8.7
859.02	-12.8
859.195	9.73
859.369	40.45
859.543	-41.47
859.718	77.31
859.892	62.98
860.066	34.3
860.241	-16.9
860.415	79.36
860.589	17.92
860.763	124.41
860.938	-37.38
861.112	1.54
861.286	-6.66
861.46	-64
861.634	-0.51
861.808	42.5
861.982	-0.51
862.157	-14.85
862.331	19.97
862.505	24.06
862.679	11.78
862.853	-16.9
863.027	56.83
863.201	85.5
863.375	-0.51
863.549	50.69
863.722	36.35
863.896	9.73
864.07	91.65
864.244	-12.8
864.418	30.21
864.592	38.4
864.766	19.97
864.939	-39.42
865.113	24.06
865.287	1.54
865.461	58.88
865.634	30.21
865.808	50.69
865.982	48.64
866.156	-8.7
866.329	60.93
866.503	32.26
866.676	87.55
866.85	-16.9
867.024	-43.52
867.197	30.21
867.371	44.54
867.544	-4.61
867.718	9.73
867.891	15.87
868.065	56.83
868.238	22.02
868.412	65.02
868.585	-53.76
868.759	15.87
868.932	46.59
869.105	38.4
869.279	-0.51
869.452	-10.75
869.625	15.87
869.799	48.64
869.972	24.06
870.145	105.98
870.319	32.26
870.492	-25.09
870.665	3.58
870.838	56.83
871.011	3.58
871.185	34.3
871.358	17.92
871.531	38.4
871.704	5.63
871.877	-10.75
872.05	-6.66
872.223	26.11
872.396	-33.28
872.569	50.69
872.742	22.02
872.915	-10.75
873.088	-2.56
873.261	1.54
873.434	-23.04
873.607	46.59
873.78	36.35
873.953	-6.66
874.126	5.63
874.299	-29.18
874.471	-27.14
874.644	11.78
874.817	-20.99
874.99	48.64
875.163	26.11
875.335	32.26
875.508	52.74
875.681	-94.72
875.853	-12.8
876.026	-12.8
876.199	60.93
876.371	-49.66
876.544	83.45
876.717	56.83
876.889	58.88
877.062	-8.7
877.234	-8.7
877.407	-20.99
877.579	-29.18
877.752	17.92
877.924	24.06
878.097	93.69
878.269	32.26
878.442	48.64
878.614	56.83
878.786	81.41
878.959	-33.28
879.131	17.92
879.303	11.78
879.476	-2.56
879.648	7.68
879.82	-31.23
879.993	-33.28
880.165	-0.51
880.337	1.54
880.509	-25.09
880.681	-25.09
880.854	-2.56
881.026	17.92
881.198	52.74
881.37	26.11
881.542	-18.94
881.714	7.68
881.886	-51.71
882.058	13.82
882.23	-6.66
882.402	-39.42
882.574	34.3
882.746	-41.47
882.918	71.17
883.09	24.06
883.262	-14.85
883.434	-27.14
883.606	-16.9
883.778	-2.56
883.95	19.97
884.122	-20.99
884.293	93.69
884.465	22.02
884.637	36.35
884.809	-47.62
884.98	58.88
885.152	-37.38
885.324	9.73
885.496	-27.14
885.667	-10.75
885.839	11.78
886.011	36.35
886.182	-6.66
886.354	46.59
886.525	-47.62
886.697	-4.61
886.869	-8.7
887.04	28.16
887.212	24.06
887.383	24.06
887.555	28.16
887.726	7.68
887.897	-16.9
888.069	56.83
888.24	50.69
888.412	1.54
888.583	30.21
888.754	-2.56
888.926	-64
889.097	24.06
889.268	-23.04
889.44	-53.76
889.611	22.02
889.782	-8.7
889.953	11.78
890.125	-4.61
890.296	-25.09
890.467	114.17
890.638	3.58
890.809	52.74
890.98	-29.18
891.151	52.74
891.323	1.54
891.494	-78.33
891.665	9.73
891.836	34.3
892.007	-14.85
892.178	11.78
892.349	9.73
892.52	15.87
892.691	1.54
892.862	81.41
893.032	13.82
893.203	-51.71
893.374	17.92
893.545	-8.7
893.716	-10.75
893.887	-31.23
894.057	36.35
894.228	1.54
894.399	-29.18
894.57	75.26
894.74	30.21
894.911	75.26
895.082	30.21
895.253	-70.14
895.423	-2.56
895.594	-0.51
895.764	-33.28
895.935	11.78
896.106	13.82
896.276	34.3
896.447	-4.61
896.617	30.21
896.788	9.73
896.958	-12.8
897.129	3.58
897.299	28.16
897.47	22.02
897.64	-41.47
897.81	-98.81
897.981	13.82
898.151	5.63
898.322	-8.7
898.492	-16.9
898.662	-6.66
898.832	-23.04
899.003	-18.94
899.173	9.73
899.343	22.02
899.513	79.36
