Data from USB4F104151__257__10-39-52-348.txt Node

Date: Wed Mar 12 10:39:52 EDT 2025
User: louis
Spectrometer: USB4F10415
Trigger mode: 4
Integration Time (sec): 3.000000E-2
Scans to average: 1
Electric dark correction enabled: true
Nonlinearity correction enabled: false
Boxcar width: 0
XAxis mode: Wavelengths
Number of Pixels in Spectrum: 3648
>>>>>Begin Spectral Data<<<<<
178.204	-76.8
178.424	-76.8
178.644	-76.8
178.864	-152.57
179.084	-125.95
179.304	-54.27
179.524	-1.02
179.744	44.03
179.964	31.74
180.184	46.08
180.404	76.8
180.624	-46.08
180.844	-48.13
181.064	-37.89
181.283	27.65
181.503	-84.99
181.723	46.08
181.943	-9.22
182.163	13.31
182.383	-62.46
182.602	78.85
182.822	123.9
183.042	17.41
183.262	-1.02
183.482	64.51
183.701	-27.65
183.921	-13.31
184.141	52.22
184.361	13.31
184.58	80.89
184.8	9.22
185.02	25.6
185.239	134.14
185.459	5.12
185.679	78.85
185.898	58.37
186.118	109.57
186.338	3.07
186.557	70.65
186.777	17.41
186.997	17.41
187.216	80.89
187.436	23.55
187.655	107.52
187.875	68.61
188.095	-17.41
188.314	128
188.534	9.22
188.753	48.13
188.973	89.09
189.192	84.99
189.412	76.8
189.631	27.65
189.851	-5.12
190.07	44.03
190.29	1.02
190.509	-41.98
190.729	39.94
190.948	134.14
191.168	224.25
191.387	39.94
191.607	68.61
191.826	68.61
192.045	-1.02
192.265	23.55
192.484	-17.41
192.704	82.94
192.923	-25.6
193.142	109.57
193.362	31.74
193.581	103.42
193.8	41.98
194.02	15.36
194.239	-13.31
194.458	35.84
194.678	-1.02
194.897	76.8
195.116	9.22
195.335	25.6
195.555	33.79
195.774	46.08
195.993	74.75
196.212	-9.22
196.432	23.55
196.651	68.61
196.87	27.65
197.089	93.18
197.308	37.89
197.528	31.74
197.747	66.56
197.966	41.98
198.185	95.23
198.404	58.37
198.623	56.32
198.842	33.79
199.062	15.36
199.281	74.75
199.5	13.31
199.719	37.89
199.938	91.13
200.157	107.52
200.376	76.8
200.595	37.89
200.814	19.46
201.033	93.18
201.252	62.46
201.471	-21.5
201.69	111.61
201.909	27.65
202.128	54.27
202.347	29.7
202.566	15.36
202.785	66.56
203.004	-9.22
203.223	105.47
203.442	84.99
203.661	13.31
203.879	-11.26
204.098	31.74
204.317	3.07
204.536	125.95
204.755	56.32
204.974	-7.17
205.193	76.8
205.411	99.33
205.63	80.89
205.849	89.09
206.068	68.61
206.287	27.65
206.505	58.37
206.724	7.17
206.943	33.79
207.162	11.26
207.381	15.36
207.599	-13.31
207.818	50.18
208.037	50.18
208.255	37.89
208.474	91.13
208.693	11.26
208.911	29.7
209.13	48.13
209.349	19.46
209.567	-29.7
209.786	95.23
210.005	-27.65
210.223	62.46
210.442	19.46
210.661	50.18
210.879	84.99
211.098	48.13
211.316	93.18
211.535	44.03
211.753	-21.5
211.972	60.42
212.191	50.18
212.409	25.6
212.628	93.18
212.846	21.5
213.065	41.98
213.283	82.94
213.502	72.7
213.72	-3.07
213.938	1.02
214.157	5.12
214.375	76.8
214.594	54.27
214.812	41.98
215.031	-33.79
215.249	39.94
215.467	1.02
215.686	117.76
215.904	11.26
216.122	64.51
216.341	68.61
216.559	35.84
216.778	35.84
216.996	1.02
217.214	19.46
217.432	27.65
217.651	64.51
217.869	74.75
218.087	-35.84
218.306	64.51
218.524	80.89
218.742	-39.94
218.96	128
219.179	68.61
219.397	-17.41
219.615	56.32
219.833	27.65
220.051	48.13
220.27	29.7
220.488	31.74
220.706	54.27
220.924	-9.22
221.142	56.32
221.36	37.89
221.578	-31.74
221.796	44.03
222.015	48.13
222.233	44.03
222.451	113.66
222.669	15.36
222.887	97.28
223.105	23.55
223.323	-17.41
223.541	37.89
223.759	35.84
223.977	72.7
224.195	33.79
224.413	117.76
224.631	80.89
224.849	25.6
225.067	107.52
225.285	-9.22
225.503	107.52
225.721	-58.37
225.939	93.18
226.157	76.8
226.375	128
226.592	62.46
226.81	66.56
227.028	78.85
227.246	62.46
227.464	-1.02
227.682	41.98
227.9	52.22
228.117	50.18
228.335	19.46
228.553	91.13
228.771	91.13
228.989	52.22
229.206	84.99
229.424	50.18
229.642	31.74
229.86	41.98
230.077	105.47
230.295	23.55
230.513	33.79
230.731	54.27
230.948	64.51
231.166	80.89
231.384	1.02
231.601	44.03
231.819	80.89
232.037	11.26
232.254	37.89
232.472	21.5
232.689	-9.22
232.907	64.51
233.125	56.32
233.342	25.6
233.56	3.07
233.777	27.65
233.995	35.84
234.213	48.13
234.43	93.18
234.648	52.22
234.865	31.74
235.083	68.61
235.3	9.22
235.518	78.85
235.735	21.5
235.953	44.03
236.17	17.41
236.388	-5.12
236.605	23.55
236.822	109.57
237.04	56.32
237.257	74.75
237.475	91.13
237.692	76.8
237.909	44.03
238.127	-25.6
238.344	48.13
238.562	66.56
238.779	-7.17
238.996	17.41
239.214	60.42
239.431	41.98
239.648	66.56
239.865	19.46
240.083	17.41
240.3	70.65
240.517	-13.31
240.735	52.22
240.952	48.13
241.169	99.33
241.386	56.32
241.603	66.56
241.821	58.37
242.038	25.6
242.255	25.6
242.472	117.76
242.689	56.32
242.907	68.61
243.124	41.98
243.341	62.46
243.558	23.55
243.775	41.98
243.992	44.03
244.209	115.71
244.426	64.51
244.643	1.02
244.86	58.37
245.078	37.89
245.295	89.09
245.512	39.94
245.729	-19.46
245.946	35.84
246.163	25.6
246.38	87.04
246.597	-1.02
246.814	33.79
247.031	58.37
247.248	56.32
247.464	93.18
247.681	95.23
247.898	15.36
248.115	50.18
248.332	52.22
248.549	138.24
248.766	66.56
248.983	35.84
249.2	-1.02
249.417	-7.17
249.633	-3.07
249.85	76.8
250.067	62.46
250.284	72.7
250.501	60.42
250.717	54.27
250.934	76.8
251.151	25.6
251.368	76.8
251.585	62.46
251.801	25.6
252.018	23.55
252.235	115.71
252.451	60.42
252.668	15.36
252.885	101.37
253.102	52.22
253.318	3.07
253.535	72.7
253.752	60.42
253.968	17.41
254.185	11.26
254.401	80.89
254.618	62.46
254.835	-39.94
255.051	91.13
255.268	64.51
255.484	95.23
255.701	41.98
255.917	78.85
256.134	1.02
256.351	64.51
256.567	35.84
256.784	60.42
257	17.41
257.217	52.22
257.433	62.46
257.65	25.6
257.866	37.89
258.082	21.5
258.299	54.27
258.515	27.65
258.732	17.41
258.948	-15.36
259.165	78.85
259.381	60.42
259.597	76.8
259.814	-25.6
260.03	25.6
260.246	-1.02
260.463	64.51
260.679	70.65
260.895	46.08
261.112	111.61
261.328	44.03
261.544	23.55
261.761	107.52
261.977	117.76
262.193	-27.65
262.409	27.65
262.626	56.32
262.842	19.46
263.058	23.55
263.274	123.9
263.49	56.32
263.707	35.84
263.923	113.66
264.139	-1.02
264.355	-1.02
264.571	44.03
264.787	39.94
265.004	39.94
265.22	-15.36
265.436	76.8
265.652	103.42
265.868	80.89
266.084	9.22
266.3	58.37
266.516	-17.41
266.732	80.89
266.948	60.42
267.164	39.94
267.38	76.8
267.596	107.52
267.812	183.29
268.028	-15.36
268.244	46.08
268.46	-25.6
268.676	37.89
268.892	7.17
269.108	58.37
269.324	78.85
269.54	-23.55
269.756	54.27
269.972	52.22
270.188	74.75
270.403	-15.36
270.619	144.38
270.835	68.61
271.051	56.32
271.267	54.27
271.483	89.09
271.698	107.52
271.914	109.57
272.13	29.7
272.346	29.7
272.562	35.84
272.777	93.18
272.993	25.6
273.209	-44.03
273.425	68.61
273.64	80.89
273.856	21.5
274.072	44.03
274.287	-15.36
274.503	60.42
274.719	7.17
274.934	17.41
275.15	33.79
275.366	60.42
275.581	103.42
275.797	60.42
276.012	3.07
276.228	44.03
276.444	87.04
276.659	111.61
276.875	-33.79
277.09	70.65
277.306	52.22
277.521	29.7
277.737	52.22
277.952	33.79
278.168	70.65
278.383	115.71
278.599	39.94
278.814	41.98
279.03	17.41
279.245	119.81
279.461	13.31
279.676	41.98
279.892	91.13
280.107	39.94
280.322	5.12
280.538	27.65
280.753	-3.07
280.969	48.13
281.184	99.33
281.399	87.04
281.615	19.46
281.83	117.76
282.045	-7.17
282.26	64.51
282.476	-29.7
282.691	46.08
282.906	97.28
283.122	-17.41
283.337	5.12
283.552	33.79
283.767	113.66
283.983	125.95
284.198	84.99
284.413	54.27
284.628	56.32
284.843	29.7
285.058	-1.02
285.274	23.55
285.489	-1.02
285.704	33.79
285.919	84.99
286.134	27.65
286.349	31.74
286.564	-3.07
286.779	103.42
286.995	54.27
287.21	23.55
287.425	68.61
287.64	66.56
287.855	117.76
288.07	-33.79
288.285	130.05
288.5	91.13
288.715	56.32
288.93	1.02
289.145	130.05
289.36	89.09
289.575	33.79
289.79	99.33
290.004	-7.17
290.219	21.5
290.434	95.23
290.649	-5.12
290.864	-29.7
291.079	-1.02
291.294	-3.07
291.509	142.33
291.724	27.65
291.938	78.85
292.153	58.37
292.368	64.51
292.583	109.57
292.798	39.94
293.012	97.28
293.227	-19.46
293.442	39.94
293.657	46.08
293.871	56.32
294.086	35.84
294.301	76.8
294.516	35.84
294.73	39.94
294.945	-62.46
295.16	105.47
295.374	56.32
295.589	52.22
295.804	19.46
296.018	19.46
296.233	113.66
296.447	44.03
296.662	29.7
296.877	76.8
297.091	82.94
297.306	68.61
297.52	37.89
297.735	17.41
297.949	56.32
298.164	64.51
298.378	41.98
298.593	132.09
298.807	19.46
299.022	54.27
299.236	80.89
299.451	29.7
299.665	70.65
299.88	31.74
300.094	68.61
300.309	50.18
300.523	68.61
300.737	7.17
300.952	60.42
301.166	60.42
301.381	19.46
301.595	82.94
301.809	89.09
302.024	82.94
302.238	105.47
302.452	130.05
302.667	9.22
302.881	113.66
303.095	78.85
303.309	72.7
303.524	3.07
303.738	9.22
303.952	13.31
304.166	7.17
304.381	11.26
304.595	144.38
304.809	70.65
305.023	105.47
305.237	76.8
305.452	56.32
305.666	56.32
305.88	3.07
306.094	87.04
306.308	84.99
306.522	11.26
306.736	111.61
306.95	44.03
307.164	113.66
307.379	80.89
307.593	84.99
307.807	37.89
308.021	44.03
308.235	60.42
308.449	29.7
308.663	58.37
308.877	99.33
309.091	41.98
309.305	82.94
309.519	-50.18
309.733	87.04
309.947	50.18
310.161	136.19
310.374	117.76
310.588	113.66
310.802	46.08
311.016	-15.36
311.23	119.81
311.444	142.33
311.658	-7.17
311.872	5.12
312.085	56.32
312.299	50.18
312.513	144.38
312.727	72.7
312.941	44.03
313.154	72.7
313.368	146.43
313.582	132.09
313.796	37.89
314.009	103.42
314.223	44.03
314.437	70.65
314.651	64.51
314.864	121.85
315.078	21.5
315.292	41.98
315.505	62.46
315.719	15.36
315.933	19.46
316.146	-1.02
316.36	3.07
316.573	93.18
316.787	56.32
317.001	87.04
317.214	29.7
317.428	31.74
317.641	101.37
317.855	-21.5
318.068	105.47
318.282	109.57
318.495	125.95
318.709	64.51
318.922	54.27
319.136	62.46
319.349	128
319.563	31.74
319.776	101.37
319.99	-3.07
320.203	78.85
320.417	91.13
320.63	35.84
320.843	130.05
321.057	66.56
321.27	72.7
321.483	19.46
321.697	54.27
321.91	136.19
322.124	140.29
322.337	103.42
322.55	3.07
322.763	-37.89
322.977	-13.31
323.19	89.09
323.403	76.8
323.617	119.81
323.83	93.18
324.043	-46.08
324.256	84.99
324.469	17.41
324.683	50.18
324.896	5.12
325.109	48.13
325.322	91.13
325.535	17.41
325.748	80.89
325.962	27.65
326.175	91.13
326.388	52.22
326.601	31.74
326.814	60.42
327.027	33.79
327.24	50.18
327.453	-13.31
327.666	68.61
327.879	19.46
328.092	78.85
328.305	52.22
328.518	11.26
328.731	97.28
328.944	48.13
329.157	95.23
329.37	87.04
329.583	66.56
329.796	56.32
330.009	31.74
330.222	93.18
330.435	33.79
330.648	62.46
330.861	93.18
331.073	37.89
331.286	89.09
331.499	115.71
331.712	78.85
331.925	97.28
332.138	52.22
332.35	-19.46
332.563	48.13
332.776	109.57
332.989	78.85
333.202	60.42
333.414	84.99
333.627	125.95
333.84	74.75
334.053	52.22
334.265	-19.46
334.478	-9.22
334.691	39.94
334.903	74.75
335.116	70.65
335.329	33.79
335.541	58.37
335.754	60.42
335.966	27.65
336.179	5.12
336.392	7.17
336.604	97.28
336.817	121.85
337.029	87.04
337.242	121.85
337.454	25.6
337.667	48.13
337.88	91.13
338.092	121.85
338.305	50.18
338.517	-9.22
338.729	19.46
338.942	117.76
339.154	19.46
339.367	21.5
339.579	7.17
339.792	33.79
340.004	89.09
340.217	33.79
340.429	97.28
340.641	-21.5
340.854	-23.55
341.066	103.42
341.278	109.57
341.491	105.47
341.703	87.04
341.915	-15.36
342.128	146.43
342.34	107.52
342.552	93.18
342.764	5.12
342.977	95.23
343.189	84.99
343.401	82.94
343.613	-15.36
343.826	31.74
344.038	101.37
344.25	27.65
344.462	3.07
344.674	87.04
344.886	19.46
345.099	121.85
345.311	25.6
345.523	54.27
345.735	-3.07
345.947	76.8
346.159	-5.12
346.371	31.74
346.583	52.22
346.795	152.57
347.007	48.13
347.219	39.94
347.431	31.74
347.643	56.32
347.855	27.65
348.067	84.99
348.279	58.37
348.491	95.23
348.703	76.8
348.915	105.47
349.127	23.55
349.339	56.32
349.551	74.75
349.763	93.18
349.975	109.57
350.187	146.43
350.399	41.98
350.61	58.37
350.822	-21.5
351.034	15.36
351.246	74.75
351.458	68.61
351.669	105.47
351.881	84.99
352.093	52.22
352.305	117.76
352.517	80.89
352.728	76.8
352.94	91.13
353.152	89.09
353.363	15.36
353.575	97.28
353.787	132.09
353.999	62.46
354.21	134.14
354.422	105.47
354.633	37.89
354.845	-46.08
355.057	41.98
355.268	64.51
355.48	56.32
355.692	-9.22
355.903	31.74
356.115	-13.31
356.326	68.61
356.538	140.29
356.749	121.85
356.961	78.85
357.172	101.37
357.384	15.36
357.595	146.43
357.807	15.36
358.018	19.46
358.23	87.04
358.441	99.33
358.653	142.33
358.864	39.94
359.075	56.32
359.287	50.18
359.498	138.24
359.709	56.32
359.921	7.17
360.132	115.71
360.344	72.7
360.555	50.18
360.766	109.57
360.977	60.42
361.189	105.47
361.4	44.03
361.611	76.8
361.823	78.85
362.034	93.18
362.245	62.46
362.456	82.94
362.667	80.89
362.879	132.09
363.09	64.51
363.301	123.9
363.512	50.18
363.723	19.46
363.935	87.04
364.146	68.61
364.357	31.74
364.568	95.23
364.779	76.8
364.99	89.09
365.201	35.84
365.412	60.42
365.623	21.5
365.834	93.18
366.045	35.84
366.256	89.09
366.467	46.08
366.678	50.18
366.889	156.67
367.1	103.42
367.311	62.46
367.522	70.65
367.733	72.7
367.944	97.28
368.155	87.04
368.366	109.57
368.577	64.51
368.788	35.84
368.999	-29.7
369.209	82.94
369.42	105.47
369.631	31.74
369.842	82.94
370.053	41.98
370.264	113.66
370.474	37.89
370.685	91.13
370.896	97.28
371.107	142.33
371.317	64.51
371.528	72.7
371.739	54.27
371.95	136.19
372.16	121.85
372.371	44.03
372.582	5.12
372.792	146.43
373.003	82.94
373.214	76.8
373.424	50.18
373.635	48.13
373.846	121.85
374.056	97.28
374.267	54.27
374.477	80.89
374.688	66.56
374.898	66.56
375.109	3.07
375.319	117.76
375.53	37.89
375.74	111.61
375.951	56.32
376.161	52.22
376.372	62.46
376.582	68.61
376.793	146.43
377.003	37.89
377.214	-33.79
377.424	121.85
377.635	142.33
377.845	39.94
378.055	113.66
378.266	52.22
378.476	62.46
378.686	5.12
378.897	54.27
379.107	89.09
379.317	31.74
379.528	7.17
379.738	23.55
379.948	13.31
380.158	84.99
380.369	52.22
380.579	17.41
380.789	72.7
380.999	144.38
381.21	87.04
381.42	152.57
381.63	121.85
381.84	93.18
382.05	78.85
382.261	142.33
382.471	39.94
382.681	19.46
382.891	173.05
383.101	150.53
383.311	76.8
383.521	76.8
383.731	99.33
383.941	117.76
384.151	29.7
384.361	62.46
384.571	99.33
384.781	154.62
384.991	39.94
385.201	164.86
385.411	119.81
385.621	50.18
385.831	68.61
386.041	41.98
386.251	119.81
386.461	48.13
386.671	113.66
386.881	76.8
387.091	37.89
387.301	58.37
387.511	60.42
387.72	89.09
387.93	140.29
388.14	52.22
388.35	74.75
388.56	179.2
388.769	78.85
388.979	109.57
389.189	33.79
389.399	84.99
389.609	91.13
389.818	31.74
390.028	91.13
390.238	62.46
390.447	107.52
390.657	52.22
390.867	60.42
391.076	50.18
391.286	68.61
391.496	177.15
391.705	103.42
391.915	130.05
392.125	89.09
392.334	113.66
392.544	52.22
392.753	89.09
392.963	84.99
393.172	44.03
393.382	39.94
393.591	148.48
393.801	132.09
394.01	117.76
394.22	123.9
394.429	84.99
394.639	107.52
394.848	134.14
395.058	134.14
395.267	211.96
395.477	138.24
395.686	107.52
395.895	146.43
396.105	156.67
396.314	58.37
396.524	123.9
396.733	146.43
396.942	205.82
397.152	207.87
397.361	150.53
397.57	177.15
397.78	107.52
397.989	148.48
398.198	197.63
398.407	164.86
398.617	136.19
398.826	140.29
399.035	80.89
399.244	154.62
399.453	197.63
399.663	146.43
399.872	177.15
400.081	136.19
400.29	224.25
400.499	150.53
400.708	191.49
400.917	80.89
401.127	84.99
401.336	93.18
401.545	222.2
401.754	181.25
401.963	181.25
402.172	201.72
402.381	109.57
402.59	224.25
402.799	105.47
403.008	156.67
403.217	224.25
403.426	191.49
403.635	183.29
403.844	84.99
404.053	173.05
404.262	132.09
404.471	173.05
404.68	166.91
404.888	158.72
405.097	109.57
405.306	144.38
405.515	158.72
405.724	238.59
405.933	242.68
406.142	244.73
406.35	289.79
406.559	287.74
406.768	228.35
406.977	324.6
407.185	363.51
407.394	347.13
407.603	336.89
407.812	379.9
408.02	375.8
408.229	310.27
408.438	271.36
408.646	248.83
408.855	330.75
409.064	377.85
409.272	375.8
409.481	359.42
409.69	365.56
409.898	371.71
410.107	474.1
410.315	467.96
410.524	531.45
410.733	478.2
410.941	547.83
411.15	445.43
411.358	463.86
411.567	545.78
411.775	582.65
411.984	588.79
412.192	656.37
412.401	582.65
412.609	644.09
412.818	672.76
413.026	596.98
413.234	568.31
413.443	689.14
413.651	748.53
413.86	891.89
414.068	871.41
414.276	803.83
414.485	805.88
414.693	863.22
414.901	1016.82
415.11	961.52
415.318	975.86
415.526	1025.01
415.734	1043.44
415.943	1137.65
416.151	1182.7
416.359	1129.45
416.567	1223.66
416.776	1145.84
416.984	1272.81
417.192	1342.44
417.4	1360.88
417.608	1356.78
417.817	1418.22
418.025	1567.72
418.233	1592.3
418.441	1493.99
418.649	1612.78
418.857	1793
419.065	1772.52
419.273	1770.47
419.481	1846.24
419.689	2010.08
419.897	2059.23
420.105	1979.36
420.313	2143.2
420.521	2288.61
420.729	2237.41
420.937	2274.27
421.145	2450.39
421.353	2550.75
421.561	2661.34
421.769	2784.21
421.977	2888.66
422.185	2870.23
422.393	2964.43
422.601	3187.66
422.809	3230.67
423.017	3193.81
423.224	3388.36
423.432	3525.58
423.64	3429.32
423.848	3840.97
424.056	3914.69
424.263	4049.86
424.471	3976.13
424.679	4117.44
424.887	4398.01
425.094	4500.41
425.302	4488.12
425.51	4604.86
425.718	4819.89
425.925	4789.17
426.133	5090.23
426.341	5268.4
426.548	5612.46
426.756	5370.8
426.964	5608.36
427.171	5929.89
427.379	6026.15
427.586	6224.8
427.794	6482.85
428.001	6859.67
428.209	7007.13
428.417	6990.74
428.624	7285.65
428.832	7406.48
429.039	7277.46
429.247	7330.7
429.454	8090.5
429.662	8358.78
429.869	8045.45
430.076	8733.56
430.284	8160.13
430.491	8690.56
430.699	9249.65
430.906	9208.69
431.114	9419.63
431.321	9661.29
431.528	10214.24
431.736	10584.93
431.943	11111.25
432.15	10779.48
432.358	10617.69
432.565	11440.98
432.772	11168.6
432.979	12043.08
433.187	11979.59
433.394	12303.17
433.601	13126.46
433.808	13030.2
434.016	13108.02
434.223	13572.91
434.43	14566.18
434.637	14007.08
434.844	14951.2
435.052	15252.25
435.259	15065.88
435.466	15362.84
435.673	14750.49
435.88	16167.69
436.087	16966.4
436.294	17296.12
436.501	16640.77
436.708	17029.88
436.915	17490.68
437.122	18414.31
437.329	18012.91
437.537	18658.02
437.743	19049.18
437.95	19167.96
438.157	20165.32
438.364	20812.48
438.571	20697.8
438.778	20695.75
438.985	22893.22
439.192	22395.56
439.399	22764.2
439.606	21877.43
439.813	23509.66
440.02	24754.82
440.227	24650.38
440.433	24072.85
440.64	24951.43
440.847	24865.41
441.054	25350.78
441.261	26948.2
441.467	26864.23
441.674	27320.93
441.881	28293.71
442.088	27880.02
442.294	27920.98
442.501	28746.31
442.708	29213.25
442.914	30624.3
443.121	31545.89
443.328	30429.74
443.534	33133.06
443.741	31904.28
443.948	31670.81
444.154	34310.64
444.361	33765.88
444.568	33970.68
444.774	33929.72
444.981	34429.43
445.187	35459.55
445.394	36930
445.6	36207.06
445.807	40090.01
446.013	38236.6
446.22	39100.84
446.426	40139.16
446.633	40505.75
446.839	41744.77
447.046	40071.58
447.252	42262.91
447.459	42318.2
447.665	42379.64
447.871	43716.96
448.078	45865.28
448.284	43776.36
448.491	44919.12
448.697	46387.52
448.903	46985.52
449.11	47606.06
449.316	46395.71
449.522	47012.15
449.728	48427.29
449.935	48746.78
450.141	48492.83
450.347	49676.55
450.553	48064.8
450.76	48279.84
450.966	49793.29
451.172	49344.78
451.378	49953.03
451.584	49303.82
451.791	50557.18
451.997	50116.87
452.203	50940.15
452.409	50737.4
452.615	50598.14
452.821	49066.26
453.027	48468.25
453.233	51046.65
453.44	48505.12
453.646	49090.83
453.852	48843.03
454.058	50362.62
454.264	48290.08
454.47	49090.83
454.676	48148.77
454.882	49545.48
455.088	45494.6
455.294	45576.52
455.5	46588.22
455.705	46551.35
455.911	44675.41
456.117	44271.96
456.323	43288.94
456.529	40972.69
456.735	42783.09
456.941	41437.58
457.147	40575.38
457.352	39676.32
457.558	39162.28
457.764	39215.53
457.97	38443.45
458.176	37472.71
458.381	37249.48
458.587	35420.64
458.793	35650.02
458.999	33788.41
459.204	36336.09
459.41	35121.64
459.616	32619.02
459.821	32928.27
460.027	32367.12
460.233	32168.47
460.438	30364.21
460.644	30671.4
460.85	29610.56
461.055	28920.39
461.261	28979.78
461.466	26892.9
461.672	26120.82
461.878	28123.73
462.083	25672.31
462.289	25541.24
462.494	25154.18
462.7	24162.96
462.905	23675.54
463.111	24394.38
463.316	24165.01
463.522	23804.56
463.727	24068.75
463.932	24119.95
464.138	23671.45
464.343	23581.34
464.549	22882.98
464.754	23796.37
464.959	23556.76
465.165	23499.42
465.37	22342.32
465.575	21983.92
465.781	22788.77
465.986	22842.02
466.191	22207.15
466.397	21940.91
466.602	20542.15
466.807	21506.74
467.012	21392.06
467.218	21387.96
467.423	21418.68
467.628	21170.88
467.833	22194.86
468.038	21269.18
468.244	20503.24
468.449	21629.62
468.654	20902.59
468.859	20751.04
469.064	20351.69
469.269	19847.89
469.474	19823.31
469.679	20253.39
469.885	19548.89
470.09	19907.28
470.295	19763.92
470.5	19217.11
470.705	19243.74
470.91	18983.65
471.115	18733.79
471.32	19235.55
471.525	18914.02
471.73	18266.86
471.935	18434.79
472.139	17693.43
472.344	18092.78
472.549	18068.2
472.754	17388.28
472.959	17185.53
473.164	16665.35
473.369	16780.03
473.574	17316.6
473.778	16837.38
473.983	16751.36
474.188	16841.47
474.393	16270.09
474.598	16192.26
474.802	15950.6
475.007	16104.2
475.212	16001.8
475.417	15147.8
475.621	15328.02
475.826	15411.99
476.031	14971.68
476.235	14940.96
476.44	14922.52
476.645	14547.75
476.849	14687.01
477.054	14586.66
477.259	14224.17
477.463	14437.16
477.668	13896.49
477.872	14318.37
478.077	13988.65
478.282	13620.02
478.486	13628.21
478.691	13593.39
478.895	13527.86
479.1	13343.54
479.304	13519.67
479.509	13077.3
479.713	13259.57
479.918	13081.4
480.122	12999.48
480.326	13069.11
480.531	13007.67
480.735	12991.29
480.94	12636.99
481.144	13210.42
481.348	12483.39
481.553	12778.3
481.757	12458.82
481.961	12809.02
482.166	12684.09
482.37	12825.4
482.574	12360.52
482.778	12544.83
482.983	12720.96
483.187	12567.36
483.391	12643.14
483.595	12569.41
483.8	12389.19
484.004	12684.09
484.208	12593.98
484.412	12628.8
484.616	12622.66
484.821	12591.94
485.025	12165.96
485.229	12759.87
485.433	12317.51
485.637	12446.53
485.841	12469.06
486.045	12534.59
486.249	12475.2
486.453	12491.59
486.657	12583.74
486.861	12684.09
487.065	12159.81
487.269	12632.9
487.473	12452.67
487.677	12542.78
487.881	12620.61
488.085	12378.95
488.289	12725.05
488.493	12567.36
488.697	12720.96
488.901	12729.15
489.105	12467.01
489.309	12843.84
489.512	12561.22
489.716	12745.53
489.92	12849.98
490.124	12870.46
490.328	12929.85
490.531	12800.83
490.735	12727.1
490.939	12946.23
491.143	12933.95
491.346	12991.29
491.55	13093.69
491.754	13159.22
491.958	13450.03
492.161	13230.9
492.365	13335.35
492.569	13136.7
492.772	13261.62
492.976	13552.43
493.18	13468.47
493.383	13857.58
493.587	13587.25
493.79	14111.53
493.994	13646.64
494.197	14177.06
494.401	14248.74
494.605	14213.93
494.808	14170.92
495.012	14615.33
495.215	14744.35
495.419	14560.03
495.622	14570.27
495.825	14770.97
496.029	14963.48
496.232	15225.62
496.436	15307.54
496.639	15444.76
496.843	15418.13
497.046	15905.55
497.249	15780.62
497.453	15891.21
497.656	16184.07
497.859	16122.63
498.063	16499.46
498.266	16937.73
498.469	16763.65
498.673	16853.76
498.876	17494.77
499.079	17167.1
499.282	17275.64
499.485	17740.53
499.689	17814.26
499.892	17955.57
500.095	18279.15
500.298	18633.44
500.501	18436.84
500.705	18934.5
500.908	19368.66
501.111	19354.33
501.314	19323.61
501.517	19851.99
501.72	20128.46
501.923	20085.45
502.126	20558.53
502.329	20540.1
502.532	20796.1
502.735	20792
502.938	21398.2
503.141	21367.48
503.344	22026.93
503.547	21830.32
503.75	22483.62
503.953	22280.88
504.156	22651.56
504.359	23118.5
504.562	22678.18
504.765	23657.11
504.968	23745.17
505.17	23880.34
505.373	24312.46
505.576	24529.55
505.779	24816.26
505.982	24863.36
506.185	25227.9
506.387	25295.49
506.59	25602.68
506.793	25885.3
506.996	26380.91
507.198	26688.1
507.401	26819.17
507.604	27212.38
507.807	27515.48
508.009	27892.31
508.212	28047.96
508.415	27884.12
508.617	28602.96
508.82	28656.2
509.022	28549.71
509.225	29067.84
509.428	29663.8
509.63	29667.9
509.833	29860.41
510.035	30800.43
510.238	30278.19
510.44	30999.08
510.643	31351.33
510.845	31722.01
511.048	31636
511.25	32188.95
511.453	32135.7
511.655	33454.59
511.858	33001.99
512.06	33526.27
512.262	33540.61
512.465	34019.83
512.667	34187.77
512.87	34279.92
513.072	34658.8
513.274	35422.69
513.477	35693.02
513.679	35912.16
513.881	36090.33
514.084	36436.44
514.286	36817.36
514.488	36936.14
514.69	37921.21
514.893	37980.6
515.095	37990.84
515.297	38814.13
515.499	38789.55
515.701	39408.04
515.904	39707.04
516.106	40087.96
516.308	40284.57
516.51	41230.73
516.712	40802.71
516.914	41343.37
517.116	42064.25
517.318	42006.91
517.52	42451.32
517.722	42908.02
517.925	43116.91
518.127	43913.57
518.329	43561.32
518.531	43940.19
518.733	44450.14
518.935	45021.52
519.136	45128.02
519.338	45289.8
519.54	45834.56
519.742	46299.45
519.944	45826.37
520.146	47391.02
520.348	47239.47
520.55	47526.19
520.752	47436.08
520.954	48828.69
521.155	47935.78
521.357	48797.98
521.559	49115.41
521.761	50014.47
521.963	50059.52
522.164	50065.67
522.366	50387.2
522.568	50944.25
522.77	51265.78
522.971	51298.55
523.173	51841.26
523.375	52162.79
523.576	52089.06
523.778	52164.84
523.98	52420.83
524.181	52814.04
524.383	53014.74
524.584	53768.4
524.786	53764.3
524.988	53727.44
525.189	54165.7
525.391	54991.03
525.592	54798.52
525.794	55173.3
525.995	55398.58
526.197	55599.28
526.398	55296.18
526.6	55699.63
526.801	55939.24
527.003	56328.36
527.204	56215.72
527.406	56696.99
527.607	56610.98
527.808	57192.6
528.01	56275.11
528.211	56709.28
528.412	58071.18
528.614	57661.58
528.815	57837.71
529.016	58544.26
529.218	57880.72
529.419	58093.71
529.62	57776.27
529.822	58359.94
530.023	58577.03
530.224	58318.98
530.425	58937.47
530.626	58488.96
530.828	58466.44
531.029	58970.24
531.23	58454.15
531.431	58777.73
531.632	58974.33
531.833	59013.24
532.035	58785.92
532.236	59295.86
532.437	59465.84
532.638	59009.15
532.839	58890.37
533.04	59740.27
533.241	58701.95
533.442	59936.88
533.643	59850.86
533.844	59576.43
534.045	59349.11
534.246	59480.18
534.447	59846.77
534.648	59584.63
534.849	59572.34
535.05	59363.45
535.251	59543.67
535.451	59416.69
535.652	59697.27
535.853	59519.09
536.054	59727.98
536.255	59947.12
536.456	59379.83
536.657	60604.52
536.857	59471.99
537.058	59785.33
537.259	60158.06
537.46	59867.25
537.66	60010.6
537.861	59732.08
538.062	59791.47
538.263	60055.66
538.463	59603.06
538.664	59490.42
538.865	60250.22
539.065	59515
539.266	59363.45
539.466	60137.58
539.667	59029.63
539.868	60412.01
540.068	59906.16
540.269	59537.52
540.469	59736.18
540.67	59363.45
540.87	59558
541.071	59736.18
541.271	59852.91
541.472	59365.49
541.672	59234.42
541.873	59101.31
542.073	58841.21
542.274	59981.93
542.474	59381.88
542.675	59293.82
542.875	59603.06
543.075	59433.08
543.276	58693.76
543.476	59531.38
543.676	59175.03
543.877	59037.82
544.077	59218.04
544.277	58824.83
544.478	59412.6
544.678	59318.39
544.878	59265.14
545.078	59383.93
545.279	58771.58
545.479	58929.28
545.679	59185.27
545.879	58775.68
546.079	59070.59
546.28	58806.4
546.48	58552.45
546.68	58974.33
546.88	58716.29
547.08	59080.83
547.28	58757.25
547.48	58474.63
547.68	58491.01
547.88	58110.09
548.081	59027.58
548.281	58683.52
548.481	58677.38
548.681	59086.97
548.881	58675.33
549.081	58873.98
549.28	58157.19
549.48	58554.5
549.68	58509.44
549.88	59379.83
550.08	58251.4
550.28	58794.11
550.48	57917.58
550.68	59226.23
550.88	58265.73
551.08	58519.68
551.279	58372.23
551.479	58108.04
551.679	58169.48
551.879	58265.73
552.079	58493.06
552.278	58028.17
552.478	58597.51
552.678	58222.73
552.878	58609.79
553.077	58216.58
553.277	57686.16
553.477	58310.79
553.676	58062.99
553.876	58206.34
554.076	58067.08
554.275	57856.14
554.475	57272.47
554.674	57667.73
554.874	57761.93
555.074	57602.19
555.273	57890.96
555.473	57770.13
555.672	57319.57
555.872	57626.77
556.071	57561.23
556.271	58103.95
556.47	57421.97
556.67	57067.67
556.869	57348.24
557.068	57473.17
557.268	57303.19
557.467	57421.97
557.667	57206.94
557.866	57151.64
558.065	57442.45
558.265	56641.7
558.464	56357.03
558.663	57303.19
558.863	56287.4
559.062	57092.25
559.261	55967.91
559.461	56680.61
559.66	55961.77
559.859	56555.68
560.058	56019.11
560.258	56121.51
560.457	55677.1
560.656	56539.3
560.855	55668.91
561.054	56273.06
561.253	55597.23
561.453	55677.1
561.652	55857.32
561.851	56117.42
562.05	55464.11
562.249	55204.02
562.448	55435.44
562.647	55464.11
562.846	55347.38
563.045	55367.86
563.244	54452.42
563.443	54759.61
563.642	54120.65
563.841	54874.3
564.04	54335.68
564.239	54880.44
564.438	54241.48
564.637	54241.48
564.836	54319.3
565.035	53602.51
565.234	54077.64
565.432	53778.64
565.631	53344.47
565.83	53713.1
566.029	53299.41
566.228	53326.03
566.427	53354.71
566.625	52789.47
566.824	52627.68
567.023	53330.13
567.222	52324.58
567.42	52803.8
567.619	52705.5
567.818	52121.83
568.016	52318.43
568.215	52502.75
568.414	51919.08
568.612	52293.86
568.811	52119.78
569.01	52256.99
569.208	51257.59
569.407	51831.02
569.605	51464.43
569.804	51880.17
570.002	50944.25
570.201	51550.45
570.4	51028.21
570.598	50831.61
570.797	50372.86
570.995	50655.48
571.193	49916.17
571.392	50690.3
571.59	50395.39
571.789	50426.11
571.987	49707.27
572.186	49993.99
572.384	49856.78
572.582	49881.35
572.781	50200.83
572.979	49211.67
573.177	49584.4
573.376	50114.82
573.574	49076.5
573.772	49381.65
573.971	48754.97
574.169	48840.98
574.367	48810.26
574.565	48589.08
574.763	48716.06
574.962	48361.76
575.16	48279.84
575.358	48113.95
575.556	47616.3
575.754	48445.72
575.952	47630.63
576.151	47874.34
576.349	47345.97
576.547	47747.37
576.745	47575.34
576.943	47481.13
577.141	47049.01
577.339	47249.71
577.537	47141.17
577.735	46649.66
577.933	46367.04
578.131	46784.82
578.329	46467.39
578.527	46168.38
578.725	46192.96
578.923	46541.11
579.121	46070.08
579.319	45689.16
579.516	46569.79
579.714	46035.27
579.912	45560.14
580.11	45644.1
580.308	45605.19
580.506	45363.53
580.704	45156.69
580.901	45488.46
581.099	44972.37
581.297	45254.99
581.495	44583.26
581.692	44779.86
581.89	44271.96
582.088	44652.89
582.285	44220.77
582.483	45023.57
582.681	44669.27
582.878	44384.6
583.076	43667.81
583.274	44263.77
583.471	43307.37
583.669	43782.5
583.866	43407.72
584.064	43647.33
584.262	43028.85
584.459	43465.06
584.657	43186.54
584.854	43463.02
585.052	42695.03
585.249	42998.13
585.447	42723.7
585.644	42539.38
585.841	42508.66
586.039	42557.81
586.236	41496.97
586.434	41957.76
586.631	41965.95
586.828	42070.4
587.026	41992.58
587.223	41722.24
587.42	41783.68
587.618	41521.54
587.815	41511.3
588.012	41292.17
588.21	41118.09
588.407	41585.03
588.604	41222.54
588.801	40520.09
588.999	40626.58
589.196	40509.85
589.393	40880.53
589.59	40438.17
589.787	40350.1
589.984	40128.92
590.182	39584.16
590.379	39891.36
590.576	40075.68
590.773	40001.95
590.97	39936.41
591.167	39817.63
591.364	39246.25
591.561	39516.58
591.758	38959.53
591.955	39248.3
592.152	39201.19
592.349	38898.09
592.546	38793.65
592.743	39070.12
592.94	38494.64
593.137	38619.57
593.334	38273.46
593.531	38224.31
593.727	38441.4
593.924	37964.22
594.121	38398.39
594.318	37960.12
594.515	37558.72
594.712	37820.86
594.908	37671.36
595.105	37738.94
595.302	37249.48
595.499	37081.55
595.696	37333.45
595.892	37138.89
596.089	37042.63
596.286	37005.77
596.482	37140.94
596.679	36848.08
596.876	36624.85
597.072	36665.81
597.269	36901.32
597.466	36123.1
597.662	36178.39
597.859	36268.5
598.055	36162.01
598.252	35887.58
598.448	35836.38
598.645	35781.09
598.841	35297.77
599.038	35830.24
599.234	35418.6
599.431	35084.78
599.627	35156.46
599.824	35406.31
600.02	35011.05
600.217	35176.94
600.413	34841.07
600.609	34753.01
600.806	34398.71
601.002	34806.25
601.198	34445.81
601.395	34091.51
601.591	34198.01
601.787	34275.83
601.984	33892.86
602.18	34142.71
602.376	33708.54
602.572	33841.66
602.769	33901.05
602.965	33452.55
603.161	33540.61
603.357	33077.77
603.553	32832.01
603.75	33356.29
603.946	32807.44
604.142	33077.77
604.338	32674.32
604.534	32680.46
604.73	32477.71
604.926	32657.93
605.122	32657.93
605.318	32113.17
605.514	32117.27
605.71	32328.21
605.906	31799.83
606.102	32041.5
606.298	31971.86
606.494	32076.31
606.69	31719.96
606.886	31699.48
607.082	31558.17
607.278	31910.43
607.474	30908.97
607.67	31574.56
607.866	31250.98
608.062	31367.71
608.257	31509.02
608.453	31355.43
608.649	31347.23
608.845	30939.69
609.041	31040.04
609.236	31007.27
609.432	30847.53
609.628	30720.56
609.824	30710.32
610.019	30894.63
610.215	30702.12
610.411	30427.7
610.606	30372.4
610.802	30603.82
610.998	30362.16
611.193	30532.14
611.389	30095.92
611.584	30347.82
611.78	29878.84
611.976	29977.14
612.171	29743.67
612.367	30308.91
612.562	29841.98
612.758	29395.52
612.953	29405.76
613.149	29827.64
613.344	29469.25
613.539	29927.99
613.735	29624.89
613.93	29768.25
614.126	29278.79
614.321	29551.17
614.517	29348.42
614.712	28858.95
614.907	29252.16
615.103	29397.57
615.298	29151.81
615.493	29440.57
615.688	28891.72
615.884	29454.91
616.079	28723.79
616.274	29137.48
616.47	28731.98
616.665	28736.07
616.86	28590.67
617.055	28449.36
617.25	28324.43
617.445	28623.44
617.641	27976.28
617.836	28496.46
618.031	27730.52
618.226	28596.81
618.421	27939.41
618.616	28303.95
618.811	27826.78
619.006	28037.72
619.201	27550.3
619.396	27578.97
619.591	27212.38
619.786	27515.48
619.981	27259.49
620.176	27152.99
620.371	27126.37
620.566	27292.26
620.761	26897
620.956	26899.05
621.151	26301.04
621.346	26489.45
621.541	26278.51
621.735	26350.19
621.93	25817.72
622.125	25965.17
622.32	25774.71
622.515	25750.14
622.709	25463.42
622.904	25592.44
623.099	25361.02
623.294	25004.67
623.488	24717.96
623.683	24846.98
623.878	24674.95
624.072	24541.83
624.267	24435.34
624.462	24334.99
624.656	24259.21
624.851	24271.5
625.046	24160.91
625.24	23968.4
625.435	23526.04
625.629	23675.54
625.824	23589.53
626.018	23345.82
626.213	22794.92
626.407	23227.04
626.602	22985.38
626.796	22999.71
626.991	22745.76
627.185	22559.4
627.38	22672.04
627.574	22268.59
627.768	22141.61
627.963	22158
628.157	22069.94
628.352	22289.07
628.546	21502.65
628.74	21760.69
628.935	21508.79
629.129	21586.61
629.323	21310.14
629.517	21283.52
629.712	20898.5
629.906	21099.2
630.1	20708.04
630.294	20855.49
630.489	20310.73
630.683	20703.94
630.877	20419.27
631.071	20017.87
631.265	20200.14
631.459	19845.84
631.653	20122.32
631.848	19956.43
632.042	19630.8
632.236	19849.94
632.43	19337.94
632.624	19591.89
632.818	19407.58
633.012	19036.89
633.206	18920.16
633.4	18782.95
633.594	18682.59
633.788	18803.43
633.982	18838.24
634.176	18594.53
634.369	18658.02
634.563	18342.63
634.757	18254.57
634.951	18195.18
635.145	18184.94
635.339	18158.31
635.533	18082.54
635.726	17900.27
635.92	17545.97
636.114	17715.95
636.308	17480.44
636.501	17554.16
636.695	17126.14
636.889	17136.38
637.083	16857.85
637.276	16864
637.47	16952.06
637.664	16691.97
637.857	16481.03
638.051	16954.11
638.244	16354.05
638.438	16661.25
638.632	16456.45
638.825	16108.3
639.019	16024.33
639.212	15995.66
639.406	16169.74
639.599	15815.44
639.793	15702.8
639.986	15657.75
640.18	15645.46
640.373	15526.68
640.567	15291.16
640.76	15498
640.954	15192.86
641.147	15047.45
641.34	15194.9
641.534	14992.16
641.727	14820.13
641.92	14951.2
642.114	14725.92
642.307	14646.05
642.5	14381.86
642.694	14510.88
642.887	14297.89
643.08	14598.95
643.273	14170.92
643.467	14158.63
643.66	14170.92
643.853	14134.06
644.046	13876.01
644.239	13581.1
644.432	13773.61
644.626	13591.34
644.819	13681.46
645.012	13654.83
645.205	13486.9
645.398	13437.75
645.591	13275.96
645.784	13364.02
645.977	13108.02
646.17	13128.5
646.363	12907.32
646.556	12827.45
646.749	13003.58
646.942	12999.48
647.135	12639.04
647.328	12636.99
647.521	12743.49
647.714	12417.86
647.907	12358.47
648.099	12327.75
648.292	12503.87
648.485	12219.21
648.678	12137.29
648.871	11995.98
649.064	12038.98
649.256	12051.27
649.449	12157.77
649.642	11905.87
649.835	11840.33
650.027	11719.5
650.22	11570
650.413	11490.13
650.605	11598.67
650.798	11656.01
650.991	11477.84
651.183	11289.43
651.376	11162.45
651.568	11303.76
651.761	11002.71
651.954	11217.75
652.146	11088.73
652.339	11002.71
652.531	11004.76
652.724	10988.38
652.916	10738.52
653.109	10904.41
653.301	10533.73
653.494	10738.52
653.686	10566.49
653.879	10525.54
654.071	10406.75
654.263	10367.84
654.456	10384.23
654.648	10480.48
654.84	10158.95
655.033	10216.29
655.225	10146.66
655.417	10062.69
655.61	10052.45
655.802	10066.79
655.994	9972.58
656.186	10013.54
656.379	9888.62
656.571	9874.28
656.763	9579.37
656.955	9419.63
657.148	9636.72
657.34	9708.4
657.532	9352.05
657.724	9526.13
657.916	9384.82
658.108	9589.61
658.3	9345.91
658.492	9243.51
658.684	9040.76
658.876	9257.84
659.068	9063.29
659.26	8952.7
659.452	8991.61
659.644	8989.56
659.836	8817.53
660.028	8784.76
660.22	8825.72
660.412	8817.53
660.604	8657.79
660.796	8596.35
660.988	8706.94
661.18	8547.2
661.372	8532.86
661.563	8530.81
661.755	8518.53
661.947	8326.02
662.139	8389.5
662.331	8336.26
662.522	8258.43
662.714	8078.21
662.906	8127.36
663.097	7963.53
663.289	8084.36
663.481	8018.82
663.673	8258.43
663.864	7797.64
664.056	7795.59
664.247	7887.75
664.439	7752.59
664.631	7666.57
664.822	7666.57
665.014	7895.94
665.205	7607.18
665.397	7672.71
665.588	7590.8
665.78	7525.26
665.971	7467.92
666.163	7592.84
666.354	7531.41
666.546	7363.47
666.737	7342.99
666.929	7250.83
667.12	7359.38
667.311	7314.32
667.503	7103.38
667.694	7228.31
667.885	7240.59
668.077	7177.11
668.268	7150.48
668.459	7093.14
668.651	7142.29
668.842	6988.69
669.033	7048.08
669.224	6972.31
669.416	7099.28
669.607	6947.73
669.798	6894.49
669.989	6869.91
670.18	6853.53
670.371	6876.06
670.563	6708.12
670.754	6663.07
670.945	6615.96
671.136	6712.22
671.327	6595.48
671.518	6712.22
671.709	6400.93
671.9	6648.73
672.091	6554.52
672.282	6757.27
672.473	6433.69
672.664	6417.31
672.855	6382.49
673.046	6474.65
673.237	6505.37
673.428	6323.1
673.619	6290.34
673.809	6327.2
674	6345.63
674.191	6151.07
674.382	6218.66
674.573	6136.74
674.764	6321.06
674.954	6157.22
675.145	6202.27
675.336	6173.6
675.527	6101.92
675.717	5966.76
675.908	6228.9
676.099	6185.89
676.289	6034.34
676.48	6060.96
676.671	5878.69
676.861	6202.27
677.052	6036.39
677.243	5759.91
677.433	5970.85
677.624	6034.34
677.814	5927.85
678.005	5866.41
678.195	6024.1
678.386	5979.04
678.576	5837.73
678.767	5786.54
678.957	5884.84
679.148	5985.19
679.338	5811.11
679.529	5786.54
679.719	5698.47
679.909	5890.98
680.1	5596.07
680.29	5671.85
680.481	5704.62
680.671	5827.5
680.861	5690.28
681.052	5774.25
681.242	5581.74
681.432	5899.17
681.622	5596.07
681.813	5567.4
682.003	5561.26
682.193	5548.97
682.383	5745.58
682.573	5456.81
682.764	5721
682.954	5690.28
683.144	5604.27
683.334	5548.97
683.524	5495.72
683.714	5534.64
683.904	5557.16
684.094	5442.48
684.284	5465
684.474	5497.77
684.664	5499.82
684.854	5530.54
685.044	5368.75
685.234	5422
685.424	5407.66
685.614	5352.37
685.804	5514.16
685.994	5362.61
686.184	5354.41
686.374	5364.65
686.564	5335.98
686.753	5249.97
686.943	5178.29
687.133	5243.82
687.323	5133.23
687.513	5159.86
687.702	5206.96
687.892	5180.34
688.082	5155.76
688.272	5252.02
688.461	4989.88
688.651	5098.42
688.841	5061.55
689.03	5034.93
689.22	4989.88
689.41	4934.58
689.599	4852.66
689.789	4912.05
689.979	4834.23
690.168	4973.49
690.358	4744.12
690.547	4756.41
690.737	4764.6
690.926	4815.8
691.116	4678.58
691.305	4809.65
691.495	4674.49
691.684	4856.76
691.874	4697.02
692.063	4752.31
692.252	4715.45
692.442	4733.88
692.631	4512.7
692.82	4723.64
693.01	4649.91
693.199	4692.92
693.388	4475.84
693.578	4461.5
693.767	4590.52
693.956	4680.63
694.146	4613.05
694.335	4500.41
694.524	4606.91
694.713	4414.4
694.902	4471.74
695.092	4492.22
695.281	4588.47
695.47	4441.02
695.659	4469.69
695.848	4355.01
696.037	4352.96
696.226	4312
696.415	4228.03
696.604	4336.57
696.793	4371.39
696.982	4346.81
697.171	4408.25
697.36	4182.98
697.549	4154.3
697.738	4223.94
697.927	4230.08
698.116	4451.26
698.305	4279.23
698.494	4244.42
698.683	4266.94
698.872	4275.13
699.061	4148.16
699.25	4275.13
699.438	4228.03
699.627	4322.24
699.816	4252.61
700.005	4242.37
700.193	4334.53
700.382	4232.13
700.571	4146.11
700.76	4307.9
700.948	4164.54
701.137	4172.74
701.326	4219.84
701.514	4203.46
701.703	4185.02
701.892	4219.84
702.08	4287.42
702.269	4350.91
702.457	4105.15
702.646	4164.54
702.834	4156.35
703.023	4080.58
703.212	4086.72
703.4	4271.04
703.589	4156.35
703.777	4103.11
703.965	4246.46
704.154	4119.49
704.342	4299.71
704.531	4230.08
704.719	4043.71
704.907	4133.82
705.096	4105.15
705.284	4160.45
705.472	4277.18
705.661	4268.99
705.849	4275.13
706.037	4166.59
706.226	4142.02
706.414	4189.12
706.602	3986.37
706.79	4207.55
706.979	4127.68
707.167	4162.5
707.355	4275.13
707.543	4072.39
707.731	4172.74
707.919	4139.97
708.107	4058.05
708.296	4275.13
708.484	4250.56
708.672	4174.78
708.86	4174.78
709.048	4312
709.236	4207.55
709.424	4166.59
709.612	4236.22
709.8	4074.43
709.988	4191.17
710.176	4225.98
710.364	4189.12
710.551	4182.98
710.739	4185.02
710.927	4189.12
711.115	4121.54
711.303	4305.85
711.491	4041.67
711.679	4189.12
711.866	4156.35
712.054	4189.12
712.242	4078.53
712.43	4223.94
712.617	4027.33
712.805	4158.4
712.993	4178.88
713.181	4113.35
713.368	4062.15
713.556	4185.02
713.744	4193.22
713.931	4254.66
714.119	4078.53
714.306	4178.88
714.494	4156.35
714.682	4039.62
714.869	4115.39
715.057	4191.17
715.244	4111.3
715.432	4268.99
715.619	4072.39
715.807	4105.15
715.994	4047.81
716.182	4033.47
716.369	4123.59
716.556	4148.16
716.744	4019.14
716.931	4066.24
717.119	4156.35
717.306	4293.57
717.493	4197.31
717.681	4166.59
717.868	4195.26
718.055	4207.55
718.242	4193.22
718.43	4139.97
718.617	4170.69
718.804	4252.61
718.991	4203.46
719.179	4121.54
719.366	4187.07
719.553	4146.11
719.74	4430.78
719.927	4092.87
720.114	4045.76
720.301	4080.58
720.488	4068.29
720.676	4195.26
720.863	4131.78
721.05	4213.7
721.237	4182.98
721.424	4068.29
721.611	4168.64
721.798	4139.97
721.985	4096.96
722.172	4008.9
722.358	4025.28
722.545	4152.26
722.732	4178.88
722.919	4080.58
723.106	4064.19
723.293	4035.52
723.48	4174.78
723.667	4213.7
723.853	3984.32
724.04	4019.14
724.227	4082.63
724.414	3941.32
724.6	4045.76
724.787	4012.99
724.974	4111.3
725.161	3865.54
725.347	3951.56
725.534	4103.11
725.72	4107.2
725.907	4082.63
726.094	3963.84
726.28	4037.57
726.467	4051.91
726.653	4084.67
726.84	3980.23
727.027	4029.38
727.213	3963.84
727.4	3947.46
727.586	4060.1
727.773	4066.24
727.959	3914.69
728.145	3883.97
728.332	3953.6
728.518	4072.39
728.705	3969.99
728.891	3908.55
729.077	3896.26
729.264	3976.13
729.45	3980.23
729.636	4004.8
729.823	3769.29
730.009	3957.7
730.195	3840.97
730.382	3976.13
730.568	3967.94
730.754	3810.25
730.94	3935.17
731.126	3974.08
731.313	3816.39
731.499	4015.04
731.685	3959.75
731.871	3894.21
732.057	3976.13
732.243	3900.36
732.429	3906.5
732.615	4033.47
732.801	4033.47
732.987	3867.59
733.173	3881.92
733.359	3996.61
733.545	3795.91
733.731	3779.53
733.917	3849.16
734.103	3867.59
734.289	3845.06
734.475	3791.81
734.661	3953.6
734.847	3738.57
735.033	3857.35
735.219	3736.52
735.404	3853.25
735.59	3857.35
735.776	3802.05
735.962	3699.66
736.148	3732.42
736.333	3656.65
736.519	3734.47
736.705	3662.79
736.89	3740.61
737.076	3730.38
737.262	3560.39
737.447	3707.85
737.633	3693.51
737.819	3599.31
738.004	3570.63
738.19	3754.95
738.375	3648.46
738.561	3668.94
738.747	3490.76
738.932	3648.46
739.118	3607.5
739.303	3662.79
739.489	3681.22
739.674	3689.42
739.859	3638.22
740.045	3636.17
740.23	3441.61
740.416	3355.6
740.601	3505.1
740.786	3531.72
740.972	3474.38
741.157	3488.71
741.342	3326.93
741.528	3392.46
741.713	3580.87
741.898	3445.71
742.084	3488.71
742.269	3433.42
742.454	3365.84
742.639	3318.73
742.824	3429.32
743.01	3343.31
743.195	3396.56
743.38	3374.03
743.565	3265.49
743.75	3185.62
743.935	3210.19
744.12	3251.15
744.305	3253.2
744.49	3251.15
744.675	3240.91
744.86	3275.73
745.045	3062.74
745.23	3197.9
745.415	3185.62
745.6	3111.89
745.785	3060.69
745.97	3202
746.155	3054.55
746.34	3025.87
746.525	2958.29
746.71	3048.4
746.895	3056.59
747.079	3029.97
747.264	2919.38
747.449	2948.05
747.634	2929.62
747.819	3023.83
748.003	2933.72
748.188	2890.71
748.373	2905.04
748.557	2845.65
748.742	2859.99
748.927	2816.98
749.111	2782.17
749.296	2804.69
749.481	2669.53
749.665	2644.95
749.85	2638.81
750.034	2827.22
750.219	2655.19
750.404	2616.28
750.588	2608.09
750.773	2671.58
750.957	2614.23
751.141	2603.99
751.326	2522.07
751.51	2411.48
751.695	2585.56
751.879	2419.68
752.064	2542.55
752.248	2458.59
752.432	2425.82
752.617	2517.98
752.801	2546.65
752.985	2464.73
753.17	2442.2
753.354	2386.91
753.538	2339.8
753.722	2315.23
753.907	2378.72
754.091	2266.08
754.275	2280.41
754.459	2206.69
754.643	2206.69
754.828	2280.41
755.012	2352.09
755.196	2202.59
755.38	2196.45
755.564	2216.93
755.748	2130.91
755.932	2261.98
756.116	2153.44
756.3	2141.15
756.484	2059.23
756.668	2057.18
756.852	2044.9
757.036	2014.18
757.22	1934.31
757.404	2028.51
757.588	1995.75
757.772	2089.95
757.956	2044.9
758.14	1960.93
758.323	1901.54
758.507	1780.71
758.691	1905.63
758.875	1944.55
759.059	1905.63
759.242	1842.15
759.426	1733.61
759.61	1909.73
759.794	1870.82
759.977	1940.45
760.161	1887.2
760.345	1821.67
760.528	1901.54
760.712	1754.09
760.895	1690.6
761.079	1731.56
761.263	1684.45
761.446	1893.35
761.63	1739.75
761.813	1838.05
761.997	1694.69
762.18	1852.39
762.364	1649.64
762.547	1725.41
762.731	1672.17
762.914	1809.38
763.098	1690.6
763.281	1704.93
763.464	1682.41
763.648	1651.69
763.831	1584.1
764.015	1620.97
764.198	1565.67
764.381	1700.84
764.564	1555.43
764.748	1653.73
764.931	1580.01
765.114	1606.63
765.297	1592.3
765.481	1534.95
765.664	1606.63
765.847	1575.91
766.03	1598.44
766.213	1569.77
766.397	1489.9
766.58	1502.19
766.763	1600.49
766.946	1481.71
767.129	1559.53
767.312	1498.09
767.495	1577.96
767.678	1436.65
767.861	1410.03
768.044	1489.9
768.227	1414.12
768.41	1477.61
768.593	1428.46
768.776	1475.56
768.959	1502.19
769.142	1401.83
769.324	1352.68
769.507	1448.94
769.69	1328.11
769.873	1346.54
770.056	1473.51
770.239	1313.77
770.421	1371.12
770.604	1346.54
770.787	1383.4
770.97	1262.57
771.152	1369.07
771.335	1381.35
771.518	1381.35
771.7	1264.62
771.883	1334.25
772.066	1321.96
772.248	1317.87
772.431	1248.24
772.613	1297.39
772.796	1317.87
772.978	1227.76
773.161	1227.76
773.343	1268.72
773.526	1164.27
773.708	1242.09
773.891	1270.76
774.073	1137.65
774.256	1211.37
774.438	1180.65
774.621	1174.51
774.803	1217.52
774.985	1129.45
775.168	1260.52
775.35	1139.69
775.532	1233.9
775.715	1170.41
775.897	1166.32
776.079	1065.97
776.261	1135.6
776.444	1113.07
776.626	1090.54
776.808	1090.54
776.99	1094.64
777.173	1108.98
777.355	1029.1
777.537	1106.93
777.719	1000.43
777.901	1041.39
778.083	1057.78
778.265	990.19
778.447	1016.82
778.629	1008.62
778.811	963.57
778.993	982
779.175	1102.83
779.357	969.71
779.539	955.38
779.721	883.7
779.903	994.29
780.085	914.42
780.267	936.95
780.449	920.56
780.631	895.99
780.812	951.28
780.994	994.29
781.176	906.23
781.358	875.51
781.54	887.79
781.721	836.6
781.903	855.03
782.085	846.84
782.267	855.03
782.448	818.16
782.63	852.98
782.812	871.41
782.993	893.94
783.175	795.64
783.357	812.02
783.538	840.69
783.72	852.98
783.901	674.81
784.083	787.44
784.264	754.68
784.446	793.59
784.627	824.31
784.809	752.63
784.99	744.44
785.172	785.4
785.353	680.95
785.535	797.68
785.716	666.61
785.897	639.99
786.079	746.48
786.26	744.44
786.441	769.01
786.623	642.04
786.804	666.61
786.985	639.99
787.167	658.42
787.348	656.37
787.529	672.76
787.71	646.13
787.891	615.41
788.073	650.23
788.254	639.99
788.435	623.61
788.616	611.32
788.797	621.56
788.978	701.43
789.159	615.41
789.34	615.41
789.522	510.97
789.703	615.41
789.884	664.57
790.065	572.41
790.246	639.99
790.427	574.46
790.607	607.22
790.788	582.65
790.969	515.06
791.15	560.12
791.331	515.06
791.512	504.82
791.693	535.54
791.874	590.84
792.054	560.12
792.235	494.58
792.416	525.3
792.597	490.49
792.778	570.36
792.958	574.46
793.139	578.55
793.32	543.74
793.5	513.02
793.681	564.22
793.862	467.96
794.042	529.4
794.223	429.05
794.404	525.3
794.584	474.1
794.765	431.1
794.945	543.74
795.126	482.3
795.306	486.39
795.487	396.28
795.667	414.71
795.848	484.34
796.028	508.92
796.209	478.2
796.389	420.86
796.57	427
796.75	470.01
796.93	383.99
797.111	437.24
797.291	435.19
797.471	443.39
797.652	435.19
797.832	437.24
798.012	443.39
798.192	410.62
798.373	455.67
798.553	472.06
798.733	404.47
798.913	363.51
799.093	453.63
799.274	388.09
799.454	449.53
799.634	416.76
799.814	492.54
799.994	453.63
800.174	453.63
800.354	470.01
800.534	351.23
800.714	394.23
800.894	445.43
801.074	371.71
801.254	371.71
801.434	361.47
801.614	349.18
801.794	408.57
801.974	883.7
802.154	314.36
802.334	404.47
802.514	289.79
802.693	363.51
802.873	306.17
803.053	422.91
803.233	381.95
803.413	343.03
803.592	351.23
803.772	295.93
803.952	357.37
804.131	300.03
804.311	439.29
804.491	336.89
804.67	359.42
804.85	277.5
805.03	324.6
805.209	345.08
805.389	340.99
805.568	375.8
805.748	310.27
805.928	222.2
806.107	297.98
806.287	334.84
806.466	316.41
806.646	273.4
806.825	291.84
807.004	267.26
807.184	308.22
807.363	285.69
807.543	343.03
807.722	250.88
807.901	314.36
808.081	297.98
808.26	250.88
808.439	312.32
808.619	293.88
808.798	261.12
808.977	355.32
809.156	285.69
809.336	326.65
809.515	271.36
809.694	293.88
809.873	322.56
810.052	232.44
810.231	287.74
810.411	306.17
810.59	381.95
810.769	322.56
810.948	257.02
811.127	259.07
811.306	250.88
811.485	257.02
811.664	322.56
811.843	287.74
812.022	263.16
812.201	275.45
812.38	267.26
812.559	191.49
812.737	269.31
812.916	222.2
813.095	230.4
813.274	275.45
813.453	304.12
813.632	230.4
813.811	300.03
813.989	240.64
814.168	281.6
814.347	156.67
814.526	164.86
814.704	138.24
814.883	275.45
815.062	263.16
815.24	283.64
815.419	254.97
815.598	265.21
815.776	171.01
815.955	211.96
816.133	224.25
816.312	191.49
816.49	240.64
816.669	132.09
816.847	187.39
817.026	140.29
817.204	252.92
817.383	312.32
817.561	205.82
817.74	218.11
817.918	234.49
818.097	271.36
818.275	218.11
818.453	216.06
818.632	152.57
818.81	166.91
818.988	238.59
819.167	228.35
819.345	265.21
819.523	148.48
819.701	193.53
819.879	205.82
820.058	222.2
820.236	173.05
820.414	148.48
820.592	226.3
820.77	250.88
820.948	144.38
821.127	195.58
821.305	173.05
821.483	128
821.661	254.97
821.839	214.01
822.017	173.05
822.195	162.81
822.373	218.11
822.551	121.85
822.729	232.44
822.907	179.2
823.085	211.96
823.262	181.25
823.44	240.64
823.618	207.87
823.796	183.29
823.974	207.87
824.152	152.57
824.329	207.87
824.507	277.5
824.685	152.57
824.863	160.77
825.04	205.82
825.218	205.82
825.396	191.49
825.574	209.92
825.751	109.57
825.929	162.81
826.107	46.08
826.284	121.85
826.462	105.47
826.639	166.91
826.817	158.72
826.994	134.14
827.172	84.99
827.349	166.91
827.527	197.63
827.704	128
827.882	203.77
828.059	144.38
828.237	111.61
828.414	158.72
828.591	117.76
828.769	209.92
828.946	82.94
829.124	211.96
829.301	78.85
829.478	168.96
829.655	175.1
829.833	142.33
830.01	125.95
830.187	168.96
830.364	125.95
830.542	148.48
830.719	136.19
830.896	130.05
831.073	101.37
831.25	191.49
831.427	175.1
831.604	164.86
831.782	107.52
831.959	121.85
832.136	84.99
832.313	240.64
832.49	144.38
832.667	140.29
832.844	93.18
833.021	109.57
833.198	107.52
833.374	156.67
833.551	150.53
833.728	64.51
833.905	134.14
834.082	54.27
834.259	119.81
834.436	168.96
834.612	97.28
834.789	150.53
834.966	113.66
835.143	125.95
835.319	158.72
835.496	68.61
835.673	130.05
835.85	62.46
836.026	105.47
836.203	146.43
836.38	144.38
836.556	76.8
836.733	136.19
836.909	248.83
837.086	123.9
837.262	54.27
837.439	41.98
837.616	64.51
837.792	123.9
837.968	123.9
838.145	58.37
838.321	76.8
838.498	99.33
838.674	89.09
838.851	148.48
839.027	113.66
839.203	109.57
839.38	136.19
839.556	193.53
839.732	74.75
839.909	103.42
840.085	128
840.261	35.84
840.437	128
840.614	48.13
840.79	70.65
840.966	95.23
841.142	107.52
841.318	39.94
841.494	154.62
841.671	95.23
841.847	91.13
842.023	93.18
842.199	101.37
842.375	117.76
842.551	97.28
842.727	76.8
842.903	82.94
843.079	25.6
843.255	103.42
843.431	3.07
843.607	130.05
843.783	31.74
843.959	134.14
844.134	9.22
844.31	166.91
844.486	97.28
844.662	84.99
844.838	78.85
845.013	50.18
845.189	101.37
845.365	64.51
845.541	70.65
845.716	44.03
845.892	101.37
846.068	111.61
846.244	132.09
846.419	48.13
846.595	44.03
846.77	64.51
846.946	103.42
847.122	117.76
847.297	91.13
847.473	64.51
847.648	25.6
847.824	119.81
847.999	68.61
848.175	103.42
848.35	142.33
848.526	134.14
848.701	103.42
848.876	175.1
849.052	62.46
849.227	19.46
849.403	132.09
849.578	72.7
849.753	107.52
849.929	9.22
850.104	62.46
850.279	89.09
850.454	109.57
850.63	105.47
850.805	82.94
850.98	72.7
851.155	27.65
851.33	62.46
851.505	54.27
851.681	109.57
851.856	74.75
852.031	25.6
852.206	111.61
852.381	31.74
852.556	44.03
852.731	171.01
852.906	17.41
853.081	103.42
853.256	93.18
853.431	70.65
853.606	33.79
853.781	-31.74
853.956	9.22
854.131	111.61
854.305	21.5
854.48	44.03
854.655	29.7
854.83	56.32
855.005	56.32
855.18	35.84
855.354	3.07
855.529	50.18
855.704	44.03
855.879	111.61
856.053	35.84
856.228	64.51
856.403	31.74
856.577	48.13
856.752	-19.46
856.926	37.89
857.101	134.14
857.276	68.61
857.45	123.9
857.625	23.55
857.799	-5.12
857.974	95.23
858.148	-35.84
858.323	60.42
858.497	-7.17
858.672	27.65
858.846	93.18
859.02	31.74
859.195	23.55
859.369	7.17
859.543	23.55
859.718	107.52
859.892	17.41
860.066	80.89
860.241	103.42
860.415	103.42
860.589	68.61
860.763	93.18
860.938	35.84
861.112	-5.12
861.286	-11.26
861.46	64.51
861.634	35.84
861.808	41.98
861.982	7.17
862.157	48.13
862.331	-37.89
862.505	29.7
862.679	23.55
862.853	93.18
863.027	68.61
863.201	72.7
863.375	29.7
863.549	23.55
863.722	48.13
863.896	37.89
864.07	33.79
864.244	29.7
864.418	56.32
864.592	60.42
864.766	105.47
864.939	72.7
865.113	-17.41
865.287	76.8
865.461	9.22
865.634	50.18
865.808	82.94
865.982	19.46
866.156	60.42
866.329	-9.22
866.503	48.13
866.676	-17.41
866.85	50.18
867.024	-11.26
867.197	48.13
867.371	64.51
867.544	91.13
867.718	-17.41
867.891	11.26
868.065	41.98
868.238	60.42
868.412	64.51
868.585	27.65
868.759	23.55
868.932	52.22
869.105	3.07
869.279	-48.13
869.452	105.47
869.625	52.22
869.799	41.98
869.972	31.74
870.145	-39.94
870.319	11.26
870.492	19.46
870.665	5.12
870.838	27.65
871.011	17.41
871.185	-41.98
871.358	41.98
871.531	84.99
871.704	-25.6
871.877	76.8
872.05	5.12
872.223	-3.07
872.396	115.71
872.569	54.27
872.742	9.22
872.915	23.55
873.088	13.31
873.261	37.89
873.434	56.32
873.607	-1.02
873.78	70.65
873.953	27.65
874.126	35.84
874.299	25.6
874.471	-5.12
874.644	23.55
874.817	33.79
874.99	11.26
875.163	21.5
875.335	5.12
875.508	46.08
875.681	134.14
875.853	7.17
876.026	3.07
876.199	3.07
876.371	35.84
876.544	70.65
876.717	58.37
876.889	23.55
877.062	39.94
877.234	-37.89
877.407	27.65
877.579	103.42
877.752	82.94
877.924	-5.12
878.097	74.75
878.269	21.5
878.442	-15.36
878.614	87.04
878.786	33.79
878.959	-56.32
879.131	52.22
879.303	44.03
879.476	-9.22
879.648	39.94
879.82	-39.94
879.993	-13.31
880.165	11.26
880.337	-15.36
880.509	93.18
880.681	-39.94
880.854	17.41
881.026	11.26
881.198	13.31
881.37	-103.42
881.542	-37.89
881.714	9.22
881.886	-7.17
882.058	-7.17
882.23	-54.27
882.402	7.17
882.574	25.6
882.746	62.46
882.918	7.17
883.09	-17.41
883.262	27.65
883.434	1.02
883.606	27.65
883.778	50.18
883.95	101.37
884.122	41.98
884.293	142.33
884.465	-17.41
884.637	66.56
884.809	-41.98
884.98	128
885.152	29.7
885.324	119.81
885.496	-41.98
885.667	-48.13
885.839	44.03
886.011	78.85
886.182	56.32
886.354	72.7
886.525	11.26
886.697	76.8
886.869	29.7
887.04	29.7
887.212	31.74
887.383	50.18
887.555	27.65
887.726	9.22
887.897	66.56
888.069	-3.07
888.24	17.41
888.412	33.79
888.583	-11.26
888.754	19.46
888.926	-1.02
889.097	15.36
889.268	1.02
889.44	5.12
889.611	-7.17
889.782	17.41
889.953	7.17
890.125	113.66
890.296	-11.26
890.467	7.17
890.638	-25.6
890.809	21.5
890.98	17.41
891.151	113.66
891.323	11.26
891.494	35.84
891.665	-1.02
891.836	39.94
892.007	70.65
892.178	11.26
892.349	93.18
892.52	29.7
892.691	-21.5
892.862	48.13
893.032	35.84
893.203	33.79
893.374	-11.26
893.545	138.24
893.716	27.65
893.887	9.22
894.057	-48.13
894.228	44.03
894.399	9.22
894.57	9.22
894.74	-25.6
894.911	9.22
895.082	15.36
895.253	105.47
895.423	19.46
895.594	95.23
895.764	27.65
895.935	-15.36
896.106	-7.17
896.276	-21.5
896.447	-37.89
896.617	-7.17
896.788	15.36
896.958	11.26
897.129	-41.98
897.299	-1.02
897.47	54.27
897.64	-11.26
897.81	56.32
897.981	80.89
898.151	-27.65
898.322	48.13
898.492	-11.26
898.662	41.98
898.832	11.26
899.003	80.89
899.173	-21.5
899.343	-5.12
899.513	-64.51
