Data from USB4F104151__12__10-21-01-772.txt Node

Date: Wed Mar 12 10:21:01 EDT 2025
User: louis
Spectrometer: USB4F10415
Trigger mode: 4
Integration Time (sec): 3.000000E-2
Scans to average: 1
Electric dark correction enabled: true
Nonlinearity correction enabled: false
Boxcar width: 0
XAxis mode: Wavelengths
Number of Pixels in Spectrum: 3648
>>>>>Begin Spectral Data<<<<<
178.204	-63.32
178.424	-63.32
178.644	-63.32
178.864	-34.64
179.084	-122.71
179.304	-16.21
179.524	8.36
179.744	51.37
179.964	51.37
180.184	-63.32
180.404	10.41
180.624	10.41
180.844	-55.12
181.064	14.51
181.283	-8.02
181.503	-1.88
181.723	-1.88
181.943	-1.88
182.163	170.15
182.383	-44.88
182.602	73.9
182.822	137.38
183.042	6.31
183.262	22.7
183.482	61.61
183.701	4.27
183.921	14.51
184.141	2.22
184.361	75.95
184.58	67.75
184.8	26.79
185.02	22.7
185.239	92.33
185.459	-5.97
185.679	57.51
185.898	-3.93
186.118	59.56
186.338	6.31
186.557	18.6
186.777	57.51
186.997	47.27
187.216	18.6
187.436	129.19
187.655	51.37
187.875	57.51
188.095	77.99
188.314	51.37
188.534	114.86
188.753	12.46
188.973	-10.07
189.192	92.33
189.412	75.95
189.631	98.47
189.851	-55.12
190.07	86.19
190.29	-48.98
190.509	84.14
190.729	67.75
190.948	39.08
191.168	182.44
191.387	24.75
191.607	16.55
191.826	18.6
192.045	18.6
192.265	39.08
192.484	53.42
192.704	67.75
192.923	59.56
193.142	131.24
193.362	67.75
193.581	32.94
193.8	26.79
194.02	133.29
194.239	-5.97
194.458	-5.97
194.678	22.7
194.897	22.7
195.116	-5.97
195.335	-1.88
195.555	-5.97
195.774	8.36
195.993	8.36
196.212	96.43
196.432	39.08
196.651	141.48
196.87	10.41
197.089	127.14
197.308	45.23
197.528	80.04
197.747	-22.36
197.966	77.99
198.185	47.27
198.404	65.71
198.623	59.56
198.842	6.31
199.062	41.13
199.281	98.47
199.5	14.51
199.719	51.37
199.938	47.27
200.157	59.56
200.376	43.18
200.595	22.7
200.814	-3.93
201.033	2.22
201.252	82.09
201.471	133.29
201.69	55.47
201.909	69.8
202.128	-8.02
202.347	18.6
202.566	-3.93
202.785	30.89
203.004	14.51
203.223	92.33
203.442	0.17
203.661	14.51
203.879	45.23
204.098	104.62
204.317	51.37
204.536	34.99
204.755	92.33
204.974	37.03
205.193	39.08
205.411	71.85
205.63	18.6
205.849	67.75
206.068	0.17
206.287	104.62
206.505	51.37
206.724	-46.93
206.943	26.79
207.162	2.22
207.381	-5.97
207.599	28.84
207.818	26.79
208.037	106.67
208.255	55.47
208.474	8.36
208.693	30.89
208.911	82.09
209.13	34.99
209.349	-18.26
209.567	12.46
209.786	47.27
210.005	65.71
210.223	71.85
210.442	10.41
210.661	-8.02
210.879	28.84
211.098	47.27
211.316	67.75
211.535	75.95
211.753	49.32
211.972	92.33
212.191	51.37
212.409	24.75
212.628	47.27
212.846	14.51
213.065	18.6
213.283	82.09
213.502	-46.93
213.72	10.41
213.938	43.18
214.157	43.18
214.375	88.23
214.594	18.6
214.812	67.75
215.031	14.51
215.249	26.79
215.467	39.08
215.686	-5.97
215.904	84.14
216.122	-57.17
216.341	94.38
216.559	22.7
216.778	155.82
216.996	16.55
217.214	55.47
217.432	10.41
217.651	4.27
217.869	-30.55
218.087	4.27
218.306	24.75
218.524	53.42
218.742	12.46
218.96	67.75
219.179	51.37
219.397	24.75
219.615	61.61
219.833	10.41
220.051	-28.5
220.27	112.81
220.488	106.67
220.706	20.65
220.924	-30.55
221.142	71.85
221.36	6.31
221.578	67.75
221.796	8.36
222.015	20.65
222.233	18.6
222.451	49.32
222.669	6.31
222.887	47.27
223.105	71.85
223.323	61.61
223.541	45.23
223.759	-38.74
223.977	75.95
224.195	14.51
224.413	98.47
224.631	-1.88
224.849	80.04
225.067	94.38
225.285	47.27
225.503	45.23
225.721	-22.36
225.939	63.66
226.157	-12.12
226.375	166.06
226.592	51.37
226.81	51.37
227.028	73.9
227.246	127.14
227.464	26.79
227.682	114.86
227.9	30.89
228.117	28.84
228.335	2.22
228.553	18.6
228.771	61.61
228.989	106.67
229.206	55.47
229.424	22.7
229.642	84.14
229.86	2.22
230.077	104.62
230.295	102.57
230.513	149.67
230.731	127.14
230.948	41.13
231.166	104.62
231.384	30.89
231.601	30.89
231.819	80.04
232.037	34.99
232.254	28.84
232.472	84.14
232.689	-14.17
232.907	123.05
233.125	30.89
233.342	96.43
233.56	16.55
233.777	14.51
233.995	-10.07
234.213	12.46
234.43	47.27
234.648	141.48
234.865	-38.74
235.083	73.9
235.3	55.47
235.518	77.99
235.735	-1.88
235.953	26.79
236.17	-30.55
236.388	26.79
236.605	28.84
236.822	45.23
237.04	8.36
237.257	-1.88
237.475	26.79
237.692	61.61
237.909	75.95
238.127	14.51
238.344	43.18
238.562	65.71
238.779	-8.02
238.996	-10.07
239.214	65.71
239.431	41.13
239.648	49.32
239.865	14.51
240.083	57.51
240.3	71.85
240.517	-1.88
240.735	-5.97
240.952	57.51
241.169	34.99
241.386	12.46
241.603	73.9
241.821	-1.88
242.038	77.99
242.255	18.6
242.472	32.94
242.689	2.22
242.907	69.8
243.124	0.17
243.341	18.6
243.558	-1.88
243.775	18.6
243.992	6.31
244.209	24.75
244.426	34.99
244.643	98.47
244.86	-34.64
245.078	24.75
245.295	18.6
245.512	30.89
245.729	24.75
245.946	18.6
246.163	34.99
246.38	67.75
246.597	59.56
246.814	55.47
247.031	51.37
247.248	63.66
247.464	57.51
247.681	34.99
247.898	32.94
248.115	43.18
248.332	12.46
248.549	-5.97
248.766	141.48
248.983	28.84
249.2	26.79
249.417	94.38
249.633	80.04
249.85	73.9
250.067	28.84
250.284	20.65
250.501	26.79
250.717	125.1
250.934	45.23
251.151	75.95
251.368	116.9
251.585	43.18
251.801	10.41
252.018	22.7
252.235	104.62
252.451	24.75
252.668	26.79
252.885	55.47
253.102	14.51
253.318	-5.97
253.535	55.47
253.752	88.23
253.968	82.09
254.185	65.71
254.401	22.7
254.618	45.23
254.835	0.17
255.051	131.24
255.268	57.51
255.484	71.85
255.701	106.67
255.917	45.23
256.134	43.18
256.351	37.03
256.567	-1.88
256.784	137.38
257	8.36
257.217	96.43
257.433	-16.21
257.65	55.47
257.866	2.22
258.082	-3.93
258.299	51.37
258.515	8.36
258.732	47.27
258.948	14.51
259.165	20.65
259.381	47.27
259.597	49.32
259.814	28.84
260.03	92.33
260.246	26.79
260.463	6.31
260.679	-5.97
260.895	65.71
261.112	63.66
261.328	18.6
261.544	43.18
261.761	65.71
261.977	43.18
262.193	2.22
262.409	100.52
262.626	84.14
262.842	39.08
263.058	67.75
263.274	94.38
263.49	51.37
263.707	80.04
263.923	4.27
264.139	0.17
264.355	84.14
264.571	172.2
264.787	39.08
265.004	65.71
265.22	67.75
265.436	28.84
265.652	2.22
265.868	22.7
266.084	43.18
266.3	121
266.516	14.51
266.732	104.62
266.948	65.71
267.164	18.6
267.38	80.04
267.596	39.08
267.812	24.75
268.028	55.47
268.244	47.27
268.46	88.23
268.676	55.47
268.892	80.04
269.108	-69.46
269.324	32.94
269.54	0.17
269.756	123.05
269.972	26.79
270.188	10.41
270.403	53.42
270.619	-1.88
270.835	67.75
271.051	14.51
271.267	-5.97
271.483	39.08
271.698	143.53
271.914	22.7
272.13	45.23
272.346	6.31
272.562	41.13
272.777	92.33
272.993	-22.36
273.209	30.89
273.425	59.56
273.64	-10.07
273.856	104.62
274.072	34.99
274.287	129.19
274.503	63.66
274.719	34.99
274.934	10.41
275.15	-55.12
275.366	86.19
275.581	53.42
275.797	67.75
276.012	47.27
276.228	49.32
276.444	90.28
276.659	106.67
276.875	77.99
277.09	-3.93
277.306	71.85
277.521	26.79
277.737	14.51
277.952	67.75
278.168	-5.97
278.383	121
278.599	100.52
278.814	61.61
279.03	69.8
279.245	123.05
279.461	14.51
279.676	135.34
279.892	114.86
280.107	39.08
280.322	-38.74
280.538	84.14
280.753	34.99
280.969	57.51
281.184	8.36
281.399	90.28
281.615	10.41
281.83	77.99
282.045	28.84
282.26	82.09
282.476	2.22
282.691	77.99
282.906	84.14
283.122	16.55
283.337	61.61
283.552	14.51
283.767	-10.07
283.983	131.24
284.198	104.62
284.413	112.81
284.628	0.17
284.843	-38.74
285.058	34.99
285.274	84.14
285.489	43.18
285.704	59.56
285.919	6.31
286.134	114.86
286.349	37.03
286.564	57.51
286.779	127.14
286.995	82.09
287.21	-1.88
287.425	0.17
287.64	-24.4
287.855	2.22
288.07	4.27
288.285	-12.12
288.5	-22.36
288.715	129.19
288.93	10.41
289.145	67.75
289.36	18.6
289.575	102.57
289.79	112.81
290.004	-32.6
290.219	118.95
290.434	26.79
290.649	49.32
290.864	20.65
291.079	28.84
291.294	82.09
291.509	77.99
291.724	51.37
291.938	49.32
292.153	82.09
292.368	51.37
292.583	121
292.798	80.04
293.012	108.71
293.227	39.08
293.442	-16.21
293.657	18.6
293.871	67.75
294.086	67.75
294.301	67.75
294.516	71.85
294.73	82.09
294.945	47.27
295.16	92.33
295.374	118.95
295.589	114.86
295.804	-1.88
296.018	-44.88
296.233	98.47
296.447	75.95
296.662	8.36
296.877	0.17
297.091	34.99
297.306	63.66
297.52	49.32
297.735	75.95
297.949	51.37
298.164	67.75
298.378	10.41
298.593	22.7
298.807	71.85
299.022	12.46
299.236	135.34
299.451	26.79
299.665	18.6
299.88	106.67
300.094	82.09
300.309	22.7
300.523	77.99
300.737	49.32
300.952	26.79
301.166	-1.88
301.381	43.18
301.595	49.32
301.809	47.27
302.024	-10.07
302.238	43.18
302.452	131.24
302.667	18.6
302.881	133.29
303.095	53.42
303.309	123.05
303.524	55.47
303.738	90.28
303.952	14.51
304.166	63.66
304.381	-71.51
304.595	32.94
304.809	26.79
305.023	37.03
305.237	-69.46
305.452	26.79
305.666	102.57
305.88	53.42
306.094	30.89
306.308	102.57
306.522	6.31
306.736	18.6
306.95	12.46
307.164	-26.45
307.379	80.04
307.593	57.51
307.807	63.66
308.021	16.55
308.235	67.75
308.449	34.99
308.663	67.75
308.877	102.57
309.091	-16.21
309.305	41.13
309.519	-36.69
309.733	59.56
309.947	26.79
310.161	12.46
310.374	32.94
310.588	88.23
310.802	67.75
311.016	26.79
311.23	82.09
311.444	43.18
311.658	39.08
311.872	98.47
312.085	116.9
312.299	118.95
312.513	24.75
312.727	96.43
312.941	47.27
313.154	59.56
313.368	55.47
313.582	22.7
313.796	67.75
314.009	53.42
314.223	30.89
314.437	82.09
314.651	47.27
314.864	26.79
315.078	104.62
315.292	73.9
315.505	10.41
315.719	-18.26
315.933	75.95
316.146	102.57
316.36	6.31
316.573	30.89
316.787	51.37
317.001	75.95
317.214	86.19
317.428	90.28
317.641	-18.26
317.855	94.38
318.068	71.85
318.282	41.13
318.495	84.14
318.709	86.19
318.922	47.27
319.136	108.71
319.349	61.61
319.563	12.46
319.776	92.33
319.99	26.79
320.203	80.04
320.417	90.28
320.63	129.19
320.843	34.99
321.057	10.41
321.27	51.37
321.483	26.79
321.697	65.71
321.91	-10.07
322.124	88.23
322.337	-16.21
322.55	16.55
322.763	-5.97
322.977	34.99
323.19	34.99
323.403	41.13
323.617	59.56
323.83	26.79
324.043	112.81
324.256	57.51
324.469	55.47
324.683	100.52
324.896	59.56
325.109	18.6
325.322	61.61
325.535	49.32
325.748	84.14
325.962	22.7
326.175	88.23
326.388	63.66
326.601	80.04
326.814	-30.55
327.027	18.6
327.24	84.14
327.453	22.7
327.666	80.04
327.879	26.79
328.092	51.37
328.305	67.75
328.518	39.08
328.731	59.56
328.944	65.71
329.157	55.47
329.37	61.61
329.583	123.05
329.796	84.14
330.009	-30.55
330.222	73.9
330.435	114.86
330.648	16.55
330.861	24.75
331.073	41.13
331.286	135.34
331.499	65.71
331.712	14.51
331.925	73.9
332.138	100.52
332.35	123.05
332.563	30.89
332.776	121
332.989	34.99
333.202	108.71
333.414	75.95
333.627	55.47
333.84	43.18
334.053	59.56
334.265	-32.6
334.478	82.09
334.691	8.36
334.903	59.56
335.116	71.85
335.329	2.22
335.541	121
335.754	80.04
335.966	-3.93
336.179	34.99
336.392	-18.26
336.604	96.43
336.817	84.14
337.029	43.18
337.242	30.89
337.454	45.23
337.667	41.13
337.88	-12.12
338.092	75.95
338.305	71.85
338.517	-14.17
338.729	153.77
338.942	94.38
339.154	22.7
339.367	14.51
339.579	86.19
339.792	34.99
340.004	2.22
340.217	-16.21
340.429	77.99
340.641	43.18
340.854	26.79
341.066	0.17
341.278	82.09
341.491	43.18
341.703	18.6
341.915	24.75
342.128	65.71
342.34	-14.17
342.552	57.51
342.764	137.38
342.977	10.41
343.189	24.75
343.401	73.9
343.613	14.51
343.826	-1.88
344.038	-14.17
344.25	10.41
344.462	2.22
344.674	84.14
344.886	98.47
345.099	80.04
345.311	28.84
345.523	55.47
345.735	0.17
345.947	-5.97
346.159	51.37
346.371	92.33
346.583	14.51
346.795	125.1
347.007	-1.88
347.219	67.75
347.431	108.71
347.643	104.62
347.855	2.22
348.067	10.41
348.279	-10.07
348.491	110.76
348.703	100.52
348.915	98.47
349.127	-32.6
349.339	34.99
349.551	41.13
349.763	80.04
349.975	123.05
350.187	65.71
350.399	75.95
350.61	22.7
350.822	0.17
351.034	51.37
351.246	82.09
351.458	139.43
351.669	12.46
351.881	49.32
352.093	75.95
352.305	100.52
352.517	100.52
352.728	129.19
352.94	0.17
353.152	43.18
353.363	61.61
353.575	37.03
353.787	121
353.999	16.55
354.21	63.66
354.422	61.61
354.633	34.99
354.845	57.51
355.057	39.08
355.268	49.32
355.48	47.27
355.692	77.99
355.903	24.75
356.115	14.51
356.326	67.75
356.538	149.67
356.749	88.23
356.961	141.48
357.172	-26.45
357.384	84.14
357.595	141.48
357.807	32.94
358.018	-5.97
358.23	106.67
358.441	141.48
358.653	92.33
358.864	88.23
359.075	121
359.287	108.71
359.498	47.27
359.709	14.51
359.921	71.85
360.132	69.8
360.344	102.57
360.555	127.14
360.766	84.14
360.977	-24.4
361.189	92.33
361.4	43.18
361.611	84.14
361.823	57.51
362.034	75.95
362.245	96.43
362.456	80.04
362.667	53.42
362.879	80.04
363.09	45.23
363.301	92.33
363.512	84.14
363.723	63.66
363.935	47.27
364.146	30.89
364.357	39.08
364.568	18.6
364.779	86.19
364.99	94.38
365.201	65.71
365.412	84.14
365.623	47.27
365.834	20.65
366.045	24.75
366.256	116.9
366.467	51.37
366.678	59.56
366.889	63.66
367.1	55.47
367.311	131.24
367.522	12.46
367.733	118.95
367.944	80.04
368.155	18.6
368.366	-5.97
368.577	147.62
368.788	92.33
368.999	51.37
369.209	28.84
369.42	135.34
369.631	63.66
369.842	69.8
370.053	47.27
370.264	92.33
370.474	51.37
370.685	67.75
370.896	-12.12
371.107	114.86
371.317	80.04
371.528	71.85
371.739	6.31
371.95	43.18
372.16	59.56
372.371	100.52
372.582	32.94
372.792	6.31
373.003	2.22
373.214	53.42
373.424	121
373.635	71.85
373.846	108.71
374.056	116.9
374.267	98.47
374.477	51.37
374.688	41.13
374.898	14.51
375.109	65.71
375.319	41.13
375.53	63.66
375.74	125.1
375.951	57.51
376.161	30.89
376.372	137.38
376.582	61.61
376.793	112.81
377.003	55.47
377.214	59.56
377.424	57.51
377.635	84.14
377.845	82.09
378.055	-3.93
378.266	69.8
378.476	82.09
378.686	82.09
378.897	55.47
379.107	47.27
379.317	153.77
379.528	53.42
379.738	94.38
379.948	51.37
380.158	104.62
380.369	47.27
380.579	92.33
380.789	49.32
380.999	92.33
381.21	100.52
381.42	92.33
381.63	73.9
381.84	86.19
382.05	43.18
382.261	57.51
382.471	71.85
382.681	53.42
382.891	125.1
383.101	47.27
383.311	77.99
383.521	90.28
383.731	116.9
383.941	102.57
384.151	116.9
384.361	121
384.571	94.38
384.781	69.8
384.991	112.81
385.201	75.95
385.411	96.43
385.621	30.89
385.831	28.84
386.041	59.56
386.251	82.09
386.461	73.9
386.671	133.29
386.881	84.14
387.091	114.86
387.301	41.13
387.511	26.79
387.72	69.8
387.93	92.33
388.14	43.18
388.35	88.23
388.56	131.24
388.769	108.71
388.979	106.67
389.189	-10.07
389.399	30.89
389.609	22.7
389.818	88.23
390.028	71.85
390.238	96.43
390.447	114.86
390.657	28.84
390.867	84.14
391.076	80.04
391.286	98.47
391.496	16.55
391.705	114.86
391.915	106.67
392.125	90.28
392.334	90.28
392.544	77.99
392.753	112.81
392.963	57.51
393.172	100.52
393.382	69.8
393.591	100.52
393.801	43.18
394.01	118.95
394.22	67.75
394.429	100.52
394.639	63.66
394.848	49.32
395.058	102.57
395.267	116.9
395.477	32.94
395.686	57.51
395.895	135.34
396.105	207.02
396.314	90.28
396.524	174.25
396.733	161.96
396.942	92.33
397.152	196.78
397.361	123.05
397.57	82.09
397.78	47.27
397.989	133.29
398.198	153.77
398.407	57.51
398.617	149.67
398.826	63.66
399.035	88.23
399.244	63.66
399.453	149.67
399.663	112.81
399.872	153.77
400.081	123.05
400.29	133.29
400.499	102.57
400.708	159.91
400.917	41.13
401.127	110.76
401.336	106.67
401.545	139.43
401.754	164.01
401.963	121
402.172	98.47
402.381	121
402.59	75.95
402.799	153.77
403.008	123.05
403.217	155.82
403.426	182.44
403.635	180.39
403.844	170.15
404.053	139.43
404.262	98.47
404.471	221.35
404.68	133.29
404.888	141.48
405.097	63.66
405.306	110.76
405.515	118.95
405.724	188.58
405.933	151.72
406.142	266.41
406.35	221.35
406.559	176.3
406.768	178.34
406.977	286.89
407.185	264.36
407.394	219.3
407.603	254.12
407.812	200.87
408.02	256.17
408.229	194.73
408.438	286.89
408.646	166.06
408.855	260.26
409.064	209.06
409.272	235.69
409.481	331.94
409.69	274.6
409.898	250.02
410.107	366.76
410.315	352.42
410.524	329.89
410.733	303.27
410.941	383.14
411.15	407.72
411.358	456.87
411.567	397.48
411.775	444.58
411.984	426.15
412.192	450.72
412.401	483.49
412.609	471.2
412.818	497.83
413.026	575.65
413.234	512.16
413.443	542.88
413.651	534.69
413.86	655.52
414.068	569.51
414.276	731.3
414.485	589.99
414.693	704.67
414.901	735.39
415.11	694.43
415.318	745.63
415.526	735.39
415.734	839.84
415.943	780.45
416.151	850.08
416.359	915.61
416.567	899.23
416.776	977.05
416.984	1061.02
417.192	1058.97
417.4	1034.39
417.608	1018.01
417.817	1106.07
418.025	1212.57
418.233	1231
418.441	1161.37
418.649	1220.76
418.857	1204.38
419.065	1398.93
419.273	1310.87
419.481	1441.94
419.689	1583.25
419.897	1521.81
420.105	1693.84
420.313	1577.11
420.521	1710.22
420.729	1603.73
420.937	1616.02
421.145	1732.75
421.353	1857.68
421.561	2033.8
421.769	2093.19
421.977	2138.25
422.185	2042
422.393	2060.43
422.601	2386.05
422.809	2355.33
423.017	2320.52
423.224	2375.81
423.432	2629.76
423.64	2461.83
423.848	2848.9
424.056	2687.11
424.263	2910.33
424.471	2996.35
424.679	3078.27
424.887	3156.09
425.094	3334.26
425.302	3356.79
425.51	3358.84
425.718	3637.36
425.925	3532.92
426.133	3655.79
426.341	3807.34
426.548	3903.6
426.756	4032.62
426.964	4026.48
427.171	4243.56
427.379	4446.31
427.586	4446.31
427.794	4659.3
428.001	4919.39
428.209	5103.71
428.417	5005.41
428.624	5347.42
428.832	5355.61
429.039	5285.98
429.247	5421.14
429.454	5691.48
429.662	6137.93
429.869	5867.6
430.076	6142.03
430.284	6051.92
430.491	6256.72
430.699	6623.3
430.906	6574.15
431.114	6604.87
431.321	7051.33
431.528	6975.55
431.736	7499.83
431.943	7960.63
432.15	7608.37
432.358	7725.11
432.565	8157.23
432.772	8151.09
432.979	8534.06
433.187	8564.78
433.394	8849.44
433.601	9318.43
433.808	9392.16
434.016	9207.84
434.223	9529.37
434.43	10164.24
434.637	9949.2
434.844	10670.09
435.052	10799.11
435.259	10977.28
435.466	10731.53
435.673	10686.47
435.88	11438.08
436.087	12048.37
436.294	12142.58
436.501	11786.23
436.708	11974.64
436.915	12591.08
437.122	12814.31
437.329	12873.7
437.537	13447.13
437.743	13524.96
437.95	13549.53
438.157	14188.5
438.364	14362.58
438.571	14806.98
438.778	14716.87
438.985	15986.61
439.192	15376.32
439.399	15814.59
439.606	15495.1
439.813	16353.2
440.02	17473.44
440.227	17094.57
440.433	16777.13
440.64	17459.1
440.847	17287.07
441.054	17770.4
441.261	19193.73
441.467	18464.66
441.674	18937.74
441.881	19916.67
442.088	19777.4
442.294	19842.94
442.501	20184.95
442.708	20422.52
442.914	21227.37
443.121	22060.89
443.328	21380.96
443.534	22777.68
443.741	22107.99
443.948	22075.23
444.154	23998.27
444.361	23531.33
444.568	23727.94
444.774	23572.29
444.981	23867.2
445.187	24588.08
445.394	25603.88
445.6	25079.6
445.807	27840.26
446.013	26392.34
446.22	26754.83
446.426	27739.91
446.633	28051.2
446.839	28948.21
447.046	27973.38
447.252	29628.13
447.459	29538.02
447.665	29478.63
447.871	30713.56
448.078	31753.93
448.284	30256.86
448.491	30748.37
448.697	32284.35
448.903	32335.55
449.11	32755.38
449.316	32220.86
449.522	32693.94
449.728	33758.89
449.935	33433.26
450.141	33877.67
450.347	34909.85
450.553	33310.38
450.76	33836.71
450.966	34567.84
451.172	34590.36
451.378	35014.29
451.584	34459.29
451.791	35329.68
451.997	35159.7
452.203	35925.64
452.409	35737.23
452.615	35694.22
452.821	34301.6
453.027	33644.2
453.233	35626.64
453.44	33980.07
453.646	34565.79
453.852	34573.98
454.058	35305.1
454.264	34156.19
454.47	34772.63
454.676	33627.82
454.882	34954.9
455.088	31796.93
455.294	32267.97
455.5	32837.3
455.705	32927.41
455.911	31876.8
456.117	31166.16
456.323	30502.62
456.529	28892.91
456.735	30539.48
456.941	29378.28
457.147	28989.17
457.352	27875.07
457.558	27592.45
457.764	27729.67
457.97	27328.27
458.176	26955.54
458.381	26709.78
458.587	25442.09
458.793	25351.98
458.999	23961.41
459.204	25650.98
459.41	24813.36
459.616	23379.78
459.821	23293.77
460.027	22990.67
460.233	22792.01
460.438	21727.07
460.644	22028.12
460.85	20934.51
461.055	20676.46
461.261	20457.33
461.466	19040.14
461.672	18782.09
461.878	19961.72
462.083	18499.47
462.289	18241.43
462.494	17917.85
462.7	17237.92
462.905	16734.12
463.111	17375.14
463.316	17399.71
463.522	16836.52
463.727	17199.01
463.932	16828.33
464.138	16992.17
464.343	16947.11
464.549	16353.2
464.754	16959.4
464.959	16861.1
465.165	16676.78
465.37	16019.38
465.575	15470.53
465.781	16224.18
465.986	16281.52
466.191	16013.24
466.397	15388.61
466.602	14776.27
466.807	15333.31
467.012	15224.77
467.218	15077.32
467.423	14893
467.628	15126.47
467.833	15634.36
468.038	14999.49
468.244	14587.85
468.449	15159.24
468.654	14626.76
468.859	14567.37
469.064	14393.3
469.269	13963.22
469.474	14211.03
469.679	14467.02
469.885	14159.83
470.09	13981.65
470.295	13713.37
470.5	13641.69
470.705	13885.4
470.91	13402.08
471.115	13242.34
471.32	13219.81
471.525	13148.13
471.73	13264.86
471.935	12969.96
472.139	12298.22
472.344	12566.51
472.549	12599.27
472.754	12548.08
472.959	12259.31
473.164	11898.87
473.369	11888.63
473.574	12126.19
473.778	12259.31
473.983	11839.48
474.188	11841.53
474.393	11366.4
474.598	11696.12
474.802	11112.45
475.007	11272.19
475.212	11282.43
475.417	10924.04
475.621	10885.12
475.826	10983.43
476.031	10528.78
476.235	10506.25
476.44	10715.14
476.645	10584.07
476.849	10375.18
477.054	10432.52
477.259	10174.48
477.463	10289.17
477.668	9773.08
477.872	10117.14
478.077	9682.97
478.282	9945.11
478.486	9553.94
478.691	9631.77
478.895	9775.13
479.1	9599
479.304	9525.27
479.509	9195.55
479.713	9367.58
479.918	9185.31
480.122	9046.05
480.326	9334.81
480.531	9273.37
480.735	9173.02
480.94	8955.94
481.144	9185.31
481.348	8878.12
481.553	8955.94
481.757	8884.26
481.961	8978.47
482.166	9003.04
482.37	8890.4
482.574	8788
482.778	8665.13
482.983	8953.89
483.187	8677.41
483.391	8841.25
483.595	8597.54
483.8	8478.76
484.004	8812.58
484.208	8857.64
484.412	8749.09
484.616	8785.96
484.821	8857.64
485.025	8931.36
485.229	8859.68
485.433	8757.29
485.637	8781.86
485.841	8818.72
486.045	8734.76
486.249	8871.97
486.453	8984.61
486.657	8796.2
486.861	8839.2
487.065	8677.41
487.269	8652.84
487.473	8505.38
487.677	8724.52
487.881	8935.46
488.085	8773.67
488.289	8628.26
488.493	8722.47
488.697	8843.3
488.901	8865.83
489.105	9062.43
489.309	8755.24
489.512	8769.57
489.716	8865.83
489.92	8927.27
490.124	8798.24
490.328	9168.93
490.531	9062.43
490.735	9103.39
490.939	9056.29
491.143	8919.07
491.346	9064.48
491.55	9252.89
491.754	9027.62
491.958	9091.1
492.161	9242.65
492.365	9177.12
492.569	9250.85
492.772	9394.2
492.976	9494.55
493.18	9443.35
493.383	9504.79
493.587	9654.3
493.79	9564.18
493.994	9799.7
494.197	9660.44
494.401	9871.38
494.605	9900.05
494.808	10080.27
495.012	10020.88
495.215	10016.79
495.419	10270.73
495.622	9967.63
495.825	10080.27
496.029	10262.54
496.232	10475.53
496.436	10252.3
496.639	10463.24
496.843	10651.66
497.046	10864.64
497.249	10885.12
497.453	10897.41
497.656	11112.45
497.859	11073.54
498.063	11243.52
498.266	11329.53
498.469	11511.8
498.673	11892.73
498.876	11960.31
499.079	11819
499.282	11829.24
499.485	12259.31
499.689	12351.47
499.892	12443.63
500.095	12230.64
500.298	12705.77
500.501	12722.15
500.705	13144.03
500.908	12994.53
501.111	13326.3
501.314	13285.34
501.517	13572.06
501.72	13412.32
501.923	13658.07
502.126	13909.97
502.329	14039
502.532	14383.06
502.735	14366.67
502.938	14376.91
503.141	14489.55
503.344	14847.94
503.547	14880.71
503.75	15128.52
503.953	15484.86
504.156	15423.42
504.359	15759.29
504.562	15753.15
504.765	16082.87
504.968	16426.93
505.17	16328.63
505.373	16584.62
505.576	16594.86
505.779	16854.95
505.982	16924.58
506.185	17002.41
506.387	17438.62
506.59	17717.15
506.793	17827.74
506.996	17670.05
507.198	18417.55
507.401	18329.49
507.604	18489.23
507.807	18755.47
508.009	18806.67
508.212	19027.85
508.415	19459.97
508.617	19646.33
508.82	19595.14
509.022	19713.92
509.225	20119.42
509.428	19961.72
509.63	20252.53
509.833	20318.07
510.035	20963.18
510.238	20490.1
510.44	21055.34
510.643	21524.32
510.845	21634.91
511.048	21426.02
511.25	21970.78
511.453	21784.41
511.655	22650.71
511.858	22454.1
512.06	22925.13
512.262	23148.36
512.465	23232.33
512.667	23478.08
512.87	23600.96
513.072	23570.24
513.274	24217.4
513.477	24620.85
513.679	24297.27
513.881	24794.93
514.084	25458.47
514.286	25126.7
514.488	25374.5
514.69	26005.28
514.893	26091.29
515.095	26113.82
515.297	26593.04
515.499	26277.66
515.701	27141.9
515.904	27283.21
516.106	27401.99
516.308	27803.39
516.51	27830.02
516.712	27887.36
516.914	28249.85
517.116	28786.42
517.318	28774.13
517.52	28757.75
517.722	29099.76
517.925	29468.39
518.127	30195.42
518.329	30078.69
518.531	30000.86
518.733	30846.68
518.935	30940.88
519.136	30818
519.338	31559.37
519.54	31585.99
519.742	31856.32
519.944	31950.53
520.146	32462.52
520.348	32487.1
520.55	32726.71
520.752	33074.87
520.954	33758.89
521.155	33316.53
521.357	33529.52
521.559	34162.34
521.761	34909.85
521.963	34522.78
522.164	34909.85
522.366	35090.07
522.568	35237.52
522.77	35579.53
522.971	36388.48
523.173	35862.15
523.375	36429.44
523.576	36365.95
523.778	36175.49
523.98	36849.27
524.181	37201.52
524.383	37211.76
524.584	37379.7
524.786	37955.18
524.988	38028.9
525.189	37891.69
525.391	38211.17
525.592	38422.11
525.794	38624.86
525.995	38774.36
526.197	38649.44
526.398	38952.54
526.6	39620.17
526.801	39472.72
527.003	39661.13
527.204	39579.21
527.406	40023.62
527.607	39994.95
527.808	40246.85
528.01	39851.59
528.211	40341.06
528.412	40943.16
528.614	40752.7
528.815	40965.69
529.016	41451.06
529.218	40908.35
529.419	40918.59
529.62	41229.88
529.822	41266.74
530.023	41741.87
530.224	41504.31
530.425	41569.84
530.626	41115.19
530.828	41459.25
531.029	42116.65
531.23	41584.18
531.431	41786.93
531.632	42311.21
531.833	41938.47
532.035	41811.5
532.236	42425.89
532.437	42714.65
532.638	42143.27
532.839	42323.49
533.04	42618.4
533.241	42276.39
533.442	42907.16
533.643	42487.33
533.844	42362.4
534.045	42757.66
534.246	42214.95
534.447	42720.8
534.648	42333.73
534.849	42821.15
535.05	42667.55
535.251	42626.59
535.451	42778.14
535.652	43101.72
535.853	42661.41
536.054	43146.78
536.255	43023.9
536.456	42505.76
536.657	43193.88
536.857	42747.42
537.058	42720.8
537.259	43322.9
537.46	42804.77
537.66	42872.35
537.861	42769.95
538.062	42651.17
538.263	42794.53
538.463	42692.13
538.664	42788.38
538.865	43333.14
539.065	43163.16
539.266	42446.37
539.466	43148.82
539.667	42405.41
539.868	43195.93
540.068	42823.2
540.269	42913.31
540.469	43079.19
540.67	42456.61
540.87	42589.73
541.071	42728.99
541.271	42941.98
541.472	42997.27
541.672	42503.71
541.873	42714.65
542.073	42462.75
542.274	43152.92
542.474	42868.25
542.675	42890.78
542.875	42960.41
543.075	43249.17
543.276	42372.64
543.476	43099.67
543.676	42962.46
543.877	42905.12
544.077	42935.84
544.277	42872.35
544.478	42561.06
544.678	42618.4
544.878	42997.27
545.078	42704.42
545.279	42456.61
545.479	42321.44
545.679	42575.39
545.879	42780.19
546.079	42708.51
546.28	42380.84
546.48	42503.71
546.68	42604.06
546.88	42634.78
547.08	42913.31
547.28	42626.59
547.48	42210.85
547.68	42233.38
547.88	42382.88
548.081	42999.32
548.281	42794.53
548.481	42552.87
548.681	42786.33
548.881	42556.96
549.081	42731.04
549.28	42737.18
549.48	42841.63
549.68	42472.99
549.88	42937.88
550.08	42221.09
550.28	42663.46
550.48	42241.57
550.68	43025.95
550.88	42120.74
551.08	42014.25
551.279	42382.88
551.479	42331.68
551.679	42346.02
551.879	42262.05
552.079	42751.52
552.278	42268.2
552.478	42503.71
552.678	42155.56
552.878	42571.3
553.077	42298.92
553.277	41848.36
553.477	42536.48
553.676	41961
553.876	42163.75
554.076	41721.39
554.275	41948.71
554.475	41743.92
554.674	42004.01
554.874	42061.35
555.074	41752.11
555.273	41811.5
555.473	42176.04
555.672	41451.06
555.872	42024.49
556.071	41725.49
556.271	42044.97
556.47	41692.72
556.67	41549.36
556.869	41408.05
557.068	41684.53
557.268	41446.96
557.467	41422.39
557.667	41311.8
557.866	41449.01
558.065	41127.48
558.265	41115.19
558.464	40715.84
558.663	41887.28
558.863	41180.73
559.062	41735.73
559.261	41029.18
559.461	41295.41
559.66	40599.1
559.859	40769.08
560.058	40488.51
560.258	40492.61
560.457	40314.44
560.656	40787.52
560.855	40422.98
561.054	40674.88
561.253	40293.96
561.453	40382.02
561.652	40173.13
561.851	40308.29
562.05	40285.76
562.249	39966.28
562.448	40482.37
562.647	40263.24
562.846	39730.76
563.045	39855.69
563.244	39538.26
563.443	39980.62
563.642	39130.71
563.841	39312.98
564.04	39347.79
564.239	39425.62
564.438	38932.06
564.637	39800.4
564.836	39079.51
565.035	38735.45
565.234	38950.49
565.432	38657.63
565.631	38692.44
565.83	38678.11
566.029	38409.82
566.228	38448.74
566.427	38303.33
566.625	38205.03
566.824	37746.28
567.023	38213.22
567.222	37240.43
567.42	38020.71
567.619	37414.51
567.818	37746.28
568.016	37430.9
568.215	37738.09
568.414	37359.22
568.612	37615.21
568.811	37133.94
569.01	37355.12
569.208	37121.65
569.407	37377.65
569.605	36890.23
569.804	37082.74
570.002	36712.06
570.201	37021.3
570.4	36507.26
570.598	36361.86
570.797	36400.77
570.995	36464.25
571.193	35690.12
571.392	36576.89
571.59	35800.71
571.789	35853.96
571.987	36079.24
572.186	35761.8
572.384	35638.92
572.582	35786.38
572.781	35706.51
572.979	35229.33
573.177	35194.51
573.376	35366.54
573.574	34979.48
573.772	35325.58
573.971	34948.76
574.169	34743.96
574.367	34471.58
574.565	34991.76
574.763	34358.94
574.962	34565.79
575.16	34191.01
575.358	34360.99
575.556	33861.29
575.754	34555.55
575.952	33812.13
576.151	34293.41
576.349	33781.42
576.547	33722.02
576.745	33648.3
576.943	34004.64
577.141	33640.11
577.339	33326.77
577.537	33472.17
577.735	33220.27
577.933	33042.1
578.131	33066.67
578.329	32788.15
578.527	32362.17
578.725	32810.68
578.923	32884.4
579.121	32431.8
579.319	32652.98
579.516	32964.28
579.714	32712.38
579.912	32016.07
580.11	32112.32
580.308	32247.49
580.506	32181.95
580.704	31667.91
580.901	31717.06
581.099	32181.95
581.297	31844.04
581.495	31532.75
581.692	31755.97
581.89	31182.54
582.088	31448.78
582.285	31125.2
582.483	31731.4
582.681	31059.66
582.878	30985.94
583.076	30897.88
583.274	31354.57
583.471	30602.97
583.669	30973.65
583.866	30435.03
584.064	30873.3
584.262	30146.27
584.459	30418.65
584.657	30228.19
584.854	30146.27
585.052	29853.41
585.249	30047.97
585.447	30303.96
585.644	29763.3
585.841	29695.72
586.039	30303.96
586.236	29542.12
586.434	29628.13
586.631	29279.98
586.828	29607.65
587.026	29654.76
587.223	29220.59
587.42	29050.61
587.618	29054.7
587.815	28962.54
588.012	28966.64
588.21	28505.85
588.407	29310.7
588.604	28935.92
588.801	28536.57
588.999	28528.38
589.196	28481.27
589.393	28352.25
589.59	28081.92
589.787	27846.4
589.984	28116.73
590.182	27928.32
590.379	28278.52
590.576	27901.7
590.773	27926.27
590.97	27526.92
591.167	27756.29
591.364	27375.37
591.561	27590.41
591.758	27014.93
591.955	27285.26
592.152	27166.48
592.349	27027.21
592.546	27406.09
592.743	27139.85
592.94	26765.07
593.137	27094.8
593.334	26894.1
593.531	26554.13
593.727	26754.83
593.924	26703.64
594.121	26433.3
594.318	26644.24
594.515	26218.27
594.712	26591
594.908	26318.62
595.105	26001.18
595.302	26007.33
595.499	26195.74
595.696	25634.6
595.892	25814.82
596.089	25587.49
596.286	25816.86
596.482	25884.45
596.679	25569.06
596.876	25911.07
597.072	25196.33
597.269	25202.47
597.466	25206.57
597.662	25157.42
597.859	25278.25
598.055	25046.83
598.252	25032.49
598.448	24903.47
598.645	24604.47
598.841	24760.11
599.038	24715.06
599.234	24428.34
599.431	24188.73
599.627	24250.17
599.824	24561.46
600.02	23949.12
600.217	24237.88
600.413	24235.83
600.609	24117.05
600.806	23908.16
601.002	23992.12
601.198	23947.07
601.395	23545.67
601.591	23684.93
601.787	23926.59
601.984	23502.66
602.18	23617.35
602.376	23170.89
602.572	23461.7
602.769	23275.34
602.965	22925.13
603.161	23164.75
603.357	22826.83
603.553	23099.21
603.75	22742.86
603.946	22845.26
604.142	22933.32
604.338	22652.75
604.534	22652.75
604.73	22398.8
604.926	22239.06
605.122	22450
605.318	22071.13
605.514	22064.99
605.71	22034.27
605.906	21872.48
606.102	22273.88
606.298	22159.19
606.494	22003.55
606.69	21682.02
606.886	22028.12
607.082	21686.11
607.278	21972.83
607.474	21571.43
607.67	21876.57
607.866	21340.01
608.062	21620.58
608.257	21475.17
608.453	21426.02
608.649	21610.34
608.845	21104.49
609.041	21225.32
609.236	20963.18
609.432	21202.79
609.628	21249.89
609.824	21114.73
610.019	21110.63
610.215	21153.64
610.411	21030.76
610.606	20836.2
610.802	20709.23
610.998	20932.46
611.193	20778.86
611.389	20502.39
611.584	20660.08
611.78	20488.05
611.976	20324.21
612.171	20481.91
612.367	20277.11
612.562	20500.34
612.758	19937.15
612.953	20232.05
613.149	20475.76
613.344	20330.36
613.539	20213.62
613.735	20223.86
613.93	20012.92
614.126	20146.04
614.321	20166.52
614.517	19951.48
614.712	20010.87
614.907	19816.32
615.103	20019.07
615.298	19591.04
615.493	20006.78
615.688	19425.15
615.884	20180.85
616.079	19535.74
616.274	19621.76
616.47	19679.1
616.665	19677.05
616.86	19474.31
617.055	19548.03
617.25	19371.91
617.445	19699.58
617.641	19095.43
617.836	19097.48
618.031	18954.12
618.226	19158.92
618.421	19124.1
618.616	19179.4
618.811	18706.32
619.006	18954.12
619.201	18567.06
619.396	18724.75
619.591	18403.22
619.786	18585.49
619.981	18272.15
620.176	18425.75
620.371	18243.48
620.566	18196.37
620.761	18274.2
620.956	18276.24
621.151	17944.47
621.346	18038.68
621.541	17657.76
621.735	17975.19
621.93	17561.5
622.125	17571.74
622.32	17393.57
622.515	17502.11
622.709	17139.62
622.904	17246.12
623.099	17303.46
623.294	16908.2
623.488	17205.16
623.683	17059.75
623.878	17049.51
624.072	16789.42
624.267	16762.79
624.462	16730.03
624.656	16469.94
624.851	16455.6
625.046	16406.45
625.24	16426.93
625.435	16009.14
625.629	15968.18
625.824	16048.05
626.018	16007.09
626.213	15615.93
626.407	15867.83
626.602	15445.95
626.796	15531.97
626.991	15591.36
627.185	15439.81
627.38	15189.95
627.574	15095.75
627.768	15009.73
627.963	15083.46
628.157	14800.84
628.352	14866.38
628.546	14723.02
628.74	14571.47
628.935	14704.59
629.129	14503.89
629.323	14286.8
629.517	14632.91
629.712	14327.76
629.906	14147.54
630.1	14159.83
630.294	14213.07
630.489	13926.36
630.683	14280.66
630.877	13764.57
631.071	13950.93
631.265	13795.29
631.459	13752.28
631.653	13688.79
631.848	13688.79
632.042	13535.2
632.236	13631.45
632.43	13449.18
632.624	13426.65
632.818	13047.78
633.012	12867.56
633.206	13010.92
633.4	13086.69
633.594	12744.68
633.788	12806.12
633.982	12802.02
634.176	12859.37
634.369	12609.51
634.563	12503.02
634.757	12476.4
634.951	12613.61
635.145	12570.6
635.339	12380.14
635.533	12261.36
635.726	12095.47
635.92	11952.12
636.114	12036.08
636.308	12036.08
636.501	11739.13
636.695	11888.63
636.889	11896.82
637.083	11790.33
637.276	11622.39
637.47	11618.3
637.664	11304.96
637.857	11657.21
638.051	11569.15
638.244	11270.14
638.438	11208.7
638.632	11202.56
638.825	11206.66
639.019	11024.39
639.212	10965
639.406	11014.15
639.599	10962.95
639.793	10950.66
639.986	10483.72
640.18	10723.34
640.373	10651.66
640.567	10579.98
640.76	10401.8
640.954	10387.47
641.147	10311.69
641.34	10170.38
641.534	10356.75
641.727	10432.52
641.92	10121.23
642.114	10213.39
642.307	10182.67
642.5	10215.44
642.694	9766.93
642.887	9754.65
643.08	10047.51
643.273	9687.06
643.467	9773.08
643.66	9750.55
643.853	9576.47
644.046	9533.47
644.239	9429.02
644.432	9328.67
644.626	9455.64
644.819	9343
645.012	9408.54
645.205	9388.06
645.398	9369.63
645.591	9300
645.784	9140.26
645.977	9052.19
646.17	9039.9
646.363	9056.29
646.556	8722.47
646.749	8876.07
646.942	8693.8
647.135	8878.12
647.328	8646.69
647.521	8788
647.714	8620.07
647.907	8644.65
648.099	8409.13
648.292	8624.17
648.485	8448.04
648.678	8284.2
648.871	8304.68
649.064	8214.57
649.256	8282.16
649.449	8185.9
649.642	8030.26
649.835	8153.13
650.027	8278.06
650.22	8181.81
650.413	8005.68
650.605	7903.28
650.798	8161.33
650.991	7870.51
651.183	7899.19
651.376	7856.18
651.568	7800.88
651.761	7751.73
651.954	7733.3
652.146	7651.38
652.339	7444.54
652.531	7557.18
652.724	7684.15
652.916	7520.31
653.109	7487.54
653.301	7331.9
653.494	7530.55
653.686	7391.29
653.879	7364.67
654.071	7151.68
654.263	7241.79
654.456	7262.27
654.648	7260.22
654.84	7114.81
655.033	7153.73
655.225	7157.82
655.417	7030.85
655.61	6871.11
655.802	6967.36
655.994	6918.21
656.186	6965.31
656.379	6881.35
656.571	6684.74
656.763	6817.86
656.955	6643.78
657.148	6819.91
657.34	6697.03
657.532	6568.01
657.724	6531.14
657.916	6629.45
658.108	6508.62
658.3	6436.94
658.492	6416.46
658.684	6408.26
658.876	6230.09
659.068	6432.84
659.26	6424.65
659.452	6262.86
659.644	6365.26
659.836	6146.12
660.028	6158.41
660.22	6121.55
660.412	6084.69
660.604	6088.78
660.796	5978.19
660.988	6060.11
661.18	5984.34
661.372	5918.8
661.563	6047.82
661.755	5843.03
661.947	5857.36
662.139	5976.14
662.331	5824.59
662.522	5808.21
662.714	5843.03
662.906	5728.34
663.097	5726.29
663.289	5750.87
663.481	5630.04
663.673	5572.69
663.864	5531.73
664.056	5689.43
664.247	5419.1
664.439	5527.64
664.631	5572.69
664.822	5445.72
665.014	5402.71
665.205	5394.52
665.397	5333.08
665.588	5326.94
665.78	5333.08
665.971	5447.77
666.163	5226.59
666.354	5204.06
666.546	5308.51
666.737	5193.82
666.929	5206.11
667.12	5310.55
667.311	5193.82
667.503	5001.31
667.694	5240.92
667.885	5040.22
668.077	5085.28
668.268	5038.17
668.459	5040.22
668.651	5017.69
668.842	5013.6
669.033	5019.74
669.224	4952.16
669.416	4966.49
669.607	4855.9
669.798	4941.92
669.989	4892.77
670.18	4907.1
670.371	4860
670.563	4806.75
670.754	4915.3
670.945	4751.46
671.136	4751.46
671.327	4702.31
671.518	4548.71
671.709	4630.63
671.9	4780.13
672.091	4909.15
672.282	4851.81
672.473	4741.22
672.664	4604
672.855	4597.86
673.046	4745.31
673.237	4630.63
673.428	4692.07
673.619	4591.72
673.809	4538.47
674	4575.33
674.191	4515.94
674.382	4501.61
674.573	4513.89
674.764	4378.73
674.954	4550.76
675.145	4421.74
675.336	4601.96
675.527	4462.69
675.717	4327.53
675.908	4431.98
676.099	4384.87
676.289	4354.15
676.48	4259.95
676.671	4237.42
676.861	4315.24
677.052	4321.38
677.243	4327.53
677.433	4368.49
677.624	4348.01
677.814	4386.92
678.005	4409.45
678.195	4143.21
678.386	4298.86
678.576	4247.66
678.767	4218.99
678.957	4188.27
679.148	4223.08
679.338	4266.09
679.529	4196.46
679.719	4307.05
679.909	4169.84
680.1	4108.4
680.29	4313.19
680.481	4137.07
680.671	4071.53
680.861	4118.64
681.052	4249.71
681.242	4169.84
681.432	4206.7
681.622	4175.98
681.813	4247.66
682.003	4212.84
682.193	4147.31
682.383	4212.84
682.573	4190.31
682.764	4110.44
682.954	4167.79
683.144	4053.1
683.334	4130.92
683.524	4114.54
683.714	4073.58
683.904	4026.48
684.094	4143.21
684.284	4137.07
684.474	4067.44
684.664	4053.1
684.854	4046.96
685.044	3962.99
685.234	4008.05
685.424	4042.86
685.614	4008.05
685.804	4069.48
685.994	4126.83
686.184	4042.86
686.374	3866.74
686.564	3915.89
686.753	4049
686.943	3983.47
687.133	4067.44
687.323	3885.17
687.513	4075.63
687.702	3872.88
687.892	3776.63
688.082	3764.34
688.272	3891.31
688.461	3924.08
688.651	3803.25
688.841	3827.82
689.03	3674.23
689.22	3758.19
689.41	3768.43
689.599	3668.08
689.789	3702.9
689.979	3663.99
690.168	3721.33
690.358	3715.19
690.547	3645.56
690.737	3682.42
690.926	3592.31
691.116	3508.34
691.305	3580.02
691.495	3600.5
691.684	3586.16
691.874	3573.88
692.063	3547.25
692.252	3584.12
692.442	3633.27
692.631	3463.29
692.82	3442.81
693.01	3424.37
693.199	3459.19
693.388	3330.17
693.578	3412.09
693.767	3586.16
693.956	3367.03
694.146	3473.53
694.335	3397.75
694.524	3532.92
694.713	3461.24
694.902	3442.81
695.092	3446.9
695.281	3381.37
695.47	3381.37
695.659	3303.54
695.848	3428.47
696.037	3340.41
696.226	3424.37
696.415	3319.93
696.604	3287.16
696.793	3303.54
696.982	3453.05
697.171	3346.55
697.36	3358.84
697.549	3309.69
697.738	3221.63
697.927	3274.87
698.116	3379.32
698.305	3219.58
698.494	3174.52
698.683	3168.38
698.872	3356.79
699.061	3283.06
699.25	3305.59
699.438	3156.09
699.627	3262.58
699.816	3297.4
700.005	3246.2
700.193	3184.76
700.382	3203.19
700.571	3195
700.76	3164.28
700.948	3264.63
701.137	3330.17
701.326	3137.66
701.514	3020.92
701.703	3238.01
701.892	3195
702.08	3321.98
702.269	3332.22
702.457	3203.19
702.646	3139.71
702.834	3197.05
703.023	3254.39
703.212	3248.25
703.4	3301.5
703.589	3123.32
703.777	3223.67
703.965	3203.19
704.154	3334.26
704.342	3135.61
704.531	3186.81
704.719	3168.38
704.907	3287.16
705.096	3188.86
705.284	3244.15
705.472	3238.01
705.661	3317.88
705.849	3217.53
706.037	3364.98
706.226	3217.53
706.414	3266.68
706.602	3295.35
706.79	3258.49
706.979	3158.14
707.167	3350.65
707.355	3240.06
707.543	3278.97
707.731	3348.6
707.919	3319.93
708.107	3252.35
708.296	3246.2
708.484	3197.05
708.672	3358.84
708.86	3395.7
709.048	3264.63
709.236	3123.32
709.424	3383.42
709.612	3219.58
709.8	3321.98
709.988	3274.87
710.176	3252.35
710.364	3246.2
710.551	3272.82
710.739	3244.15
710.927	3205.24
711.115	3336.31
711.303	3199.1
711.491	3211.39
711.679	3305.59
711.866	3289.21
712.054	3438.71
712.242	3416.18
712.43	3346.55
712.617	3303.54
712.805	3244.15
712.993	3199.1
713.181	3166.33
713.368	3270.78
713.556	3272.82
713.744	3264.63
713.931	3330.17
714.119	3256.44
714.306	3319.93
714.494	3147.9
714.682	3301.5
714.869	3184.76
715.057	3184.76
715.244	3190.91
715.432	3315.83
715.619	3301.5
715.807	3289.21
715.994	3317.88
716.182	3238.01
716.369	3295.35
716.556	3311.74
716.744	3287.16
716.931	3154.04
717.119	3307.64
717.306	3373.18
717.493	3272.82
717.681	3258.49
717.868	3211.39
718.055	3324.02
718.242	3383.42
718.43	3199.1
718.617	3385.46
718.804	3348.6
718.991	3387.51
719.179	3278.97
719.366	3301.5
719.553	3274.87
719.74	3285.11
719.927	3391.61
720.114	3311.74
720.301	3336.31
720.488	3246.2
720.676	3330.17
720.863	3287.16
721.05	3170.43
721.237	3330.17
721.424	3326.07
721.611	3223.67
721.798	3219.58
721.985	3235.96
722.172	3281.02
722.358	3242.11
722.545	3299.45
722.732	3217.53
722.919	3321.98
723.106	3158.14
723.293	3391.61
723.48	3235.96
723.667	3244.15
723.853	3309.69
724.04	3266.68
724.227	3309.69
724.414	3242.11
724.6	3201.15
724.787	3262.58
724.974	3303.54
725.161	3215.48
725.347	3291.26
725.534	3258.49
725.72	3291.26
725.907	3281.02
726.094	3256.44
726.28	3250.3
726.467	3256.44
726.653	3338.36
726.84	3164.28
727.027	3254.39
727.213	3176.57
727.4	3293.3
727.586	3260.54
727.773	3276.92
727.959	3252.35
728.145	3258.49
728.332	3178.62
728.518	3258.49
728.705	3268.73
728.891	3319.93
729.077	3246.2
729.264	3283.06
729.45	3205.24
729.636	3285.11
729.823	3242.11
730.009	3188.86
730.195	3295.35
730.382	3121.28
730.568	3205.24
730.754	3250.3
730.94	3209.34
731.126	3369.08
731.313	3285.11
731.499	3182.71
731.685	3264.63
731.871	3278.97
732.057	3254.39
732.243	3100.8
732.429	3162.23
732.615	3182.71
732.801	3264.63
732.987	3115.13
733.173	3201.15
733.359	3145.85
733.545	3113.08
733.731	3147.9
733.917	3190.91
734.103	3117.18
734.289	3270.78
734.475	3104.89
734.661	3197.05
734.847	3156.09
735.033	3258.49
735.219	3182.71
735.404	3127.42
735.59	3172.47
735.776	3166.33
735.962	3139.71
736.148	3195
736.333	3182.71
736.519	3180.67
736.705	3131.51
736.89	3022.97
737.076	3180.67
737.262	2930.81
737.447	3010.68
737.633	3061.88
737.819	3154.04
738.004	3014.78
738.19	3104.89
738.375	3033.21
738.561	3145.85
738.747	3043.45
738.932	2986.11
739.118	2928.77
739.303	2996.35
739.489	3049.6
739.674	2906.24
739.859	2902.14
740.045	2904.19
740.23	2969.73
740.416	2928.77
740.601	2871.42
740.786	2748.54
740.972	2965.63
741.157	2979.97
741.342	2877.57
741.528	2902.14
741.713	2930.81
741.898	2869.37
742.084	2898.05
742.269	2898.05
742.454	2789.5
742.639	2834.56
742.824	2885.76
743.01	2877.57
743.195	2840.7
743.38	2889.85
743.565	2732.16
743.75	2717.83
743.935	2916.48
744.12	2726.02
744.305	2578.56
744.49	2740.35
744.675	2689.15
744.86	2672.77
745.045	2664.58
745.23	2642.05
745.415	2582.66
745.6	2642.05
745.785	2646.15
745.97	2570.37
746.155	2601.09
746.34	2613.38
746.525	2582.66
746.71	2627.71
746.895	2594.95
747.079	2566.28
747.264	2388.1
747.449	2551.94
747.634	2521.22
747.819	2515.08
748.003	2482.31
748.188	2402.44
748.373	2351.24
748.557	2439.3
748.742	2291.85
748.927	2465.93
749.111	2375.81
749.296	2433.16
749.481	2467.97
749.665	2386.05
749.85	2218.12
750.034	2367.62
750.219	2248.84
750.404	2250.89
750.588	2232.46
750.773	2189.45
750.957	2199.69
751.141	2150.54
751.326	2146.44
751.51	2101.39
751.695	2130.06
751.879	2095.24
752.064	2029.71
752.248	2099.34
752.432	2152.59
752.617	2013.32
752.801	2001.04
752.985	2054.28
753.17	1921.17
753.354	2009.23
753.538	2056.33
753.722	1953.93
753.907	2042
754.091	1915.02
754.275	1915.02
754.459	1867.92
754.643	1921.17
754.828	1763.47
755.012	1902.73
755.196	1794.19
755.38	1792.14
755.564	1808.53
755.748	1869.97
755.932	1929.36
756.116	1831.05
756.3	1736.85
756.484	1761.42
756.668	1786
756.852	1734.8
757.036	1829.01
757.22	1753.23
757.404	1656.98
757.588	1706.13
757.772	1677.46
757.956	1738.9
758.14	1792.14
758.323	1679.51
758.507	1732.75
758.691	1712.27
758.875	1689.74
759.059	1730.7
759.242	1530
759.426	1474.71
759.61	1587.35
759.794	1441.94
759.977	1634.45
760.161	1589.39
760.345	1523.86
760.528	1583.25
760.712	1505.43
760.895	1443.99
761.079	1527.96
761.263	1484.95
761.446	1554.58
761.63	1362.07
761.813	1491.09
761.997	1460.37
762.18	1435.8
762.364	1464.47
762.547	1370.26
762.731	1468.56
762.914	1495.19
763.098	1441.94
763.281	1390.74
763.464	1368.21
763.648	1394.84
763.831	1435.8
764.015	1386.65
764.198	1327.25
764.381	1360.02
764.564	1380.5
764.748	1333.4
764.931	1400.98
765.114	1312.92
765.297	1257.62
765.481	1366.17
765.664	1396.89
765.847	1247.38
766.03	1329.3
766.213	1321.11
766.397	1325.21
766.58	1263.77
766.763	1372.31
766.946	1296.53
767.129	1222.81
767.312	1253.53
767.495	1224.86
767.678	1327.25
767.861	1312.92
768.044	1271.96
768.227	1206.42
768.41	1216.66
768.593	1245.34
768.776	1161.37
768.959	1204.38
769.142	1265.82
769.324	1175.7
769.507	1048.73
769.69	1175.7
769.873	1112.22
770.056	1253.53
770.239	1214.62
770.421	1085.59
770.604	1239.19
770.787	1151.13
770.97	1124.51
771.152	1161.37
771.335	1120.41
771.518	1128.6
771.7	1235.1
771.883	1134.75
772.066	1038.49
772.248	1144.99
772.431	1058.97
772.613	1067.16
772.796	1032.35
772.978	1009.82
773.161	999.58
773.343	1065.11
773.526	1067.16
773.708	983.2
773.891	977.05
774.073	983.2
774.256	966.81
774.438	1022.11
774.621	946.33
774.803	1044.63
774.985	964.76
775.168	870.56
775.35	993.44
775.532	1007.77
775.715	950.43
775.897	946.33
776.079	995.48
776.261	903.32
776.444	950.43
776.626	923.8
776.808	878.75
776.99	891.04
777.173	932
777.355	934.04
777.537	843.93
777.719	868.51
777.901	956.57
778.083	817.31
778.265	788.64
778.447	919.71
778.629	770.21
778.811	770.21
778.993	850.08
779.175	778.4
779.357	788.64
779.539	733.34
779.721	794.78
779.903	862.37
780.085	764.06
780.267	719.01
780.449	776.35
780.631	839.84
780.812	802.97
780.994	762.02
781.176	696.48
781.358	710.82
781.54	751.78
781.721	745.63
781.903	731.3
782.085	725.15
782.267	676
782.448	755.87
782.63	653.47
782.812	671.9
782.993	747.68
783.175	723.1
783.357	727.2
783.538	757.92
783.72	663.71
783.901	610.47
784.083	575.65
784.264	612.51
784.446	641.18
784.627	551.07
784.809	608.42
784.99	592.03
785.172	594.08
785.353	651.42
785.535	649.38
785.716	565.41
785.897	469.16
786.079	559.27
786.26	628.9
786.441	594.08
786.623	508.07
786.804	557.22
786.985	557.22
787.167	559.27
787.348	555.17
787.529	579.75
787.71	602.27
787.891	587.94
788.073	540.83
788.254	481.44
788.435	534.69
788.616	538.79
788.797	559.27
788.978	522.4
789.159	448.68
789.34	415.91
789.522	510.11
789.703	546.98
789.884	467.11
790.065	508.07
790.246	596.13
790.427	360.61
790.607	592.03
790.788	526.5
790.969	428.2
791.15	413.86
791.331	475.3
791.512	495.78
791.693	444.58
791.874	450.72
792.054	463.01
792.235	514.21
792.416	409.76
792.597	483.49
792.778	407.72
792.958	436.39
793.139	473.25
793.32	467.11
793.5	377
793.681	499.88
793.862	374.95
794.042	377
794.223	374.95
794.404	440.48
794.584	362.66
794.765	430.24
794.945	485.54
795.126	448.68
795.306	432.29
795.487	399.52
795.667	399.52
795.848	450.72
796.028	350.37
796.209	309.41
796.389	372.9
796.57	336.04
796.75	424.1
796.93	442.53
797.111	364.71
797.291	399.52
797.471	360.61
797.652	370.85
797.832	344.23
798.012	372.9
798.192	299.17
798.373	370.85
798.553	374.95
798.733	368.81
798.913	325.8
799.093	352.42
799.274	350.37
799.454	340.13
799.634	329.89
799.814	344.23
799.994	372.9
800.174	346.28
800.354	336.04
800.534	309.41
800.714	387.24
800.894	266.41
801.074	368.81
801.254	278.69
801.434	344.23
801.614	305.32
801.794	280.74
801.974	870.56
802.154	227.5
802.334	356.52
802.514	286.89
802.693	356.52
802.873	362.66
803.053	383.14
803.233	295.08
803.413	239.78
803.592	344.23
803.772	278.69
803.952	297.13
804.131	235.69
804.311	327.85
804.491	350.37
804.67	215.21
804.85	327.85
805.03	215.21
805.209	295.08
805.389	329.89
805.568	288.93
805.748	288.93
805.928	315.56
806.107	303.27
806.287	297.13
806.466	305.32
806.646	239.78
806.825	235.69
807.004	237.74
807.184	264.36
807.363	297.13
807.543	264.36
807.722	262.31
807.901	311.46
808.081	325.8
808.26	223.4
808.439	221.35
808.619	227.5
808.798	333.99
808.977	245.93
809.156	278.69
809.336	290.98
809.515	299.17
809.694	280.74
809.873	215.21
810.052	243.88
810.231	311.46
810.411	239.78
810.59	258.21
810.769	219.3
810.948	211.11
811.127	209.06
811.306	229.54
811.485	190.63
811.664	270.5
811.843	207.02
812.022	235.69
812.201	262.31
812.38	241.83
812.559	225.45
812.737	260.26
812.916	178.34
813.095	219.3
813.274	221.35
813.453	133.29
813.632	223.4
813.811	274.6
813.989	149.67
814.168	223.4
814.347	198.82
814.526	237.74
814.704	215.21
814.883	256.17
815.062	164.01
815.24	270.5
815.419	121
815.598	188.58
815.776	155.82
815.955	229.54
816.133	151.72
816.312	231.59
816.49	170.15
816.669	207.02
816.847	211.11
817.026	143.53
817.204	180.39
817.383	245.93
817.561	159.91
817.74	190.63
817.918	260.26
818.097	131.24
818.275	170.15
818.453	182.44
818.632	149.67
818.81	202.92
818.988	164.01
819.167	239.78
819.345	188.58
819.523	155.82
819.701	168.1
819.879	217.26
820.058	217.26
820.236	239.78
820.414	190.63
820.592	196.78
820.77	182.44
820.948	190.63
821.127	100.52
821.305	194.73
821.483	184.49
821.661	231.59
821.839	141.48
822.017	157.86
822.195	96.43
822.373	186.54
822.551	141.48
822.729	202.92
822.907	157.86
823.085	129.19
823.262	180.39
823.44	215.21
823.618	90.28
823.796	135.34
823.974	100.52
824.152	100.52
824.329	186.54
824.507	151.72
824.685	141.48
824.863	161.96
825.04	121
825.218	151.72
825.396	73.9
825.574	151.72
825.751	145.58
825.929	170.15
826.107	157.86
826.284	147.62
826.462	223.4
826.639	139.43
826.817	75.95
826.994	194.73
827.172	88.23
827.349	213.16
827.527	161.96
827.704	98.47
827.882	131.24
828.059	112.81
828.237	123.05
828.414	133.29
828.591	123.05
828.769	51.37
828.946	34.99
829.124	157.86
829.301	159.91
829.478	166.06
829.655	108.71
829.833	108.71
830.01	92.33
830.187	227.5
830.364	123.05
830.542	110.76
830.719	192.68
830.896	51.37
831.073	133.29
831.25	172.2
831.427	180.39
831.604	123.05
831.782	8.36
831.959	45.23
832.136	112.81
832.313	118.95
832.49	75.95
832.667	118.95
832.844	71.85
833.021	114.86
833.198	137.38
833.374	106.67
833.551	100.52
833.728	57.51
833.905	84.14
834.082	69.8
834.259	166.06
834.436	151.72
834.612	116.9
834.789	112.81
834.966	108.71
835.143	143.53
835.319	14.51
835.496	153.77
835.673	133.29
835.85	-1.88
836.026	145.58
836.203	116.9
836.38	53.42
836.556	108.71
836.733	188.58
836.909	211.11
837.086	131.24
837.262	59.56
837.439	114.86
837.616	151.72
837.792	125.1
837.968	82.09
838.145	51.37
838.321	133.29
838.498	88.23
838.674	67.75
838.851	84.14
839.027	69.8
839.203	106.67
839.38	59.56
839.556	75.95
839.732	47.27
839.909	51.37
840.085	114.86
840.261	94.38
840.437	73.9
840.614	28.84
840.79	96.43
840.966	84.14
841.142	133.29
841.318	69.8
841.494	127.14
841.671	26.79
841.847	92.33
842.023	43.18
842.199	51.37
842.375	104.62
842.551	41.13
842.727	67.75
842.903	182.44
843.079	57.51
843.255	114.86
843.431	55.47
843.607	45.23
843.783	26.79
843.959	108.71
844.134	57.51
844.31	114.86
844.486	59.56
844.662	49.32
844.838	84.14
845.013	116.9
845.189	82.09
845.365	112.81
845.541	47.27
845.716	63.66
845.892	110.76
846.068	71.85
846.244	102.57
846.419	73.9
846.595	-75.6
846.77	61.61
846.946	125.1
847.122	75.95
847.297	104.62
847.473	116.9
847.648	-8.02
847.824	131.24
847.999	67.75
848.175	43.18
848.35	80.04
848.526	123.05
848.701	121
848.876	59.56
849.052	90.28
849.227	47.27
849.403	14.51
849.578	67.75
849.753	108.71
849.929	96.43
850.104	4.27
850.279	-44.88
850.454	82.09
850.63	37.03
850.805	104.62
850.98	63.66
851.155	-71.51
851.33	149.67
851.505	55.47
851.681	121
851.856	32.94
852.031	41.13
852.206	32.94
852.381	-40.79
852.556	51.37
852.731	69.8
852.906	39.08
853.081	102.57
853.256	51.37
853.431	92.33
853.606	71.85
853.781	34.99
853.956	-12.12
854.131	149.67
854.305	26.79
854.48	88.23
854.655	26.79
854.83	-12.12
855.005	94.38
855.18	39.08
855.354	73.9
855.529	34.99
855.704	43.18
855.879	127.14
856.053	28.84
856.228	18.6
856.403	-8.02
856.577	-1.88
856.752	32.94
856.926	43.18
857.101	34.99
857.276	-18.26
857.45	30.89
857.625	20.65
857.799	51.37
857.974	4.27
858.148	-40.79
858.323	71.85
858.497	51.37
858.672	73.9
858.846	-24.4
859.02	108.71
859.195	26.79
859.369	2.22
859.543	-1.88
859.718	20.65
859.892	73.9
860.066	84.14
860.241	61.61
860.415	32.94
860.589	24.75
860.763	108.71
860.938	-32.6
861.112	98.47
861.286	37.03
861.46	32.94
861.634	-32.6
861.808	53.42
861.982	0.17
862.157	-12.12
862.331	16.55
862.505	108.71
862.679	51.37
862.853	-24.4
863.027	-1.88
863.201	127.14
863.375	-20.31
863.549	98.47
863.722	24.75
863.896	123.05
864.07	-20.31
864.244	59.56
864.418	110.76
864.592	22.7
864.766	94.38
864.939	43.18
865.113	26.79
865.287	184.49
865.461	-55.12
865.634	43.18
865.808	57.51
865.982	65.71
866.156	-38.74
866.329	63.66
866.503	96.43
866.676	32.94
866.85	67.75
867.024	75.95
867.197	0.17
867.371	-26.45
867.544	34.99
867.718	8.36
867.891	116.9
868.065	61.61
868.238	41.13
868.412	41.13
868.585	43.18
868.759	63.66
868.932	84.14
869.105	2.22
869.279	30.89
869.452	47.27
869.625	22.7
869.799	-40.79
869.972	100.52
870.145	8.36
870.319	49.32
870.492	51.37
870.665	10.41
870.838	18.6
871.011	65.71
871.185	65.71
871.358	57.51
871.531	102.57
871.704	30.89
871.877	73.9
872.05	14.51
872.223	4.27
872.396	67.75
872.569	34.99
872.742	8.36
872.915	75.95
873.088	-14.17
873.261	26.79
873.434	121
873.607	30.89
873.78	55.47
873.953	2.22
874.126	14.51
874.299	-24.4
874.471	90.28
874.644	24.75
874.817	71.85
874.99	69.8
875.163	-14.17
875.335	77.99
875.508	57.51
875.681	41.13
875.853	-1.88
876.026	34.99
876.199	67.75
876.371	65.71
876.544	16.55
876.717	137.38
876.889	45.23
877.062	67.75
877.234	-22.36
877.407	49.32
877.579	18.6
877.752	53.42
877.924	-18.26
878.097	73.9
878.269	26.79
878.442	10.41
878.614	82.09
878.786	57.51
878.959	20.65
879.131	55.47
879.303	84.14
879.476	20.65
879.648	-18.26
879.82	67.75
879.993	16.55
880.165	80.04
880.337	8.36
880.509	34.99
880.681	0.17
880.854	20.65
881.026	20.65
881.198	34.99
881.37	30.89
881.542	24.75
881.714	37.03
881.886	49.32
882.058	67.75
882.23	22.7
882.402	-1.88
882.574	112.81
882.746	71.85
882.918	28.84
883.09	0.17
883.262	55.47
883.434	49.32
883.606	-20.31
883.778	-3.93
883.95	98.47
884.122	14.51
884.293	71.85
884.465	-5.97
884.637	32.94
884.809	-1.88
884.98	39.08
885.152	110.76
885.324	39.08
885.496	-30.55
885.667	6.31
885.839	-5.97
886.011	47.27
886.182	-22.36
886.354	51.37
886.525	-24.4
886.697	0.17
886.869	-14.17
887.04	-42.84
887.212	28.84
887.383	67.75
887.555	-14.17
887.726	90.28
887.897	43.18
888.069	110.76
888.24	53.42
888.412	47.27
888.583	43.18
888.754	63.66
888.926	51.37
889.097	57.51
889.268	-30.55
889.44	18.6
889.611	-40.79
889.782	63.66
889.953	-57.17
890.125	90.28
890.296	2.22
890.467	-32.6
890.638	-20.31
890.809	18.6
890.98	-5.97
891.151	-14.17
891.323	-10.07
891.494	-22.36
891.665	53.42
891.836	59.56
892.007	-5.97
892.178	108.71
892.349	47.27
892.52	45.23
892.691	43.18
892.862	63.66
893.032	67.75
893.203	28.84
893.374	47.27
893.545	45.23
893.716	37.03
893.887	88.23
894.057	-32.6
894.228	86.19
894.399	2.22
894.57	8.36
894.74	102.57
894.911	69.8
895.082	-36.69
895.253	18.6
895.423	57.51
895.594	-26.45
895.764	10.41
895.935	84.14
896.106	-12.12
896.276	14.51
896.447	2.22
896.617	34.99
896.788	-3.93
896.958	53.42
897.129	-12.12
897.299	28.84
897.47	20.65
897.64	104.62
897.81	47.27
897.981	18.6
898.151	0.17
898.322	67.75
898.492	34.99
898.662	34.99
898.832	4.27
899.003	0.17
899.173	2.22
899.343	-12.12
899.513	-18.26
