Data from USB4F104151__98__10-24-40-088.txt Node

Date: Wed Mar 12 10:24:40 EDT 2025
User: louis
Spectrometer: USB4F10415
Trigger mode: 4
Integration Time (sec): 3.000000E-2
Scans to average: 1
Electric dark correction enabled: true
Nonlinearity correction enabled: false
Boxcar width: 0
XAxis mode: Wavelengths
Number of Pixels in Spectrum: 3648
>>>>>Begin Spectral Data<<<<<
178.204	-93.87
178.424	-93.87
178.644	-93.87
178.864	-106.15
179.084	-151.21
179.304	-52.91
179.524	-18.09
179.744	-20.14
179.964	18.77
180.184	35.16
180.404	-34.47
180.624	35.16
180.844	14.68
181.064	65.88
181.283	-42.67
181.503	0.34
181.723	-1.71
181.943	0.34
182.163	153.94
182.383	8.53
182.602	80.21
182.822	51.54
183.042	67.92
183.262	94.55
183.482	33.11
183.701	0.34
183.921	14.68
184.141	24.92
184.361	121.17
184.58	41.3
184.8	86.36
185.02	6.49
185.239	98.64
185.459	-16.04
185.679	112.98
185.898	10.58
186.118	37.2
186.338	72.02
186.557	59.73
186.777	20.82
186.997	53.59
187.216	63.83
187.436	123.22
187.655	49.49
187.875	72.02
188.095	22.87
188.314	112.98
188.534	18.77
188.753	-16.04
188.973	88.4
189.192	94.55
189.412	51.54
189.631	96.6
189.851	16.73
190.07	24.92
190.29	-22.19
190.509	51.54
190.729	51.54
190.948	104.79
191.168	49.49
191.387	100.69
191.607	-5.8
191.826	59.73
192.045	45.4
192.265	-40.62
192.484	51.54
192.704	43.35
192.923	39.25
193.142	69.97
193.362	74.07
193.581	18.77
193.8	72.02
194.02	10.58
194.239	51.54
194.458	24.92
194.678	10.58
194.897	45.4
195.116	94.55
195.335	26.96
195.555	43.35
195.774	33.11
195.993	49.49
196.212	-26.28
196.432	33.11
196.651	4.44
196.87	-3.75
197.089	74.07
197.308	72.02
197.528	67.92
197.747	-5.8
197.966	88.4
198.185	78.16
198.404	22.87
198.623	10.58
198.842	45.4
199.062	88.4
199.281	-28.33
199.5	6.49
199.719	51.54
199.938	39.25
200.157	39.25
200.376	41.3
200.595	76.12
200.814	-16.04
201.033	72.02
201.252	74.07
201.471	45.4
201.69	-7.85
201.909	69.97
202.128	29.01
202.347	90.45
202.566	14.68
202.785	14.68
203.004	10.58
203.223	141.65
203.442	-22.19
203.661	14.68
203.879	51.54
204.098	94.55
204.317	-9.9
204.536	100.69
204.755	51.54
204.974	72.02
205.193	37.2
205.411	82.26
205.63	63.83
205.849	26.96
206.068	20.82
206.287	-7.85
206.505	162.13
206.724	24.92
206.943	76.12
207.162	-34.47
207.381	-9.9
207.599	65.88
207.818	43.35
208.037	78.16
208.255	16.73
208.474	72.02
208.693	72.02
208.911	112.98
209.13	100.69
209.349	-9.9
209.567	31.06
209.786	0.34
210.005	22.87
210.223	59.73
210.442	10.58
210.661	14.68
210.879	76.12
211.098	69.97
211.316	94.55
211.535	0.34
211.753	18.77
211.972	35.16
212.191	59.73
212.409	39.25
212.628	76.12
212.846	26.96
213.065	16.73
213.283	80.21
213.502	51.54
213.72	0.34
213.938	16.73
214.157	31.06
214.375	72.02
214.594	6.49
214.812	16.73
215.031	10.58
215.249	43.35
215.467	8.53
215.686	63.83
215.904	53.59
216.122	35.16
216.341	72.02
216.559	47.44
216.778	92.5
216.996	82.26
217.214	6.49
217.432	10.58
217.651	39.25
217.869	26.96
218.087	53.59
218.306	41.3
218.524	76.12
218.742	-3.75
218.96	63.83
219.179	4.44
219.397	37.2
219.615	76.12
219.833	41.3
220.051	-1.71
220.27	90.45
220.488	90.45
220.706	-30.38
220.924	-26.28
221.142	-18.09
221.36	47.44
221.578	72.02
221.796	108.88
222.015	14.68
222.233	63.83
222.451	82.26
222.669	18.77
222.887	72.02
223.105	14.68
223.323	29.01
223.541	31.06
223.759	47.44
223.977	10.58
224.195	8.53
224.413	82.26
224.631	90.45
224.849	51.54
225.067	72.02
225.285	41.3
225.503	47.44
225.721	-20.14
225.939	51.54
226.157	39.25
226.375	102.74
226.592	51.54
226.81	47.44
227.028	115.03
227.246	61.78
227.464	-20.14
227.682	80.21
227.9	61.78
228.117	98.64
228.335	92.5
228.553	55.64
228.771	10.58
228.989	14.68
229.206	72.02
229.424	26.96
229.642	35.16
229.86	14.68
230.077	72.02
230.295	47.44
230.513	72.02
230.731	29.01
230.948	31.06
231.166	59.73
231.384	35.16
231.601	45.4
231.819	88.4
232.037	-57
232.254	10.58
232.472	57.68
232.689	2.39
232.907	82.26
233.125	55.64
233.342	-1.71
233.56	61.78
233.777	59.73
233.995	18.77
234.213	90.45
234.43	39.25
234.648	0.34
234.865	26.96
235.083	74.07
235.3	2.39
235.518	57.68
235.735	67.92
235.953	43.35
236.17	49.49
236.388	18.77
236.605	49.49
236.822	88.4
237.04	-24.23
237.257	143.7
237.475	10.58
237.692	86.36
237.909	39.25
238.127	24.92
238.344	112.98
238.562	35.16
238.779	-5.8
238.996	72.02
239.214	72.02
239.431	123.22
239.648	8.53
239.865	6.49
240.083	-26.28
240.3	0.34
240.517	12.63
240.735	59.73
240.952	8.53
241.169	65.88
241.386	69.97
241.603	-13.99
241.821	51.54
242.038	102.74
242.255	49.49
242.472	18.77
242.689	22.87
242.907	65.88
243.124	-36.52
243.341	-36.52
243.558	69.97
243.775	-28.33
243.992	0.34
244.209	80.21
244.426	102.74
244.643	84.31
244.86	-52.91
245.078	80.21
245.295	41.3
245.512	84.31
245.729	-9.9
245.946	-32.43
246.163	69.97
246.38	104.79
246.597	31.06
246.814	-13.99
247.031	55.64
247.248	29.01
247.464	18.77
247.681	8.53
247.898	12.63
248.115	67.92
248.332	90.45
248.549	84.31
248.766	84.31
248.983	37.2
249.2	24.92
249.417	35.16
249.633	6.49
249.85	53.59
250.067	37.2
250.284	96.6
250.501	29.01
250.717	4.44
250.934	24.92
251.151	61.78
251.368	72.02
251.585	100.69
251.801	65.88
252.018	39.25
252.235	82.26
252.451	24.92
252.668	53.59
252.885	104.79
253.102	106.84
253.318	-18.09
253.535	45.4
253.752	10.58
253.968	49.49
254.185	18.77
254.401	72.02
254.618	100.69
254.835	22.87
255.051	-3.75
255.268	-1.71
255.484	16.73
255.701	-59.05
255.917	84.31
256.134	37.2
256.351	22.87
256.567	69.97
256.784	33.11
257	57.68
257.217	123.22
257.433	57.68
257.65	0.34
257.866	80.21
258.082	22.87
258.299	67.92
258.515	49.49
258.732	-16.04
258.948	-20.14
259.165	16.73
259.381	-20.14
259.597	-5.8
259.814	61.78
260.03	-1.71
260.246	39.25
260.463	39.25
260.679	61.78
260.895	55.64
261.112	76.12
261.328	16.73
261.544	-5.8
261.761	155.99
261.977	49.49
262.193	4.44
262.409	57.68
262.626	33.11
262.842	-75.43
263.058	-7.85
263.274	69.97
263.49	37.2
263.707	115.03
263.923	18.77
264.139	-38.57
264.355	-16.04
264.571	57.68
264.787	78.16
265.004	84.31
265.22	76.12
265.436	-16.04
265.652	65.88
265.868	92.5
266.084	26.96
266.3	26.96
266.516	16.73
266.732	2.39
266.948	59.73
267.164	29.01
267.38	31.06
267.596	0.34
267.812	112.98
268.028	78.16
268.244	-5.8
268.46	26.96
268.676	47.44
268.892	31.06
269.108	55.64
269.324	39.25
269.54	35.16
269.756	127.32
269.972	59.73
270.188	26.96
270.403	10.58
270.619	119.12
270.835	141.65
271.051	-50.86
271.267	29.01
271.483	8.53
271.698	90.45
271.914	10.58
272.13	31.06
272.346	18.77
272.562	47.44
272.777	112.98
272.993	76.12
273.209	57.68
273.425	-5.8
273.64	129.36
273.856	90.45
274.072	78.16
274.287	-73.39
274.503	102.74
274.719	96.6
274.934	61.78
275.15	86.36
275.366	63.83
275.581	78.16
275.797	74.07
276.012	-24.23
276.228	78.16
276.444	18.77
276.659	24.92
276.875	22.87
277.09	10.58
277.306	63.83
277.521	57.68
277.737	-9.9
277.952	88.4
278.168	82.26
278.383	31.06
278.599	47.44
278.814	16.73
279.03	4.44
279.245	100.69
279.461	29.01
279.676	117.08
279.892	55.64
280.107	-18.09
280.322	35.16
280.538	57.68
280.753	72.02
280.969	74.07
281.184	43.35
281.399	139.6
281.615	2.39
281.83	39.25
282.045	-26.28
282.26	51.54
282.476	72.02
282.691	143.7
282.906	16.73
283.122	31.06
283.337	26.96
283.552	82.26
283.767	26.96
283.983	112.98
284.198	22.87
284.413	92.5
284.628	-1.71
284.843	26.96
285.058	133.46
285.274	115.03
285.489	16.73
285.704	57.68
285.919	6.49
286.134	86.36
286.349	39.25
286.564	92.5
286.779	37.2
286.995	29.01
287.21	31.06
287.425	59.73
287.64	33.11
287.855	39.25
288.07	0.34
288.285	26.96
288.5	84.31
288.715	37.2
288.93	-30.38
289.145	33.11
289.36	26.96
289.575	18.77
289.79	47.44
290.004	41.3
290.219	39.25
290.434	112.98
290.649	0.34
290.864	57.68
291.079	14.68
291.294	10.58
291.509	-20.14
291.724	26.96
291.938	-16.04
292.153	82.26
292.368	98.64
292.583	39.25
292.798	119.12
293.012	18.77
293.227	35.16
293.442	-9.9
293.657	4.44
293.871	123.22
294.086	-26.28
294.301	137.56
294.516	88.4
294.73	39.25
294.945	35.16
295.16	-24.23
295.374	6.49
295.589	90.45
295.804	37.2
296.018	33.11
296.233	98.64
296.447	47.44
296.662	22.87
296.877	78.16
297.091	94.55
297.306	53.59
297.52	14.68
297.735	31.06
297.949	2.39
298.164	76.12
298.378	39.25
298.593	4.44
298.807	37.2
299.022	37.2
299.236	24.92
299.451	43.35
299.665	100.69
299.88	108.88
300.094	84.31
300.309	98.64
300.523	55.64
300.737	41.3
300.952	24.92
301.166	-13.99
301.381	8.53
301.595	80.21
301.809	6.49
302.024	35.16
302.238	41.3
302.452	84.31
302.667	6.49
302.881	100.69
303.095	112.98
303.309	88.4
303.524	39.25
303.738	37.2
303.952	49.49
304.166	92.5
304.381	14.68
304.595	155.99
304.809	4.44
305.023	135.51
305.237	16.73
305.452	82.26
305.666	37.2
305.88	141.65
306.094	35.16
306.308	80.21
306.522	37.2
306.736	61.78
306.95	51.54
307.164	33.11
307.379	22.87
307.593	65.88
307.807	108.88
308.021	43.35
308.235	31.06
308.449	-5.8
308.663	-16.04
308.877	102.74
309.091	51.54
309.305	24.92
309.519	-24.23
309.733	41.3
309.947	72.02
310.161	55.64
310.374	22.87
310.588	10.58
310.802	51.54
311.016	-3.75
311.23	31.06
311.444	57.68
311.658	-11.95
311.872	-38.57
312.085	123.22
312.299	78.16
312.513	100.69
312.727	2.39
312.941	18.77
313.154	51.54
313.368	-13.99
313.582	24.92
313.796	47.44
314.009	35.16
314.223	55.64
314.437	24.92
314.651	63.83
314.864	67.92
315.078	39.25
315.292	20.82
315.505	2.39
315.719	10.58
315.933	55.64
316.146	18.77
316.36	33.11
316.573	6.49
316.787	49.49
317.001	88.4
317.214	-73.39
317.428	96.6
317.641	-48.81
317.855	26.96
318.068	10.58
318.282	100.69
318.495	102.74
318.709	8.53
318.922	-7.85
319.136	72.02
319.349	39.25
319.563	80.21
319.776	39.25
319.99	49.49
320.203	-34.47
320.417	76.12
320.63	-9.9
320.843	135.51
321.057	4.44
321.27	39.25
321.483	82.26
321.697	125.27
321.91	67.92
322.124	69.97
322.337	53.59
322.55	24.92
322.763	53.59
322.977	12.63
323.19	26.96
323.403	-50.86
323.617	84.31
323.83	47.44
324.043	2.39
324.256	29.01
324.469	102.74
324.683	57.68
324.896	61.78
325.109	74.07
325.322	18.77
325.535	63.83
325.748	92.5
325.962	72.02
326.175	69.97
326.388	55.64
326.601	76.12
326.814	69.97
327.027	51.54
327.24	20.82
327.453	6.49
327.666	49.49
327.879	76.12
328.092	8.53
328.305	-20.14
328.518	16.73
328.731	24.92
328.944	65.88
329.157	24.92
329.37	-9.9
329.583	59.73
329.796	84.31
330.009	-46.76
330.222	26.96
330.435	12.63
330.648	45.4
330.861	67.92
331.073	94.55
331.286	31.06
331.499	20.82
331.712	2.39
331.925	57.68
332.138	8.53
332.35	-13.99
332.563	2.39
332.776	135.51
332.989	55.64
333.202	12.63
333.414	-5.8
333.627	-3.75
333.84	24.92
334.053	37.2
334.265	55.64
334.478	63.83
334.691	10.58
334.903	110.93
335.116	35.16
335.329	39.25
335.541	26.96
335.754	121.17
335.966	92.5
336.179	96.6
336.392	31.06
336.604	104.79
336.817	108.88
337.029	49.49
337.242	16.73
337.454	57.68
337.667	-32.43
337.88	121.17
338.092	55.64
338.305	129.36
338.517	47.44
338.729	125.27
338.942	65.88
339.154	57.68
339.367	51.54
339.579	31.06
339.792	117.08
340.004	131.41
340.217	31.06
340.429	18.77
340.641	4.44
340.854	76.12
341.066	10.58
341.278	20.82
341.491	74.07
341.703	31.06
341.915	49.49
342.128	63.83
342.34	8.53
342.552	14.68
342.764	55.64
342.977	12.63
343.189	-1.71
343.401	98.64
343.613	45.4
343.826	59.73
344.038	31.06
344.25	39.25
344.462	-40.62
344.674	-46.76
344.886	76.12
345.099	51.54
345.311	41.3
345.523	65.88
345.735	55.64
345.947	43.35
346.159	82.26
346.371	63.83
346.583	20.82
346.795	123.22
347.007	43.35
347.219	16.73
347.431	-11.95
347.643	72.02
347.855	100.69
348.067	-5.8
348.279	139.6
348.491	121.17
348.703	59.73
348.915	51.54
349.127	-13.99
349.339	84.31
349.551	98.64
349.763	4.44
349.975	49.49
350.187	110.93
350.399	119.12
350.61	102.74
350.822	139.6
351.034	72.02
351.246	117.08
351.458	47.44
351.669	-5.8
351.881	82.26
352.093	59.73
352.305	98.64
352.517	37.2
352.728	145.75
352.94	24.92
353.152	74.07
353.363	35.16
353.575	72.02
353.787	69.97
353.999	72.02
354.21	35.16
354.422	37.2
354.633	72.02
354.845	78.16
355.057	6.49
355.268	39.25
355.48	86.36
355.692	88.4
355.903	90.45
356.115	22.87
356.326	-50.86
356.538	6.49
356.749	29.01
356.961	57.68
357.172	63.83
357.384	53.59
357.595	104.79
357.807	115.03
358.018	84.31
358.23	65.88
358.441	26.96
358.653	92.5
358.864	84.31
359.075	16.73
359.287	90.45
359.498	57.68
359.709	53.59
359.921	59.73
360.132	10.58
360.344	100.69
360.555	-1.71
360.766	74.07
360.977	47.44
361.189	41.3
361.4	18.77
361.611	121.17
361.823	131.41
362.034	133.46
362.245	16.73
362.456	53.59
362.667	166.23
362.879	76.12
363.09	37.2
363.301	-3.75
363.512	74.07
363.723	98.64
363.935	26.96
364.146	26.96
364.357	45.4
364.568	100.69
364.779	26.96
364.99	78.16
365.201	35.16
365.412	57.68
365.623	20.82
365.834	65.88
366.045	94.55
366.256	121.17
366.467	39.25
366.678	127.32
366.889	90.45
367.1	31.06
367.311	53.59
367.522	90.45
367.733	18.77
367.944	35.16
368.155	80.21
368.366	88.4
368.577	39.25
368.788	102.74
368.999	57.68
369.209	37.2
369.42	67.92
369.631	108.88
369.842	59.73
370.053	18.77
370.264	16.73
370.474	104.79
370.685	35.16
370.896	80.21
371.107	104.79
371.317	12.63
371.528	35.16
371.739	84.31
371.95	63.83
372.16	100.69
372.371	-30.38
372.582	37.2
372.792	78.16
373.003	63.83
373.214	104.79
373.424	123.22
373.635	35.16
373.846	72.02
374.056	45.4
374.267	-9.9
374.477	29.01
374.688	92.5
374.898	67.92
375.109	100.69
375.319	47.44
375.53	100.69
375.74	-5.8
375.951	143.7
376.161	37.2
376.372	100.69
376.582	24.92
376.793	100.69
377.003	78.16
377.214	80.21
377.424	18.77
377.635	39.25
377.845	20.82
378.055	92.5
378.266	106.84
378.476	41.3
378.686	41.3
378.897	112.98
379.107	47.44
379.317	72.02
379.528	67.92
379.738	147.8
379.948	63.83
380.158	35.16
380.369	55.64
380.579	10.58
380.789	76.12
380.999	84.31
381.21	92.5
381.42	129.36
381.63	18.77
381.84	-38.57
382.05	43.35
382.261	51.54
382.471	57.68
382.681	84.31
382.891	133.46
383.101	90.45
383.311	53.59
383.521	104.79
383.731	49.49
383.941	39.25
384.151	20.82
384.361	82.26
384.571	63.83
384.781	33.11
384.991	88.4
385.201	115.03
385.411	39.25
385.621	26.96
385.831	92.5
386.041	69.97
386.251	153.94
386.461	94.55
386.671	51.54
386.881	4.44
387.091	41.3
387.301	39.25
387.511	61.78
387.72	31.06
387.93	43.35
388.14	51.54
388.35	47.44
388.56	67.92
388.769	102.74
388.979	98.64
389.189	-9.9
389.399	88.4
389.609	102.74
389.818	137.56
390.028	39.25
390.238	63.83
390.447	61.78
390.657	51.54
390.867	145.75
391.076	176.47
391.286	65.88
391.496	104.79
391.705	86.36
391.915	55.64
392.125	141.65
392.334	22.87
392.544	133.46
392.753	69.97
392.963	94.55
393.172	74.07
393.382	65.88
393.591	168.27
393.801	33.11
394.01	80.21
394.22	141.65
394.429	104.79
394.639	74.07
394.848	94.55
395.058	10.58
395.267	18.77
395.477	104.79
395.686	86.36
395.895	110.93
396.105	155.99
396.314	94.55
396.524	100.69
396.733	149.84
396.942	67.92
397.152	135.51
397.361	88.4
397.57	0.34
397.78	166.23
397.989	94.55
398.198	139.6
398.407	121.17
398.617	147.8
398.826	102.74
399.035	198.99
399.244	182.61
399.453	106.84
399.663	108.88
399.872	63.83
400.081	55.64
400.29	188.75
400.499	88.4
400.708	110.93
400.917	80.21
401.127	69.97
401.336	55.64
401.545	188.75
401.754	63.83
401.963	98.64
402.172	153.94
402.381	172.37
402.59	180.56
402.799	108.88
403.008	188.75
403.217	203.09
403.426	94.55
403.635	135.51
403.844	145.75
404.053	84.31
404.262	196.95
404.471	242
404.68	153.94
404.888	166.23
405.097	112.98
405.306	194.9
405.515	176.47
405.724	100.69
405.933	190.8
406.142	219.47
406.35	198.99
406.559	149.84
406.768	180.56
406.977	203.09
407.185	217.43
407.394	190.8
407.603	227.67
407.812	285.01
408.02	231.76
408.229	256.34
408.438	285.01
408.646	264.53
408.855	248.15
409.064	293.2
409.272	205.14
409.481	321.87
409.69	371.02
409.898	360.78
410.107	289.1
410.315	305.49
410.524	285.01
410.733	366.93
410.941	248.15
411.15	493.9
411.358	325.97
411.567	465.23
411.775	436.56
411.984	418.13
412.192	467.28
412.401	446.8
412.609	506.19
412.818	428.37
413.026	510.29
413.234	604.49
413.443	545.1
413.651	616.78
413.86	557.39
414.068	635.21
414.276	655.69
414.485	741.71
414.693	672.08
414.901	731.47
415.11	794.95
415.318	729.42
415.526	725.32
415.734	756.04
415.943	821.58
416.151	911.69
416.359	856.39
416.567	831.82
416.776	952.65
416.984	1055.05
417.192	1100.1
417.4	1014.09
417.608	1085.76
417.817	1067.33
418.025	1186.12
418.233	1151.3
418.441	1149.25
418.649	1210.69
418.857	1343.81
419.065	1380.67
419.273	1315.14
419.481	1442.11
419.689	1468.73
419.897	1601.85
420.105	1681.72
420.313	1620.28
420.521	1702.2
420.729	1728.83
420.937	1722.68
421.145	1880.38
421.353	1917.24
421.561	1898.81
421.769	2056.5
421.977	2119.99
422.185	2076.98
422.393	2179.38
422.601	2414.9
422.809	2382.13
423.017	2296.11
423.224	2410.8
423.432	2668.84
423.64	2605.36
423.848	2844.97
424.056	2758.96
424.263	2984.23
424.471	2896.17
424.679	2920.74
424.887	3148.07
425.094	3164.45
425.302	3154.21
425.51	3410.21
425.718	3434.78
425.925	3512.61
426.133	3647.77
426.341	3967.26
426.548	4016.41
426.756	4098.33
426.964	4083.99
427.171	4542.74
427.379	4415.76
427.586	4559.12
427.794	4772.11
428.001	4878.6
428.209	5030.15
428.417	4999.43
428.624	5300.48
428.832	5138.69
429.039	5228.81
429.247	5241.09
429.454	5728.51
429.662	6043.9
429.869	5626.11
430.076	6215.93
430.284	5816.57
430.491	6260.98
430.699	6650.1
430.906	6521.07
431.114	6572.27
431.321	7020.78
431.528	6881.52
431.736	7457
431.943	7786.72
432.15	7565.54
432.358	7817.44
432.565	7973.08
432.772	8360.15
432.979	8618.19
433.187	8562.9
433.394	8605.91
433.601	9412.81
433.808	9439.43
434.016	9263.3
434.223	9865.41
434.43	10166.46
434.637	9818.3
434.844	10565.81
435.052	10895.54
435.259	10754.23
435.466	10807.47
435.673	10668.21
435.88	11436.2
436.087	12142.75
436.294	12107.93
436.501	11663.52
436.708	12036.25
436.915	12404.89
437.122	13021.33
437.329	12841.11
437.537	13240.46
437.743	13381.77
437.95	13568.13
438.157	13981.82
438.364	14547.06
438.571	14612.6
438.778	14661.75
438.985	16027.74
439.192	15581.29
439.399	15923.3
439.606	15401.07
439.813	16220.25
440.02	17537.1
440.227	16994.39
440.433	16810.07
440.64	17606.73
440.847	17444.94
441.054	17870.92
441.261	18876.47
441.467	18481.21
441.674	19111.99
441.881	19595.31
442.088	19617.83
442.294	19666.99
442.501	19865.64
442.708	20647.96
442.914	21303.31
443.121	21925.89
443.328	21508.11
443.534	23007.22
443.741	22290.43
443.948	22185.99
444.154	23705.58
444.361	23539.69
444.568	23535.6
444.774	23670.76
444.981	23902.18
445.187	24526.82
445.394	25618.38
445.6	25241.56
445.807	27682.73
446.013	26238.92
446.22	26793.92
446.426	27946.92
446.633	28491.68
446.839	29044.63
447.046	28116.9
447.252	29585.3
447.459	29183.9
447.665	28921.76
447.871	30633.86
448.078	31711.09
448.284	30476.16
448.491	31283.06
448.697	32294.76
448.903	32831.33
449.11	33298.27
449.316	32692.07
449.522	33054.56
449.728	34000.72
449.935	34240.33
450.141	33980.24
450.347	34764.61
450.553	33560.41
450.76	34185.04
450.966	35309.37
451.172	34639.68
451.378	35505.98
451.584	34920.26
451.791	35503.93
451.997	35258.17
452.203	36212.52
452.409	36052.78
452.615	36202.28
452.821	34639.68
453.027	33908.56
453.233	35794.74
453.44	34506.57
453.646	34457.42
453.852	34731.84
454.058	35557.17
454.264	34217.8
454.47	34555.72
454.676	34094.93
454.882	35114.81
455.088	32120.68
455.294	32454.5
455.5	33136.48
455.705	33525.59
455.911	31862.64
456.117	31258.49
456.323	31111.03
456.529	29253.53
456.735	30590.85
456.941	29714.32
457.147	29054.87
457.352	28174.25
457.558	27584.43
457.764	28155.82
457.97	27520.95
458.176	26824.64
458.381	26855.36
458.587	25470.93
458.793	25573.33
458.999	24238.05
459.204	25921.48
459.41	25505.74
459.616	23744.49
459.821	23406.58
460.027	23504.88
460.233	22923.26
460.438	21970.95
460.644	22513.66
460.85	21172.24
461.055	20949.01
461.261	20848.66
461.466	19208.24
461.672	18686.01
461.878	19892.26
462.083	18745.4
462.289	18233.41
462.494	17920.07
462.7	17576.01
462.905	16881.75
463.111	17700.94
463.316	17399.88
463.522	17143.89
463.727	17258.57
463.932	17078.35
464.138	16937.04
464.343	17201.23
464.549	16470.11
464.754	17489.99
464.959	17147.98
465.165	16822.36
465.37	16296.03
465.575	15538.28
465.781	16470.11
465.986	16433.24
466.191	15818.85
466.397	15646.82
466.602	14841.97
466.807	15265.9
467.012	15609.96
467.218	15517.8
467.423	15009.9
467.628	15259.76
467.833	15769.7
468.038	15120.49
468.244	14774.39
468.449	15335.53
468.654	15040.62
468.859	14934.13
469.064	14663.8
469.269	14162.05
469.474	14160
469.679	14921.84
469.885	14123.13
470.09	14403.71
470.295	14162.05
470.5	13848.71
470.705	13938.82
470.91	13623.43
471.115	13486.22
471.32	13668.48
471.525	13500.55
471.73	13179.02
471.935	13201.55
472.139	12669.08
472.344	12769.43
472.549	12857.49
472.754	12988.56
472.959	12458.14
473.164	12273.82
473.369	12042.4
473.574	12286.11
473.778	12216.47
473.983	12234.91
474.188	12206.24
474.393	11534.5
474.598	11806.88
474.802	11571.36
475.007	11186.35
475.212	11458.73
475.417	11176.11
475.621	11161.77
475.826	11131.05
476.031	10819.76
476.235	10778.8
476.44	10606.77
476.645	10721.46
476.849	10750.13
477.054	10434.74
477.259	10229.95
477.463	10467.51
477.668	10082.49
477.872	10125.5
478.077	10035.39
478.282	9717.95
478.486	9748.67
478.691	9689.28
478.895	9713.86
479.1	9511.11
479.304	9582.79
479.509	9353.41
479.713	9570.5
479.918	9453.77
480.122	9115.85
480.326	9496.77
480.531	9095.37
480.735	9218.25
480.94	9142.47
481.144	9373.89
481.348	8952.01
481.553	9148.62
481.757	8898.77
481.961	9021.64
482.166	9081.03
482.37	9078.99
482.574	8833.23
482.778	8929.49
482.983	9177.29
483.187	8990.92
483.391	9033.93
483.595	8974.54
483.8	8921.29
484.004	8949.96
484.208	8939.72
484.412	8833.23
484.616	8902.86
484.821	8976.59
485.025	8870.09
485.229	9060.56
485.433	8892.62
485.637	9056.46
485.841	8698.06
486.045	8610
486.249	8972.49
486.453	8964.3
486.657	8927.44
486.861	8988.88
487.065	8722.64
487.269	8753.36
487.473	8833.23
487.677	9152.71
487.881	8945.87
488.085	8829.13
488.289	8992.97
488.493	9011.4
488.697	9091.27
488.901	8886.48
489.105	8954.06
489.309	9044.17
489.512	8962.25
489.716	8870.09
489.92	9054.41
490.124	8947.92
490.328	9267.4
490.531	9011.4
490.735	9214.15
490.939	9074.89
491.143	9218.25
491.346	9044.17
491.55	9205.96
491.754	9199.82
491.958	9507.01
492.161	9267.4
492.365	9396.42
492.569	9447.62
492.772	9504.96
492.976	9466.05
493.18	9623.75
493.383	9658.56
493.587	9646.27
493.79	9836.74
493.994	9646.27
494.197	9976
494.401	10008.76
494.605	9920.7
494.808	10029.24
495.012	10107.07
495.215	10139.83
495.419	10569.91
495.622	10021.05
495.825	10422.45
496.029	10275
496.232	10647.73
496.436	10862.77
496.639	10868.91
496.843	10834.1
497.046	11055.28
497.249	11153.58
497.453	11298.98
497.656	11208.87
497.859	11518.12
498.063	11387.05
498.266	11827.36
498.469	11591.84
498.673	11692.19
498.876	11847.84
499.079	12073.12
499.282	12093.6
499.485	12445.85
499.689	12378.26
499.892	12839.06
500.095	12972.18
500.298	13004.94
500.501	12822.67
500.705	13435.02
500.908	13418.63
501.111	13379.72
501.314	13330.57
501.517	13639.81
501.72	13858.95
501.923	13887.62
502.126	14166.14
502.329	14430.33
502.532	14350.46
502.735	14665.85
502.938	14848.11
503.141	14862.45
503.344	15370.35
503.547	15079.54
503.75	15097.97
503.953	15648.87
504.156	15806.56
504.359	15884.39
504.562	15913.06
504.765	16302.17
504.968	16523.35
505.17	16640.09
505.373	16617.56
505.576	16937.04
505.779	16980.05
505.982	17332.3
506.185	17584.2
506.387	17789
506.59	17977.41
506.793	18219.07
506.996	18186.3
507.198	18618.43
507.401	18645.05
507.604	18466.88
507.807	18917.43
508.009	19388.46
508.212	19423.28
508.415	19654.7
508.617	19832.87
508.82	19875.88
509.022	19894.31
509.225	20213.79
509.428	20699.16
509.63	20680.73
509.833	20893.72
510.035	21446.67
510.238	21469.2
510.44	21719.05
510.643	21956.61
510.845	22198.27
511.048	22022.15
511.25	22308.86
511.453	22581.24
511.655	23461.87
511.858	22818.81
512.06	23439.34
512.262	23568.37
512.465	23330.8
512.667	23787.5
512.87	24102.89
513.072	24227.81
513.274	24719.32
513.477	24799.19
513.679	25278.42
513.881	25493.46
514.084	25653.2
514.286	25427.92
514.488	25778.12
514.69	26412.99
514.893	26630.08
515.095	26814.4
515.297	26750.91
515.499	27250.61
515.701	27486.13
515.904	27647.92
516.106	28055.47
516.308	28196.78
516.51	28755.87
516.712	28499.87
516.914	28708.77
517.116	29405.08
517.318	29196.18
517.52	29632.4
517.722	29388.69
517.925	30125.96
518.127	31004.54
518.329	31235.96
518.531	30543.75
518.733	31557.49
518.935	31575.92
519.136	31502.2
519.338	32012.14
519.54	32223.08
519.742	32474.98
519.944	32911.2
520.146	32765.79
520.348	33343.32
520.55	33396.57
520.752	33412.95
520.954	34033.49
521.155	33886.03
521.357	34162.51
521.559	34737.99
521.761	35270.46
521.963	35442.49
522.164	35522.36
522.366	35835.7
522.568	36058.93
522.77	36241.2
522.971	36972.32
523.173	36437.8
523.375	36718.37
523.576	37031.71
523.778	37099.3
523.98	37435.16
524.181	37689.11
524.383	37637.91
524.584	38014.74
524.786	38424.33
524.988	38233.87
525.189	38903.56
525.391	38985.47
525.592	39567.1
525.794	39304.96
525.995	38942.47
526.197	39444.22
526.398	39462.65
526.6	39919.35
526.801	40029.94
527.003	40158.96
527.204	40435.44
527.406	40707.82
527.607	40826.6
527.808	40998.63
528.01	40537.83
528.211	40990.44
528.412	41901.78
528.614	41502.43
528.815	41625.31
529.016	42129.11
529.218	41639.64
529.419	41699.03
529.62	41451.23
529.822	42127.06
530.023	42006.23
530.224	42467.02
530.425	42041.04
530.626	41778.9
530.828	41418.46
531.029	42610.38
531.23	42626.76
531.431	42911.43
531.632	42839.75
531.833	42954.44
532.035	42923.72
532.236	42882.76
532.437	43013.83
532.638	42833.61
532.839	43243.2
533.04	42976.97
533.241	43058.88
533.442	43454.14
533.643	43323.07
533.844	43470.53
534.045	43421.37
534.246	42680.01
534.447	43585.21
534.648	43157.19
534.849	43548.35
535.05	43210.43
535.251	43392.7
535.451	43110.08
535.652	43638.46
535.853	43390.66
536.054	43323.07
536.255	43851.45
536.456	42958.53
536.657	44281.52
536.857	43089.6
537.058	43093.7
537.259	43624.12
537.46	43617.98
537.66	43140.8
537.861	43597.5
538.062	43085.51
538.263	43148.99
538.463	43167.43
538.664	43675.32
538.865	43349.7
539.065	43587.26
539.266	43212.48
539.466	43581.12
539.667	43032.26
539.868	43876.02
540.068	43437.76
540.269	43355.84
540.469	43867.83
540.67	43482.81
540.87	43202.24
541.071	43425.47
541.271	43331.26
541.472	43609.79
541.672	43421.37
541.873	43275.97
542.073	42870.47
542.274	44359.34
542.474	43284.16
542.675	43134.66
542.875	43613.88
543.075	42976.97
543.276	42723.02
543.476	43622.08
543.676	43310.78
543.877	43525.82
544.077	43462.33
544.277	43181.76
544.478	43450.05
544.678	43271.87
544.878	43153.09
545.078	43331.26
545.279	42983.11
545.479	43151.04
545.679	43392.7
545.879	43259.59
546.079	43167.43
546.28	42864.33
546.48	42637
546.68	43241.15
546.88	43056.84
547.08	43228.87
547.28	42901.19
547.48	42673.87
547.68	43103.94
547.88	42946.25
548.081	43333.31
548.281	43169.47
548.481	43036.36
548.681	42942.15
548.881	42792.65
549.081	42948.29
549.28	42561.23
549.48	43523.77
549.68	42847.94
549.88	43353.79
550.08	42643.15
550.28	43067.08
550.48	42770.12
550.68	43011.78
550.88	42817.22
551.08	42399.44
551.279	42847.94
551.479	42725.07
551.679	42835.66
551.879	42438.35
552.079	42833.61
552.278	42546.89
552.478	42729.16
552.678	42843.85
552.878	42565.32
553.077	42602.19
553.277	42264.27
553.477	42874.57
553.676	42516.17
553.876	42327.76
554.076	42157.78
554.275	42383.05
554.475	42178.26
554.674	42344.14
554.874	42487.5
555.074	42151.63
555.273	42172.11
555.473	42669.77
555.672	42053.33
555.872	42022.61
556.071	41881.3
556.271	42051.28
556.47	41985.75
556.67	41621.21
556.869	41672.41
557.068	41864.92
557.268	41672.41
557.467	41674.46
557.667	41754.33
557.866	41533.15
558.065	41803.48
558.265	41574.11
558.464	41473.76
558.663	41449.18
558.863	41170.66
559.062	42092.24
559.261	41023.2
559.461	41832.15
559.66	40873.7
559.859	41058.02
560.058	40861.41
560.258	41080.55
560.457	40541.93
560.656	41125.6
560.855	40568.55
561.054	40836.84
561.253	40603.37
561.453	40691.43
561.652	40705.77
561.851	40572.65
562.05	40361.71
562.249	40251.12
562.448	40701.67
562.647	39941.88
562.846	39966.45
563.045	39821.05
563.244	39458.56
563.443	40085.23
563.642	39579.39
563.841	39628.54
564.04	39519.99
564.239	39718.65
564.438	39309.05
564.637	39571.19
564.836	39673.59
565.035	39079.68
565.234	39163.65
565.432	39304.96
565.631	38911.75
565.83	38981.38
566.029	38883.08
566.228	38375.18
566.427	38166.29
566.625	38194.96
566.824	37689.11
567.023	38514.44
567.222	37697.3
567.42	38706.95
567.619	37938.96
567.818	38231.82
568.016	37490.46
568.215	38303.5
568.414	37420.83
568.612	38158.1
568.811	37902.1
569.01	37191.45
569.208	37271.32
569.407	37449.5
569.605	36656.93
569.804	37302.04
570.002	36923.17
570.201	37082.91
570.4	36523.82
570.598	36503.34
570.797	36593.45
570.995	36319.02
571.193	36138.8
571.392	36452.14
571.59	35956.53
571.789	36220.72
571.987	35934
572.186	36151.09
572.384	35395.39
572.582	35811.12
572.781	35591.99
572.979	35094.33
573.177	35000.13
573.376	35479.35
573.574	35008.32
573.772	35393.34
573.971	35184.44
574.169	34830.15
574.367	34942.78
574.565	34955.07
574.763	34539.33
574.962	34664.26
575.16	34365.26
575.358	34527.05
575.556	34508.61
575.754	34678.6
575.952	33959.76
576.151	34510.66
576.349	33564.5
576.547	33902.42
576.745	34029.39
576.943	33822.55
577.141	33539.93
577.339	33810.26
577.537	33449.81
577.735	33507.16
577.933	33099.61
578.131	33478.49
578.329	33017.69
578.527	32800.61
578.725	32911.2
578.923	33007.45
579.121	32474.98
579.319	32354.15
579.516	32714.59
579.714	32565.09
579.912	32370.54
580.11	32288.62
580.308	32092.01
580.506	32266.09
580.704	31967.09
580.901	31987.57
581.099	32268.14
581.297	31729.52
581.495	31799.15
581.692	31758.19
581.89	31250.3
582.088	31367.03
582.285	31430.52
582.483	31440.76
582.681	31262.58
582.878	31147.9
583.076	31229.82
583.274	31209.34
583.471	30564.23
583.669	30951.29
583.866	30762.88
584.064	30621.57
584.262	30367.62
584.459	30764.93
584.657	30488.45
584.854	30713.73
585.052	30394.25
585.249	30336.9
585.447	30224.26
585.644	29718.42
585.841	30078.86
586.039	30359.43
586.236	29706.13
586.434	29765.52
586.631	29620.11
586.828	29409.17
587.026	29456.28
587.223	29392.79
587.42	29239.19
587.618	29458.32
587.815	29142.94
588.012	29433.75
588.21	28929.95
588.407	29128.6
588.604	28749.73
588.801	28493.73
588.999	28528.55
589.196	28622.75
589.393	28266.41
589.59	28612.51
589.787	28301.22
589.984	28211.11
590.182	27887.53
590.379	28184.49
590.576	27482.03
590.773	27856.81
590.97	27813.8
591.167	27924.4
591.364	27359.16
591.561	27553.71
591.758	27080.63
591.955	27250.61
592.152	27291.57
592.349	26972.09
592.546	27275.19
592.743	27451.31
592.94	26572.74
593.137	26892.22
593.334	27152.31
593.531	26412.99
593.727	26709.95
593.924	26722.24
594.121	26419.14
594.318	26560.45
594.515	26288.07
594.712	26435.52
594.908	26044.36
595.105	26187.72
595.302	25958.35
595.499	26079.18
595.696	25896.91
595.892	25839.56
596.089	26073.03
596.286	26030.02
596.482	25870.28
596.679	25597.9
596.876	25391.06
597.072	25647.05
597.269	25227.22
597.466	25151.45
597.662	25022.42
597.859	25298.9
598.055	25196.5
598.252	24889.31
598.448	24903.64
598.645	24891.35
598.841	24639.45
599.038	24731.61
599.234	24713.18
599.431	24109.03
599.627	24080.36
599.824	24666.08
600.02	24375.27
600.217	24469.47
600.413	24031.21
600.609	23984.1
600.806	24027.11
601.002	23922.66
601.198	23613.42
601.395	23932.9
601.591	23846.89
601.787	23832.55
601.984	23556.08
602.18	23635.95
602.376	23183.35
602.572	23252.98
602.769	23310.32
602.965	23021.56
603.161	23322.61
603.357	23166.96
603.553	23138.29
603.75	23003.13
603.946	22960.12
604.142	23062.52
604.338	22497.28
604.534	22855.67
604.73	22605.82
604.926	22528
605.122	22470.65
605.318	22409.22
605.514	22175.75
605.71	22517.76
605.906	22114.31
606.102	22157.32
606.298	21899.27
606.494	22085.64
606.69	21743.63
606.886	21927.94
607.082	21630.99
607.278	22149.12
607.474	21131.28
607.67	21647.37
607.866	21608.46
608.062	21667.85
608.257	21268.5
608.453	21471.25
608.649	21497.87
608.845	21491.73
609.041	20981.78
609.236	21245.97
609.432	21051.41
609.628	21526.54
609.824	20989.97
610.019	20817.94
610.215	20908.05
610.411	20807.7
610.606	20891.67
610.802	20676.63
610.998	21321.74
611.193	20729.88
611.389	20715.55
611.584	20594.72
611.78	20480.03
611.976	20607
612.171	20488.22
612.367	20404.25
612.562	20762.65
612.758	20041.76
612.953	20195.36
613.149	20676.63
613.344	20107.3
613.539	20531.23
613.735	20209.7
613.93	20244.51
614.126	20049.96
614.321	20264.99
614.517	19759.14
614.712	19755.05
614.907	19902.5
615.103	20264.99
615.298	19806.25
615.493	20205.6
615.688	19546.16
615.884	20176.93
616.079	19429.42
616.274	19869.73
616.47	19597.35
616.665	19359.79
616.86	19548.2
617.055	19386.41
617.25	19656.75
617.445	19365.93
617.641	18987.06
617.836	19245.1
618.031	18860.09
618.226	19089.46
618.421	19140.66
618.616	19429.42
618.811	19042.35
619.006	19142.71
619.201	18477.12
619.396	18962.48
619.591	18264.13
619.786	18696.25
619.981	18360.38
620.176	18647.1
620.371	18174.02
620.566	18382.91
620.761	18073.67
620.956	18468.92
621.151	17864.77
621.346	18077.76
621.541	17944.64
621.735	17932.36
621.93	17606.73
622.125	17940.55
622.32	17365.07
622.515	17547.34
622.709	17389.64
622.904	17426.51
623.099	17227.85
623.294	17277.01
623.488	17051.73
623.683	17234
623.878	16728.15
624.072	16801.88
624.267	16689.24
624.462	16543.83
624.656	16506.97
624.851	16472.15
625.046	16412.76
625.24	16343.13
625.435	16050.27
625.629	16218.21
625.824	15980.64
626.018	16117.86
626.213	15497.32
626.407	15822.95
626.602	15489.13
626.796	16113.76
626.991	15521.9
627.185	15405.16
627.38	15247.47
627.574	15452.27
627.768	14987.38
627.963	14901.36
628.157	14991.47
628.352	15050.86
628.546	14755.96
628.74	14803.06
628.935	14536.82
629.129	14567.54
629.323	14545.02
629.517	14551.16
629.712	14383.23
629.906	14456.95
630.1	14174.33
630.294	14028.93
630.489	14190.72
630.683	14078.08
630.877	13914.24
631.071	13998.21
631.265	13893.76
631.459	13742.21
631.653	13756.55
631.848	13494.41
632.042	13504.65
632.236	13748.36
632.43	13224.08
632.624	13377.67
632.818	13123.73
633.012	13105.29
633.206	13226.12
633.4	13029.52
633.594	12873.87
633.788	12988.56
633.982	13062.29
634.176	12816.53
634.369	12777.62
634.563	12564.63
634.757	12441.75
634.951	12519.57
635.145	12368.02
635.339	12392.6
635.533	12183.71
635.726	12269.72
635.92	12054.69
636.114	12097.69
636.308	12120.22
636.501	11894.94
636.695	11749.54
636.889	11991.2
637.083	12021.92
637.276	11612.32
637.47	11774.11
637.664	11534.5
637.857	11638.95
638.051	11385
638.244	11251.88
638.438	11321.51
638.632	11362.47
638.825	11020.46
639.019	11280.55
639.212	10928.3
639.406	11151.53
639.599	11065.52
639.793	10803.38
639.986	10823.86
640.18	10750.13
640.373	10823.86
640.567	10580.15
640.76	10903.73
640.954	10336.44
641.147	10444.98
641.34	10369.21
641.534	10434.74
641.727	10127.55
641.92	10283.19
642.114	10277.05
642.307	10332.34
642.5	10027.2
642.694	9967.81
642.887	10027.2
643.08	10016.96
643.273	9910.46
643.467	9941.18
643.66	9724.1
643.853	9560.26
644.046	9615.55
644.239	9713.86
644.432	9560.26
644.626	9488.58
644.819	9273.54
645.012	9421
645.205	9537.73
645.398	9451.72
645.591	9197.77
645.784	9275.59
645.977	9111.75
646.17	9251.02
646.363	8927.44
646.556	9013.45
646.749	9132.23
646.942	8954.06
647.135	8984.78
647.328	9021.64
647.521	8884.43
647.714	8675.54
647.907	8771.79
648.099	8583.38
648.292	8806.61
648.485	8630.48
648.678	8659.15
648.871	8245.46
649.064	8464.6
649.256	8444.12
649.449	8179.93
649.642	8231.13
649.835	8218.84
650.027	8288.47
650.22	8169.69
650.413	8192.22
650.605	8136.92
650.798	8114.39
650.991	8044.76
651.183	8093.91
651.376	7962.84
651.568	7954.65
651.761	7772.38
651.954	7764.19
652.146	7848.16
652.339	7553.25
652.531	7616.74
652.724	7643.36
652.916	7448.8
653.109	7479.52
653.301	7545.06
653.494	7598.31
653.686	7413.99
653.879	7440.61
654.071	7477.48
654.263	7215.34
654.456	7186.66
654.648	7221.48
654.84	7143.66
655.033	7022.83
655.225	6998.25
655.417	6971.63
655.61	7252.2
655.802	7121.13
655.994	6906.09
656.186	6963.44
656.379	6920.43
656.571	6904.04
656.763	6795.5
656.955	6772.97
657.148	6912.24
657.34	6666.48
657.532	6551.79
657.724	6777.07
657.916	6568.18
658.108	6660.34
658.3	6400.24
658.492	6527.22
658.684	6480.11
658.876	6498.55
659.068	6433.01
659.26	6375.67
659.452	6398.2
659.644	6344.95
659.836	6271.22
660.028	6398.2
660.22	6129.91
660.412	6306.04
660.604	6088.95
660.796	6023.42
660.988	6086.9
661.18	6238.45
661.372	5992.7
661.563	6029.56
661.755	5998.84
661.947	6054.14
662.139	5835
662.331	5847.29
662.522	5609.73
662.714	5820.67
662.906	5871.87
663.097	5701.89
663.289	5673.21
663.481	5769.47
663.673	5875.96
663.864	5570.82
664.056	5626.11
664.247	5691.65
664.439	5519.62
664.631	5632.26
664.822	5638.4
665.014	5724.41
665.205	5626.11
665.397	5529.86
665.588	5587.2
665.78	5415.17
665.971	5433.6
666.163	5454.08
666.354	5425.41
666.546	5388.55
666.737	5282.05
666.929	5382.4
667.12	5392.64
667.311	5120.26
667.503	5394.69
667.694	5339.4
667.885	5126.41
668.077	4987.15
668.268	5232.9
668.459	5081.35
668.651	5177.61
668.842	5052.68
669.033	5067.02
669.224	5064.97
669.416	4987.15
669.607	4976.91
669.798	4946.19
669.989	5042.44
670.18	4831.5
670.371	4999.43
670.563	4962.57
670.754	4884.75
670.945	4964.62
671.136	4774.16
671.327	4913.42
671.518	4952.33
671.709	4878.6
671.9	4983.05
672.091	5019.91
672.282	4704.53
672.473	4714.77
672.664	4702.48
672.855	4667.66
673.046	4784.4
673.237	4692.24
673.428	4901.13
673.619	4692.24
673.809	4751.63
674	4655.37
674.191	4757.77
674.382	4552.98
674.573	4749.58
674.764	4598.03
674.954	4716.81
675.145	4585.74
675.336	4741.39
675.527	4679.95
675.717	4585.74
675.908	4571.41
676.099	4595.98
676.289	4501.78
676.48	4581.65
676.671	4520.21
676.861	4606.22
677.052	4454.67
677.243	4522.26
677.433	4526.35
677.624	4618.51
677.814	4577.55
678.005	4524.3
678.195	4528.4
678.386	4491.54
678.576	4466.96
678.767	4561.17
678.957	4399.38
679.148	4565.26
679.338	4450.58
679.529	4495.63
679.719	4516.11
679.909	4512.02
680.1	4469.01
680.29	4391.19
680.481	4557.07
680.671	4393.23
680.861	4417.81
681.052	4667.66
681.242	4421.91
681.432	4432.15
681.622	4460.82
681.813	4421.91
682.003	4417.81
682.193	4387.09
682.383	4385.04
682.573	4608.27
682.764	4274.45
682.954	4526.35
683.144	4372.75
683.334	4491.54
683.524	4540.69
683.714	4262.16
683.904	4286.74
684.094	4440.34
684.284	4333.84
684.474	4638.99
684.664	4378.9
684.854	4483.34
685.044	4331.8
685.234	4305.17
685.424	4358.42
685.614	4325.65
685.804	4342.04
685.994	4221.2
686.184	4432.15
686.374	4282.64
686.564	4329.75
686.753	4245.78
686.943	4059.42
687.133	4057.37
687.323	4145.43
687.513	4190.49
687.702	4213.01
687.892	4077.85
688.082	4030.74
688.272	4219.16
688.461	4141.33
688.651	4133.14
688.841	4075.8
689.03	4092.18
689.22	4067.61
689.41	3975.45
689.599	3889.43
689.789	4030.74
689.979	4129.05
690.168	4020.5
690.358	3932.44
690.547	3967.26
690.737	3903.77
690.926	3963.16
691.116	3842.33
691.305	4026.65
691.495	3819.8
691.684	3827.99
691.874	3811.61
692.063	3793.18
692.252	3709.21
692.442	3805.47
692.631	3754.27
692.82	3807.52
693.01	3778.84
693.199	3762.46
693.388	3537.18
693.578	3725.6
693.767	3744.03
693.956	3643.68
694.146	3705.12
694.335	3565.85
694.524	3610.91
694.713	3627.29
694.902	3479.84
695.092	3674.4
695.281	3592.48
695.47	3598.62
695.659	3502.37
695.848	3674.4
696.037	3574.05
696.226	3520.8
696.415	3430.69
696.604	3500.32
696.793	3553.57
696.982	3422.5
697.171	3506.46
697.36	3508.51
697.549	3422.5
697.738	3535.14
697.927	3453.22
698.116	3455.26
698.305	3485.98
698.494	3567.9
698.683	3496.22
698.872	3565.85
699.061	3379.49
699.25	3494.18
699.438	3399.97
699.627	3510.56
699.816	3332.39
700.005	3416.35
700.193	3477.79
700.382	3303.71
700.571	3455.26
700.76	3397.92
700.948	3535.14
701.137	3381.54
701.326	3262.76
701.514	3402.02
701.703	3528.99
701.892	3244.32
702.08	3516.7
702.269	3324.19
702.457	3275.04
702.646	3385.63
702.834	3279.14
703.023	3389.73
703.212	3537.18
703.4	3375.39
703.589	3289.38
703.777	3451.17
703.965	3389.73
704.154	3383.59
704.342	3455.26
704.531	3365.15
704.719	3316
704.907	3363.11
705.096	3332.39
705.284	3348.77
705.472	3375.39
705.661	3406.11
705.849	3279.14
706.037	3379.49
706.226	3354.91
706.414	3342.63
706.602	3307.81
706.79	3461.41
706.979	3295.52
707.167	3291.43
707.355	3361.06
707.543	3336.48
707.731	3451.17
707.919	3201.32
708.107	3266.85
708.296	3320.1
708.484	3416.35
708.672	3307.81
708.86	3348.77
709.048	3254.56
709.236	3428.64
709.424	3270.95
709.612	3279.14
709.8	3410.21
709.988	3307.81
710.176	3428.64
710.364	3350.82
710.551	3410.21
710.739	3266.85
710.927	3496.22
711.115	3336.48
711.303	3381.54
711.491	3320.1
711.679	3334.43
711.866	3336.48
712.054	3356.96
712.242	3311.91
712.43	3404.07
712.617	3303.71
712.805	3328.29
712.993	3273
713.181	3371.3
713.368	3246.37
713.556	3350.82
713.744	3289.38
713.931	3377.44
714.119	3457.31
714.306	3422.5
714.494	3475.74
714.682	3238.18
714.869	3404.07
715.057	3332.39
715.244	3332.39
715.432	3293.48
715.619	3395.87
715.807	3316
715.994	3307.81
716.182	3342.63
716.369	3416.35
716.556	3416.35
716.744	3330.34
716.931	3356.96
717.119	3422.5
717.306	3424.55
717.493	3381.54
717.681	3350.82
717.868	3324.19
718.055	3488.03
718.242	3209.51
718.43	3318.05
718.617	3410.21
718.804	3379.49
718.991	3490.08
719.179	3387.68
719.366	3303.71
719.553	3387.68
719.74	3326.24
719.927	3318.05
720.114	3485.98
720.301	3336.48
720.488	3352.87
720.676	3254.56
720.863	3336.48
721.05	3277.09
721.237	3438.88
721.424	3301.67
721.611	3311.91
721.798	3410.21
721.985	3330.34
722.172	3412.26
722.358	3354.91
722.545	3354.91
722.732	3406.11
722.919	3273
723.106	3371.3
723.293	3412.26
723.48	3320.1
723.667	3242.28
723.853	3399.97
724.04	3313.95
724.227	3375.39
724.414	3297.57
724.6	3381.54
724.787	3322.15
724.974	3381.54
725.161	3311.91
725.347	3119.4
725.534	3455.26
725.72	3473.7
725.907	3242.28
726.094	3393.83
726.28	3324.19
726.467	3258.66
726.653	3217.7
726.84	3346.72
727.027	3385.63
727.213	3156.26
727.4	3377.44
727.586	3418.4
727.773	3338.53
727.959	3287.33
728.145	3258.66
728.332	3356.96
728.518	3293.48
728.705	3244.32
728.891	3299.62
729.077	3201.32
729.264	3332.39
729.45	3070.25
729.636	3270.95
729.823	3080.49
730.009	3389.73
730.195	3387.68
730.382	3293.48
730.568	3215.65
730.754	3295.52
730.94	3217.7
731.126	3373.35
731.313	3313.95
731.499	3326.24
731.685	3201.32
731.871	3211.56
732.057	3379.49
732.243	3195.17
732.429	3180.84
732.615	3262.76
732.801	3156.26
732.987	3320.1
733.173	3180.84
733.359	3193.12
733.545	3189.03
733.731	3182.88
733.917	3205.41
734.103	3285.28
734.289	3119.4
734.475	3295.52
734.661	3170.6
734.847	3098.92
735.033	3055.91
735.219	3197.22
735.404	3174.69
735.59	3119.4
735.776	3100.97
735.962	3164.45
736.148	3168.55
736.333	3080.49
736.519	3184.93
736.705	3191.08
736.89	3049.77
737.076	3094.82
737.262	3053.86
737.447	3103.01
737.633	2961.7
737.819	2951.46
738.004	2990.38
738.19	3041.57
738.375	3123.49
738.561	3064.1
738.747	3057.96
738.932	2928.94
739.118	3176.74
739.303	3010.86
739.489	3029.29
739.674	3017
739.859	2930.98
740.045	3029.29
740.23	2955.56
740.416	3019.05
740.601	2949.42
740.786	2902.31
740.972	2930.98
741.157	2916.65
741.342	2865.45
741.528	2971.94
741.713	2898.22
741.898	2887.98
742.084	2939.18
742.269	2861.35
742.454	2949.42
742.639	2726.19
742.824	2812.2
743.01	2906.41
743.195	2795.82
743.38	2914.6
743.565	2789.67
743.75	2844.97
743.935	2820.39
744.12	2804.01
744.305	2656.56
744.49	2668.84
744.675	2621.74
744.86	2734.38
745.045	2558.25
745.23	2715.95
745.415	2699.56
745.6	2783.53
745.785	2654.51
745.97	2441.52
746.155	2582.83
746.34	2629.93
746.525	2650.41
746.71	2619.69
746.895	2541.87
747.079	2519.34
747.264	2646.32
747.449	2556.21
747.634	2474.29
747.819	2521.39
748.003	2375.99
748.188	2369.84
748.373	2435.38
748.557	2427.18
748.742	2416.94
748.927	2408.75
749.111	2373.94
749.296	2312.5
749.481	2375.99
749.665	2380.08
749.85	2345.27
750.034	2275.63
750.219	2271.54
750.404	2177.33
750.588	2206
750.773	2259.25
750.957	2277.68
751.141	2173.24
751.326	2246.96
751.51	2148.66
751.695	2156.85
751.879	2074.93
752.064	2175.28
752.248	2144.56
752.432	2154.8
752.617	2031.93
752.801	2081.08
752.985	2017.59
753.17	2060.6
753.354	1976.63
753.538	2001.21
753.722	2023.73
753.907	1993.01
754.091	1972.54
754.275	1861.94
754.459	1964.34
754.643	1888.57
754.828	1851.71
755.012	1868.09
755.196	1820.99
755.38	1845.56
755.564	1677.63
755.748	1769.79
755.932	1909.05
756.116	1790.27
756.3	1798.46
756.484	1642.81
756.668	1825.08
756.852	1694.01
757.036	1694.01
757.22	1753.4
757.404	1685.82
757.588	1644.86
757.772	1780.03
757.956	1655.1
758.14	1714.49
758.323	1599.8
758.507	1626.43
758.691	1583.42
758.875	1591.61
759.059	1640.76
759.242	1552.7
759.426	1538.37
759.61	1634.62
759.794	1634.62
759.977	1616.19
760.161	1546.56
760.345	1558.85
760.528	1481.02
760.712	1468.73
760.895	1569.09
761.079	1390.91
761.263	1493.31
761.446	1442.11
761.63	1360.19
761.813	1591.61
761.997	1554.75
762.18	1487.17
762.364	1472.83
762.547	1464.64
762.731	1415.49
762.914	1341.76
763.098	1292.61
763.281	1413.44
763.464	1319.23
763.648	1341.76
763.831	1345.86
764.015	1280.32
764.198	1382.72
764.381	1333.57
764.564	1315.14
764.748	1286.47
764.931	1268.03
765.114	1313.09
765.297	1265.99
765.481	1294.66
765.664	1321.28
765.847	1274.18
766.03	1333.57
766.213	1196.36
766.397	1194.31
766.58	1194.31
766.763	1284.42
766.946	1173.83
767.129	1214.79
767.312	1206.59
767.495	1245.51
767.678	1132.87
767.861	1251.65
768.044	1227.07
768.227	1214.79
768.41	1237.31
768.593	1235.27
768.776	1218.88
768.959	1325.38
769.142	1214.79
769.324	1161.54
769.507	1220.93
769.69	1143.11
769.873	1212.74
770.056	1147.2
770.239	1151.3
770.421	1173.83
770.604	1130.82
770.787	1102.15
770.97	1122.63
771.152	1147.2
771.335	1071.43
771.518	1136.96
771.7	1087.81
771.883	1026.37
772.066	1046.85
772.248	1093.96
772.431	1030.47
772.613	1122.63
772.796	1098.05
772.978	1038.66
773.161	905.54
773.343	973.13
773.526	1038.66
773.708	923.98
773.891	938.31
774.073	903.5
774.256	985.41
774.438	936.26
774.621	1020.23
774.803	981.32
774.985	876.87
775.168	901.45
775.35	938.31
775.532	942.41
775.715	872.78
775.897	934.22
776.079	872.78
776.261	966.98
776.444	960.84
776.626	887.11
776.808	891.21
776.99	760.14
777.173	887.11
777.355	923.98
777.537	872.78
777.719	860.49
777.901	856.39
778.083	850.25
778.265	774.47
778.447	866.63
778.629	792.91
778.811	819.53
778.993	831.82
779.175	782.67
779.357	774.47
779.539	768.33
779.721	788.81
779.903	831.82
780.085	805.19
780.267	741.71
780.449	745.8
780.631	729.42
780.812	733.51
780.994	696.65
781.176	727.37
781.358	753.99
781.54	680.27
781.721	753.99
781.903	710.99
782.085	674.12
782.267	786.76
782.448	715.08
782.63	610.64
782.812	721.23
782.993	698.7
783.175	751.95
783.357	610.64
783.538	567.63
783.72	649.55
783.901	618.83
784.083	624.97
784.264	635.21
784.446	657.74
784.627	567.63
784.809	682.31
784.99	557.39
785.172	612.68
785.353	624.97
785.535	553.29
785.716	553.29
785.897	600.4
786.079	551.24
786.26	553.29
786.441	581.96
786.623	518.48
786.804	649.55
786.985	575.82
787.167	543.05
787.348	516.43
787.529	465.23
787.71	575.82
787.891	512.33
788.073	594.25
788.254	506.19
788.435	588.11
788.616	467.28
788.797	567.63
788.978	563.53
789.159	444.75
789.34	475.47
789.522	491.85
789.703	483.66
789.884	508.24
790.065	444.75
790.246	577.87
790.427	475.47
790.607	461.13
790.788	469.33
790.969	436.56
791.15	420.17
791.331	444.75
791.512	493.9
791.693	434.51
791.874	448.85
792.054	469.33
792.235	522.57
792.416	411.98
792.597	444.75
792.778	379.22
792.958	452.94
793.139	416.08
793.32	346.45
793.5	389.46
793.681	450.89
793.862	362.83
794.042	403.79
794.223	399.7
794.404	442.7
794.584	403.79
794.765	401.74
794.945	407.89
795.126	405.84
795.306	379.22
795.487	399.7
795.667	389.46
795.848	397.65
796.028	317.78
796.209	342.35
796.389	414.03
796.57	309.58
796.75	319.82
796.93	346.45
797.111	301.39
797.291	256.34
797.471	385.36
797.652	330.06
797.832	411.98
798.012	452.94
798.192	317.78
798.373	325.97
798.553	287.06
798.733	422.22
798.913	321.87
799.093	287.06
799.274	332.11
799.454	360.78
799.634	387.41
799.814	362.83
799.994	313.68
800.174	336.21
800.354	375.12
800.534	246.1
800.714	309.58
800.894	248.15
801.074	272.72
801.254	252.24
801.434	346.45
801.614	358.74
801.794	272.72
801.974	870.73
802.154	274.77
802.334	328.02
802.514	344.4
802.693	256.34
802.873	346.45
803.053	309.58
803.233	348.5
803.413	264.53
803.592	250.19
803.772	366.93
803.952	280.91
804.131	227.67
804.311	321.87
804.491	231.76
804.67	297.3
804.85	250.19
805.03	301.39
805.209	338.26
805.389	248.15
805.568	295.25
805.748	274.77
805.928	244.05
806.107	244.05
806.287	330.06
806.466	196.95
806.646	262.48
806.825	313.68
807.004	196.95
807.184	278.87
807.363	311.63
807.543	180.56
807.722	188.75
807.901	244.05
808.081	266.58
808.26	196.95
808.439	227.67
808.619	233.81
808.798	270.67
808.977	315.73
809.156	350.54
809.336	229.71
809.515	198.99
809.694	239.95
809.873	229.71
810.052	227.67
810.231	219.47
810.411	217.43
810.59	282.96
810.769	198.99
810.948	252.24
811.127	182.61
811.306	194.9
811.485	158.03
811.664	319.82
811.843	233.81
812.022	209.23
812.201	203.09
812.38	250.19
812.559	239.95
812.737	213.33
812.916	198.99
813.095	221.52
813.274	301.39
813.453	223.57
813.632	174.42
813.811	252.24
813.989	227.67
814.168	217.43
814.347	153.94
814.526	166.23
814.704	221.52
814.883	182.61
815.062	231.76
815.24	182.61
815.419	205.14
815.598	235.86
815.776	223.57
815.955	213.33
816.133	160.08
816.312	225.62
816.49	223.57
816.669	145.75
816.847	135.51
817.026	168.27
817.204	188.75
817.383	221.52
817.561	182.61
817.74	203.09
817.918	194.9
818.097	125.27
818.275	141.65
818.453	174.42
818.632	231.76
818.81	196.95
818.988	184.66
819.167	153.94
819.345	121.17
819.523	164.18
819.701	125.27
819.879	196.95
820.058	100.69
820.236	219.47
820.414	155.99
820.592	211.28
820.77	121.17
820.948	184.66
821.127	145.75
821.305	129.36
821.483	182.61
821.661	211.28
821.839	203.09
822.017	125.27
822.195	108.88
822.373	153.94
822.551	172.37
822.729	149.84
822.907	125.27
823.085	164.18
823.262	162.13
823.44	133.46
823.618	137.56
823.796	172.37
823.974	104.79
824.152	186.71
824.329	63.83
824.507	211.28
824.685	121.17
824.863	119.12
825.04	180.56
825.218	153.94
825.396	129.36
825.574	166.23
825.751	174.42
825.929	180.56
826.107	172.37
826.284	137.56
826.462	78.16
826.639	162.13
826.817	207.19
826.994	182.61
827.172	125.27
827.349	112.98
827.527	141.65
827.704	115.03
827.882	115.03
828.059	168.27
828.237	61.78
828.414	153.94
828.591	115.03
828.769	112.98
828.946	162.13
829.124	164.18
829.301	168.27
829.478	149.84
829.655	158.03
829.833	74.07
830.01	115.03
830.187	115.03
830.364	35.16
830.542	174.42
830.719	184.66
830.896	207.19
831.073	190.8
831.25	63.83
831.427	100.69
831.604	94.55
831.782	82.26
831.959	108.88
832.136	244.05
832.313	123.22
832.49	219.47
832.667	59.73
832.844	137.56
833.021	203.09
833.198	153.94
833.374	108.88
833.551	84.31
833.728	158.03
833.905	219.47
834.082	110.93
834.259	141.65
834.436	139.6
834.612	92.5
834.789	96.6
834.966	145.75
835.143	135.51
835.319	139.6
835.496	119.12
835.673	133.46
835.85	151.89
836.026	129.36
836.203	119.12
836.38	43.35
836.556	86.36
836.733	43.35
836.909	106.84
837.086	72.02
837.262	94.55
837.439	151.89
837.616	57.68
837.792	139.6
837.968	112.98
838.145	90.45
838.321	98.64
838.498	76.12
838.674	135.51
838.851	119.12
839.027	78.16
839.203	63.83
839.38	43.35
839.556	100.69
839.732	96.6
839.909	51.54
840.085	69.97
840.261	55.64
840.437	86.36
840.614	80.21
840.79	121.17
840.966	164.18
841.142	129.36
841.318	10.58
841.494	39.25
841.671	104.79
841.847	65.88
842.023	94.55
842.199	125.27
842.375	76.12
842.551	94.55
842.727	-54.95
842.903	78.16
843.079	43.35
843.255	108.88
843.431	98.64
843.607	182.61
843.783	61.78
843.959	96.6
844.134	51.54
844.31	112.98
844.486	98.64
844.662	88.4
844.838	125.27
845.013	-30.38
845.189	67.92
845.365	76.12
845.541	74.07
845.716	-3.75
845.892	72.02
846.068	-1.71
846.244	104.79
846.419	55.64
846.595	53.59
846.77	41.3
846.946	65.88
847.122	-28.33
847.297	127.32
847.473	57.68
847.648	39.25
847.824	131.41
847.999	51.54
848.175	49.49
848.35	43.35
848.526	35.16
848.701	158.03
848.876	74.07
849.052	31.06
849.227	47.44
849.403	131.41
849.578	6.49
849.753	98.64
849.929	16.73
850.104	90.45
850.279	90.45
850.454	80.21
850.63	100.69
850.805	26.96
850.98	67.92
851.155	59.73
851.33	-3.75
851.505	0.34
851.681	67.92
851.856	43.35
852.031	37.2
852.206	49.49
852.381	-9.9
852.556	47.44
852.731	26.96
852.906	104.79
853.081	108.88
853.256	59.73
853.431	67.92
853.606	-20.14
853.781	133.46
853.956	20.82
854.131	53.59
854.305	-9.9
854.48	-34.47
854.655	43.35
854.83	86.36
855.005	84.31
855.18	16.73
855.354	-28.33
855.529	84.31
855.704	35.16
855.879	98.64
856.053	-1.71
856.228	45.4
856.403	55.64
856.577	33.11
856.752	49.49
856.926	69.97
857.101	-5.8
857.276	-9.9
857.45	90.45
857.625	53.59
857.799	55.64
857.974	67.92
858.148	29.01
858.323	10.58
858.497	72.02
858.672	100.69
858.846	65.88
859.02	102.74
859.195	12.63
859.369	96.6
859.543	92.5
859.718	47.44
859.892	16.73
860.066	43.35
860.241	53.59
860.415	41.3
860.589	-30.38
860.763	6.49
860.938	55.64
861.112	82.26
861.286	88.4
861.46	72.02
861.634	76.12
861.808	67.92
861.982	-5.8
862.157	82.26
862.331	-65.19
862.505	55.64
862.679	0.34
862.853	67.92
863.027	47.44
863.201	117.08
863.375	57.68
863.549	141.65
863.722	43.35
863.896	43.35
864.07	82.26
864.244	18.77
864.418	67.92
864.592	31.06
864.766	59.73
864.939	12.63
865.113	-42.67
865.287	63.83
865.461	-22.19
865.634	26.96
865.808	100.69
865.982	51.54
866.156	45.4
866.329	47.44
866.503	47.44
866.676	69.97
866.85	12.63
867.024	-16.04
867.197	63.83
867.371	49.49
867.544	35.16
867.718	24.92
867.891	106.84
868.065	-59.05
868.238	-3.75
868.412	63.83
868.585	14.68
868.759	35.16
868.932	61.78
869.105	-54.95
869.279	16.73
869.452	24.92
869.625	-24.23
869.799	43.35
869.972	26.96
870.145	31.06
870.319	80.21
870.492	45.4
870.665	10.58
870.838	55.64
871.011	-42.67
871.185	10.58
871.358	4.44
871.531	31.06
871.704	0.34
871.877	16.73
872.05	31.06
872.223	18.77
872.396	47.44
872.569	51.54
872.742	16.73
872.915	41.3
873.088	-16.04
873.261	-32.43
873.434	59.73
873.607	31.06
873.78	35.16
873.953	39.25
874.126	82.26
874.299	8.53
874.471	41.3
874.644	41.3
874.817	82.26
874.99	41.3
875.163	72.02
875.335	51.54
875.508	31.06
875.681	90.45
875.853	-20.14
876.026	33.11
876.199	53.59
876.371	45.4
876.544	4.44
876.717	33.11
876.889	69.97
877.062	96.6
877.234	-9.9
877.407	65.88
877.579	-16.04
877.752	69.97
877.924	59.73
878.097	-16.04
878.269	106.84
878.442	51.54
878.614	67.92
878.786	72.02
878.959	-54.95
879.131	8.53
879.303	-5.8
879.476	6.49
879.648	4.44
879.82	0.34
879.993	-71.34
880.165	115.03
880.337	10.58
880.509	59.73
880.681	-32.43
880.854	24.92
881.026	74.07
881.198	29.01
881.37	55.64
881.542	43.35
881.714	26.96
881.886	53.59
882.058	63.83
882.23	-13.99
882.402	4.44
882.574	12.63
882.746	53.59
882.918	59.73
883.09	92.5
883.262	29.01
883.434	26.96
883.606	26.96
883.778	-18.09
883.95	57.68
884.122	41.3
884.293	10.58
884.465	61.78
884.637	47.44
884.809	-65.19
884.98	72.02
885.152	26.96
885.324	22.87
885.496	-16.04
885.667	-7.85
885.839	-16.04
886.011	47.44
886.182	20.82
886.354	20.82
886.525	18.77
886.697	-9.9
886.869	-36.52
887.04	12.63
887.212	-7.85
887.383	67.92
887.555	2.39
887.726	88.4
887.897	16.73
888.069	76.12
888.24	24.92
888.412	-38.57
888.583	-52.91
888.754	-26.28
888.926	8.53
889.097	74.07
889.268	-18.09
889.44	80.21
889.611	18.77
889.782	-61.1
889.953	41.3
890.125	-5.8
890.296	0.34
890.467	-44.71
890.638	55.64
890.809	82.26
890.98	51.54
891.151	82.26
891.323	35.16
891.494	24.92
891.665	-9.9
891.836	-1.71
892.007	-5.8
892.178	88.4
892.349	63.83
892.52	4.44
892.691	6.49
892.862	22.87
893.032	26.96
893.203	43.35
893.374	41.3
893.545	22.87
893.716	67.92
893.887	-1.71
894.057	-59.05
894.228	-18.09
894.399	4.44
894.57	63.83
894.74	39.25
894.911	33.11
895.082	18.77
895.253	35.16
895.423	-52.91
895.594	6.49
895.764	31.06
895.935	63.83
896.106	6.49
896.276	-9.9
896.447	-38.57
896.617	45.4
896.788	4.44
896.958	33.11
897.129	65.88
897.299	-36.52
897.47	51.54
897.64	10.58
897.81	8.53
897.981	55.64
898.151	84.31
898.322	8.53
898.492	39.25
898.662	10.58
898.832	49.49
899.003	63.83
899.173	18.77
899.343	-32.43
899.513	8.53
