Data from USB4F104151__252__10-39-42-569.txt Node

Date: Wed Mar 12 10:39:42 EDT 2025
User: louis
Spectrometer: USB4F10415
Trigger mode: 4
Integration Time (sec): 3.000000E-2
Scans to average: 1
Electric dark correction enabled: true
Nonlinearity correction enabled: false
Boxcar width: 0
XAxis mode: Wavelengths
Number of Pixels in Spectrum: 3648
>>>>>Begin Spectral Data<<<<<
178.204	-134.65
178.424	-134.65
178.644	-134.65
178.864	-67.07
179.084	-97.79
179.304	23.04
179.524	-62.98
179.744	-19.97
179.964	6.66
180.184	-26.11
180.404	0.51
180.624	27.14
180.844	76.29
181.064	-56.83
181.283	51.71
181.503	-28.16
181.723	8.7
181.943	-48.64
182.163	68.09
182.383	-15.87
182.602	70.14
182.822	39.42
183.042	2.56
183.262	-26.11
183.482	51.71
183.701	41.47
183.921	8.7
184.141	80.38
184.361	39.42
184.58	57.86
184.8	41.47
185.02	-3.58
185.239	-28.16
185.459	-40.45
185.679	-22.02
185.898	-15.87
186.118	47.62
186.338	27.14
186.557	98.81
186.777	80.38
186.997	-73.21
187.216	-3.58
187.436	20.99
187.655	47.62
187.875	12.8
188.095	16.9
188.314	57.86
188.534	131.58
188.753	14.85
188.973	70.14
189.192	53.76
189.412	25.09
189.631	25.09
189.851	16.9
190.07	55.81
190.29	39.42
190.509	25.09
190.729	-1.54
190.948	68.09
191.168	115.2
191.387	29.18
191.607	31.23
191.826	49.66
192.045	10.75
192.265	29.18
192.484	35.33
192.704	33.28
192.923	18.94
193.142	43.52
193.362	66.05
193.581	78.33
193.8	8.7
194.02	123.39
194.239	113.15
194.458	16.9
194.678	33.28
194.897	16.9
195.116	59.9
195.335	-3.58
195.555	74.24
195.774	33.28
195.993	41.47
196.212	-13.82
196.432	41.47
196.651	35.33
196.87	43.52
197.089	51.71
197.308	61.95
197.528	80.38
197.747	33.28
197.966	-17.92
198.185	47.62
198.404	-40.45
198.623	-19.97
198.842	41.47
199.062	-19.97
199.281	4.61
199.5	66.05
199.719	25.09
199.938	53.76
200.157	47.62
200.376	0.51
200.595	45.57
200.814	4.61
201.033	25.09
201.252	-30.21
201.471	37.38
201.69	43.52
201.909	53.76
202.128	14.85
202.347	84.48
202.566	-1.54
202.785	-9.73
203.004	-22.02
203.223	37.38
203.442	31.23
203.661	-3.58
203.879	64
204.098	-24.06
204.317	-46.59
204.536	43.52
204.755	68.09
204.974	12.8
205.193	43.52
205.411	53.76
205.63	16.9
205.849	-13.82
206.068	-22.02
206.287	-34.3
206.505	-15.87
206.724	33.28
206.943	41.47
207.162	-1.54
207.381	6.66
207.599	-44.54
207.818	39.42
208.037	8.7
208.255	-26.11
208.474	-28.16
208.693	25.09
208.911	10.75
209.13	37.38
209.349	88.57
209.567	41.47
209.786	57.86
210.005	39.42
210.223	-28.16
210.442	-54.78
210.661	68.09
210.879	25.09
211.098	-48.64
211.316	41.47
211.535	84.48
211.753	-3.58
211.972	-3.58
212.191	25.09
212.409	8.7
212.628	16.9
212.846	45.57
213.065	41.47
213.283	45.57
213.502	27.14
213.72	86.53
213.938	47.62
214.157	33.28
214.375	51.71
214.594	4.61
214.812	-17.92
215.031	6.66
215.249	-9.73
215.467	27.14
215.686	-32.26
215.904	111.1
216.122	-1.54
216.341	41.47
216.559	20.99
216.778	14.85
216.996	23.04
217.214	43.52
217.432	-32.26
217.651	-79.36
217.869	-5.63
218.087	31.23
218.306	66.05
218.524	0.51
218.742	4.61
218.96	39.42
219.179	-5.63
219.397	70.14
219.615	59.9
219.833	12.8
220.051	10.75
220.27	80.38
220.488	72.19
220.706	-17.92
220.924	25.09
221.142	8.7
221.36	-28.16
221.578	33.28
221.796	-15.87
222.015	29.18
222.233	29.18
222.451	121.34
222.669	-30.21
222.887	31.23
223.105	-5.63
223.323	55.81
223.541	39.42
223.759	27.14
223.977	20.99
224.195	94.72
224.413	55.81
224.631	29.18
224.849	51.71
225.067	64
225.285	-56.83
225.503	100.86
225.721	39.42
225.939	0.51
226.157	-44.54
226.375	0.51
226.592	43.52
226.81	-114.17
227.028	23.04
227.246	100.86
227.464	27.14
227.682	117.25
227.9	90.62
228.117	82.43
228.335	27.14
228.553	49.66
228.771	-7.68
228.989	45.57
229.206	-24.06
229.424	37.38
229.642	-17.92
229.86	-77.31
230.077	12.8
230.295	18.94
230.513	51.71
230.731	-3.58
230.948	90.62
231.166	82.43
231.384	33.28
231.601	-58.88
231.819	59.9
232.037	-32.26
232.254	-52.74
232.472	-11.78
232.689	-9.73
232.907	-3.58
233.125	0.51
233.342	33.28
233.56	4.61
233.777	33.28
233.995	16.9
234.213	68.09
234.43	115.2
234.648	49.66
234.865	-7.68
235.083	0.51
235.3	-30.21
235.518	57.86
235.735	51.71
235.953	123.39
236.17	82.43
236.388	94.72
236.605	47.62
236.822	49.66
237.04	176.64
237.257	33.28
237.475	47.62
237.692	84.48
237.909	35.33
238.127	0.51
238.344	25.09
238.562	-11.78
238.779	27.14
238.996	16.9
239.214	-36.35
239.431	72.19
239.648	4.61
239.865	51.71
240.083	0.51
240.3	55.81
240.517	-24.06
240.735	37.38
240.952	53.76
241.169	74.24
241.386	53.76
241.603	-7.68
241.821	41.47
242.038	113.15
242.255	14.85
242.472	86.53
242.689	84.48
242.907	-85.5
243.124	-71.17
243.341	6.66
243.558	25.09
243.775	-9.73
243.992	4.61
244.209	14.85
244.426	109.05
244.643	41.47
244.86	0.51
245.078	41.47
245.295	45.57
245.512	8.7
245.729	-38.4
245.946	12.8
246.163	-13.82
246.38	8.7
246.597	74.24
246.814	23.04
247.031	31.23
247.248	12.8
247.464	-11.78
247.681	29.18
247.898	37.38
248.115	-26.11
248.332	27.14
248.549	57.86
248.766	96.77
248.983	72.19
249.2	88.57
249.417	25.09
249.633	39.42
249.85	66.05
250.067	-9.73
250.284	14.85
250.501	20.99
250.717	121.34
250.934	-44.54
251.151	-13.82
251.368	47.62
251.585	8.7
251.801	39.42
252.018	33.28
252.235	33.28
252.451	-36.35
252.668	16.9
252.885	57.86
253.102	31.23
253.318	74.24
253.535	-15.87
253.752	-11.78
253.968	25.09
254.185	20.99
254.401	12.8
254.618	33.28
254.835	-32.26
255.051	49.66
255.268	37.38
255.484	55.81
255.701	70.14
255.917	6.66
256.134	0.51
256.351	-15.87
256.567	-17.92
256.784	16.9
257	-11.78
257.217	55.81
257.433	-7.68
257.65	31.23
257.866	33.28
258.082	0.51
258.299	33.28
258.515	39.42
258.732	-17.92
258.948	-13.82
259.165	25.09
259.381	55.81
259.597	12.8
259.814	6.66
260.03	6.66
260.246	-15.87
260.463	16.9
260.679	43.52
260.895	57.86
261.112	16.9
261.328	-3.58
261.544	4.61
261.761	80.38
261.977	23.04
262.193	16.9
262.409	100.86
262.626	47.62
262.842	33.28
263.058	45.57
263.274	6.66
263.49	49.66
263.707	43.52
263.923	84.48
264.139	-44.54
264.355	-15.87
264.571	47.62
264.787	4.61
265.004	57.86
265.22	41.47
265.436	10.75
265.652	0.51
265.868	12.8
266.084	6.66
266.3	-11.78
266.516	-11.78
266.732	10.75
266.948	-5.63
267.164	18.94
267.38	41.47
267.596	51.71
267.812	113.15
268.028	-13.82
268.244	10.75
268.46	78.33
268.676	-15.87
268.892	35.33
269.108	86.53
269.324	86.53
269.54	-75.26
269.756	100.86
269.972	-15.87
270.188	10.75
270.403	-3.58
270.619	107.01
270.835	-19.97
271.051	31.23
271.267	33.28
271.483	-11.78
271.698	57.86
271.914	57.86
272.13	47.62
272.346	23.04
272.562	-3.58
272.777	57.86
272.993	39.42
273.209	51.71
273.425	25.09
273.64	57.86
273.856	25.09
274.072	80.38
274.287	4.61
274.503	41.47
274.719	-7.68
274.934	8.7
275.15	14.85
275.366	10.75
275.581	-22.02
275.797	80.38
276.012	45.57
276.228	72.19
276.444	68.09
276.659	78.33
276.875	6.66
277.09	64
277.306	-30.21
277.521	98.81
277.737	43.52
277.952	76.29
278.168	33.28
278.383	98.81
278.599	-3.58
278.814	76.29
279.03	49.66
279.245	53.76
279.461	-19.97
279.676	68.09
279.892	-58.88
280.107	86.53
280.322	16.9
280.538	57.86
280.753	51.71
280.969	109.05
281.184	10.75
281.399	27.14
281.615	10.75
281.83	72.19
282.045	-46.59
282.26	25.09
282.476	49.66
282.691	90.62
282.906	78.33
283.122	53.76
283.337	-34.3
283.552	92.67
283.767	-32.26
283.983	41.47
284.198	8.7
284.413	-32.26
284.628	-26.11
284.843	86.53
285.058	-3.58
285.274	-36.35
285.489	16.9
285.704	49.66
285.919	41.47
286.134	109.05
286.349	8.7
286.564	-1.54
286.779	78.33
286.995	51.71
287.21	18.94
287.425	66.05
287.64	-28.16
287.855	18.94
288.07	41.47
288.285	86.53
288.5	45.57
288.715	76.29
288.93	33.28
289.145	68.09
289.36	8.7
289.575	55.81
289.79	66.05
290.004	-17.92
290.219	145.92
290.434	76.29
290.649	-7.68
290.864	23.04
291.079	55.81
291.294	35.33
291.509	20.99
291.724	25.09
291.938	-5.63
292.153	61.95
292.368	61.95
292.583	4.61
292.798	59.9
293.012	25.09
293.227	20.99
293.442	-28.16
293.657	35.33
293.871	98.81
294.086	86.53
294.301	94.72
294.516	86.53
294.73	59.9
294.945	82.43
295.16	27.14
295.374	68.09
295.589	84.48
295.804	4.61
296.018	84.48
296.233	-1.54
296.447	33.28
296.662	8.7
296.877	64
297.091	33.28
297.306	41.47
297.52	47.62
297.735	92.67
297.949	-34.3
298.164	35.33
298.378	70.14
298.593	45.57
298.807	14.85
299.022	49.66
299.236	127.49
299.451	6.66
299.665	29.18
299.88	12.8
300.094	18.94
300.309	-44.54
300.523	25.09
300.737	23.04
300.952	47.62
301.166	-5.63
301.381	-24.06
301.595	90.62
301.809	-40.45
302.024	68.09
302.238	47.62
302.452	137.73
302.667	29.18
302.881	80.38
303.095	127.49
303.309	74.24
303.524	-24.06
303.738	-28.16
303.952	-26.11
304.166	49.66
304.381	39.42
304.595	64
304.809	2.56
305.023	49.66
305.237	94.72
305.452	57.86
305.666	68.09
305.88	-1.54
306.094	96.77
306.308	-19.97
306.522	53.76
306.736	68.09
306.95	23.04
307.164	-19.97
307.379	4.61
307.593	78.33
307.807	86.53
308.021	121.34
308.235	57.86
308.449	12.8
308.663	-36.35
308.877	147.97
309.091	45.57
309.305	98.81
309.519	-19.97
309.733	135.68
309.947	27.14
310.161	96.77
310.374	14.85
310.588	55.81
310.802	59.9
311.016	12.8
311.23	68.09
311.444	41.47
311.658	23.04
311.872	0.51
312.085	47.62
312.299	41.47
312.513	55.81
312.727	94.72
312.941	27.14
313.154	82.43
313.368	27.14
313.582	109.05
313.796	-40.45
314.009	-40.45
314.223	35.33
314.437	88.57
314.651	12.8
314.864	57.86
315.078	-48.64
315.292	59.9
315.505	59.9
315.719	57.86
315.933	139.77
316.146	45.57
316.36	4.61
316.573	39.42
316.787	16.9
317.001	80.38
317.214	55.81
317.428	-54.78
317.641	-11.78
317.855	84.48
318.068	51.71
318.282	53.76
318.495	16.9
318.709	115.2
318.922	29.18
319.136	41.47
319.349	117.25
319.563	70.14
319.776	188.93
319.99	-22.02
320.203	10.75
320.417	-40.45
320.63	53.76
320.843	84.48
321.057	104.96
321.27	51.71
321.483	47.62
321.697	27.14
321.91	20.99
322.124	109.05
322.337	98.81
322.55	57.86
322.763	27.14
322.977	45.57
323.19	-1.54
323.403	41.47
323.617	74.24
323.83	82.43
324.043	0.51
324.256	49.66
324.469	-11.78
324.683	41.47
324.896	109.05
325.109	61.95
325.322	25.09
325.535	16.9
325.748	76.29
325.962	47.62
326.175	47.62
326.388	-19.97
326.601	64
326.814	29.18
327.027	37.38
327.24	43.52
327.453	57.86
327.666	45.57
327.879	23.04
328.092	82.43
328.305	55.81
328.518	-1.54
328.731	27.14
328.944	35.33
329.157	96.77
329.37	84.48
329.583	90.62
329.796	80.38
330.009	-34.3
330.222	70.14
330.435	88.57
330.648	53.76
330.861	2.56
331.073	84.48
331.286	51.71
331.499	33.28
331.712	80.38
331.925	135.68
332.138	4.61
332.35	98.81
332.563	10.75
332.776	92.67
332.989	47.62
333.202	16.9
333.414	-7.68
333.627	25.09
333.84	90.62
334.053	76.29
334.265	41.47
334.478	121.34
334.691	61.95
334.903	-26.11
335.116	8.7
335.329	20.99
335.541	82.43
335.754	109.05
335.966	113.15
336.179	86.53
336.392	23.04
336.604	100.86
336.817	47.62
337.029	43.52
337.242	0.51
337.454	57.86
337.667	90.62
337.88	39.42
338.092	53.76
338.305	66.05
338.517	14.85
338.729	49.66
338.942	8.7
339.154	53.76
339.367	16.9
339.579	76.29
339.792	31.23
340.004	61.95
340.217	23.04
340.429	45.57
340.641	39.42
340.854	64
341.066	31.23
341.278	25.09
341.491	113.15
341.703	84.48
341.915	37.38
342.128	55.81
342.34	23.04
342.552	-15.87
342.764	14.85
342.977	16.9
343.189	113.15
343.401	70.14
343.613	8.7
343.826	47.62
344.038	-38.4
344.25	76.29
344.462	18.94
344.674	41.47
344.886	86.53
345.099	70.14
345.311	23.04
345.523	27.14
345.735	-3.58
345.947	25.09
346.159	53.76
346.371	61.95
346.583	-77.31
346.795	111.1
347.007	-3.58
347.219	41.47
347.431	64
347.643	8.7
347.855	14.85
348.067	59.9
348.279	37.38
348.491	8.7
348.703	23.04
348.915	41.47
349.127	88.57
349.339	98.81
349.551	59.9
349.763	66.05
349.975	45.57
350.187	59.9
350.399	39.42
350.61	96.77
350.822	37.38
351.034	70.14
351.246	-7.68
351.458	74.24
351.669	94.72
351.881	82.43
352.093	72.19
352.305	121.34
352.517	152.06
352.728	107.01
352.94	8.7
353.152	-9.73
353.363	-7.68
353.575	147.97
353.787	37.38
353.999	59.9
354.21	47.62
354.422	37.38
354.633	74.24
354.845	66.05
355.057	-9.73
355.268	68.09
355.48	113.15
355.692	61.95
355.903	74.24
356.115	43.52
356.326	-9.73
356.538	33.28
356.749	61.95
356.961	111.1
357.172	84.48
357.384	45.57
357.595	74.24
357.807	49.66
358.018	113.15
358.23	55.81
358.441	125.44
358.653	43.52
358.864	35.33
359.075	135.68
359.287	27.14
359.498	94.72
359.709	49.66
359.921	92.67
360.132	35.33
360.344	41.47
360.555	29.18
360.766	4.61
360.977	113.15
361.189	59.9
361.4	33.28
361.611	125.44
361.823	2.56
362.034	88.57
362.245	53.76
362.456	45.57
362.667	156.16
362.879	10.75
363.09	39.42
363.301	86.53
363.512	18.94
363.723	29.18
363.935	2.56
364.146	12.8
364.357	43.52
364.568	82.43
364.779	37.38
364.99	70.14
365.201	-17.92
365.412	123.39
365.623	51.71
365.834	33.28
366.045	-13.82
366.256	-7.68
366.467	33.28
366.678	98.81
366.889	39.42
367.1	-24.06
367.311	8.7
367.522	2.56
367.733	139.77
367.944	107.01
368.155	57.86
368.366	45.57
368.577	39.42
368.788	43.52
368.999	92.67
369.209	45.57
369.42	152.06
369.631	133.63
369.842	74.24
370.053	92.67
370.264	78.33
370.474	45.57
370.685	39.42
370.896	25.09
371.107	49.66
371.317	111.1
371.528	96.77
371.739	115.2
371.95	33.28
372.16	115.2
372.371	31.23
372.582	64
372.792	53.76
373.003	51.71
373.214	-17.92
373.424	33.28
373.635	107.01
373.846	115.2
374.056	39.42
374.267	150.01
374.477	33.28
374.688	27.14
374.898	49.66
375.109	47.62
375.319	82.43
375.53	115.2
375.74	31.23
375.951	76.29
376.161	47.62
376.372	74.24
376.582	-28.16
376.793	84.48
377.003	29.18
377.214	70.14
377.424	53.76
377.635	39.42
377.845	-9.73
378.055	92.67
378.266	88.57
378.476	25.09
378.686	16.9
378.897	61.95
379.107	80.38
379.317	66.05
379.528	68.09
379.738	14.85
379.948	-19.97
380.158	119.29
380.369	82.43
380.579	45.57
380.789	61.95
380.999	66.05
381.21	37.38
381.42	104.96
381.63	55.81
381.84	139.77
382.05	117.25
382.261	119.29
382.471	80.38
382.681	25.09
382.891	137.73
383.101	33.28
383.311	94.72
383.521	4.61
383.731	55.81
383.941	82.43
384.151	37.38
384.361	25.09
384.571	72.19
384.781	18.94
384.991	117.25
385.201	135.68
385.411	66.05
385.621	49.66
385.831	-7.68
386.041	117.25
386.251	14.85
386.461	121.34
386.671	51.71
386.881	98.81
387.091	47.62
387.301	113.15
387.511	125.44
387.72	84.48
387.93	41.47
388.14	57.86
388.35	96.77
388.56	113.15
388.769	57.86
388.979	100.86
389.189	8.7
389.399	51.71
389.609	66.05
389.818	-1.54
390.028	49.66
390.238	92.67
390.447	-40.45
390.657	190.97
390.867	82.43
391.076	76.29
391.286	82.43
391.496	8.7
391.705	31.23
391.915	102.91
392.125	57.86
392.334	0.51
392.544	143.87
392.753	115.2
392.963	23.04
393.172	98.81
393.382	14.85
393.591	76.29
393.801	98.81
394.01	104.96
394.22	96.77
394.429	82.43
394.639	90.62
394.848	82.43
395.058	70.14
395.267	47.62
395.477	156.16
395.686	135.68
395.895	61.95
396.105	154.11
396.314	152.06
396.524	107.01
396.733	195.07
396.942	92.67
397.152	66.05
397.361	156.16
397.57	147.97
397.78	104.96
397.989	137.73
398.198	199.16
398.407	109.05
398.617	150.01
398.826	172.54
399.035	139.77
399.244	145.92
399.453	100.86
399.663	131.58
399.872	107.01
400.081	129.53
400.29	150.01
400.499	139.77
400.708	190.97
400.917	72.19
401.127	119.29
401.336	113.15
401.545	221.69
401.754	195.07
401.963	98.81
402.172	92.67
402.381	82.43
402.59	90.62
402.799	123.39
403.008	135.68
403.217	160.25
403.426	158.21
403.635	190.97
403.844	145.92
404.053	117.25
404.262	147.97
404.471	322.04
404.68	170.49
404.888	221.69
405.097	172.54
405.306	188.93
405.515	242.17
405.724	195.07
405.933	281.08
406.142	256.51
406.35	246.27
406.559	229.88
406.768	188.93
406.977	309.76
407.185	236.03
407.394	266.75
407.603	287.23
407.812	289.28
408.02	258.56
408.229	248.32
408.438	276.99
408.646	262.65
408.855	330.23
409.064	313.85
409.272	270.84
409.481	389.63
409.69	438.78
409.898	369.15
410.107	373.24
410.315	381.43
410.524	369.15
410.733	434.68
410.941	387.58
411.15	487.93
411.358	422.39
411.567	524.79
411.775	532.98
411.984	526.84
412.192	483.83
412.401	551.42
412.609	553.46
412.818	717.3
413.026	612.85
413.234	680.44
413.443	664.05
413.651	690.68
413.86	717.3
414.068	795.12
414.276	846.32
414.485	754.16
414.693	850.42
414.901	954.87
415.11	985.58
415.318	819.7
415.526	965.11
415.734	885.23
415.943	1038.83
416.151	1067.5
416.359	1012.21
416.567	1192.43
416.776	1235.44
416.984	1151.47
417.192	1219.05
417.4	1337.84
417.608	1214.96
417.817	1358.32
418.025	1399.27
418.233	1520.1
418.441	1475.05
418.649	1546.73
418.857	1642.98
419.065	1827.3
419.273	1640.93
419.481	1737.19
419.689	1864.16
419.897	1923.55
420.105	1954.27
420.313	1989.09
420.521	2236.89
420.729	2206.17
420.937	2253.28
421.145	2335.2
421.353	2339.29
421.561	2570.71
421.769	2542.04
421.977	2714.07
422.185	2703.83
422.393	2845.14
422.601	2849.24
422.809	3013.07
423.017	3035.6
423.224	3250.64
423.432	3240.4
423.64	3203.54
423.848	3582.41
424.056	3563.98
424.263	3787.21
424.471	3789.25
424.679	3793.35
424.887	4082.11
425.094	4241.86
425.302	4161.98
425.51	4540.86
425.718	4542.91
425.925	4641.21
426.133	4745.66
426.341	4884.92
426.548	5253.55
426.756	5124.53
426.964	5218.74
427.171	5581.23
427.379	5722.54
427.586	5925.29
427.794	6087.08
428.001	6230.43
428.209	6658.46
428.417	6390.17
428.624	6844.82
428.832	7059.86
429.039	6834.58
429.247	6824.34
429.454	7592.33
429.662	8157.57
429.869	7573.9
430.076	8165.76
430.284	7989.64
430.491	8235.39
430.699	8624.51
430.906	8659.32
431.114	8810.87
431.321	9105.78
431.528	9273.71
431.736	9867.63
431.943	10355.04
432.15	10074.47
432.358	10314.08
432.565	10869.08
432.772	10723.68
432.979	11284.82
433.187	11506
433.394	11637.07
433.601	12366.15
433.808	12417.35
434.016	12126.53
434.223	12925.24
434.43	13754.67
434.637	13373.75
434.844	14133.54
435.052	14174.5
435.259	14473.51
435.466	14252.33
435.673	14281
435.88	15556.88
436.087	16234.76
436.294	16265.48
436.501	15882.51
436.708	15986.96
436.915	16523.52
437.122	17580.28
437.329	17359.1
437.537	17688.82
437.743	18243.82
437.95	18014.45
438.157	19409.11
438.364	19718.36
438.571	19624.15
438.778	19851.47
438.985	21657.78
439.192	20715.72
439.399	21168.32
439.606	20992.19
439.813	22116.53
440.02	23744.66
440.227	23310.49
440.433	22780.07
440.64	23558.3
440.847	23605.4
441.054	24332.43
441.261	25532.54
441.467	25389.18
441.674	25874.55
441.881	26720.36
442.088	26677.35
442.294	26411.12
442.501	27377.76
442.708	27738.2
442.914	29038.66
443.121	29907
443.328	29851.7
443.534	31447.07
443.741	30468.14
443.948	30140.47
444.154	32151.57
444.361	32411.67
444.568	32462.86
444.774	32548.88
444.981	32450.58
445.187	33718.27
445.394	35004.39
445.6	34541.55
445.807	37930.94
446.013	35964.89
446.22	37351.37
446.426	38213.56
446.633	38887.34
446.839	39626.66
447.046	38483.89
447.252	40347.54
447.459	40607.64
447.665	40372.12
447.871	42055.55
448.078	43591.53
448.284	41871.23
448.491	43212.65
448.697	44513.11
448.903	45068.11
449.11	45084.5
449.316	44504.92
449.522	44824.4
449.728	46057.28
449.935	46602.04
450.141	46284.61
450.347	47810.34
450.553	45721.41
450.76	46638.9
450.966	47791.91
451.172	47302.45
451.378	48146.21
451.584	47408.94
451.791	48439.07
451.997	48475.93
452.203	49010.45
452.409	48670.49
452.615	48850.71
452.821	46710.58
453.027	46516.03
453.233	48783.13
453.44	46200.64
453.646	47185.71
453.852	47189.81
454.058	47679.27
454.264	46593.85
454.47	47402.8
454.676	46163.78
454.882	47355.69
455.088	43339.63
455.294	43939.68
455.5	44511.06
455.705	45059.92
455.911	42952.56
456.117	42147.71
456.323	41660.29
456.529	39339.94
456.735	40875.92
456.941	39716.77
457.147	38995.88
457.352	37889.98
457.558	37586.88
457.764	37394.37
457.97	37007.31
458.176	35985.37
458.381	36134.87
458.587	34258.93
458.793	34525.17
458.999	32458.77
459.204	34666.48
459.41	33777.66
459.616	31567.9
459.821	31926.3
460.027	31766.56
460.233	30691.37
460.438	29198.4
460.644	29962.29
460.85	28248.14
461.055	27887.7
461.261	27809.88
461.466	25667.7
461.672	24768.65
461.878	26882.15
462.083	25213.06
462.289	24561.8
462.494	24172.69
462.7	23206.05
462.905	22491.3
463.111	23320.73
463.316	23687.32
463.522	23109.79
463.727	23007.39
463.932	22827.17
464.138	22554.79
464.343	22948
464.549	22399.15
464.754	22714.53
464.959	22579.37
465.165	22642.85
465.37	21805.24
465.575	21213.37
465.781	22096.05
465.986	22280.36
466.191	21119.17
466.397	20951.23
466.602	20226.25
466.807	20562.12
467.012	20971.71
467.218	20558.02
467.423	20340.94
467.628	20570.31
467.833	21409.98
468.038	20615.37
468.244	20033.74
468.449	20562.12
468.654	19998.93
468.859	19884.24
469.064	19955.92
469.269	19052.77
469.474	19304.67
469.679	19562.71
469.885	18915.55
470.09	19448.02
470.295	19038.43
470.5	18659.56
470.705	18923.74
470.91	18258.15
471.115	18108.65
471.32	18403.56
471.525	18448.61
471.73	17514.74
471.935	17510.64
472.139	17176.83
472.344	17178.87
472.549	17371.38
472.754	16808.19
472.959	16953.6
473.164	16427.27
473.369	16234.76
473.574	16404.74
473.778	16617.73
473.983	16249.1
474.188	16279.82
474.393	15485.2
474.598	15444.24
474.802	15339.8
475.007	15274.26
475.212	15343.89
475.417	14758.17
475.621	14854.43
475.826	14700.83
476.031	14620.96
476.235	14244.13
476.44	14573.86
476.645	14221.61
476.849	14295.33
477.054	14047.53
477.259	13732.14
477.463	14084.39
477.668	13373.75
477.872	13717.81
478.077	13297.97
478.282	13181.24
478.486	13099.32
478.691	13166.9
478.895	12808.51
479.1	12917.05
479.304	12872
479.509	12579.14
479.713	12880.19
479.918	12495.17
480.122	12273.99
480.326	12472.64
480.531	12335.43
480.735	12321.09
480.94	12257.6
481.144	12745.02
481.348	11948.36
481.553	12331.33
481.757	12026.18
481.961	11997.51
482.166	12321.09
482.37	12280.13
482.574	11913.55
482.778	12011.85
482.983	12312.9
483.187	12038.47
483.391	12036.42
483.595	12122.44
483.8	11970.89
484.004	11962.7
484.208	11931.98
484.412	11956.55
484.616	11979.08
484.821	12077.38
485.025	11948.36
485.229	12175.69
485.433	11938.12
485.637	12046.66
485.841	11911.5
486.045	12067.14
486.249	11874.63
486.453	12040.52
486.657	12110.15
486.861	12085.58
487.065	11845.96
487.269	11919.69
487.473	11958.6
487.677	12003.66
487.881	12007.75
488.085	11917.64
488.289	12124.49
488.493	12269.89
488.697	12118.34
488.901	11983.18
489.105	12044.62
489.309	12419.39
489.512	12388.67
489.716	12282.18
489.92	12257.6
490.124	12190.02
490.328	12349.76
490.531	12306.76
490.735	12394.82
490.939	12456.26
491.143	12425.54
491.346	12403.01
491.55	12695.87
491.754	12505.41
491.958	12757.31
492.161	12718.4
492.365	12661.05
492.569	12796.22
492.772	13003.07
492.976	13041.98
493.18	12980.54
493.383	13152.57
493.587	13093.18
493.79	13365.56
493.994	13211.96
494.197	13427
494.401	13242.68
494.605	13590.83
494.808	13861.16
495.012	13902.12
495.215	13820.21
495.419	14061.87
495.622	13857.07
495.825	14033.19
496.029	14231.85
496.232	14469.41
496.436	14592.29
496.639	14907.68
496.843	14536.99
497.046	14934.3
497.249	15274.26
497.453	15124.76
497.656	15343.89
497.859	15513.88
498.063	15395.09
498.266	15948.04
498.469	15816.97
498.673	16304.39
498.876	16355.59
499.079	16351.49
499.282	16460.04
499.485	17064.19
499.689	16742.66
499.892	17164.54
500.095	17311.99
500.298	17627.38
500.501	17658.1
500.705	18120.94
500.908	18290.92
501.111	18217.19
501.314	18421.99
501.517	18698.47
501.72	18850.02
501.923	18995.42
502.126	19470.55
502.329	19650.77
502.532	19433.69
502.735	20007.12
502.938	19978.45
503.141	20361.42
503.344	20744.39
503.547	20760.77
503.75	20840.64
503.953	21309.63
504.156	21321.91
504.359	21651.64
504.562	21932.21
504.765	22192.3
504.968	22464.68
505.17	22636.71
505.373	22923.43
505.576	23208.09
505.779	23302.3
505.982	23355.55
506.185	23916.69
506.387	24006.8
506.59	24187.02
506.793	24766.6
506.996	24678.54
507.198	25524.35
507.401	25278.59
507.604	25661.56
507.807	26214.51
508.009	26392.69
508.212	26693.74
508.415	26720.36
508.617	26783.85
508.82	27363.42
509.022	27340.89
509.225	27701.34
509.428	27787.35
509.63	28186.71
509.833	28344.4
510.035	28907.59
510.238	28739.66
510.44	29392.96
510.643	29628.48
510.845	29921.34
511.048	30044.21
511.25	30599.21
511.453	30271.54
511.655	31871
511.858	31275.04
512.06	31565.85
512.262	31928.34
512.465	31854.62
512.667	32745.48
512.87	32483.34
513.072	33036.3
513.274	33824.76
513.477	33865.72
513.679	34041.85
513.881	34449.39
514.084	34713.58
514.286	34654.19
514.488	35024.87
514.69	35854.3
514.893	36059.1
515.095	35651.55
515.297	36468.69
515.499	36624.34
515.701	37226.44
515.904	37599.17
516.106	38057.92
516.308	37869.5
516.51	38520.76
516.712	38358.97
516.914	39235.5
517.116	39684
517.318	39522.21
517.52	39931.81
517.722	40316.82
517.925	41019.28
518.127	41185.16
518.329	41330.57
518.531	41432.97
518.733	42207.1
518.935	42448.76
519.136	42153.85
519.338	43134.83
519.54	43304.81
519.742	43790.18
519.944	43577.19
520.146	44474.2
520.348	44521.3
520.55	44865.36
520.752	45336.4
520.954	46436.16
521.155	45664.07
521.357	46450.49
521.559	46833.46
521.761	47214.38
521.963	47357.74
522.164	47310.64
522.366	47705.9
522.568	48207.65
522.77	48301.85
522.971	48826.13
523.173	48733.98
523.375	49456.91
523.576	49196.82
523.778	49374.99
523.98	50206.47
524.181	50476.8
524.383	50480.89
524.584	51123.96
524.786	51074.8
524.988	50956.02
525.189	51246.83
525.391	51771.11
525.592	52020.97
525.794	52414.18
525.995	52215.52
526.197	52326.11
526.398	52702.94
526.6	53159.64
526.801	53278.42
527.003	53427.92
527.204	53622.48
527.406	54085.32
527.607	53804.75
527.808	54644.41
528.01	53769.93
528.211	54001.35
528.412	54861.5
528.614	54662.85
528.815	54947.51
529.016	55303.86
529.218	54849.21
529.419	55412.4
529.62	55477.94
529.822	55586.48
530.023	55305.91
530.224	55293.62
530.425	55482.03
530.626	55500.47
530.828	55346.87
531.029	56741.53
531.23	56043.18
531.431	56231.59
531.632	56379.04
531.833	56213.16
532.035	56350.37
532.236	56743.58
532.437	56596.13
532.638	56401.57
532.839	57411.22
533.04	56542.88
533.241	56178.34
533.442	57517.71
533.643	57112.22
533.844	56913.56
534.045	57140.89
534.246	56821.4
534.447	57157.27
534.648	56839.84
534.849	57181.85
535.05	57058.97
535.251	56970.91
535.451	56807.07
535.652	57530
535.853	57550.48
536.054	57255.57
536.255	57398.93
536.456	57284.25
536.657	57822.86
536.857	56788.64
537.058	56800.93
537.259	57462.42
537.46	57542.29
537.66	57212.57
537.861	57525.91
538.062	57015.96
538.263	57767.57
538.463	57271.96
538.664	57552.53
538.865	57329.3
539.065	57560.72
539.266	56970.91
539.466	57927.31
539.667	56676
539.868	57824.91
540.068	57562.77
540.269	57951.88
540.469	57421.46
540.67	57110.17
540.87	57179.8
541.071	57314.97
541.271	57669.26
541.472	56952.47
541.672	57169.56
541.873	57118.36
542.073	56710.81
542.274	57437.84
542.474	57231
542.675	56657.57
542.875	57480.85
543.075	56993.43
543.276	56422.05
543.476	57587.35
543.676	56673.95
543.877	57534.1
544.077	57005.72
544.277	56954.52
544.478	56960.67
544.678	57431.7
544.878	56952.47
545.078	57290.39
545.279	56913.56
545.479	56600.22
545.679	56917.66
545.879	57052.83
546.079	57052.83
546.28	56958.62
546.48	56544.93
546.68	57038.49
546.88	56907.42
547.08	57020.06
547.28	57034.39
547.48	56104.62
547.68	57042.59
547.88	56397.48
548.081	57202.33
548.281	57050.78
548.481	56555.17
548.681	57173.66
548.881	56592.03
549.081	56649.38
549.28	56678.05
549.48	57171.61
549.68	56837.79
549.88	57079.45
550.08	56630.94
550.28	57108.12
550.48	56628.9
550.68	56825.5
550.88	56501.92
551.08	56667.81
551.279	57136.79
551.479	56159.91
551.679	57124.5
551.879	56811.17
552.079	56983.19
552.278	56614.56
552.478	56729.25
552.678	56901.28
552.878	56880.8
553.077	56374.95
553.277	56012.46
553.477	56653.47
553.676	55901.87
553.876	56387.24
554.076	56411.81
554.275	56256.17
554.475	56024.75
554.674	55991.98
554.874	56211.11
555.074	56045.22
555.273	56258.21
555.473	56583.84
555.672	55686.83
555.872	55842.48
556.071	56141.48
556.271	55975.59
556.47	55733.93
556.67	55637.68
556.869	55711.41
557.068	55695.02
557.268	55623.34
557.467	55582.38
557.667	55424.69
557.866	55461.55
558.065	55389.87
558.265	55201.46
558.464	54976.19
558.663	55461.55
558.863	54849.21
559.062	55703.21
559.261	54847.16
559.461	55662.25
559.66	54564.54
559.859	55056.06
560.058	54400.71
560.258	54681.28
560.457	54410.95
560.656	55084.73
560.855	54625.98
561.054	54712
561.253	54200
561.453	54300.36
561.652	54679.23
561.851	54757.05
562.05	54380.23
562.249	53798.6
562.448	54804.16
562.647	53860.04
562.846	53712.59
563.045	53655.25
563.244	53417.68
563.443	53968.58
563.642	53016.28
563.841	53274.32
564.04	53151.44
564.239	53710.54
564.438	52649.69
564.637	53348.05
564.836	53020.37
565.035	52557.53
565.234	53096.15
565.432	52635.36
565.631	52416.22
565.83	52774.62
566.029	51883.75
566.228	51947.24
566.427	52516.57
566.625	51971.81
566.824	51570.41
567.023	51982.05
567.222	51160.82
567.42	51877.61
567.619	51781.35
567.818	51805.93
568.016	51148.53
568.215	51244.79
568.414	50976.5
568.612	51341.04
568.811	50644.73
569.01	50771.71
569.208	50353.92
569.407	50837.24
569.605	50003.72
569.804	50079.49
570.002	50188.03
570.201	50525.95
570.4	49850.12
570.598	49850.12
570.797	49911.56
570.995	49702.67
571.193	49592.08
571.392	49989.38
571.59	49016.6
571.789	48762.65
571.987	49059.6
572.186	48983.83
572.384	48660.25
572.582	48756.5
572.781	48867.09
572.979	48166.69
573.177	48510.75
573.376	48623.39
573.574	48131.87
573.772	48082.72
573.971	47822.63
574.169	47544.11
574.367	47535.91
574.565	47902.5
574.763	47148.85
574.962	47632.17
575.16	47032.11
575.358	47482.67
575.556	46630.71
575.754	47322.93
575.952	46843.7
576.151	47232.82
576.349	46311.23
576.547	46518.07
576.745	46511.93
576.943	46581.56
577.141	46362.43
577.339	46163.78
577.537	45635.4
577.735	45682.5
577.933	45786.95
578.131	46077.76
578.329	45496.14
578.527	45234
578.725	45471.56
578.923	45473.61
579.121	45252.43
579.319	44529.5
579.516	45340.49
579.714	44851.03
579.912	44648.28
580.11	44490.59
580.308	44443.48
580.506	44539.74
580.704	43663.21
580.901	44218.21
581.099	44719.96
581.297	43968.35
581.495	44142.43
581.692	43820.9
581.89	43906.91
582.088	43984.74
582.285	43243.37
582.483	43954.02
582.681	43179.89
582.878	43298.67
583.076	43020.14
583.274	43419.5
583.471	41975.68
583.669	42700.66
583.866	42467.19
584.064	42774.39
584.262	42055.55
584.459	42473.34
584.657	41832.32
584.854	42567.54
585.052	41414.54
585.249	41684.87
585.447	41998.21
585.644	41240.46
585.841	41379.72
586.039	41807.75
586.236	41191.31
586.434	41133.96
586.631	40918.93
586.828	40857.49
587.026	41068.43
587.223	40974.22
587.42	40716.18
587.618	41025.42
587.815	40030.11
588.012	40441.75
588.21	39987.1
588.407	40331.16
588.604	39841.7
588.801	39851.94
588.999	39741.35
589.196	39544.74
589.393	39772.07
589.59	39184.3
589.787	39364.52
589.984	39495.59
590.182	38545.33
590.379	38911.92
590.576	38647.73
590.773	38793.14
590.97	38424.5
591.167	39063.47
591.364	37871.55
591.561	38518.71
591.758	37840.83
591.955	37902.27
592.152	38111.16
592.349	37808.06
592.546	37967.8
592.743	37881.79
592.94	37382.09
593.137	37830.59
593.334	37330.89
593.531	36976.59
593.727	37025.74
593.924	36878.29
594.121	36689.87
594.318	37046.22
594.515	36382.68
594.712	36827.09
594.908	36564.95
595.105	36624.34
595.302	36349.91
595.499	36294.61
595.696	36083.67
595.892	35968.99
596.089	35940.32
596.286	36030.43
596.482	35530.72
596.679	35803.1
596.876	35610.59
597.072	35520.48
597.269	35168.23
597.466	35008.49
597.662	35153.9
597.859	34764.78
598.055	34893.8
598.252	34764.78
598.448	34621.42
598.645	34760.69
598.841	34074.62
599.038	34412.53
599.234	34396.15
599.431	34111.48
599.627	34004.99
599.824	33964.03
600.02	33945.59
600.217	33746.94
600.413	33947.64
600.609	33359.87
600.806	33271.81
601.002	33458.18
601.198	33314.82
601.395	32952.33
601.591	33003.53
601.787	33216.52
601.984	32811.02
602.18	32778.25
602.376	32456.72
602.572	32567.31
602.769	32645.13
602.965	31918.1
603.161	32335.89
603.357	31977.5
603.553	31758.36
603.75	31883.29
603.946	31631.39
604.142	31631.39
604.338	31438.88
604.534	31645.73
604.73	31279.14
604.926	31131.68
605.122	31262.75
605.318	31189.03
605.514	30935.08
605.71	30775.34
605.906	30552.11
606.102	30670.89
606.298	30543.92
606.494	30578.73
606.69	30648.36
606.886	30447.66
607.082	30332.98
607.278	30896.17
607.474	29767.74
607.67	30271.54
607.866	29679.68
608.062	30363.7
608.257	29769.79
608.453	30191.67
608.649	29792.31
608.845	29634.62
609.041	29755.45
609.236	29784.12
609.432	29263.94
609.628	29419.58
609.824	29102.15
610.019	29075.52
610.215	29239.36
610.411	29352
610.606	28899.4
610.802	29149.25
610.998	28923.97
611.193	28930.12
611.389	28584.01
611.584	28706.89
611.78	28784.71
611.976	28651.59
612.171	28657.74
612.367	28696.65
612.562	28078.16
612.758	28057.68
612.953	28203.09
613.149	28549.2
613.344	27863.13
613.539	28596.3
613.735	28033.11
613.93	28381.26
614.126	27748.44
614.321	28418.13
614.517	27940.95
614.712	27824.22
614.907	27574.36
615.103	27598.94
615.298	27428.96
615.493	27940.95
615.688	27529.31
615.884	27824.22
616.079	27105.38
616.274	27394.14
616.47	27291.74
616.665	27084.9
616.86	27150.43
617.055	26994.79
617.25	27031.65
617.445	27197.54
617.641	26572.91
617.836	27052.13
618.031	26548.33
618.226	26738.79
618.421	26335.34
618.616	26523.76
618.811	26034.29
619.006	26513.52
619.201	25960.56
619.396	26534
619.591	25561.21
619.786	26191.98
619.981	25520.25
620.176	25739.38
620.371	25344.13
620.566	25745.53
620.761	25538.68
620.956	25104.51
621.151	25055.36
621.346	25004.16
621.541	24703.11
621.735	25038.98
621.93	24387.72
622.125	24479.88
622.32	24012.95
622.515	24180.88
622.709	24111.25
622.904	23853.2
623.099	23965.84
623.294	23847.06
623.488	23515.29
623.683	23736.47
623.878	23003.3
624.072	23269.53
624.267	23226.53
624.462	23044.26
624.656	22745.25
624.851	22974.63
625.046	22544.55
625.24	22542.5
625.435	22270.12
625.629	22319.28
625.824	22036.66
626.018	22235.31
626.213	21604.53
626.407	22038.7
626.602	21659.83
626.796	21805.24
626.991	21721.27
627.185	21297.34
627.38	21469.37
627.574	21039.29
627.768	21127.36
627.963	20875.46
628.157	21020.86
628.352	20814.02
628.546	20205.77
628.74	20809.92
628.935	20463.82
629.129	20529.35
629.323	20142.28
629.517	20039.89
629.712	19884.24
629.906	19740.88
630.1	19402.97
630.294	19679.44
630.489	19456.22
630.683	19470.55
630.877	19134.68
631.071	19177.69
631.265	18938.08
631.459	19108.06
631.653	18649.32
631.848	18950.37
632.042	18548.96
632.236	18696.42
632.43	18395.37
632.624	18604.26
632.818	18039.02
633.012	18135.28
633.206	17842.42
633.4	18039.02
633.594	17701.11
633.788	17891.57
633.982	17697.01
634.176	17447.16
634.369	17567.99
634.563	17365.24
634.757	17262.84
634.951	17277.18
635.145	17172.73
635.339	17283.32
635.533	16836.86
635.726	16969.98
635.92	16605.44
636.114	16558.34
636.308	16324.87
636.501	16597.25
636.695	16195.85
636.889	16230.66
637.083	16259.34
637.276	16015.63
637.47	15835.41
637.664	15808.78
637.857	15737.1
638.051	15900.94
638.244	15589.65
638.438	15448.34
638.632	15427.86
638.825	15331.61
639.019	15343.89
639.212	15372.57
639.406	15073.56
639.599	14725.41
639.793	14942.49
639.986	14510.37
640.18	14870.81
640.373	14586.15
640.567	14551.33
640.76	14450.98
640.954	14385.44
641.147	14387.49
641.34	13994.28
641.534	14201.13
641.727	14180.65
641.92	14025
642.114	13832.49
642.307	13820.21
642.5	13930.8
642.694	13484.34
642.887	13580.59
643.08	13535.54
643.273	13527.35
643.467	13396.28
643.66	13355.32
643.853	13209.91
644.046	13240.63
644.239	13230.39
644.432	13154.62
644.626	12923.19
644.819	12894.52
645.012	12742.97
645.205	12794.17
645.398	12734.78
645.591	12525.89
645.784	12581.18
645.977	12331.33
646.17	12415.3
646.363	12245.32
646.556	12308.8
646.749	12468.55
646.942	12140.87
647.135	12056.9
647.328	11772.24
647.521	12112.2
647.714	11647.31
647.907	11819.34
648.099	11606.35
648.292	11825.48
648.485	11624.78
648.678	11417.94
648.871	11387.22
649.064	11389.27
649.256	11151.7
649.449	11440.47
649.642	11055.45
649.835	11186.52
650.027	11096.41
650.22	10981.72
650.413	11082.07
650.605	10963.29
650.798	11014.49
650.991	10781.02
651.183	10662.24
651.376	10690.91
651.568	10578.27
651.761	10711.39
651.954	10596.7
652.146	10522.98
652.339	10545.5
652.531	10426.72
652.724	10240.36
652.916	10113.38
653.109	10158.44
653.301	10166.63
653.494	10352.99
653.686	10068.33
653.879	10068.33
654.071	10021.22
654.263	9916.78
654.456	9892.2
654.648	9884.01
654.84	9589.1
655.033	9468.27
655.225	9691.5
655.417	9570.67
655.61	9318.77
655.802	9527.66
655.994	9503.09
656.186	9372.02
656.379	9238.9
656.571	9148.79
656.763	9001.33
656.955	9167.22
657.148	9099.64
657.34	9132.4
657.532	8946.04
657.724	9066.87
657.916	9116.02
658.108	8862.07
658.3	8802.68
658.492	8792.44
658.684	8679.8
658.876	8558.97
659.068	8774.01
659.26	8556.93
659.452	8626.56
659.644	8597.88
659.836	8544.64
660.028	8444.29
660.22	8294.79
660.412	8313.22
660.604	8249.73
660.796	8173.96
660.988	8006.02
661.18	8231.3
661.372	7922.06
661.563	8126.85
661.755	8049.03
661.947	7991.69
662.139	7983.49
662.331	7948.68
662.522	7932.29
662.714	7719.31
662.906	7790.99
663.097	7799.18
663.289	7639.44
663.481	7649.68
663.673	7528.85
663.864	7645.58
664.056	7592.33
664.247	7522.7
664.439	7412.11
664.631	7594.38
664.822	7315.86
665.014	7270.8
665.205	7184.79
665.397	7340.43
665.588	7252.37
665.78	7147.92
665.971	7201.17
666.163	7176.59
666.354	7192.98
666.546	7088.53
666.737	6887.83
666.929	6951.32
667.12	6904.21
667.311	7029.14
667.503	6879.64
667.694	7053.72
667.885	6875.54
668.077	6902.17
668.268	6787.48
668.459	6859.16
668.651	6654.36
668.842	6685.08
669.033	6740.38
669.224	6629.79
669.416	6627.74
669.607	6521.24
669.798	6486.43
669.989	6597.02
670.18	6537.63
670.371	6406.56
670.563	6521.24
670.754	6517.15
670.945	6343.07
671.136	6328.74
671.327	6259.1
671.518	6406.56
671.709	6289.82
671.9	6365.6
672.091	6388.13
672.282	6295.97
672.473	6197.67
672.664	6357.41
672.855	5982.63
673.046	6183.33
673.237	6216.1
673.428	6148.51
673.619	6103.46
673.809	6015.4
674	6066.6
674.191	6054.31
674.382	5964.2
674.573	5970.34
674.764	5915.05
674.954	5896.61
675.145	6029.73
675.336	5843.37
675.527	5831.08
675.717	5913
675.908	5792.17
676.099	5906.85
676.289	5720.49
676.48	5900.71
676.671	5743.02
676.861	5743.02
677.052	5591.47
677.243	5474.73
677.433	5630.38
677.624	5640.62
677.814	5671.34
678.005	5683.63
678.195	5702.06
678.386	5618.09
678.576	5665.19
678.767	5509.55
678.957	5650.86
679.148	5583.27
679.338	5484.97
679.529	5585.32
679.719	5616.04
679.909	5568.94
680.1	5542.32
680.29	5593.51
680.481	5482.92
680.671	5530.03
680.861	5566.89
681.052	5480.88
681.242	5554.6
681.432	5403.05
681.622	5487.02
681.813	5362.09
682.003	5214.64
682.193	5374.38
682.383	5392.81
682.573	5321.13
682.764	5280.18
682.954	5505.45
683.144	5161.39
683.334	5087.67
683.524	5411.25
683.714	5419.44
683.904	5247.41
684.094	5177.78
684.284	5341.61
684.474	5114.29
684.664	5169.59
684.854	5114.29
685.044	5099.95
685.234	5204.4
685.424	5233.07
685.614	5042.61
685.804	5218.74
685.994	5093.81
686.184	5104.05
686.374	5054.9
686.564	4954.55
686.753	4997.56
686.943	5081.52
687.133	5063.09
687.323	4923.83
687.513	5091.76
687.702	4934.07
687.892	4856.25
688.082	4911.54
688.272	4899.25
688.461	4835.77
688.651	4895.16
688.841	4733.37
689.03	4866.49
689.22	4815.29
689.41	4620.73
689.599	4807.09
689.789	4647.35
689.979	4555.19
690.168	4684.22
690.358	4565.43
690.547	4555.19
690.737	4708.79
690.926	4557.24
691.116	4460.99
691.305	4770.23
691.495	4604.35
691.684	4536.76
691.874	4563.39
692.063	4497.85
692.252	4501.95
692.442	4608.44
692.631	4424.12
692.82	4633.02
693.01	4411.84
693.199	4276.67
693.388	4506.04
693.578	4366.78
693.767	4340.16
693.956	4266.43
694.146	4334.01
694.335	4446.65
694.524	4362.69
694.713	4405.69
694.902	4356.54
695.092	4389.31
695.281	4202.94
695.47	4381.12
695.659	4258.24
695.848	4217.28
696.037	4235.71
696.226	4299.2
696.415	4297.15
696.604	4188.61
696.793	4225.47
696.982	4293.05
697.171	4256.19
697.36	4178.37
697.549	4149.7
697.738	4123.07
697.927	4159.94
698.116	4078.02
698.305	4080.07
698.494	4184.51
698.683	4084.16
698.872	4168.13
699.061	4065.73
699.25	4075.97
699.438	4151.74
699.627	4059.59
699.816	4028.87
700.005	4051.39
700.193	4082.11
700.382	4057.54
700.571	4063.68
700.76	4106.69
700.948	4211.14
701.137	4151.74
701.326	3955.14
701.514	4110.79
701.703	4028.87
701.892	4174.27
702.08	4065.73
702.269	4108.74
702.457	4051.39
702.646	3961.28
702.834	4008.39
703.023	4039.11
703.212	4067.78
703.4	4075.97
703.589	3977.67
703.777	4039.11
703.965	4057.54
704.154	4049.35
704.342	4014.53
704.531	3963.33
704.719	3985.86
704.907	4065.73
705.096	3940.8
705.284	4086.21
705.472	4067.78
705.661	4020.67
705.849	3891.65
706.037	4071.87
706.226	4010.43
706.414	4045.25
706.602	4035.01
706.79	3869.12
706.979	3844.55
707.167	4092.35
707.355	3875.27
707.543	4149.7
707.731	4010.43
707.919	3930.56
708.107	3942.85
708.296	4057.54
708.484	4030.91
708.672	3930.56
708.86	3979.72
709.048	4006.34
709.236	3885.51
709.424	3961.28
709.612	4143.55
709.8	3883.46
709.988	4014.53
710.176	3942.85
710.364	3981.76
710.551	3932.61
710.739	3932.61
710.927	4032.96
711.115	4049.35
711.303	4055.49
711.491	3996.1
711.679	3953.09
711.866	4055.49
712.054	3961.28
712.242	3867.08
712.43	4024.77
712.617	3989.96
712.805	3754.44
712.993	4049.35
713.181	3942.85
713.368	3953.09
713.556	4125.12
713.744	3953.09
713.931	4000.19
714.119	3842.5
714.306	4084.16
714.494	3899.84
714.682	4043.2
714.869	4020.67
715.057	3910.08
715.244	3910.08
715.432	4155.84
715.619	3957.19
715.807	3844.55
715.994	4067.78
716.182	3879.36
716.369	3951.04
716.556	4041.15
716.744	4000.19
716.931	4016.58
717.119	3826.12
717.306	4006.34
717.493	3965.38
717.681	3865.03
717.868	3985.86
718.055	3973.57
718.242	4092.35
718.43	3893.7
718.617	3881.41
718.804	4049.35
718.991	3893.7
719.179	3916.23
719.366	3875.27
719.553	3822.02
719.74	3926.47
719.927	3987.91
720.114	3832.26
720.301	3883.46
720.488	3914.18
720.676	3912.13
720.863	3903.94
721.05	3944.9
721.237	3879.36
721.424	3979.72
721.611	3973.57
721.798	3836.36
721.985	3965.38
722.172	3893.7
722.358	3850.69
722.545	3754.44
722.732	3887.56
722.919	3719.62
723.106	3875.27
723.293	3981.76
723.48	3918.28
723.667	3801.54
723.853	3785.16
724.04	3723.72
724.227	3895.75
724.414	3822.02
724.6	4008.39
724.787	3809.73
724.974	3815.88
725.161	3826.12
725.347	3783.11
725.534	3858.89
725.72	3785.16
725.907	3824.07
726.094	3959.24
726.28	3824.07
726.467	3764.68
726.653	3676.62
726.84	3766.73
727.027	3842.5
727.213	3844.55
727.4	3854.79
727.586	3809.73
727.773	3762.63
727.959	3723.72
728.145	3717.58
728.332	3631.56
728.518	3723.72
728.705	3850.69
728.891	3643.85
729.077	3846.6
729.264	3613.13
729.45	3690.95
729.636	3727.82
729.823	3566.03
730.009	3766.73
730.195	3676.62
730.382	3801.54
730.568	3727.82
730.754	3813.83
730.94	3758.53
731.126	3729.86
731.313	3725.77
731.499	3701.19
731.685	3578.31
731.871	3590.6
732.057	3672.52
732.243	3738.05
732.429	3727.82
732.615	3641.8
732.801	3572.17
732.987	3717.58
733.173	3670.47
733.359	3695.05
733.545	3609.03
733.731	3604.94
733.917	3645.9
734.103	3555.79
734.289	3586.51
734.475	3494.35
734.661	3666.38
734.847	3633.61
735.033	3580.36
735.219	3625.42
735.404	3539.4
735.59	3455.44
735.776	3625.42
735.962	3566.03
736.148	3496.39
736.333	3613.13
736.519	3475.91
736.705	3561.93
736.89	3551.69
737.076	3414.48
737.262	3514.83
737.447	3443.15
737.633	3484.11
737.819	3457.48
738.004	3400.14
738.19	3400.14
738.375	3365.32
738.561	3301.84
738.747	3451.34
738.932	3381.71
739.118	3334.61
739.303	3447.24
739.489	3482.06
739.674	3326.41
739.859	3350.99
740.045	3371.47
740.23	3373.52
740.416	3287.5
740.601	3293.65
740.786	3082.7
740.972	3246.54
741.157	3314.13
741.342	3187.15
741.528	3209.68
741.713	3240.4
741.898	3373.52
742.084	3256.78
742.269	3162.58
742.454	3187.15
742.639	3236.3
742.824	3148.24
743.01	3107.28
743.195	3103.18
743.38	3070.42
743.565	3172.82
743.75	3023.31
743.935	2916.82
744.12	3037.65
744.305	2933.2
744.49	2996.69
744.675	2961.87
744.86	2957.78
745.045	2877.91
745.23	2853.33
745.415	3080.66
745.6	2986.45
745.785	2888.15
745.97	2922.96
746.155	2906.58
746.34	2839
746.525	2861.52
746.71	2836.95
746.895	2783.7
747.079	2777.56
747.264	2814.42
747.449	2945.49
747.634	2709.97
747.819	2763.22
748.003	2660.82
748.188	2679.26
748.373	2673.11
748.557	2734.55
748.742	2734.55
748.927	2695.64
749.111	2552.28
749.296	2490.84
749.481	2621.91
749.665	2568.66
749.85	2605.53
750.034	2535.9
750.219	2511.32
750.404	2486.75
750.588	2560.47
750.773	2470.36
750.957	2482.65
751.141	2499.03
751.326	2351.58
751.51	2349.53
751.695	2324.96
751.879	2333.15
752.064	2386.4
752.248	2347.48
752.432	2355.68
752.617	2316.76
752.801	2331.1
752.985	2304.48
753.17	2304.48
753.354	2277.85
753.538	2269.66
753.722	2179.55
753.907	2167.26
754.091	2154.98
754.275	2163.17
754.459	2195.93
754.643	2015.71
754.828	2071.01
755.012	2071.01
755.196	2068.96
755.38	2081.25
755.564	2095.58
755.748	2089.44
755.932	2068.96
756.116	1980.9
756.3	1987.04
756.484	2011.62
756.668	1929.7
756.852	1878.5
757.036	1931.75
757.22	1890.79
757.404	1831.4
757.588	1817.06
757.772	1853.92
757.956	1907.17
758.14	1831.4
758.323	1815.01
758.507	1817.06
758.691	1839.59
758.875	1794.53
759.059	1769.96
759.242	1815.01
759.426	1729
759.61	1737.19
759.794	1843.68
759.977	1806.82
760.161	1767.91
760.345	1745.38
760.528	1663.46
760.712	1645.03
760.895	1688.04
761.079	1638.89
761.263	1737.19
761.446	1587.69
761.63	1663.46
761.813	1661.41
761.997	1542.63
762.18	1532.39
762.364	1614.31
762.547	1499.63
762.731	1606.12
762.914	1489.39
763.098	1493.48
763.281	1575.4
763.464	1530.34
763.648	1647.08
763.831	1473
764.015	1638.89
764.198	1542.63
764.381	1475.05
764.564	1518.06
764.748	1516.01
764.931	1524.2
765.114	1407.47
765.297	1477.1
765.481	1444.33
765.664	1442.28
765.847	1448.43
766.03	1536.49
766.213	1429.99
766.397	1411.56
766.58	1393.13
766.763	1339.88
766.946	1274.35
767.129	1458.67
767.312	1335.79
767.495	1372.65
767.678	1434.09
767.861	1386.99
768.044	1425.9
768.227	1348.08
768.41	1358.32
768.593	1389.03
768.776	1303.02
768.959	1370.6
769.142	1339.88
769.324	1331.69
769.507	1288.68
769.69	1280.49
769.873	1352.17
770.056	1366.51
770.239	1264.11
770.421	1303.02
770.604	1276.4
770.787	1198.57
770.97	1268.2
771.152	1249.77
771.335	1221.1
771.518	1219.05
771.7	1386.99
771.883	1253.87
772.066	1348.08
772.248	1204.72
772.431	1255.92
772.613	1237.49
772.796	1210.86
772.978	1155.57
773.161	1247.72
773.343	1280.49
773.526	1196.53
773.708	1159.66
773.891	1143.28
774.073	1042.93
774.256	1042.93
774.438	1083.89
774.621	1167.85
774.803	1147.37
774.985	1096.18
775.168	1141.23
775.35	1079.79
775.532	1098.22
775.715	1071.6
775.897	1008.11
776.079	1139.18
776.261	1034.74
776.444	997.87
776.626	952.82
776.808	1004.02
776.99	1096.18
777.173	940.53
777.355	1053.17
777.537	946.67
777.719	967.15
777.901	891.38
778.083	1022.45
778.265	954.87
778.447	940.53
778.629	948.72
778.811	938.48
778.993	874.99
779.175	979.44
779.357	918
779.539	899.57
779.721	1001.97
779.903	967.15
780.085	883.19
780.267	870.9
780.449	778.74
780.631	874.99
780.812	889.33
780.994	797.17
781.176	803.32
781.358	834.04
781.54	827.89
781.721	856.56
781.903	825.84
782.085	831.99
782.267	836.08
782.448	715.25
782.63	754.16
782.812	872.95
782.993	686.58
783.175	858.61
783.357	748.02
783.538	741.88
783.72	643.57
783.901	623.09
784.083	711.16
784.264	686.58
784.446	637.43
784.627	672.25
784.809	655.86
784.99	680.44
785.172	645.62
785.353	631.29
785.535	733.68
785.716	551.42
785.897	680.44
786.079	653.81
786.26	631.29
786.441	627.19
786.623	547.32
786.804	680.44
786.985	690.68
787.167	717.3
787.348	561.66
787.529	635.38
787.71	639.48
787.891	619
788.073	664.05
788.254	561.66
788.435	608.76
788.616	582.14
788.797	653.81
788.978	522.74
789.159	561.66
789.34	578.04
789.522	508.41
789.703	592.37
789.884	567.8
790.065	543.22
790.246	516.6
790.427	428.54
790.607	598.52
790.788	520.7
790.969	485.88
791.15	598.52
791.331	520.7
791.512	606.71
791.693	549.37
791.874	475.64
792.054	530.94
792.235	512.5
792.416	547.32
792.597	492.02
792.778	459.26
792.958	489.98
793.139	449.02
793.32	522.74
793.5	426.49
793.681	510.46
793.862	473.59
794.042	438.78
794.223	418.3
794.404	420.35
794.584	422.39
794.765	424.44
794.945	455.16
795.126	426.49
795.306	444.92
795.487	463.35
795.667	424.44
795.848	426.49
796.028	360.95
796.209	391.67
796.389	500.22
796.57	438.78
796.75	465.4
796.93	414.2
797.111	328.19
797.291	434.68
797.471	434.68
797.652	401.91
797.832	436.73
798.012	399.87
798.192	397.82
798.373	356.86
798.553	369.15
798.733	297.47
798.913	377.34
799.093	389.63
799.274	457.21
799.454	358.91
799.634	416.25
799.814	389.63
799.994	410.11
800.174	336.38
800.354	303.61
800.534	389.63
800.714	383.48
800.894	348.67
801.074	307.71
801.254	358.91
801.434	342.52
801.614	258.56
801.794	356.86
801.974	782.84
802.154	311.8
802.334	342.52
802.514	270.84
802.693	338.43
802.873	358.91
803.053	352.76
803.233	375.29
803.413	391.67
803.592	303.61
803.772	188.93
803.952	254.46
804.131	401.91
804.311	270.84
804.491	356.86
804.67	211.45
804.85	250.36
805.03	246.27
805.209	334.33
805.389	283.13
805.568	266.75
805.748	252.41
805.928	381.43
806.107	229.88
806.287	293.37
806.466	303.61
806.646	320
806.825	334.33
807.004	270.84
807.184	147.97
807.363	315.9
807.543	287.23
807.722	248.32
807.901	260.6
808.081	248.32
808.26	172.54
808.439	231.93
808.619	248.32
808.798	258.56
808.977	287.23
809.156	254.46
809.336	199.16
809.515	299.52
809.694	203.26
809.873	209.4
810.052	219.64
810.231	291.32
810.411	274.94
810.59	233.98
810.769	287.23
810.948	326.14
811.127	299.52
811.306	197.12
811.485	242.17
811.664	301.56
811.843	217.6
812.022	248.32
812.201	326.14
812.38	338.43
812.559	197.12
812.737	313.85
812.916	176.64
813.095	213.5
813.274	248.32
813.453	225.79
813.632	193.02
813.811	283.13
813.989	190.97
814.168	195.07
814.347	203.26
814.526	279.04
814.704	242.17
814.883	213.5
815.062	188.93
815.24	195.07
815.419	145.92
815.598	205.31
815.776	229.88
815.955	238.08
816.133	131.58
816.312	301.56
816.49	238.08
816.669	256.51
816.847	188.93
817.026	184.83
817.204	139.77
817.383	274.94
817.561	209.4
817.74	176.64
817.918	186.88
818.097	217.6
818.275	250.36
818.453	201.21
818.632	184.83
818.81	242.17
818.988	197.12
819.167	174.59
819.345	188.93
819.523	152.06
819.701	236.03
819.879	221.69
820.058	201.21
820.236	193.02
820.414	172.54
820.592	182.78
820.77	201.21
820.948	139.77
821.127	195.07
821.305	268.8
821.483	174.59
821.661	291.32
821.839	154.11
822.017	147.97
822.195	111.1
822.373	217.6
822.551	133.63
822.729	168.45
822.907	193.02
823.085	150.01
823.262	176.64
823.44	180.73
823.618	137.73
823.796	164.35
823.974	152.06
824.152	172.54
824.329	86.53
824.507	160.25
824.685	135.68
824.863	131.58
825.04	129.53
825.218	115.2
825.396	123.39
825.574	102.91
825.751	78.33
825.929	176.64
826.107	135.68
826.284	96.77
826.462	172.54
826.639	145.92
826.817	131.58
826.994	143.87
827.172	131.58
827.349	172.54
827.527	100.86
827.704	174.59
827.882	111.1
828.059	133.63
828.237	119.29
828.414	139.77
828.591	127.49
828.769	115.2
828.946	121.34
829.124	119.29
829.301	193.02
829.478	111.1
829.655	123.39
829.833	137.73
830.01	51.71
830.187	82.43
830.364	49.66
830.542	123.39
830.719	162.3
830.896	125.44
831.073	100.86
831.25	121.34
831.427	107.01
831.604	31.23
831.782	41.47
831.959	84.48
832.136	160.25
832.313	84.48
832.49	80.38
832.667	51.71
832.844	59.9
833.021	53.76
833.198	152.06
833.374	125.44
833.551	102.91
833.728	90.62
833.905	109.05
834.082	178.69
834.259	119.29
834.436	145.92
834.612	92.67
834.789	176.64
834.966	150.01
835.143	137.73
835.319	76.29
835.496	170.49
835.673	152.06
835.85	104.96
836.026	113.15
836.203	109.05
836.38	59.9
836.556	43.52
836.733	37.38
836.909	64
837.086	102.91
837.262	25.09
837.439	86.53
837.616	94.72
837.792	115.2
837.968	31.23
838.145	33.28
838.321	31.23
838.498	59.9
838.674	168.45
838.851	100.86
839.027	129.53
839.203	80.38
839.38	98.81
839.556	113.15
839.732	139.77
839.909	51.71
840.085	66.05
840.261	8.7
840.437	121.34
840.614	43.52
840.79	53.76
840.966	145.92
841.142	158.21
841.318	80.38
841.494	123.39
841.671	107.01
841.847	78.33
842.023	23.04
842.199	107.01
842.375	90.62
842.551	33.28
842.727	78.33
842.903	158.21
843.079	66.05
843.255	74.24
843.431	74.24
843.607	37.38
843.783	55.81
843.959	121.34
844.134	47.62
844.31	109.05
844.486	66.05
844.662	18.94
844.838	80.38
845.013	39.42
845.189	29.18
845.365	139.77
845.541	119.29
845.716	51.71
845.892	66.05
846.068	59.9
846.244	90.62
846.419	100.86
846.595	31.23
846.77	-9.73
846.946	57.86
847.122	51.71
847.297	-11.78
847.473	94.72
847.648	-3.58
847.824	66.05
847.999	61.95
848.175	45.57
848.35	27.14
848.526	100.86
848.701	131.58
848.876	18.94
849.052	57.86
849.227	59.9
849.403	37.38
849.578	37.38
849.753	125.44
849.929	29.18
850.104	-17.92
850.279	-19.97
850.454	68.09
850.63	74.24
850.805	96.77
850.98	70.14
851.155	6.66
851.33	94.72
851.505	16.9
851.681	31.23
851.856	20.99
852.031	107.01
852.206	94.72
852.381	51.71
852.556	55.81
852.731	102.91
852.906	53.76
853.081	96.77
853.256	59.9
853.431	20.99
853.606	47.62
853.781	4.61
853.956	23.04
854.131	53.76
854.305	-15.87
854.48	35.33
854.655	53.76
854.83	33.28
855.005	47.62
855.18	57.86
855.354	49.66
855.529	66.05
855.704	66.05
855.879	33.28
856.053	72.19
856.228	14.85
856.403	-1.54
856.577	55.81
856.752	25.09
856.926	31.23
857.101	-19.97
857.276	-15.87
857.45	-44.54
857.625	82.43
857.799	18.94
857.974	-13.82
858.148	29.18
858.323	20.99
858.497	0.51
858.672	31.23
858.846	43.52
859.02	72.19
859.195	-40.45
859.369	41.47
859.543	49.66
859.718	-15.87
859.892	0.51
860.066	82.43
860.241	-36.35
860.415	25.09
860.589	0.51
860.763	23.04
860.938	53.76
861.112	94.72
861.286	12.8
861.46	25.09
861.634	61.95
861.808	37.38
861.982	-17.92
862.157	43.52
862.331	41.47
862.505	-9.73
862.679	-3.58
862.853	2.56
863.027	-42.5
863.201	64
863.375	2.56
863.549	66.05
863.722	64
863.896	94.72
864.07	53.76
864.244	25.09
864.418	-11.78
864.592	23.04
864.766	45.57
864.939	41.47
865.113	78.33
865.287	53.76
865.461	59.9
865.634	51.71
865.808	6.66
865.982	-3.58
866.156	68.09
866.329	25.09
866.503	94.72
866.676	66.05
866.85	0.51
867.024	37.38
867.197	74.24
867.371	47.62
867.544	20.99
867.718	37.38
867.891	12.8
868.065	16.9
868.238	2.56
868.412	29.18
868.585	45.57
868.759	18.94
868.932	72.19
869.105	-36.35
869.279	0.51
869.452	41.47
869.625	47.62
869.799	53.76
869.972	14.85
870.145	-22.02
870.319	98.81
870.492	-5.63
870.665	57.86
870.838	2.56
871.011	-7.68
871.185	16.9
871.358	0.51
871.531	66.05
871.704	20.99
871.877	72.19
872.05	-11.78
872.223	70.14
872.396	55.81
872.569	-1.54
872.742	-17.92
872.915	-28.16
873.088	25.09
873.261	16.9
873.434	0.51
873.607	35.33
873.78	0.51
873.953	37.38
874.126	25.09
874.299	39.42
874.471	-11.78
874.644	31.23
874.817	57.86
874.99	-22.02
875.163	14.85
875.335	20.99
875.508	-32.26
875.681	39.42
875.853	29.18
876.026	66.05
876.199	82.43
876.371	72.19
876.544	18.94
876.717	72.19
876.889	-40.45
877.062	35.33
877.234	-65.02
877.407	27.14
877.579	31.23
877.752	96.77
877.924	-7.68
878.097	-38.4
878.269	0.51
878.442	0.51
878.614	37.38
878.786	94.72
878.959	53.76
879.131	-11.78
879.303	23.04
879.476	-44.54
879.648	33.28
879.82	49.66
879.993	-1.54
880.165	-19.97
880.337	6.66
880.509	0.51
880.681	16.9
880.854	45.57
881.026	25.09
881.198	94.72
881.37	-24.06
881.542	8.7
881.714	49.66
881.886	51.71
882.058	72.19
882.23	23.04
882.402	66.05
882.574	-5.63
882.746	12.8
882.918	-3.58
883.09	39.42
883.262	-32.26
883.434	-7.68
883.606	41.47
883.778	-24.06
883.95	55.81
884.122	-24.06
884.293	121.34
884.465	45.57
884.637	70.14
884.809	-38.4
884.98	45.57
885.152	-32.26
885.324	2.56
885.496	6.66
885.667	14.85
885.839	33.28
886.011	49.66
886.182	-9.73
886.354	78.33
886.525	-24.06
886.697	-17.92
886.869	-32.26
887.04	57.86
887.212	55.81
887.383	88.57
887.555	43.52
887.726	-48.64
887.897	0.51
888.069	70.14
888.24	90.62
888.412	0.51
888.583	35.33
888.754	47.62
888.926	-46.59
889.097	-26.11
889.268	-40.45
889.44	-54.78
889.611	76.29
889.782	45.57
889.953	-81.41
890.125	39.42
890.296	14.85
890.467	-7.68
890.638	27.14
890.809	14.85
890.98	-87.55
891.151	33.28
891.323	59.9
891.494	80.38
891.665	-42.5
891.836	39.42
892.007	-54.78
892.178	-22.02
892.349	-28.16
892.52	10.75
892.691	-13.82
892.862	16.9
893.032	-5.63
893.203	16.9
893.374	-7.68
893.545	-24.06
893.716	25.09
893.887	-9.73
894.057	-7.68
894.228	-5.63
894.399	8.7
894.57	14.85
894.74	-9.73
894.911	59.9
895.082	53.76
895.253	45.57
895.423	-40.45
895.594	14.85
895.764	33.28
895.935	35.33
896.106	-1.54
896.276	57.86
896.447	-30.21
896.617	82.43
896.788	-42.5
896.958	-52.74
897.129	-32.26
897.299	51.71
897.47	33.28
897.64	25.09
897.81	31.23
897.981	55.81
898.151	25.09
898.322	-28.16
898.492	27.14
898.662	10.75
898.832	-50.69
899.003	-44.54
899.173	39.42
899.343	-50.69
899.513	-19.97
