Data from USB4F104151__112__10-24-56-316.txt Node

Date: Wed Mar 12 10:24:56 EDT 2025
User: louis
Spectrometer: USB4F10415
Trigger mode: 4
Integration Time (sec): 3.000000E-2
Scans to average: 1
Electric dark correction enabled: true
Nonlinearity correction enabled: false
Boxcar width: 0
XAxis mode: Wavelengths
Number of Pixels in Spectrum: 3648
>>>>>Begin Spectral Data<<<<<
178.204	-39.59
178.424	-39.59
178.644	-39.59
178.864	-78.51
179.084	-98.99
179.304	42.32
179.524	-15.02
179.744	-2.73
179.964	62.8
180.184	23.89
180.404	-10.92
180.624	30.04
180.844	-10.92
181.064	-60.07
181.283	21.85
181.503	-117.42
181.723	36.18
181.943	-33.45
182.163	99.67
182.383	13.65
182.602	34.13
182.822	144.72
183.042	-47.79
183.262	15.7
183.482	5.46
183.701	15.7
183.921	103.76
184.141	71
184.361	60.76
184.58	68.95
184.8	15.7
185.02	-10.92
185.239	152.92
185.459	5.46
185.679	9.56
185.898	-15.02
186.118	62.8
186.338	17.75
186.557	44.37
186.777	-60.07
186.997	-10.92
187.216	11.61
187.436	126.29
187.655	79.19
187.875	58.71
188.095	25.94
188.314	52.56
188.534	-12.97
188.753	19.8
188.973	-2.73
189.192	44.37
189.412	54.61
189.631	109.91
189.851	85.33
190.07	75.09
190.29	-19.11
190.509	42.32
190.729	27.99
190.948	95.57
191.168	193.87
191.387	79.19
191.607	21.85
191.826	116.05
192.045	62.8
192.265	15.7
192.484	-0.68
192.704	-8.87
192.923	-19.11
193.142	50.52
193.362	66.9
193.581	68.95
193.8	-0.68
194.02	50.52
194.239	38.23
194.458	81.24
194.678	1.37
194.897	-6.83
195.116	38.23
195.335	1.37
195.555	44.37
195.774	66.9
195.993	-27.31
196.212	46.42
196.432	-23.21
196.651	-17.07
196.87	15.7
197.089	60.76
197.308	-39.59
197.528	71
197.747	19.8
197.966	-2.73
198.185	48.47
198.404	9.56
198.623	62.8
198.842	66.9
199.062	38.23
199.281	107.86
199.5	30.04
199.719	15.7
199.938	25.94
200.157	103.76
200.376	-33.45
200.595	-8.87
200.814	-0.68
201.033	-0.68
201.252	77.14
201.471	-4.78
201.69	5.46
201.909	83.28
202.128	-4.78
202.347	25.94
202.566	5.46
202.785	1.37
203.004	32.08
203.223	142.68
203.442	23.89
203.661	38.23
203.879	42.32
204.098	21.85
204.317	46.42
204.536	91.48
204.755	11.61
204.974	19.8
205.193	58.71
205.411	140.63
205.63	-8.87
205.849	42.32
206.068	17.75
206.287	54.61
206.505	111.96
206.724	-23.21
206.943	-15.02
207.162	-0.68
207.381	-12.97
207.599	48.47
207.818	75.09
208.037	66.9
208.255	-10.92
208.474	38.23
208.693	83.28
208.911	5.46
209.13	3.41
209.349	36.18
209.567	48.47
209.786	-29.35
210.005	66.9
210.223	-0.68
210.442	-4.78
210.661	42.32
210.879	21.85
211.098	52.56
211.316	27.99
211.535	42.32
211.753	-31.4
211.972	-4.78
212.191	46.42
212.409	7.51
212.628	54.61
212.846	120.15
213.065	40.28
213.283	152.92
213.502	52.56
213.72	48.47
213.938	-27.31
214.157	-29.35
214.375	17.75
214.594	-37.55
214.812	62.8
215.031	-49.83
215.249	54.61
215.467	56.66
215.686	48.47
215.904	11.61
216.122	-4.78
216.341	103.76
216.559	68.95
216.778	17.75
216.996	62.8
217.214	-8.87
217.432	83.28
217.651	-60.07
217.869	13.65
218.087	30.04
218.306	79.19
218.524	9.56
218.742	46.42
218.96	95.57
219.179	-25.26
219.397	52.56
219.615	79.19
219.833	81.24
220.051	85.33
220.27	54.61
220.488	-33.45
220.706	30.04
220.924	-41.64
221.142	13.65
221.36	64.85
221.578	42.32
221.796	85.33
222.015	21.85
222.233	-4.78
222.451	71
222.669	-10.92
222.887	-2.73
223.105	30.04
223.323	126.29
223.541	-66.22
223.759	81.24
223.977	-8.87
224.195	85.33
224.413	19.8
224.631	-15.02
224.849	60.76
225.067	89.43
225.285	3.41
225.503	36.18
225.721	-55.98
225.939	25.94
226.157	19.8
226.375	118.1
226.592	58.71
226.81	-17.07
227.028	77.14
227.246	116.05
227.464	116.05
227.682	58.71
227.9	66.9
228.117	-45.74
228.335	46.42
228.553	60.76
228.771	17.75
228.989	38.23
229.206	11.61
229.424	23.89
229.642	-2.73
229.86	-6.83
230.077	91.48
230.295	-8.87
230.513	5.46
230.731	95.57
230.948	1.37
231.166	81.24
231.384	62.8
231.601	-0.68
231.819	111.96
232.037	-33.45
232.254	-55.98
232.472	-35.5
232.689	25.94
232.907	46.42
233.125	-17.07
233.342	38.23
233.56	3.41
233.777	54.61
233.995	1.37
234.213	52.56
234.43	64.85
234.648	52.56
234.865	38.23
235.083	42.32
235.3	19.8
235.518	44.37
235.735	87.38
235.953	50.52
236.17	60.76
236.388	23.89
236.605	1.37
236.822	21.85
237.04	-31.4
237.257	25.94
237.475	11.61
237.692	60.76
237.909	-4.78
238.127	5.46
238.344	17.75
238.562	34.13
238.779	34.13
238.996	15.7
239.214	21.85
239.431	38.23
239.648	1.37
239.865	83.28
240.083	46.42
240.3	7.51
240.517	-21.16
240.735	32.08
240.952	62.8
241.169	85.33
241.386	15.7
241.603	87.38
241.821	38.23
242.038	17.75
242.255	66.9
242.472	40.28
242.689	7.51
242.907	101.72
243.124	7.51
243.341	11.61
243.558	27.99
243.775	23.89
243.992	-0.68
244.209	54.61
244.426	83.28
244.643	77.14
244.86	-6.83
245.078	9.56
245.295	71
245.512	46.42
245.729	-39.59
245.946	60.76
246.163	38.23
246.38	99.67
246.597	-0.68
246.814	-15.02
247.031	21.85
247.248	19.8
247.464	64.85
247.681	85.33
247.898	32.08
248.115	46.42
248.332	1.37
248.549	50.52
248.766	54.61
248.983	103.76
249.2	111.96
249.417	44.37
249.633	-4.78
249.85	19.8
250.067	50.52
250.284	81.24
250.501	-19.11
250.717	17.75
250.934	21.85
251.151	15.7
251.368	13.65
251.585	-2.73
251.801	34.13
252.018	-19.11
252.235	3.41
252.451	-12.97
252.668	-4.78
252.885	21.85
253.102	25.94
253.318	-29.35
253.535	-21.16
253.752	91.48
253.968	44.37
254.185	-2.73
254.401	5.46
254.618	64.85
254.835	38.23
255.051	46.42
255.268	-55.98
255.484	105.81
255.701	38.23
255.917	46.42
256.134	27.99
256.351	48.47
256.567	32.08
256.784	71
257	5.46
257.217	48.47
257.433	58.71
257.65	5.46
257.866	30.04
258.082	-94.89
258.299	-19.11
258.515	3.41
258.732	-19.11
258.948	1.37
259.165	58.71
259.381	-15.02
259.597	54.61
259.814	62.8
260.03	34.13
260.246	13.65
260.463	71
260.679	7.51
260.895	64.85
261.112	40.28
261.328	19.8
261.544	85.33
261.761	46.42
261.977	75.09
262.193	66.9
262.409	109.91
262.626	9.56
262.842	124.24
263.058	19.8
263.274	60.76
263.49	9.56
263.707	19.8
263.923	48.47
264.139	1.37
264.355	13.65
264.571	11.61
264.787	9.56
265.004	56.66
265.22	64.85
265.436	23.89
265.652	44.37
265.868	75.09
266.084	-2.73
266.3	19.8
266.516	9.56
266.732	64.85
266.948	36.18
267.164	66.9
267.38	46.42
267.596	68.95
267.812	36.18
268.028	-43.69
268.244	23.89
268.46	54.61
268.676	46.42
268.892	5.46
269.108	71
269.324	62.8
269.54	21.85
269.756	46.42
269.972	-19.11
270.188	19.8
270.403	-66.22
270.619	44.37
270.835	44.37
271.051	58.71
271.267	30.04
271.483	50.52
271.698	-8.87
271.914	54.61
272.13	111.96
272.346	34.13
272.562	5.46
272.777	60.76
272.993	48.47
273.209	15.7
273.425	54.61
273.64	32.08
273.856	107.86
274.072	25.94
274.287	13.65
274.503	25.94
274.719	85.33
274.934	60.76
275.15	-15.02
275.366	27.99
275.581	36.18
275.797	13.65
276.012	30.04
276.228	79.19
276.444	-10.92
276.659	60.76
276.875	5.46
277.09	81.24
277.306	1.37
277.521	89.43
277.737	103.76
277.952	30.04
278.168	5.46
278.383	-76.46
278.599	7.51
278.814	77.14
279.03	13.65
279.245	105.81
279.461	87.38
279.676	75.09
279.892	-23.21
280.107	1.37
280.322	-19.11
280.538	79.19
280.753	-43.69
280.969	50.52
281.184	30.04
281.399	44.37
281.615	11.61
281.83	60.76
282.045	3.41
282.26	128.34
282.476	13.65
282.691	-27.31
282.906	-4.78
283.122	120.15
283.337	13.65
283.552	56.66
283.767	1.37
283.983	54.61
284.198	44.37
284.413	-0.68
284.628	-23.21
284.843	105.81
285.058	32.08
285.274	71
285.489	52.56
285.704	-2.73
285.919	91.48
286.134	52.56
286.349	21.85
286.564	38.23
286.779	38.23
286.995	21.85
287.21	1.37
287.425	71
287.64	-8.87
287.855	101.72
288.07	42.32
288.285	27.99
288.5	48.47
288.715	52.56
288.93	23.89
289.145	-23.21
289.36	138.58
289.575	36.18
289.79	50.52
290.004	50.52
290.219	-0.68
290.434	13.65
290.649	85.33
290.864	3.41
291.079	27.99
291.294	-51.88
291.509	71
291.724	25.94
291.938	-4.78
292.153	-23.21
292.368	64.85
292.583	34.13
292.798	-0.68
293.012	44.37
293.227	87.38
293.442	-10.92
293.657	71
293.871	77.14
294.086	-55.98
294.301	79.19
294.516	120.15
294.73	38.23
294.945	-2.73
295.16	40.28
295.374	52.56
295.589	58.71
295.804	-19.11
296.018	30.04
296.233	52.56
296.447	17.75
296.662	-10.92
296.877	-33.45
297.091	54.61
297.306	38.23
297.52	-19.11
297.735	148.82
297.949	83.28
298.164	48.47
298.378	30.04
298.593	38.23
298.807	-2.73
299.022	68.95
299.236	42.32
299.451	-12.97
299.665	-21.16
299.88	25.94
300.094	62.8
300.309	83.28
300.523	21.85
300.737	21.85
300.952	81.24
301.166	75.09
301.381	38.23
301.595	64.85
301.809	66.9
302.024	-66.22
302.238	66.9
302.452	54.61
302.667	101.72
302.881	146.77
303.095	81.24
303.309	11.61
303.524	40.28
303.738	-25.26
303.952	34.13
304.166	36.18
304.381	36.18
304.595	89.43
304.809	93.52
305.023	21.85
305.237	-47.79
305.452	-64.17
305.666	62.8
305.88	38.23
306.094	13.65
306.308	15.7
306.522	-2.73
306.736	71
306.95	52.56
307.164	15.7
307.379	44.37
307.593	44.37
307.807	120.15
308.021	73.04
308.235	-12.97
308.449	-15.02
308.663	27.99
308.877	136.53
309.091	15.7
309.305	93.52
309.519	62.8
309.733	40.28
309.947	30.04
310.161	101.72
310.374	36.18
310.588	62.8
310.802	40.28
311.016	97.62
311.23	27.99
311.444	36.18
311.658	46.42
311.872	19.8
312.085	81.24
312.299	42.32
312.513	46.42
312.727	173.39
312.941	36.18
313.154	7.51
313.368	36.18
313.582	34.13
313.796	103.76
314.009	50.52
314.223	-41.64
314.437	107.86
314.651	11.61
314.864	-39.59
315.078	25.94
315.292	-6.83
315.505	3.41
315.719	60.76
315.933	68.95
316.146	81.24
316.36	11.61
316.573	52.56
316.787	-6.83
317.001	19.8
317.214	-47.79
317.428	13.65
317.641	-29.35
317.855	23.89
318.068	-37.55
318.282	1.37
318.495	68.95
318.709	54.61
318.922	9.56
319.136	34.13
319.349	75.09
319.563	-21.16
319.776	11.61
319.99	-55.98
320.203	27.99
320.417	-19.11
320.63	13.65
320.843	157.01
321.057	3.41
321.27	75.09
321.483	48.47
321.697	9.56
321.91	19.8
322.124	79.19
322.337	38.23
322.55	21.85
322.763	79.19
322.977	32.08
323.19	48.47
323.403	50.52
323.617	62.8
323.83	107.86
324.043	23.89
324.256	66.9
324.469	-47.79
324.683	62.8
324.896	7.51
325.109	62.8
325.322	30.04
325.535	25.94
325.748	11.61
325.962	136.53
326.175	138.58
326.388	27.99
326.601	25.94
326.814	5.46
327.027	71
327.24	34.13
327.453	71
327.666	44.37
327.879	52.56
328.092	3.41
328.305	-8.87
328.518	77.14
328.731	30.04
328.944	46.42
329.157	-39.59
329.37	64.85
329.583	99.67
329.796	99.67
330.009	42.32
330.222	114
330.435	11.61
330.648	73.04
330.861	68.95
331.073	62.8
331.286	15.7
331.499	81.24
331.712	15.7
331.925	60.76
332.138	-10.92
332.35	81.24
332.563	83.28
332.776	79.19
332.989	-15.02
333.202	91.48
333.414	-55.98
333.627	87.38
333.84	-4.78
334.053	60.76
334.265	5.46
334.478	-0.68
334.691	30.04
334.903	50.52
335.116	-2.73
335.329	73.04
335.541	52.56
335.754	114
335.966	32.08
336.179	-2.73
336.392	75.09
336.604	85.33
336.817	116.05
337.029	25.94
337.242	58.71
337.454	128.34
337.667	42.32
337.88	85.33
338.092	101.72
338.305	46.42
338.517	60.76
338.729	46.42
338.942	15.7
339.154	52.56
339.367	71
339.579	87.38
339.792	58.71
340.004	93.52
340.217	-12.97
340.429	13.65
340.641	34.13
340.854	23.89
341.066	68.95
341.278	128.34
341.491	130.39
341.703	44.37
341.915	13.65
342.128	17.75
342.34	1.37
342.552	-37.55
342.764	19.8
342.977	71
343.189	36.18
343.401	13.65
343.613	-2.73
343.826	34.13
344.038	52.56
344.25	40.28
344.462	21.85
344.674	-2.73
344.886	83.28
345.099	17.75
345.311	-15.02
345.523	46.42
345.735	40.28
345.947	83.28
346.159	44.37
346.371	40.28
346.583	46.42
346.795	75.09
347.007	46.42
347.219	36.18
347.431	-0.68
347.643	87.38
347.855	60.76
348.067	81.24
348.279	44.37
348.491	36.18
348.703	56.66
348.915	87.38
349.127	42.32
349.339	64.85
349.551	-10.92
349.763	62.8
349.975	68.95
350.187	36.18
350.399	44.37
350.61	146.77
350.822	15.7
351.034	27.99
351.246	64.85
351.458	30.04
351.669	11.61
351.881	97.62
352.093	46.42
352.305	114
352.517	138.58
352.728	97.62
352.94	68.95
353.152	130.39
353.363	23.89
353.575	44.37
353.787	15.7
353.999	116.05
354.21	83.28
354.422	5.46
354.633	3.41
354.845	75.09
355.057	-60.07
355.268	83.28
355.48	42.32
355.692	48.47
355.903	60.76
356.115	32.08
356.326	68.95
356.538	73.04
356.749	85.33
356.961	73.04
357.172	75.09
357.384	42.32
357.595	81.24
357.807	62.8
358.018	93.52
358.23	25.94
358.441	79.19
358.653	85.33
358.864	62.8
359.075	64.85
359.287	62.8
359.498	77.14
359.709	58.71
359.921	7.51
360.132	-10.92
360.344	27.99
360.555	77.14
360.766	75.09
360.977	-21.16
361.189	101.72
361.4	87.38
361.611	128.34
361.823	50.52
362.034	83.28
362.245	54.61
362.456	58.71
362.667	36.18
362.879	101.72
363.09	40.28
363.301	21.85
363.512	128.34
363.723	17.75
363.935	138.58
364.146	87.38
364.357	9.56
364.568	21.85
364.779	1.37
364.99	83.28
365.201	-15.02
365.412	73.04
365.623	5.46
365.834	58.71
366.045	83.28
366.256	62.8
366.467	54.61
366.678	75.09
366.889	-29.35
367.1	58.71
367.311	19.8
367.522	3.41
367.733	118.1
367.944	-15.02
368.155	-39.59
368.366	62.8
368.577	75.09
368.788	85.33
368.999	13.65
369.209	32.08
369.42	97.62
369.631	109.91
369.842	48.47
370.053	7.51
370.264	66.9
370.474	46.42
370.685	60.76
370.896	-10.92
371.107	68.95
371.317	79.19
371.528	54.61
371.739	73.04
371.95	60.76
372.16	157.01
372.371	32.08
372.582	17.75
372.792	32.08
373.003	56.66
373.214	-43.69
373.424	-15.02
373.635	-2.73
373.846	58.71
374.056	101.72
374.267	30.04
374.477	-4.78
374.688	75.09
374.898	56.66
375.109	60.76
375.319	87.38
375.53	97.62
375.74	21.85
375.951	5.46
376.161	38.23
376.372	122.2
376.582	42.32
376.793	-33.45
377.003	62.8
377.214	36.18
377.424	71
377.635	95.57
377.845	85.33
378.055	50.52
378.266	-4.78
378.476	23.89
378.686	44.37
378.897	27.99
379.107	124.24
379.317	5.46
379.528	-2.73
379.738	19.8
379.948	30.04
380.158	73.04
380.369	60.76
380.579	83.28
380.789	44.37
380.999	95.57
381.21	103.76
381.42	118.1
381.63	120.15
381.84	42.32
382.05	71
382.261	75.09
382.471	95.57
382.681	66.9
382.891	101.72
383.101	11.61
383.311	11.61
383.521	46.42
383.731	56.66
383.941	30.04
384.151	62.8
384.361	91.48
384.571	134.48
384.781	75.09
384.991	146.77
385.201	130.39
385.411	132.44
385.621	132.44
385.831	21.85
386.041	11.61
386.251	85.33
386.461	128.34
386.671	60.76
386.881	27.99
387.091	27.99
387.301	68.95
387.511	95.57
387.72	58.71
387.93	68.95
388.14	91.48
388.35	87.38
388.56	27.99
388.769	50.52
388.979	44.37
389.189	62.8
389.399	27.99
389.609	138.58
389.818	77.14
390.028	62.8
390.238	118.1
390.447	-19.11
390.657	23.89
390.867	58.71
391.076	13.65
391.286	87.38
391.496	83.28
391.705	103.76
391.915	77.14
392.125	116.05
392.334	5.46
392.544	71
392.753	11.61
392.963	25.94
393.172	19.8
393.382	56.66
393.591	159.06
393.801	32.08
394.01	99.67
394.22	62.8
394.429	101.72
394.639	60.76
394.848	77.14
395.058	144.72
395.267	44.37
395.477	130.39
395.686	93.52
395.895	142.68
396.105	130.39
396.314	60.76
396.524	73.04
396.733	107.86
396.942	148.82
397.152	202.07
397.361	132.44
397.57	52.56
397.78	77.14
397.989	95.57
398.198	179.54
398.407	93.52
398.617	73.04
398.826	54.61
399.035	134.48
399.244	46.42
399.453	118.1
399.663	169.3
399.872	150.87
400.081	109.91
400.29	126.29
400.499	77.14
400.708	124.24
400.917	66.9
401.127	87.38
401.336	128.34
401.545	124.24
401.754	150.87
401.963	54.61
402.172	134.48
402.381	105.81
402.59	157.01
402.799	122.2
403.008	138.58
403.217	154.96
403.426	175.44
403.635	97.62
403.844	79.19
404.053	157.01
404.262	58.71
404.471	208.21
404.68	189.78
404.888	214.35
405.097	224.59
405.306	181.59
405.515	171.35
405.724	157.01
405.933	152.92
406.142	243.03
406.35	167.25
406.559	271.7
406.768	218.45
406.977	157.01
407.185	290.13
407.394	195.92
407.603	169.3
407.812	245.07
408.02	273.75
408.229	197.97
408.438	222.55
408.646	288.08
408.855	238.93
409.064	298.32
409.272	202.07
409.481	410.96
409.69	292.18
409.898	324.94
410.107	374.1
410.315	410.96
410.524	410.96
410.733	392.53
410.941	353.62
411.15	431.44
411.358	396.62
411.567	511.31
411.775	406.86
411.984	488.78
412.192	503.12
412.401	494.93
412.609	531.79
412.818	490.83
413.026	554.32
413.234	566.6
413.443	572.75
413.651	666.96
413.86	591.18
414.068	578.89
414.276	646.48
414.485	732.49
414.693	775.5
414.901	707.91
415.11	755.02
415.318	652.62
415.526	824.65
415.734	767.31
415.943	812.36
416.151	873.8
416.359	922.95
416.567	1002.82
416.776	992.58
416.984	1135.94
417.192	1152.32
417.4	1090.88
417.608	1115.46
417.817	1129.8
418.025	1142.08
418.233	1326.4
418.441	1230.15
418.649	1312.07
418.857	1447.23
419.065	1494.33
419.273	1428.8
419.481	1496.38
419.689	1582.4
419.897	1637.69
420.105	1707.32
420.313	1719.61
420.521	1889.59
420.729	1848.63
420.937	1918.26
421.145	1934.65
421.353	2069.81
421.561	2096.44
421.769	2258.23
421.977	2372.91
422.185	2372.91
422.393	2383.15
422.601	2512.18
422.809	2471.22
423.017	2583.85
423.224	2639.15
423.432	2764.08
423.64	2790.7
423.848	3171.62
424.056	2987.3
424.263	3159.33
424.471	3097.89
424.679	3194.15
424.887	3456.29
425.094	3527.97
425.302	3570.97
425.51	3568.93
425.718	3777.82
425.925	3937.56
426.133	3972.38
426.341	4216.09
426.548	4312.34
426.756	4510.99
426.964	4404.5
427.171	4717.84
427.379	4924.68
427.586	4777.23
427.794	5096.71
428.001	5180.68
428.209	5479.68
428.417	5440.77
428.624	5846.27
428.832	5760.25
429.039	5866.75
429.247	5729.53
429.454	6405.36
429.662	6690.03
429.869	6278.39
430.076	6759.66
430.284	6483.19
430.491	7017.71
430.699	7275.75
430.906	7058.67
431.114	7177.45
431.321	7578.85
431.528	7644.38
431.736	8168.66
431.943	8525.01
432.15	8193.24
432.358	8281.3
432.565	8649.94
432.772	8813.77
432.979	9360.58
433.187	9479.36
433.394	9493.7
433.601	9899.2
433.808	10142.91
434.016	10112.19
434.223	10609.84
434.43	11119.79
434.637	10806.45
434.844	11652.26
435.052	11979.93
435.259	11717.79
435.466	11975.84
435.673	11826.34
435.88	12473.49
436.087	13249.68
436.294	13343.88
436.501	12784.79
436.708	12926.1
436.915	13628.55
437.122	13968.51
437.329	14027.9
437.537	14433.4
437.743	14718.07
437.95	14812.28
438.157	15516.78
438.364	15975.52
438.571	15783.01
438.778	15934.56
438.985	17390.67
439.192	16548.95
439.399	17568.84
439.606	16819.28
439.813	17824.84
440.02	18918.45
440.227	18623.55
440.433	18334.78
440.64	18961.46
440.847	18955.32
441.054	19326
441.261	20755.48
441.467	20284.45
441.674	20800.54
441.881	21320.72
442.088	21589
442.294	21240.85
442.501	22035.46
442.708	22395.9
442.914	23311.35
443.121	24413.15
443.328	23528.43
443.534	25301.97
443.741	24155.11
443.948	24202.21
444.154	25861.07
444.361	25539.54
444.568	26041.29
444.774	25906.12
444.981	26368.96
445.187	27046.84
445.394	28169.13
445.6	27601.84
445.807	30387.08
446.013	29246.36
446.22	29250.46
446.426	31005.56
446.633	30974.84
446.839	31714.16
447.046	30645.12
447.252	32213.87
447.459	32267.11
447.665	32170.86
447.871	33573.72
448.078	35132.22
448.284	33200.99
448.491	34300.75
448.697	35666.74
448.903	35992.37
449.11	36064.05
449.316	35437.37
449.522	36377.39
449.728	36963.11
449.935	37432.09
450.141	37276.44
450.347	38050.58
450.553	36676.39
450.76	37083.94
450.966	38253.33
451.172	37847.83
451.378	38951.68
451.584	38060.82
451.791	38816.52
451.997	38824.71
452.203	39523.07
452.409	39127.81
452.615	39140.1
452.821	37622.55
453.027	37634.84
453.233	39168.77
453.44	37325.6
453.646	38349.58
453.852	38566.66
454.058	38634.25
454.264	37462.81
454.47	38337.29
454.676	37047.07
454.882	38664.97
455.088	35089.21
455.294	35377.98
455.5	35945.26
455.705	36617
455.911	34978.62
456.117	34003.79
456.323	33866.58
456.529	31826.8
456.735	33274.71
456.941	32820.06
457.147	32015.21
457.352	31210.36
457.558	30876.54
457.764	30933.89
457.97	30143.37
458.176	29676.43
458.381	29467.54
458.587	28099.5
458.793	27954.09
458.999	26643.39
459.204	28382.12
459.41	27546.54
459.616	25947.08
459.821	25686.99
460.027	25770.96
460.233	25287.64
460.438	24325.09
460.644	24370.15
460.85	23094.26
461.055	22660.09
461.261	22846.46
461.466	21107.73
461.672	20417.57
461.878	22053.89
462.083	20608.03
462.289	20270.11
462.494	19846.18
462.7	19094.58
462.905	18572.35
463.111	19237.94
463.316	19285.04
463.522	19082.29
463.727	18807.86
463.932	18838.58
464.138	18646.07
464.343	18725.94
464.549	18109.5
464.754	19102.77
464.959	18758.71
465.165	18476.09
465.37	17890.37
465.575	17374.28
465.781	17976.39
465.986	18043.97
466.191	17761.35
466.397	17048.66
466.602	16237.66
466.807	16870.48
467.012	17087.57
467.218	16784.47
467.423	16637.02
467.628	16727.13
467.833	17456.2
468.038	16888.92
468.244	16493.66
468.449	16684.12
468.654	16295
468.859	16325.72
469.064	16311.39
469.269	15502.44
469.474	15518.82
469.679	15893.6
469.885	15582.31
470.09	15613.03
470.295	15535.21
470.5	15334.51
470.705	15185.01
470.91	14830.71
471.115	14929.01
471.32	14851.19
471.525	14996.59
471.73	14543.99
471.935	14476.41
472.139	14158.97
472.344	14234.75
472.549	14195.84
472.754	14304.38
472.959	13718.66
473.164	13352.07
473.369	13259.91
473.574	13851.78
473.778	13563.01
473.983	13554.82
474.188	13319.31
474.393	12987.54
474.598	12862.61
474.802	12795.03
475.007	12575.89
475.212	12756.11
475.417	12215.45
475.621	12162.2
475.826	12244.12
476.031	12008.61
476.235	11861.15
476.44	11836.58
476.645	11506.85
476.849	11717.79
477.054	11764.9
477.259	11478.18
477.463	11431.08
477.668	11009.2
477.872	11404.46
478.077	10933.42
478.282	10706.1
478.486	10740.91
478.691	10575.03
478.895	10738.87
479.1	10511.54
479.304	10595.51
479.509	10187.96
479.713	10581.17
479.918	10302.65
480.122	10058.94
480.326	10271.93
480.531	9993.4
480.735	10140.86
480.94	10011.84
481.144	10325.18
481.348	9827.52
481.553	10048.7
481.757	9852.09
481.961	9905.34
482.166	10114.23
482.37	10071.23
482.574	9962.69
482.778	9915.58
482.983	9878.72
483.187	9905.34
483.391	10013.88
483.595	9798.85
483.8	9942.21
484.004	9880.77
484.208	10042.56
484.412	10044.6
484.616	9909.44
484.821	9991.36
485.025	9800.9
485.229	9925.82
485.433	9882.81
485.637	9901.25
485.841	9866.43
486.045	9792.7
486.249	9901.25
486.453	9909.44
486.657	9774.27
486.861	10007.74
487.065	9448.65
487.269	9852.09
487.473	9778.37
487.677	10038.46
487.881	9979.07
488.085	10024.12
488.289	9950.4
488.493	10079.42
488.697	10083.52
488.901	9831.62
489.105	9981.12
489.309	9981.12
489.512	10060.99
489.716	10056.89
489.92	10120.38
490.124	10149.05
490.328	10353.85
490.531	10081.47
490.735	10167.48
490.939	10265.78
491.143	10157.24
491.346	10130.62
491.55	10470.58
491.754	10233.02
491.958	10427.57
492.161	10101.95
492.365	10564.79
492.569	10474.68
492.772	10329.27
492.976	10720.43
493.18	10630.32
493.383	10818.74
493.587	10712.24
493.79	10761.39
493.994	10706.1
494.197	10994.86
494.401	11113.64
494.605	11027.63
494.808	11115.69
495.012	11257
495.215	11388.07
495.419	11400.36
495.622	11353.26
495.825	11693.22
496.029	11562.15
496.232	11879.58
496.436	11682.98
496.639	12264.6
496.843	12002.46
497.046	12252.31
497.249	12217.5
497.453	12506.26
497.656	12725.4
497.859	12596.37
498.063	12764.31
498.266	13071.5
498.469	13034.64
498.673	13012.11
498.876	13282.44
499.079	13393.03
499.282	13198.48
499.485	13816.96
499.689	13847.68
499.892	14013.57
500.095	14234.75
500.298	14339.19
500.501	14335.1
500.705	14998.64
500.908	15023.22
501.111	15049.84
501.314	15178.86
501.517	15385.71
501.72	15680.61
501.923	15477.87
502.126	15836.26
502.329	16004.19
502.532	16073.82
502.735	16319.58
502.938	16340.06
503.141	16886.87
503.344	16917.59
503.547	16981.07
503.75	17411.15
503.953	17362
504.156	17466.44
504.359	17816.65
504.562	18054.21
504.765	18197.57
504.968	18459.71
505.17	18703.42
505.373	18768.95
505.576	19248.18
505.779	19311.66
505.982	19080.24
506.185	19934.25
506.387	19921.96
506.59	19774.5
506.793	20433.95
506.996	20429.85
507.198	21009.43
507.401	20913.17
507.604	21242.9
507.807	21543.95
508.009	21597.2
508.212	21900.3
508.415	22166.53
508.617	22182.91
508.82	22676.48
509.022	22197.25
509.225	23479.28
509.428	22944.76
509.63	23217.14
509.833	23360.5
510.035	24095.72
510.238	23854.06
510.44	24454.11
510.643	24908.76
510.845	24863.71
511.048	24626.14
511.25	25326.55
511.453	25478.1
511.655	26360.77
511.858	25711.57
512.06	26336.2
512.262	26581.95
512.465	26645.44
512.667	27208.63
512.87	27233.21
513.072	27597.74
513.274	28076.97
513.477	28345.25
513.679	28623.78
513.881	28785.57
514.084	29125.53
514.286	28847.01
514.488	29588.37
514.69	30194.57
514.893	30399.37
515.095	30311.3
515.297	30303.11
515.499	31083.39
515.701	31372.15
515.904	31689.59
516.106	31574.9
516.308	32258.92
516.51	32428.9
516.712	32666.47
516.914	32787.3
517.116	33723.22
517.318	33418.07
517.52	33940.3
517.722	34198.35
517.925	34372.42
518.127	34851.65
518.329	35191.61
518.531	35050.3
518.733	35916.59
518.935	36195.12
519.136	36068.14
519.338	36883.23
519.54	36829.99
519.742	37102.37
519.944	37456.67
520.146	38249.23
520.348	38398.73
520.55	38658.82
520.752	38624.01
520.954	38814.47
521.155	39551.74
521.357	40217.33
521.559	39979.76
521.761	40565.48
521.963	40760.04
522.164	40917.73
522.366	41204.45
522.568	41661.15
522.77	41616.09
522.971	42089.17
523.173	41812.7
523.375	42531.53
523.576	42271.44
523.778	42834.63
523.98	43530.94
524.181	43221.7
524.383	43573.95
524.584	44020.41
524.786	44055.22
524.988	44251.83
525.189	44491.44
525.391	44708.52
525.592	44960.42
525.794	44923.56
525.995	45660.83
526.197	45568.67
526.398	45529.76
526.6	46185.11
526.801	46531.22
527.003	46514.83
527.204	46582.41
527.406	47250.05
527.607	47131.27
527.808	47528.58
528.01	46693
528.211	47350.4
528.412	48265.84
528.614	48142.97
528.815	47850.11
529.016	48470.64
529.218	48044.66
529.419	48556.66
529.62	48536.18
529.822	48570.99
530.023	48454.26
530.224	49015.4
530.425	48949.87
530.626	48489.07
530.828	48710.25
531.029	49551.97
531.23	48982.63
531.431	49171.05
531.632	49531.49
531.833	49551.97
532.035	49277.54
532.236	50094.68
532.437	49564.26
532.638	49603.17
532.839	50076.25
533.04	50383.44
533.241	49912.41
533.442	50838.09
533.643	50053.72
533.844	49967.71
534.045	50111.06
534.246	49451.62
534.447	50231.89
534.648	50109.02
534.849	50281.05
535.05	49658.46
535.251	49984.09
535.451	50055.77
535.652	50248.28
535.853	50356.82
536.054	50375.25
536.255	50467.41
536.456	49855.07
536.657	50936.4
536.857	50260.57
537.058	50666.06
537.259	50727.5
537.46	50395.73
537.66	50408.02
537.861	50559.57
538.062	50403.92
538.263	50801.23
538.463	50702.93
538.664	50408.02
538.865	50840.14
539.065	50752.08
539.266	50242.13
539.466	50831.95
539.667	50006.62
539.868	50897.48
540.068	50788.94
540.269	50426.45
540.469	50963.02
540.67	50420.31
540.87	50948.68
541.071	50311.77
541.271	50442.84
541.472	50561.62
541.672	50649.68
541.873	50410.07
542.073	49576.54
542.274	50924.11
542.474	50373.2
542.675	50006.62
542.875	50829.9
543.075	50102.87
543.276	50109.02
543.476	50907.72
543.676	49887.84
543.877	50387.54
544.077	50551.38
544.277	50156.12
544.478	50248.28
544.678	50252.37
544.878	50145.88
545.078	50424.4
545.279	50258.52
545.479	49920.6
545.679	50448.98
545.879	50039.39
546.079	50059.87
546.28	50408.02
546.48	49990.23
546.68	50381.4
546.88	50268.76
547.08	50473.56
547.28	50023
547.48	49699.42
547.68	50217.56
547.88	49887.84
548.081	50117.21
548.281	49896.03
548.481	49912.41
548.681	50489.94
548.881	49807.97
549.081	49969.75
549.28	49607.26
549.48	50025.05
549.68	49883.74
549.88	50448.98
550.08	49900.12
550.28	49945.18
550.48	49674.85
550.68	50399.83
550.88	49470.05
551.08	49801.82
551.279	50362.96
551.479	49820.25
551.679	50068.06
551.879	49822.3
552.079	49502.82
552.278	49547.87
552.478	49637.98
552.678	49863.26
552.878	50141.78
553.077	49818.21
553.277	49625.7
553.477	49920.6
553.676	49367.65
553.876	49691.23
554.076	49177.19
554.275	49703.52
554.475	49005.16
554.674	49826.4
554.874	49799.77
555.074	48857.71
555.273	49212.01
555.473	49779.29
555.672	49216.1
555.872	49285.73
556.071	48935.53
556.271	49805.92
556.47	48833.13
556.67	48634.48
556.869	48716.4
557.068	49332.84
557.268	48650.86
557.467	48650.86
557.667	48720.49
557.866	49162.86
558.065	48593.52
558.265	48274.04
558.464	48306.8
558.663	49197.67
558.863	47897.21
559.062	48691.82
559.261	48173.69
559.461	48790.12
559.66	47553.15
559.859	48560.75
560.058	47884.92
560.258	47805.05
560.457	47264.39
560.656	48099.96
560.855	47245.96
561.054	47534.72
561.253	47766.14
561.453	47463.04
561.652	47352.45
561.851	47835.77
562.05	47235.72
562.249	47372.93
562.448	47493.76
562.647	47069.83
562.846	47102.6
563.045	46854.79
563.244	46731.92
563.443	47153.8
563.642	46580.37
563.841	46340.75
564.04	46344.85
564.239	46604.94
564.438	46082.71
564.637	46672.53
564.836	46377.62
565.035	45826.71
565.234	46054.04
565.432	45488.8
565.631	45591.2
565.83	45832.86
566.029	44962.47
566.228	44739.24
566.427	45537.95
566.625	45439.65
566.824	44487.34
567.023	45052.58
567.222	43971.25
567.42	44638.89
567.619	44479.15
567.818	44047.03
568.016	44040.89
568.215	44759.72
568.414	44014.26
568.612	44513.97
568.811	43897.53
569.01	43854.52
569.208	43246.27
569.407	44042.93
569.605	43184.83
569.804	43645.63
570.002	43150.02
570.201	43524.8
570.4	43047.62
570.598	42769.1
570.797	42670.79
570.995	42912.45
571.193	42130.13
571.392	42863.3
571.59	42089.17
571.789	42466
571.987	41781.98
572.186	42564.3
572.384	41536.22
572.582	41831.13
572.781	41974.48
572.979	41286.37
573.177	41327.33
573.376	41757.4
573.574	41159.39
573.772	41607.9
573.971	40669.93
574.169	40721.13
574.367	40471.28
574.565	40739.56
574.763	40653.54
574.962	40557.29
575.16	39965.43
575.358	40522.47
575.556	39783.16
575.754	40719.08
575.952	39725.82
576.151	40372.97
576.349	39398.14
576.547	39666.42
576.745	39615.22
576.943	39414.52
577.141	39160.58
577.339	39553.79
577.537	38839.04
577.735	39437.05
577.933	38607.62
578.131	39049.99
578.329	38640.39
578.527	38730.5
578.725	38185.74
578.923	38736.65
579.121	38026
579.319	38288.14
579.516	38085.39
579.714	37985.04
579.912	37604.12
580.11	37612.31
580.308	37806.87
580.506	37722.9
580.704	37137.18
580.901	37464.86
581.099	37831.44
581.297	36954.91
581.495	36862.75
581.692	36956.96
581.89	36432.68
582.088	36717.35
582.285	36453.16
582.483	36846.37
582.681	36676.39
582.878	36578.09
583.076	35916.59
583.274	36391.72
583.471	35951.41
583.669	35793.72
583.866	35906.35
584.064	35941.17
584.262	35480.38
584.459	35898.16
584.657	35380.03
584.854	35572.53
585.052	35072.83
585.249	35261.24
585.447	35136.32
585.644	34782.02
585.841	34691.91
586.039	34765.63
586.236	34382.66
586.434	34765.63
586.631	34392.9
586.828	34728.77
587.026	34378.57
587.223	34259.79
587.42	34118.48
587.618	34079.57
587.815	33602.39
588.012	33481.56
588.21	33418.07
588.407	34194.25
588.604	33405.78
588.801	33309.53
588.999	33428.31
589.196	33370.97
589.393	33129.31
589.59	33110.88
589.787	32885.6
589.984	32787.3
590.182	32613.22
590.379	33065.82
590.576	32459.62
590.773	32471.91
590.97	32234.35
591.167	32361.32
591.364	31966.06
591.561	32379.75
591.758	31857.52
591.955	31609.72
592.152	32047.98
592.349	31329.14
592.546	31773.55
592.743	31828.85
592.94	30788.48
593.137	31406.97
593.334	31628.15
593.531	30911.36
593.727	31056.76
593.924	30876.54
594.121	30704.51
594.318	30942.08
594.515	30512
594.712	30829.44
594.908	30485.38
595.105	30817.15
595.302	30028.68
595.499	30200.71
595.696	30374.79
595.892	29989.77
596.089	29891.47
596.286	29944.72
596.482	29813.65
596.679	29877.13
596.876	29891.47
597.072	29750.16
597.269	29739.92
597.466	29563.79
597.662	29092.76
597.859	29385.62
598.055	29193.11
598.252	29150.1
598.448	29084.57
598.645	28885.92
598.841	28566.43
599.038	29070.23
599.234	28687.26
599.431	28296.1
599.627	28212.13
599.824	28343.2
600.02	28146.6
600.217	28318.63
600.413	28054.44
600.609	27739.05
600.806	28001.19
601.002	27853.74
601.198	27732.91
601.395	27489.2
601.591	27528.11
601.787	27319.22
601.984	27212.73
602.18	27909.04
602.376	27464.63
602.572	27087.8
602.769	27014.07
602.965	26831.8
603.161	26534.85
603.357	26983.35
603.553	26686.4
603.75	26819.52
603.946	26401.73
604.142	26389.44
604.338	26145.73
604.534	26287.04
604.73	26102.73
604.926	26125.25
605.122	26059.72
605.318	26090.44
605.514	25951.18
605.71	25865.16
605.906	25713.61
606.102	25494.48
606.298	25428.95
606.494	25342.93
606.69	25412.56
606.886	25584.59
607.082	25183.19
607.278	25320.4
607.474	25201.62
607.67	25228.24
607.866	24945.62
608.062	24996.82
608.257	24908.76
608.453	25142.23
608.649	24798.17
608.845	24384.48
609.041	24470.5
609.236	24597.47
609.432	24380.39
609.628	24550.37
609.824	24361.95
610.019	24294.37
610.215	24409.06
610.411	24230.88
610.606	24056.81
610.802	24206.31
610.998	24394.72
611.193	24212.45
611.389	23849.96
611.584	24040.42
611.78	23485.42
611.976	23843.82
612.171	23823.34
612.367	24048.61
612.562	23788.52
612.758	23260.15
612.953	23167.99
613.149	23544.81
613.344	23227.38
613.539	23477.23
613.735	23510
613.93	23757.8
614.126	23116.79
614.321	23350.26
614.517	23139.32
614.712	23155.7
614.907	23213.04
615.103	23104.5
615.298	22983.67
615.493	23180.28
615.688	22656
615.884	23213.04
616.079	22668.28
616.274	22903.8
616.47	22776.83
616.665	22707.19
616.86	22209.54
617.055	22596.6
617.25	22481.92
617.445	22610.94
617.641	22285.31
617.836	22189.06
618.031	22170.63
618.226	22383.62
618.421	22057.99
618.616	22440.96
618.811	21922.82
619.006	21945.35
619.201	21361.68
619.396	21935.11
619.591	21462.03
619.786	21763.08
619.981	21380.11
620.176	21750.79
620.371	21253.14
620.566	21167.12
620.761	20958.23
620.956	21255.18
621.151	20714.52
621.346	21034
621.541	20444.19
621.735	20829.21
621.93	20581.4
622.125	20476.96
622.32	20225.06
622.515	20466.72
622.709	19854.37
622.904	20145.19
623.099	20046.88
623.294	20081.7
623.488	19618.86
623.683	19846.18
623.878	19545.13
624.072	19604.52
624.267	19350.57
624.462	19264.56
624.656	18918.45
624.851	19000.37
625.046	18949.17
625.24	18928.69
625.435	18734.14
625.629	18732.09
625.824	18658.36
626.018	18480.19
626.213	18234.43
626.407	18238.53
626.602	18095.17
626.796	18017.35
626.991	18428.99
627.185	17945.67
627.38	17728.58
627.574	17652.81
627.768	17374.28
627.963	17552.46
628.157	17273.93
628.352	17370.19
628.546	17097.81
628.74	17448.01
628.935	16831.57
629.129	16858.2
629.323	16766.04
629.517	16710.74
629.712	16716.89
629.906	16600.15
630.1	16524.38
630.294	16714.84
630.489	16172.13
630.683	16479.32
630.877	16057.44
631.071	16116.83
631.265	16065.63
631.459	15922.27
631.653	15924.32
631.848	15903.84
632.042	15606.89
632.236	15545.45
632.43	15342.7
632.624	15383.66
632.818	15426.67
633.012	15051.89
633.206	15047.79
633.4	15142
633.594	14724.21
633.788	14851.19
633.982	14875.76
634.176	14654.58
634.369	14513.27
634.563	14496.89
634.757	14679.16
634.951	14634.1
635.145	14312.57
635.339	14322.81
635.533	14204.03
635.726	14027.9
635.92	13843.59
636.114	13937.79
636.308	13980.8
636.501	13986.94
636.695	13978.75
636.889	13630.6
637.083	13509.77
637.276	13601.93
637.47	13399.18
637.664	13452.42
637.857	13347.98
638.051	13202.57
638.244	13083.79
638.438	13300.87
638.632	12956.82
638.825	12831.89
639.019	12926.1
639.212	12856.47
639.406	12848.27
639.599	12643.48
639.793	12698.77
639.986	12489.88
640.18	12475.54
640.373	12508.31
640.567	12344.47
640.76	12348.57
640.954	12156.06
641.147	12184.73
641.34	11900.06
641.534	12057.76
641.727	11861.15
641.92	11852.96
642.114	11605.16
642.307	11830.43
642.5	11556
642.694	11799.71
642.887	11605.16
643.08	11650.21
643.273	11400.36
643.467	11261.1
643.66	11414.7
643.853	11234.47
644.046	11130.03
644.239	11132.08
644.432	11035.82
644.626	10749.11
644.819	10658.99
645.012	11039.92
645.205	10876.08
645.398	10978.48
645.591	10572.98
645.784	10677.43
645.977	10431.67
646.17	10546.36
646.363	10243.26
646.556	10224.83
646.749	10339.51
646.942	10489.01
647.135	10124.47
647.328	10077.37
647.521	10108.09
647.714	9942.21
647.907	10106.04
648.099	10005.69
648.292	10060.99
648.485	9804.99
648.678	9690.31
648.871	9749.7
649.064	9407.69
649.256	9718.98
649.449	9538.76
649.642	9370.82
649.835	9313.48
650.027	9356.49
650.22	9327.82
650.413	9223.37
650.605	9227.46
650.798	9088.2
650.991	9084.11
651.183	9098.44
651.376	8959.18
651.568	9233.61
651.761	8953.04
651.954	8873.17
652.146	8803.53
652.339	8731.86
652.531	8912.08
652.724	8676.56
652.916	8510.68
653.109	8842.45
653.301	8623.31
653.494	8637.65
653.686	8441.04
653.879	8639.7
654.071	8617.17
654.263	8498.39
654.456	8508.63
654.648	8422.61
654.84	8246.49
655.033	8400.09
655.225	8303.83
655.417	8178.9
655.61	8197.34
655.802	8193.24
655.994	7840.99
656.186	7918.81
656.379	7961.82
656.571	8043.74
656.763	7918.81
656.955	7689.44
657.148	7912.67
657.34	7671.01
657.532	7685.34
657.724	7693.54
657.916	7679.2
658.108	7644.38
658.3	7505.12
658.492	7496.93
658.684	7283.94
658.876	7460.07
659.068	7273.7
659.26	7177.45
659.452	7408.87
659.644	7238.89
659.836	7120.1
660.028	7279.85
660.22	7126.25
660.412	7343.33
660.604	7021.8
660.796	7126.25
660.988	7001.32
661.18	7017.71
661.372	6964.46
661.563	6911.21
661.755	6782.19
661.947	7003.37
662.139	6860.01
662.331	6866.16
662.522	6599.92
662.714	6583.54
662.906	6671.6
663.097	6655.22
663.289	6675.7
663.481	6690.03
663.673	6532.34
663.864	6468.85
664.056	6440.18
664.247	6528.24
664.439	6302.97
664.631	6337.78
664.822	6288.63
665.014	6331.64
665.205	6380.79
665.397	6089.98
665.588	6259.96
665.78	6155.51
665.971	6206.71
666.163	6190.33
666.354	6077.69
666.546	6139.13
666.737	5983.48
666.929	5846.27
667.12	6069.5
667.311	5977.34
667.503	5940.47
667.694	5948.67
667.885	5743.87
668.077	5891.32
668.268	5852.41
668.459	5827.84
668.651	5833.98
668.842	5739.77
669.033	5879.04
669.224	5838.08
669.416	5940.47
669.607	5686.53
669.798	5758.21
669.989	5700.86
670.18	5690.62
670.371	5629.18
670.563	5688.57
670.754	5498.11
670.945	5627.14
671.136	5643.52
671.327	5444.87
671.518	5393.67
671.709	5360.9
671.9	5655.81
672.091	5471.49
672.282	5336.32
672.473	5356.8
672.664	5401.86
672.855	5444.87
673.046	5371.14
673.237	5444.87
673.428	5358.85
673.619	5383.43
673.809	5369.09
674	5375.24
674.191	5326.08
674.382	5133.57
674.573	5317.89
674.764	5498.11
674.954	5258.5
675.145	5268.74
675.336	5332.23
675.527	5100.81
675.717	5207.3
675.908	5154.05
676.099	5135.62
676.289	5180.68
676.48	5061.9
676.671	5145.86
676.861	4961.55
677.052	4963.59
677.243	5010.7
677.433	4975.88
677.624	5133.57
677.814	5242.12
678.005	5037.32
678.195	5014.79
678.386	5049.61
678.576	4965.64
678.767	5022.98
678.957	4977.93
679.148	4994.31
679.338	5043.46
679.529	4926.73
679.719	4977.93
679.909	5104.9
680.1	4953.35
680.29	4953.35
680.481	4975.88
680.671	4875.53
680.861	4820.24
681.052	4932.87
681.242	4861.2
681.432	5070.09
681.622	4945.16
681.813	5008.65
682.003	4879.63
682.193	4738.32
682.383	5006.6
682.573	4853
682.764	5205.25
682.954	4986.12
683.144	4846.86
683.334	4855.05
683.524	4963.59
683.714	4918.54
683.904	4789.52
684.094	4973.83
684.284	4791.56
684.474	4883.72
684.664	4777.23
684.854	4910.35
685.044	4943.11
685.234	4715.79
685.424	4662.54
685.614	4889.87
685.804	4822.28
685.994	4740.36
686.184	4586.77
686.374	4791.56
686.564	4701.45
686.753	4789.52
686.943	4615.44
687.133	4730.13
687.323	4611.34
687.513	4670.73
687.702	4535.57
687.892	4560.14
688.082	4566.29
688.272	4418.83
688.461	4510.99
688.651	4519.18
688.841	4545.81
689.03	4445.46
689.22	4420.88
689.41	4564.24
689.599	4435.22
689.789	4326.68
689.979	4465.94
690.168	4197.65
690.358	4447.51
690.547	4236.56
690.737	4480.27
690.926	4381.97
691.116	4181.27
691.305	4429.07
691.495	4226.32
691.684	4191.51
691.874	4214.04
692.063	4156.69
692.252	4326.68
692.442	4277.52
692.631	4185.37
692.82	4183.32
693.01	4046.1
693.199	4205.85
693.388	4115.73
693.578	4121.88
693.767	4209.94
693.956	4166.93
694.146	4019.48
694.335	4082.97
694.524	3892.51
694.713	4103.45
694.902	4058.39
695.092	4031.77
695.281	4152.6
695.47	4019.48
695.659	3880.22
695.848	3888.41
696.037	4039.96
696.226	4021.53
696.415	3949.85
696.604	4033.82
696.793	3921.18
696.982	3970.33
697.171	4019.48
697.36	3872.03
697.549	3892.51
697.738	3872.03
697.927	3896.6
698.116	3966.23
698.305	3796.25
698.494	3876.12
698.683	3796.25
698.872	3843.35
699.061	3806.49
699.25	3923.23
699.438	3783.96
699.627	3829.02
699.816	4007.19
700.005	3853.59
700.193	3892.51
700.382	3831.07
700.571	3880.22
700.76	3908.89
700.948	3855.64
701.137	4007.19
701.326	3845.4
701.514	3794.2
701.703	3810.59
701.892	3919.13
702.08	3863.83
702.269	3839.26
702.457	3820.83
702.646	3964.18
702.834	3738.91
703.023	3812.64
703.212	3675.42
703.4	3769.63
703.589	3675.42
703.777	3894.55
703.965	3689.76
704.154	3790.11
704.342	3792.16
704.531	3845.4
704.719	3656.99
704.907	3829.02
705.096	3613.98
705.284	3880.22
705.472	3548.45
705.661	3839.26
705.849	3812.64
706.037	3710.24
706.226	3769.63
706.414	3876.12
706.602	3730.72
706.79	3722.52
706.979	3650.85
707.167	3749.15
707.355	3687.71
707.543	3722.52
707.731	3722.52
707.919	3802.4
708.107	3704.09
708.296	3704.09
708.484	3833.11
708.672	3845.4
708.86	3743
709.048	3792.16
709.236	3695.9
709.424	3806.49
709.612	3786.01
709.8	3765.53
709.988	3816.73
710.176	3697.95
710.364	3745.05
710.551	3792.16
710.739	3800.35
710.927	3872.03
711.115	3601.69
711.303	3839.26
711.491	3740.96
711.679	3740.96
711.866	3759.39
712.054	3872.03
712.242	3595.55
712.43	3745.05
712.617	3779.87
712.805	3618.08
712.993	3710.24
713.181	3779.87
713.368	3775.77
713.556	3798.3
713.744	3740.96
713.931	3718.43
714.119	3700
714.306	3822.88
714.494	3743
714.682	3626.27
714.869	3628.32
715.057	3716.38
715.244	3663.13
715.432	3779.87
715.619	3702.04
715.807	3734.81
715.994	3659.04
716.182	3724.57
716.369	3652.89
716.556	3769.63
716.744	3714.33
716.931	3712.28
717.119	3656.99
717.306	3697.95
717.493	3695.9
717.681	3788.06
717.868	3652.89
718.055	3675.42
718.242	3714.33
718.43	3630.37
718.617	3579.17
718.804	3544.35
718.991	3720.48
719.179	3728.67
719.366	3712.28
719.553	3804.44
719.74	3669.28
719.927	3626.27
720.114	3620.13
720.301	3611.93
720.488	3646.75
720.676	3679.52
720.863	3665.18
721.05	3566.88
721.237	3691.81
721.424	3734.81
721.611	3738.91
721.798	3654.94
721.985	3568.93
722.172	3568.93
722.358	3491.1
722.545	3654.94
722.732	3552.54
722.919	3714.33
723.106	3693.85
723.293	3515.68
723.48	3597.6
723.667	3564.83
723.853	3667.23
724.04	3575.07
724.227	3667.23
724.414	3577.12
724.6	3509.54
724.787	3601.69
724.974	3634.46
725.161	3530.02
725.347	3534.11
725.534	3538.21
725.72	3495.2
725.907	3579.17
726.094	3740.96
726.28	3566.88
726.467	3470.62
726.653	3583.26
726.84	3446.05
727.027	3732.76
727.213	3499.3
727.4	3386.66
727.586	3450.14
727.773	3564.83
727.959	3470.62
728.145	3482.91
728.332	3511.58
728.518	3384.61
728.705	3427.62
728.891	3640.61
729.077	3482.91
729.264	3482.91
729.45	3480.86
729.636	3575.07
729.823	3460.38
730.009	3554.59
730.195	3448.1
730.382	3437.86
730.568	3413.28
730.754	3527.97
730.94	3470.62
731.126	3519.78
731.313	3532.06
731.499	3476.77
731.685	3325.22
731.871	3319.07
732.057	3497.25
732.243	3390.75
732.429	3470.62
732.615	3507.49
732.801	3403.04
732.987	3466.53
733.173	3374.37
733.359	3331.36
733.545	3206.44
733.731	3388.71
733.917	3239.2
734.103	3419.43
734.289	3319.07
734.475	3263.78
734.661	3374.37
734.847	3134.76
735.033	3384.61
735.219	3433.76
735.404	3398.95
735.59	3306.79
735.776	3265.83
735.962	3210.53
736.148	3278.12
736.333	3163.43
736.519	3304.74
736.705	3306.79
736.89	3271.97
737.076	3171.62
737.262	3224.87
737.447	3188
737.633	3200.29
737.819	3226.92
738.004	3177.76
738.19	3202.34
738.375	3261.73
738.561	3126.57
738.747	3181.86
738.932	3104.04
739.118	3175.72
739.303	3122.47
739.489	3101.99
739.674	2999.59
739.859	3026.22
740.045	3015.98
740.23	3206.44
740.416	2889
740.601	3079.46
740.786	3122.47
740.972	2927.91
741.157	3050.79
741.342	3083.56
741.528	2983.21
741.713	3044.65
741.898	2977.06
742.084	3050.79
742.269	2897.19
742.454	2944.3
742.639	2979.11
742.824	2905.39
743.01	2850.09
743.195	2997.54
743.38	2905.39
743.565	2848.04
743.75	2936.1
743.935	2850.09
744.12	3011.88
744.305	2841.9
744.49	2862.38
744.675	2798.89
744.86	2882.86
745.045	2796.84
745.23	2796.84
745.415	2616.62
745.6	2663.72
745.785	2678.06
745.97	2815.27
746.155	2692.4
746.34	2739.5
746.525	2676.01
746.71	2712.88
746.895	2555.18
747.079	2661.68
747.264	2458.93
747.449	2518.32
747.634	2579.76
747.819	2643.24
748.003	2471.22
748.188	2606.38
748.373	2555.18
748.557	2387.25
748.742	2438.45
748.927	2485.55
749.111	2456.88
749.296	2430.26
749.481	2401.58
749.665	2381.11
749.85	2342.19
750.034	2256.18
750.219	2331.95
750.404	2411.82
750.588	2133.3
750.773	2243.89
750.957	2231.6
751.141	2268.47
751.326	2293.04
751.51	2293.04
751.695	2233.65
751.879	2168.12
752.064	2235.7
752.248	2204.98
752.432	2229.56
752.617	2135.35
752.801	2100.53
752.985	2045.24
753.17	2043.19
753.354	2127.16
753.538	2180.4
753.722	2012.47
753.907	2055.48
754.091	1887.54
754.275	1959.22
754.459	2004.28
754.643	1920.31
754.828	1987.89
755.012	1979.7
755.196	1813.82
755.38	1844.54
755.564	1840.44
755.748	1891.64
755.932	1738.04
756.116	1893.69
756.3	1852.73
756.484	1744.19
756.668	1758.52
756.852	1690.94
757.036	1801.53
757.22	1760.57
757.404	1783.1
757.588	1779
757.772	1715.52
757.956	1856.83
758.14	1674.56
758.323	1596.73
758.507	1742.14
758.691	1676.6
758.875	1674.56
759.059	1600.83
759.242	1664.32
759.426	1535.29
759.61	1537.34
759.794	1578.3
759.977	1547.58
760.161	1570.11
760.345	1637.69
760.528	1635.64
760.712	1445.18
760.895	1549.63
761.079	1529.15
761.263	1555.77
761.446	1529.15
761.63	1543.49
761.813	1561.92
761.997	1600.83
762.18	1443.14
762.364	1527.1
762.547	1359.17
762.731	1498.43
762.914	1391.94
763.098	1350.98
763.281	1332.55
763.464	1430.85
763.648	1422.66
763.831	1432.9
764.015	1449.28
764.198	1396.03
764.381	1389.89
764.564	1330.5
764.748	1393.98
764.931	1246.53
765.114	1361.22
765.297	1459.52
765.481	1299.78
765.664	1426.75
765.847	1336.64
766.03	1305.92
766.213	1234.24
766.397	1287.49
766.58	1324.35
766.763	1324.35
766.946	1350.98
767.129	1254.72
767.312	1258.82
767.495	1148.23
767.678	1238.34
767.861	1287.49
768.044	1230.15
768.227	1203.52
768.41	1205.57
768.593	1240.39
768.776	1299.78
768.959	1234.24
769.142	1199.43
769.324	1234.24
769.507	1209.67
769.69	1238.34
769.873	1228.1
770.056	1166.66
770.239	1148.23
770.421	1248.58
770.604	1086.79
770.787	1142.08
770.97	1176.9
771.152	1135.94
771.335	1170.76
771.518	1156.42
771.7	1215.81
771.883	1121.6
772.066	1051.97
772.248	1127.75
772.431	1039.69
772.613	1074.5
772.796	1144.13
772.978	1082.69
773.161	1133.89
773.343	1062.21
773.526	1066.31
773.708	968.01
773.891	1025.35
774.073	1035.59
774.256	1027.4
774.438	1045.83
774.621	1076.55
774.803	1002.82
774.985	1066.31
775.168	931.14
775.35	996.68
775.532	955.72
775.715	996.68
775.897	1019.21
776.079	953.67
776.261	871.75
776.444	1000.77
776.626	918.86
776.808	929.1
776.99	861.51
777.173	775.5
777.355	869.7
777.537	898.38
777.719	857.42
777.901	851.27
778.083	814.41
778.265	855.37
778.447	970.05
778.629	851.27
778.811	812.36
778.993	734.54
779.175	812.36
779.357	867.66
779.539	845.13
779.721	818.5
779.903	849.22
780.085	746.83
780.267	742.73
780.449	873.8
780.631	800.07
780.812	738.63
780.994	736.59
781.176	734.54
781.358	755.02
781.54	742.73
781.721	748.87
781.903	769.35
782.085	685.39
782.267	720.2
782.448	642.38
782.63	632.14
782.812	699.72
782.993	716.11
783.175	699.72
783.357	677.2
783.538	671.05
783.72	656.72
783.901	623.95
784.083	697.67
784.264	697.67
784.446	603.47
784.627	623.95
784.809	662.86
784.99	658.76
785.172	595.28
785.353	580.94
785.535	599.37
785.716	521.55
785.897	501.07
786.079	515.41
786.26	591.18
786.441	519.5
786.623	556.36
786.804	566.6
786.985	529.74
787.167	550.22
787.348	533.84
787.529	492.88
787.71	585.04
787.891	542.03
788.073	480.59
788.254	562.51
788.435	492.88
788.616	566.6
788.797	486.73
788.978	527.69
789.159	464.21
789.34	505.17
789.522	519.5
789.703	447.82
789.884	531.79
790.065	443.73
790.246	513.36
790.427	445.77
790.607	496.97
790.788	492.88
790.969	439.63
791.15	486.73
791.331	480.59
791.512	445.77
791.693	503.12
791.874	421.2
792.054	443.73
792.235	486.73
792.416	431.44
792.597	439.63
792.778	410.96
792.958	439.63
793.139	406.86
793.32	419.15
793.5	456.01
793.681	453.97
793.862	429.39
794.042	374.1
794.223	339.28
794.404	378.19
794.584	372.05
794.765	423.25
794.945	374.1
795.126	441.68
795.306	443.73
795.487	415.06
795.667	339.28
795.848	343.38
796.028	365.9
796.209	308.56
796.389	427.34
796.57	320.85
796.75	363.86
796.93	306.51
797.111	312.66
797.291	302.42
797.471	326.99
797.652	417.1
797.832	324.94
798.012	357.71
798.192	251.22
798.373	267.6
798.553	320.85
798.733	423.25
798.913	279.89
799.093	345.42
799.274	312.66
799.454	259.41
799.634	464.21
799.814	351.57
799.994	370
800.174	347.47
800.354	357.71
800.534	263.51
800.714	380.24
800.894	312.66
801.074	185.68
801.254	322.9
801.434	355.66
801.614	189.78
801.794	298.32
801.974	791.88
802.154	349.52
802.334	322.9
802.514	279.89
802.693	347.47
802.873	339.28
803.053	308.56
803.233	398.67
803.413	265.55
803.592	314.7
803.772	261.46
803.952	329.04
804.131	247.12
804.311	347.47
804.491	267.6
804.67	341.33
804.85	222.55
805.03	290.13
805.209	296.27
805.389	283.99
805.568	294.22
805.748	165.2
805.928	240.98
806.107	230.74
806.287	204.11
806.466	372.05
806.646	267.6
806.825	314.7
807.004	236.88
807.184	324.94
807.363	296.27
807.543	283.99
807.722	175.44
807.901	265.55
808.081	283.99
808.26	200.02
808.439	240.98
808.619	230.74
808.798	183.63
808.977	228.69
809.156	253.27
809.336	206.16
809.515	255.31
809.694	208.21
809.873	218.45
810.052	255.31
810.231	273.75
810.411	152.92
810.59	183.63
810.769	224.59
810.948	165.2
811.127	126.29
811.306	128.34
811.485	157.01
811.664	304.46
811.843	218.45
812.022	257.36
812.201	161.11
812.38	179.54
812.559	220.5
812.737	249.17
812.916	140.63
813.095	191.83
813.274	193.87
813.453	181.59
813.632	222.55
813.811	236.88
813.989	114
814.168	189.78
814.347	210.26
814.526	163.15
814.704	214.35
814.883	206.16
815.062	189.78
815.24	230.74
815.419	197.97
815.598	214.35
815.776	193.87
815.955	189.78
816.133	167.25
816.312	146.77
816.49	152.92
816.669	236.88
816.847	165.2
817.026	191.83
817.204	159.06
817.383	208.21
817.561	126.29
817.74	169.3
817.918	318.8
818.097	236.88
818.275	167.25
818.453	181.59
818.632	238.93
818.81	218.45
818.988	124.24
819.167	161.11
819.345	165.2
819.523	224.59
819.701	175.44
819.879	214.35
820.058	136.53
820.236	175.44
820.414	138.58
820.592	146.77
820.77	161.11
820.948	200.02
821.127	87.38
821.305	220.5
821.483	118.1
821.661	185.68
821.839	157.01
822.017	103.76
822.195	109.91
822.373	138.58
822.551	120.15
822.729	159.06
822.907	202.07
823.085	165.2
823.262	105.81
823.44	140.63
823.618	146.77
823.796	142.68
823.974	85.33
824.152	124.24
824.329	179.54
824.507	144.72
824.685	118.1
824.863	64.85
825.04	159.06
825.218	171.35
825.396	146.77
825.574	120.15
825.751	91.48
825.929	173.39
826.107	138.58
826.284	99.67
826.462	159.06
826.639	99.67
826.817	95.57
826.994	152.92
827.172	93.52
827.349	152.92
827.527	159.06
827.704	163.15
827.882	93.52
828.059	101.72
828.237	134.48
828.414	202.07
828.591	95.57
828.769	136.53
828.946	107.86
829.124	142.68
829.301	175.44
829.478	62.8
829.655	85.33
829.833	134.48
830.01	64.85
830.187	163.15
830.364	114
830.542	105.81
830.719	138.58
830.896	107.86
831.073	105.81
831.25	81.24
831.427	99.67
831.604	111.96
831.782	93.52
831.959	87.38
832.136	140.63
832.313	142.68
832.49	103.76
832.667	128.34
832.844	101.72
833.021	154.96
833.198	169.3
833.374	183.63
833.551	116.05
833.728	27.99
833.905	111.96
834.082	91.48
834.259	128.34
834.436	130.39
834.612	144.72
834.789	118.1
834.966	77.14
835.143	163.15
835.319	144.72
835.496	109.91
835.673	128.34
835.85	75.09
836.026	46.42
836.203	107.86
836.38	89.43
836.556	73.04
836.733	126.29
836.909	111.96
837.086	34.13
837.262	75.09
837.439	71
837.616	128.34
837.792	134.48
837.968	134.48
838.145	-25.26
838.321	62.8
838.498	75.09
838.674	128.34
838.851	7.51
839.027	87.38
839.203	175.44
839.38	46.42
839.556	77.14
839.732	64.85
839.909	54.61
840.085	101.72
840.261	52.56
840.437	85.33
840.614	101.72
840.79	91.48
840.966	111.96
841.142	89.43
841.318	87.38
841.494	114
841.671	146.77
841.847	52.56
842.023	46.42
842.199	120.15
842.375	111.96
842.551	91.48
842.727	75.09
842.903	68.95
843.079	68.95
843.255	75.09
843.431	68.95
843.607	111.96
843.783	-15.02
843.959	46.42
844.134	87.38
844.31	126.29
844.486	54.61
844.662	95.57
844.838	87.38
845.013	81.24
845.189	87.38
845.365	91.48
845.541	-2.73
845.716	56.66
845.892	11.61
846.068	91.48
846.244	3.41
846.419	15.7
846.595	97.62
846.77	68.95
846.946	77.14
847.122	130.39
847.297	-33.45
847.473	214.35
847.648	46.42
847.824	79.19
847.999	-10.92
848.175	81.24
848.35	77.14
848.526	132.44
848.701	11.61
848.876	48.47
849.052	101.72
849.227	46.42
849.403	30.04
849.578	68.95
849.753	60.76
849.929	101.72
850.104	77.14
850.279	32.08
850.454	-72.36
850.63	66.9
850.805	34.13
850.98	9.56
851.155	56.66
851.33	-6.83
851.505	52.56
851.681	85.33
851.856	42.32
852.031	105.81
852.206	64.85
852.381	56.66
852.556	54.61
852.731	124.24
852.906	79.19
853.081	87.38
853.256	58.71
853.431	85.33
853.606	44.37
853.781	-6.83
853.956	9.56
854.131	56.66
854.305	40.28
854.48	54.61
854.655	5.46
854.83	44.37
855.005	27.99
855.18	46.42
855.354	48.47
855.529	75.09
855.704	-8.87
855.879	126.29
856.053	111.96
856.228	1.37
856.403	64.85
856.577	66.9
856.752	-0.68
856.926	60.76
857.101	85.33
857.276	32.08
857.45	46.42
857.625	34.13
857.799	44.37
857.974	17.75
858.148	3.41
858.323	66.9
858.497	62.8
858.672	-0.68
858.846	-12.97
859.02	85.33
859.195	38.23
859.369	30.04
859.543	5.46
859.718	56.66
859.892	-6.83
860.066	56.66
860.241	-15.02
860.415	64.85
860.589	54.61
860.763	17.75
860.938	60.76
861.112	62.8
861.286	-60.07
861.46	11.61
861.634	-10.92
861.808	19.8
861.982	-29.35
862.157	-17.07
862.331	79.19
862.505	21.85
862.679	1.37
862.853	34.13
863.027	68.95
863.201	85.33
863.375	-29.35
863.549	66.9
863.722	-53.93
863.896	42.32
864.07	66.9
864.244	118.1
864.418	25.94
864.592	-2.73
864.766	19.8
864.939	91.48
865.113	66.9
865.287	81.24
865.461	15.7
865.634	75.09
865.808	27.99
865.982	-45.74
866.156	21.85
866.329	-19.11
866.503	1.37
866.676	44.37
866.85	44.37
867.024	42.32
867.197	13.65
867.371	11.61
867.544	103.76
867.718	-33.45
867.891	68.95
868.065	-72.36
868.238	11.61
868.412	7.51
868.585	-55.98
868.759	7.51
868.932	-25.26
869.105	60.76
869.279	48.47
869.452	25.94
869.625	75.09
869.799	56.66
869.972	-2.73
870.145	-6.83
870.319	116.05
870.492	71
870.665	-4.78
870.838	15.7
871.011	15.7
871.185	-10.92
871.358	66.9
871.531	50.52
871.704	38.23
871.877	36.18
872.05	-25.26
872.223	-2.73
872.396	71
872.569	-6.83
872.742	44.37
872.915	50.52
873.088	44.37
873.261	-17.07
873.434	66.9
873.607	7.51
873.78	21.85
873.953	38.23
874.126	-4.78
874.299	97.62
874.471	23.89
874.644	-19.11
874.817	30.04
874.99	101.72
875.163	-25.26
875.335	73.04
875.508	46.42
875.681	25.94
875.853	19.8
876.026	25.94
876.199	58.71
876.371	73.04
876.544	32.08
876.717	-0.68
876.889	21.85
877.062	-17.07
877.234	25.94
877.407	3.41
877.579	34.13
877.752	46.42
877.924	19.8
878.097	25.94
878.269	-6.83
878.442	77.14
878.614	-35.5
878.786	34.13
878.959	-29.35
879.131	-33.45
879.303	-0.68
879.476	83.28
879.648	21.85
879.82	87.38
879.993	-15.02
880.165	48.47
880.337	-27.31
880.509	-10.92
880.681	1.37
880.854	-17.07
881.026	30.04
881.198	73.04
881.37	36.18
881.542	-47.79
881.714	44.37
881.886	32.08
882.058	17.75
882.23	3.41
882.402	-10.92
882.574	40.28
882.746	-8.87
882.918	71
883.09	21.85
883.262	103.76
883.434	11.61
883.606	-19.11
883.778	13.65
883.95	15.7
884.122	38.23
884.293	1.37
884.465	68.95
884.637	99.67
884.809	-51.88
884.98	27.99
885.152	-2.73
885.324	38.23
885.496	66.9
885.667	15.7
885.839	9.56
886.011	73.04
886.182	48.47
886.354	30.04
886.525	60.76
886.697	25.94
886.869	95.57
887.04	46.42
887.212	-12.97
887.383	64.85
887.555	48.47
887.726	-23.21
887.897	40.28
888.069	-37.55
888.24	-17.07
888.412	-10.92
888.583	-15.02
888.754	3.41
888.926	-58.03
889.097	-27.31
889.268	-64.17
889.44	-6.83
889.611	-35.5
889.782	54.61
889.953	-25.26
890.125	99.67
890.296	-27.31
890.467	-4.78
890.638	-53.93
890.809	34.13
890.98	-33.45
891.151	-31.4
891.323	-12.97
891.494	-41.64
891.665	25.94
891.836	-68.27
892.007	-33.45
892.178	46.42
892.349	77.14
892.52	-12.97
892.691	3.41
892.862	1.37
893.032	-4.78
893.203	-15.02
893.374	83.28
893.545	7.51
893.716	-35.5
893.887	62.8
894.057	1.37
894.228	-31.4
894.399	-6.83
894.57	-41.64
894.74	13.65
894.911	36.18
895.082	46.42
895.253	-10.92
895.423	30.04
895.594	25.94
895.764	5.46
895.935	17.75
896.106	-6.83
896.276	36.18
896.447	3.41
896.617	-10.92
896.788	9.56
896.958	21.85
897.129	-19.11
897.299	-109.22
897.47	13.65
897.64	62.8
897.81	-39.59
897.981	30.04
898.151	32.08
898.322	-82.6
898.492	-33.45
898.662	-58.03
898.832	-51.88
899.003	21.85
899.173	95.57
899.343	-17.07
899.513	-47.79
