Data from USB4F104151__176__10-27-48-737.txt Node

Date: Wed Mar 12 10:27:48 EDT 2025
User: louis
Spectrometer: USB4F10415
Trigger mode: 4
Integration Time (sec): 3.000000E-2
Scans to average: 1
Electric dark correction enabled: true
Nonlinearity correction enabled: false
Boxcar width: 0
XAxis mode: Wavelengths
Number of Pixels in Spectrum: 3648
>>>>>Begin Spectral Data<<<<<
178.204	-126.97
178.424	-126.97
178.644	-126.97
178.864	-120.83
179.084	-124.93
179.304	-10.24
179.524	-30.72
179.744	53.25
179.964	18.43
180.184	-16.38
180.404	-55.3
180.624	10.24
180.844	81.92
181.064	-65.54
181.283	-8.19
181.503	-20.48
181.723	43.01
181.943	-14.34
182.163	6.14
182.383	67.58
182.602	-2.05
182.822	69.63
183.042	92.16
183.262	-18.43
183.482	45.06
183.701	47.1
183.921	-18.43
184.141	-10.24
184.361	38.91
184.58	-2.05
184.8	4.1
185.02	16.38
185.239	24.58
185.459	36.86
185.679	4.1
185.898	12.29
186.118	69.63
186.338	55.3
186.557	-8.19
186.777	-36.86
186.997	-22.53
187.216	55.3
187.436	100.35
187.655	20.48
187.875	67.58
188.095	18.43
188.314	88.06
188.534	73.73
188.753	-8.19
188.973	-4.1
189.192	69.63
189.412	36.86
189.631	-6.14
189.851	63.49
190.07	73.73
190.29	-53.25
190.509	45.06
190.729	108.54
190.948	61.44
191.168	122.88
191.387	57.34
191.607	18.43
191.826	30.72
192.045	-4.1
192.265	-38.91
192.484	22.53
192.704	88.06
192.923	-22.53
193.142	28.67
193.362	86.01
193.581	32.77
193.8	53.25
194.02	75.77
194.239	-14.34
194.458	51.2
194.678	-16.38
194.897	12.29
195.116	45.06
195.335	38.91
195.555	6.14
195.774	24.58
195.993	18.43
196.212	59.39
196.432	-10.24
196.651	-51.2
196.87	-2.05
197.089	79.87
197.308	-34.82
197.528	34.82
197.747	-20.48
197.966	47.1
198.185	77.82
198.404	-81.92
198.623	28.67
198.842	6.14
199.062	57.34
199.281	71.68
199.5	28.67
199.719	108.54
199.938	4.1
200.157	83.97
200.376	6.14
200.595	-18.43
200.814	20.48
201.033	108.54
201.252	12.29
201.471	28.67
201.69	-4.1
201.909	96.25
202.128	30.72
202.347	38.91
202.566	-2.05
202.785	67.58
203.004	-2.05
203.223	124.93
203.442	57.34
203.661	14.34
203.879	-2.05
204.098	59.39
204.317	22.53
204.536	34.82
204.755	8.19
204.974	20.48
205.193	-6.14
205.411	92.16
205.63	28.67
205.849	63.49
206.068	22.53
206.287	28.67
206.505	55.3
206.724	-4.1
206.943	30.72
207.162	4.1
207.381	-8.19
207.599	-12.29
207.818	88.06
208.037	16.38
208.255	-18.43
208.474	-59.39
208.693	38.91
208.911	30.72
209.13	10.24
209.349	-2.05
209.567	79.87
209.786	67.58
210.005	61.44
210.223	-4.1
210.442	-6.14
210.661	10.24
210.879	57.34
211.098	-83.97
211.316	-18.43
211.535	18.43
211.753	26.62
211.972	61.44
212.191	-10.24
212.409	-0
212.628	-6.14
212.846	28.67
213.065	-38.91
213.283	18.43
213.502	63.49
213.72	-14.34
213.938	-18.43
214.157	-22.53
214.375	49.15
214.594	-26.62
214.812	-2.05
215.031	20.48
215.249	-45.06
215.467	-4.1
215.686	51.2
215.904	24.58
216.122	18.43
216.341	6.14
216.559	67.58
216.778	116.73
216.996	79.87
217.214	63.49
217.432	-43.01
217.651	-30.72
217.869	12.29
218.087	10.24
218.306	22.53
218.524	40.96
218.742	47.1
218.96	14.34
219.179	-18.43
219.397	59.39
219.615	73.73
219.833	10.24
220.051	28.67
220.27	-12.29
220.488	-16.38
220.706	26.62
220.924	38.91
221.142	86.01
221.36	10.24
221.578	-18.43
221.796	14.34
222.015	-20.48
222.233	-43.01
222.451	92.16
222.669	63.49
222.887	16.38
223.105	88.06
223.323	45.06
223.541	2.05
223.759	77.82
223.977	-38.91
224.195	116.73
224.413	26.62
224.631	45.06
224.849	4.1
225.067	108.54
225.285	67.58
225.503	49.15
225.721	-67.58
225.939	-0
226.157	16.38
226.375	63.49
226.592	-6.14
226.81	38.91
227.028	100.35
227.246	24.58
227.464	36.86
227.682	81.92
227.9	38.91
228.117	67.58
228.335	45.06
228.553	6.14
228.771	20.48
228.989	63.49
229.206	-2.05
229.424	81.92
229.642	-47.1
229.86	-6.14
230.077	34.82
230.295	-26.62
230.513	2.05
230.731	47.1
230.948	100.35
231.166	79.87
231.384	40.96
231.601	43.01
231.819	120.83
232.037	18.43
232.254	4.1
232.472	-10.24
232.689	-18.43
232.907	86.01
233.125	-6.14
233.342	16.38
233.56	10.24
233.777	30.72
233.995	-63.49
234.213	79.87
234.43	77.82
234.648	4.1
234.865	-22.53
235.083	96.25
235.3	59.39
235.518	43.01
235.735	-2.05
235.953	43.01
236.17	77.82
236.388	38.91
236.605	38.91
236.822	6.14
237.04	20.48
237.257	-32.77
237.475	-2.05
237.692	47.1
237.909	-18.43
238.127	104.45
238.344	-12.29
238.562	47.1
238.779	14.34
238.996	-43.01
239.214	-10.24
239.431	16.38
239.648	-20.48
239.865	47.1
240.083	112.64
240.3	18.43
240.517	40.96
240.735	47.1
240.952	12.29
241.169	-10.24
241.386	2.05
241.603	-59.39
241.821	2.05
242.038	32.77
242.255	-4.1
242.472	-47.1
242.689	-0
242.907	40.96
243.124	43.01
243.341	26.62
243.558	-10.24
243.775	26.62
243.992	-34.82
244.209	96.25
244.426	59.39
244.643	30.72
244.86	49.15
245.078	18.43
245.295	14.34
245.512	45.06
245.729	-8.19
245.946	38.91
246.163	45.06
246.38	-10.24
246.597	-0
246.814	4.1
247.031	67.58
247.248	38.91
247.464	55.3
247.681	-22.53
247.898	-4.1
248.115	-22.53
248.332	34.82
248.549	26.62
248.766	-2.05
248.983	24.58
249.2	-40.96
249.417	30.72
249.633	22.53
249.85	36.86
250.067	-32.77
250.284	-30.72
250.501	49.15
250.717	8.19
250.934	18.43
251.151	8.19
251.368	63.49
251.585	45.06
251.801	4.1
252.018	-26.62
252.235	43.01
252.451	-6.14
252.668	-4.1
252.885	45.06
253.102	-14.34
253.318	-30.72
253.535	18.43
253.752	-2.05
253.968	-26.62
254.185	-0
254.401	-57.34
254.618	63.49
254.835	-22.53
255.051	24.58
255.268	38.91
255.484	43.01
255.701	24.58
255.917	75.77
256.134	-77.82
256.351	8.19
256.567	-22.53
256.784	-14.34
257	-43.01
257.217	-2.05
257.433	8.19
257.65	73.73
257.866	45.06
258.082	47.1
258.299	-65.54
258.515	14.34
258.732	83.97
258.948	51.2
259.165	94.21
259.381	-8.19
259.597	36.86
259.814	-55.3
260.03	20.48
260.246	8.19
260.463	40.96
260.679	28.67
260.895	-26.62
261.112	77.82
261.328	-22.53
261.544	-10.24
261.761	100.35
261.977	22.53
262.193	-30.72
262.409	-0
262.626	77.82
262.842	-2.05
263.058	16.38
263.274	10.24
263.49	34.82
263.707	30.72
263.923	-10.24
264.139	47.1
264.355	32.77
264.571	14.34
264.787	20.48
265.004	38.91
265.22	36.86
265.436	47.1
265.652	-4.1
265.868	38.91
266.084	47.1
266.3	30.72
266.516	-57.34
266.732	12.29
266.948	-28.67
267.164	22.53
267.38	61.44
267.596	47.1
267.812	108.54
268.028	55.3
268.244	-71.68
268.46	-26.62
268.676	20.48
268.892	-8.19
269.108	45.06
269.324	-75.77
269.54	32.77
269.756	94.21
269.972	-43.01
270.188	-10.24
270.403	4.1
270.619	45.06
270.835	-2.05
271.051	-61.44
271.267	-14.34
271.483	-6.14
271.698	14.34
271.914	-4.1
272.13	10.24
272.346	30.72
272.562	120.83
272.777	-2.05
272.993	55.3
273.209	47.1
273.425	73.73
273.64	-24.58
273.856	38.91
274.072	45.06
274.287	26.62
274.503	-12.29
274.719	12.29
274.934	38.91
275.15	34.82
275.366	83.97
275.581	-14.34
275.797	-16.38
276.012	32.77
276.228	32.77
276.444	26.62
276.659	28.67
276.875	2.05
277.09	47.1
277.306	6.14
277.521	4.1
277.737	30.72
277.952	-0
278.168	43.01
278.383	28.67
278.599	47.1
278.814	-10.24
279.03	-20.48
279.245	-2.05
279.461	-34.82
279.676	22.53
279.892	-14.34
280.107	-10.24
280.322	-26.62
280.538	2.05
280.753	-18.43
280.969	61.44
281.184	38.91
281.399	26.62
281.615	47.1
281.83	-36.86
282.045	-20.48
282.26	-14.34
282.476	-28.67
282.691	-18.43
282.906	28.67
283.122	28.67
283.337	14.34
283.552	63.49
283.767	18.43
283.983	75.77
284.198	-28.67
284.413	53.25
284.628	24.58
284.843	-18.43
285.058	30.72
285.274	32.77
285.489	-8.19
285.704	49.15
285.919	12.29
286.134	-34.82
286.349	26.62
286.564	59.39
286.779	43.01
286.995	22.53
287.21	-55.3
287.425	-30.72
287.64	-24.58
287.855	6.14
288.07	-67.58
288.285	-47.1
288.5	94.21
288.715	43.01
288.93	-2.05
289.145	34.82
289.36	69.63
289.575	8.19
289.79	116.73
290.004	-28.67
290.219	55.3
290.434	47.1
290.649	18.43
290.864	4.1
291.079	28.67
291.294	53.25
291.509	79.87
291.724	77.82
291.938	14.34
292.153	-18.43
292.368	8.19
292.583	-47.1
292.798	6.14
293.012	26.62
293.227	-61.44
293.442	73.73
293.657	20.48
293.871	47.1
294.086	10.24
294.301	12.29
294.516	79.87
294.73	108.54
294.945	45.06
295.16	10.24
295.374	63.49
295.589	-6.14
295.804	16.38
296.018	22.53
296.233	55.3
296.447	96.25
296.662	43.01
296.877	-12.29
297.091	47.1
297.306	47.1
297.52	59.39
297.735	94.21
297.949	69.63
298.164	81.92
298.378	-51.2
298.593	8.19
298.807	-2.05
299.022	-0
299.236	47.1
299.451	4.1
299.665	65.53
299.88	96.25
300.094	-32.77
300.309	73.73
300.523	53.25
300.737	51.2
300.952	-51.2
301.166	32.77
301.381	-55.3
301.595	47.1
301.809	4.1
302.024	-43.01
302.238	28.67
302.452	71.68
302.667	14.34
302.881	40.96
303.095	-12.29
303.309	28.67
303.524	6.14
303.738	40.96
303.952	-30.72
304.166	-8.19
304.381	45.06
304.595	18.43
304.809	79.87
305.023	28.67
305.237	49.15
305.452	22.53
305.666	57.34
305.88	45.06
306.094	-8.19
306.308	18.43
306.522	14.34
306.736	47.1
306.95	102.4
307.164	16.38
307.379	-10.24
307.593	59.39
307.807	34.82
308.021	18.43
308.235	-26.62
308.449	-40.96
308.663	51.2
308.877	55.3
309.091	-14.34
309.305	-28.67
309.519	24.58
309.733	-4.1
309.947	49.15
310.161	-4.1
310.374	40.96
310.588	71.68
310.802	-51.2
311.016	14.34
311.23	57.34
311.444	8.19
311.658	73.73
311.872	34.82
312.085	36.86
312.299	47.1
312.513	26.62
312.727	-24.58
312.941	-2.05
313.154	10.24
313.368	28.67
313.582	61.44
313.796	6.14
314.009	-92.16
314.223	40.96
314.437	-4.1
314.651	73.73
314.864	65.53
315.078	28.67
315.292	-4.1
315.505	43.01
315.719	65.53
315.933	-36.86
316.146	16.38
316.36	-10.24
316.573	12.29
316.787	45.06
317.001	-20.48
317.214	-6.14
317.428	-28.67
317.641	22.53
317.855	-30.72
318.068	18.43
318.282	59.39
318.495	47.1
318.709	6.14
318.922	2.05
319.136	57.34
319.349	63.49
319.563	-10.24
319.776	96.25
319.99	-10.24
320.203	-43.01
320.417	24.58
320.63	8.19
320.843	79.87
321.057	14.34
321.27	20.48
321.483	47.1
321.697	75.77
321.91	-16.38
322.124	69.63
322.337	61.44
322.55	-24.58
322.763	-10.24
322.977	59.39
323.19	2.05
323.403	-10.24
323.617	38.91
323.83	94.21
324.043	14.34
324.256	22.53
324.469	-16.38
324.683	59.39
324.896	4.1
325.109	-24.58
325.322	22.53
325.535	32.77
325.748	12.29
325.962	20.48
326.175	67.58
326.388	63.49
326.601	98.3
326.814	-10.24
327.027	38.91
327.24	63.49
327.453	-6.14
327.666	20.48
327.879	77.82
328.092	59.39
328.305	-8.19
328.518	20.48
328.731	18.43
328.944	28.67
329.157	65.53
329.37	-26.62
329.583	102.4
329.796	86.01
330.009	-14.34
330.222	53.25
330.435	20.48
330.648	40.96
330.861	49.15
331.073	55.3
331.286	79.87
331.499	126.97
331.712	28.67
331.925	67.58
332.138	-12.29
332.35	51.2
332.563	-6.14
332.776	63.49
332.989	36.86
333.202	22.53
333.414	18.43
333.627	14.34
333.84	-18.43
334.053	-28.67
334.265	40.96
334.478	2.05
334.691	59.39
334.903	18.43
335.116	-14.34
335.329	6.14
335.541	118.78
335.754	24.58
335.966	77.82
336.179	51.2
336.392	53.25
336.604	77.82
336.817	86.01
337.029	86.01
337.242	-14.34
337.454	28.67
337.667	83.97
337.88	43.01
338.092	88.06
338.305	59.39
338.517	38.91
338.729	77.82
338.942	-36.86
339.154	120.83
339.367	-67.58
339.579	96.25
339.792	-4.1
340.004	-38.91
340.217	-59.39
340.429	34.82
340.641	16.38
340.854	-0
341.066	18.43
341.278	79.87
341.491	98.3
341.703	71.68
341.915	8.19
342.128	38.91
342.34	55.3
342.552	30.72
342.764	24.58
342.977	40.96
343.189	16.38
343.401	-34.82
343.613	38.91
343.826	16.38
344.038	14.34
344.25	12.29
344.462	18.43
344.674	-45.06
344.886	-43.01
345.099	55.3
345.311	-22.53
345.523	-12.29
345.735	-16.38
345.947	90.11
346.159	106.49
346.371	83.97
346.583	90.11
346.795	57.34
347.007	81.92
347.219	-51.2
347.431	110.59
347.643	79.87
347.855	26.62
348.067	40.96
348.279	43.01
348.491	6.14
348.703	55.3
348.915	6.14
349.127	26.62
349.339	-2.05
349.551	22.53
349.763	94.21
349.975	-34.82
350.187	77.82
350.399	22.53
350.61	47.1
350.822	28.67
351.034	51.2
351.246	30.72
351.458	73.73
351.669	49.15
351.881	14.34
352.093	51.2
352.305	32.77
352.517	30.72
352.728	59.39
352.94	47.1
353.152	88.06
353.363	-36.86
353.575	-14.34
353.787	34.82
353.999	32.77
354.21	8.19
354.422	36.86
354.633	71.68
354.845	40.96
355.057	-10.24
355.268	43.01
355.48	-4.1
355.692	53.25
355.903	-4.1
356.115	8.19
356.326	24.58
356.538	96.25
356.749	69.63
356.961	71.68
357.172	36.86
357.384	90.11
357.595	96.25
357.807	59.39
358.018	22.53
358.23	2.05
358.441	-16.38
358.653	57.34
358.864	-10.24
359.075	22.53
359.287	51.2
359.498	61.44
359.709	61.44
359.921	38.91
360.132	51.2
360.344	73.73
360.555	-14.34
360.766	26.62
360.977	-0
361.189	71.68
361.4	34.82
361.611	34.82
361.823	106.49
362.034	-20.48
362.245	-59.39
362.456	-34.82
362.667	30.72
362.879	26.62
363.09	38.91
363.301	34.82
363.512	12.29
363.723	-57.34
363.935	100.35
364.146	118.78
364.357	55.3
364.568	24.58
364.779	-0
364.99	32.77
365.201	-4.1
365.412	63.49
365.623	65.53
365.834	30.72
366.045	-6.14
366.256	55.3
366.467	28.67
366.678	122.88
366.889	-4.1
367.1	-10.24
367.311	59.39
367.522	73.73
367.733	129.02
367.944	4.1
368.155	22.53
368.366	63.49
368.577	63.49
368.788	53.25
368.999	-22.53
369.209	38.91
369.42	-26.62
369.631	112.64
369.842	49.15
370.053	88.06
370.264	151.55
370.474	30.72
370.685	-43.01
370.896	10.24
371.107	96.25
371.317	63.49
371.528	10.24
371.739	88.06
371.95	77.82
372.16	75.77
372.371	90.11
372.582	6.14
372.792	71.68
373.003	100.35
373.214	34.82
373.424	79.87
373.635	24.58
373.846	20.48
374.056	-10.24
374.267	22.53
374.477	49.15
374.688	47.1
374.898	10.24
375.109	-8.19
375.319	61.44
375.53	-16.38
375.74	-0
375.951	-18.43
376.161	67.58
376.372	129.02
376.582	2.05
376.793	6.14
377.003	-22.53
377.214	22.53
377.424	28.67
377.635	-12.29
377.845	14.34
378.055	122.88
378.266	-36.86
378.476	18.43
378.686	51.2
378.897	100.35
379.107	86.01
379.317	55.3
379.528	40.96
379.738	-2.05
379.948	45.06
380.158	55.3
380.369	-26.62
380.579	16.38
380.789	-20.48
380.999	51.2
381.21	34.82
381.42	77.82
381.63	47.1
381.84	88.06
382.05	38.91
382.261	100.35
382.471	36.86
382.681	63.49
382.891	108.54
383.101	88.06
383.311	-26.62
383.521	30.72
383.731	4.1
383.941	73.73
384.151	43.01
384.361	108.54
384.571	-22.53
384.781	108.54
384.991	88.06
385.201	133.12
385.411	55.3
385.621	47.1
385.831	86.01
386.041	53.25
386.251	71.68
386.461	81.92
386.671	116.73
386.881	6.14
387.091	49.15
387.301	90.11
387.511	18.43
387.72	34.82
387.93	59.39
388.14	10.24
388.35	-28.67
388.56	69.63
388.769	63.49
388.979	67.58
389.189	75.77
389.399	32.77
389.609	110.59
389.818	30.72
390.028	22.53
390.238	28.67
390.447	24.58
390.657	45.06
390.867	-4.1
391.076	81.92
391.286	59.39
391.496	73.73
391.705	65.53
391.915	51.2
392.125	88.06
392.334	81.92
392.544	79.87
392.753	83.97
392.963	59.39
393.172	59.39
393.382	55.3
393.591	88.06
393.801	69.63
394.01	59.39
394.22	-20.48
394.429	18.43
394.639	-4.1
394.848	53.25
395.058	2.05
395.267	55.3
395.477	12.29
395.686	102.4
395.895	114.69
396.105	118.78
396.314	75.77
396.524	114.69
396.733	94.21
396.942	157.69
397.152	94.21
397.361	53.25
397.57	65.53
397.78	71.68
397.989	75.77
398.198	122.88
398.407	129.02
398.617	59.39
398.826	104.45
399.035	75.77
399.244	129.02
399.453	129.02
399.663	88.06
399.872	100.35
400.081	43.01
400.29	90.11
400.499	59.39
400.708	96.25
400.917	131.07
401.127	149.5
401.336	104.45
401.545	180.22
401.754	149.5
401.963	108.54
402.172	55.3
402.381	81.92
402.59	79.87
402.799	133.12
403.008	149.5
403.217	129.02
403.426	126.97
403.635	96.25
403.844	30.72
404.053	108.54
404.262	135.17
404.471	190.46
404.68	129.02
404.888	81.92
405.097	14.34
405.306	137.21
405.515	106.49
405.724	155.65
405.933	182.27
406.142	137.21
406.35	178.17
406.559	106.49
406.768	178.17
406.977	143.36
407.185	137.21
407.394	153.6
407.603	116.73
407.812	169.98
408.02	225.28
408.229	210.94
408.438	120.83
408.646	161.79
408.855	139.26
409.064	235.52
409.272	169.98
409.481	301.05
409.69	196.6
409.898	178.17
410.107	272.38
410.315	227.32
410.524	243.71
410.733	280.57
410.941	284.67
411.15	307.2
411.358	309.24
411.567	317.44
411.775	235.52
411.984	294.91
412.192	344.06
412.401	266.24
412.609	423.93
412.818	389.11
413.026	331.77
413.234	438.27
413.443	350.2
413.651	397.31
413.86	405.5
414.068	481.27
414.276	524.28
414.485	489.46
414.693	501.75
414.901	614.39
415.11	538.62
415.318	481.27
415.526	587.77
415.734	616.44
415.943	628.73
416.151	708.6
416.359	620.53
416.567	679.93
416.776	688.12
416.984	681.97
417.192	751.6
417.4	696.31
417.608	804.85
417.817	772.08
418.025	843.76
418.233	905.2
418.441	761.84
418.649	913.39
418.857	1083.38
419.065	1032.18
419.273	1028.08
419.481	1060.85
419.689	1060.85
419.897	1034.22
420.105	1167.34
420.313	1312.75
420.521	1302.51
420.729	1265.64
420.937	1345.52
421.145	1411.05
421.353	1462.25
421.561	1466.35
421.769	1501.16
421.977	1576.94
422.185	1562.6
422.393	1701.86
422.601	1693.67
422.809	1845.22
423.017	1757.16
423.224	1794.02
423.432	1914.85
423.64	1908.71
423.848	2172.89
424.056	1970.15
424.263	2213.85
424.471	2179.04
424.679	2283.49
424.887	2342.88
425.094	2299.87
425.302	2557.91
425.51	2592.73
425.718	2615.26
425.925	2682.84
426.133	2666.46
426.341	2832.34
426.548	3039.19
426.756	3012.56
426.964	3217.36
427.171	3250.13
427.379	3307.47
427.586	3403.72
427.794	3436.49
428.001	3442.64
428.209	3841.99
428.417	3686.34
428.624	3948.48
428.832	3995.59
429.039	3995.59
429.247	4059.07
429.454	4413.37
429.662	4560.83
429.869	4392.89
430.076	4659.13
430.284	4573.11
430.491	4845.49
430.699	5093.3
430.906	4962.23
431.114	5048.24
431.321	5273.52
431.528	5474.22
431.736	5666.73
431.943	5937.06
432.15	5820.33
432.358	5883.81
432.565	6205.35
432.772	5996.45
432.979	6397.85
433.187	6539.16
433.394	6561.69
433.601	7143.31
433.808	7028.63
434.016	6827.93
434.223	7194.51
434.43	7735.18
434.637	7583.63
434.844	7954.31
435.052	8189.83
435.259	8118.15
435.466	8320.9
435.673	8058.76
435.88	8673.15
436.087	9207.67
436.294	9099.13
436.501	8847.22
436.708	9127.8
436.915	9396.08
437.122	9879.4
437.329	9854.83
437.537	10022.76
437.743	10264.42
437.95	10098.53
438.157	10712.92
438.364	11093.85
438.571	10983.26
438.778	11069.27
438.985	12083.02
439.192	11759.44
439.399	12013.38
439.606	11704.14
439.813	12224.33
440.02	12971.83
440.227	12959.55
440.433	12844.86
440.64	13287.22
440.847	13096.76
441.054	13500.21
441.261	14233.38
441.467	14212.9
441.674	14456.61
441.881	15005.47
442.088	15034.14
442.294	14647.07
442.501	15331.09
442.708	15279.89
442.914	15873.81
443.121	16731.9
443.328	16125.71
443.534	17442.55
443.741	16994.04
443.948	16723.71
444.154	17827.57
444.361	17676.02
444.568	17827.57
444.774	17696.5
444.981	18134.76
445.187	18591.46
445.394	19363.54
445.6	19291.87
445.807	20917.95
446.013	20197.07
446.22	20459.21
446.426	21018.3
446.633	21448.38
446.839	21915.31
447.046	21393.08
447.252	22402.73
447.459	22572.71
447.665	22447.79
447.871	23428.76
448.078	24352.4
448.284	23051.94
448.491	23799.44
448.697	24825.48
448.903	25097.86
449.11	24852.1
449.316	24487.56
449.522	25093.76
449.728	25794.17
449.935	25964.15
450.141	25767.54
450.347	26441.32
450.553	25599.61
450.76	25853.56
450.966	26566.25
451.172	26334.83
451.378	27049.57
451.584	26572.39
451.791	27237.98
451.997	27147.87
452.203	27655.77
452.409	27369.05
452.615	27090.53
452.821	26300.01
453.027	26052.21
453.233	26977.89
453.44	26277.49
453.646	26023.54
453.852	26656.36
454.058	27012.71
454.264	25994.87
454.47	26564.2
454.676	25937.52
454.882	26504.81
455.088	24454.79
455.294	24567.43
455.5	24977.03
455.705	25450.11
455.911	24342.16
456.117	24024.72
456.323	23557.78
456.529	22136.49
456.735	23129.76
456.941	22451.88
457.147	22255.28
457.352	21335.74
457.558	21176
457.764	21444.28
457.97	20960.96
458.176	20483.78
458.381	20565.7
458.587	19474.13
458.793	19338.97
458.999	18632.42
459.204	19740.37
459.41	19164.89
459.616	18020.08
459.821	17514.23
460.027	17975.02
460.233	17219.32
460.438	16291.59
460.644	16850.69
460.85	16025.36
461.055	15918.86
461.261	15865.61
461.466	14501.67
461.672	14305.06
461.878	15300.37
462.083	14378.79
462.289	13825.84
462.494	13977.39
462.7	13207.35
462.905	13049.66
463.111	13391.67
463.316	13397.81
463.522	13102.9
463.727	12873.53
463.932	12984.12
464.138	12908.35
464.343	12963.64
464.549	12764.99
464.754	12998.46
464.959	13023.03
465.165	12928.83
465.37	12322.63
465.575	11999.05
465.781	12314.44
465.986	12447.55
466.191	12089.16
466.397	11726.67
466.602	11405.14
466.807	11671.37
467.012	11632.46
467.218	11728.72
467.423	11396.95
467.628	11571.02
467.833	12171.08
468.038	11458.39
468.244	11282.26
468.449	11763.53
468.654	11294.55
468.859	11245.4
469.064	11347.79
469.269	10889.05
469.474	10792.8
469.679	11032.41
469.885	10463.07
470.09	10770.27
470.295	10821.47
470.5	10473.31
470.705	10493.79
470.91	10164.07
471.115	10182.5
471.32	10448.74
471.525	10467.17
471.73	10039.14
471.935	10069.86
472.139	9729.9
472.344	9711.47
472.549	9566.06
472.754	9668.46
472.959	9418.61
473.164	9076.6
473.369	9058.17
473.574	9478
473.778	9258.87
473.983	9082.74
474.188	9330.55
474.393	8877.94
474.598	8669.05
474.802	8841.08
475.007	8697.72
475.212	8886.14
475.417	8261.51
475.621	8368
475.826	8396.67
476.031	8245.12
476.235	8161.16
476.44	8249.22
476.645	8251.27
476.849	8017.8
477.054	8042.37
477.259	7856.01
477.463	7858.06
477.668	7663.5
477.872	7956.36
478.077	7649.16
478.282	7565.2
478.486	7327.63
478.691	7374.74
478.895	7241.62
479.1	7470.99
479.304	7323.54
479.509	7100.31
479.713	7382.93
479.918	6858.65
480.122	7006.1
480.326	7020.44
480.531	7190.42
480.735	7004.05
480.94	6922.13
481.144	7235.47
481.348	6786.97
481.553	6915.99
481.757	6770.58
481.961	7092.12
482.166	6930.33
482.37	6995.86
482.574	6567.84
482.778	6967.19
482.983	6948.76
483.187	6872.98
483.391	7061.4
483.595	6948.76
483.8	6842.26
484.004	7032.72
484.208	6969.24
484.412	6852.5
484.616	6997.91
484.821	6727.58
485.025	6694.81
485.229	6862.74
485.433	6789.02
485.637	6770.58
485.841	6662.04
486.045	6805.4
486.249	6752.15
486.453	6829.98
486.657	6862.74
486.861	6832.02
487.065	6576.03
487.269	6838.17
487.473	6707.1
487.677	6836.12
487.881	6952.85
488.085	6872.98
488.289	6993.81
488.493	6862.74
488.697	6924.18
488.901	6961.05
489.105	6758.3
489.309	6760.34
489.512	6844.31
489.716	6924.18
489.92	6954.9
490.124	6924.18
490.328	7090.07
490.531	7077.78
490.735	7006.1
490.939	7141.27
491.143	6999.96
491.346	6993.81
491.55	7149.46
491.754	7079.83
491.958	7165.84
492.161	7239.57
492.365	7313.3
492.569	7249.81
492.772	7405.45
492.976	7266.19
493.18	7425.93
493.383	7614.35
493.587	7634.83
493.79	7690.12
493.994	7270.29
494.197	7673.74
494.401	7708.55
494.605	7604.11
494.808	7692.17
495.012	7706.51
495.215	8015.75
495.419	8021.89
495.622	7905.16
495.825	8191.87
496.029	8120.2
496.232	8107.91
496.436	8152.96
496.639	8445.82
496.843	8259.46
497.046	8396.67
497.249	8632.19
497.453	8542.08
497.656	8701.82
497.859	8750.97
498.063	8994.68
498.266	9015.16
498.469	9029.49
498.673	9039.73
498.876	9189.24
499.079	9377.65
499.282	9330.55
499.485	9619.31
499.689	9514.86
499.892	9801.58
500.095	9641.84
500.298	9973.61
500.501	9883.5
500.705	10336.1
500.908	10360.67
501.111	10311.52
501.314	10393.44
501.517	10385.25
501.72	10854.23
501.923	10805.08
502.126	10899.29
502.329	10942.3
502.532	11190.1
502.735	11288.4
502.938	11345.75
503.141	11501.39
503.344	11843.4
503.547	11880.27
503.75	12103.5
503.953	12171.08
504.156	12216.13
504.359	12390.21
504.562	12298.05
504.765	12584.77
504.968	12537.66
505.17	12877.63
505.373	12803.9
505.576	13104.95
505.779	13250.36
505.982	13426.48
506.185	13573.94
506.387	13334.32
506.59	14010.15
506.793	13934.38
506.996	13870.89
507.198	14561.06
507.401	14346.02
507.604	14645.02
507.807	14761.76
508.009	15056.67
508.212	14968.6
508.415	15224.6
508.617	15320.85
508.82	15410.96
509.022	15275.8
509.225	15832.85
509.428	15939.34
509.63	16008.97
509.833	16054.03
510.035	16383.75
510.238	16523.01
510.44	16951.04
510.643	16981.76
510.845	17094.4
511.048	17035
511.25	17194.75
511.453	17282.81
511.655	18149.1
511.858	17972.97
512.06	17620.72
512.262	18243.31
512.465	18374.38
512.667	18452.2
512.87	18761.44
513.072	18806.5
513.274	19375.83
513.477	19465.94
513.679	19525.33
513.881	19685.08
514.084	19893.97
514.286	19685.08
514.488	19973.84
514.69	20659.91
514.893	20874.95
515.095	20786.88
515.297	21065.41
515.499	21159.61
515.701	21135.04
515.904	21495.48
516.106	21593.78
516.308	21915.31
516.51	22058.67
516.712	22329
516.914	22546.09
517.116	22687.4
517.318	22816.42
517.52	23123.62
517.722	23101.09
517.925	23541.4
518.127	23965.33
518.329	24045.2
518.531	23735.96
518.733	24385.16
518.935	24260.24
519.136	24659.59
519.338	24868.48
519.54	25007.75
519.742	25648.76
519.944	25376.38
520.146	25896.56
520.348	26039.92
520.55	26160.75
520.752	25896.56
520.954	26484.33
521.155	26447.47
521.357	27131.49
521.559	26951.27
521.761	27358.81
521.963	27342.43
522.164	27899.48
522.366	27655.77
522.568	28147.28
522.77	28173.91
522.971	28603.98
523.173	28792.39
523.375	28798.54
523.576	28632.65
523.778	28857.93
523.98	29443.65
524.181	29294.15
524.383	29400.64
524.584	29828.66
524.786	29961.78
524.988	29750.84
525.189	30142
525.391	30213.68
525.592	30461.49
525.794	30901.8
525.995	31094.31
526.197	30656.04
526.398	31030.82
526.6	30932.52
526.801	31155.75
527.003	31514.14
527.204	31524.38
527.406	31893.02
527.607	31893.02
527.808	32161.3
528.01	31505.95
528.211	32019.99
528.412	32376.34
528.614	32136.73
528.815	32661.01
529.016	32826.89
529.218	32112.15
529.419	32626.19
529.62	32665.1
529.822	32947.72
530.023	32396.82
530.224	32738.83
530.425	32867.85
530.626	32603.66
530.828	32704.01
531.029	33650.17
531.23	33162.76
531.431	32876.04
531.632	33252.87
531.833	33046.02
532.035	33011.21
532.236	33340.93
532.437	33629.69
532.638	33664.51
532.839	33742.33
533.04	33611.26
533.241	33086.98
533.442	34225.65
533.643	33967.61
533.844	33617.41
534.045	34102.78
534.246	33287.68
534.447	33959.42
534.648	33820.16
534.849	33611.26
535.05	33775.1
535.251	33695.23
535.451	33525.25
535.652	33934.84
535.853	33543.68
536.054	33699.33
536.255	33943.03
536.456	33635.84
536.657	34315.76
536.857	33738.24
537.058	33641.98
537.259	34096.63
537.46	34137.59
537.66	33842.68
537.861	34100.73
538.062	33852.92
538.263	33854.97
538.463	33891.83
538.664	33627.65
538.865	34090.49
539.065	34242.04
539.266	33641.98
539.466	34166.26
539.667	33672.7
539.868	34143.73
540.068	34020.86
540.269	33721.85
540.469	34110.97
540.67	33967.61
540.87	34063.86
541.071	33838.59
541.271	34061.82
541.472	33623.55
541.672	34096.63
541.873	33795.58
542.073	33424.9
542.274	34344.44
542.474	34000.38
542.675	33734.14
542.875	34000.38
543.075	33926.65
543.276	33660.41
543.476	34180.6
543.676	33588.74
543.877	33760.76
544.077	34147.83
544.277	33732.09
544.478	34156.02
544.678	33703.42
544.878	33527.3
545.078	33836.54
545.279	33660.41
545.479	33791.48
545.679	34094.58
545.879	33502.72
546.079	33646.08
546.28	33607.17
546.48	33394.18
546.68	33846.78
546.88	33854.97
547.08	34082.3
547.28	33998.33
547.48	33533.44
547.68	33496.58
547.88	33254.92
548.081	33641.98
548.281	33730.05
548.481	33621.5
548.681	33504.77
548.881	33601.02
549.081	33742.33
549.28	33299.97
549.48	33768.96
549.68	33654.27
549.88	34029.05
550.08	33574.4
550.28	33631.74
550.48	33203.72
550.68	34184.69
550.88	33173
551.08	33310.21
551.279	33572.35
551.479	33433.09
551.679	33582.59
551.879	33451.52
552.079	33545.73
552.278	33302.02
552.478	33611.26
552.678	33336.84
552.878	33463.81
553.077	33547.78
553.277	32906.76
553.477	33459.71
553.676	33160.71
553.876	33252.87
554.076	33332.74
554.275	33441.28
554.475	32871.95
554.674	33332.74
554.874	33144.33
555.074	32853.51
555.273	33297.92
555.473	33357.31
555.672	32896.52
555.872	33175.05
556.071	33207.81
556.271	33050.12
556.47	32726.54
556.67	32810.51
556.869	32716.3
557.068	32837.13
557.268	32544.27
557.467	32740.88
557.667	32630.29
557.866	32806.41
558.065	32599.57
558.265	32585.23
558.464	32249.36
558.663	32843.27
558.863	32480.78
559.062	32726.54
559.261	32204.31
559.461	32669.2
559.66	32249.36
559.859	32548.37
560.058	32146.97
560.258	32112.15
560.457	31819.29
560.656	32249.36
560.855	31747.61
561.054	32316.95
561.253	31596.06
561.453	31845.91
561.652	31893.02
561.851	31657.5
562.05	31768.09
562.249	31424.03
562.448	31825.43
562.647	31436.32
562.846	31567.39
563.045	31170.08
563.244	30826.03
563.443	31745.56
563.642	31000.1
563.841	31249.96
564.04	31063.59
564.239	31426.08
564.438	30866.99
564.637	31188.52
564.836	31196.71
565.035	30629.42
565.234	30625.32
565.432	30510.64
565.631	30586.41
565.83	30780.97
566.029	30436.91
566.228	30467.63
566.427	30152.24
566.625	30248.5
566.824	29804.09
567.023	30199.35
567.222	29660.73
567.42	29849.14
567.619	30021.17
567.818	29957.69
568.016	29875.77
568.215	30096.95
568.414	29795.9
568.612	30275.12
568.811	29765.18
569.01	29472.32
569.208	29388.35
569.407	29419.07
569.605	28890.7
569.804	29554.24
570.002	29152.84
570.201	29236.8
570.4	29060.68
570.598	28536.4
570.797	29064.77
570.995	28907.08
571.193	28560.97
571.392	28851.78
571.59	28620.36
571.789	28216.91
571.987	28399.18
572.186	28579.4
572.384	28485.2
572.582	28339.79
572.781	28216.91
572.979	28204.63
573.177	28014.16
573.376	28286.54
573.574	27926.1
573.772	28401.23
573.971	27641.43
574.169	27367.01
574.367	27590.24
574.565	27813.46
574.763	27324
574.962	27444.83
575.16	27256.42
575.358	27432.54
575.556	26859.11
575.754	27436.64
575.952	26865.25
576.151	27123.3
576.349	26777.19
576.547	27010.66
576.745	26957.41
576.943	26615.4
577.141	26781.29
577.339	26478.19
577.537	26656.36
577.735	26560.11
577.933	26349.17
578.131	26197.62
578.329	26332.78
578.527	26214
578.725	26140.27
578.923	26021.49
579.121	26074.74
579.319	26080.88
579.516	25800.31
579.714	26035.83
579.912	25878.13
580.11	25876.09
580.308	25724.54
580.506	25474.68
580.704	25476.73
580.901	25763.45
581.099	25337.47
581.297	25405.05
581.495	25106.05
581.692	25405.05
581.89	24798.85
582.088	25302.65
582.285	25099.9
582.483	25210.5
582.681	25024.13
582.878	24835.72
583.076	24665.74
583.274	25060.99
583.471	24520.33
583.669	24460.94
583.866	24551.05
584.064	24731.27
584.262	24307.34
584.459	24659.59
584.657	24192.65
584.854	24153.74
585.052	23713.43
585.249	23905.94
585.447	24135.31
585.644	24032.91
585.841	24102.54
586.039	23715.48
586.236	23654.04
586.434	23592.6
586.631	23555.74
586.828	23688.85
587.026	23664.28
587.223	23344.8
587.42	23246.49
587.618	23420.57
587.815	23246.49
588.012	23096.99
588.21	23248.54
588.407	23236.25
588.604	23037.6
588.801	22929.06
588.999	22828.71
589.196	22933.15
589.393	22816.42
589.59	22797.99
589.787	22675.11
589.984	22537.9
590.182	22242.99
590.379	22251.18
590.576	22580.9
590.773	22439.59
590.97	22183.6
591.167	22189.74
591.364	21800.63
591.561	22068.91
591.758	21866.16
591.955	21720.76
592.152	22116.01
592.349	21515.96
592.546	21851.83
592.743	21782.2
592.94	21454.52
593.137	21880.5
593.334	21503.67
593.531	21180.09
593.727	21513.91
593.924	21438.14
594.121	21360.31
594.318	21309.11
594.515	20709.06
594.712	21118.65
594.908	21227.2
595.105	21180.09
595.302	20559.56
595.499	20866.75
595.696	20795.07
595.892	20555.46
596.089	20778.69
596.286	20848.32
596.482	20704.96
596.679	20551.37
596.876	20541.13
597.072	20489.93
597.269	20491.98
597.466	20504.26
597.662	20084.43
597.859	20330.19
598.055	20178.64
598.252	20096.72
598.448	19922.64
598.645	19826.39
598.841	19410.65
599.038	19807.95
599.234	19902.16
599.431	19713.75
599.627	19400.41
599.824	19836.63
600.02	19324.63
600.217	19455.7
600.413	19486.42
600.609	19500.76
600.806	18992.86
601.002	19279.58
601.198	19132.12
601.395	19236.57
601.591	19168.99
601.787	18994.91
601.984	18974.43
602.18	19283.67
602.376	19009.25
602.572	18906.85
602.769	18820.83
602.965	18525.93
603.161	18890.46
603.357	18456.29
603.553	18339.56
603.75	18554.6
603.946	18386.66
604.142	18554.6
604.338	18446.05
604.534	18261.74
604.73	18071.28
604.926	18071.28
605.122	17932.01
605.318	18120.43
605.514	17932.01
605.71	18030.32
605.906	17991.41
606.102	17901.29
606.298	17833.71
606.494	17829.62
606.69	17618.68
606.886	17706.74
607.082	17506.04
607.278	17780.46
607.474	17172.22
607.67	17428.21
607.866	17331.96
608.062	17575.67
608.257	17149.69
608.453	17295.1
608.649	17252.09
608.845	17207.03
609.041	17215.23
609.236	17327.86
609.432	17213.18
609.628	17217.27
609.824	17012.48
610.019	16705.28
610.215	17016.57
610.411	17157.88
610.606	17071.87
610.802	16971.52
610.998	16717.57
611.193	16885.5
611.389	16707.33
611.584	16713.47
611.78	16426.76
611.976	16701.19
612.171	16854.78
612.367	16641.79
612.562	16377.61
612.758	16375.56
612.953	16494.34
613.149	16545.54
613.344	16402.18
613.539	16570.12
613.735	16398.09
613.93	16379.65
614.126	16387.85
614.321	16516.87
614.517	16240.39
614.712	16449.28
614.907	16234.25
615.103	16320.26
615.298	16031.5
615.493	16271.11
615.688	15830.8
615.884	16271.11
616.079	16064.27
616.274	16246.54
616.47	16254.73
616.665	16193.29
616.86	15599.38
617.055	15912.72
617.25	15623.95
617.445	15892.24
617.641	15574.8
617.836	15554.32
618.031	15486.74
618.226	15771.41
618.421	15240.98
618.616	15675.15
618.811	15191.83
619.006	15429.4
619.201	15329.05
619.396	15288.09
619.591	15011.61
619.786	15327
619.981	14991.13
620.176	15085.34
620.371	14944.03
620.566	15081.24
620.761	15042.33
620.956	14837.53
621.151	14618.4
621.346	14776.09
621.541	14694.18
621.735	14595.87
621.93	14583.59
622.125	14497.57
622.32	14214.95
622.515	14155.56
622.709	14165.8
622.904	14266.15
623.099	13817.65
623.294	14284.58
623.488	13895.47
623.683	14151.46
623.878	13680.43
624.072	13817.65
624.267	13756.21
624.462	13649.71
624.656	13303.6
624.851	13549.36
625.046	13340.47
625.24	13274.93
625.435	13348.66
625.629	13055.8
625.824	13166.39
626.018	13231.93
626.213	12934.97
626.407	12998.46
626.602	12617.54
626.796	12642.11
626.991	12666.69
627.185	12621.63
627.38	12660.54
627.574	12427.07
627.768	12347.2
627.963	12384.07
628.157	12418.88
628.352	12341.06
628.546	12040.01
628.74	12212.04
628.935	11804.49
629.129	11847.5
629.323	11847.5
629.517	11796.3
629.712	11818.83
629.906	11831.12
630.1	11611.98
630.294	11734.86
630.489	11339.6
630.683	11646.8
630.877	11360.08
631.071	11220.82
631.265	11296.6
631.459	11339.6
631.653	11212.63
631.848	11231.06
632.042	10985.3
632.236	11300.69
632.43	10940.25
632.624	10762.08
632.818	11022.17
633.012	10663.77
633.206	10577.76
633.4	10786.65
633.594	10704.73
633.788	10432.35
633.982	10608.48
634.176	10329.95
634.369	10430.3
634.563	10430.3
634.757	10305.38
634.951	10262.37
635.145	10262.37
635.339	10090.34
635.533	10086.25
635.726	10041.19
635.92	9934.7
636.114	10114.92
636.308	9961.32
636.501	9703.28
636.695	9949.03
636.889	9643.88
637.083	9920.36
637.276	9805.67
637.47	9566.06
637.664	9592.69
637.857	9287.54
638.051	9582.45
638.244	9594.73
638.438	9328.5
638.632	9303.92
638.825	9127.8
639.019	9293.68
639.212	9375.6
639.406	9062.26
639.599	8976.25
639.793	9125.75
639.986	8804.22
640.18	9006.97
640.373	8912.76
640.567	8673.15
640.76	8769.4
640.954	8685.44
641.147	8738.68
641.34	8542.08
641.534	8720.25
641.727	8587.13
641.92	8597.37
642.114	8458.11
642.307	8603.52
642.5	8181.64
642.694	8193.92
642.887	8241.03
643.08	8304.51
643.273	8238.98
643.467	8159.11
643.66	8093.57
643.853	7982.98
644.046	7798.66
644.239	7667.59
644.432	7741.32
644.626	7597.96
644.819	7722.89
645.012	7813
645.205	7909.26
645.398	7751.56
645.591	7589.77
645.784	7573.39
645.977	7479.18
646.17	7501.71
646.363	7415.69
646.556	7327.63
646.749	7251.86
646.942	7325.58
647.135	7217.04
647.328	7309.2
647.521	7260.05
647.714	7055.25
647.907	7045.01
648.099	7104.4
648.292	7266.19
648.485	7022.48
648.678	6901.65
648.871	6862.74
649.064	6969.24
649.256	7010.2
649.449	6766.49
649.642	6811.54
649.835	6639.51
650.027	6686.62
650.22	6631.32
650.413	6653.85
650.605	6645.66
650.798	6672.28
650.991	6455.2
651.183	6522.78
651.376	6449.05
651.568	6356.89
651.761	6410.14
651.954	6244.26
652.146	6363.04
652.339	6301.6
652.531	6274.98
652.724	6287.26
652.916	6162.34
653.109	6145.95
653.301	6225.82
653.494	6221.73
653.686	6053.8
653.879	6137.76
654.071	6109.09
654.263	6043.56
654.456	6096.8
654.648	5902.25
654.84	5932.97
655.033	5713.83
655.225	5746.6
655.417	5765.03
655.61	5781.42
655.802	5765.03
655.994	5552.04
656.186	5670.83
656.379	5629.87
656.571	5582.76
656.763	5494.7
656.955	5453.74
657.148	5566.38
657.34	5703.59
657.532	5457.84
657.724	5472.17
657.916	5322.67
658.108	5547.95
658.3	5455.79
658.492	5380.01
658.684	5281.71
658.876	5296.05
659.068	5109.68
659.26	5175.22
659.452	5234.61
659.644	5134.26
659.836	5158.83
660.028	5093.3
660.22	5042.1
660.412	4997.04
660.604	4896.69
660.796	5035.96
660.988	5011.38
661.18	4949.94
661.372	4878.26
661.563	4941.75
661.755	4814.77
661.947	4841.4
662.139	4724.66
662.331	4730.81
662.522	4913.08
662.714	4661.18
662.906	4679.61
663.097	4730.81
663.289	4599.74
663.481	4599.74
663.673	4591.55
663.864	4550.59
664.056	4476.86
664.247	4695.99
664.439	4583.35
664.631	4560.83
664.822	4632.51
665.014	4560.83
665.205	4474.81
665.397	4388.8
665.588	4458.43
665.78	4450.24
665.971	4503.48
666.163	4390.84
666.354	4333.5
666.546	4257.73
666.737	4267.97
666.929	4179.9
667.12	4155.33
667.311	4280.25
667.503	4065.22
667.694	4163.52
667.885	4114.37
668.077	4249.54
668.268	4196.29
668.459	4229.06
668.651	4118.47
668.842	4245.44
669.033	4001.73
669.224	4083.65
669.416	4102.08
669.607	3999.68
669.798	3968.96
669.989	4126.66
670.18	4040.64
670.371	4054.98
670.563	3993.54
670.754	3999.68
670.945	3903.43
671.136	3932.1
671.327	3760.07
671.518	3852.23
671.709	3876.8
671.9	3952.58
672.091	3870.66
672.282	3870.66
672.473	3727.3
672.664	3813.32
672.855	3749.83
673.046	3782.6
673.237	3844.04
673.428	3692.49
673.619	3766.21
673.809	3872.71
674	3717.06
674.191	3708.87
674.382	3696.58
674.573	3610.57
674.764	3602.38
674.954	3692.49
675.145	3520.46
675.336	3387.34
675.527	3606.47
675.717	3721.16
675.908	3565.51
676.099	3721.16
676.289	3577.8
676.48	3596.23
676.671	3536.84
676.861	3465.16
677.052	3422.16
677.243	3592.14
677.433	3346.38
677.624	3487.69
677.814	3467.21
678.005	3583.95
678.195	3467.21
678.386	3397.58
678.576	3426.25
678.767	3303.37
678.957	3385.29
679.148	3504.07
679.338	3559.37
679.529	3475.4
679.719	3413.96
679.909	3532.75
680.1	3276.75
680.29	3362.76
680.481	3452.88
680.671	3469.26
680.861	3506.12
681.052	3354.57
681.242	3342.28
681.432	3471.31
681.622	3348.43
681.813	3338.19
682.003	3379.15
682.193	3264.46
682.383	3356.62
682.573	3289.04
682.764	3311.57
682.954	3338.19
683.144	3391.44
683.334	3264.46
683.524	3256.27
683.714	3266.51
683.904	3315.66
684.094	3272.65
684.284	3215.31
684.474	3284.94
684.664	3319.76
684.854	3270.61
685.044	3203.02
685.234	3237.84
685.424	3256.27
685.614	3213.26
685.804	3137.49
685.994	2987.99
686.184	3323.85
686.374	3067.86
686.564	3145.68
686.753	3149.78
686.943	3098.58
687.133	3147.73
687.323	3133.39
687.513	3141.58
687.702	3022.8
687.892	3104.72
688.082	3129.3
688.272	3110.86
688.461	3030.99
688.651	3145.68
688.841	3106.77
689.03	2926.55
689.22	2899.92
689.41	2969.55
689.599	2959.31
689.789	2920.4
689.979	3035.09
690.168	2990.03
690.358	2801.62
690.547	2881.49
690.737	2977.75
690.926	2916.31
691.116	2844.63
691.305	2863.06
691.495	2768.85
691.684	2836.44
691.874	2775
692.063	2797.53
692.252	2813.91
692.442	2836.44
692.631	2815.96
692.82	2822.1
693.01	2809.81
693.199	2766.81
693.388	2756.57
693.578	2775
693.767	2791.38
693.956	2699.22
694.146	2666.46
694.335	2633.69
694.524	2623.45
694.713	2592.73
694.902	2596.82
695.092	2699.22
695.281	2586.58
695.47	2519
695.659	2605.02
695.848	2519
696.037	2537.43
696.226	2605.02
696.415	2519
696.604	2717.65
696.793	2637.78
696.982	2656.22
697.171	2652.12
697.36	2623.45
697.549	2643.93
697.738	2574.3
697.927	2551.77
698.116	2480.09
698.305	2422.75
698.494	2678.74
698.683	2525.15
698.872	2467.8
699.061	2596.82
699.25	2463.71
699.438	2455.51
699.627	2482.14
699.816	2537.43
700.005	2496.47
700.193	2461.66
700.382	2668.5
700.571	2498.52
700.76	2455.51
700.948	2445.27
701.137	2549.72
701.326	2478.04
701.514	2377.69
701.703	2549.72
701.892	2482.14
702.08	2602.97
702.269	2545.63
702.457	2463.71
702.646	2420.7
702.834	2435.03
703.023	2455.51
703.212	2564.06
703.4	2523.1
703.589	2473.95
703.777	2457.56
703.965	2445.27
704.154	2416.6
704.342	2529.24
704.531	2416.6
704.719	2353.12
704.907	2496.47
705.096	2451.42
705.284	2447.32
705.472	2521.05
705.661	2367.45
705.849	2572.25
706.037	2510.81
706.226	2471.9
706.414	2414.56
706.602	2383.84
706.79	2467.8
706.979	2416.6
707.167	2402.27
707.355	2424.79
707.543	2381.79
707.731	2361.31
707.919	2463.71
708.107	2488.28
708.296	2463.71
708.484	2432.99
708.672	2562.01
708.86	2475.99
709.048	2519
709.236	2437.08
709.424	2416.6
709.612	2488.28
709.8	2381.79
709.988	2420.7
710.176	2443.23
710.364	2508.76
710.551	2451.42
710.739	2349.02
710.927	2412.51
711.115	2432.99
711.303	2504.67
711.491	2338.78
711.679	2267.1
711.866	2396.12
712.054	2346.97
712.242	2402.27
712.43	2482.14
712.617	2447.32
712.805	2439.13
712.993	2338.78
713.181	2357.21
713.368	2459.61
713.556	2529.24
713.744	2430.94
713.931	2516.95
714.119	2478.04
714.306	2488.28
714.494	2301.92
714.682	2469.85
714.869	2340.83
715.057	2480.09
715.244	2392.03
715.432	2428.89
715.619	2406.36
715.807	2478.04
715.994	2447.32
716.182	2437.08
716.369	2381.79
716.556	2543.58
716.744	2416.6
716.931	2279.39
717.119	2451.42
717.306	2426.84
717.493	2508.76
717.681	2504.67
717.868	2463.71
718.055	2578.39
718.242	2383.84
718.43	2344.92
718.617	2328.54
718.804	2404.32
718.991	2447.32
719.179	2443.23
719.366	2359.26
719.553	2428.89
719.74	2404.32
719.927	2461.66
720.114	2420.7
720.301	2426.84
720.488	2285.53
720.676	2312.16
720.863	2385.88
721.05	2463.71
721.237	2420.7
721.424	2349.02
721.611	2432.99
721.798	2504.67
721.985	2471.9
722.172	2545.63
722.358	2375.64
722.545	2303.96
722.732	2369.5
722.919	2363.36
723.106	2381.79
723.293	2381.79
723.48	2383.84
723.667	2295.77
723.853	2344.92
724.04	2400.22
724.227	2455.51
724.414	2396.12
724.6	2471.9
724.787	2361.31
724.974	2316.25
725.161	2338.78
725.347	2293.72
725.534	2357.21
725.72	2342.88
725.907	2342.88
726.094	2371.55
726.28	2375.64
726.467	2285.53
726.653	2387.93
726.84	2537.43
727.027	2418.65
727.213	2279.39
727.4	2310.11
727.586	2467.8
727.773	2435.03
727.959	2281.44
728.145	2377.69
728.332	2359.26
728.518	2410.46
728.705	2244.57
728.891	2375.64
729.077	2326.49
729.264	2293.72
729.45	2357.21
729.636	2406.36
729.823	2338.78
730.009	2273.25
730.195	2279.39
730.382	2299.87
730.568	2078.69
730.754	2365.4
730.94	2250.72
731.126	2256.86
731.313	2250.72
731.499	2340.83
731.685	2428.89
731.871	2246.62
732.057	2306.01
732.243	2275.29
732.429	2232.29
732.615	2324.44
732.801	2246.62
732.987	2222.05
733.173	2275.29
733.359	2312.16
733.545	2273.25
733.731	2230.24
733.917	2328.54
734.103	2271.2
734.289	2308.06
734.475	2367.45
734.661	2308.06
734.847	2267.1
735.033	2152.42
735.219	2269.15
735.404	2203.61
735.59	2220
735.776	2148.32
735.962	2232.29
736.148	2240.48
736.333	2133.98
736.519	2209.76
736.705	2131.94
736.89	2183.13
737.076	2050.02
737.262	2144.22
737.447	2213.85
737.633	2062.3
737.819	2107.36
738.004	2256.86
738.19	2140.13
738.375	2127.84
738.561	2220
738.747	2107.36
738.932	2176.99
739.118	2191.33
739.303	2181.09
739.489	2086.88
739.674	2131.94
739.859	2093.02
740.045	2201.57
740.23	1984.48
740.416	2004.96
740.601	2004.96
740.786	2082.78
740.972	2195.42
741.157	2082.78
741.342	2017.25
741.528	2158.56
741.713	1961.95
741.898	1968.1
742.084	2076.64
742.269	2004.96
742.454	1974.24
742.639	2033.63
742.824	1980.39
743.01	1914.85
743.195	2007.01
743.38	1941.47
743.565	1970.15
743.75	1918.95
743.935	1939.43
744.12	2017.25
744.305	1935.33
744.49	1904.61
744.675	1920.99
744.86	1968.1
745.045	1882.08
745.23	1861.6
745.415	1783.78
745.6	1959.91
745.785	1927.14
745.97	1906.66
746.155	1855.46
746.34	2004.96
746.525	1824.74
746.71	1800.16
746.895	1757.16
747.079	1771.49
747.264	1753.06
747.449	1828.84
747.634	1732.58
747.819	1748.97
748.003	1705.96
748.188	1626.09
748.373	1636.33
748.557	1656.81
748.742	1738.73
748.927	1646.57
749.111	1722.34
749.296	1544.17
749.481	1654.76
749.665	1634.28
749.85	1599.46
750.034	1511.4
750.219	1595.37
750.404	1615.85
750.588	1615.85
750.773	1486.83
750.957	1484.78
751.141	1497.07
751.326	1542.12
751.51	1548.26
751.695	1492.97
751.879	1433.58
752.064	1398.76
752.248	1460.2
752.432	1490.92
752.617	1394.67
752.801	1427.43
752.985	1398.76
753.17	1449.96
753.354	1492.97
753.538	1398.76
753.722	1275.88
753.907	1370.09
754.091	1357.8
754.275	1398.76
754.459	1292.27
754.643	1234.93
754.828	1415.15
755.012	1304.56
755.196	1290.22
755.38	1322.99
755.564	1300.46
755.748	1196.01
755.932	1247.21
756.116	1204.21
756.3	1198.06
756.484	1206.25
756.668	1185.77
756.852	1218.54
757.036	1134.57
757.22	1161.2
757.404	1165.29
757.588	1241.07
757.772	1234.93
757.956	1155.05
758.14	1196.01
758.323	1114.09
758.507	1216.49
758.691	1150.96
758.875	1200.11
759.059	1081.33
759.242	1054.7
759.426	1161.2
759.61	1157.1
759.794	1110
759.977	1028.08
760.161	1105.9
760.345	1124.33
760.528	1107.95
760.712	1066.99
760.895	972.79
761.079	993.26
761.263	1015.79
761.446	954.35
761.63	1036.27
761.813	1058.8
761.997	1071.09
762.18	923.63
762.364	964.59
762.547	935.92
762.731	1001.46
762.914	1013.74
763.098	1054.7
763.281	1011.7
763.464	925.68
763.648	1038.32
763.831	991.22
764.015	997.36
764.198	1001.46
764.381	915.44
764.564	999.41
764.748	970.74
764.931	976.88
765.114	966.64
765.297	931.83
765.481	921.59
765.664	888.82
765.847	878.58
766.03	972.79
766.213	935.92
766.397	884.72
766.58	909.3
766.763	882.67
766.946	894.96
767.129	843.76
767.312	894.96
767.495	903.15
767.678	886.77
767.861	933.87
768.044	856.05
768.227	917.49
768.41	876.53
768.593	858.1
768.776	823.28
768.959	856.05
769.142	860.15
769.324	860.15
769.507	784.37
769.69	831.48
769.873	841.72
770.056	856.05
770.239	790.52
770.421	745.46
770.604	735.22
770.787	763.89
770.97	761.84
771.152	710.65
771.335	780.28
771.518	733.17
771.7	765.94
771.883	767.99
772.066	786.42
772.248	765.94
772.431	751.6
772.613	792.56
772.796	710.65
772.978	763.89
773.161	847.86
773.343	882.67
773.526	669.69
773.708	677.88
773.891	718.84
774.073	710.65
774.256	702.45
774.438	845.81
774.621	645.11
774.803	745.46
774.985	743.41
775.168	628.73
775.35	753.65
775.532	647.16
775.715	700.41
775.897	677.88
776.079	710.65
776.261	604.15
776.444	659.45
776.626	571.38
776.808	661.49
776.99	659.45
777.173	600.05
777.355	679.93
777.537	612.34
777.719	604.15
777.901	571.38
778.083	626.68
778.265	571.38
778.447	520.18
778.629	509.94
778.811	571.38
778.993	583.67
779.175	540.66
779.357	587.77
779.539	518.14
779.721	559.1
779.903	569.34
780.085	550.9
780.267	507.9
780.449	514.04
780.631	499.7
780.812	577.53
780.994	532.47
781.176	559.1
781.358	497.66
781.54	559.1
781.721	561.14
781.903	563.19
782.085	464.89
782.267	516.09
782.448	557.05
782.63	520.18
782.812	489.46
782.993	419.83
783.175	448.51
783.357	477.18
783.538	491.51
783.72	372.73
783.901	419.83
784.083	399.35
784.264	538.62
784.446	530.42
784.627	434.17
784.809	511.99
784.99	466.94
785.172	290.81
785.353	382.97
785.535	423.93
785.716	436.22
785.897	460.79
786.079	481.27
786.26	528.38
786.441	366.59
786.623	452.6
786.804	417.79
786.985	337.91
787.167	368.63
787.348	393.21
787.529	432.12
787.71	505.85
787.891	387.07
788.073	325.63
788.254	387.07
788.435	421.88
788.616	417.79
788.797	415.74
788.978	339.96
789.159	313.34
789.34	323.58
789.522	360.44
789.703	335.87
789.884	350.2
790.065	313.34
790.246	309.24
790.427	393.21
790.607	325.63
790.788	382.97
790.969	241.66
791.15	333.82
791.331	337.91
791.512	299
791.693	276.48
791.874	311.29
792.054	331.77
792.235	337.91
792.416	305.15
792.597	301.05
792.778	290.81
792.958	342.01
793.139	342.01
793.32	241.66
793.5	288.76
793.681	360.44
793.862	321.53
794.042	227.32
794.223	278.52
794.404	309.24
794.584	227.32
794.765	249.85
794.945	260.09
795.126	299
795.306	311.29
795.487	223.23
795.667	247.8
795.848	294.91
796.028	249.85
796.209	247.8
796.389	301.05
796.57	315.39
796.75	219.13
796.93	280.57
797.111	313.34
797.291	288.76
797.471	284.67
797.652	190.46
797.832	217.08
798.012	237.56
798.192	239.61
798.373	296.96
798.553	212.99
798.733	219.13
798.913	229.37
799.093	206.84
799.274	282.62
799.454	270.33
799.634	188.41
799.814	180.22
799.994	256
800.174	235.52
800.354	210.94
800.534	143.36
800.714	251.9
800.894	233.47
801.074	172.03
801.254	163.84
801.434	227.32
801.614	182.27
801.794	129.02
801.974	804.85
802.154	176.13
802.334	149.5
802.514	210.94
802.693	225.28
802.873	182.27
803.053	223.23
803.233	206.84
803.413	190.46
803.592	219.13
803.772	135.17
803.952	227.32
804.131	143.36
804.311	161.79
804.491	159.74
804.67	210.94
804.85	188.41
805.03	155.65
805.209	264.19
805.389	215.04
805.568	157.69
805.748	112.64
805.928	178.17
806.107	122.88
806.287	192.51
806.466	157.69
806.646	116.73
806.825	196.6
807.004	210.94
807.184	178.17
807.363	235.52
807.543	186.37
807.722	215.04
807.901	133.12
808.081	129.02
808.26	110.59
808.439	167.93
808.619	167.93
808.798	108.54
808.977	165.89
809.156	165.89
809.336	104.45
809.515	165.89
809.694	190.46
809.873	161.79
810.052	178.17
810.231	163.84
810.411	178.17
810.59	159.74
810.769	161.79
810.948	176.13
811.127	53.25
811.306	161.79
811.485	71.68
811.664	188.41
811.843	124.93
812.022	165.89
812.201	124.93
812.38	104.45
812.559	155.65
812.737	186.37
812.916	63.49
813.095	120.83
813.274	69.63
813.453	124.93
813.632	81.92
813.811	112.64
813.989	88.06
814.168	141.31
814.347	135.17
814.526	83.97
814.704	151.55
814.883	143.36
815.062	129.02
815.24	159.74
815.419	96.25
815.598	157.69
815.776	77.82
815.955	210.94
816.133	73.73
816.312	145.41
816.49	67.58
816.669	202.75
816.847	38.91
817.026	139.26
817.204	118.78
817.383	133.12
817.561	102.4
817.74	122.88
817.918	186.37
818.097	176.13
818.275	65.53
818.453	126.97
818.632	124.93
818.81	145.41
818.988	141.31
819.167	88.06
819.345	116.73
819.523	14.34
819.701	100.35
819.879	178.17
820.058	55.3
820.236	92.16
820.414	145.41
820.592	122.88
820.77	104.45
820.948	114.69
821.127	83.97
821.305	114.69
821.483	83.97
821.661	118.78
821.839	118.78
822.017	22.53
822.195	59.39
822.373	161.79
822.551	22.53
822.729	77.82
822.907	108.54
823.085	69.63
823.262	137.21
823.44	63.49
823.618	94.21
823.796	98.3
823.974	38.91
824.152	81.92
824.329	145.41
824.507	83.97
824.685	49.15
824.863	79.87
825.04	67.58
825.218	45.06
825.396	67.58
825.574	141.31
825.751	86.01
825.929	116.73
826.107	83.97
826.284	81.92
826.462	57.34
826.639	59.39
826.817	16.38
826.994	-12.29
827.172	90.11
827.349	118.78
827.527	143.36
827.704	112.64
827.882	104.45
828.059	75.77
828.237	73.73
828.414	182.27
828.591	94.21
828.769	67.58
828.946	55.3
829.124	116.73
829.301	137.21
829.478	73.73
829.655	96.25
829.833	81.92
830.01	-26.62
830.187	55.3
830.364	30.72
830.542	108.54
830.719	86.01
830.896	63.49
831.073	120.83
831.25	79.87
831.427	83.97
831.604	61.44
831.782	20.48
831.959	88.06
832.136	30.72
832.313	126.97
832.49	30.72
832.667	165.89
832.844	57.34
833.021	157.69
833.198	104.45
833.374	63.49
833.551	30.72
833.728	2.05
833.905	63.49
834.082	67.58
834.259	71.68
834.436	36.86
834.612	126.97
834.789	10.24
834.966	51.2
835.143	126.97
835.319	32.77
835.496	45.06
835.673	71.68
835.85	81.92
836.026	172.03
836.203	83.97
836.38	61.44
836.556	116.73
836.733	-10.24
836.909	61.44
837.086	18.43
837.262	24.58
837.439	65.53
837.616	2.05
837.792	75.77
837.968	59.39
838.145	51.2
838.321	34.82
838.498	100.35
838.674	79.87
838.851	30.72
839.027	69.63
839.203	67.58
839.38	-14.34
839.556	43.01
839.732	34.82
839.909	63.49
840.085	131.07
840.261	57.34
840.437	129.02
840.614	43.01
840.79	47.1
840.966	30.72
841.142	34.82
841.318	73.73
841.494	34.82
841.671	34.82
841.847	16.38
842.023	86.01
842.199	69.63
842.375	63.49
842.551	38.91
842.727	49.15
842.903	43.01
843.079	-2.05
843.255	69.63
843.431	-10.24
843.607	81.92
843.783	-0
843.959	28.67
844.134	30.72
844.31	49.15
844.486	43.01
844.662	81.92
844.838	12.29
845.013	26.62
845.189	-16.38
845.365	34.82
845.541	18.43
845.716	40.96
845.892	96.25
846.068	34.82
846.244	-30.72
846.419	26.62
846.595	24.58
846.77	-4.1
846.946	45.06
847.122	53.25
847.297	51.2
847.473	94.21
847.648	38.91
847.824	55.3
847.999	30.72
848.175	4.1
848.35	38.91
848.526	96.25
848.701	28.67
848.876	71.68
849.052	18.43
849.227	45.06
849.403	90.11
849.578	61.44
849.753	104.45
849.929	26.62
850.104	-10.24
850.279	59.39
850.454	-2.05
850.63	28.67
850.805	-6.14
850.98	38.91
851.155	47.1
851.33	34.82
851.505	36.86
851.681	92.16
851.856	40.96
852.031	-6.14
852.206	83.97
852.381	-18.43
852.556	43.01
852.731	-0
852.906	59.39
853.081	43.01
853.256	65.53
853.431	73.73
853.606	36.86
853.781	6.14
853.956	8.19
854.131	110.59
854.305	28.67
854.48	10.24
854.655	-0
854.83	8.19
855.005	-38.91
855.18	14.34
855.354	79.87
855.529	43.01
855.704	22.53
855.879	22.53
856.053	-4.1
856.228	24.58
856.403	14.34
856.577	-14.34
856.752	-40.96
856.926	38.91
857.101	81.92
857.276	45.06
857.45	-8.19
857.625	14.34
857.799	26.62
857.974	-30.72
858.148	22.53
858.323	71.68
858.497	-20.48
858.672	-2.05
858.846	4.1
859.02	4.1
859.195	2.05
859.369	26.62
859.543	-16.38
859.718	49.15
859.892	67.58
860.066	51.2
860.241	-30.72
860.415	-32.77
860.589	-30.72
860.763	-20.48
860.938	22.53
861.112	-47.1
861.286	-2.05
861.46	-6.14
861.634	24.58
861.808	98.3
861.982	-8.19
862.157	-53.25
862.331	14.34
862.505	57.34
862.679	-10.24
862.853	-36.86
863.027	-32.77
863.201	75.77
863.375	-20.48
863.549	-30.72
863.722	-20.48
863.896	30.72
864.07	-10.24
864.244	40.96
864.418	6.14
864.592	100.35
864.766	-2.05
864.939	-20.48
865.113	63.49
865.287	2.05
865.461	-30.72
865.634	-26.62
865.808	-30.72
865.982	6.14
866.156	4.1
866.329	6.14
866.503	67.58
866.676	32.77
866.85	-28.67
867.024	14.34
867.197	16.38
867.371	59.39
867.544	63.49
867.718	-34.82
867.891	57.34
868.065	38.91
868.238	-40.96
868.412	47.1
868.585	-10.24
868.759	14.34
868.932	24.58
869.105	73.73
869.279	6.14
869.452	40.96
869.625	53.25
869.799	-8.19
869.972	61.44
870.145	-30.72
870.319	-10.24
870.492	24.58
870.665	-8.19
870.838	2.05
871.011	18.43
871.185	40.96
871.358	32.77
871.531	67.58
871.704	-45.06
871.877	-30.72
872.05	4.1
872.223	28.67
872.396	40.96
872.569	36.86
872.742	-75.77
872.915	-43.01
873.088	-59.39
873.261	-36.86
873.434	-10.24
873.607	22.53
873.78	6.14
873.953	2.05
874.126	-51.2
874.299	34.82
874.471	10.24
874.644	98.3
874.817	8.19
874.99	12.29
875.163	-26.62
875.335	4.1
875.508	40.96
875.681	67.58
875.853	6.14
876.026	-8.19
876.199	57.34
876.371	-47.1
876.544	75.77
876.717	4.1
876.889	-22.53
877.062	28.67
877.234	-30.72
877.407	-16.38
877.579	-32.77
877.752	-2.05
877.924	10.24
878.097	-22.53
878.269	-2.05
878.442	32.77
878.614	83.97
878.786	-18.43
878.959	-0
879.131	-24.58
879.303	22.53
879.476	-71.68
879.648	55.3
879.82	51.2
879.993	-79.87
880.165	34.82
880.337	-55.3
880.509	55.3
880.681	-28.67
880.854	63.49
881.026	88.06
881.198	83.97
881.37	-55.3
881.542	-40.96
881.714	38.91
881.886	-38.91
882.058	24.58
882.23	-18.43
882.402	-30.72
882.574	-6.14
882.746	-40.96
882.918	53.25
883.09	10.24
883.262	-83.97
883.434	-10.24
883.606	32.77
883.778	49.15
883.95	2.05
884.122	18.43
884.293	16.38
884.465	10.24
884.637	90.11
884.809	-12.29
884.98	6.14
885.152	-36.86
885.324	14.34
885.496	32.77
885.667	-45.06
885.839	30.72
886.011	26.62
886.182	34.82
886.354	53.25
886.525	20.48
886.697	24.58
886.869	-40.96
887.04	-34.82
887.212	10.24
887.383	43.01
887.555	47.1
887.726	2.05
887.897	-8.19
888.069	-24.58
888.24	-12.29
888.412	6.14
888.583	-75.77
888.754	59.39
888.926	-49.15
889.097	-16.38
889.268	-6.14
889.44	-30.72
889.611	-0
889.782	-12.29
889.953	12.29
890.125	83.97
890.296	2.05
890.467	6.14
890.638	-43.01
890.809	-2.05
890.98	-26.62
891.151	34.82
891.323	-12.29
891.494	14.34
891.665	88.06
891.836	12.29
892.007	-53.25
892.178	-26.62
892.349	20.48
892.52	-34.82
892.691	14.34
892.862	53.25
893.032	-10.24
893.203	-116.73
893.374	-38.91
893.545	-59.39
893.716	-67.58
893.887	-10.24
894.057	-83.97
894.228	-38.91
894.399	-22.53
894.57	49.15
894.74	10.24
894.911	28.67
895.082	-10.24
895.253	-8.19
895.423	-10.24
895.594	-22.53
895.764	55.3
895.935	-28.67
896.106	28.67
896.276	-10.24
896.447	14.34
896.617	2.05
896.788	-32.77
896.958	40.96
897.129	32.77
897.299	-83.97
897.47	18.43
897.64	-18.43
897.81	32.77
897.981	-18.43
898.151	-34.82
898.322	47.1
898.492	-45.06
898.662	26.62
898.832	40.96
899.003	-40.96
899.173	55.3
899.343	-14.34
899.513	-38.91
