Data from USB4F104151__141__10-26-26-480.txt Node

Date: Wed Mar 12 10:26:26 EDT 2025
User: louis
Spectrometer: USB4F10415
Trigger mode: 4
Integration Time (sec): 3.000000E-2
Scans to average: 1
Electric dark correction enabled: true
Nonlinearity correction enabled: false
Boxcar width: 0
XAxis mode: Wavelengths
Number of Pixels in Spectrum: 3648
>>>>>Begin Spectral Data<<<<<
178.204	-73.21
178.424	-73.21
178.644	-73.21
178.864	-108.03
179.084	-54.78
179.304	-54.78
179.524	-46.59
179.744	68.09
179.964	-19.97
180.184	2.56
180.404	23.04
180.624	53.76
180.844	-36.35
181.064	-44.54
181.283	10.75
181.503	-17.92
181.723	61.95
181.943	-32.26
182.163	90.62
182.383	6.66
182.602	37.38
182.822	74.24
183.042	35.33
183.262	-3.58
183.482	84.48
183.701	25.09
183.921	45.57
184.141	16.9
184.361	72.19
184.58	78.33
184.8	66.05
185.02	-24.06
185.239	37.38
185.459	16.9
185.679	88.57
185.898	-38.4
186.118	70.14
186.338	45.57
186.557	96.77
186.777	-22.02
186.997	23.04
187.216	14.85
187.436	172.54
187.655	-56.83
187.875	-11.78
188.095	12.8
188.314	57.86
188.534	90.62
188.753	8.7
188.973	64
189.192	45.57
189.412	66.05
189.631	82.43
189.851	61.95
190.07	31.23
190.29	-38.4
190.509	37.38
190.729	-34.3
190.948	29.18
191.168	135.68
191.387	16.9
191.607	-26.11
191.826	23.04
192.045	-30.21
192.265	49.66
192.484	16.9
192.704	-11.78
192.923	-32.26
193.142	90.62
193.362	37.38
193.581	55.81
193.8	-62.98
194.02	47.62
194.239	0.51
194.458	125.44
194.678	16.9
194.897	0.51
195.116	141.82
195.335	57.86
195.555	-13.82
195.774	55.81
195.993	18.94
196.212	20.99
196.432	72.19
196.651	23.04
196.87	16.9
197.089	86.53
197.308	33.28
197.528	74.24
197.747	10.75
197.966	-24.06
198.185	57.86
198.404	98.81
198.623	76.29
198.842	57.86
199.062	-7.68
199.281	70.14
199.5	-7.68
199.719	45.57
199.938	14.85
200.157	45.57
200.376	-1.54
200.595	57.86
200.814	70.14
201.033	-11.78
201.252	86.53
201.471	66.05
201.69	76.29
201.909	84.48
202.128	125.44
202.347	57.86
202.566	43.52
202.785	-1.54
203.004	-9.73
203.223	57.86
203.442	-5.63
203.661	-1.54
203.879	68.09
204.098	39.42
204.317	27.14
204.536	88.57
204.755	31.23
204.974	41.47
205.193	61.95
205.411	131.58
205.63	8.7
205.849	14.85
206.068	-11.78
206.287	57.86
206.505	66.05
206.724	-5.63
206.943	18.94
207.162	2.56
207.381	49.66
207.599	64
207.818	98.81
208.037	139.77
208.255	66.05
208.474	49.66
208.693	57.86
208.911	29.18
209.13	84.48
209.349	37.38
209.567	27.14
209.786	57.86
210.005	47.62
210.223	2.56
210.442	-17.92
210.661	90.62
210.879	-50.69
211.098	78.33
211.316	49.66
211.535	12.8
211.753	59.9
211.972	27.14
212.191	-13.82
212.409	115.2
212.628	86.53
212.846	8.7
213.065	133.63
213.283	29.18
213.502	37.38
213.72	14.85
213.938	45.57
214.157	-48.64
214.375	23.04
214.594	-34.3
214.812	96.77
215.031	-40.45
215.249	8.7
215.467	2.56
215.686	35.33
215.904	86.53
216.122	-1.54
216.341	74.24
216.559	35.33
216.778	117.25
216.996	-36.35
217.214	47.62
217.432	25.09
217.651	20.99
217.869	57.86
218.087	98.81
218.306	12.8
218.524	39.42
218.742	0.51
218.96	78.33
219.179	25.09
219.397	20.99
219.615	61.95
219.833	45.57
220.051	16.9
220.27	107.01
220.488	-22.02
220.706	86.53
220.924	8.7
221.142	23.04
221.36	14.85
221.578	45.57
221.796	12.8
222.015	29.18
222.233	66.05
222.451	37.38
222.669	16.9
222.887	37.38
223.105	-46.59
223.323	23.04
223.541	-7.68
223.759	59.9
223.977	53.76
224.195	107.01
224.413	-5.63
224.631	6.66
224.849	-17.92
225.067	31.23
225.285	66.05
225.503	47.62
225.721	29.18
225.939	84.48
226.157	51.71
226.375	80.38
226.592	-32.26
226.81	16.9
227.028	49.66
227.246	121.34
227.464	4.61
227.682	47.62
227.9	80.38
228.117	10.75
228.335	25.09
228.553	39.42
228.771	41.47
228.989	18.94
229.206	6.66
229.424	64
229.642	12.8
229.86	2.56
230.077	66.05
230.295	-38.4
230.513	33.28
230.731	12.8
230.948	90.62
231.166	23.04
231.384	-5.63
231.601	14.85
231.819	12.8
232.037	25.09
232.254	-11.78
232.472	2.56
232.689	8.7
232.907	127.49
233.125	20.99
233.342	12.8
233.56	78.33
233.777	-13.82
233.995	20.99
234.213	57.86
234.43	90.62
234.648	80.38
234.865	55.81
235.083	64
235.3	72.19
235.518	82.43
235.735	66.05
235.953	25.09
236.17	25.09
236.388	-26.11
236.605	72.19
236.822	35.33
237.04	90.62
237.257	33.28
237.475	47.62
237.692	29.18
237.909	72.19
238.127	6.66
238.344	90.62
238.562	70.14
238.779	82.43
238.996	61.95
239.214	6.66
239.431	64
239.648	-42.5
239.865	-15.87
240.083	74.24
240.3	-19.97
240.517	33.28
240.735	-5.63
240.952	31.23
241.169	35.33
241.386	57.86
241.603	39.42
241.821	-52.74
242.038	61.95
242.255	33.28
242.472	-11.78
242.689	78.33
242.907	29.18
243.124	41.47
243.341	-22.02
243.558	27.14
243.775	2.56
243.992	2.56
244.209	70.14
244.426	96.77
244.643	92.67
244.86	102.91
245.078	80.38
245.295	0.51
245.512	14.85
245.729	-56.83
245.946	78.33
246.163	39.42
246.38	96.77
246.597	43.52
246.814	55.81
247.031	27.14
247.248	37.38
247.464	20.99
247.681	-1.54
247.898	43.52
248.115	0.51
248.332	61.95
248.549	74.24
248.766	53.76
248.983	31.23
249.2	55.81
249.417	72.19
249.633	31.23
249.85	47.62
250.067	-26.11
250.284	61.95
250.501	45.57
250.717	92.67
250.934	51.71
251.151	47.62
251.368	33.28
251.585	121.34
251.801	74.24
252.018	72.19
252.235	41.47
252.451	-56.83
252.668	29.18
252.885	94.72
253.102	37.38
253.318	4.61
253.535	23.04
253.752	16.9
253.968	84.48
254.185	-13.82
254.401	45.57
254.618	27.14
254.835	37.38
255.051	123.39
255.268	107.01
255.484	41.47
255.701	27.14
255.917	70.14
256.134	-3.58
256.351	12.8
256.567	66.05
256.784	39.42
257	8.7
257.217	94.72
257.433	53.76
257.65	4.61
257.866	47.62
258.082	39.42
258.299	-7.68
258.515	14.85
258.732	-44.54
258.948	78.33
259.165	-1.54
259.381	14.85
259.597	23.04
259.814	-36.35
260.03	14.85
260.246	41.47
260.463	33.28
260.679	64
260.895	43.52
261.112	61.95
261.328	84.48
261.544	2.56
261.761	43.52
261.977	41.47
262.193	57.86
262.409	76.29
262.626	102.91
262.842	27.14
263.058	27.14
263.274	117.25
263.49	12.8
263.707	35.33
263.923	90.62
264.139	-9.73
264.355	2.56
264.571	96.77
264.787	12.8
265.004	100.86
265.22	37.38
265.436	51.71
265.652	10.75
265.868	80.38
266.084	33.28
266.3	57.86
266.516	80.38
266.732	66.05
266.948	10.75
267.164	12.8
267.38	47.62
267.596	61.95
267.812	33.28
268.028	102.91
268.244	47.62
268.46	25.09
268.676	49.66
268.892	66.05
269.108	18.94
269.324	10.75
269.54	61.95
269.756	37.38
269.972	0.51
270.188	16.9
270.403	16.9
270.619	25.09
270.835	-11.78
271.051	-60.93
271.267	10.75
271.483	70.14
271.698	14.85
271.914	66.05
272.13	70.14
272.346	74.24
272.562	72.19
272.777	82.43
272.993	64
273.209	86.53
273.425	-26.11
273.64	-7.68
273.856	-26.11
274.072	64
274.287	72.19
274.503	39.42
274.719	25.09
274.934	12.8
275.15	-15.87
275.366	72.19
275.581	8.7
275.797	74.24
276.012	-7.68
276.228	43.52
276.444	39.42
276.659	31.23
276.875	33.28
277.09	8.7
277.306	-7.68
277.521	47.62
277.737	-77.31
277.952	33.28
278.168	6.66
278.383	80.38
278.599	33.28
278.814	78.33
279.03	72.19
279.245	78.33
279.461	20.99
279.676	121.34
279.892	-9.73
280.107	31.23
280.322	61.95
280.538	59.9
280.753	4.61
280.969	47.62
281.184	102.91
281.399	94.72
281.615	-3.58
281.83	25.09
282.045	-34.3
282.26	4.61
282.476	66.05
282.691	6.66
282.906	-26.11
283.122	102.91
283.337	14.85
283.552	23.04
283.767	23.04
283.983	4.61
284.198	74.24
284.413	41.47
284.628	6.66
284.843	113.15
285.058	-24.06
285.274	4.61
285.489	-3.58
285.704	57.86
285.919	35.33
286.134	57.86
286.349	57.86
286.564	14.85
286.779	84.48
286.995	72.19
287.21	33.28
287.425	119.29
287.64	-22.02
287.855	-34.3
288.07	-9.73
288.285	47.62
288.5	92.67
288.715	82.43
288.93	-46.59
289.145	127.49
289.36	55.81
289.575	35.33
289.79	-15.87
290.004	6.66
290.219	45.57
290.434	39.42
290.649	27.14
290.864	35.33
291.079	6.66
291.294	47.62
291.509	25.09
291.724	76.29
291.938	14.85
292.153	-1.54
292.368	107.01
292.583	59.9
292.798	133.63
293.012	-1.54
293.227	20.99
293.442	107.01
293.657	53.76
293.871	123.39
294.086	64
294.301	104.96
294.516	125.44
294.73	25.09
294.945	72.19
295.16	57.86
295.374	70.14
295.589	74.24
295.804	12.8
296.018	78.33
296.233	45.57
296.447	53.76
296.662	-15.87
296.877	143.87
297.091	55.81
297.306	86.53
297.52	41.47
297.735	8.7
297.949	119.29
298.164	82.43
298.378	20.99
298.593	94.72
298.807	74.24
299.022	84.48
299.236	102.91
299.451	121.34
299.665	12.8
299.88	92.67
300.094	10.75
300.309	72.19
300.523	70.14
300.737	0.51
300.952	143.87
301.166	49.66
301.381	-60.93
301.595	2.56
301.809	23.04
302.024	51.71
302.238	37.38
302.452	150.01
302.667	18.94
302.881	10.75
303.095	33.28
303.309	27.14
303.524	33.28
303.738	76.29
303.952	45.57
304.166	59.9
304.381	117.25
304.595	25.09
304.809	51.71
305.023	41.47
305.237	84.48
305.452	104.96
305.666	39.42
305.88	88.57
306.094	64
306.308	70.14
306.522	133.63
306.736	143.87
306.95	2.56
307.164	102.91
307.379	-28.16
307.593	121.34
307.807	119.29
308.021	-17.92
308.235	55.81
308.449	8.7
308.663	111.1
308.877	117.25
309.091	0.51
309.305	76.29
309.519	-5.63
309.733	57.86
309.947	14.85
310.161	31.23
310.374	47.62
310.588	96.77
310.802	31.23
311.016	4.61
311.23	61.95
311.444	39.42
311.658	84.48
311.872	55.81
312.085	100.86
312.299	68.09
312.513	35.33
312.727	39.42
312.941	47.62
313.154	29.18
313.368	6.66
313.582	-54.78
313.796	39.42
314.009	-13.82
314.223	78.33
314.437	90.62
314.651	41.47
314.864	31.23
315.078	55.81
315.292	-60.93
315.505	57.86
315.719	74.24
315.933	133.63
316.146	64
316.36	20.99
316.573	80.38
316.787	96.77
317.001	14.85
317.214	8.7
317.428	57.86
317.641	113.15
317.855	29.18
318.068	-9.73
318.282	-5.63
318.495	47.62
318.709	43.52
318.922	39.42
319.136	121.34
319.349	-3.58
319.563	29.18
319.776	96.77
319.99	55.81
320.203	78.33
320.417	39.42
320.63	45.57
320.843	119.29
321.057	74.24
321.27	78.33
321.483	64
321.697	98.81
321.91	35.33
322.124	45.57
322.337	39.42
322.55	45.57
322.763	107.01
322.977	12.8
323.19	51.71
323.403	64
323.617	109.05
323.83	64
324.043	-19.97
324.256	12.8
324.469	23.04
324.683	33.28
324.896	61.95
325.109	78.33
325.322	57.86
325.535	111.1
325.748	18.94
325.962	70.14
326.175	51.71
326.388	68.09
326.601	47.62
326.814	-67.07
327.027	70.14
327.24	129.53
327.453	-7.68
327.666	72.19
327.879	119.29
328.092	55.81
328.305	57.86
328.518	88.57
328.731	111.1
328.944	139.77
329.157	88.57
329.37	45.57
329.583	160.25
329.796	107.01
330.009	104.96
330.222	104.96
330.435	96.77
330.648	37.38
330.861	39.42
331.073	16.9
331.286	49.66
331.499	16.9
331.712	51.71
331.925	121.34
332.138	18.94
332.35	33.28
332.563	37.38
332.776	70.14
332.989	57.86
333.202	64
333.414	90.62
333.627	49.66
333.84	47.62
334.053	25.09
334.265	14.85
334.478	55.81
334.691	49.66
334.903	64
335.116	61.95
335.329	33.28
335.541	35.33
335.754	2.56
335.966	14.85
336.179	29.18
336.392	82.43
336.604	76.29
336.817	55.81
337.029	90.62
337.242	39.42
337.454	25.09
337.667	14.85
337.88	72.19
338.092	86.53
338.305	145.92
338.517	59.9
338.729	84.48
338.942	49.66
339.154	-5.63
339.367	47.62
339.579	94.72
339.792	16.9
340.004	59.9
340.217	-26.11
340.429	25.09
340.641	10.75
340.854	43.52
341.066	4.61
341.278	25.09
341.491	55.81
341.703	45.57
341.915	61.95
342.128	98.81
342.34	49.66
342.552	113.15
342.764	10.75
342.977	-26.11
343.189	74.24
343.401	12.8
343.613	86.53
343.826	70.14
344.038	51.71
344.25	70.14
344.462	55.81
344.674	43.52
344.886	68.09
345.099	104.96
345.311	55.81
345.523	43.52
345.735	6.66
345.947	23.04
346.159	43.52
346.371	43.52
346.583	25.09
346.795	135.68
347.007	-24.06
347.219	57.86
347.431	72.19
347.643	88.57
347.855	111.1
348.067	43.52
348.279	29.18
348.491	41.47
348.703	123.39
348.915	68.09
349.127	41.47
349.339	64
349.551	104.96
349.763	176.64
349.975	49.66
350.187	137.73
350.399	104.96
350.61	51.71
350.822	39.42
351.034	94.72
351.246	104.96
351.458	16.9
351.669	78.33
351.881	29.18
352.093	47.62
352.305	43.52
352.517	29.18
352.728	64
352.94	35.33
353.152	131.58
353.363	61.95
353.575	117.25
353.787	47.62
353.999	53.76
354.21	-19.97
354.422	27.14
354.633	18.94
354.845	164.35
355.057	147.97
355.268	115.2
355.48	2.56
355.692	127.49
355.903	31.23
356.115	94.72
356.326	-15.87
356.538	55.81
356.749	104.96
356.961	78.33
357.172	20.99
357.384	49.66
357.595	115.2
357.807	2.56
358.018	41.47
358.23	162.3
358.441	86.53
358.653	41.47
358.864	-3.58
359.075	74.24
359.287	64
359.498	111.1
359.709	33.28
359.921	6.66
360.132	121.34
360.344	76.29
360.555	115.2
360.766	6.66
360.977	57.86
361.189	178.69
361.4	82.43
361.611	102.91
361.823	82.43
362.034	80.38
362.245	57.86
362.456	123.39
362.667	109.05
362.879	14.85
363.09	59.9
363.301	76.29
363.512	109.05
363.723	72.19
363.935	29.18
364.146	55.81
364.357	12.8
364.568	94.72
364.779	35.33
364.99	23.04
365.201	10.75
365.412	68.09
365.623	-3.58
365.834	74.24
366.045	57.86
366.256	53.76
366.467	29.18
366.678	43.52
366.889	90.62
367.1	2.56
367.311	84.48
367.522	-5.63
367.733	82.43
367.944	57.86
368.155	57.86
368.366	80.38
368.577	41.47
368.788	100.86
368.999	49.66
369.209	64
369.42	145.92
369.631	43.52
369.842	68.09
370.053	-24.06
370.264	66.05
370.474	-7.68
370.685	12.8
370.896	31.23
371.107	61.95
371.317	80.38
371.528	57.86
371.739	88.57
371.95	41.47
372.16	86.53
372.371	23.04
372.582	23.04
372.792	139.77
373.003	61.95
373.214	16.9
373.424	88.57
373.635	74.24
373.846	53.76
374.056	94.72
374.267	86.53
374.477	123.39
374.688	76.29
374.898	55.81
375.109	25.09
375.319	57.86
375.53	45.57
375.74	78.33
375.951	90.62
376.161	141.82
376.372	133.63
376.582	72.19
376.793	66.05
377.003	66.05
377.214	-11.78
377.424	66.05
377.635	84.48
377.845	33.28
378.055	74.24
378.266	76.29
378.476	39.42
378.686	49.66
378.897	107.01
379.107	70.14
379.317	57.86
379.528	27.14
379.738	109.05
379.948	64
380.158	51.71
380.369	-19.97
380.579	113.15
380.789	119.29
380.999	-3.58
381.21	55.81
381.42	111.1
381.63	31.23
381.84	115.2
382.05	154.11
382.261	133.63
382.471	88.57
382.681	80.38
382.891	164.35
383.101	66.05
383.311	104.96
383.521	70.14
383.731	57.86
383.941	78.33
384.151	25.09
384.361	68.09
384.571	72.19
384.781	102.91
384.991	158.21
385.201	139.77
385.411	66.05
385.621	20.99
385.831	104.96
386.041	27.14
386.251	98.81
386.461	70.14
386.671	-48.64
386.881	72.19
387.091	131.58
387.301	78.33
387.511	33.28
387.72	45.57
387.93	109.05
388.14	18.94
388.35	158.21
388.56	70.14
388.769	125.44
388.979	133.63
389.189	37.38
389.399	64
389.609	45.57
389.818	135.68
390.028	98.81
390.238	33.28
390.447	102.91
390.657	72.19
390.867	39.42
391.076	115.2
391.286	121.34
391.496	-15.87
391.705	82.43
391.915	104.96
392.125	117.25
392.334	88.57
392.544	45.57
392.753	74.24
392.963	41.47
393.172	131.58
393.382	51.71
393.591	127.49
393.801	107.01
394.01	188.93
394.22	53.76
394.429	88.57
394.639	55.81
394.848	94.72
395.058	102.91
395.267	137.73
395.477	143.87
395.686	53.76
395.895	121.34
396.105	156.16
396.314	127.49
396.524	98.81
396.733	80.38
396.942	156.16
397.152	133.63
397.361	143.87
397.57	164.35
397.78	133.63
397.989	137.73
398.198	123.39
398.407	141.82
398.617	197.12
398.826	123.39
399.035	125.44
399.244	109.05
399.453	164.35
399.663	68.09
399.872	176.64
400.081	164.35
400.29	104.96
400.499	135.68
400.708	193.02
400.917	117.25
401.127	131.58
401.336	139.77
401.545	178.69
401.754	137.73
401.963	143.87
402.172	137.73
402.381	39.42
402.59	64
402.799	135.68
403.008	96.77
403.217	205.31
403.426	193.02
403.635	139.77
403.844	119.29
404.053	131.58
404.262	160.25
404.471	213.5
404.68	178.69
404.888	221.69
405.097	145.92
405.306	141.82
405.515	262.65
405.724	152.06
405.933	193.02
406.142	225.79
406.35	154.11
406.559	266.75
406.768	262.65
406.977	221.69
407.185	311.8
407.394	250.36
407.603	244.22
407.812	225.79
408.02	248.32
408.229	350.71
408.438	246.27
408.646	315.9
408.855	301.56
409.064	268.8
409.272	307.71
409.481	307.71
409.69	283.13
409.898	315.9
410.107	416.25
410.315	373.24
410.524	391.67
410.733	426.49
410.941	481.78
411.15	379.39
411.358	451.07
411.567	539.13
411.775	455.16
411.984	455.16
412.192	498.17
412.401	475.64
412.609	578.04
412.818	651.77
413.026	553.46
413.234	608.76
413.443	631.29
413.651	629.24
413.86	727.54
414.068	748.02
414.276	664.05
414.485	827.89
414.693	825.84
414.901	858.61
415.11	834.04
415.318	788.98
415.526	868.85
415.734	803.32
415.943	942.58
416.151	1016.3
416.359	1022.45
416.567	975.35
416.776	1038.83
416.984	1200.62
417.192	1155.57
417.4	1145.33
417.608	1067.5
417.817	1149.42
418.025	1262.06
418.233	1319.4
418.441	1360.36
418.649	1432.04
418.857	1516.01
419.065	1585.64
419.273	1546.73
419.481	1692.13
419.689	1745.38
419.897	1870.31
420.105	1819.11
420.313	1915.36
420.521	2011.62
420.729	2028
420.937	2060.77
421.145	2136.54
421.353	2157.02
421.561	2230.75
421.769	2288.09
421.977	2564.57
422.185	2537.95
422.393	2548.19
422.601	2814.42
422.809	2666.97
423.017	2687.45
423.224	2914.77
423.432	2925.01
423.64	3033.55
423.848	3250.64
424.056	3228.11
424.263	3400.14
424.471	3367.37
424.679	3512.78
424.887	3627.46
425.094	3809.73
425.302	4004.29
425.51	4065.73
425.718	4006.34
425.925	4067.78
426.133	4307.39
426.341	4534.71
426.548	4594.11
426.756	4723.13
426.964	4694.46
427.171	5087.67
427.379	5124.53
427.586	5255.6
427.794	5370.29
428.001	5599.66
428.209	5822.89
428.417	5767.59
428.624	6248.86
428.832	6248.86
429.039	6207.91
429.247	6132.13
429.454	6637.98
429.662	7029.14
429.869	6756.76
430.076	7258.51
430.284	6959.51
430.491	7141.78
430.699	7860.62
430.906	7647.63
431.114	7850.38
431.321	8171.91
431.528	8419.71
431.736	8833.4
431.943	9173.36
432.15	8845.69
432.358	8876.41
432.565	9578.86
432.772	9423.22
432.979	10164.58
433.187	10162.53
433.394	10113.38
433.601	10707.29
433.808	10817.88
434.016	10893.66
434.223	11344.21
434.43	12046.66
434.637	11766.09
434.844	12560.7
435.052	12708.16
435.259	12656.96
435.466	12771.65
435.673	12497.22
435.88	13613.36
436.087	14385.44
436.294	14139.69
436.501	13955.37
436.708	14237.99
436.915	14713.12
437.122	15298.84
437.329	15401.24
437.537	15548.69
437.743	15888.65
437.95	15808.78
438.157	16605.44
438.364	17357.05
438.571	16943.36
438.778	17215.74
438.985	18845.92
439.192	18358.5
439.399	18764
439.606	18460.9
439.813	19355.86
440.02	20551.88
440.227	20287.69
440.433	19804.37
440.64	20900.03
440.847	20539.59
441.054	21041.34
441.261	22130.86
441.467	21987.5
441.674	22476.97
441.881	23318.68
442.088	23283.87
442.294	23054.5
442.501	23466.14
442.708	24021.14
442.914	25297.02
443.121	25763.96
443.328	25243.77
443.534	27019.36
443.741	26349.68
443.948	26204.27
444.154	27906.13
444.361	27773.02
444.568	28106.84
444.774	27732.06
444.981	28160.08
445.187	29009.99
445.394	30464.05
445.6	29921.34
445.807	32727.05
446.013	31408.16
446.22	31844.38
446.426	33138.69
446.633	33402.88
446.839	34600.94
447.046	33312.77
447.252	34664.43
447.459	34820.08
447.665	34668.53
447.871	36075.48
448.078	37578.69
448.284	35860.44
448.491	36818.89
448.697	38332.34
448.903	38803.38
449.11	39081.9
449.316	37816.25
449.522	38918.06
449.728	40118.17
449.935	40302.49
450.141	40269.72
450.347	41146.25
450.553	39794.59
450.76	40298.39
450.966	41043.85
451.172	40959.89
451.378	41930.62
451.584	41060.24
451.791	42182.52
451.997	42004.35
452.203	42424.18
452.409	42479.48
452.615	42354.55
452.821	40947.6
453.027	40736.66
453.233	42397.56
453.44	40554.39
453.646	41244.55
453.852	41248.65
454.058	41959.3
454.264	40597.4
454.47	41035.66
454.676	40726.42
454.882	41754.5
455.088	37873.6
455.294	38506.42
455.5	39096.24
455.705	39589.8
455.911	37963.71
456.117	37361.61
456.323	36796.37
456.529	34650.1
456.735	36024.28
456.941	35178.47
457.147	34781.17
457.352	33585.15
457.558	33554.43
457.764	33245.19
457.97	32528.4
458.176	32202.77
458.381	31735.84
458.587	30382.13
458.793	30414.9
458.999	28897.35
459.204	31217.7
459.41	30050.36
459.616	28059.73
459.821	28096.6
460.027	27971.67
460.233	27463.77
460.438	26169.46
460.644	26243.18
460.85	25133.18
461.055	24551.56
461.261	24746.12
461.466	22685.86
461.672	22235.31
461.878	24010.9
462.083	22315.18
462.289	21960.88
462.494	21688.5
462.7	20775.11
462.905	20117.71
463.111	20811.97
463.316	21049.53
463.522	20469.96
463.727	20570.31
463.932	20244.68
464.138	20080.85
464.343	20187.34
464.549	19769.55
464.754	20543.69
464.959	20512.97
465.165	20095.18
465.37	19294.43
465.575	18729.19
465.781	19564.76
465.986	19626.2
466.191	18933.98
466.397	18479.33
466.602	17602.8
466.807	18317.54
467.012	18338.02
467.218	18170.09
467.423	18122.99
467.628	18368.74
467.833	18667.75
468.038	18374.89
468.244	17723.63
468.449	18395.37
468.654	17680.63
468.859	17836.27
469.064	17582.32
469.269	17015.04
469.474	16802.05
469.679	17264.89
469.885	16587.01
470.09	17056
470.295	16713.98
470.5	16558.34
470.705	16658.69
470.91	16179.47
471.115	15874.32
471.32	16419.08
471.525	16068.87
471.73	15927.56
471.935	15608.08
472.139	15372.57
472.344	15243.54
472.549	15333.65
472.754	15069.47
472.959	14836
473.164	14387.49
473.369	14197.03
473.574	15061.27
473.778	14682.4
473.983	14506.27
474.188	14356.77
474.393	13910.32
474.598	14137.64
474.802	13898.03
475.007	13635.89
475.212	13758.77
475.417	13052.22
475.621	13177.14
475.826	13187.38
476.031	12935.48
476.235	12904.76
476.44	13021.5
476.645	12732.73
476.849	12679.49
477.054	12753.21
477.259	12642.62
477.463	12349.76
477.668	12317
477.872	12271.94
478.077	12079.43
478.282	11823.44
478.486	11567.44
478.691	11741.52
478.895	11536.72
479.1	11706.7
479.304	11432.27
479.509	11293.01
479.713	11297.11
479.918	11118.93
480.122	11342.16
480.326	11223.38
480.531	11223.38
480.735	11174.23
480.94	10957.14
481.144	11485.52
481.348	10783.07
481.553	11051.35
481.757	10809.69
481.961	10711.39
482.166	11016.54
482.37	10934.62
482.574	10748.25
482.778	10877.27
482.983	11080.02
483.187	10795.36
483.391	10803.55
483.595	10791.26
483.8	10672.48
484.004	10682.72
484.208	11006.3
484.412	10727.77
484.616	10670.43
484.821	10807.64
485.025	10660.19
485.229	10772.83
485.433	10625.37
485.637	10756.44
485.841	10490.21
486.045	10633.57
486.249	10883.42
486.453	10649.95
486.657	10592.61
486.861	10703.2
487.065	10682.72
487.269	10617.18
487.473	10668.38
487.677	10783.07
487.881	10821.98
488.085	10754.4
488.289	10721.63
488.493	10768.73
488.697	10889.56
488.901	10842.46
489.105	10854.75
489.309	11012.44
489.512	10821.98
489.716	10969.43
489.92	11018.58
490.124	10676.57
490.328	11172.18
490.531	10781.02
490.735	10871.13
490.939	11245.91
491.143	10975.58
491.346	10994.01
491.55	11227.48
491.754	11211.09
491.958	11348.31
492.161	11221.33
492.365	11346.26
492.569	11495.76
492.772	11153.75
492.976	11696.46
493.18	11747.66
493.383	11659.6
493.587	11733.32
493.79	11848.01
493.994	11788.62
494.197	11880.78
494.401	12110.15
494.605	12233.03
494.808	12077.38
495.012	12142.92
495.215	12368.2
495.419	12667.2
495.622	12448.07
495.825	12783.93
496.029	12599.62
496.232	12849.47
496.436	12771.65
496.639	13338.93
496.843	13148.47
497.046	13318.45
497.249	13343.03
497.453	13277.49
497.656	13836.59
497.859	13531.44
498.063	13877.55
498.266	14233.89
498.469	14199.08
498.673	14346.53
498.876	14420.26
499.079	14668.06
499.282	14639.39
499.485	14983.45
499.689	15130.91
499.892	15247.64
500.095	15503.64
500.298	15683.86
500.501	15739.15
500.705	16056.59
500.908	16029.96
501.111	16257.29
501.314	16509.19
501.517	16728.32
501.72	17205.5
501.923	16929.02
502.126	17297.66
502.329	17643.76
502.532	17719.54
502.735	17742.07
502.938	18235.63
503.141	18153.71
503.344	18258.15
503.547	18438.37
503.75	18919.65
503.953	19097.82
504.156	19261.66
504.359	19546.33
504.562	19544.28
504.765	19949.78
504.968	20353.23
505.17	20132.04
505.373	20281.55
505.576	20685
505.779	20822.21
505.982	20990.14
506.185	21502.14
506.387	21375.16
506.59	22251.69
506.793	22302.89
506.996	22122.67
507.198	22573.22
507.401	22763.68
507.604	22923.43
507.807	23333.02
508.009	23496.86
508.212	23769.24
508.415	23935.12
508.617	24207.5
508.82	24586.38
509.022	24430.73
509.225	25168
509.428	25045.12
509.63	25282.69
509.833	25405.56
510.035	25854.07
510.238	25481.34
510.44	26128.5
510.643	26814.57
510.845	26726.5
511.048	26953.83
511.25	27381.85
511.453	27723.86
511.655	28454.99
511.858	28479.57
512.06	28708.94
512.262	28938.31
512.465	28641.35
512.667	29206.59
512.87	29880.38
513.072	29274.18
513.274	30210.1
513.477	30378.03
513.679	30732.33
513.881	31473.7
514.084	31232.04
514.286	31772.7
514.488	31772.7
514.69	32608.27
514.893	32630.8
515.095	32581.65
515.297	33374.21
515.499	33261.57
515.701	33789.95
515.904	34179.06
516.106	34248.69
516.308	34623.47
516.51	35049.45
516.712	35114.98
516.914	35166.18
517.116	35543.01
517.318	35637.22
517.52	36399.06
517.722	36392.92
517.925	37048.27
518.127	37220.3
518.329	37605.31
518.531	37269.45
518.733	38404.02
518.935	38356.92
519.136	38662.07
519.338	39180.2
519.54	39245.74
519.742	39372.71
519.944	39899.04
520.146	40699.79
520.348	40314.78
520.55	40734.61
520.752	41052.05
520.954	41973.63
521.155	41396.1
521.357	42289.02
521.559	42178.43
521.761	42854.26
521.963	42780.53
522.164	43009.9
522.366	43640.68
522.568	43687.78
522.77	44046.18
522.971	45090.64
523.173	43951.97
523.375	44650.33
523.576	44541.78
523.778	45002.58
523.98	45825.86
524.181	45807.43
524.383	45754.18
524.584	46460.73
524.786	46389.05
524.988	46237.5
525.189	46995.25
525.391	47048.5
525.592	47120.18
525.794	47517.48
525.995	47558.44
526.197	47480.62
526.398	48023.33
526.6	48377.63
526.801	48316.19
527.003	48596.76
527.204	48879.38
527.406	49088.27
527.607	49174.29
527.808	49587.98
528.01	48506.65
528.211	49248.02
528.412	50243.33
528.614	49594.12
528.815	49508.11
529.016	50325.25
529.218	50147.07
529.419	50067.2
529.62	50398.97
529.822	50532.09
530.023	50368.26
530.224	50503.42
530.425	50620.16
530.626	50546.43
530.828	50089.73
531.029	51152.63
531.23	51033.85
531.431	50779.9
531.632	51298.03
531.833	51267.31
532.035	51267.31
532.236	51259.12
532.437	51744.49
532.638	51035.89
532.839	52039.4
533.04	51560.17
533.241	51230.45
533.442	52242.15
533.643	51799.79
533.844	51525.36
534.045	51672.81
534.246	51744.49
534.447	51764.97
534.648	51621.61
534.849	52039.4
535.05	51640.04
535.251	51713.77
535.451	51435.25
535.652	52168.42
535.853	51570.41
536.054	51844.84
536.255	52078.31
536.456	51793.64
536.657	52354.79
536.857	52299.49
537.058	51746.54
537.259	52365.02
537.46	52340.45
537.66	51662.57
537.861	52158.18
538.062	52139.75
538.263	52270.82
538.463	51867.37
538.664	51609.32
538.865	52197.09
539.065	52252.39
539.266	51916.52
539.466	52549.34
539.667	51617.52
539.868	52487.9
540.068	51930.86
540.269	52330.21
540.469	52250.34
540.67	51603.18
540.87	51951.34
541.071	52119.27
541.271	52340.45
541.472	51937
541.672	51922.66
541.873	52432.61
542.073	51115.76
542.274	52231.91
542.474	51900.14
542.675	51242.74
542.875	52303.59
543.075	51875.56
543.276	51357.42
543.476	52066.02
543.676	51812.07
543.877	51984.1
544.077	51941.1
544.277	51521.26
544.478	51474.16
544.678	52160.23
544.878	51941.1
545.078	52274.91
545.279	51474.16
545.479	51506.93
545.679	51871.46
545.879	51554.03
546.079	52090.6
546.28	51443.44
546.48	51531.5
546.68	51693.29
546.88	51830.51
547.08	51701.48
547.28	51695.34
547.48	51377.9
547.68	51775.21
547.88	51394.29
548.081	51934.95
548.281	51746.54
548.481	51674.86
548.681	52053.73
548.881	51705.58
549.081	51758.83
549.28	51603.18
549.48	51939.05
549.68	51623.66
549.88	52332.26
550.08	51318.51
550.28	51867.37
550.48	51119.86
550.68	52078.31
550.88	51382
551.08	51631.85
551.279	51646.19
551.479	51130.1
551.679	51357.42
551.879	51570.41
552.079	51816.17
552.278	51582.7
552.478	51269.36
552.678	51083
552.878	51943.14
553.077	51066.61
553.277	50980.6
553.477	51736.3
553.676	51058.42
553.876	51437.3
554.076	50874.1
554.275	51455.73
554.475	50681.59
554.674	51228.4
554.874	51295.99
555.074	50820.86
555.273	51101.43
555.473	51177.2
555.672	50751.23
555.872	51031.8
556.071	50816.76
556.271	51107.57
556.47	50267.9
556.67	50665.21
556.869	50530.04
557.068	50597.63
557.268	50687.74
557.467	50480.89
557.667	50695.93
557.866	50372.35
558.065	50249.47
558.265	50116.36
558.464	49751.82
558.663	50657.02
558.863	49387.28
559.062	50624.25
559.261	49456.91
559.461	50321.15
559.66	49704.71
559.859	50095.88
560.058	49499.92
560.258	49940.23
560.457	49547.02
560.656	49817.35
560.855	49456.91
561.054	49678.09
561.253	49118.99
561.453	49628.94
561.652	49571.6
561.851	49739.53
562.05	49272.59
562.249	48785.18
562.448	49243.92
562.647	49325.84
562.846	48881.43
563.045	49162
563.244	48359.2
563.443	49063.7
563.642	48498.46
563.841	48727.83
564.04	48516.89
564.239	48672.54
564.438	48183.07
564.637	48373.53
564.836	48484.12
565.035	47974.18
565.234	48221.98
565.432	47914.79
565.631	47882.02
565.83	47746.86
566.029	47683.37
566.228	47490.86
566.427	47486.76
566.625	47335.21
566.824	46896.95
567.023	47544.11
567.222	46923.57
567.42	47339.31
567.619	47363.89
567.818	47490.86
568.016	46868.28
568.215	47091.51
568.414	46774.07
568.612	47249.2
568.811	46591.8
569.01	46583.61
569.208	45862.72
569.407	46532.41
569.605	45465.42
569.804	46855.99
570.002	45971.27
570.201	46227.26
570.4	45754.18
570.598	45498.19
570.797	45438.79
570.995	45449.03
571.193	45700.93
571.392	45340.49
571.59	44879.7
571.789	45061.97
571.987	45008.72
572.186	45121.36
572.384	45033.3
572.582	44619.61
572.781	44779.35
572.979	43898.72
573.177	44746.58
573.376	44695.38
573.574	44216.16
573.772	44236.64
573.971	43857.76
574.169	43992.93
574.367	43501.42
574.565	43626.34
574.763	43435.88
574.962	43405.16
575.16	42768.24
575.358	43517.8
575.556	42663.8
575.754	43691.88
575.952	42526.58
576.151	43177.84
576.349	42491.77
576.547	42479.48
576.745	42899.31
576.943	42710.9
577.141	42327.93
577.339	42493.82
577.537	42276.73
577.735	42536.82
577.933	42309.5
578.131	42299.26
578.329	41834.37
578.527	41834.37
578.725	41748.35
578.923	41764.74
579.121	41262.99
579.319	41529.22
579.516	41230.22
579.714	41207.69
579.912	41252.75
580.11	40843.15
580.308	41152.4
580.506	40945.55
580.704	40300.44
580.901	40855.44
581.099	40767.38
581.297	40515.48
581.495	40101.79
581.692	40130.46
581.89	39788.45
582.088	40249.24
582.285	39511.97
582.483	40175.51
582.681	39577.51
582.878	39757.73
583.076	39483.3
583.274	39942.05
583.471	38817.71
583.669	39327.66
583.866	38928.3
584.064	39298.98
584.262	38657.97
584.459	39075.76
584.657	38995.88
584.854	39126.95
585.052	38401.97
585.249	38291.38
585.447	38399.93
585.644	37851.07
585.841	38303.67
586.039	38541.24
586.236	37552.07
586.434	37779.39
586.631	37330.89
586.828	37781.44
587.026	37447.62
587.223	37279.69
587.42	37525.44
587.618	37210.06
587.815	36784.08
588.012	36691.92
588.21	36726.74
588.407	37359.56
588.604	36874.19
588.801	36407.25
588.999	36726.74
589.196	36454.36
589.393	36562.9
589.59	36055
589.787	36214.74
589.984	35741.66
590.182	35768.29
590.379	35958.75
590.576	35459.04
590.773	35874.78
590.97	35393.51
591.167	35784.67
591.364	34850.8
591.561	35418.08
591.758	34777.07
591.955	35244.01
592.152	35551.2
592.349	35086.31
592.546	34824.17
592.743	34793.45
592.94	34224.12
593.137	34840.56
593.334	34592.75
593.531	34103.29
593.727	34250.74
593.924	34125.82
594.121	34125.82
594.318	34240.5
594.515	33718.27
594.712	34041.85
594.908	33658.88
595.105	33667.07
595.302	33177.61
595.499	33523.71
595.696	33581.06
595.892	33574.91
596.089	33245.19
596.286	33024.01
596.482	33024.01
596.679	33316.87
596.876	32825.36
597.072	32446.48
597.269	32327.7
597.466	32495.63
597.662	32516.11
597.859	32419.86
598.055	32303.12
598.252	32342.03
598.448	31971.35
598.645	31954.97
598.841	31844.38
599.038	31957.02
599.234	32004.12
599.431	31590.43
599.627	31463.46
599.824	31528.99
600.02	31143.97
600.217	31289.38
600.413	31164.45
600.609	31096.87
600.806	30681.13
601.002	30783.53
601.198	30744.62
601.395	30722.09
601.591	30777.39
601.787	30412.85
601.984	30314.55
602.18	30656.56
602.376	30050.36
602.572	30144.56
602.769	30214.19
602.965	29984.82
603.161	29612.09
603.357	29845.56
603.553	29730.87
603.75	29673.53
603.946	29487.17
604.142	29407.3
604.338	29007.94
604.534	29407.3
604.73	28913.73
604.926	28923.97
605.122	29009.99
605.318	28897.35
605.514	28989.51
605.71	28641.35
605.906	29048.9
606.102	28584.01
606.298	28514.38
606.494	28846.15
606.69	28520.52
606.886	28242
607.082	27959.38
607.278	28448.85
607.474	27928.66
607.67	28307.54
607.866	27842.65
608.062	28454.99
608.257	28147.79
608.453	28250.19
608.649	27740.25
608.845	27514.97
609.041	27811.93
609.236	27549.79
609.432	27201.63
609.628	27539.55
609.824	27326.56
610.019	27525.21
610.215	27187.3
610.411	27322.46
610.606	27115.62
610.802	27383.9
610.998	27514.97
611.193	27043.94
611.389	26826.85
611.584	27013.22
611.78	26923.11
611.976	27050.08
612.171	26617.96
612.367	26562.67
612.562	26531.95
612.758	26394.73
612.953	26509.42
613.149	26486.89
613.344	26191.98
613.539	26947.68
613.735	26269.81
613.93	26034.29
614.126	26386.54
614.321	26583.15
614.517	26142.83
614.712	26222.7
614.907	25964.66
615.103	26058.87
615.298	25788.53
615.493	26488.94
615.688	25450.62
615.884	26368.11
616.079	25659.51
616.274	25421.95
616.47	25512.06
616.665	25657.46
616.86	25516.15
617.055	25598.07
617.25	25759.86
617.445	25481.34
617.641	25137.28
617.836	25491.58
618.031	24950.92
618.226	25137.28
618.421	24946.82
618.616	25223.3
618.811	24965.25
619.006	25122.94
619.201	24473.74
619.396	24701.06
619.591	24117.39
619.786	24633.48
619.981	24287.37
620.176	24508.55
620.371	23939.22
620.566	24115.34
620.761	23703.7
620.956	23931.03
621.151	23873.68
621.346	23822.48
621.541	23521.43
621.735	23761.05
621.93	22798.5
622.125	23378.08
622.32	23070.88
622.515	22913.19
622.709	22741.16
622.904	22874.27
623.099	22503.59
623.294	22663.33
623.488	22182.06
623.683	22675.62
623.878	22106.29
624.072	22300.84
624.267	22302.89
624.462	22016.18
624.656	21577.91
624.851	21725.36
625.046	21469.37
625.24	21352.63
625.435	21190.84
625.629	21285.05
625.824	21326.01
626.018	21452.98
626.213	20582.6
626.407	21049.53
626.602	20377.8
626.796	20400.33
626.991	20631.75
627.185	20142.28
627.38	20402.38
627.574	20336.84
627.768	19984.59
627.963	20048.08
628.157	19665.11
628.352	19931.34
628.546	19450.07
628.74	19912.91
628.935	19357.91
629.129	19380.44
629.323	19101.92
629.517	19077.34
629.712	19255.51
629.906	19273.95
630.1	18694.37
630.294	18827.49
630.489	18569.44
630.683	18811.1
630.877	18434.28
631.071	18188.52
631.265	18479.33
631.459	18086.12
631.653	18030.83
631.848	18186.47
632.042	17856.75
632.236	18088.17
632.43	17602.8
632.624	17664.24
632.818	17742.07
633.012	17166.59
633.206	17516.79
633.4	17563.89
633.594	17234.17
633.788	17252.6
633.982	17195.26
634.176	16955.65
634.369	16810.24
634.563	16732.42
634.757	16546.05
634.951	16988.41
635.145	16814.34
635.339	16527.62
635.533	16392.45
635.726	16333.06
635.92	16144.65
636.114	16220.42
636.308	16019.72
636.501	15847.69
636.695	15909.13
636.889	15878.41
637.083	15694.1
637.276	15446.29
637.47	15565.07
637.664	15431.96
637.857	15364.37
638.051	15341.85
638.244	15186.2
638.438	15126.81
638.632	15350.04
638.825	14889.24
639.019	15046.94
639.212	14721.31
639.406	14764.32
639.599	14649.63
639.793	14530.85
639.986	14342.44
640.18	14633.25
640.373	14295.33
640.567	14266.66
640.76	14299.43
640.954	14182.7
641.147	13895.98
641.34	14074.15
641.534	13951.28
641.727	13789.49
641.92	13885.74
642.114	13697.33
642.307	13732.14
642.5	13801.77
642.694	13263.16
642.887	13308.21
643.08	13644.08
643.273	13197.62
643.467	13218.1
643.66	13209.91
643.853	13076.79
644.046	13072.7
644.239	13046.07
644.432	12785.98
644.626	12869.95
644.819	12579.14
645.012	12644.67
645.205	12779.84
645.398	12466.5
645.591	12538.18
645.784	12558.66
645.977	12073.29
646.17	12116.3
646.363	12239.17
646.556	11995.46
646.749	11907.4
646.942	12276.04
647.135	11893.07
647.328	11839.82
647.521	11919.69
647.714	11592.02
647.907	11647.31
648.099	11581.78
648.292	11567.44
648.485	11688.27
648.678	11389.27
648.871	11395.41
649.064	11444.56
649.256	11163.99
649.449	11168.09
649.642	11247.96
649.835	11170.13
650.027	11059.54
650.22	10975.58
650.413	11100.5
650.605	10955.1
650.798	10686.81
650.991	10746.2
651.183	10627.42
651.376	10619.23
651.568	10479.97
651.761	10486.11
651.954	10469.73
652.146	10400.1
652.339	10275.17
652.531	10447.2
652.724	10246.5
652.916	10078.57
653.109	10062.18
653.301	10148.2
653.494	10148.2
653.686	9996.65
653.879	9998.7
654.071	10111.33
654.263	9738.6
654.456	9711.98
654.648	9898.34
654.84	9703.79
655.033	9544.05
655.225	9566.57
655.417	9611.63
655.61	9400.69
655.802	9574.77
655.994	9593.2
656.186	9242.99
656.379	9460.08
656.571	9345.39
656.763	9202.04
656.955	9165.17
657.148	9107.83
657.34	9038.2
657.532	8978.81
657.724	9085.3
657.916	8929.66
658.108	9105.78
658.3	8855.93
658.492	8810.87
658.684	8767.87
658.876	8595.84
659.068	8606.08
659.26	8520.06
659.452	8532.35
659.644	8546.69
659.836	8661.37
660.028	8458.62
660.22	8395.14
660.412	8350.08
660.604	8454.53
660.796	8411.52
660.988	8395.14
661.18	8112.52
661.372	8067.46
661.563	8036.74
661.755	8079.75
661.947	8069.51
662.139	8118.66
662.331	7963.01
662.522	7895.43
662.714	7872.9
662.906	7803.27
663.097	7864.71
663.289	7762.31
663.481	7485.84
663.673	7715.21
663.864	7561.61
664.056	7612.81
664.247	7582.09
664.439	7303.57
664.631	7586.19
664.822	7358.86
665.014	7455.12
665.205	7420.3
665.397	7268.75
665.588	7397.78
665.78	7268.75
665.971	7233.94
666.163	7307.66
666.354	6996.37
666.546	7164.31
666.737	7045.52
666.929	6947.22
667.12	7215.51
667.311	6865.3
667.503	6838.68
667.694	6930.84
667.885	6760.86
668.077	7012.76
668.268	6750.62
668.459	6707.61
668.651	6691.23
668.842	6771.1
669.033	6668.7
669.224	6693.27
669.416	6646.17
669.607	6506.91
669.798	6420.89
669.989	6576.54
670.18	6480.29
670.371	6447.52
670.563	6431.13
670.754	6414.75
670.945	6504.86
671.136	6515.1
671.327	6422.94
671.518	6324.64
671.709	6265.25
671.9	6115.75
672.091	6173.09
672.282	6355.36
672.473	6103.46
672.664	6162.85
672.855	6130.08
673.046	6338.98
673.237	6128.03
673.428	5978.53
673.619	6134.18
673.809	5949.86
674	6037.92
674.191	5982.63
674.382	6003.11
674.573	5968.29
674.764	5695.91
674.954	5939.62
675.145	5896.61
675.336	5849.51
675.527	5816.74
675.717	5898.66
675.908	5876.13
676.099	5839.27
676.289	5802.41
676.48	5775.78
676.671	5876.13
676.861	5763.5
677.052	5763.5
677.243	5570.99
677.433	5611.95
677.624	5700.01
677.814	5669.29
678.005	5640.62
678.195	5642.67
678.386	5476.78
678.576	5480.88
678.767	5325.23
678.957	5749.16
679.148	5599.66
679.338	5665.19
679.529	5396.91
679.719	5607.85
679.909	5499.31
680.1	5390.77
680.29	5423.53
680.481	5429.68
680.671	5280.18
680.861	5497.26
681.052	5478.83
681.242	5288.37
681.432	5411.25
681.622	5306.8
681.813	5327.28
682.003	5462.44
682.193	5329.33
682.383	5216.69
682.573	5265.84
682.764	5220.78
682.954	5292.46
683.144	5194.16
683.334	5124.53
683.524	5114.29
683.714	5251.5
683.904	5104.05
684.094	5175.73
684.284	5179.82
684.474	5263.79
684.664	5005.75
684.854	5167.54
685.044	5040.56
685.234	4964.79
685.424	4966.84
685.614	5069.23
685.804	4954.55
685.994	4993.46
686.184	5011.89
686.374	4895.16
686.564	4852.15
686.753	4915.64
686.943	4940.21
687.133	4735.42
687.323	4643.26
687.513	5022.13
687.702	4741.56
687.892	4686.26
688.082	4790.71
688.272	4704.7
688.461	4757.94
688.651	4639.16
688.841	4608.44
689.03	4669.88
689.22	4563.39
689.41	4776.38
689.599	4637.11
689.789	4559.29
689.979	4592.06
690.168	4477.37
690.358	4499.9
690.547	4530.62
690.737	4661.69
690.926	4489.66
691.116	4452.8
691.305	4346.3
691.495	4372.93
691.684	4415.93
691.874	4315.58
692.063	4393.4
692.252	4264.38
692.442	4364.73
692.631	4125.12
692.82	4282.81
693.01	4227.52
693.199	4149.7
693.388	4340.16
693.578	4153.79
693.767	4331.97
693.956	4260.29
694.146	4215.23
694.335	4065.73
694.524	3987.91
694.713	4004.29
694.902	4121.03
695.092	4164.03
695.281	4204.99
695.47	4051.39
695.659	3961.28
695.848	3932.61
696.037	3957.19
696.226	4022.72
696.415	4020.67
696.604	4043.2
696.793	3883.46
696.982	4006.34
697.171	4080.07
697.36	3998.15
697.549	4030.91
697.738	3924.42
697.927	3912.13
698.116	3983.81
698.305	3924.42
698.494	3877.32
698.683	3994.05
698.872	3819.97
699.061	3623.37
699.25	3817.93
699.438	3799.49
699.627	3854.79
699.816	3791.3
700.005	3858.89
700.193	3811.78
700.382	3826.12
700.571	3801.54
700.76	3668.42
700.948	3809.73
701.137	3748.29
701.326	3770.82
701.514	3713.48
701.703	3752.39
701.892	3695.05
702.08	3826.12
702.269	3666.38
702.457	3606.98
702.646	3770.82
702.834	3641.8
703.023	3604.94
703.212	3793.35
703.4	3774.92
703.589	3666.38
703.777	3736.01
703.965	3615.18
704.154	3606.98
704.342	3584.46
704.531	3430.86
704.719	3494.35
704.907	3688.9
705.096	3430.86
705.284	3668.42
705.472	3537.35
705.661	3578.31
705.849	3645.9
706.037	3482.06
706.226	3619.27
706.414	3645.9
706.602	3561.93
706.79	3568.07
706.979	3447.24
707.167	3537.35
707.355	3394
707.543	3482.06
707.731	3391.95
707.919	3488.2
708.107	3346.89
708.296	3461.58
708.484	3471.82
708.672	3402.19
708.86	3580.36
709.048	3394
709.236	3355.08
709.424	3420.62
709.612	3369.42
709.8	3451.34
709.988	3398.09
710.176	3383.76
710.364	3303.89
710.551	3328.46
710.739	3260.88
710.927	3307.98
711.115	3314.13
711.303	3525.07
711.491	3279.31
711.679	3310.03
711.866	3451.34
712.054	3377.61
712.242	3269.07
712.43	3310.03
712.617	3228.11
712.805	3127.76
712.993	3203.54
713.181	3260.88
713.368	3451.34
713.556	3219.92
713.744	3234.25
713.931	3369.42
714.119	3277.26
714.306	3293.65
714.494	3246.54
714.682	3205.58
714.869	3181.01
715.057	3138
715.244	3178.96
715.432	3310.03
715.619	3195.34
715.807	3117.52
715.994	3209.68
716.182	3267.02
716.369	3289.55
716.556	3191.25
716.744	3148.24
716.931	3246.54
717.119	3084.75
717.306	3027.41
717.493	3156.43
717.681	3111.38
717.868	3146.19
718.055	3135.95
718.242	3021.27
718.43	3092.94
718.617	3105.23
718.804	3129.81
718.991	2998.74
719.179	3105.23
719.366	3060.18
719.553	3041.75
719.74	3054.03
719.927	3039.7
720.114	2988.5
720.301	3133.9
720.488	2941.4
720.676	2884.05
720.863	2949.59
721.05	2976.21
721.237	2845.14
721.424	2986.45
721.611	3006.93
721.798	2892.24
721.985	3017.17
722.172	2955.73
722.358	2888.15
722.545	2976.21
722.732	2957.78
722.919	3025.36
723.106	2957.78
723.293	3021.27
723.48	2892.24
723.667	3006.93
723.853	2900.44
724.04	2849.24
724.227	2927.06
724.414	2963.92
724.6	2826.71
724.787	2892.24
724.974	2857.43
725.161	2879.96
725.347	2712.02
725.534	2722.26
725.72	2834.9
725.907	2769.37
726.094	2957.78
726.28	2814.42
726.467	2742.74
726.653	2695.64
726.84	2800.09
727.027	2740.69
727.213	2697.69
727.4	2771.41
727.586	2746.84
727.773	2812.37
727.959	2802.13
728.145	2742.74
728.332	2681.3
728.518	2650.58
728.705	2677.21
728.891	2709.97
729.077	2736.6
729.264	2808.28
729.45	2722.26
729.636	2697.69
729.823	2615.77
730.009	2664.92
730.195	2664.92
730.382	2683.35
730.568	2767.32
730.754	2687.45
730.94	2578.9
731.126	2804.18
731.313	2671.06
731.499	2648.54
731.685	2611.67
731.871	2623.96
732.057	2660.82
732.243	2650.58
732.429	2560.47
732.615	2595.29
732.801	2693.59
732.987	2521.56
733.173	2619.86
733.359	2527.71
733.545	2570.71
733.731	2583
733.917	2550.23
734.103	2568.66
734.289	2597.34
734.475	2615.77
734.661	2583
734.847	2531.8
735.033	2576.86
735.219	2562.52
735.404	2566.62
735.59	2445.79
735.776	2515.42
735.962	2558.42
736.148	2474.46
736.333	2390.49
736.519	2525.66
736.705	2503.13
736.89	2466.27
737.076	2474.46
737.262	2331.1
737.447	2421.21
737.633	2367.96
737.819	2357.72
738.004	2392.54
738.19	2394.59
738.375	2355.68
738.561	2398.68
738.747	2384.35
738.932	2259.42
739.118	2251.23
739.303	2275.81
739.489	2431.45
739.674	2302.43
739.859	2179.55
740.045	2302.43
740.23	2320.86
740.416	2263.52
740.601	2271.71
740.786	2273.76
740.972	2202.08
741.157	2261.47
741.342	2179.55
741.528	2222.56
741.713	2218.46
741.898	2265.57
742.084	2271.71
742.269	2179.55
742.454	2161.12
742.639	2136.54
742.824	2339.29
743.01	2214.37
743.195	2197.98
743.38	2071.01
743.565	2028
743.75	2161.12
743.935	2130.4
744.12	1968.61
744.305	1974.75
744.49	2044.38
744.675	2089.44
744.86	1987.04
745.045	1958.37
745.23	2079.2
745.415	1956.32
745.6	1958.37
745.785	2011.62
745.97	1984.99
746.155	2081.25
746.34	1948.13
746.525	1935.84
746.71	1864.16
746.895	1884.64
747.079	1870.31
747.264	1849.83
747.449	1925.6
747.634	1982.95
747.819	1882.6
748.003	1702.37
748.188	1819.11
748.373	1798.63
748.557	1898.98
748.742	1808.87
748.927	1841.64
749.111	1837.54
749.296	1720.81
749.481	1804.77
749.665	1821.16
749.85	1759.72
750.034	1786.34
750.219	1688.04
750.404	1685.99
750.588	1774.05
750.773	1501.67
750.957	1647.08
751.141	1620.46
751.326	1614.31
751.51	1563.11
751.695	1606.12
751.879	1573.35
752.064	1696.23
752.248	1655.27
752.432	1534.44
752.617	1524.2
752.801	1556.97
752.985	1616.36
753.17	1497.58
753.354	1503.72
753.538	1538.54
753.722	1481.19
753.907	1491.43
754.091	1429.99
754.275	1518.06
754.459	1483.24
754.643	1417.71
754.828	1429.99
755.012	1495.53
755.196	1346.03
755.38	1456.62
755.564	1350.12
755.748	1319.4
755.932	1391.08
756.116	1415.66
756.3	1352.17
756.484	1374.7
756.668	1315.31
756.852	1270.25
757.036	1229.29
757.22	1266.16
757.404	1300.97
757.588	1296.88
757.772	1372.65
757.956	1229.29
758.14	1260.01
758.323	1231.34
758.507	1130.99
758.691	1186.29
758.875	1241.58
759.059	1247.72
759.242	1161.71
759.426	1116.65
759.61	1225.2
759.794	1114.61
759.977	1264.11
760.161	1219.05
760.345	1186.29
760.528	1223.15
760.712	1143.28
760.895	1167.85
761.079	1165.81
761.263	1106.42
761.446	1044.98
761.63	1077.74
761.813	1139.18
761.997	1157.61
762.18	1122.8
762.364	1139.18
762.547	1149.42
762.731	1120.75
762.914	1036.78
763.098	1059.31
763.281	1040.88
763.464	1044.98
763.648	1116.65
763.831	1053.17
764.015	1028.59
764.198	1106.42
764.381	1014.26
764.564	1165.81
764.748	1057.26
764.931	993.78
765.114	1051.12
765.297	971.25
765.481	963.06
765.664	967.15
765.847	1030.64
766.03	975.35
766.213	954.87
766.397	999.92
766.58	958.96
766.763	954.87
766.946	885.23
767.129	932.34
767.312	1016.3
767.495	975.35
767.678	1001.97
767.861	989.68
768.044	952.82
768.227	930.29
768.41	963.06
768.593	940.53
768.776	922.1
768.959	1057.26
769.142	987.63
769.324	846.32
769.507	893.43
769.69	844.28
769.873	897.52
770.056	915.95
770.239	913.91
770.421	967.15
770.604	889.33
770.787	831.99
770.97	846.32
771.152	801.27
771.335	885.23
771.518	854.51
771.7	893.43
771.883	944.63
772.066	801.27
772.248	774.64
772.431	819.7
772.613	834.04
772.796	879.09
772.978	862.71
773.161	842.23
773.343	803.32
773.526	821.75
773.708	801.27
773.891	801.27
774.073	793.08
774.256	750.07
774.438	838.13
774.621	715.25
774.803	795.12
774.985	668.15
775.168	719.35
775.35	772.6
775.532	778.74
775.715	727.54
775.897	778.74
776.079	735.73
776.261	838.13
776.444	725.49
776.626	741.88
776.808	737.78
776.99	676.34
777.173	731.64
777.355	737.78
777.537	700.92
777.719	694.77
777.901	604.66
778.083	694.77
778.265	625.14
778.447	690.68
778.629	635.38
778.811	717.3
778.993	698.87
779.175	700.92
779.357	563.7
779.539	539.13
779.721	657.91
779.903	684.53
780.085	606.71
780.267	664.05
780.449	555.51
780.631	731.64
780.812	516.6
780.994	565.75
781.176	594.42
781.358	555.51
781.54	483.83
781.721	512.5
781.903	530.94
782.085	451.07
782.267	555.51
782.448	530.94
782.63	563.7
782.812	602.61
782.993	559.61
783.175	528.89
783.357	516.6
783.538	561.66
783.72	596.47
783.901	535.03
784.083	594.42
784.264	479.74
784.446	528.89
784.627	473.59
784.809	440.83
784.99	418.3
785.172	475.64
785.353	516.6
785.535	492.02
785.716	408.06
785.897	479.74
786.079	442.87
786.26	549.37
786.441	502.26
786.623	496.12
786.804	391.67
786.985	514.55
787.167	393.72
787.348	412.15
787.529	492.02
787.71	565.75
787.891	504.31
788.073	457.21
788.254	395.77
788.435	434.68
788.616	356.86
788.797	401.91
788.978	485.88
789.159	408.06
789.34	436.73
789.522	428.54
789.703	360.95
789.884	328.19
790.065	389.63
790.246	346.62
790.427	406.01
790.607	442.87
790.788	397.82
790.969	340.47
791.15	424.44
791.331	442.87
791.512	393.72
791.693	373.24
791.874	385.53
792.054	451.07
792.235	336.38
792.416	367.1
792.597	373.24
792.778	295.42
792.958	367.1
793.139	381.43
793.32	346.62
793.5	332.28
793.681	377.34
793.862	414.2
794.042	348.67
794.223	279.04
794.404	336.38
794.584	311.8
794.765	270.84
794.945	393.72
795.126	373.24
795.306	317.95
795.487	383.48
795.667	313.85
795.848	303.61
796.028	281.08
796.209	352.76
796.389	307.71
796.57	279.04
796.75	274.94
796.93	248.32
797.111	233.98
797.291	276.99
797.471	307.71
797.652	258.56
797.832	229.88
798.012	297.47
798.192	274.94
798.373	285.18
798.553	231.93
798.733	295.42
798.913	270.84
799.093	303.61
799.274	236.03
799.454	248.32
799.634	301.56
799.814	242.17
799.994	328.19
800.174	287.23
800.354	233.98
800.534	229.88
800.714	240.12
800.894	295.42
801.074	217.6
801.254	158.21
801.434	315.9
801.614	246.27
801.794	250.36
801.974	713.21
802.154	289.28
802.334	250.36
802.514	254.46
802.693	256.51
802.873	221.69
803.053	262.65
803.233	256.51
803.413	221.69
803.592	279.04
803.772	279.04
803.952	272.89
804.131	170.49
804.311	242.17
804.491	274.94
804.67	205.31
804.85	219.64
805.03	264.7
805.209	188.93
805.389	266.75
805.568	147.97
805.748	197.12
805.928	205.31
806.107	242.17
806.287	242.17
806.466	213.5
806.646	211.45
806.825	180.73
807.004	193.02
807.184	276.99
807.363	252.41
807.543	197.12
807.722	258.56
807.901	209.4
808.081	205.31
808.26	217.6
808.439	242.17
808.619	168.45
808.798	162.3
808.977	168.45
809.156	190.97
809.336	211.45
809.515	248.32
809.694	180.73
809.873	172.54
810.052	190.97
810.231	260.6
810.411	258.56
810.59	127.49
810.769	139.77
810.948	174.59
811.127	174.59
811.306	203.26
811.485	156.16
811.664	203.26
811.843	176.64
812.022	299.52
812.201	156.16
812.38	209.4
812.559	219.64
812.737	209.4
812.916	127.49
813.095	180.73
813.274	182.78
813.453	182.78
813.632	158.21
813.811	197.12
813.989	86.53
814.168	197.12
814.347	121.34
814.526	119.29
814.704	156.16
814.883	213.5
815.062	162.3
815.24	150.01
815.419	102.91
815.598	66.05
815.776	109.05
815.955	174.59
816.133	121.34
816.312	199.16
816.49	115.2
816.669	137.73
816.847	121.34
817.026	223.74
817.204	90.62
817.383	121.34
817.561	215.55
817.74	213.5
817.918	217.6
818.097	188.93
818.275	170.49
818.453	139.77
818.632	213.5
818.81	150.01
818.988	123.39
819.167	141.82
819.345	160.25
819.523	178.69
819.701	180.73
819.879	98.81
820.058	152.06
820.236	133.63
820.414	158.21
820.592	117.25
820.77	162.3
820.948	137.73
821.127	127.49
821.305	72.19
821.483	64
821.661	102.91
821.839	180.73
822.017	147.97
822.195	104.96
822.373	115.2
822.551	172.54
822.729	158.21
822.907	139.77
823.085	164.35
823.262	61.95
823.44	166.4
823.618	152.06
823.796	160.25
823.974	123.39
824.152	125.44
824.329	86.53
824.507	199.16
824.685	223.74
824.863	98.81
825.04	47.62
825.218	121.34
825.396	96.77
825.574	178.69
825.751	98.81
825.929	172.54
826.107	150.01
826.284	147.97
826.462	111.1
826.639	82.43
826.817	141.82
826.994	96.77
827.172	45.57
827.349	98.81
827.527	90.62
827.704	41.47
827.882	141.82
828.059	127.49
828.237	152.06
828.414	137.73
828.591	84.48
828.769	59.9
828.946	82.43
829.124	90.62
829.301	86.53
829.478	55.81
829.655	84.48
829.833	129.53
830.01	66.05
830.187	123.39
830.364	115.2
830.542	100.86
830.719	66.05
830.896	57.86
831.073	66.05
831.25	82.43
831.427	115.2
831.604	86.53
831.782	57.86
831.959	86.53
832.136	86.53
832.313	80.38
832.49	88.57
832.667	98.81
832.844	96.77
833.021	88.57
833.198	88.57
833.374	141.82
833.551	90.62
833.728	96.77
833.905	72.19
834.082	0.51
834.259	82.43
834.436	111.1
834.612	45.57
834.789	123.39
834.966	57.86
835.143	109.05
835.319	35.33
835.496	61.95
835.673	72.19
835.85	49.66
836.026	31.23
836.203	94.72
836.38	111.1
836.556	78.33
836.733	119.29
836.909	154.11
837.086	35.33
837.262	107.01
837.439	59.9
837.616	27.14
837.792	137.73
837.968	94.72
838.145	8.7
838.321	94.72
838.498	8.7
838.674	117.25
838.851	82.43
839.027	18.94
839.203	94.72
839.38	0.51
839.556	-3.58
839.732	104.96
839.909	-3.58
840.085	74.24
840.261	82.43
840.437	107.01
840.614	109.05
840.79	98.81
840.966	68.09
841.142	55.81
841.318	70.14
841.494	76.29
841.671	90.62
841.847	49.66
842.023	-9.73
842.199	135.68
842.375	55.81
842.551	45.57
842.727	86.53
842.903	12.8
843.079	25.09
843.255	72.19
843.431	70.14
843.607	100.86
843.783	12.8
843.959	70.14
844.134	20.99
844.31	90.62
844.486	49.66
844.662	125.44
844.838	70.14
845.013	29.18
845.189	25.09
845.365	20.99
845.541	57.86
845.716	66.05
845.892	43.52
846.068	66.05
846.244	68.09
846.419	152.06
846.595	47.62
846.77	90.62
846.946	139.77
847.122	143.87
847.297	31.23
847.473	107.01
847.648	-5.63
847.824	100.86
847.999	39.42
848.175	125.44
848.35	90.62
848.526	121.34
848.701	10.75
848.876	14.85
849.052	14.85
849.227	10.75
849.403	8.7
849.578	18.94
849.753	57.86
849.929	8.7
850.104	0.51
850.279	10.75
850.454	49.66
850.63	66.05
850.805	147.97
850.98	64
851.155	23.04
851.33	64
851.505	76.29
851.681	113.15
851.856	35.33
852.031	2.56
852.206	25.09
852.381	23.04
852.556	49.66
852.731	35.33
852.906	113.15
853.081	84.48
853.256	10.75
853.431	84.48
853.606	14.85
853.781	33.28
853.956	23.04
854.131	-9.73
854.305	90.62
854.48	109.05
854.655	121.34
854.83	43.52
855.005	-1.54
855.18	74.24
855.354	23.04
855.529	88.57
855.704	0.51
855.879	0.51
856.053	37.38
856.228	6.66
856.403	64
856.577	109.05
856.752	33.28
856.926	-9.73
857.101	16.9
857.276	14.85
857.45	25.09
857.625	-15.87
857.799	10.75
857.974	-1.54
858.148	80.38
858.323	41.47
858.497	39.42
858.672	88.57
858.846	66.05
859.02	188.93
859.195	-15.87
859.369	-22.02
859.543	25.09
859.718	20.99
859.892	43.52
860.066	-3.58
860.241	104.96
860.415	0.51
860.589	2.56
860.763	-36.35
860.938	18.94
861.112	23.04
861.286	39.42
861.46	12.8
861.634	41.47
861.808	14.85
861.982	82.43
862.157	61.95
862.331	82.43
862.505	35.33
862.679	-19.97
862.853	10.75
863.027	35.33
863.201	68.09
863.375	-17.92
863.549	41.47
863.722	72.19
863.896	74.24
864.07	10.75
864.244	6.66
864.418	41.47
864.592	64
864.766	49.66
864.939	29.18
865.113	53.76
865.287	66.05
865.461	37.38
865.634	14.85
865.808	61.95
865.982	66.05
866.156	-65.02
866.329	-91.65
866.503	16.9
866.676	90.62
866.85	25.09
867.024	-65.02
867.197	78.33
867.371	4.61
867.544	-24.06
867.718	14.85
867.891	39.42
868.065	61.95
868.238	66.05
868.412	57.86
868.585	8.7
868.759	115.2
868.932	59.9
869.105	27.14
869.279	8.7
869.452	107.01
869.625	-36.35
869.799	23.04
869.972	18.94
870.145	31.23
870.319	70.14
870.492	80.38
870.665	8.7
870.838	-44.54
871.011	-40.45
871.185	14.85
871.358	57.86
871.531	18.94
871.704	27.14
871.877	0.51
872.05	45.57
872.223	0.51
872.396	53.76
872.569	53.76
872.742	-75.26
872.915	29.18
873.088	2.56
873.261	39.42
873.434	-11.78
873.607	14.85
873.78	23.04
873.953	-17.92
874.126	-15.87
874.299	78.33
874.471	49.66
874.644	18.94
874.817	74.24
874.99	8.7
875.163	119.29
875.335	29.18
875.508	35.33
875.681	76.29
875.853	25.09
876.026	-3.58
876.199	-48.64
876.371	10.75
876.544	-3.58
876.717	-1.54
876.889	-71.17
877.062	55.81
877.234	-15.87
877.407	10.75
877.579	-7.68
877.752	33.28
877.924	18.94
878.097	55.81
878.269	-15.87
878.442	-26.11
878.614	35.33
878.786	84.48
878.959	43.52
879.131	16.9
879.303	-48.64
879.476	41.47
879.648	119.29
879.82	10.75
879.993	8.7
880.165	33.28
880.337	18.94
880.509	45.57
880.681	-26.11
880.854	-52.74
881.026	49.66
881.198	90.62
881.37	-7.68
881.542	43.52
881.714	0.51
881.886	2.56
882.058	23.04
882.23	121.34
882.402	-17.92
882.574	20.99
882.746	-11.78
882.918	51.71
883.09	49.66
883.262	-48.64
883.434	37.38
883.606	33.28
883.778	8.7
883.95	18.94
884.122	0.51
884.293	82.43
884.465	-15.87
884.637	16.9
884.809	6.66
884.98	49.66
885.152	33.28
885.324	-28.16
885.496	12.8
885.667	-17.92
885.839	8.7
886.011	4.61
886.182	31.23
886.354	0.51
886.525	33.28
886.697	29.18
886.869	41.47
887.04	-3.58
887.212	-19.97
887.383	70.14
887.555	41.47
887.726	25.09
887.897	-60.93
888.069	31.23
888.24	33.28
888.412	-67.07
888.583	-38.4
888.754	29.18
888.926	-42.5
889.097	16.9
889.268	-3.58
889.44	49.66
889.611	16.9
889.782	10.75
889.953	-19.97
890.125	55.81
890.296	88.57
890.467	-17.92
890.638	78.33
890.809	-9.73
890.98	4.61
891.151	4.61
891.323	51.71
891.494	20.99
891.665	8.7
891.836	-26.11
892.007	-26.11
892.178	53.76
892.349	74.24
892.52	-7.68
892.691	37.38
892.862	49.66
893.032	18.94
893.203	45.57
893.374	41.47
893.545	39.42
893.716	14.85
893.887	51.71
894.057	12.8
894.228	33.28
894.399	14.85
894.57	27.14
894.74	-58.88
894.911	-15.87
895.082	-60.93
895.253	-32.26
895.423	41.47
895.594	41.47
895.764	41.47
895.935	-7.68
896.106	-7.68
896.276	-77.31
896.447	-75.26
896.617	39.42
896.788	-9.73
896.958	-9.73
897.129	-42.5
897.299	-73.21
897.47	35.33
897.64	-34.3
897.81	-24.06
897.981	-7.68
898.151	6.66
898.322	-7.68
898.492	33.28
898.662	45.57
898.832	14.85
899.003	0.51
899.173	94.72
899.343	6.66
899.513	-11.78
