Data from USB4F104151__190__10-28-46-061.txt Node

Date: Wed Mar 12 10:28:46 EDT 2025
User: louis
Spectrometer: USB4F10415
Trigger mode: 4
Integration Time (sec): 3.000000E-2
Scans to average: 1
Electric dark correction enabled: true
Nonlinearity correction enabled: false
Boxcar width: 0
XAxis mode: Wavelengths
Number of Pixels in Spectrum: 3648
>>>>>Begin Spectral Data<<<<<
178.204	-27.99
178.424	-27.99
178.644	-27.99
178.864	-101.72
179.084	-87.38
179.304	45.74
179.524	-40.28
179.744	-42.32
179.964	53.93
180.184	-36.18
180.404	2.73
180.624	2.73
180.844	-13.65
181.064	2.73
181.283	17.07
181.503	-11.61
181.723	19.11
181.943	-42.32
182.163	51.88
182.383	-23.89
182.602	47.79
182.822	103.08
183.042	72.36
183.262	-1.37
183.482	-19.8
183.701	53.93
183.921	70.31
184.141	35.5
184.361	35.5
184.58	76.46
184.8	23.21
185.02	-44.37
185.239	86.7
185.459	4.78
185.679	115.37
185.898	12.97
186.118	92.84
186.338	8.87
186.557	8.87
186.777	8.87
186.997	-7.51
187.216	10.92
187.436	84.65
187.655	103.08
187.875	58.03
188.095	-5.46
188.314	4.78
188.534	10.92
188.753	-11.61
188.973	0.68
189.192	51.88
189.412	2.73
189.631	29.35
189.851	66.22
190.07	45.74
190.29	12.97
190.509	84.65
190.729	64.17
190.948	-7.51
191.168	115.37
191.387	35.5
191.607	35.5
191.826	41.64
192.045	10.92
192.265	23.21
192.484	125.61
192.704	0.68
192.923	31.4
193.142	55.98
193.362	-21.84
193.581	96.94
193.8	82.6
194.02	121.51
194.239	-3.41
194.458	60.07
194.678	-40.28
194.897	90.79
195.116	27.31
195.335	10.92
195.555	37.55
195.774	68.27
195.993	-23.89
196.212	-11.61
196.432	0.68
196.651	0.68
196.87	47.79
197.089	58.03
197.308	27.31
197.528	78.51
197.747	35.5
197.966	37.55
198.185	12.97
198.404	-15.7
198.623	35.5
198.842	80.55
199.062	86.7
199.281	17.07
199.5	-9.56
199.719	12.97
199.938	21.16
200.157	12.97
200.376	12.97
200.595	27.31
200.814	4.78
201.033	-27.99
201.252	-21.84
201.471	45.74
201.69	41.64
201.909	-15.7
202.128	58.03
202.347	49.83
202.566	-15.7
202.785	58.03
203.004	-19.8
203.223	86.7
203.442	25.26
203.661	-5.46
203.879	17.07
204.098	80.55
204.317	0.68
204.536	60.07
204.755	-5.46
204.974	0.68
205.193	23.21
205.411	90.79
205.63	-3.41
205.849	37.55
206.068	-83.28
206.287	-30.04
206.505	33.45
206.724	41.64
206.943	60.07
207.162	-23.89
207.381	25.26
207.599	51.88
207.818	43.69
208.037	37.55
208.255	19.11
208.474	45.74
208.693	82.6
208.911	-3.41
209.13	31.4
209.349	72.36
209.567	27.31
209.786	45.74
210.005	31.4
210.223	0.68
210.442	-15.7
210.661	27.31
210.879	21.16
211.098	51.88
211.316	31.4
211.535	45.74
211.753	19.11
211.972	49.83
212.191	-30.04
212.409	17.07
212.628	-5.46
212.846	-36.18
213.065	45.74
213.283	86.7
213.502	4.78
213.72	-46.42
213.938	62.12
214.157	-71
214.375	23.21
214.594	33.45
214.812	19.11
215.031	68.27
215.249	-15.7
215.467	-38.23
215.686	-11.61
215.904	58.03
216.122	86.7
216.341	49.83
216.559	51.88
216.778	27.31
216.996	70.31
217.214	84.65
217.432	2.73
217.651	4.78
217.869	29.35
218.087	33.45
218.306	10.92
218.524	70.31
218.742	43.69
218.96	49.83
219.179	0.68
219.397	37.55
219.615	92.84
219.833	17.07
220.051	-5.46
220.27	53.93
220.488	76.46
220.706	19.11
220.924	25.26
221.142	23.21
221.36	-23.89
221.578	45.74
221.796	39.59
222.015	17.07
222.233	78.51
222.451	45.74
222.669	-3.41
222.887	66.22
223.105	33.45
223.323	8.87
223.541	-5.46
223.759	17.07
223.977	6.83
224.195	-1.37
224.413	107.18
224.631	12.97
224.849	88.75
225.067	129.7
225.285	84.65
225.503	66.22
225.721	-32.08
225.939	12.97
226.157	8.87
226.375	117.42
226.592	-46.42
226.81	27.31
227.028	27.31
227.246	39.59
227.464	21.16
227.682	47.79
227.9	45.74
228.117	101.03
228.335	-68.95
228.553	45.74
228.771	25.26
228.989	90.79
229.206	62.12
229.424	68.27
229.642	8.87
229.86	-11.61
230.077	-11.61
230.295	55.98
230.513	-19.8
230.731	41.64
230.948	64.17
231.166	37.55
231.384	51.88
231.601	47.79
231.819	33.45
232.037	35.5
232.254	-30.04
232.472	74.41
232.689	-50.52
232.907	39.59
233.125	4.78
233.342	-19.8
233.56	12.97
233.777	19.11
233.995	21.16
234.213	113.32
234.43	-3.41
234.648	27.31
234.865	21.16
235.083	45.74
235.3	-23.89
235.518	29.35
235.735	76.46
235.953	29.35
236.17	43.69
236.388	12.97
236.605	19.11
236.822	68.27
237.04	29.35
237.257	60.07
237.475	-52.56
237.692	-73.04
237.909	29.35
238.127	53.93
238.344	90.79
238.562	4.78
238.779	-52.56
238.996	66.22
239.214	-1.37
239.431	43.69
239.648	-23.89
239.865	33.45
240.083	10.92
240.3	103.08
240.517	84.65
240.735	60.07
240.952	129.7
241.169	70.31
241.386	37.55
241.603	-15.7
241.821	12.97
242.038	39.59
242.255	70.31
242.472	60.07
242.689	27.31
242.907	31.4
243.124	15.02
243.341	0.68
243.558	-38.23
243.775	19.11
243.992	-17.75
244.209	127.66
244.426	82.6
244.643	58.03
244.86	6.83
245.078	84.65
245.295	37.55
245.512	35.5
245.729	-34.13
245.946	74.41
246.163	-15.7
246.38	8.87
246.597	-11.61
246.814	-40.28
247.031	-38.23
247.248	76.46
247.464	35.5
247.681	70.31
247.898	82.6
248.115	41.64
248.332	-25.94
248.549	21.16
248.766	29.35
248.983	23.21
249.2	107.18
249.417	-19.8
249.633	47.79
249.85	33.45
250.067	-1.37
250.284	19.11
250.501	31.4
250.717	115.37
250.934	-52.56
251.151	19.11
251.368	19.11
251.585	33.45
251.801	-3.41
252.018	-32.08
252.235	23.21
252.451	29.35
252.668	-1.37
252.885	86.7
253.102	-7.51
253.318	47.79
253.535	-9.56
253.752	-21.84
253.968	4.78
254.185	-23.89
254.401	15.02
254.618	47.79
254.835	35.5
255.051	66.22
255.268	33.45
255.484	17.07
255.701	27.31
255.917	41.64
256.134	2.73
256.351	82.6
256.567	8.87
256.784	58.03
257	-23.89
257.217	21.16
257.433	-7.51
257.65	-25.94
257.866	51.88
258.082	6.83
258.299	4.78
258.515	68.27
258.732	29.35
258.948	119.46
259.165	6.83
259.381	12.97
259.597	41.64
259.814	-11.61
260.03	19.11
260.246	35.5
260.463	76.46
260.679	53.93
260.895	23.21
261.112	51.88
261.328	10.92
261.544	-23.89
261.761	29.35
261.977	-23.89
262.193	37.55
262.409	23.21
262.626	4.78
262.842	12.97
263.058	-5.46
263.274	8.87
263.49	4.78
263.707	31.4
263.923	78.51
264.139	-15.7
264.355	45.74
264.571	33.45
264.787	47.79
265.004	39.59
265.22	-30.04
265.436	-3.41
265.652	70.31
265.868	29.35
266.084	25.26
266.3	45.74
266.516	62.12
266.732	86.7
266.948	-3.41
267.164	80.55
267.38	45.74
267.596	53.93
267.812	94.89
268.028	23.21
268.244	37.55
268.46	-1.37
268.676	15.02
268.892	6.83
269.108	21.16
269.324	47.79
269.54	33.45
269.756	49.83
269.972	6.83
270.188	15.02
270.403	-7.51
270.619	45.74
270.835	8.87
271.051	6.83
271.267	92.84
271.483	19.11
271.698	-36.18
271.914	39.59
272.13	47.79
272.346	45.74
272.562	33.45
272.777	27.31
272.993	66.22
273.209	17.07
273.425	109.23
273.64	-21.84
273.856	88.75
274.072	-1.37
274.287	12.97
274.503	53.93
274.719	10.92
274.934	-15.7
275.15	-27.99
275.366	76.46
275.581	-5.46
275.797	0.68
276.012	4.78
276.228	68.27
276.444	6.83
276.659	29.35
276.875	6.83
277.09	121.51
277.306	-5.46
277.521	92.84
277.737	39.59
277.952	45.74
278.168	49.83
278.383	41.64
278.599	84.65
278.814	64.17
279.03	49.83
279.245	88.75
279.461	131.75
279.676	82.6
279.892	4.78
280.107	53.93
280.322	49.83
280.538	64.17
280.753	88.75
280.969	70.31
281.184	15.02
281.399	33.45
281.615	70.31
281.83	8.87
282.045	27.31
282.26	27.31
282.476	45.74
282.691	90.79
282.906	43.69
283.122	37.55
283.337	-44.37
283.552	0.68
283.767	70.31
283.983	90.79
284.198	37.55
284.413	6.83
284.628	21.16
284.843	58.03
285.058	53.93
285.274	68.27
285.489	-9.56
285.704	90.79
285.919	33.45
286.134	-19.8
286.349	62.12
286.564	37.55
286.779	84.65
286.995	35.5
287.21	29.35
287.425	-5.46
287.64	88.75
287.855	-19.8
288.07	-21.84
288.285	27.31
288.5	101.03
288.715	109.23
288.93	-3.41
289.145	58.03
289.36	31.4
289.575	-19.8
289.79	76.46
290.004	4.78
290.219	133.8
290.434	86.7
290.649	70.31
290.864	41.64
291.079	35.5
291.294	53.93
291.509	84.65
291.724	37.55
291.938	-19.8
292.153	86.7
292.368	4.78
292.583	76.46
292.798	68.27
293.012	92.84
293.227	0.68
293.442	27.31
293.657	21.16
293.871	119.46
294.086	105.13
294.301	70.31
294.516	62.12
294.73	2.73
294.945	-13.65
295.16	35.5
295.374	41.64
295.589	98.99
295.804	-54.61
296.018	-66.9
296.233	141.99
296.447	37.55
296.662	21.16
296.877	55.98
297.091	-27.99
297.306	23.21
297.52	45.74
297.735	92.84
297.949	49.83
298.164	76.46
298.378	27.31
298.593	-19.8
298.807	19.11
299.022	68.27
299.236	84.65
299.451	-1.37
299.665	6.83
299.88	19.11
300.094	60.07
300.309	43.69
300.523	-19.8
300.737	86.7
300.952	88.75
301.166	51.88
301.381	-17.75
301.595	21.16
301.809	111.27
302.024	49.83
302.238	37.55
302.452	33.45
302.667	33.45
302.881	70.31
303.095	17.07
303.309	37.55
303.524	-44.37
303.738	49.83
303.952	17.07
304.166	2.73
304.381	2.73
304.595	109.23
304.809	60.07
305.023	74.41
305.237	8.87
305.452	-13.65
305.666	53.93
305.88	8.87
306.094	29.35
306.308	27.31
306.522	94.89
306.736	45.74
306.95	21.16
307.164	90.79
307.379	60.07
307.593	84.65
307.807	58.03
308.021	55.98
308.235	-15.7
308.449	-9.56
308.663	58.03
308.877	47.79
309.091	35.5
309.305	58.03
309.519	25.26
309.733	107.18
309.947	27.31
310.161	70.31
310.374	15.02
310.588	76.46
310.802	45.74
311.016	121.51
311.23	39.59
311.444	90.79
311.658	41.64
311.872	121.51
312.085	55.98
312.299	74.41
312.513	47.79
312.727	51.88
312.941	27.31
313.154	2.73
313.368	72.36
313.582	53.93
313.796	21.16
314.009	35.5
314.223	27.31
314.437	31.4
314.651	98.99
314.864	-1.37
315.078	12.97
315.292	21.16
315.505	12.97
315.719	107.18
315.933	53.93
316.146	86.7
316.36	-44.37
316.573	10.92
316.787	4.78
317.001	17.07
317.214	51.88
317.428	-13.65
317.641	103.08
317.855	49.83
318.068	39.59
318.282	90.79
318.495	60.07
318.709	84.65
318.922	51.88
319.136	37.55
319.349	37.55
319.563	55.98
319.776	49.83
319.99	25.26
320.203	62.12
320.417	-3.41
320.63	64.17
320.843	111.27
321.057	62.12
321.27	27.31
321.483	62.12
321.697	94.89
321.91	25.26
322.124	66.22
322.337	58.03
322.55	55.98
322.763	25.26
322.977	62.12
323.19	101.03
323.403	53.93
323.617	51.88
323.83	68.27
324.043	4.78
324.256	-58.71
324.469	60.07
324.683	17.07
324.896	62.12
325.109	-3.41
325.322	35.5
325.535	53.93
325.748	43.69
325.962	82.6
326.175	90.79
326.388	25.26
326.601	123.56
326.814	23.21
327.027	103.08
327.24	72.36
327.453	33.45
327.666	29.35
327.879	86.7
328.092	-5.46
328.305	129.7
328.518	43.69
328.731	-7.51
328.944	49.83
329.157	8.87
329.37	76.46
329.583	133.8
329.796	60.07
330.009	12.97
330.222	23.21
330.435	88.75
330.648	12.97
330.861	64.17
331.073	119.46
331.286	101.03
331.499	35.5
331.712	19.11
331.925	64.17
332.138	64.17
332.35	78.51
332.563	-3.41
332.776	53.93
332.989	92.84
333.202	45.74
333.414	-15.7
333.627	19.11
333.84	58.03
334.053	33.45
334.265	37.55
334.478	2.73
334.691	-34.13
334.903	43.69
335.116	35.5
335.329	43.69
335.541	39.59
335.754	92.84
335.966	-3.41
336.179	43.69
336.392	68.27
336.604	21.16
336.817	29.35
337.029	10.92
337.242	51.88
337.454	76.46
337.667	133.8
337.88	60.07
338.092	23.21
338.305	72.36
338.517	39.59
338.729	103.08
338.942	66.22
339.154	62.12
339.367	-7.51
339.579	-30.04
339.792	21.16
340.004	4.78
340.217	29.35
340.429	51.88
340.641	-50.52
340.854	49.83
341.066	12.97
341.278	90.79
341.491	121.51
341.703	-32.08
341.915	-7.51
342.128	35.5
342.34	86.7
342.552	45.74
342.764	70.31
342.977	17.07
343.189	103.08
343.401	70.31
343.613	-32.08
343.826	-5.46
344.038	4.78
344.25	39.59
344.462	47.79
344.674	51.88
344.886	43.69
345.099	60.07
345.311	25.26
345.523	45.74
345.735	105.13
345.947	152.23
346.159	4.78
346.371	74.41
346.583	-13.65
346.795	64.17
347.007	-56.66
347.219	43.69
347.431	-34.13
347.643	45.74
347.855	2.73
348.067	90.79
348.279	39.59
348.491	29.35
348.703	84.65
348.915	35.5
349.127	58.03
349.339	133.8
349.551	8.87
349.763	62.12
349.975	78.51
350.187	0.68
350.399	115.37
350.61	21.16
350.822	84.65
351.034	27.31
351.246	72.36
351.458	68.27
351.669	41.64
351.881	47.79
352.093	0.68
352.305	17.07
352.517	25.26
352.728	55.98
352.94	0.68
353.152	86.7
353.363	92.84
353.575	37.55
353.787	84.65
353.999	62.12
354.21	109.23
354.422	-11.61
354.633	41.64
354.845	82.6
355.057	86.7
355.268	80.55
355.48	133.8
355.692	10.92
355.903	60.07
356.115	74.41
356.326	62.12
356.538	64.17
356.749	51.88
356.961	144.04
357.172	103.08
357.384	2.73
357.595	105.13
357.807	76.46
358.018	82.6
358.23	51.88
358.441	66.22
358.653	72.36
358.864	86.7
359.075	-9.56
359.287	90.79
359.498	58.03
359.709	60.07
359.921	-3.41
360.132	12.97
360.344	33.45
360.555	-3.41
360.766	15.02
360.977	17.07
361.189	-7.51
361.4	37.55
361.611	58.03
361.823	62.12
362.034	35.5
362.245	45.74
362.456	-56.66
362.667	17.07
362.879	55.98
363.09	29.35
363.301	84.65
363.512	55.98
363.723	92.84
363.935	-3.41
364.146	58.03
364.357	76.46
364.568	111.27
364.779	86.7
364.99	133.8
365.201	-27.99
365.412	125.61
365.623	64.17
365.834	76.46
366.045	53.93
366.256	96.94
366.467	49.83
366.678	76.46
366.889	111.27
367.1	43.69
367.311	49.83
367.522	12.97
367.733	-36.18
367.944	31.4
368.155	49.83
368.366	45.74
368.577	60.07
368.788	105.13
368.999	15.02
369.209	29.35
369.42	141.99
369.631	154.28
369.842	107.18
370.053	111.27
370.264	78.51
370.474	49.83
370.685	76.46
370.896	66.22
371.107	131.75
371.317	-7.51
371.528	125.61
371.739	78.51
371.95	105.13
372.16	90.79
372.371	96.94
372.582	53.93
372.792	127.66
373.003	68.27
373.214	29.35
373.424	21.16
373.635	12.97
373.846	123.56
374.056	37.55
374.267	78.51
374.477	60.07
374.688	37.55
374.898	64.17
375.109	62.12
375.319	66.22
375.53	96.94
375.74	25.26
375.951	86.7
376.161	-34.13
376.372	111.27
376.582	35.5
376.793	31.4
377.003	43.69
377.214	64.17
377.424	37.55
377.635	148.14
377.845	-38.23
378.055	137.9
378.266	68.27
378.476	37.55
378.686	68.27
378.897	84.65
379.107	51.88
379.317	72.36
379.528	-7.51
379.738	94.89
379.948	74.41
380.158	64.17
380.369	96.94
380.579	96.94
380.789	58.03
380.999	55.98
381.21	47.79
381.42	185
381.63	53.93
381.84	133.8
382.05	113.32
382.261	156.33
382.471	119.46
382.681	27.31
382.891	135.85
383.101	53.93
383.311	25.26
383.521	154.28
383.731	62.12
383.941	80.55
384.151	92.84
384.361	70.31
384.571	164.52
384.781	98.99
384.991	133.8
385.201	146.09
385.411	96.94
385.621	43.69
385.831	103.08
386.041	58.03
386.251	98.99
386.461	21.16
386.671	70.31
386.881	109.23
387.091	70.31
387.301	113.32
387.511	115.37
387.72	92.84
387.93	86.7
388.14	47.79
388.35	39.59
388.56	45.74
388.769	72.36
388.979	15.02
389.189	12.97
389.399	60.07
389.609	113.32
389.818	107.18
390.028	25.26
390.238	72.36
390.447	43.69
390.657	72.36
390.867	53.93
391.076	111.27
391.286	43.69
391.496	35.5
391.705	62.12
391.915	72.36
392.125	98.99
392.334	72.36
392.544	94.89
392.753	68.27
392.963	109.23
393.172	60.07
393.382	88.75
393.591	172.71
393.801	70.31
394.01	150.18
394.22	94.89
394.429	144.04
394.639	78.51
394.848	119.46
395.058	105.13
395.267	158.38
395.477	109.23
395.686	96.94
395.895	125.61
396.105	234.15
396.314	109.23
396.524	78.51
396.733	107.18
396.942	82.6
397.152	125.61
397.361	199.34
397.57	119.46
397.78	109.23
397.989	176.81
398.198	199.34
398.407	86.7
398.617	164.52
398.826	131.75
399.035	84.65
399.244	123.56
399.453	144.04
399.663	115.37
399.872	225.96
400.081	58.03
400.29	193.19
400.499	131.75
400.708	135.85
400.917	82.6
401.127	152.23
401.336	119.46
401.545	193.19
401.754	197.29
401.963	191.14
402.172	98.99
402.381	182.95
402.59	156.33
402.799	154.28
403.008	221.86
403.217	195.24
403.426	168.62
403.635	164.52
403.844	172.71
404.053	234.15
404.262	215.72
404.471	217.77
404.68	164.52
404.888	180.9
405.097	225.96
405.306	144.04
405.515	217.77
405.724	273.06
405.933	266.92
406.142	256.68
406.35	291.49
406.559	234.15
406.768	236.2
406.977	271.01
407.185	217.77
407.394	314.02
407.603	271.01
407.812	395.94
408.02	328.36
408.229	299.69
408.438	291.49
408.646	256.68
408.855	307.88
409.064	299.69
409.272	275.11
409.481	363.17
409.69	377.51
409.898	348.84
410.107	420.52
410.315	553.63
410.524	414.37
410.733	492.2
410.941	463.52
411.15	522.91
411.358	557.73
411.567	545.44
411.775	619.17
411.984	594.59
412.192	563.87
412.401	633.51
412.609	678.56
412.818	711.33
413.026	627.36
413.234	715.42
413.443	725.66
413.651	721.57
413.86	725.66
414.068	852.64
414.276	938.65
414.485	879.26
414.693	850.59
414.901	975.52
415.11	922.27
415.318	952.99
415.526	905.88
415.734	1065.63
415.943	1159.83
416.151	1206.94
416.359	1151.64
416.567	1202.84
416.776	1342.1
416.984	1329.81
417.192	1354.39
417.4	1307.29
417.608	1370.77
417.817	1458.84
418.025	1540.76
418.233	1632.91
418.441	1487.51
418.649	1596.05
418.857	1751.7
419.065	1815.18
419.273	1747.6
419.481	1856.14
419.689	2007.69
419.897	1999.5
420.105	2044.56
420.313	2173.58
420.521	2212.49
420.729	2298.5
420.937	2226.82
421.145	2351.75
421.353	2484.87
421.561	2491.01
421.769	2759.3
421.977	2943.61
422.185	2853.5
422.393	3058.3
422.601	3062.4
422.809	3211.9
423.017	3105.4
423.224	3244.67
423.432	3465.85
423.64	3447.41
423.848	3748.47
424.056	3658.35
424.263	3906.16
424.471	3934.83
424.679	4039.28
424.887	4176.49
425.094	4231.79
425.302	4321.9
425.51	4393.58
425.718	4608.61
425.925	4631.14
426.133	4989.53
426.341	5114.46
426.548	5392.98
426.756	5433.94
426.964	5517.91
427.171	5730.9
427.379	5974.61
427.586	5997.14
427.794	6115.92
428.001	6435.4
428.209	6787.65
428.417	6558.28
428.624	7270.97
428.832	7115.33
429.039	7103.04
429.247	7313.98
429.454	7883.31
429.662	8395.31
429.869	7819.83
430.076	8245.8
430.284	8086.06
430.491	8512.04
430.699	8999.46
430.906	8935.97
431.114	9087.52
431.321	9345.56
431.528	9533.98
431.736	10048.02
431.943	10584.59
432.15	10265.1
432.358	10605.06
432.565	11098.63
432.772	11072
432.979	11432.44
433.187	11801.08
433.394	11764.22
433.601	12607.98
433.808	12714.47
434.016	12689.9
434.223	13134.31
434.43	13808.09
434.637	13715.93
434.844	14541.26
435.052	14766.54
435.259	14657.99
435.466	14682.57
435.673	14406.09
435.88	15593.92
436.087	16388.53
436.294	16452.02
436.501	15929.78
436.708	16574.89
436.915	17107.37
437.122	17609.12
437.329	17404.32
437.537	18200.98
437.743	18395.54
437.95	18137.49
438.157	19380.61
438.364	19990.91
438.571	20029.82
438.778	20056.44
438.985	21803.36
439.192	21129.58
439.399	21666.14
439.606	21295.46
439.813	22661.46
440.02	24037.69
440.227	23251.27
440.433	23073.1
440.64	23861.57
440.847	23771.46
441.054	24373.56
441.261	26263.83
441.467	25545
441.674	26061.08
441.881	26859.79
442.088	27306.25
442.294	26673.43
442.501	27306.25
442.708	28094.72
442.914	28944.62
443.121	30212.32
443.328	29200.62
443.534	31428.81
443.741	30316.76
443.948	30136.54
444.154	32454.84
444.361	32155.84
444.568	32405.69
444.774	32563.39
444.981	32655.54
445.187	33734.82
445.394	35049.62
445.6	34738.33
445.807	37785.71
446.013	36159.62
446.22	37001.33
446.426	38367.33
446.633	38711.39
446.839	40017.99
447.046	38258.79
447.252	40656.96
447.459	40056.9
447.665	40243.27
447.871	42178.6
448.078	43536.4
448.284	41977.9
448.491	42702.88
448.697	44425.22
448.903	44943.36
449.11	45156.35
449.316	44161.03
449.522	44853.25
449.728	45971.44
449.935	46438.37
450.141	46929.89
450.347	47513.56
450.553	46325.74
450.76	46600.16
450.966	47859.66
451.172	47624.15
451.378	48797.63
451.584	47925.2
451.791	48297.93
451.997	48773.06
452.203	49436.6
452.409	49457.08
452.615	48797.63
452.821	47552.47
453.027	46786.53
453.233	48979.9
453.44	47077.34
453.646	47830.99
453.852	47818.7
454.058	48480.2
454.264	46811.1
454.47	47820.75
454.676	46737.38
454.882	48209.87
455.088	44146.7
455.294	44810.24
455.5	45508.6
455.705	45699.06
455.911	44023.82
456.117	43462.68
456.323	42844.19
456.529	40663.1
456.735	41963.56
456.941	41220.15
457.147	40675.39
457.352	39327.83
457.558	38959.19
457.764	39168.08
457.97	37992.55
458.176	37286
458.381	37376.11
458.587	35590.28
458.793	35338.38
458.999	33681.58
459.204	35897.48
459.41	34904.21
459.616	32850.1
459.821	32563.39
460.027	32878.77
460.233	32245.95
460.438	30875.86
460.644	30818.52
460.85	29288.68
461.055	29126.89
461.261	28844.27
461.466	26999.05
461.672	26106.14
461.878	27793.67
462.083	25979.17
462.289	25717.03
462.494	25688.35
462.7	24193.34
462.905	23501.12
463.111	24385.85
463.316	24523.06
463.522	24410.42
463.727	24224.06
463.932	24172.86
464.138	23624
464.343	23748.93
464.549	23368.01
464.754	23912.77
464.959	23877.95
465.165	23384.39
465.37	22602.07
465.575	22061.4
465.781	22663.5
465.986	23077.19
466.191	22231.38
466.397	21838.17
466.602	20699.5
466.807	21653.86
467.012	21340.52
467.218	21416.29
467.423	21176.68
467.628	21344.61
467.833	21875.04
468.038	21299.56
468.244	21006.7
468.449	21668.19
468.654	20834.67
468.859	20693.36
469.064	20586.86
469.269	19636.61
469.474	20021.63
469.679	20248.95
469.885	19839.36
470.09	19908.99
470.295	20136.31
470.5	19378.56
470.705	19556.74
470.91	18864.52
471.115	18784.65
471.32	19317.12
471.525	19196.29
471.73	18606.48
471.935	18579.86
472.139	17809.82
472.344	18055.58
472.549	17920.41
472.754	17670.56
472.959	17504.67
473.164	17035.69
473.369	16708.01
473.574	17189.28
473.778	17068.45
473.983	17068.45
474.188	17041.83
474.393	16503.21
474.598	16363.95
474.802	16093.62
475.007	15960.5
475.212	16112.05
475.417	15331.78
475.621	15448.51
475.826	15643.07
476.031	15385.02
476.235	15079.88
476.44	15067.59
476.645	14971.33
476.849	14821.83
477.054	14768.59
477.259	14524.88
477.463	14762.44
477.668	14121.43
477.872	14303.7
478.077	14137.81
478.282	13771.22
478.486	13734.36
478.691	13767.13
478.895	13543.9
479.1	13427.17
479.304	13548
479.509	13384.16
479.713	13482.46
479.918	13038.05
480.122	12974.56
480.326	13117.92
480.531	13046.24
480.735	12782.06
480.94	12792.3
481.144	13169.12
481.348	12579.31
481.553	12874.21
481.757	12509.68
481.961	12943.85
482.166	12536.3
482.37	12636.65
482.574	12573.16
482.778	12433.9
482.983	12767.72
483.187	12595.69
483.391	12710.38
483.595	12415.47
483.8	12513.77
484.004	12661.23
484.208	12915.17
484.412	12624.36
484.616	12659.18
484.821	12550.64
485.025	12403.18
485.229	12610.03
485.433	12339.69
485.637	12626.41
485.841	12626.41
486.045	12558.83
486.249	12601.83
486.453	12358.13
486.657	12558.83
486.861	12612.07
487.065	12222.96
487.269	12356.08
487.473	12304.88
487.677	12620.27
487.881	12569.07
488.085	12503.53
488.289	12601.83
488.493	12448.24
488.697	12829.16
488.901	12544.49
489.105	12503.53
489.309	12708.33
489.512	12587.5
489.716	12558.83
489.92	12679.66
490.124	12599.79
490.328	12902.89
490.531	12720.62
490.735	12880.36
490.939	12972.52
491.143	12786.15
491.346	12997.09
491.55	13113.83
491.754	13138.4
491.958	13228.51
492.161	13193.7
492.365	13193.7
492.569	13154.79
492.772	13222.37
492.976	13437.41
493.18	13308.38
493.383	13803.99
493.587	13701.59
493.79	13697.5
493.994	13601.24
494.197	14014.93
494.401	14072.28
494.605	13801.94
494.808	14242.26
495.012	14205.39
495.215	14146
495.419	14479.82
495.622	14389.71
495.825	14567.88
496.029	14504.4
496.232	14836.17
496.436	14856.65
496.639	15421.89
496.843	15002.05
497.046	15532.48
497.249	15618.49
497.453	15821.24
497.656	15892.92
497.859	16048.57
498.063	16304.56
498.266	16406.96
498.469	16329.14
498.673	16478.64
498.876	16906.66
499.079	16935.34
499.282	17039.78
499.485	17381.79
499.689	17291.68
499.892	17916.31
500.095	17811.87
500.298	18123.16
500.501	17797.53
500.705	18612.62
500.908	18755.98
501.111	18864.52
501.314	19181.96
501.517	19411.33
501.72	19591.55
501.923	19249.54
502.126	19804.54
502.329	20246.9
502.532	20351.35
502.735	20560.24
502.938	20750.7
503.141	20832.62
503.344	21524.83
503.547	21444.96
503.75	21801.31
503.953	21815.65
504.156	22028.63
504.359	22434.13
504.562	22387.03
504.765	22835.53
504.968	23136.59
505.17	23572.8
505.373	23204.17
505.576	23562.56
505.779	24002.88
505.982	24101.18
506.185	24504.63
506.387	24869.17
506.59	24805.68
506.793	25745.7
506.996	25446.69
507.198	26032.41
507.401	25825.57
507.604	26368.28
507.807	26609.94
508.009	26761.49
508.212	27263.24
508.415	27549.96
508.617	27984.13
508.82	27990.27
509.022	27853.06
509.225	28721.4
509.428	28651.77
509.63	28621.05
509.833	29206.76
510.035	29741.28
510.238	29563.11
510.44	30288.09
510.643	30677.21
510.845	30968.02
511.048	30613.72
511.25	31357.13
511.453	31547.59
511.655	32323.77
511.858	32190.66
512.06	32288.96
512.262	32549.05
512.465	33013.94
512.667	33419.44
512.87	33534.12
513.072	34187.42
513.274	34230.43
513.477	34883.73
513.679	35076.24
513.881	35541.13
514.084	35711.11
514.286	35946.63
514.488	35905.67
514.69	36950.13
514.893	37171.32
515.095	37191.8
515.297	37437.55
515.499	37589.1
515.701	38344.8
515.904	38578.27
516.106	38959.19
516.308	39221.33
516.51	39518.29
516.712	39534.67
516.914	40159.3
517.116	40712.25
517.318	41369.65
517.52	41496.63
517.722	41195.57
517.925	42211.37
518.127	42612.77
518.329	43020.31
518.531	42772.51
518.733	43493.39
518.935	43554.83
519.136	43841.55
519.338	44492.8
519.54	44621.83
519.742	45185.02
519.944	45287.42
520.146	45744.11
520.348	46192.62
520.55	46397.41
520.752	46782.43
520.954	47605.72
521.155	46669.79
521.357	47687.63
521.559	48326.6
521.761	48781.25
521.963	48785.35
522.164	49190.84
522.366	48895.94
522.568	49758.13
522.77	49778.61
522.971	50454.44
523.173	50110.38
523.375	50714.53
523.576	51062.69
523.778	51019.68
523.98	51869.59
524.181	51967.89
524.383	52074.38
524.584	52696.97
524.786	52543.37
524.988	52404.11
525.189	53297.02
525.391	53270.4
525.592	53585.78
525.794	53872.5
525.995	54224.75
526.197	54028.15
526.398	54015.86
526.6	54708.07
526.801	54996.84
527.003	54945.64
527.204	55209.82
527.406	55723.86
527.607	55566.17
527.808	56190.8
528.01	55588.7
528.211	56047.44
528.412	56915.78
528.614	56590.16
528.815	56784.71
529.016	57265.98
529.218	56854.34
529.419	57243.46
529.62	57481.02
529.822	56969.03
530.023	57009.99
530.224	57587.52
530.425	57325.38
530.626	57653.05
530.828	57341.76
531.029	58672.94
531.23	57509.69
531.431	57902.9
531.632	57843.51
531.833	58079.03
532.035	58302.26
532.236	58328.88
532.437	58656.56
532.638	58181.43
532.839	58918.7
533.04	58812.2
533.241	58238.77
533.442	59246.37
533.643	58816.3
533.844	58980.13
534.045	58826.54
534.246	58775.34
534.447	59307.81
534.648	59070.25
534.849	59164.45
535.05	58611.5
535.251	59291.43
535.451	59078.44
535.652	58918.7
535.853	58883.88
536.054	59264.8
536.255	59350.82
536.456	58599.21
536.657	60006.17
536.857	58947.37
537.058	58799.91
537.259	59594.53
537.46	59662.11
537.66	59180.84
537.861	59408.16
538.062	59119.4
538.263	59225.89
538.463	59217.7
538.664	59701.02
538.865	59146.02
539.065	59760.41
539.266	58832.68
539.466	59432.74
539.667	58906.41
539.868	59932.44
540.068	59123.49
540.269	59111.2
540.469	59641.63
540.67	59168.55
540.87	58859.3
541.071	59221.79
541.271	59447.07
541.472	59229.99
541.672	58957.61
541.873	59072.29
542.073	58736.43
542.274	59324.19
542.474	58910.5
542.675	58996.52
542.875	59393.82
543.075	59561.76
543.276	58914.6
543.476	59707.16
543.676	59258.66
543.877	59211.56
544.077	58933.03
544.277	58965.8
544.478	58908.46
544.678	59094.82
544.878	58824.49
545.078	59057.96
545.279	58767.15
545.479	59174.69
545.679	59113.25
545.879	58877.74
546.079	58885.93
546.28	59268.9
546.48	58519.34
546.68	58986.28
546.88	59121.44
547.08	58939.18
547.28	59258.66
547.48	58509.1
547.68	58705.71
547.88	58629.93
548.081	58922.79
548.281	58797.87
548.481	58758.95
548.681	59045.67
548.881	58736.43
549.081	58898.22
549.28	58365.74
549.48	59373.34
549.68	58883.88
549.88	59528.99
550.08	58998.57
550.28	58998.57
550.48	58509.1
550.68	58806.06
550.88	58564.4
551.08	58668.84
551.279	58443.57
551.479	58199.86
551.679	58840.87
551.879	58373.94
552.079	59045.67
552.278	58369.84
552.478	58484.53
552.678	58418.99
552.878	58709.8
553.077	58480.43
553.277	58154.8
553.477	59057.96
553.676	57960.25
553.876	58275.63
554.076	58330.93
554.275	57935.67
554.475	57679.67
554.674	57816.89
554.874	58056.5
555.074	57907
555.273	58464.05
555.473	58492.72
555.672	57866.04
555.872	57866.04
556.071	57800.5
556.271	58177.33
556.47	57689.91
556.67	57759.55
556.869	57489.21
557.068	57923.38
557.268	57251.65
557.467	57235.27
557.667	57220.93
557.866	57646.91
558.065	57243.46
558.265	57235.27
558.464	56657.74
558.663	57268.03
558.863	57026.37
559.062	57468.73
559.261	56899.4
559.461	57812.79
559.66	56172.37
559.859	56676.17
560.058	56084.31
560.258	56975.17
560.457	56121.17
560.656	56889.16
560.855	56090.45
561.054	56383.31
561.253	56129.36
561.453	56133.46
561.652	55795.54
561.851	56254.29
562.05	55875.41
562.249	55426.91
562.448	55744.34
562.647	55572.31
562.846	55650.14
563.045	55605.08
563.244	55101.28
563.443	55709.53
563.642	55013.22
563.841	55101.28
564.04	54742.89
564.239	55551.83
564.438	54548.33
564.637	55025.51
564.836	54771.56
565.035	53974.9
565.234	54663.02
565.432	53876.6
565.631	54028.15
565.83	54441.84
566.029	53835.64
566.228	54144.88
566.427	53417.85
566.625	53315.45
566.824	53282.69
567.023	53925.75
567.222	52991.87
567.42	53921.65
567.619	53090.18
567.818	53403.52
568.016	52645.77
568.215	53206.91
568.414	52432.78
568.612	52825.99
568.811	52342.67
569.01	52836.23
569.208	51806.1
569.407	52471.69
569.605	51744.66
569.804	52045.71
570.002	51361.69
570.201	52182.93
570.4	51498.9
570.598	51484.57
570.797	51134.37
570.995	51435.42
571.193	50780.07
571.392	51443.61
571.59	50999.2
571.789	51074.98
571.987	50759.59
572.186	50911.14
572.384	50210.73
572.582	50694.05
572.781	50167.73
572.979	49977.26
573.177	50395.05
573.376	50313.13
573.574	49223.61
573.772	50108.33
573.971	49618.87
574.169	48922.56
574.367	48713.67
574.565	49700.79
574.763	48881.6
574.962	48912.32
575.16	48807.87
575.358	48947.14
575.556	48535.49
575.754	48584.65
575.952	48232.39
576.151	48713.67
576.349	47808.47
576.547	47994.83
576.745	48142.28
576.943	47773.65
577.141	47708.11
577.339	47970.25
577.537	47454.17
577.735	47552.47
577.933	46843.87
578.131	47468.5
578.329	46903.26
578.527	46905.31
578.725	47038.43
578.923	46845.92
579.121	46483.43
579.319	46358.5
579.516	46440.42
579.714	46245.86
579.912	46012.4
580.11	46012.4
580.308	45899.76
580.506	46127.08
580.704	45160.44
580.901	45996.01
581.099	46180.33
581.297	45369.33
581.495	45066.23
581.692	45109.24
581.89	44843.01
582.088	45092.86
582.285	44451.84
582.483	45101.05
582.681	44439.56
582.878	44378.12
583.076	43909.13
583.274	44457.99
583.471	43669.52
583.669	44021.77
583.866	43626.51
584.064	44177.42
584.262	43384.85
584.459	43907.08
584.657	43427.86
584.854	44099.59
585.052	43014.17
585.249	43505.68
585.447	42989.59
585.644	42498.08
585.841	42965.02
586.039	43026.46
586.236	42231.85
586.434	42049.58
586.631	42530.85
586.828	42197.03
587.026	42383.4
587.223	42106.92
587.42	41756.72
587.618	41943.08
587.815	41349.17
588.012	41394.23
588.21	41019.45
588.407	41703.47
588.604	41334.84
588.801	40820.8
588.999	40783.93
589.196	40835.13
589.393	40804.41
589.59	40534.08
589.787	40388.67
589.984	40269.89
590.182	40142.92
590.379	40267.84
590.576	39827.53
590.773	39897.16
590.97	39544.91
591.167	39876.68
591.364	39356.5
591.561	39514.19
591.758	39280.72
591.955	39194.71
592.152	39512.14
592.349	38877.27
592.546	39129.17
592.743	38783.07
592.94	38494.3
593.137	38664.28
593.334	38551.65
593.531	38086.76
593.727	38334.56
593.924	38332.51
594.121	38062.18
594.318	38039.65
594.515	37722.22
594.712	37949.54
594.908	37748.84
595.105	37576.81
595.302	37113.97
595.499	37447.79
595.696	37032.05
595.892	36774.01
596.089	36970.61
596.286	37216.37
596.482	36745.34
596.679	36855.93
596.876	36657.28
597.072	36171.91
597.269	36558.97
597.466	35838.09
597.662	35891.33
597.859	35907.72
598.055	35852.42
598.252	35856.52
598.448	35510.41
598.645	35731.59
598.841	35111.06
599.038	35948.68
599.234	35532.94
599.431	35209.36
599.627	34756.76
599.824	34982.04
600.02	34719.9
600.217	35059.86
600.413	34834.58
600.609	34556.06
600.806	34308.26
601.002	34666.65
601.198	34189.47
601.395	34105.51
601.591	34060.45
601.787	34322.59
601.984	33343.66
602.18	34019.49
602.376	33818.79
602.572	33661.1
602.769	33327.28
602.965	33472.68
603.161	33151.15
603.357	33681.58
603.553	33052.85
603.75	32805.05
603.946	32469.18
604.142	33177.78
604.338	32565.43
604.534	32753.85
604.73	32102.59
604.926	32258.24
605.122	32274.62
605.318	32295.1
605.514	31871.17
605.71	31887.56
605.906	31570.12
606.102	31791.3
606.298	31779.01
606.494	31656.14
606.69	31719.62
606.886	31572.17
607.082	31279.31
607.278	31498.44
607.474	31086.8
607.67	31142.1
607.866	30828.76
608.062	31432.91
608.257	30894.29
608.453	31262.93
608.649	30914.77
608.845	30904.53
609.041	30683.35
609.236	30589.14
609.432	30296.28
609.628	30519.51
609.824	30468.31
610.019	30130.4
610.215	29999.33
610.411	30591.19
610.606	30214.37
610.802	30384.35
610.998	29901.03
611.193	29944.03
611.389	29993.18
611.584	29841.64
611.78	29571.3
611.976	30124.25
612.171	29778.15
612.367	29743.33
612.562	29690.09
612.758	29110.51
612.953	29178.09
613.149	29718.76
613.344	28954.86
613.539	29493.48
613.735	29120.75
613.93	29178.09
614.126	28705.01
614.321	29200.62
614.517	29165.81
614.712	28786.93
614.907	28555.51
615.103	28834.03
615.298	28532.98
615.493	28889.33
615.688	28276.99
615.884	28760.31
616.079	28336.38
616.274	28764.4
616.47	28266.75
616.665	28682.48
616.86	28129.53
617.055	28033.28
617.25	27945.22
617.445	28328.19
617.641	27558.15
617.836	28170.49
618.031	27482.38
618.226	27941.12
618.421	27609.35
618.616	27732.23
618.811	27330.83
619.006	27627.78
619.201	26820.88
619.396	27293.96
619.591	26775.83
619.786	27246.86
619.981	26575.13
620.176	26984.72
620.371	26480.92
620.566	26575.13
620.761	26364.18
620.956	26818.83
621.151	25950.49
621.346	26534.17
621.541	25882.91
621.735	26208.54
621.93	25637.16
622.125	25538.85
622.32	25381.16
622.515	25518.37
622.709	25162.03
622.904	25180.46
623.099	25155.88
623.294	25063.72
623.488	24754.48
623.683	25041.2
623.878	24123.71
624.072	24549.68
624.267	24226.1
624.462	24367.41
624.656	24041.79
624.851	24109.37
625.046	23718.21
625.24	23533.89
625.435	23531.84
625.629	23337.29
625.824	23277.9
626.018	23284.04
626.213	22686.03
626.407	22909.26
626.602	22557.01
626.796	23030.09
626.991	22430.04
627.185	22653.26
627.38	22102.36
627.574	22241.62
627.768	22124.89
627.963	21950.81
628.157	21709.15
628.352	21887.32
628.546	21518.69
628.74	21465.44
628.935	21334.37
629.129	21342.56
629.323	21248.36
629.517	21299.56
629.712	20984.17
629.906	20760.94
630.1	20574.58
630.294	20904.3
630.489	20279.67
630.683	20449.65
630.877	20132.22
631.071	19978.62
631.265	20130.17
631.459	20283.77
631.653	19939.71
631.848	19894.65
632.042	19630.46
632.236	19941.75
632.43	19249.54
632.624	19528.06
632.818	19378.56
633.012	19245.44
633.206	19169.67
633.4	19093.9
633.594	18813.32
633.788	19171.72
633.982	18684.3
634.176	18561.42
634.369	18610.57
634.563	18248.08
634.757	18129.3
634.951	18217.36
635.145	18246.04
635.339	17969.56
635.533	18006.42
635.726	18024.86
635.92	17320.35
636.114	17850.78
636.308	17658.27
636.501	17537.44
636.695	17238.44
636.889	17277.35
637.083	17013.16
637.276	17060.26
637.47	17017.25
637.664	16800.17
637.857	16789.93
638.051	17013.16
638.244	16540.08
638.438	16630.19
638.632	16351.67
638.825	16542.13
639.019	16136.63
639.212	16171.44
639.406	16165.3
639.599	16400.82
639.793	15925.69
639.986	15782.33
640.18	15948.22
640.373	15673.79
640.567	15290.82
640.76	15657.4
640.954	15489.47
641.147	15417.79
641.34	15282.63
641.534	15147.46
641.727	15464.89
641.92	15126.98
642.114	14780.87
642.307	15059.4
642.5	14754.25
642.694	14596.56
642.887	14455.25
643.08	14715.34
643.273	14563.79
643.467	14533.07
643.66	14103
643.853	14338.51
644.046	13976.02
644.239	14150.1
644.432	14004.69
644.626	14037.46
644.819	13844.95
645.012	13918.68
645.205	14066.13
645.398	13842.9
645.591	13576.67
645.784	13662.68
645.977	13408.73
646.17	13439.45
646.363	13371.87
646.556	13357.53
646.749	13171.17
646.942	13085.16
647.135	13126.11
647.328	12964.32
647.521	13119.97
647.714	12757.48
647.907	12790.25
648.099	12554.73
648.292	12730.86
648.485	12489.2
648.678	12351.98
648.871	12304.88
649.064	12345.84
649.256	12438
649.449	12169.71
649.642	12063.22
649.835	12210.67
650.027	12016.12
650.22	11837.94
650.413	12063.22
650.605	11876.85
650.798	11811.32
650.991	11811.32
651.183	11704.82
651.376	11543.03
651.568	11534.84
651.761	11401.72
651.954	11483.64
652.146	11313.66
652.339	11438.59
652.531	11399.68
652.724	11143.68
652.916	11108.87
653.109	11108.87
653.301	11104.77
653.494	11182.59
653.686	10883.59
653.879	10928.64
654.071	10672.65
654.263	10701.32
654.456	10805.77
654.648	10758.66
654.84	10541.58
655.033	10383.88
655.225	10498.57
655.417	10521.1
655.61	10480.14
655.802	10517
655.994	10211.85
656.186	10439.18
656.379	10379.79
656.571	10287.63
656.763	10103.31
656.955	10093.07
657.148	9826.84
657.34	9996.82
657.532	9818.64
657.724	9669.14
657.916	9800.21
658.108	9800.21
658.3	9597.46
658.492	9765.4
658.684	9450.01
658.876	9554.46
659.068	9433.63
659.26	9364
659.452	9388.57
659.644	9155.1
659.836	9169.44
660.028	9300.51
660.22	9077.28
660.412	9183.77
660.604	9116.19
660.796	9071.14
660.988	8970.79
661.18	9005.6
661.372	8913.44
661.563	8809
661.755	8682.02
661.947	8825.38
662.139	8817.19
662.331	8509.99
662.522	8682.02
662.714	8454.7
662.906	8460.84
663.097	8479.27
663.289	8456.75
663.481	8444.46
663.673	8450.6
663.864	8294.96
664.056	8172.08
664.247	8196.65
664.439	8045.1
664.631	8196.65
664.822	8163.89
665.014	8213.04
665.205	8231.47
665.397	8030.77
665.588	7981.62
665.78	7799.35
665.971	8071.73
666.163	7719.48
666.354	7950.9
666.546	7778.87
666.737	7696.95
666.929	7836.21
667.12	7832.12
667.311	7668.28
667.503	7522.87
667.694	7533.11
667.885	7529.02
668.077	7445.05
668.268	7389.75
668.459	7283.26
668.651	7230.01
668.842	7207.48
669.033	7426.62
669.224	7350.84
669.416	7443
669.607	7215.68
669.798	7252.54
669.989	7244.35
670.18	7086.65
670.371	6943.3
670.563	7125.57
670.754	7000.64
670.945	7078.46
671.136	7072.32
671.327	6881.86
671.518	6881.86
671.709	6820.42
671.9	6988.35
672.091	6890.05
672.282	6752.84
672.473	6732.36
672.664	6941.25
672.855	6695.49
673.046	6677.06
673.237	6795.84
673.428	6679.11
673.619	6492.74
673.809	6384.2
674	6785.6
674.191	6634.05
674.382	6519.37
674.573	6502.98
674.764	6298.19
674.954	6476.36
675.145	6453.83
675.336	6496.84
675.527	6474.31
675.717	6466.12
675.908	6255.18
676.099	6300.23
676.289	6376.01
676.48	6419.02
676.671	6242.89
676.861	6201.93
677.052	6093.39
677.243	6019.66
677.433	6230.6
677.624	6410.82
677.814	6195.79
678.005	6165.07
678.195	6197.84
678.386	6122.06
678.576	6126.16
678.767	6040.14
678.957	6083.15
679.148	6023.76
679.338	5958.22
679.529	6292.04
679.719	5933.65
679.909	6091.34
680.1	5943.89
680.29	6089.29
680.481	6013.52
680.671	5923.41
680.861	5882.45
681.052	5970.51
681.242	5855.83
681.432	6001.23
681.622	5907.02
681.813	5806.67
682.003	5876.31
682.193	5947.98
682.383	5933.65
682.573	5728.85
682.764	5691.99
682.954	5681.75
683.144	5710.42
683.334	5732.95
683.524	5757.52
683.714	5859.92
683.904	5669.46
684.094	5765.71
684.284	5554.77
684.474	5716.56
684.664	5612.12
684.854	5485.14
685.044	5677.65
685.234	5417.56
685.424	5589.59
685.614	5493.33
685.804	5499.48
685.994	5395.03
686.184	5540.44
686.374	5454.42
686.564	5309.02
686.753	5450.33
686.943	5368.41
687.133	5374.55
687.323	5485.14
687.513	5411.42
687.702	5325.4
687.892	5229.15
688.082	5276.25
688.272	5223
688.461	5190.24
688.651	5233.24
688.841	5120.6
689.03	5292.63
689.22	5116.51
689.41	5114.46
689.599	5055.07
689.789	5237.34
689.979	5141.08
690.168	5091.93
690.358	4868.7
690.547	5143.13
690.737	4928.1
690.926	5065.31
691.116	4799.07
691.305	4786.79
691.495	4809.31
691.684	4866.66
691.874	4991.58
692.063	4883.04
692.252	4874.85
692.442	4760.16
692.631	4870.75
692.82	4600.42
693.01	4633.19
693.199	4590.18
693.388	4655.72
693.578	4686.44
693.767	4751.97
693.956	4567.65
694.146	4563.56
694.335	4475.49
694.524	4629.09
694.713	4665.96
694.902	4508.26
695.092	4631.14
695.281	4629.09
695.47	4532.84
695.659	4545.13
695.848	4459.11
696.037	4534.89
696.226	4594.28
696.415	4379.24
696.604	4514.41
696.793	4358.76
696.982	4469.35
697.171	4452.97
697.36	4479.59
697.549	4254.31
697.738	4352.62
697.927	4305.51
698.116	4434.54
698.305	4391.53
698.494	4348.52
698.683	4428.39
698.872	4328.04
699.061	4405.86
699.25	4342.38
699.438	4262.51
699.627	4323.94
699.816	4399.72
700.005	4303.47
700.193	4254.31
700.382	4340.33
700.571	4291.18
700.76	4319.85
700.948	4317.8
701.137	4287.08
701.326	4317.8
701.514	4262.51
701.703	4280.94
701.892	4266.6
702.08	4272.75
702.269	4242.03
702.457	4133.48
702.646	4342.38
702.834	4141.68
703.023	4350.57
703.212	4340.33
703.4	4295.27
703.589	4131.44
703.777	4213.35
703.965	4248.17
704.154	4242.03
704.342	4192.87
704.531	4149.87
704.719	4143.72
704.907	4199.02
705.096	4074.09
705.284	4264.55
705.472	4231.79
705.661	4156.01
705.849	4063.85
706.037	4231.79
706.226	4178.54
706.414	4192.87
706.602	4166.25
706.79	4227.69
706.979	4035.18
707.167	4053.61
707.355	4141.68
707.543	4129.39
707.731	4170.35
707.919	4264.55
708.107	4168.3
708.296	4199.02
708.484	3940.97
708.672	4063.85
708.86	4020.85
709.048	3973.74
709.236	4061.8
709.424	4201.07
709.612	4067.95
709.8	4137.58
709.988	3928.69
710.176	4057.71
710.364	4070
710.551	4135.53
710.739	4063.85
710.927	4098.67
711.115	4018.8
711.303	4205.16
711.491	4084.33
711.679	3971.69
711.866	4143.72
712.054	4164.2
712.242	3940.97
712.43	4141.68
712.617	3959.41
712.805	3961.45
712.993	3947.12
713.181	4160.11
713.368	4108.91
713.556	4014.7
713.744	3875.44
713.931	4016.75
714.119	4012.65
714.306	4049.52
714.494	3961.45
714.682	4039.28
714.869	4014.7
715.057	4000.37
715.244	3844.72
715.432	4098.67
715.619	4016.75
715.807	4047.47
715.994	4043.37
716.182	3930.73
716.369	3981.93
716.556	4131.44
716.744	4061.8
716.931	4080.24
717.119	4039.28
717.306	3877.49
717.493	3895.92
717.681	3897.97
717.868	3977.84
718.055	4006.51
718.242	4043.37
718.43	4002.41
718.617	4006.51
718.804	3883.63
718.991	3973.74
719.179	4063.85
719.366	3889.78
719.553	3969.65
719.74	3930.73
719.927	3908.21
720.114	3953.26
720.301	3932.78
720.488	3869.3
720.676	3945.07
720.863	3947.12
721.05	3875.44
721.237	3967.6
721.424	3918.45
721.611	3805.81
721.798	3887.73
721.985	3848.82
722.172	3902.06
722.358	3820.14
722.545	3756.66
722.732	3988.08
722.919	3756.66
723.106	3957.36
723.293	3930.73
723.48	3682.93
723.667	3887.73
723.853	3707.51
724.04	3750.51
724.227	3873.39
724.414	3814
724.6	3803.76
724.787	3830.38
724.974	3684.98
725.161	3910.26
725.347	3768.95
725.534	3951.21
725.72	3664.5
725.907	3838.58
726.094	3687.03
726.28	3773.04
726.467	3822.19
726.653	3828.34
726.84	3750.51
727.027	3811.95
727.213	3701.36
727.4	3674.74
727.586	3607.16
727.773	3719.79
727.959	3654.26
728.145	3740.27
728.332	3562.1
728.518	3811.95
728.705	3709.55
728.891	3603.06
729.077	3756.66
729.264	3734.13
729.45	3656.31
729.636	3764.85
729.823	3746.42
730.009	3568.24
730.195	3693.17
730.382	3725.94
730.568	3564.15
730.754	3684.98
730.94	3668.59
731.126	3699.31
731.313	3727.99
731.499	3678.83
731.685	3613.3
731.871	3658.35
732.057	3725.94
732.243	3629.68
732.429	3603.06
732.615	3623.54
732.801	3603.06
732.987	3564.15
733.173	3568.24
733.359	3670.64
733.545	3650.16
733.731	3525.24
733.917	3555.96
734.103	3576.44
734.289	3467.89
734.475	3465.85
734.661	3611.25
734.847	3611.25
735.033	3596.92
735.219	3498.61
735.404	3494.52
735.59	3474.04
735.776	3355.26
735.962	3558
736.148	3535.48
736.333	3596.92
736.519	3502.71
736.705	3424.89
736.89	3396.21
737.076	3435.13
737.262	3345.02
737.447	3373.69
737.633	3400.31
737.819	3355.26
738.004	3400.31
738.19	3349.11
738.375	3340.92
738.561	3342.97
738.747	3279.48
738.932	3404.41
739.118	3277.43
739.303	3338.87
739.489	3275.38
739.674	3259
739.859	3353.21
740.045	3351.16
740.23	3310.2
740.416	3175.03
740.601	3345.02
740.786	3355.26
740.972	3162.75
741.157	3181.18
741.342	3138.17
741.528	3152.51
741.713	3304.06
741.898	3148.41
742.084	3060.35
742.269	3220.09
742.454	3093.12
742.639	3144.31
742.824	3240.57
743.01	3089.02
743.195	2972.29
743.38	3199.61
743.565	2968.19
743.75	3041.92
743.935	3003
744.12	3052.16
744.305	2992.77
744.49	3023.48
744.675	2888.32
744.86	3043.96
745.045	2802.3
745.23	2996.86
745.415	2753.15
745.6	2951.81
745.785	2878.08
745.97	2833.02
746.155	2933.37
746.34	2900.61
746.525	2824.83
746.71	2847.36
746.895	2761.34
747.079	2830.98
747.264	2654.85
747.449	2663.04
747.634	2679.43
747.819	2749.06
748.003	2773.63
748.188	2611.84
748.373	2613.89
748.557	2669.19
748.742	2538.12
748.927	2591.36
749.111	2591.36
749.296	2675.33
749.481	2527.88
749.665	2474.63
749.85	2437.77
750.034	2534.02
750.219	2454.15
750.404	2591.36
750.588	2339.46
750.773	2437.77
750.957	2423.43
751.141	2364.04
751.326	2337.41
751.51	2269.83
751.695	2329.22
751.879	2298.5
752.064	2294.41
752.248	2290.31
752.432	2386.57
752.617	2192.01
752.801	2181.77
752.985	2171.53
753.17	2257.54
753.354	2142.86
753.538	2200.2
753.722	1972.88
753.907	2112.14
754.091	2101.9
754.275	2210.44
754.459	2083.47
754.643	2073.23
754.828	2093.71
755.012	2056.84
755.196	2044.56
755.38	2019.98
755.564	2036.36
755.748	1991.31
755.932	2036.36
756.116	1962.64
756.3	1989.26
756.484	1954.44
756.668	2015.88
756.852	1837.71
757.036	1766.03
757.22	1868.43
757.404	1833.61
757.588	1936.01
757.772	1798.8
757.956	1743.5
758.14	1798.8
758.323	1864.33
758.507	1831.57
758.691	1700.5
758.875	1798.8
759.059	1766.03
759.242	1753.74
759.426	1704.59
759.61	1731.22
759.794	1663.63
759.977	1647.25
760.161	1657.49
760.345	1694.35
760.528	1710.74
760.712	1821.33
760.895	1759.89
761.079	1741.46
761.263	1551
761.446	1665.68
761.63	1563.28
761.813	1585.81
761.997	1548.95
762.18	1507.99
762.364	1575.57
762.547	1448.6
762.731	1596.05
762.914	1575.57
763.098	1501.84
763.281	1497.75
763.464	1462.93
763.648	1428.12
763.831	1483.41
764.015	1536.66
764.198	1491.6
764.381	1481.36
764.564	1460.88
764.748	1331.86
764.931	1436.31
765.114	1458.84
765.297	1464.98
765.481	1475.22
765.664	1491.6
765.847	1305.24
766.03	1419.93
766.213	1460.88
766.397	1274.52
766.58	1403.54
766.763	1413.78
766.946	1415.83
767.129	1438.36
767.312	1346.2
767.495	1323.67
767.678	1358.49
767.861	1356.44
768.044	1413.78
768.227	1239.7
768.41	1325.72
768.593	1344.15
768.776	1237.66
768.959	1323.67
769.142	1376.92
769.324	1358.49
769.507	1245.85
769.69	1266.33
769.873	1315.48
770.056	1331.86
770.239	1223.32
770.421	1313.43
770.604	1251.99
770.787	1288.86
770.97	1208.98
771.152	1108.63
771.335	1229.46
771.518	1186.46
771.7	1206.94
771.883	1239.7
772.066	1086.11
772.248	1204.89
772.431	1198.74
772.613	1165.98
772.796	1114.78
772.978	1211.03
773.161	1239.7
773.343	1190.55
773.526	1135.26
773.708	1059.48
773.891	1067.67
774.073	1116.83
774.256	1082.01
774.438	1190.55
774.621	1024.67
774.803	1092.25
774.985	1028.76
775.168	1215.13
775.35	1045.15
775.532	1018.52
775.715	1020.57
775.897	1043.1
776.079	1000.09
776.261	977.56
776.444	948.89
776.626	1051.29
776.808	971.42
776.99	885.41
777.173	971.42
777.355	1008.28
777.537	993.95
777.719	877.21
777.901	918.17
778.083	807.58
778.265	907.93
778.447	934.56
778.629	887.45
778.811	950.94
778.993	881.31
779.175	961.18
779.357	883.36
779.539	850.59
779.721	840.35
779.903	860.83
780.085	860.83
780.267	776.86
780.449	936.6
780.631	860.83
780.812	856.73
780.994	789.15
781.176	817.82
781.358	686.75
781.54	852.64
781.721	815.77
781.903	803.49
782.085	823.97
782.267	789.15
782.448	740
782.63	701.09
782.812	803.49
782.993	754.34
783.175	713.38
783.357	754.34
783.538	711.33
783.72	690.85
783.901	707.23
784.083	680.61
784.264	785.05
784.446	750.24
784.627	699.04
784.809	725.66
784.99	660.13
785.172	623.27
785.353	723.62
785.535	649.89
785.716	594.59
785.897	651.94
786.079	682.66
786.26	619.17
786.441	578.21
786.623	592.55
786.804	592.55
786.985	590.5
787.167	524.96
787.348	668.32
787.529	567.97
787.71	656.03
787.891	613.03
788.073	623.27
788.254	486.05
788.435	637.6
788.616	508.58
788.797	529.06
788.978	561.83
789.159	490.15
789.34	608.93
789.522	471.72
789.703	535.2
789.884	619.17
790.065	520.87
790.246	508.58
790.427	578.21
790.607	578.21
790.788	547.49
790.969	434.85
791.15	492.2
791.331	486.05
791.512	426.66
791.693	426.66
791.874	514.72
792.054	471.72
792.235	574.11
792.416	527.01
792.597	471.72
792.778	492.2
792.958	506.53
793.139	475.81
793.32	461.48
793.5	395.94
793.681	504.48
793.862	486.05
794.042	422.56
794.223	326.31
794.404	461.48
794.584	422.56
794.765	400.04
794.945	428.71
795.126	346.79
795.306	455.33
795.487	422.56
795.667	404.13
795.848	490.15
796.028	410.28
796.209	410.28
796.389	463.52
796.57	410.28
796.75	365.22
796.93	443.04
797.111	404.13
797.291	352.93
797.471	430.76
797.652	332.45
797.832	443.04
798.012	363.17
798.192	422.56
798.373	340.65
798.553	375.46
798.733	281.25
798.913	373.41
799.093	354.98
799.274	342.69
799.454	367.27
799.634	361.13
799.814	408.23
799.994	254.63
800.174	363.17
800.354	365.22
800.534	338.6
800.714	410.28
800.894	354.98
801.074	234.15
801.254	352.93
801.434	373.41
801.614	357.03
801.794	373.41
801.974	897.69
802.154	285.35
802.334	350.89
802.514	291.49
802.693	322.21
802.873	258.73
803.053	354.98
803.233	348.84
803.413	287.4
803.592	297.64
803.772	273.06
803.952	266.92
804.131	342.69
804.311	244.39
804.491	340.65
804.67	326.31
804.85	254.63
805.03	342.69
805.209	375.46
805.389	281.25
805.568	357.03
805.748	281.25
805.928	230.06
806.107	305.83
806.287	258.73
806.466	283.3
806.646	275.11
806.825	273.06
807.004	295.59
807.184	221.86
807.363	365.22
807.543	225.96
807.722	281.25
807.901	266.92
808.081	273.06
808.26	209.58
808.439	273.06
808.619	260.77
808.798	299.69
808.977	307.88
809.156	258.73
809.336	256.68
809.515	299.69
809.694	178.86
809.873	303.78
810.052	322.21
810.231	273.06
810.411	266.92
810.59	307.88
810.769	213.67
810.948	236.2
811.127	133.8
811.306	217.77
811.485	271.01
811.664	213.67
811.843	185
812.022	301.73
812.201	219.82
812.38	203.43
812.559	201.38
812.737	221.86
812.916	129.7
813.095	311.97
813.274	213.67
813.453	254.63
813.632	185
813.811	201.38
813.989	221.86
814.168	266.92
814.347	209.58
814.526	264.87
814.704	191.14
814.883	281.25
815.062	185
815.24	303.78
815.419	176.81
815.598	240.3
815.776	213.67
815.955	182.95
816.133	187.05
816.312	211.62
816.49	156.33
816.669	178.86
816.847	193.19
817.026	211.62
817.204	197.29
817.383	160.42
817.561	98.99
817.74	207.53
817.918	168.62
818.097	246.44
818.275	191.14
818.453	199.34
818.632	230.06
818.81	154.28
818.988	115.37
819.167	176.81
819.345	168.62
819.523	111.27
819.701	221.86
819.879	160.42
820.058	193.19
820.236	195.24
820.414	117.42
820.592	219.82
820.77	66.22
820.948	135.85
821.127	123.56
821.305	223.91
821.483	139.94
821.661	164.52
821.839	135.85
822.017	152.23
822.195	80.55
822.373	98.99
822.551	180.9
822.729	162.47
822.907	156.33
823.085	152.23
823.262	174.76
823.44	164.52
823.618	105.13
823.796	193.19
823.974	82.6
824.152	107.18
824.329	141.99
824.507	121.51
824.685	203.43
824.863	215.72
825.04	156.33
825.218	123.56
825.396	185
825.574	154.28
825.751	123.56
825.929	180.9
826.107	78.51
826.284	158.38
826.462	111.27
826.639	164.52
826.817	139.94
826.994	129.7
827.172	156.33
827.349	123.56
827.527	180.9
827.704	121.51
827.882	172.71
828.059	137.9
828.237	123.56
828.414	127.66
828.591	62.12
828.769	121.51
828.946	53.93
829.124	164.52
829.301	127.66
829.478	125.61
829.655	117.42
829.833	164.52
830.01	115.37
830.187	127.66
830.364	107.18
830.542	74.41
830.719	174.76
830.896	168.62
831.073	201.38
831.25	101.03
831.427	96.94
831.604	123.56
831.782	72.36
831.959	111.27
832.136	98.99
832.313	129.7
832.49	101.03
832.667	148.14
832.844	113.32
833.021	133.8
833.198	150.18
833.374	72.36
833.551	101.03
833.728	31.4
833.905	148.14
834.082	78.51
834.259	23.21
834.436	92.84
834.612	78.51
834.789	152.23
834.966	96.94
835.143	201.38
835.319	51.88
835.496	123.56
835.673	70.31
835.85	203.43
836.026	109.23
836.203	88.75
836.38	31.4
836.556	146.09
836.733	101.03
836.909	39.59
837.086	23.21
837.262	-11.61
837.439	123.56
837.616	88.75
837.792	53.93
837.968	119.46
838.145	94.89
838.321	80.55
838.498	86.7
838.674	55.98
838.851	4.78
839.027	31.4
839.203	60.07
839.38	105.13
839.556	90.79
839.732	164.52
839.909	41.64
840.085	82.6
840.261	27.31
840.437	70.31
840.614	137.9
840.79	35.5
840.966	58.03
841.142	72.36
841.318	84.65
841.494	58.03
841.671	45.74
841.847	12.97
842.023	64.17
842.199	76.46
842.375	103.08
842.551	35.5
842.727	6.83
842.903	66.22
843.079	86.7
843.255	139.94
843.431	21.16
843.607	43.69
843.783	15.02
843.959	49.83
844.134	8.87
844.31	25.26
844.486	90.79
844.662	90.79
844.838	82.6
845.013	90.79
845.189	107.18
845.365	84.65
845.541	21.16
845.716	-7.51
845.892	103.08
846.068	86.7
846.244	12.97
846.419	109.23
846.595	76.46
846.77	55.98
846.946	96.94
847.122	80.55
847.297	23.21
847.473	119.46
847.648	117.42
847.824	58.03
847.999	6.83
848.175	62.12
848.35	111.27
848.526	68.27
848.701	127.66
848.876	6.83
849.052	82.6
849.227	49.83
849.403	-17.75
849.578	35.5
849.753	17.07
849.929	25.26
850.104	45.74
850.279	119.46
850.454	15.02
850.63	60.07
850.805	86.7
850.98	58.03
851.155	70.31
851.33	70.31
851.505	33.45
851.681	27.31
851.856	23.21
852.031	141.99
852.206	27.31
852.381	64.17
852.556	60.07
852.731	66.22
852.906	4.78
853.081	2.73
853.256	33.45
853.431	31.4
853.606	74.41
853.781	78.51
853.956	-56.66
854.131	158.38
854.305	45.74
854.48	33.45
854.655	129.7
854.83	29.35
855.005	29.35
855.18	37.55
855.354	-42.32
855.529	47.79
855.704	60.07
855.879	51.88
856.053	70.31
856.228	62.12
856.403	-11.61
856.577	27.31
856.752	64.17
856.926	19.11
857.101	58.03
857.276	55.98
857.45	12.97
857.625	31.4
857.799	-68.95
857.974	70.31
858.148	-30.04
858.323	86.7
858.497	6.83
858.672	2.73
858.846	98.99
859.02	4.78
859.195	-30.04
859.369	98.99
859.543	39.59
859.718	101.03
859.892	17.07
860.066	53.93
860.241	-25.94
860.415	-7.51
860.589	-25.94
860.763	27.31
860.938	53.93
861.112	109.23
861.286	12.97
861.46	51.88
861.634	33.45
861.808	0.68
861.982	-34.13
862.157	33.45
862.331	27.31
862.505	51.88
862.679	-23.89
862.853	-3.41
863.027	53.93
863.201	98.99
863.375	2.73
863.549	60.07
863.722	17.07
863.896	43.69
864.07	-17.75
864.244	27.31
864.418	35.5
864.592	-27.99
864.766	66.22
864.939	62.12
865.113	15.02
865.287	62.12
865.461	-56.66
865.634	47.79
865.808	17.07
865.982	-1.37
866.156	15.02
866.329	39.59
866.503	37.55
866.676	19.11
866.85	86.7
867.024	4.78
867.197	-5.46
867.371	31.4
867.544	47.79
867.718	-71
867.891	53.93
868.065	-15.7
868.238	45.74
868.412	121.51
868.585	-3.41
868.759	96.94
868.932	4.78
869.105	29.35
869.279	-75.09
869.452	-5.46
869.625	37.55
869.799	29.35
869.972	27.31
870.145	66.22
870.319	72.36
870.492	21.16
870.665	82.6
870.838	47.79
871.011	4.78
871.185	-11.61
871.358	0.68
871.531	45.74
871.704	-13.65
871.877	6.83
872.05	29.35
872.223	-73.04
872.396	21.16
872.569	43.69
872.742	82.6
872.915	58.03
873.088	60.07
873.261	-32.08
873.434	-9.56
873.607	-21.84
873.78	41.64
873.953	37.55
874.126	-7.51
874.299	139.94
874.471	53.93
874.644	92.84
874.817	12.97
874.99	76.46
875.163	-50.52
875.335	62.12
875.508	4.78
875.681	2.73
875.853	-103.76
876.026	74.41
876.199	4.78
876.371	78.51
876.544	12.97
876.717	39.59
876.889	-13.65
877.062	17.07
877.234	-9.56
877.407	76.46
877.579	70.31
877.752	29.35
877.924	0.68
878.097	-3.41
878.269	-11.61
878.442	-11.61
878.614	17.07
878.786	-48.47
878.959	37.55
879.131	-36.18
879.303	-3.41
879.476	-1.37
879.648	15.02
879.82	45.74
879.993	-3.41
880.165	74.41
880.337	10.92
880.509	96.94
880.681	-30.04
880.854	-44.37
881.026	25.26
881.198	74.41
881.37	6.83
881.542	70.31
881.714	8.87
881.886	21.16
882.058	-17.75
882.23	-77.14
882.402	19.11
882.574	-52.56
882.746	-7.51
882.918	92.84
883.09	17.07
883.262	86.7
883.434	31.4
883.606	33.45
883.778	0.68
883.95	45.74
884.122	10.92
884.293	-3.41
884.465	-5.46
884.637	76.46
884.809	-71
884.98	12.97
885.152	0.68
885.324	10.92
885.496	35.5
885.667	72.36
885.839	-56.66
886.011	84.65
886.182	12.97
886.354	-1.37
886.525	35.5
886.697	-3.41
886.869	12.97
887.04	2.73
887.212	80.55
887.383	-13.65
887.555	-23.89
887.726	-68.95
887.897	6.83
888.069	10.92
888.24	-9.56
888.412	35.5
888.583	2.73
888.754	47.79
888.926	-48.47
889.097	60.07
889.268	-77.14
889.44	-25.94
889.611	37.55
889.782	-38.23
889.953	53.93
890.125	37.55
890.296	-60.76
890.467	12.97
890.638	-15.7
890.809	25.26
890.98	17.07
891.151	17.07
891.323	84.65
891.494	64.17
891.665	51.88
891.836	45.74
892.007	33.45
892.178	-3.41
892.349	-5.46
892.52	-36.18
892.691	2.73
892.862	-13.65
893.032	-36.18
893.203	17.07
893.374	-5.46
893.545	0.68
893.716	8.87
893.887	66.22
894.057	19.11
894.228	-52.56
894.399	-9.56
894.57	17.07
894.74	76.46
894.911	84.65
895.082	33.45
895.253	-46.42
895.423	53.93
895.594	80.55
895.764	4.78
895.935	-44.37
896.106	27.31
896.276	-36.18
896.447	-13.65
896.617	29.35
896.788	-7.51
896.958	2.73
897.129	60.07
897.299	37.55
897.47	33.45
897.64	31.4
897.81	-1.37
897.981	-19.8
898.151	29.35
898.322	0.68
898.492	19.11
898.662	29.35
898.832	-38.23
899.003	-36.18
899.173	23.21
899.343	60.07
899.513	-5.46
