Data from USB4F104151__20__10-21-23-459.txt Node

Date: Wed Mar 12 10:21:23 EDT 2025
User: louis
Spectrometer: USB4F10415
Trigger mode: 4
Integration Time (sec): 3.000000E-2
Scans to average: 1
Electric dark correction enabled: true
Nonlinearity correction enabled: false
Boxcar width: 0
XAxis mode: Wavelengths
Number of Pixels in Spectrum: 3648
>>>>>Begin Spectral Data<<<<<
178.204	-177.49
178.424	-177.49
178.644	-177.49
178.864	-181.59
179.084	-91.48
179.304	-3.41
179.524	-9.56
179.744	33.45
179.964	2.73
180.184	-1.37
180.404	82.6
180.624	-21.84
180.844	-81.24
181.064	21.16
181.283	21.16
181.503	-17.75
181.723	-25.94
181.943	-64.85
182.163	92.84
182.383	-30.04
182.602	-30.04
182.822	-23.89
183.042	25.26
183.262	25.26
183.482	76.46
183.701	49.83
183.921	19.11
184.141	-50.52
184.361	27.31
184.58	-48.47
184.8	-7.51
185.02	-93.52
185.239	62.12
185.459	29.35
185.679	66.22
185.898	-75.09
186.118	-1.37
186.338	62.12
186.557	82.6
186.777	2.73
186.997	39.59
187.216	-11.61
187.436	82.6
187.655	21.16
187.875	21.16
188.095	84.65
188.314	4.78
188.534	68.27
188.753	-40.28
188.973	78.51
189.192	-27.99
189.412	-38.23
189.631	60.07
189.851	15.02
190.07	98.99
190.29	4.78
190.509	37.55
190.729	-3.41
190.948	0.68
191.168	152.23
191.387	70.31
191.607	-34.13
191.826	-38.23
192.045	-27.99
192.265	23.21
192.484	-73.04
192.704	-3.41
192.923	-30.04
193.142	74.41
193.362	-52.56
193.581	49.83
193.8	-30.04
194.02	43.69
194.239	43.69
194.458	58.03
194.678	-40.28
194.897	21.16
195.116	70.31
195.335	41.64
195.555	86.7
195.774	0.68
195.993	47.79
196.212	68.27
196.432	-34.13
196.651	39.59
196.87	-7.51
197.089	29.35
197.308	25.26
197.528	72.36
197.747	-7.51
197.966	66.22
198.185	74.41
198.404	-3.41
198.623	39.59
198.842	-3.41
199.062	74.41
199.281	53.93
199.5	8.87
199.719	19.11
199.938	49.83
200.157	-1.37
200.376	29.35
200.595	-7.51
200.814	39.59
201.033	-21.84
201.252	64.17
201.471	29.35
201.69	4.78
201.909	33.45
202.128	15.02
202.347	51.88
202.566	-11.61
202.785	17.07
203.004	58.03
203.223	72.36
203.442	-64.85
203.661	10.92
203.879	8.87
204.098	55.98
204.317	-5.46
204.536	35.5
204.755	-64.85
204.974	-13.65
205.193	6.83
205.411	64.17
205.63	8.87
205.849	-27.99
206.068	-7.51
206.287	29.35
206.505	0.68
206.724	12.97
206.943	-9.56
207.162	-7.51
207.381	17.07
207.599	29.35
207.818	29.35
208.037	-81.24
208.255	12.97
208.474	0.68
208.693	-17.75
208.911	15.02
209.13	-7.51
209.349	-17.75
209.567	-3.41
209.786	53.93
210.005	94.89
210.223	23.21
210.442	-85.33
210.661	29.35
210.879	-3.41
211.098	-15.7
211.316	17.07
211.535	68.27
211.753	21.16
211.972	-1.37
212.191	2.73
212.409	8.87
212.628	6.83
212.846	15.02
213.065	66.22
213.283	53.93
213.502	-21.84
213.72	35.5
213.938	17.07
214.157	80.55
214.375	58.03
214.594	-103.76
214.812	53.93
215.031	68.27
215.249	23.21
215.467	-3.41
215.686	64.17
215.904	45.74
216.122	-46.42
216.341	-7.51
216.559	21.16
216.778	10.92
216.996	19.11
217.214	-19.8
217.432	47.79
217.651	31.4
217.869	60.07
218.087	-7.51
218.306	-32.08
218.524	88.75
218.742	41.64
218.96	62.12
219.179	-19.8
219.397	-1.37
219.615	39.59
219.833	43.69
220.051	53.93
220.27	35.5
220.488	-7.51
220.706	62.12
220.924	68.27
221.142	-23.89
221.36	-1.37
221.578	12.97
221.796	35.5
222.015	-42.32
222.233	4.78
222.451	53.93
222.669	25.26
222.887	47.79
223.105	-27.99
223.323	21.16
223.541	8.87
223.759	-1.37
223.977	6.83
224.195	66.22
224.413	-46.42
224.631	76.46
224.849	31.4
225.067	41.64
225.285	96.94
225.503	-36.18
225.721	-19.8
225.939	70.31
226.157	25.26
226.375	84.65
226.592	-44.37
226.81	-23.89
227.028	47.79
227.246	78.51
227.464	-27.99
227.682	58.03
227.9	-23.89
228.117	21.16
228.335	37.55
228.553	-30.04
228.771	-7.51
228.989	-15.7
229.206	-15.7
229.424	-17.75
229.642	-11.61
229.86	-23.89
230.077	39.59
230.295	47.79
230.513	27.31
230.731	-23.89
230.948	55.98
231.166	80.55
231.384	-36.18
231.601	27.31
231.819	-83.28
232.037	0.68
232.254	-34.13
232.472	4.78
232.689	6.83
232.907	21.16
233.125	62.12
233.342	6.83
233.56	47.79
233.777	-1.37
233.995	80.55
234.213	37.55
234.43	39.59
234.648	23.21
234.865	15.02
235.083	0.68
235.3	-11.61
235.518	35.5
235.735	-3.41
235.953	58.03
236.17	29.35
236.388	64.17
236.605	55.98
236.822	25.26
237.04	4.78
237.257	25.26
237.475	4.78
237.692	31.4
237.909	17.07
238.127	-7.51
238.344	12.97
238.562	58.03
238.779	-34.13
238.996	-75.09
239.214	-34.13
239.431	82.6
239.648	21.16
239.865	76.46
240.083	-5.46
240.3	49.83
240.517	37.55
240.735	64.17
240.952	113.32
241.169	125.61
241.386	41.64
241.603	-7.51
241.821	-15.7
242.038	101.03
242.255	51.88
242.472	-30.04
242.689	-23.89
242.907	19.11
243.124	-32.08
243.341	17.07
243.558	-23.89
243.775	-42.32
243.992	-1.37
244.209	98.99
244.426	41.64
244.643	17.07
244.86	-68.95
245.078	-9.56
245.295	41.64
245.512	17.07
245.729	33.45
245.946	45.74
246.163	-13.65
246.38	-11.61
246.597	8.87
246.814	25.26
247.031	66.22
247.248	-7.51
247.464	51.88
247.681	33.45
247.898	29.35
248.115	39.59
248.332	-50.52
248.549	74.41
248.766	43.69
248.983	49.83
249.2	70.31
249.417	43.69
249.633	6.83
249.85	39.59
250.067	23.21
250.284	-11.61
250.501	-71
250.717	74.41
250.934	66.22
251.151	-23.89
251.368	49.83
251.585	41.64
251.801	25.26
252.018	-38.23
252.235	43.69
252.451	-40.28
252.668	35.5
252.885	39.59
253.102	29.35
253.318	-48.47
253.535	-32.08
253.752	-11.61
253.968	8.87
254.185	-83.28
254.401	8.87
254.618	-25.94
254.835	-56.66
255.051	92.84
255.268	10.92
255.484	70.31
255.701	74.41
255.917	82.6
256.134	29.35
256.351	66.22
256.567	53.93
256.784	53.93
257	-1.37
257.217	33.45
257.433	60.07
257.65	27.31
257.866	-3.41
258.082	-13.65
258.299	6.83
258.515	105.13
258.732	4.78
258.948	0.68
259.165	43.69
259.381	-38.23
259.597	-1.37
259.814	21.16
260.03	6.83
260.246	64.17
260.463	0.68
260.679	8.87
260.895	88.75
261.112	2.73
261.328	49.83
261.544	51.88
261.761	25.26
261.977	15.02
262.193	-13.65
262.409	29.35
262.626	-27.99
262.842	-13.65
263.058	53.93
263.274	45.74
263.49	-73.04
263.707	10.92
263.923	-34.13
264.139	-3.41
264.355	39.59
264.571	41.64
264.787	-9.56
265.004	47.79
265.22	17.07
265.436	39.59
265.652	8.87
265.868	15.02
266.084	-7.51
266.3	-15.7
266.516	-15.7
266.732	10.92
266.948	12.97
267.164	6.83
267.38	29.35
267.596	31.4
267.812	101.03
268.028	21.16
268.244	21.16
268.46	6.83
268.676	-87.38
268.892	62.12
269.108	41.64
269.324	45.74
269.54	8.87
269.756	-34.13
269.972	-36.18
270.188	-7.51
270.403	-36.18
270.619	-27.99
270.835	55.98
271.051	25.26
271.267	10.92
271.483	78.51
271.698	-7.51
271.914	47.79
272.13	-77.14
272.346	27.31
272.562	31.4
272.777	66.22
272.993	55.98
273.209	-48.47
273.425	41.64
273.64	15.02
273.856	39.59
274.072	25.26
274.287	25.26
274.503	-60.76
274.719	-48.47
274.934	-15.7
275.15	-27.99
275.366	15.02
275.581	-23.89
275.797	-21.84
276.012	17.07
276.228	6.83
276.444	25.26
276.659	55.98
276.875	29.35
277.09	43.69
277.306	21.16
277.521	8.87
277.737	25.26
277.952	76.46
278.168	-40.28
278.383	94.89
278.599	-1.37
278.814	31.4
279.03	0.68
279.245	105.13
279.461	4.78
279.676	8.87
279.892	-25.94
280.107	29.35
280.322	41.64
280.538	25.26
280.753	-25.94
280.969	4.78
281.184	58.03
281.399	82.6
281.615	62.12
281.83	92.84
282.045	19.11
282.26	4.78
282.476	43.69
282.691	76.46
282.906	-7.51
283.122	84.65
283.337	27.31
283.552	4.78
283.767	-25.94
283.983	29.35
284.198	78.51
284.413	53.93
284.628	21.16
284.843	64.17
285.058	78.51
285.274	-40.28
285.489	-93.52
285.704	68.27
285.919	-7.51
286.134	17.07
286.349	88.75
286.564	4.78
286.779	12.97
286.995	-7.51
287.21	-15.7
287.425	-32.08
287.64	33.45
287.855	105.13
288.07	23.21
288.285	21.16
288.5	66.22
288.715	107.18
288.93	47.79
289.145	29.35
289.36	76.46
289.575	-25.94
289.79	25.26
290.004	2.73
290.219	168.62
290.434	78.51
290.649	-27.99
290.864	-32.08
291.079	51.88
291.294	-13.65
291.509	37.55
291.724	6.83
291.938	8.87
292.153	35.5
292.368	41.64
292.583	-15.7
292.798	0.68
293.012	-15.7
293.227	-11.61
293.442	-46.42
293.657	64.17
293.871	41.64
294.086	-19.8
294.301	8.87
294.516	86.7
294.73	0.68
294.945	58.03
295.16	-40.28
295.374	66.22
295.589	129.7
295.804	58.03
296.018	21.16
296.233	107.18
296.447	68.27
296.662	23.21
296.877	25.26
297.091	-1.37
297.306	37.55
297.52	15.02
297.735	31.4
297.949	66.22
298.164	80.55
298.378	86.7
298.593	35.5
298.807	17.07
299.022	27.31
299.236	-11.61
299.451	17.07
299.665	6.83
299.88	33.45
300.094	86.7
300.309	53.93
300.523	88.75
300.737	47.79
300.952	25.26
301.166	39.59
301.381	-19.8
301.595	41.64
301.809	-1.37
302.024	-5.46
302.238	0.68
302.452	49.83
302.667	-54.61
302.881	103.08
303.095	49.83
303.309	41.64
303.524	41.64
303.738	8.87
303.952	-36.18
304.166	58.03
304.381	-64.85
304.595	41.64
304.809	21.16
305.023	-50.52
305.237	-15.7
305.452	8.87
305.666	25.26
305.88	39.59
306.094	-1.37
306.308	0.68
306.522	-11.61
306.736	41.64
306.95	72.36
307.164	-15.7
307.379	98.99
307.593	103.08
307.807	0.68
308.021	45.74
308.235	2.73
308.449	25.26
308.663	35.5
308.877	68.27
309.091	4.78
309.305	90.79
309.519	19.11
309.733	-13.65
309.947	6.83
310.161	-1.37
310.374	74.41
310.588	21.16
310.802	4.78
311.016	12.97
311.23	76.46
311.444	-19.8
311.658	72.36
311.872	2.73
312.085	60.07
312.299	121.51
312.513	2.73
312.727	49.83
312.941	55.98
313.154	10.92
313.368	33.45
313.582	45.74
313.796	43.69
314.009	17.07
314.223	64.17
314.437	-27.99
314.651	0.68
314.864	-15.7
315.078	8.87
315.292	2.73
315.505	55.98
315.719	66.22
315.933	15.02
316.146	90.79
316.36	-3.41
316.573	23.21
316.787	35.5
317.001	-48.47
317.214	-34.13
317.428	37.55
317.641	-40.28
317.855	-21.84
318.068	-7.51
318.282	0.68
318.495	31.4
318.709	17.07
318.922	64.17
319.136	72.36
319.349	19.11
319.563	29.35
319.776	53.93
319.99	-27.99
320.203	74.41
320.417	-3.41
320.63	74.41
320.843	96.94
321.057	35.5
321.27	-48.47
321.483	58.03
321.697	123.56
321.91	-48.47
322.124	6.83
322.337	-1.37
322.55	-27.99
322.763	6.83
322.977	8.87
323.19	0.68
323.403	33.45
323.617	41.64
323.83	31.4
324.043	21.16
324.256	12.97
324.469	4.78
324.683	37.55
324.896	41.64
325.109	-40.28
325.322	-56.66
325.535	53.93
325.748	78.51
325.962	64.17
326.175	60.07
326.388	17.07
326.601	82.6
326.814	55.98
327.027	62.12
327.24	8.87
327.453	-54.61
327.666	10.92
327.879	15.02
328.092	-40.28
328.305	-5.46
328.518	2.73
328.731	23.21
328.944	-5.46
329.157	82.6
329.37	15.02
329.583	146.09
329.796	49.83
330.009	-19.8
330.222	68.27
330.435	-32.08
330.648	74.41
330.861	4.78
331.073	-23.89
331.286	41.64
331.499	33.45
331.712	-5.46
331.925	74.41
332.138	41.64
332.35	-1.37
332.563	-19.8
332.776	96.94
332.989	-32.08
333.202	10.92
333.414	51.88
333.627	31.4
333.84	-52.56
334.053	33.45
334.265	17.07
334.478	-7.51
334.691	78.51
334.903	41.64
335.116	12.97
335.329	78.51
335.541	15.02
335.754	45.74
335.966	25.26
336.179	-21.84
336.392	17.07
336.604	-1.37
336.817	8.87
337.029	-7.51
337.242	-52.56
337.454	94.89
337.667	-25.94
337.88	101.03
338.092	12.97
338.305	10.92
338.517	15.02
338.729	17.07
338.942	31.4
339.154	64.17
339.367	-3.41
339.579	21.16
339.792	-17.75
340.004	80.55
340.217	0.68
340.429	6.83
340.641	64.17
340.854	27.31
341.066	4.78
341.278	55.98
341.491	70.31
341.703	19.11
341.915	39.59
342.128	27.31
342.34	49.83
342.552	17.07
342.764	6.83
342.977	12.97
343.189	23.21
343.401	90.79
343.613	72.36
343.826	29.35
344.038	-40.28
344.25	-27.99
344.462	21.16
344.674	-1.37
344.886	0.68
345.099	43.69
345.311	58.03
345.523	21.16
345.735	-15.7
345.947	82.6
346.159	25.26
346.371	41.64
346.583	-36.18
346.795	152.23
347.007	0.68
347.219	6.83
347.431	21.16
347.643	35.5
347.855	27.31
348.067	41.64
348.279	-30.04
348.491	41.64
348.703	31.4
348.915	15.02
349.127	-7.51
349.339	58.03
349.551	0.68
349.763	41.64
349.975	4.78
350.187	76.46
350.399	66.22
350.61	21.16
350.822	43.69
351.034	2.73
351.246	21.16
351.458	60.07
351.669	27.31
351.881	27.31
352.093	64.17
352.305	74.41
352.517	-32.08
352.728	55.98
352.94	90.79
353.152	43.69
353.363	41.64
353.575	66.22
353.787	55.98
353.999	15.02
354.21	98.99
354.422	76.46
354.633	78.51
354.845	17.07
355.057	6.83
355.268	0.68
355.48	25.26
355.692	29.35
355.903	43.69
356.115	-23.89
356.326	45.74
356.538	-17.75
356.749	27.31
356.961	0.68
357.172	10.92
357.384	64.17
357.595	64.17
357.807	15.02
358.018	17.07
358.23	-5.46
358.441	84.65
358.653	107.18
358.864	-1.37
359.075	8.87
359.287	39.59
359.498	45.74
359.709	33.45
359.921	33.45
360.132	98.99
360.344	23.21
360.555	33.45
360.766	43.69
360.977	4.78
361.189	96.94
361.4	25.26
361.611	25.26
361.823	107.18
362.034	43.69
362.245	25.26
362.456	86.7
362.667	101.03
362.879	53.93
363.09	0.68
363.301	12.97
363.512	-7.51
363.723	58.03
363.935	62.12
364.146	37.55
364.357	31.4
364.568	19.11
364.779	41.64
364.99	58.03
365.201	43.69
365.412	27.31
365.623	0.68
365.834	105.13
366.045	-40.28
366.256	115.37
366.467	115.37
366.678	70.31
366.889	17.07
367.1	31.4
367.311	0.68
367.522	29.35
367.733	68.27
367.944	49.83
368.155	8.87
368.366	-58.71
368.577	62.12
368.788	39.59
368.999	4.78
369.209	49.83
369.42	55.98
369.631	41.64
369.842	70.31
370.053	8.87
370.264	107.18
370.474	-36.18
370.685	0.68
370.896	33.45
371.107	41.64
371.317	49.83
371.528	-17.75
371.739	82.6
371.95	92.84
372.16	45.74
372.371	25.26
372.582	47.79
372.792	17.07
373.003	49.83
373.214	58.03
373.424	27.31
373.635	-21.84
373.846	129.7
374.056	12.97
374.267	21.16
374.477	58.03
374.688	78.51
374.898	25.26
375.109	-42.32
375.319	90.79
375.53	121.51
375.74	74.41
375.951	35.5
376.161	-15.7
376.372	92.84
376.582	-36.18
376.793	37.55
377.003	-36.18
377.214	27.31
377.424	84.65
377.635	33.45
377.845	0.68
378.055	39.59
378.266	-21.84
378.476	68.27
378.686	-7.51
378.897	31.4
379.107	92.84
379.317	68.27
379.528	70.31
379.738	-3.41
379.948	-25.94
380.158	25.26
380.369	-21.84
380.579	82.6
380.789	53.93
380.999	17.07
381.21	74.41
381.42	76.46
381.63	51.88
381.84	21.16
382.05	109.23
382.261	105.13
382.471	58.03
382.681	15.02
382.891	76.46
383.101	-13.65
383.311	78.51
383.521	15.02
383.731	8.87
383.941	-3.41
384.151	-17.75
384.361	41.64
384.571	70.31
384.781	55.98
384.991	51.88
385.201	90.79
385.411	68.27
385.621	8.87
385.831	8.87
386.041	33.45
386.251	0.68
386.461	144.04
386.671	17.07
386.881	49.83
387.091	115.37
387.301	39.59
387.511	84.65
387.72	49.83
387.93	0.68
388.14	29.35
388.35	43.69
388.56	101.03
388.769	35.5
388.979	82.6
389.189	23.21
389.399	15.02
389.609	94.89
389.818	94.89
390.028	-13.65
390.238	39.59
390.447	6.83
390.657	111.27
390.867	41.64
391.076	6.83
391.286	-15.7
391.496	72.36
391.705	-40.28
391.915	90.79
392.125	129.7
392.334	-1.37
392.544	58.03
392.753	113.32
392.963	72.36
393.172	51.88
393.382	41.64
393.591	119.46
393.801	21.16
394.01	152.23
394.22	103.08
394.429	17.07
394.639	27.31
394.848	27.31
395.058	58.03
395.267	82.6
395.477	8.87
395.686	29.35
395.895	86.7
396.105	164.52
396.314	66.22
396.524	103.08
396.733	139.94
396.942	152.23
397.152	55.98
397.361	148.14
397.57	141.99
397.78	127.66
397.989	103.08
398.198	199.34
398.407	135.85
398.617	39.59
398.826	125.61
399.035	84.65
399.244	107.18
399.453	70.31
399.663	96.94
399.872	62.12
400.081	98.99
400.29	82.6
400.499	98.99
400.708	133.8
400.917	144.04
401.127	68.27
401.336	101.03
401.545	137.9
401.754	129.7
401.963	58.03
402.172	127.66
402.381	131.75
402.59	94.89
402.799	137.9
403.008	92.84
403.217	127.66
403.426	156.33
403.635	144.04
403.844	121.51
404.053	113.32
404.262	98.99
404.471	170.66
404.68	148.14
404.888	123.56
405.097	74.41
405.306	160.42
405.515	156.33
405.724	135.85
405.933	187.05
406.142	123.56
406.35	213.67
406.559	174.76
406.768	178.86
406.977	244.39
407.185	131.75
407.394	189.1
407.603	150.18
407.812	195.24
408.02	287.4
408.229	248.49
408.438	252.58
408.646	191.14
408.855	219.82
409.064	205.48
409.272	293.54
409.481	293.54
409.69	291.49
409.898	367.27
410.107	281.25
410.315	342.69
410.524	244.39
410.733	354.98
410.941	334.5
411.15	387.75
411.358	385.7
411.567	385.7
411.775	422.56
411.984	447.14
412.192	479.91
412.401	377.51
412.609	457.38
412.818	541.35
413.026	490.15
413.234	481.96
413.443	555.68
413.651	502.44
413.86	590.5
414.068	594.59
414.276	674.46
414.485	662.18
414.693	686.75
414.901	744.1
415.11	758.43
415.318	686.75
415.526	647.84
415.734	823.97
415.943	836.25
416.151	893.6
416.359	809.63
416.567	922.27
416.776	905.88
416.984	930.46
417.192	1039
417.4	957.08
417.608	946.84
417.817	1014.43
418.025	1120.92
418.233	1194.65
418.441	1092.25
418.649	1229.46
418.857	1247.9
419.065	1376.92
419.273	1329.81
419.481	1333.91
419.689	1565.33
419.897	1462.93
420.105	1647.25
420.313	1643.15
420.521	1712.78
420.729	1737.36
420.937	1788.56
421.145	1852.05
421.353	2040.46
421.561	1931.92
421.769	2124.43
421.977	2087.56
422.185	2134.67
422.393	2296.46
422.601	2400.9
422.809	2318.98
423.017	2384.52
423.224	2523.78
423.432	2589.32
423.64	2601.6
423.848	2839.17
424.056	2736.77
424.263	2988.67
424.471	3074.68
424.679	3156.6
424.887	3207.8
425.094	3193.47
425.302	3275.38
425.51	3361.4
425.718	3517.05
425.925	3654.26
426.133	3687.03
426.341	4012.65
426.548	4006.51
426.756	3973.74
426.964	4262.51
427.171	4424.3
427.379	4418.15
427.586	4633.19
427.794	4692.58
428.001	5007.97
428.209	5237.34
428.417	5194.33
428.624	5546.58
428.832	5505.62
429.039	5380.7
429.247	5347.93
429.454	5984.85
429.662	6193.74
429.869	6034
430.076	6279.75
430.284	6109.77
430.491	6576.71
430.699	6736.45
430.906	6869.57
431.114	6885.95
431.321	7279.16
431.528	7252.54
431.736	7703.09
431.943	8237.61
432.15	7699
432.358	7916.08
432.565	8405.55
432.772	8397.35
432.979	8628.77
433.187	8755.75
433.394	9177.63
433.601	9734.68
433.808	9712.15
434.016	9335.32
434.223	9912.85
434.43	10582.54
434.637	10404.36
434.844	11110.91
435.052	11309.57
435.259	10955.27
435.466	11084.29
435.673	10945.03
435.88	11942.39
436.087	12261.87
436.294	12354.03
436.501	12198.38
436.708	12401.13
436.915	12921.32
437.122	13386.21
437.329	13238.75
437.537	13894.1
437.743	13836.76
437.95	13863.38
438.157	14717.39
438.364	15157.7
438.571	14881.22
438.778	15266.24
438.985	16370.1
439.192	15839.67
439.399	16468.4
439.606	16011.7
439.813	16978.34
440.02	17850.78
440.227	17678.75
440.433	17435.04
440.64	17994.14
440.847	18135.45
441.054	18274.71
441.261	19425.67
441.467	19327.36
441.674	19767.68
441.881	20416.88
442.088	20035.96
442.294	20230.52
442.501	20947.31
442.708	21006.7
442.914	22100.31
443.121	22813.01
443.328	22102.36
443.534	23916.86
443.741	23236.94
443.948	22851.92
444.154	24586.55
444.361	24193.34
444.568	24817.97
444.774	24516.92
444.981	24826.16
445.187	25512.23
445.394	26689.81
445.6	26265.88
445.807	28643.57
446.013	27414.79
446.22	27988.22
446.426	28723.44
446.633	29262.06
446.839	30159.07
447.046	29006.06
447.252	30580.95
447.459	30800.08
447.665	30298.33
447.871	31609.03
448.078	33073.33
448.284	31332.56
448.491	32147.65
448.697	33585.32
448.903	34279.58
449.11	34070.69
449.316	33640.62
449.522	34209.95
449.728	34777.24
449.935	35371.15
450.141	34971.8
450.347	35715.21
450.553	34762.9
450.76	35115.15
450.966	36270.21
451.172	35903.62
451.378	36272.26
451.584	35950.73
451.791	36849.78
451.997	36577.4
452.203	37404.78
452.409	36968.57
452.615	36675.71
452.821	35412.11
453.027	34994.32
453.233	37138.55
453.44	35487.89
453.646	35842.18
453.852	35563.66
454.058	36681.85
454.264	35260.56
454.47	36171.91
454.676	35299.47
454.882	36284.54
455.088	32784.57
455.294	33669.29
455.5	34162.85
455.705	34332.83
455.911	33374.38
456.117	32327.87
456.323	31715.53
456.529	30208.22
456.735	31119.57
456.941	30712.02
457.147	30173.41
457.352	29004.02
457.558	28616.95
457.764	28899.57
457.97	28195.07
458.176	27412.74
458.381	27613.45
458.587	26059.04
458.793	26130.72
458.999	24981.81
459.204	26802.45
459.41	26288.41
459.616	24437.05
459.821	24160.57
460.027	23984.44
460.233	23767.36
460.438	22681.94
460.644	22661.46
460.85	21891.42
461.055	21483.87
461.261	21418.34
461.466	19784.06
461.672	19374.47
461.878	20787.57
462.083	19186.05
462.289	19102.09
462.494	18712.97
462.7	18014.62
462.905	17611.17
463.111	18039.19
463.316	18106.77
463.522	17818.01
463.727	17885.59
463.932	17367.46
464.138	17703.32
464.343	17613.21
464.549	17103.27
464.754	17678.75
464.959	17717.66
465.165	17545.63
465.37	16705.96
465.575	16380.34
465.781	17004.97
465.986	17035.69
466.191	16497.07
466.397	15915.45
466.602	15182.28
466.807	16118.2
467.012	16107.96
467.218	16046.52
467.423	15653.31
467.628	16007.61
467.833	16427.44
468.038	15727.03
468.244	15348.16
468.449	16103.86
468.654	15339.97
468.859	15204.8
469.064	15264.19
469.269	14705.1
469.474	14752.2
469.679	15139.27
469.885	14813.64
470.09	15000.01
470.295	14557.64
470.5	14242.26
470.705	14508.49
470.91	14072.28
471.115	13935.06
471.32	14174.67
471.525	14115.28
471.73	13685.21
471.935	13666.78
472.139	13101.54
472.344	13599.2
472.549	13296.1
472.754	13101.54
472.959	12710.38
473.164	12755.43
473.369	12573.16
473.574	12833.25
473.778	12644.84
473.983	12603.88
474.188	12745.19
474.393	12356.08
474.598	12048.88
474.802	12157.43
475.007	11983.35
475.212	11944.44
475.417	11489.79
475.621	11645.43
475.826	11543.03
476.031	11266.56
476.235	11375.1
476.44	11391.48
476.645	11149.82
476.849	11319.81
477.054	10881.54
477.259	10807.81
477.463	10822.15
477.668	10566.15
477.872	10707.46
478.077	10486.28
478.282	10105.36
478.486	10261.01
478.691	10287.63
478.895	10242.57
479.1	10131.98
479.304	10088.98
479.509	9816.6
479.713	9931.28
479.918	9722.39
480.122	9570.84
480.326	9730.58
480.531	9923.09
480.735	9687.57
480.94	9685.53
481.144	10017.3
481.348	9519.64
481.553	9447.96
481.757	9339.42
481.961	9720.34
482.166	9591.32
482.37	9581.08
482.574	9486.87
482.778	9495.07
482.983	9710.1
483.187	9351.71
483.391	9552.41
483.595	9396.76
483.8	9280.03
484.004	9656.86
484.208	9470.49
484.412	9376.28
484.616	9364
484.821	9407
485.025	9310.75
485.229	9269.79
485.433	9409.05
485.637	9439.77
485.841	9306.65
486.045	9407
486.249	9316.89
486.453	9337.37
486.657	9486.87
486.861	9482.78
487.065	9349.66
487.269	9486.87
487.473	9300.51
487.677	9458.2
487.881	9515.55
488.085	9327.13
488.289	9400.86
488.493	9349.66
488.697	9722.39
488.901	9593.37
489.105	9398.81
489.309	9542.17
489.512	9656.86
489.716	9638.42
489.92	9730.58
490.124	9695.77
490.328	9538.07
490.531	9359.9
490.735	9601.56
490.939	9824.79
491.143	9460.25
491.346	9886.23
491.55	9925.14
491.754	9746.97
491.958	10000.91
492.161	9869.84
492.365	10109.46
492.569	10113.55
492.772	10011.15
492.976	10136.08
493.18	10168.85
493.383	10281.49
493.587	10390.03
493.79	10412.56
493.994	10158.61
494.197	10623.5
494.401	10699.27
494.605	10707.46
494.808	10838.53
495.012	11096.58
495.215	10820.1
495.419	11033.09
495.622	11006.47
495.825	11129.34
496.029	11035.14
496.232	11373.05
496.436	11364.86
496.639	11657.72
496.843	11395.58
497.046	11850.23
497.249	12032.5
497.453	11948.53
497.656	12167.67
497.859	12044.79
498.063	12282.35
498.266	12585.45
498.469	12364.27
498.673	12517.87
498.876	12923.37
499.079	13126.11
499.282	12872.17
499.485	13316.58
499.689	13353.44
499.892	13474.27
500.095	13351.39
500.298	13965.78
500.501	13793.75
500.705	14240.21
500.908	14066.13
501.111	14414.29
501.314	14578.12
501.517	14944.71
501.72	14979.53
501.923	14940.61
502.126	15073.73
502.329	15536.57
502.532	15458.75
502.735	15681.98
502.938	15991.22
503.141	16056.76
503.344	16071.09
503.547	16251.31
503.75	16650.67
503.953	16787.88
504.156	17064.36
504.359	16892.33
504.562	17303.97
504.765	17553.82
504.968	17686.94
505.17	17645.98
505.373	18059.67
505.576	17987.99
505.779	18270.61
505.982	18383.25
506.185	18901.39
506.387	18774.41
506.59	19284.36
506.793	19569.02
506.996	19454.34
507.198	20234.61
507.401	19888.51
507.604	20140.41
507.807	20613.49
508.009	20812.14
508.212	20703.6
508.415	20906.35
508.617	21361
508.82	21537.12
509.022	21447.01
509.225	22264.15
509.428	21928.28
509.63	22143.32
509.833	22229.34
510.035	23026
510.238	22776.14
510.44	23073.1
510.643	23249.22
510.845	23714.11
511.048	23642.43
511.25	23894.33
511.453	24262.97
511.655	25047.34
511.858	24787.25
512.06	24883.5
512.262	25119.02
512.465	25168.17
512.667	25461.03
512.87	25948.45
513.072	25823.52
513.274	26548.5
513.477	26771.73
513.679	26931.47
513.881	27027.73
514.084	27484.42
514.286	27478.28
514.488	27570.44
514.69	28512.5
514.893	28651.77
515.095	28371.19
515.297	29108.46
515.499	28811.51
515.701	29313.26
515.904	29870.31
516.106	30034.14
516.308	30056.67
516.51	30492.89
516.712	30193.89
516.914	30748.89
517.116	31381.71
517.318	31299.79
517.52	31516.87
517.722	31883.46
517.925	32102.59
518.127	32436.41
518.329	32723.13
518.531	32426.17
518.733	33384.62
518.935	33450.16
519.136	33482.92
519.338	33757.35
519.54	34132.13
519.742	34177.19
519.944	34701.47
520.146	35141.78
520.348	35483.79
520.55	35039.38
520.752	35594.38
520.954	36503.68
521.155	35936.39
521.357	36739.19
521.559	36970.61
521.761	37523.57
521.963	37249.14
522.164	37421.17
522.366	37355.63
522.568	38103.14
522.77	38209.64
522.971	38809.69
523.173	38283.36
523.375	38797.4
523.576	38953.05
523.778	39149.65
523.98	39643.21
524.181	39948.36
524.383	39649.36
524.584	40286.28
524.786	40026.18
524.988	40403.01
525.189	40892.47
525.391	40761.4
525.592	40974.39
525.794	41574.45
525.995	41199.67
526.197	41846.83
526.398	41326.64
526.6	41830.44
526.801	41861.16
527.003	42377.25
527.204	42235.94
527.406	42747.93
527.607	42674.21
527.808	42922.01
528.01	42117.16
528.211	42463.27
528.412	43460.63
528.614	43159.58
528.815	43505.68
529.016	43581.46
529.218	43272.21
529.419	43771.92
529.62	43728.91
529.822	43726.86
530.023	44075.02
530.224	43677.71
530.425	44142.6
530.626	43612.18
530.828	43624.46
531.029	44697.6
531.23	44206.09
531.431	44218.38
531.632	44015.63
531.833	44761.09
532.035	44333.06
532.236	44574.72
532.437	44748.8
532.638	44568.58
532.839	45060.09
533.04	44931.07
533.241	44564.48
533.442	45105.15
533.643	44541.96
533.844	44660.74
534.045	44969.98
534.246	44511.24
534.447	45127.67
534.648	44509.19
534.849	45223.93
535.05	44949.5
535.251	44570.63
535.451	45322.23
535.652	45060.09
535.853	44967.93
536.054	45197.31
536.255	44994.56
536.456	44871.68
536.657	45180.92
536.857	44666.88
537.058	44888.06
537.259	45135.87
537.46	45094.91
537.66	45084.67
537.861	44800
538.062	45107.19
538.263	45019.13
538.463	44638.21
538.664	44730.37
538.865	44754.94
539.065	45150.2
539.266	44918.78
539.466	45520.88
539.667	44689.41
539.868	45658.1
540.068	44904.45
540.269	44824.57
540.469	45238.26
540.67	44865.53
540.87	44828.67
541.071	44558.34
541.271	44976.12
541.472	44517.38
541.672	44611.59
541.873	44908.54
542.073	44367.88
542.274	45012.99
542.474	44918.78
542.675	44050.44
542.875	45094.91
543.075	44746.75
543.276	44429.32
543.476	44980.22
543.676	45107.19
543.877	44386.31
544.077	44587.01
544.277	44673.03
544.478	44875.77
544.678	44959.74
544.878	44681.22
545.078	44789.76
545.279	44656.64
545.479	44226.57
545.679	44806.14
545.879	44595.2
546.079	44775.42
546.28	44476.42
546.48	44122.12
546.68	44820.48
546.88	44931.07
547.08	44578.82
547.28	44515.33
547.48	44251.14
547.68	44652.55
547.88	44396.55
548.081	44699.65
548.281	44722.18
548.481	44476.42
548.681	44904.45
548.881	44480.52
549.081	44251.14
549.28	43845.65
549.48	44736.51
549.68	44298.25
549.88	44718.08
550.08	44296.2
550.28	44345.35
550.48	44058.63
550.68	45015.04
550.88	44222.47
551.08	44308.49
551.279	44550.15
551.479	44167.18
551.679	44591.11
551.879	43941.9
552.079	44605.44
552.278	43851.79
552.478	44083.21
552.678	44435.46
552.878	44486.66
553.077	43984.91
553.277	44038.15
553.477	44615.68
553.676	43722.77
553.876	44216.33
554.076	43657.23
554.275	44103.69
554.475	43278.36
554.674	44210.18
554.874	44019.72
555.074	43624.46
555.273	44136.46
555.473	44175.37
555.672	43614.23
555.872	44005.39
556.071	43661.33
556.271	44161.03
556.47	43538.45
556.67	43243.54
556.869	43507.73
557.068	43632.66
557.268	43225.11
557.467	43571.22
557.667	43462.68
557.866	43616.27
558.065	43501.59
558.265	43126.81
558.464	42983.45
558.663	43651.09
558.863	42709.02
559.062	43620.37
559.261	42762.27
559.461	43661.33
559.66	42530.85
559.859	43118.62
560.058	42850.33
560.258	43169.82
560.457	42487.84
560.656	42977.31
560.855	42375.2
561.054	42715.17
561.253	42367.01
561.453	42356.77
561.652	42616.86
561.851	42278.95
562.05	42127.4
562.249	41900.08
562.448	42733.6
562.647	42299.43
562.846	41723.95
563.045	42139.69
563.244	41596.98
563.443	42203.17
563.642	41986.09
563.841	42227.75
564.04	41494.58
564.239	42129.45
564.438	41322.55
564.637	41609.26
564.836	41760.81
565.035	40884.28
565.234	41267.25
565.432	41240.63
565.631	40775.74
565.83	41334.84
566.029	41023.54
566.228	40814.65
566.427	40646.72
566.625	41121.85
566.824	40011.85
567.023	40659.01
567.222	39864.39
567.42	40446.02
567.619	40407.11
567.818	40085.57
568.016	40355.91
568.215	40587.33
568.414	40073.29
568.612	40310.85
568.811	39968.84
569.01	40132.68
569.208	39327.83
569.407	39815.24
569.605	39227.48
569.804	39923.79
570.002	39284.82
570.201	39225.43
570.4	39094.36
570.598	39075.93
570.797	38924.38
570.995	39655.5
571.193	38500.45
571.392	39299.15
571.59	38488.16
571.789	38998.1
571.987	38352.99
572.186	38391.9
572.384	38391.9
572.582	38527.07
572.781	38635.61
572.979	37900.39
573.177	38221.92
573.376	38158.44
573.574	37832.81
573.772	38211.68
573.971	37572.72
574.169	37494.89
574.367	37294.19
574.565	37955.69
574.763	37668.97
574.962	37384.3
575.16	36950.13
575.358	37001.33
575.556	36745.34
575.754	37431.41
575.952	37113.97
576.151	37107.83
576.349	36698.23
576.547	36696.19
576.745	36479.1
576.943	36784.25
577.141	36657.28
577.339	36421.76
577.537	36288.64
577.735	36081.8
577.933	36450.43
578.131	35930.25
578.329	35856.52
578.527	35618.96
578.725	35963.01
578.923	35668.11
579.121	35842.18
579.319	35281.04
579.516	35754.12
579.714	35561.61
579.912	35068.05
580.11	35489.93
580.308	35332.24
580.506	35117.2
580.704	34490.52
580.901	34979.99
581.099	35074.2
581.297	34511
581.495	34386.08
581.692	34887.83
581.89	34005.16
582.088	35020.95
582.285	34097.31
582.483	34646.17
582.681	34666.65
582.878	34265.25
583.076	34146.47
583.274	34259.1
583.471	33974.44
583.669	34113.7
583.866	33450.16
584.064	33810.6
584.262	33448.11
584.459	33738.92
584.657	33212.59
584.854	33646.76
585.052	33026.23
585.249	33392.81
585.447	33224.88
585.644	32899.25
585.841	32825.53
586.039	33095.86
586.236	32489.66
586.434	32737.46
586.631	32071.87
586.828	32309.44
587.026	32489.66
587.223	32612.54
587.42	32401.6
587.618	32528.57
587.815	31963.33
588.012	32153.79
588.21	32084.16
588.407	32102.59
588.604	31801.54
588.801	31477.96
588.999	31484.11
589.196	31322.32
589.393	31322.32
589.59	31353.04
589.787	31189.2
589.984	30900.44
590.182	30812.37
590.379	31303.88
590.576	30871.76
590.773	31193.29
590.97	30595.29
591.167	30722.26
591.364	30306.52
591.561	30830.8
591.758	30345.44
591.955	30337.24
592.152	30394.59
592.349	30349.53
592.546	30406.87
592.743	30451.93
592.94	29280.49
593.137	30005.47
593.334	30181.6
593.531	29186.29
593.727	29806.82
593.924	29477.1
594.121	29032.69
594.318	29714.66
594.515	29204.72
594.712	29495.53
594.908	28891.38
595.105	28852.47
595.302	28938.48
595.499	28999.92
595.696	29010.16
595.892	28256.51
596.089	28668.15
596.286	28860.66
596.482	28578.04
596.679	28541.18
596.876	28360.95
597.072	28125.44
597.269	28266.75
597.466	28131.58
597.662	27863.3
597.859	27730.18
598.055	27990.27
598.252	27824.39
598.448	27740.42
598.645	27930.88
598.841	27336.97
599.038	27717.89
599.234	27474.18
599.431	27289.87
599.627	27134.22
599.824	27244.81
600.02	26978.58
600.217	27201.8
600.413	27029.77
600.609	26755.35
600.806	26325.27
601.002	26769.68
601.198	26650.9
601.395	26798.35
601.591	26501.4
601.787	26306.84
601.984	26288.41
602.18	26372.38
602.376	26028.32
602.572	25905.44
602.769	26231.07
602.965	25577.76
603.161	25917.73
603.357	25508.13
603.553	25516.33
603.75	25725.22
603.946	25465.13
604.142	25792.8
604.338	25108.78
604.534	25225.51
604.73	24981.81
604.926	25028.91
605.122	25092.4
605.318	25205.03
605.514	25106.73
605.71	25110.83
605.906	24875.31
606.102	24721.71
606.298	24967.47
606.494	24869.17
606.69	24731.95
606.886	24682.8
607.082	24389.94
607.278	24627.51
607.474	24029.5
607.67	24641.84
607.866	23916.86
608.062	24361.27
608.257	24281.4
608.453	24095.03
608.649	23818.56
608.845	23761.22
609.041	23599.43
609.236	23716.16
609.432	23664.96
609.628	23654.72
609.824	23585.09
610.019	23673.15
610.215	24054.08
610.411	23818.56
610.606	23400.77
610.802	23679.3
610.998	23398.73
611.193	23427.4
611.389	23325
611.584	23259.46
611.78	23275.85
611.976	23050.57
612.171	23210.31
612.367	23144.78
612.562	22921.55
612.758	22806.86
612.953	22540.63
613.149	23265.61
613.344	22514
613.539	23009.61
613.735	22694.22
613.93	23095.63
614.126	22782.29
614.321	22554.96
614.517	22581.59
614.712	22686.03
614.907	22208.86
615.103	22729.04
615.298	22313.3
615.493	22688.08
615.688	22231.38
615.884	22514
616.079	22210.9
616.274	22215
616.47	22075.74
616.665	22315.35
616.86	21993.82
617.055	21750.11
617.25	21825.89
617.445	21965.15
617.641	21545.31
617.836	21913.95
618.031	21592.42
618.226	21836.13
618.421	21834.08
618.616	21660
618.811	21434.72
619.006	21750.11
619.201	21219.69
619.396	21424.48
619.591	20697.45
619.786	21195.11
619.981	20558.19
620.176	20910.44
620.371	20568.43
620.566	20672.88
620.761	20734.32
620.956	20756.85
621.151	20658.54
621.346	20427.12
621.541	20167.03
621.735	20420.98
621.93	19773.82
622.125	19835.26
622.32	19663.23
622.515	19808.64
622.709	19603.84
622.904	19583.36
623.099	19349.89
623.294	19521.92
623.488	19351.94
623.683	19296.64
623.878	18930.06
624.072	19003.78
624.267	19222.92
624.462	18893.19
624.656	18469.26
624.851	18729.36
625.046	18454.93
625.24	18456.98
625.435	18225.56
625.629	18047.38
625.824	17856.92
626.018	18094.49
626.213	17777.05
626.407	17748.38
626.602	17568.16
626.796	17822.11
626.991	17519.01
627.185	17205.67
627.38	17119.65
627.574	17217.96
627.768	17066.41
627.963	16802.22
628.157	16800.17
628.352	17226.15
628.546	16810.41
628.74	16847.27
628.935	16533.93
629.129	16701.87
629.323	16480.69
629.517	16253.36
629.712	16144.82
629.906	16243.12
630.1	15858.1
630.294	16042.42
630.489	15718.84
630.683	15843.77
630.877	15565.25
631.071	15606.2
631.265	15919.54
631.459	15616.44
631.653	15180.23
631.848	15512
632.042	15184.32
632.236	15090.12
632.43	15049.16
632.624	15243.71
632.818	15186.37
633.012	14774.73
633.206	14895.56
633.4	14922.18
633.594	14795.21
633.788	14639.56
633.982	14600.65
634.176	14264.78
634.369	14385.62
634.563	14406.09
634.757	14148.05
634.951	14062.04
635.145	14088.66
635.339	13801.94
635.533	13969.88
635.726	14008.79
635.92	13646.3
636.114	13732.31
636.308	13494.75
636.501	13591
636.695	13535.71
636.889	13353.44
637.083	13091.3
637.276	13179.36
637.47	13058.53
637.664	12978.66
637.857	13199.84
638.051	13183.46
638.244	12689.9
638.438	12882.41
638.632	12763.62
638.825	12763.62
639.019	12513.77
639.212	12491.24
639.406	12554.73
639.599	12536.3
639.793	12272.11
639.986	12286.45
640.18	12327.41
640.373	12327.41
640.567	11973.11
640.76	11993.59
640.954	11883
641.147	11991.54
641.34	11809.27
641.534	11655.67
641.727	11788.79
641.92	11698.68
642.114	11586.04
642.307	11663.86
642.5	11364.86
642.694	11346.43
642.887	11184.64
643.08	11334.14
643.273	11149.82
643.467	11133.44
643.66	11022.85
643.853	10893.83
644.046	10787.33
644.239	11051.52
644.432	10762.76
644.626	10627.59
644.819	10682.89
645.012	10869.25
645.205	10639.88
645.398	10482.19
645.591	10500.62
645.784	10570.25
645.977	10340.88
646.17	10347.02
646.363	10252.81
646.556	10060.31
646.749	9908.76
646.942	9945.62
647.135	9976.34
647.328	9884.18
647.521	9925.14
647.714	9925.14
647.907	9875.99
648.099	9681.43
648.292	9826.84
648.485	9552.41
648.678	9529.88
648.871	9556.5
649.064	9570.84
649.256	9501.21
649.449	9364
649.642	9419.29
649.835	9060.9
650.027	9183.77
650.22	9110.05
650.413	8913.44
650.605	8960.55
650.798	9048.61
650.991	8995.36
651.183	8858.15
651.376	8776.23
651.568	9024.03
651.761	8790.56
651.954	8962.59
652.146	8763.94
652.339	8809
652.531	8548.9
652.724	8563.24
652.916	8393.26
653.109	8501.8
653.301	8477.23
653.494	8344.11
653.686	8272.43
653.879	8294.96
654.071	8204.85
654.263	8073.78
654.456	8120.88
654.648	8426.03
654.84	7987.76
655.033	7938.61
655.225	8018.48
655.417	7891.51
655.61	7877.17
655.802	7838.26
655.994	7868.98
656.186	7856.69
656.379	7852.59
656.571	7692.85
656.763	7844.4
656.955	7537.21
657.148	7647.8
657.34	7424.57
657.532	7410.23
657.724	7348.79
657.916	7549.5
658.108	7283.26
658.3	7152.19
658.492	7307.84
658.684	7270.97
658.876	7182.91
659.068	7144
659.26	6906.43
659.452	7045.7
659.644	6857.28
659.836	6914.63
660.028	6996.54
660.22	6842.95
660.412	6746.69
660.604	6832.71
660.796	6652.49
660.988	7037.5
661.18	6816.32
661.372	6775.36
661.563	6668.87
661.755	6566.47
661.947	6623.81
662.139	6613.57
662.331	6316.62
662.522	6447.69
662.714	6294.09
662.906	6466.12
663.097	6300.23
663.289	6322.76
663.481	6283.85
663.673	6302.28
663.864	6177.36
664.056	6257.23
664.247	6240.84
664.439	6134.35
664.631	6120.01
664.822	6177.36
665.014	6001.23
665.205	6251.08
665.397	5933.65
665.588	6077.01
665.78	6064.72
665.971	5892.69
666.163	5874.26
666.354	5800.53
666.546	5902.93
666.737	5718.61
666.929	5753.43
667.12	5888.59
667.311	5788.24
667.503	5618.26
667.694	5821.01
667.885	5761.62
668.077	5743.19
668.268	5605.97
668.459	5554.77
668.651	5597.78
668.842	5497.43
669.033	5407.32
669.224	5538.39
669.416	5622.36
669.607	5618.26
669.798	5259.87
669.989	5425.75
670.18	5284.44
670.371	5282.39
670.563	5259.87
670.754	5270.11
670.945	5214.81
671.136	5270.11
671.327	5327.45
671.518	5165.66
671.709	5139.04
671.9	5112.41
672.091	5204.57
672.282	5147.23
672.473	5069.41
672.664	5063.26
672.855	5093.98
673.046	5186.14
673.237	5030.49
673.428	4962.91
673.619	5007.97
673.809	4983.39
674	4915.81
674.191	4944.48
674.382	4913.76
674.573	4848.22
674.764	4663.91
674.954	4856.42
675.145	4938.34
675.336	4835.94
675.527	4694.63
675.717	4782.69
675.908	4854.37
676.099	4690.53
676.289	4633.19
676.48	4741.73
676.671	4758.11
676.861	4504.17
677.052	4819.55
677.243	4668
677.433	4657.76
677.624	4711.01
677.814	4618.85
678.005	4620.9
678.195	4459.11
678.386	4618.85
678.576	4612.71
678.767	4598.37
678.957	4559.46
679.148	4504.17
679.338	4520.55
679.529	4459.11
679.719	4420.2
679.909	4512.36
680.1	4471.4
680.29	4430.44
680.481	4373.1
680.671	4455.01
680.861	4369
681.052	4604.52
681.242	4276.84
681.432	4514.41
681.622	4313.7
681.813	4325.99
682.003	4465.25
682.193	4364.9
682.383	4338.28
682.573	4348.52
682.764	4225.64
682.954	4151.92
683.144	4235.88
683.334	4340.33
683.524	4182.63
683.714	4219.5
683.904	4338.28
684.094	4278.89
684.284	4174.44
684.474	4268.65
684.664	4252.27
684.854	4160.11
685.044	4199.02
685.234	4094.57
685.424	4053.61
685.614	4170.35
685.804	4147.82
685.994	4143.72
686.184	4153.96
686.374	4170.35
686.564	4110.96
686.753	4029.04
686.943	4102.76
687.133	3897.97
687.323	3844.72
687.513	4147.82
687.702	3924.59
687.892	3981.93
688.082	3912.3
688.272	3996.27
688.461	4039.28
688.651	3879.54
688.841	3889.78
689.03	3943.02
689.22	3701.36
689.41	3932.78
689.599	3752.56
689.789	3842.67
689.979	3789.42
690.168	3717.75
690.358	3658.35
690.547	3619.44
690.737	3750.51
690.926	3662.45
691.116	3609.2
691.305	3707.51
691.495	3699.31
691.684	3648.11
691.874	3668.59
692.063	3553.91
692.252	3646.07
692.442	3603.06
692.631	3457.65
692.82	3562.1
693.01	3515
693.199	3404.41
693.388	3424.89
693.578	3449.46
693.767	3521.14
693.956	3398.26
694.146	3408.5
694.335	3367.54
694.524	3336.82
694.713	3396.21
694.902	3392.12
695.092	3299.96
695.281	3451.51
695.47	3404.41
695.659	3334.78
695.848	3371.64
696.037	3361.4
696.226	3324.54
696.415	3398.26
696.604	3355.26
696.793	3373.69
696.982	3324.54
697.171	3342.97
697.36	3381.88
697.549	3318.39
697.738	3310.2
697.927	3148.41
698.116	3193.47
698.305	3328.63
698.494	3336.82
698.683	3363.45
698.872	3308.15
699.061	3252.86
699.25	3242.62
699.438	3201.66
699.627	3252.86
699.816	3269.24
700.005	3277.43
700.193	3275.38
700.382	3183.23
700.571	3154.55
700.76	3056.25
700.948	3330.68
701.137	3342.97
701.326	3345.02
701.514	3068.54
701.703	3353.21
701.892	3160.7
702.08	3218.04
702.269	3220.09
702.457	3070.59
702.646	3261.05
702.834	3207.8
703.023	3291.77
703.212	3289.72
703.4	3160.7
703.589	3089.02
703.777	3033.72
703.965	3048.06
704.154	3093.12
704.342	3197.56
704.531	2966.14
704.719	2925.18
704.907	3070.59
705.096	3068.54
705.284	3023.48
705.472	3089.02
705.661	3109.5
705.849	3150.46
706.037	3013.24
706.226	3029.63
706.414	3078.78
706.602	3078.78
706.79	3064.44
706.979	3093.12
707.167	3037.82
707.355	3031.68
707.543	2941.57
707.731	3150.46
707.919	3052.16
708.107	3000.96
708.296	2982.53
708.484	3086.97
708.672	3031.68
708.86	3062.4
709.048	3027.58
709.236	2953.85
709.424	3064.44
709.612	3029.63
709.8	3076.73
709.988	2947.71
710.176	3105.4
710.364	2992.76
710.551	3056.25
710.739	2988.67
710.927	2962.05
711.115	3056.25
711.303	3046.01
711.491	3027.58
711.679	2863.74
711.866	3007.1
712.054	2808.45
712.242	2968.19
712.43	2976.38
712.617	2980.48
712.805	3027.58
712.993	3041.92
713.181	2908.8
713.368	2925.18
713.556	2939.52
713.744	2849.41
713.931	3035.77
714.119	2970.24
714.306	2996.86
714.494	2888.32
714.682	2947.71
714.869	2919.04
715.057	2978.43
715.244	2970.24
715.432	2785.92
715.619	2957.95
715.807	2992.76
715.994	2957.95
716.182	2953.85
716.369	2955.9
716.556	2921.09
716.744	2802.3
716.931	2916.99
717.119	2902.65
717.306	2896.51
717.493	2968.19
717.681	2865.79
717.868	2947.71
718.055	2865.79
718.242	2878.08
718.43	2945.66
718.617	2912.89
718.804	2884.22
718.991	2744.96
719.179	2757.25
719.366	2896.51
719.553	2847.36
719.74	2753.15
719.927	2830.98
720.114	2755.2
720.301	2775.68
720.488	2767.49
720.676	2712.19
720.863	2839.17
721.05	2898.56
721.237	2804.35
721.424	2765.44
721.611	2810.5
721.798	2818.69
721.985	2843.26
722.172	2833.02
722.358	2806.4
722.545	2785.92
722.732	2779.78
722.919	2738.82
723.106	2933.37
723.293	2742.91
723.48	2863.74
723.667	2787.97
723.853	2855.55
724.04	2757.25
724.227	2771.58
724.414	2712.19
724.6	2773.63
724.787	2720.39
724.974	2833.02
725.161	2777.73
725.347	2753.15
725.534	2685.57
725.72	2783.87
725.907	2775.68
726.094	2800.26
726.28	2622.08
726.467	2714.24
726.653	2712.19
726.84	2591.36
727.027	2783.87
727.213	2622.08
727.4	2716.29
727.586	2597.51
727.773	2683.52
727.959	2581.12
728.145	2693.76
728.332	2595.46
728.518	2593.41
728.705	2738.82
728.891	2671.23
729.077	2599.56
729.264	2720.39
729.45	2685.57
729.636	2650.75
729.823	2620.03
730.009	2605.7
730.195	2593.41
730.382	2628.23
730.568	2603.65
730.754	2669.19
730.94	2685.57
731.126	2632.32
731.313	2617.99
731.499	2542.21
731.685	2597.51
731.871	2630.27
732.057	2499.2
732.243	2505.35
732.429	2583.17
732.615	2523.78
732.801	2597.51
732.987	2505.35
733.173	2456.2
733.359	2638.47
733.545	2501.25
733.731	2421.38
733.917	2480.77
734.103	2497.16
734.289	2617.99
734.475	2445.96
734.661	2495.11
734.847	2529.92
735.033	2517.64
735.219	2587.27
735.404	2560.64
735.59	2386.57
735.776	2466.44
735.962	2441.86
736.148	2679.43
736.333	2388.61
736.519	2538.12
736.705	2472.58
736.89	2480.77
737.076	2464.39
737.262	2470.53
737.447	2400.9
737.633	2355.85
737.819	2396.81
738.004	2376.33
738.19	2372.23
738.375	2368.13
738.561	2310.79
738.747	2413.19
738.932	2364.04
739.118	2292.36
739.303	2343.56
739.489	2314.89
739.674	2417.29
739.859	2214.54
740.045	2298.5
740.23	2259.59
740.416	2325.13
740.601	2298.5
740.786	2337.41
740.972	2259.59
741.157	2269.83
741.342	2228.87
741.528	2187.91
741.713	2222.73
741.898	2294.41
742.084	2153.1
742.269	2200.2
742.454	2132.62
742.639	2257.54
742.824	2224.78
743.01	2175.63
743.195	2142.86
743.38	2192.01
743.565	2265.74
743.75	2314.89
743.935	2181.77
744.12	2200.2
744.305	2077.32
744.49	2046.6
744.675	2136.71
744.86	2060.94
745.045	2120.33
745.23	2065.04
745.415	2026.12
745.6	1950.35
745.785	2060.94
745.97	2167.43
746.155	2003.6
746.34	1997.45
746.525	1979.02
746.71	1950.35
746.895	1974.92
747.079	1925.77
747.264	1897.1
747.449	1895.05
747.634	1911.44
747.819	1968.78
748.003	1866.38
748.188	1802.9
748.373	1753.74
748.557	1837.71
748.742	1800.85
748.927	1868.43
749.111	1872.53
749.296	1782.42
749.481	1733.26
749.665	1901.2
749.85	1643.15
750.034	1790.61
750.219	1735.31
750.404	1669.78
750.588	1751.7
750.773	1688.21
750.957	1741.46
751.141	1704.59
751.326	1751.7
751.51	1602.19
751.695	1589.91
751.879	1671.83
752.064	1596.05
752.248	1688.21
752.432	1692.3
752.617	1485.46
752.801	1632.91
752.985	1462.93
753.17	1538.71
753.354	1585.81
753.538	1571.47
753.722	1493.65
753.907	1444.5
754.091	1471.12
754.275	1551
754.459	1473.17
754.643	1292.95
754.828	1507.99
755.012	1462.93
755.196	1497.75
755.38	1497.75
755.564	1364.63
755.748	1499.8
755.932	1391.25
756.116	1421.97
756.3	1362.58
756.484	1303.19
756.668	1397.4
756.852	1356.44
757.036	1278.62
757.22	1262.23
757.404	1258.14
757.588	1321.62
757.772	1319.57
757.956	1319.57
758.14	1208.98
758.323	1335.96
758.507	1258.14
758.691	1231.51
758.875	1299.09
759.059	1292.95
759.242	1211.03
759.426	1200.79
759.61	1231.51
759.794	1176.22
759.977	1172.12
760.161	1227.42
760.345	1245.85
760.528	1268.38
760.712	1102.49
760.895	1133.21
761.079	1186.46
761.263	1118.87
761.446	1153.69
761.63	1077.91
761.813	1256.09
761.997	1127.07
762.18	1069.72
762.364	1086.11
762.547	1118.87
762.731	1061.53
762.914	1153.69
763.098	1059.48
763.281	1008.28
763.464	1104.54
763.648	1065.63
763.831	1014.43
764.015	967.32
764.198	998.04
764.381	1026.71
764.564	1069.72
764.748	1069.72
764.931	1161.88
765.114	1045.15
765.297	1041.05
765.481	969.37
765.664	1012.38
765.847	987.8
766.03	1051.29
766.213	875.17
766.397	897.69
766.58	1073.82
766.763	991.9
766.946	1002.14
767.129	1049.24
767.312	989.85
767.495	959.13
767.678	942.75
767.861	940.7
768.044	940.7
768.227	977.56
768.41	996
768.593	975.52
768.776	928.41
768.959	877.21
769.142	991.9
769.324	963.23
769.507	866.97
769.69	914.08
769.873	850.59
770.056	965.28
770.239	969.37
770.421	885.41
770.604	826.01
770.787	934.56
770.97	916.12
771.152	940.7
771.335	858.78
771.518	811.68
771.7	834.21
771.883	844.45
772.066	832.16
772.248	834.21
772.431	823.97
772.613	821.92
772.796	826.01
772.978	860.83
773.161	905.88
773.343	801.44
773.526	727.71
773.708	801.44
773.891	756.38
774.073	791.2
774.256	799.39
774.438	731.81
774.621	819.87
774.803	780.96
774.985	709.28
775.168	830.11
775.35	776.86
775.532	785.05
775.715	717.47
775.897	748.19
776.079	772.77
776.261	707.23
776.444	705.18
776.626	752.29
776.808	668.32
776.99	674.46
777.173	711.33
777.355	744.1
777.537	690.85
777.719	623.27
777.901	686.75
778.083	610.98
778.265	633.5
778.447	662.18
778.629	608.93
778.811	660.13
778.993	658.08
779.175	617.12
779.357	629.41
779.539	547.49
779.721	578.21
779.903	727.71
780.085	680.61
780.267	533.15
780.449	688.8
780.631	608.93
780.812	551.59
780.994	594.59
781.176	545.44
781.358	535.2
781.54	592.55
781.721	600.74
781.903	574.11
782.085	541.35
782.267	561.83
782.448	527.01
782.63	549.54
782.812	610.98
782.993	547.49
783.175	553.63
783.357	588.45
783.538	549.54
783.72	522.91
783.901	434.85
784.083	479.91
784.264	516.77
784.446	449.19
784.627	490.15
784.809	461.48
784.99	434.85
785.172	580.26
785.353	559.78
785.535	477.86
785.716	428.71
785.897	504.48
786.079	469.67
786.26	441
786.441	475.81
786.623	381.6
786.804	418.47
786.985	465.57
787.167	455.33
787.348	375.46
787.529	459.43
787.71	387.75
787.891	422.56
788.073	400.04
788.254	443.04
788.435	424.61
788.616	344.74
788.797	393.89
788.978	365.22
789.159	379.56
789.34	418.47
789.522	451.24
789.703	432.8
789.884	420.52
790.065	416.42
790.246	354.98
790.427	332.45
790.607	383.65
790.788	434.85
790.969	385.7
791.15	330.41
791.331	326.31
791.512	381.6
791.693	348.84
791.874	352.93
792.054	461.48
792.235	350.89
792.416	367.27
792.597	365.22
792.778	332.45
792.958	475.81
793.139	305.83
793.32	299.69
793.5	307.88
793.681	334.5
793.862	332.45
794.042	260.77
794.223	334.5
794.404	336.55
794.584	258.73
794.765	387.75
794.945	397.99
795.126	295.59
795.306	295.59
795.487	342.69
795.667	295.59
795.848	369.32
796.028	307.88
796.209	295.59
796.389	359.08
796.57	316.07
796.75	311.97
796.93	244.39
797.111	285.35
797.291	258.73
797.471	379.56
797.652	219.82
797.832	252.58
798.012	209.58
798.192	203.43
798.373	258.73
798.553	203.43
798.733	260.77
798.913	225.96
799.093	244.39
799.274	287.4
799.454	250.53
799.634	330.41
799.814	236.2
799.994	260.77
800.174	242.34
800.354	230.06
800.534	225.96
800.714	240.3
800.894	234.15
801.074	221.86
801.254	230.06
801.434	279.21
801.614	172.71
801.794	230.06
801.974	742.05
802.154	238.25
802.334	223.91
802.514	164.52
802.693	250.53
802.873	203.43
803.053	254.63
803.233	260.77
803.413	193.19
803.592	146.09
803.772	271.01
803.952	207.53
804.131	187.05
804.311	203.43
804.491	230.06
804.67	144.04
804.85	236.2
805.03	207.53
805.209	303.78
805.389	248.49
805.568	125.61
805.748	203.43
805.928	242.34
806.107	189.1
806.287	213.67
806.466	187.05
806.646	125.61
806.825	182.95
807.004	170.66
807.184	217.77
807.363	164.52
807.543	185
807.722	254.63
807.901	268.97
808.081	168.62
808.26	94.89
808.439	242.34
808.619	115.37
808.798	131.75
808.977	193.19
809.156	230.06
809.336	201.38
809.515	191.14
809.694	152.23
809.873	144.04
810.052	223.91
810.231	166.57
810.411	105.13
810.59	234.15
810.769	117.42
810.948	201.38
811.127	148.14
811.306	113.32
811.485	135.85
811.664	199.34
811.843	197.29
812.022	191.14
812.201	125.61
812.38	148.14
812.559	49.83
812.737	121.51
812.916	121.51
813.095	148.14
813.274	90.79
813.453	131.75
813.632	107.18
813.811	244.39
813.989	129.7
814.168	172.71
814.347	154.28
814.526	148.14
814.704	189.1
814.883	162.47
815.062	125.61
815.24	178.86
815.419	135.85
815.598	150.18
815.776	119.46
815.955	123.56
816.133	70.31
816.312	129.7
816.49	96.94
816.669	121.51
816.847	78.51
817.026	117.42
817.204	139.94
817.383	152.23
817.561	176.81
817.74	98.99
817.918	101.03
818.097	111.27
818.275	58.03
818.453	154.28
818.632	133.8
818.81	105.13
818.988	113.32
819.167	117.42
819.345	129.7
819.523	88.75
819.701	101.03
819.879	152.23
820.058	121.51
820.236	166.57
820.414	146.09
820.592	115.37
820.77	201.38
820.948	58.03
821.127	53.93
821.305	94.89
821.483	39.59
821.661	152.23
821.839	154.28
822.017	111.27
822.195	82.6
822.373	80.55
822.551	115.37
822.729	51.88
822.907	123.56
823.085	119.46
823.262	121.51
823.44	115.37
823.618	47.79
823.796	164.52
823.974	170.66
824.152	137.9
824.329	88.75
824.507	139.94
824.685	137.9
824.863	49.83
825.04	113.32
825.218	150.18
825.396	150.18
825.574	88.75
825.751	94.89
825.929	156.33
826.107	58.03
826.284	39.59
826.462	29.35
826.639	101.03
826.817	90.79
826.994	64.17
827.172	45.74
827.349	139.94
827.527	119.46
827.704	88.75
827.882	127.66
828.059	111.27
828.237	131.75
828.414	86.7
828.591	25.26
828.769	107.18
828.946	82.6
829.124	119.46
829.301	70.31
829.478	115.37
829.655	82.6
829.833	90.79
830.01	55.98
830.187	109.23
830.364	17.07
830.542	103.08
830.719	121.51
830.896	109.23
831.073	121.51
831.25	35.5
831.427	111.27
831.604	127.66
831.782	115.37
831.959	94.89
832.136	21.16
832.313	49.83
832.49	70.31
832.667	39.59
832.844	74.41
833.021	170.66
833.198	66.22
833.374	125.61
833.551	53.93
833.728	88.75
833.905	146.09
834.082	78.51
834.259	51.88
834.436	144.04
834.612	92.84
834.789	49.83
834.966	45.74
835.143	113.32
835.319	74.41
835.496	148.14
835.673	96.94
835.85	111.27
836.026	78.51
836.203	64.17
836.38	41.64
836.556	-5.46
836.733	96.94
836.909	90.79
837.086	72.36
837.262	96.94
837.439	131.75
837.616	82.6
837.792	103.08
837.968	80.55
838.145	-3.41
838.321	53.93
838.498	8.87
838.674	103.08
838.851	98.99
839.027	62.12
839.203	6.83
839.38	53.93
839.556	2.73
839.732	74.41
839.909	82.6
840.085	141.99
840.261	8.87
840.437	68.27
840.614	78.51
840.79	31.4
840.966	45.74
841.142	-40.28
841.318	35.5
841.494	58.03
841.671	103.08
841.847	6.83
842.023	6.83
842.199	113.32
842.375	70.31
842.551	27.31
842.727	8.87
842.903	78.51
843.079	-3.41
843.255	68.27
843.431	41.64
843.607	49.83
843.783	21.16
843.959	4.78
844.134	37.55
844.31	33.45
844.486	127.66
844.662	-1.37
844.838	49.83
845.013	41.64
845.189	-7.51
845.365	37.55
845.541	111.27
845.716	25.26
845.892	31.4
846.068	80.55
846.244	45.74
846.419	68.27
846.595	-34.13
846.77	84.65
846.946	27.31
847.122	-48.47
847.297	-1.37
847.473	47.79
847.648	-30.04
847.824	39.59
847.999	-60.76
848.175	60.07
848.35	19.11
848.526	135.85
848.701	70.31
848.876	111.27
849.052	103.08
849.227	25.26
849.403	0.68
849.578	74.41
849.753	8.87
849.929	74.41
850.104	-1.37
850.279	17.07
850.454	64.17
850.63	64.17
850.805	29.35
850.98	68.27
851.155	17.07
851.33	21.16
851.505	41.64
851.681	94.89
851.856	43.69
852.031	115.37
852.206	47.79
852.381	-27.99
852.556	25.26
852.731	60.07
852.906	25.26
853.081	35.5
853.256	23.21
853.431	4.78
853.606	41.64
853.781	2.73
853.956	49.83
854.131	53.93
854.305	-7.51
854.48	29.35
854.655	8.87
854.83	17.07
855.005	-50.52
855.18	39.59
855.354	-60.76
855.529	84.65
855.704	-15.7
855.879	45.74
856.053	-3.41
856.228	53.93
856.403	12.97
856.577	66.22
856.752	115.37
856.926	-23.89
857.101	12.97
857.276	-38.23
857.45	72.36
857.625	41.64
857.799	-1.37
857.974	53.93
858.148	-71
858.323	86.7
858.497	21.16
858.672	2.73
858.846	37.55
859.02	4.78
859.195	-13.65
859.369	37.55
859.543	-11.61
859.718	41.64
859.892	-7.51
860.066	-3.41
860.241	0.68
860.415	27.31
860.589	25.26
860.763	17.07
860.938	6.83
861.112	-17.75
861.286	-66.9
861.46	6.83
861.634	10.92
861.808	29.35
861.982	-27.99
862.157	-5.46
862.331	39.59
862.505	0.68
862.679	-38.23
862.853	-32.08
863.027	-11.61
863.201	33.45
863.375	-19.8
863.549	115.37
863.722	25.26
863.896	70.31
864.07	-83.28
864.244	6.83
864.418	41.64
864.592	88.75
864.766	12.97
864.939	-75.09
865.113	-23.89
865.287	58.03
865.461	-25.94
865.634	-11.61
865.808	-58.71
865.982	41.64
866.156	-50.52
866.329	45.74
866.503	25.26
866.676	64.17
866.85	-9.56
867.024	12.97
867.197	2.73
867.371	10.92
867.544	64.17
867.718	-52.56
867.891	98.99
868.065	17.07
868.238	107.18
868.412	21.16
868.585	-19.8
868.759	-32.08
868.932	15.02
869.105	12.97
869.279	-36.18
869.452	-66.9
869.625	0.68
869.799	-3.41
869.972	0.68
870.145	17.07
870.319	58.03
870.492	53.93
870.665	27.31
870.838	0.68
871.011	-60.76
871.185	41.64
871.358	2.73
871.531	74.41
871.704	66.22
871.877	66.22
872.05	-23.89
872.223	-73.04
872.396	-36.18
872.569	31.4
872.742	41.64
872.915	43.69
873.088	-17.75
873.261	-15.7
873.434	23.21
873.607	-40.28
873.78	31.4
873.953	15.02
874.126	-40.28
874.299	-40.28
874.471	-21.84
874.644	-48.47
874.817	23.21
874.99	68.27
875.163	10.92
875.335	-11.61
875.508	-7.51
875.681	39.59
875.853	-15.7
876.026	12.97
876.199	80.55
876.371	62.12
876.544	-50.52
876.717	-5.46
876.889	21.16
877.062	-3.41
877.234	-50.52
877.407	47.79
877.579	-32.08
877.752	8.87
877.924	33.45
878.097	37.55
878.269	37.55
878.442	-19.8
878.614	-46.42
878.786	-66.9
878.959	41.64
879.131	10.92
879.303	-68.95
879.476	12.97
879.648	-27.99
879.82	45.74
879.993	0.68
880.165	41.64
880.337	15.02
880.509	31.4
880.681	-56.66
880.854	-25.94
881.026	-1.37
881.198	53.93
881.37	-27.99
881.542	-5.46
881.714	-40.28
881.886	55.98
882.058	-9.56
882.23	-21.84
882.402	35.5
882.574	80.55
882.746	82.6
882.918	12.97
883.09	55.98
883.262	-68.95
883.434	-25.94
883.606	-91.48
883.778	-7.51
883.95	47.79
884.122	-36.18
884.293	-27.99
884.465	58.03
884.637	23.21
884.809	-60.76
884.98	-3.41
885.152	4.78
885.324	47.79
885.496	-44.37
885.667	37.55
885.839	19.11
886.011	43.69
886.182	15.02
886.354	23.21
886.525	37.55
886.697	41.64
886.869	-40.28
887.04	-5.46
887.212	58.03
887.383	72.36
887.555	-9.56
887.726	-25.94
887.897	35.5
888.069	-38.23
888.24	-1.37
888.412	-32.08
888.583	-17.75
888.754	41.64
888.926	-40.28
889.097	-21.84
889.268	-38.23
889.44	-34.13
889.611	-48.47
889.782	-19.8
889.953	21.16
890.125	-7.51
890.296	-36.18
890.467	0.68
890.638	-25.94
890.809	-17.75
890.98	19.11
891.151	0.68
891.323	25.26
891.494	12.97
891.665	4.78
891.836	25.26
892.007	-68.95
892.178	-1.37
892.349	-40.28
892.52	-27.99
892.691	33.45
892.862	-30.04
893.032	23.21
893.203	53.93
893.374	-15.7
893.545	-25.94
893.716	-48.47
893.887	19.11
894.057	31.4
894.228	-56.66
894.399	23.21
894.57	-19.8
894.74	25.26
894.911	-52.56
895.082	-11.61
895.253	47.79
895.423	-40.28
895.594	37.55
895.764	72.36
895.935	6.83
896.106	25.26
896.276	-7.51
896.447	-11.61
896.617	-60.76
896.788	-5.46
896.958	-116.05
897.129	-38.23
897.299	-60.76
897.47	-52.56
897.64	2.73
897.81	27.31
897.981	47.79
898.151	-13.65
898.322	-48.47
898.492	21.16
898.662	25.26
898.832	-23.89
899.003	8.87
899.173	-7.51
899.343	4.78
899.513	-81.24
