Data from USB4F104151__138__10-25-52-679.txt Node

Date: Wed Mar 12 10:25:52 EDT 2025
User: louis
Spectrometer: USB4F10415
Trigger mode: 4
Integration Time (sec): 3.000000E-2
Scans to average: 1
Electric dark correction enabled: true
Nonlinearity correction enabled: false
Boxcar width: 0
XAxis mode: Wavelengths
Number of Pixels in Spectrum: 3648
>>>>>Begin Spectral Data<<<<<
178.204	-71.34
178.424	-71.34
178.644	-71.34
178.864	-147.11
179.084	-89.77
179.304	-1.71
179.524	35.16
179.744	61.78
179.964	0.34
180.184	69.97
180.404	45.4
180.624	-20.14
180.844	-104.11
181.064	-24.23
181.283	-34.47
181.503	-69.29
181.723	41.3
181.943	-102.06
182.163	80.21
182.383	4.44
182.602	53.59
182.822	143.7
183.042	-11.95
183.262	12.63
183.482	59.73
183.701	59.73
183.921	-13.99
184.141	-32.43
184.361	51.54
184.58	63.83
184.8	24.92
185.02	14.68
185.239	16.73
185.459	18.77
185.679	55.64
185.898	-18.09
186.118	47.44
186.338	41.3
186.557	145.75
186.777	26.96
186.997	-20.14
187.216	-24.23
187.436	78.16
187.655	0.34
187.875	41.3
188.095	-3.75
188.314	41.3
188.534	29.01
188.753	-46.76
188.973	47.44
189.192	55.64
189.412	29.01
189.631	86.36
189.851	-42.67
190.07	53.59
190.29	-30.38
190.509	16.73
190.729	10.58
190.948	86.36
191.168	121.17
191.387	74.07
191.607	-38.57
191.826	-73.39
192.045	24.92
192.265	69.97
192.484	20.82
192.704	-9.9
192.923	-20.14
193.142	110.93
193.362	29.01
193.581	88.4
193.8	31.06
194.02	59.73
194.239	14.68
194.458	96.6
194.678	63.83
194.897	39.25
195.116	37.2
195.335	22.87
195.555	69.97
195.774	22.87
195.993	-11.95
196.212	0.34
196.432	80.21
196.651	37.2
196.87	10.58
197.089	84.31
197.308	86.36
197.528	-3.75
197.747	31.06
197.966	24.92
198.185	82.26
198.404	78.16
198.623	59.73
198.842	26.96
199.062	82.26
199.281	96.6
199.5	37.2
199.719	53.59
199.938	31.06
200.157	76.12
200.376	59.73
200.595	61.78
200.814	80.21
201.033	-57
201.252	63.83
201.471	12.63
201.69	-13.99
201.909	78.16
202.128	61.78
202.347	55.64
202.566	22.87
202.785	6.49
203.004	-13.99
203.223	121.17
203.442	59.73
203.661	-9.9
203.879	26.96
204.098	127.32
204.317	35.16
204.536	92.5
204.755	10.58
204.974	41.3
205.193	45.4
205.411	47.44
205.63	20.82
205.849	-3.75
206.068	20.82
206.287	-11.95
206.505	121.17
206.724	63.83
206.943	0.34
207.162	-13.99
207.381	2.39
207.599	18.77
207.818	96.6
208.037	-65.19
208.255	6.49
208.474	16.73
208.693	47.44
208.911	108.88
209.13	80.21
209.349	-18.09
209.567	57.68
209.786	43.35
210.005	80.21
210.223	16.73
210.442	55.64
210.661	78.16
210.879	45.4
211.098	8.53
211.316	98.64
211.535	100.69
211.753	22.87
211.972	-50.86
212.191	72.02
212.409	43.35
212.628	2.39
212.846	125.27
213.065	24.92
213.283	39.25
213.502	4.44
213.72	63.83
213.938	26.96
214.157	-61.1
214.375	12.63
214.594	76.12
214.812	78.16
215.031	14.68
215.249	-1.71
215.467	-1.71
215.686	100.69
215.904	82.26
216.122	127.32
216.341	39.25
216.559	82.26
216.778	31.06
216.996	14.68
217.214	53.59
217.432	24.92
217.651	76.12
217.869	35.16
218.087	84.31
218.306	22.87
218.524	57.68
218.742	-7.85
218.96	55.64
219.179	72.02
219.397	78.16
219.615	88.4
219.833	43.35
220.051	-3.75
220.27	31.06
220.488	67.92
220.706	67.92
220.924	76.12
221.142	-18.09
221.36	61.78
221.578	39.25
221.796	37.2
222.015	67.92
222.233	4.44
222.451	121.17
222.669	-18.09
222.887	10.58
223.105	8.53
223.323	-1.71
223.541	-3.75
223.759	10.58
223.977	106.84
224.195	80.21
224.413	16.73
224.631	29.01
224.849	26.96
225.067	14.68
225.285	29.01
225.503	69.97
225.721	-50.86
225.939	78.16
226.157	2.39
226.375	143.7
226.592	12.63
226.81	74.07
227.028	12.63
227.246	92.5
227.464	-48.81
227.682	39.25
227.9	59.73
228.117	8.53
228.335	51.54
228.553	-59.05
228.771	53.59
228.989	92.5
229.206	112.98
229.424	51.54
229.642	61.78
229.86	22.87
230.077	35.16
230.295	20.82
230.513	14.68
230.731	94.55
230.948	110.93
231.166	131.41
231.384	-1.71
231.601	-42.67
231.819	98.64
232.037	16.73
232.254	-26.28
232.472	4.44
232.689	-34.47
232.907	41.3
233.125	61.78
233.342	31.06
233.56	-3.75
233.777	35.16
233.995	61.78
234.213	67.92
234.43	24.92
234.648	92.5
234.865	55.64
235.083	-18.09
235.3	78.16
235.518	88.4
235.735	22.87
235.953	63.83
236.17	53.59
236.388	45.4
236.605	35.16
236.822	63.83
237.04	14.68
237.257	39.25
237.475	41.3
237.692	96.6
237.909	-1.71
238.127	-50.86
238.344	72.02
238.562	55.64
238.779	22.87
238.996	12.63
239.214	57.68
239.431	-11.95
239.648	12.63
239.865	35.16
240.083	117.08
240.3	10.58
240.517	-5.8
240.735	14.68
240.952	33.11
241.169	51.54
241.386	55.64
241.603	115.03
241.821	16.73
242.038	69.97
242.255	26.96
242.472	-1.71
242.689	88.4
242.907	61.78
243.124	-22.19
243.341	2.39
243.558	-44.71
243.775	96.6
243.992	90.45
244.209	37.2
244.426	2.39
244.643	61.78
244.86	41.3
245.078	-18.09
245.295	63.83
245.512	106.84
245.729	-5.8
245.946	47.44
246.163	69.97
246.38	55.64
246.597	72.02
246.814	-11.95
247.031	37.2
247.248	-18.09
247.464	80.21
247.681	53.59
247.898	43.35
248.115	33.11
248.332	47.44
248.549	31.06
248.766	26.96
248.983	67.92
249.2	-11.95
249.417	8.53
249.633	33.11
249.85	57.68
250.067	10.58
250.284	24.92
250.501	22.87
250.717	61.78
250.934	63.83
251.151	82.26
251.368	12.63
251.585	41.3
251.801	41.3
252.018	86.36
252.235	35.16
252.451	43.35
252.668	33.11
252.885	24.92
253.102	-26.28
253.318	41.3
253.535	-3.75
253.752	16.73
253.968	24.92
254.185	-52.91
254.401	-3.75
254.618	43.35
254.835	76.12
255.051	143.7
255.268	4.44
255.484	53.59
255.701	35.16
255.917	-30.38
256.134	39.25
256.351	-22.19
256.567	0.34
256.784	12.63
257	-20.14
257.217	-30.38
257.433	-5.8
257.65	49.49
257.866	55.64
258.082	-9.9
258.299	-18.09
258.515	80.21
258.732	92.5
258.948	-9.9
259.165	39.25
259.381	51.54
259.597	4.44
259.814	16.73
260.03	72.02
260.246	80.21
260.463	67.92
260.679	33.11
260.895	53.59
261.112	-18.09
261.328	55.64
261.544	63.83
261.761	123.22
261.977	43.35
262.193	-34.47
262.409	55.64
262.626	37.2
262.842	115.03
263.058	-18.09
263.274	61.78
263.49	-32.43
263.707	55.64
263.923	35.16
264.139	-52.91
264.355	39.25
264.571	41.3
264.787	-44.71
265.004	59.73
265.22	59.73
265.436	22.87
265.652	22.87
265.868	104.79
266.084	88.4
266.3	78.16
266.516	-85.67
266.732	51.54
266.948	41.3
267.164	-3.75
267.38	45.4
267.596	-7.85
267.812	74.07
268.028	-1.71
268.244	0.34
268.46	69.97
268.676	76.12
268.892	0.34
269.108	4.44
269.324	78.16
269.54	12.63
269.756	84.31
269.972	4.44
270.188	35.16
270.403	57.68
270.619	84.31
270.835	-9.9
271.051	35.16
271.267	-38.57
271.483	47.44
271.698	14.68
271.914	78.16
272.13	-36.52
272.346	53.59
272.562	76.12
272.777	72.02
272.993	8.53
273.209	4.44
273.425	43.35
273.64	104.79
273.856	0.34
274.072	90.45
274.287	18.77
274.503	35.16
274.719	76.12
274.934	45.4
275.15	-16.04
275.366	78.16
275.581	-11.95
275.797	10.58
276.012	-1.71
276.228	-38.57
276.444	22.87
276.659	2.39
276.875	-36.52
277.09	43.35
277.306	2.39
277.521	55.64
277.737	31.06
277.952	24.92
278.168	-5.8
278.383	72.02
278.599	41.3
278.814	22.87
279.03	88.4
279.245	45.4
279.461	117.08
279.676	59.73
279.892	-38.57
280.107	51.54
280.322	-30.38
280.538	96.6
280.753	-1.71
280.969	65.88
281.184	37.2
281.399	67.92
281.615	-3.75
281.83	14.68
282.045	-24.23
282.26	24.92
282.476	4.44
282.691	84.31
282.906	14.68
283.122	92.5
283.337	2.39
283.552	14.68
283.767	43.35
283.983	90.45
284.198	-1.71
284.413	98.64
284.628	31.06
284.843	53.59
285.058	26.96
285.274	-18.09
285.489	6.49
285.704	69.97
285.919	20.82
286.134	84.31
286.349	49.49
286.564	29.01
286.779	94.55
286.995	33.11
287.21	20.82
287.425	100.69
287.64	8.53
287.855	43.35
288.07	80.21
288.285	100.69
288.5	22.87
288.715	14.68
288.93	61.78
289.145	76.12
289.36	47.44
289.575	33.11
289.79	22.87
290.004	24.92
290.219	14.68
290.434	-16.04
290.649	-22.19
290.864	35.16
291.079	-26.28
291.294	37.2
291.509	0.34
291.724	37.2
291.938	26.96
292.153	82.26
292.368	2.39
292.583	29.01
292.798	72.02
293.012	22.87
293.227	-7.85
293.442	39.25
293.657	39.25
293.871	55.64
294.086	18.77
294.301	22.87
294.516	117.08
294.73	35.16
294.945	14.68
295.16	2.39
295.374	67.92
295.589	76.12
295.804	55.64
296.018	84.31
296.233	67.92
296.447	110.93
296.662	88.4
296.877	-50.86
297.091	31.06
297.306	59.73
297.52	-44.71
297.735	33.11
297.949	37.2
298.164	61.78
298.378	117.08
298.593	43.35
298.807	-22.19
299.022	39.25
299.236	6.49
299.451	2.39
299.665	53.59
299.88	22.87
300.094	43.35
300.309	-16.04
300.523	-20.14
300.737	61.78
300.952	33.11
301.166	43.35
301.381	-50.86
301.595	72.02
301.809	57.68
302.024	-38.57
302.238	47.44
302.452	39.25
302.667	61.78
302.881	61.78
303.095	131.41
303.309	102.74
303.524	96.6
303.738	31.06
303.952	26.96
304.166	31.06
304.381	-26.28
304.595	65.88
304.809	41.3
305.023	80.21
305.237	78.16
305.452	51.54
305.666	10.58
305.88	65.88
306.094	80.21
306.308	51.54
306.522	61.78
306.736	22.87
306.95	59.73
307.164	35.16
307.379	63.83
307.593	72.02
307.807	39.25
308.021	39.25
308.235	76.12
308.449	-34.47
308.663	55.64
308.877	6.49
309.091	26.96
309.305	53.59
309.519	0.34
309.733	121.17
309.947	59.73
310.161	100.69
310.374	102.74
310.588	55.64
310.802	-16.04
311.016	10.58
311.23	31.06
311.444	16.73
311.658	49.49
311.872	104.79
312.085	80.21
312.299	125.27
312.513	72.02
312.727	18.77
312.941	-28.33
313.154	49.49
313.368	86.36
313.582	20.82
313.796	55.64
314.009	-22.19
314.223	63.83
314.437	63.83
314.651	45.4
314.864	-40.62
315.078	31.06
315.292	69.97
315.505	86.36
315.719	76.12
315.933	123.22
316.146	31.06
316.36	51.54
316.573	37.2
316.787	84.31
317.001	108.88
317.214	35.16
317.428	37.2
317.641	37.2
317.855	-28.33
318.068	80.21
318.282	-26.28
318.495	170.32
318.709	43.35
318.922	84.31
319.136	24.92
319.349	43.35
319.563	16.73
319.776	10.58
319.99	53.59
320.203	47.44
320.417	69.97
320.63	121.17
320.843	125.27
321.057	35.16
321.27	55.64
321.483	39.25
321.697	82.26
321.91	92.5
322.124	29.01
322.337	98.64
322.55	29.01
322.763	22.87
322.977	8.53
323.19	43.35
323.403	63.83
323.617	80.21
323.83	82.26
324.043	6.49
324.256	78.16
324.469	24.92
324.683	45.4
324.896	53.59
325.109	41.3
325.322	31.06
325.535	37.2
325.748	84.31
325.962	8.53
326.175	92.5
326.388	51.54
326.601	-3.75
326.814	-9.9
327.027	121.17
327.24	102.74
327.453	18.77
327.666	10.58
327.879	63.83
328.092	72.02
328.305	92.5
328.518	45.4
328.731	18.77
328.944	12.63
329.157	67.92
329.37	39.25
329.583	92.5
329.796	41.3
330.009	88.4
330.222	108.88
330.435	43.35
330.648	57.68
330.861	80.21
331.073	72.02
331.286	80.21
331.499	6.49
331.712	57.68
331.925	45.4
332.138	12.63
332.35	49.49
332.563	69.97
332.776	39.25
332.989	35.16
333.202	51.54
333.414	94.55
333.627	78.16
333.84	26.96
334.053	8.53
334.265	47.44
334.478	26.96
334.691	41.3
334.903	-20.14
335.116	-22.19
335.329	29.01
335.541	69.97
335.754	82.26
335.966	80.21
336.179	12.63
336.392	-1.71
336.604	12.63
336.817	63.83
337.029	41.3
337.242	86.36
337.454	84.31
337.667	6.49
337.88	164.18
338.092	41.3
338.305	63.83
338.517	-13.99
338.729	37.2
338.942	131.41
339.154	88.4
339.367	57.68
339.579	35.16
339.792	14.68
340.004	51.54
340.217	-20.14
340.429	39.25
340.641	59.73
340.854	29.01
341.066	37.2
341.278	-1.71
341.491	88.4
341.703	-1.71
341.915	80.21
342.128	92.5
342.34	53.59
342.552	65.88
342.764	26.96
342.977	72.02
343.189	80.21
343.401	67.92
343.613	10.58
343.826	0.34
344.038	33.11
344.25	33.11
344.462	22.87
344.674	35.16
344.886	14.68
345.099	49.49
345.311	-13.99
345.523	2.39
345.735	-57
345.947	31.06
346.159	31.06
346.371	18.77
346.583	84.31
346.795	160.08
347.007	72.02
347.219	61.78
347.431	18.77
347.643	63.83
347.855	37.2
348.067	55.64
348.279	2.39
348.491	47.44
348.703	12.63
348.915	74.07
349.127	31.06
349.339	80.21
349.551	74.07
349.763	43.35
349.975	-1.71
350.187	78.16
350.399	35.16
350.61	143.7
350.822	4.44
351.034	67.92
351.246	12.63
351.458	51.54
351.669	55.64
351.881	84.31
352.093	12.63
352.305	106.84
352.517	74.07
352.728	18.77
352.94	43.35
353.152	-69.29
353.363	59.73
353.575	51.54
353.787	4.44
353.999	20.82
354.21	18.77
354.422	22.87
354.633	47.44
354.845	-3.75
355.057	61.78
355.268	37.2
355.48	80.21
355.692	47.44
355.903	51.54
356.115	31.06
356.326	14.68
356.538	131.41
356.749	55.64
356.961	110.93
357.172	18.77
357.384	0.34
357.595	76.12
357.807	59.73
358.018	-32.43
358.23	92.5
358.441	76.12
358.653	92.5
358.864	12.63
359.075	45.4
359.287	65.88
359.498	61.78
359.709	35.16
359.921	-18.09
360.132	35.16
360.344	-34.47
360.555	26.96
360.766	92.5
360.977	35.16
361.189	125.27
361.4	59.73
361.611	35.16
361.823	63.83
362.034	20.82
362.245	-9.9
362.456	41.3
362.667	20.82
362.879	86.36
363.09	72.02
363.301	47.44
363.512	61.78
363.723	14.68
363.935	-13.99
364.146	61.78
364.357	-22.19
364.568	49.49
364.779	2.39
364.99	37.2
365.201	18.77
365.412	86.36
365.623	-28.33
365.834	16.73
366.045	78.16
366.256	92.5
366.467	78.16
366.678	37.2
366.889	31.06
367.1	31.06
367.311	67.92
367.522	29.01
367.733	59.73
367.944	72.02
368.155	106.84
368.366	45.4
368.577	53.59
368.788	63.83
368.999	22.87
369.209	43.35
369.42	119.12
369.631	121.17
369.842	104.79
370.053	-16.04
370.264	88.4
370.474	96.6
370.685	53.59
370.896	47.44
371.107	63.83
371.317	76.12
371.528	45.4
371.739	74.07
371.95	51.54
372.16	72.02
372.371	6.49
372.582	26.96
372.792	45.4
373.003	47.44
373.214	92.5
373.424	16.73
373.635	96.6
373.846	143.7
374.056	51.54
374.267	53.59
374.477	100.69
374.688	63.83
374.898	92.5
375.109	51.54
375.319	63.83
375.53	115.03
375.74	33.11
375.951	63.83
376.161	-7.85
376.372	104.79
376.582	92.5
376.793	26.96
377.003	33.11
377.214	26.96
377.424	33.11
377.635	96.6
377.845	53.59
378.055	131.41
378.266	-7.85
378.476	80.21
378.686	45.4
378.897	72.02
379.107	78.16
379.317	14.68
379.528	45.4
379.738	29.01
379.948	63.83
380.158	4.44
380.369	33.11
380.579	86.36
380.789	45.4
380.999	67.92
381.21	39.25
381.42	115.03
381.63	102.74
381.84	117.08
382.05	20.82
382.261	65.88
382.471	39.25
382.681	80.21
382.891	69.97
383.101	74.07
383.311	-48.81
383.521	43.35
383.731	4.44
383.941	43.35
384.151	2.39
384.361	72.02
384.571	45.4
384.781	69.97
384.991	94.55
385.201	51.54
385.411	59.73
385.621	84.31
385.831	39.25
386.041	47.44
386.251	43.35
386.461	55.64
386.671	115.03
386.881	39.25
387.091	65.88
387.301	78.16
387.511	39.25
387.72	53.59
387.93	0.34
388.14	-13.99
388.35	80.21
388.56	96.6
388.769	129.36
388.979	63.83
389.189	-22.19
389.399	65.88
389.609	59.73
389.818	12.63
390.028	112.98
390.238	94.55
390.447	61.78
390.657	57.68
390.867	88.4
391.076	59.73
391.286	33.11
391.496	96.6
391.705	69.97
391.915	121.17
392.125	88.4
392.334	67.92
392.544	180.56
392.753	88.4
392.963	10.58
393.172	45.4
393.382	80.21
393.591	86.36
393.801	29.01
394.01	80.21
394.22	80.21
394.429	4.44
394.639	119.12
394.848	59.73
395.058	69.97
395.267	84.31
395.477	57.68
395.686	100.69
395.895	65.88
396.105	67.92
396.314	139.6
396.524	131.41
396.733	131.41
396.942	98.64
397.152	108.88
397.361	192.85
397.57	94.55
397.78	153.94
397.989	96.6
398.198	125.27
398.407	80.21
398.617	63.83
398.826	155.99
399.035	147.8
399.244	96.6
399.453	104.79
399.663	88.4
399.872	88.4
400.081	133.46
400.29	135.51
400.499	137.56
400.708	176.47
400.917	88.4
401.127	108.88
401.336	78.16
401.545	112.98
401.754	143.7
401.963	92.5
402.172	129.36
402.381	61.78
402.59	100.69
402.799	76.12
403.008	98.64
403.217	149.84
403.426	61.78
403.635	82.26
403.844	133.46
404.053	223.57
404.262	192.85
404.471	244.05
404.68	176.47
404.888	92.5
405.097	121.17
405.306	121.17
405.515	104.79
405.724	147.8
405.933	174.42
406.142	166.23
406.35	192.85
406.559	178.51
406.768	141.65
406.977	252.24
407.185	145.75
407.394	170.32
407.603	178.51
407.812	162.13
408.02	137.56
408.229	184.66
408.438	153.94
408.646	194.9
408.855	182.61
409.064	151.89
409.272	219.47
409.481	309.58
409.69	297.3
409.898	209.23
410.107	260.43
410.315	272.72
410.524	227.67
410.733	336.21
410.941	256.34
411.15	301.39
411.358	375.12
411.567	334.16
411.775	340.3
411.984	459.09
412.192	393.55
412.401	368.98
412.609	452.94
412.818	428.37
413.026	399.7
413.234	346.45
413.443	475.47
413.651	512.33
413.86	498
414.068	473.42
414.276	602.44
414.485	457.04
414.693	561.48
414.901	575.82
415.11	538.96
415.318	596.3
415.526	645.45
415.734	735.56
415.943	639.31
416.151	700.75
416.359	651.6
416.567	710.99
416.776	727.37
416.984	821.58
417.192	805.19
417.4	708.94
417.608	797
417.817	805.19
418.025	860.49
418.233	1016.13
418.441	870.73
418.649	917.83
418.857	1087.81
419.065	948.55
419.273	1036.61
419.481	1200.45
419.689	1202.5
419.897	1274.18
420.105	1188.16
420.313	1374.53
420.521	1392.96
420.729	1360.19
420.937	1374.53
421.145	1435.97
421.353	1591.61
421.561	1550.65
421.769	1542.46
421.977	1685.82
422.185	1653.05
422.393	1712.44
422.601	1825.08
422.809	1907
423.017	1823.03
423.224	1966.39
423.432	1956.15
423.64	1964.34
423.848	2214.2
424.056	2134.32
424.263	2445.62
424.471	2306.35
424.679	2382.13
424.887	2529.58
425.094	2562.35
425.302	2539.82
425.51	2648.36
425.718	2777.39
425.925	2842.92
426.133	2689.32
426.341	3209.51
426.548	3107.11
426.756	3100.97
426.964	3193.12
427.171	3408.16
427.379	3658.01
427.586	3459.36
427.794	3619.1
428.001	3832.09
428.209	3885.34
428.417	3959.06
428.624	4135.19
428.832	4325.65
429.039	4200.73
429.247	4208.92
429.454	4534.54
429.662	4825.36
429.869	4540.69
430.076	4911.37
430.284	4651.28
430.491	5118.22
430.699	5429.51
430.906	5204.23
431.114	5241.09
431.321	5548.29
431.528	5583.1
431.736	5951.74
431.943	6289.65
432.15	6105.34
432.358	6201.59
432.565	6469.87
432.772	6443.25
432.979	6824.17
433.187	6953.2
433.394	6969.58
433.601	7332.07
433.808	7483.62
434.016	7485.67
434.223	7579.87
434.43	7995.61
434.637	8063.19
434.844	8274.14
435.052	8509.65
435.259	8554.71
435.466	8571.09
435.673	8507.6
435.88	9074.89
436.087	9492.68
436.294	9613.51
436.501	9353.41
436.708	9711.81
436.915	9992.38
437.122	10281.14
437.329	10416.31
437.537	10399.93
437.743	10768.56
437.95	10614.96
438.157	11348.14
438.364	11665.57
438.571	11471.01
438.778	11600.04
438.985	12882.06
439.192	12288.15
439.399	12699.8
439.606	12390.55
439.813	13119.63
440.02	13783.17
440.227	13758.6
440.433	13361.29
440.64	14022.78
440.847	13887.62
441.054	14436.47
441.261	15128.69
441.467	14690.42
441.674	15173.74
441.881	15716.45
442.088	15657.06
442.294	15581.29
442.501	15956.07
442.708	16277.6
442.914	16980.05
443.121	17690.7
443.328	17080.4
443.534	18300.99
443.741	17760.33
443.948	17786.95
444.154	19056.69
444.361	18712.63
444.568	18731.06
444.774	18837.56
444.981	19249.2
445.187	19630.12
445.394	20744.22
445.6	20303.9
445.807	22099.97
446.013	20987.93
446.22	21633.04
446.426	22474.75
446.633	22677.5
446.839	23259.12
447.046	22454.27
447.252	23343.09
447.459	23439.34
447.665	23480.3
447.871	24283.11
448.078	25679.82
448.284	24190.95
448.491	24993.75
448.697	25839.56
448.903	26220.49
449.11	26447.81
449.316	25984.97
449.522	26494.91
449.728	27160.5
449.935	27250.61
450.141	27332.53
450.347	27625.39
450.553	27285.43
450.76	26994.62
450.966	28532.64
451.172	27611.06
451.378	28479.39
451.584	27940.78
451.791	28723.1
451.997	28211.11
452.203	29036.44
452.409	29034.39
452.615	29071.26
452.821	27627.44
453.027	27416.5
453.233	28581.79
453.44	27600.82
453.646	28131.24
453.852	27967.4
454.058	28508.07
454.264	27516.85
454.47	28258.21
454.676	27367.35
454.882	28420
455.088	25954.25
455.294	26384.32
455.5	26564.54
455.705	27217.85
455.911	25855.95
456.117	25403.35
456.323	25110.49
456.529	23644.14
456.735	24639.45
456.941	24008.68
457.147	23793.64
457.352	23009.27
457.558	22843.38
457.764	22659.07
457.97	22284.29
458.176	21776.39
458.381	21630.99
458.587	20207.65
458.793	20523.04
458.999	19406.89
459.204	21071.89
459.41	20246.56
459.616	19058.74
459.821	18970.68
460.027	18950.2
460.233	18466.88
460.438	17811.53
460.644	18186.3
460.85	16982.1
461.055	16765.01
461.261	16679
461.466	15442.03
461.672	14993.52
461.878	16177.25
462.083	15065.2
462.289	14821.49
462.494	14610.55
462.7	13877.38
462.905	13758.6
463.111	14104.7
463.316	14270.59
463.522	13961.34
463.727	13981.82
463.932	13645.96
464.138	13883.52
464.343	13752.45
464.549	13211.79
464.754	13987.97
464.959	13705.35
465.165	13703.3
465.37	13107.34
465.575	12902.54
465.781	13101.2
465.986	13136.01
466.191	12652.69
466.397	12605.59
466.602	11956.38
466.807	12396.7
467.012	12472.47
467.218	12454.04
467.423	12103.84
467.628	12404.89
467.833	12941.46
468.038	12511.38
468.244	11907.23
468.449	12390.55
468.654	12077.21
468.859	11815.07
469.064	11864.22
469.269	11532.45
469.474	11544.74
469.679	11741.35
469.885	11628.71
470.09	11675.81
470.295	11577.51
470.5	11159.72
470.705	11305.13
470.91	11129
471.115	10844.34
471.32	10973.36
471.525	11079.85
471.73	10576.05
471.935	10705.07
472.139	10422.45
472.344	10369.21
472.549	10547.38
472.754	10244.28
472.959	9965.76
473.164	9717.95
473.369	9836.74
473.574	10197.18
473.778	9849.02
473.983	9861.31
474.188	9795.78
474.393	9310.41
474.598	9459.91
474.802	9400.52
475.007	9259.21
475.212	9328.84
475.417	8861.9
475.621	8949.96
475.826	8771.79
476.031	9040.08
476.235	8538.32
476.44	8986.83
476.645	8489.17
476.849	8632.53
477.054	8597.71
477.259	8360.15
477.463	8663.25
477.668	8243.42
477.872	8280.28
478.077	8095.96
478.282	8138.97
478.486	8063.19
478.691	8024.28
478.895	7901.4
479.1	7983.32
479.304	7907.55
479.509	7674.08
479.713	7799.01
479.918	7686.37
480.122	7532.77
480.326	7532.77
480.531	7721.18
480.735	7545.06
480.94	7631.07
481.144	7672.03
481.348	7256.29
481.553	7303.4
481.757	7401.7
481.961	7418.08
482.166	7413.99
482.37	7493.86
482.574	7201
482.778	7340.26
482.983	7586.02
483.187	7393.51
483.391	7370.98
483.595	7336.17
483.8	7293.16
484.004	7295.21
484.208	7344.36
484.412	7375.08
484.616	7452.9
484.821	7438.56
485.025	7389.41
485.229	7448.8
485.433	7211.24
485.637	7272.68
485.841	7282.92
486.045	7303.4
486.249	7477.48
486.453	7260.39
486.657	7401.7
486.861	7678.18
487.065	7268.58
487.269	7196.9
487.473	7180.52
487.677	7549.15
487.881	7375.08
488.085	7502.05
488.289	7518.43
488.493	7241.96
488.697	7471.33
488.901	7325.93
489.105	7289.06
489.309	7504.1
489.512	7332.07
489.716	7344.36
489.92	7327.97
490.124	7504.1
490.328	7510.24
490.531	7502.05
490.735	7733.47
490.939	7725.28
491.143	7538.91
491.346	7549.15
491.55	7669.98
491.754	7571.68
491.958	7733.47
492.161	7710.94
492.365	7723.23
492.569	7784.67
492.772	7870.69
492.976	8126.68
493.18	7876.83
493.383	7821.53
493.587	8016.09
493.79	8059.1
493.994	8069.34
494.197	8120.54
494.401	8448.21
494.605	8403.16
494.808	8581.33
495.012	8458.45
495.215	8427.73
495.419	8648.91
495.622	8550.61
495.825	8861.9
496.029	8632.53
496.232	8847.57
496.436	8849.61
496.639	9007.31
496.843	8986.83
497.046	9089.23
497.249	9263.3
497.453	9138.38
497.656	9154.76
497.859	9537.73
498.063	9631.94
498.266	9724.1
498.469	9687.23
498.673	9908.41
498.876	10006.72
499.079	10115.26
499.282	9969.85
499.485	10399.93
499.689	10469.56
499.892	10365.11
500.095	10494.13
500.298	10803.38
500.501	10758.32
500.705	11071.66
500.908	11092.14
501.111	11296.94
501.314	11204.78
501.517	11428.01
501.72	11819.17
501.923	11518.12
502.126	11829.41
502.329	12054.69
502.532	12249.24
502.735	12150.94
502.938	12517.53
503.141	12408.98
503.344	12691.6
503.547	12664.98
503.75	13101.2
503.953	13146.25
504.156	13389.96
504.359	13439.11
504.562	13424.78
504.765	13736.07
504.968	13975.68
505.17	14004.35
505.373	14010.5
505.576	14395.51
505.779	14364.79
505.982	14811.25
506.185	14866.55
506.387	14692.47
506.59	15132.78
506.793	15394.92
506.996	15378.54
507.198	15954.02
507.401	15566.95
507.604	15868
507.807	16324.7
508.009	16304.22
508.212	16414.81
508.415	16468.06
508.617	16765.01
508.82	16775.25
509.022	16754.77
509.225	17348.68
509.428	17518.67
509.63	17664.07
509.833	17682.5
510.035	18024.51
510.238	18176.06
510.44	18436.16
510.643	18526.27
510.845	18778.17
511.048	18716.73
511.25	19030.07
511.453	19365.93
511.655	19775.53
511.858	19681.32
512.06	19879.97
512.262	20213.79
512.465	20054.05
512.667	20379.68
512.87	20731.93
513.072	20699.16
513.274	20926.49
513.477	21223.44
513.679	21456.91
513.881	21917.7
514.084	21725.19
514.286	21743.63
514.488	22159.36
514.69	22609.92
514.893	22794.23
515.095	22855.67
515.297	23302.13
515.499	23015.41
515.701	23711.72
515.904	23797.74
516.106	24035.3
516.308	24238.05
516.51	24405.98
516.712	24510.43
516.914	24676.32
517.116	24838.11
517.318	25309.14
517.52	25423.83
517.722	25360.34
517.925	25966.54
518.127	26075.08
518.329	26253.25
518.531	26261.44
518.733	26738.62
518.935	27168.69
519.136	26886.08
519.338	27623.34
519.54	27213.75
519.742	28006.31
519.944	27991.98
520.146	28340.13
520.348	28436.39
520.55	28594.08
520.752	28950.43
520.954	29257.62
521.155	29495.19
521.357	29765.52
521.559	30128.01
521.761	30201.74
521.963	30369.67
522.164	30195.59
522.366	30461.83
522.568	30977.92
522.77	31225.72
522.971	31915.89
523.173	31475.57
523.375	31813.49
523.576	31717.23
523.778	31596.4
523.98	32407.4
524.181	32350.06
524.383	32415.59
524.584	32819.04
524.786	32771.94
524.988	32903.01
525.189	33185.63
525.391	33527.64
525.592	33593.17
525.794	33529.69
525.995	33802.07
526.197	33836.88
526.398	33752.91
526.6	34162.51
526.801	34451.27
527.003	34307.91
527.204	34543.43
527.406	34924.35
527.607	34727.75
527.808	35057.47
528.01	34613.06
528.211	34975.55
528.412	35786.55
528.614	35120.96
528.815	35604.28
529.016	36048.69
529.218	35483.45
529.419	35837.75
529.62	35757.88
529.822	36044.59
530.023	35854.13
530.224	36013.87
530.425	35907.38
530.626	35624.76
530.828	35477.3
531.029	36384.55
531.23	36228.91
531.431	36370.22
531.632	36400.94
531.833	36476.71
532.035	36194.09
532.236	36745
532.437	36585.26
532.638	36310.83
532.839	36925.22
533.04	36810.53
533.241	36280.11
533.442	37072.67
533.643	36675.37
533.844	36724.52
534.045	37152.54
534.246	36710.18
534.447	36929.31
534.648	36355.88
534.849	36982.56
535.05	36718.37
535.251	36712.23
535.451	36532.01
535.652	37539.61
535.853	37054.24
536.054	37300
536.255	37064.48
536.456	36921.12
536.657	37392.15
536.857	36927.27
537.058	36663.08
537.259	37240.61
537.46	37158.69
537.66	36902.69
537.861	36992.8
538.062	36863.78
538.263	37117.73
538.463	36929.31
538.664	36747.04
538.865	37220.13
539.065	37400.35
539.266	36816.68
539.466	37078.82
539.667	36210.48
539.868	37512.98
540.068	37076.77
540.269	37359.39
540.469	36806.44
540.67	36607.78
540.87	36945.7
541.071	37019.42
541.271	37445.4
541.472	36863.78
541.672	37019.42
541.873	37048.1
542.073	36681.51
542.274	37103.39
542.474	36947.75
542.675	36790.05
542.875	37166.88
543.075	37013.28
543.276	36693.8
543.476	37377.82
543.676	36601.64
543.877	36857.63
544.077	36822.82
544.277	37123.87
544.478	36745
544.678	36892.45
544.878	36822.82
545.078	36853.54
545.279	36882.21
545.479	36720.42
545.679	36896.55
545.879	37062.43
546.079	36806.44
546.28	36736.8
546.48	36347.69
546.68	36964.13
546.88	36972.32
547.08	36558.63
547.28	36509.48
547.48	36357.93
547.68	36495.14
547.88	36775.72
548.081	36591.4
548.281	36618.02
548.481	36638.5
548.681	36878.11
548.881	36638.5
549.081	36544.3
549.28	36362.03
549.48	36796.2
549.68	36450.09
549.88	36884.26
550.08	36763.43
550.28	36781.86
550.48	36642.6
550.68	36691.75
550.88	36177.71
551.08	36478.76
551.279	36568.87
551.479	36314.92
551.679	36507.43
551.879	36503.34
552.079	36701.99
552.278	36110.13
552.478	36521.77
552.678	36445.99
552.878	36368.17
553.077	36210.48
553.277	36536.1
553.477	36597.54
553.676	36167.47
553.876	36368.17
554.076	36292.4
554.275	36343.59
554.475	35770.16
554.674	36222.76
554.874	36568.87
555.074	35907.38
555.273	36310.83
555.473	36265.77
555.672	36081.45
555.872	36331.31
556.071	36011.82
556.271	36478.76
556.47	35680.05
556.67	35966.77
556.869	35815.22
557.068	36036.4
557.268	35678
557.467	35974.96
557.667	36144.94
557.866	35655.48
558.065	35391.29
558.265	35667.77
558.464	35602.23
558.663	36083.5
558.863	35389.24
559.062	35987.25
559.261	35628.85
559.461	35585.85
559.66	35340.09
559.859	35602.23
560.058	35065.66
560.258	35352.38
560.457	34967.36
560.656	35759.92
560.855	34955.07
561.054	35282.75
561.253	35139.39
561.453	34858.82
561.652	34875.2
561.851	35223.36
562.05	34871.11
562.249	34582.34
562.448	35219.26
562.647	34815.81
562.846	34475.85
563.045	34578.25
563.244	34445.13
563.443	34848.58
563.642	33867.6
563.841	34506.57
564.04	34309.96
564.239	34219.85
564.438	34395.98
564.637	34557.77
564.836	34213.71
565.035	33943.38
565.234	34586.44
565.432	33677.14
565.631	34060.11
565.83	34340.68
566.029	33900.37
566.228	33638.23
566.427	33607.51
566.625	33605.46
566.824	32980.83
567.023	33345.37
567.222	33019.74
567.42	33544.02
567.619	33185.63
567.818	33345.37
568.016	33179.48
568.215	33136.48
568.414	33111.9
568.612	33273.69
568.811	33046.37
569.01	32892.77
569.208	32458.6
569.407	33085.28
569.605	32325.48
569.804	32905.06
570.002	32077.68
570.201	32644.96
570.4	32264.04
570.598	32296.81
570.797	32225.13
570.995	32169.83
571.193	31895.41
571.392	32071.53
571.59	31911.79
571.789	31586.16
571.987	31825.78
572.186	31522.68
572.384	31489.91
572.582	31428.47
572.781	31604.6
572.979	31270.78
573.177	31182.71
573.376	31448.95
573.574	31102.84
573.772	31184.76
573.971	31307.64
574.169	30820.22
574.367	30697.34
574.565	31051.64
574.763	30691.2
574.962	30467.97
575.16	29962.12
575.358	30367.62
575.556	30312.33
575.754	31324.02
575.952	30541.7
576.151	30490.5
576.349	29917.07
576.547	30009.23
576.745	30306.18
576.943	30429.06
577.141	29749.14
577.339	30037.9
577.537	29751.18
577.735	29648.78
577.933	29321.11
578.131	29497.24
578.329	29611.92
578.527	29128.6
578.725	28975
578.923	29366.17
579.121	28858.27
579.319	29015.96
579.516	29138.84
579.714	28950.43
579.912	28733.34
580.11	28850.08
580.308	28837.79
580.506	28684.19
580.704	28311.46
580.901	28884.89
581.099	28833.69
581.297	28217.25
581.495	28532.64
581.692	28485.54
581.89	28082.09
582.088	28628.9
582.285	27979.69
582.483	28151.72
582.681	27869.1
582.878	28055.47
583.076	27668.4
583.274	27828.14
583.471	27488.18
583.669	28034.99
583.866	27525.04
584.064	27776.94
584.262	27379.64
584.459	27822
584.657	27506.61
584.854	27594.67
585.052	26791.87
585.249	27066.3
585.447	27230.13
585.644	26847.16
585.841	26867.64
586.039	26869.69
586.236	26722.24
586.434	26683.33
586.631	26378.18
586.828	26601.41
587.026	26693.57
587.223	26245.06
587.42	26312.64
587.618	26214.34
587.815	25948.11
588.012	25913.29
588.21	25941.96
588.407	26525.63
588.604	26025.93
588.801	25690.06
588.999	25993.16
589.196	25552.85
589.393	25941.96
589.59	25677.77
589.787	25356.24
589.984	25208.79
590.182	25425.87
590.379	25464.78
590.576	24983.51
590.773	25339.86
590.97	25036.76
591.167	25300.95
591.364	24723.42
591.561	24807.39
591.758	24696.8
591.955	24645.6
592.152	25040.86
592.349	24459.23
592.546	24430.56
592.743	24483.81
592.94	24211.43
593.137	24393.7
593.334	24582.11
593.531	23926.76
593.727	24154.08
593.924	24209.38
594.121	24041.45
594.318	23990.25
594.515	23576.56
594.712	23926.76
594.908	23635.95
595.105	23848.94
595.302	23707.63
595.499	23568.37
595.696	23662.57
595.892	23238.64
596.089	23537.65
596.286	23295.99
596.482	23197.68
596.679	23230.45
596.876	23199.73
597.072	23031.8
597.269	23304.18
597.466	22786.04
597.662	22745.08
597.859	23003.13
598.055	22798.33
598.252	22489.09
598.448	22534.14
598.645	22337.54
598.841	22194.18
599.038	22435.84
599.234	22175.75
599.431	22421.5
599.627	22099.97
599.824	22544.38
600.02	21921.8
600.217	22007.81
600.413	21880.84
600.609	21774.35
600.806	21915.65
601.002	22026.25
601.198	21637.13
601.395	21637.13
601.591	21491.73
601.787	21395.47
601.984	21481.49
602.18	21520.4
602.376	21213.2
602.572	21088.28
602.769	21448.72
602.965	20936.73
603.161	21086.23
603.357	21325.84
603.553	20910.1
603.75	21030.93
603.946	20758.55
604.142	20879.38
604.338	20650.01
604.534	20791.32
604.73	20346.91
604.926	20451.36
605.122	20305.95
605.318	20572.19
605.514	20414.49
605.71	20236.32
605.906	20383.77
606.102	20039.72
606.298	20062.24
606.494	20250.66
606.69	20185.12
606.886	19730.47
607.082	19775.53
607.278	19619.88
607.474	19378.22
607.67	19773.48
607.866	19580.97
608.062	19843.11
608.257	19531.82
608.453	19472.43
608.649	19607.59
608.845	19615.79
609.041	19486.76
609.236	19726.38
609.432	19066.93
609.628	19234.86
609.824	19060.79
610.019	19345.45
610.215	19212.34
610.411	19103.79
610.606	18864.18
610.802	19091.51
610.998	18962.48
611.193	19152.95
611.389	18788.41
611.584	18753.59
611.78	18739.26
611.976	18821.17
612.171	18800.69
612.367	18835.51
612.562	18645.05
612.758	18606.14
612.953	18434.11
613.149	18745.4
613.344	18298.94
613.539	18935.86
613.735	18643
613.93	18542.65
614.126	18212.93
614.321	18409.53
614.517	18538.55
614.712	18313.28
614.907	18344
615.103	18442.3
615.298	18131.01
615.493	18391.1
615.688	17819.72
615.884	18538.55
616.079	18051.14
616.274	17905.73
616.47	18112.58
616.665	17860.68
616.86	17913.92
617.055	17936.45
617.25	17971.27
617.445	17897.54
617.641	17580.11
617.836	17608.78
618.031	17410.12
618.226	17686.6
618.421	17760.33
618.616	17766.47
618.811	17035.35
619.006	17498.19
619.201	17078.35
619.396	17274.96
619.591	16955.47
619.786	17100.88
619.981	16621.66
620.176	16812.12
620.371	16695.38
620.566	16777.3
620.761	16797.78
620.956	16756.82
621.151	16814.16
621.346	16619.61
621.541	16189.53
621.735	16423
621.93	16126.05
622.125	16193.63
622.32	16027.74
622.515	16052.32
622.709	16027.74
622.904	15837.28
623.099	15648.87
623.294	15890.53
623.488	15536.23
623.683	15825
623.878	15259.76
624.072	15382.63
624.267	15335.53
624.462	15233.13
624.656	15050.86
624.851	15220.85
625.046	15120.49
625.24	14665.85
625.435	14825.59
625.629	14778.48
625.824	14899.31
626.018	14581.88
626.213	14184.57
626.407	14542.97
626.602	14235.77
626.796	14403.71
626.991	14329.98
627.185	14217.34
627.38	14205.05
627.574	14084.22
627.768	13973.63
627.963	13860.99
628.157	13631.62
628.352	13793.41
628.546	13387.91
628.74	13635.72
628.935	13453.45
629.129	13422.73
629.323	13228.17
629.517	13371.53
629.712	13174.92
629.906	13093.01
630.1	13181.07
630.294	12931.22
630.489	12894.35
630.683	12974.22
630.877	12783.76
631.071	12695.7
631.265	12826.77
631.459	12648.6
631.653	12531.86
631.848	12484.76
632.042	12552.34
632.236	12318.87
632.43	12171.42
632.624	12114.08
632.818	12169.37
633.012	12124.32
633.206	12069.02
633.4	11944.1
633.594	11765.92
633.788	12060.83
633.982	11804.83
634.176	12034.21
634.369	11624.61
634.563	11712.67
634.757	11368.62
634.951	11471.01
635.145	11534.5
635.339	11397.29
635.533	11323.56
635.726	11337.9
635.92	11268.27
636.114	11229.35
636.308	11024.56
636.501	10999.98
636.695	10930.35
636.889	10850.48
637.083	10776.75
637.276	10846.38
637.47	10815.66
637.664	10471.61
637.857	10778.8
638.051	10522.8
638.244	10475.7
638.438	10395.83
638.632	10234.04
638.825	10332.34
639.019	10377.4
639.212	10021.05
639.406	10152.12
639.599	10064.06
639.793	9947.33
639.986	10072.25
640.18	10043.58
640.373	9844.93
640.567	9932.99
640.76	9707.71
640.954	9550.02
641.147	9701.57
641.34	9679.04
641.534	9513.16
641.727	9654.47
641.92	9275.59
642.114	9517.25
642.307	9201.86
642.5	9377.99
642.694	9402.57
642.887	8999.12
643.08	9246.92
643.273	9179.34
643.467	9117.9
643.66	9019.6
643.853	8958.16
644.046	8718.54
644.239	9109.71
644.432	8624.34
644.626	8648.91
644.819	8644.82
645.012	8558.8
645.205	8736.98
645.398	8583.38
645.591	8472.79
645.784	8521.94
645.977	8364.25
646.17	8382.68
646.363	8208.6
646.556	8390.87
646.749	8265.94
646.942	8196.31
647.135	8216.79
647.328	8028.38
647.521	7930.08
647.714	8087.77
647.907	8102.11
648.099	7860.45
648.292	7925.98
648.485	7901.4
648.678	7805.15
648.871	7637.22
649.064	7745.76
649.256	7764.19
649.449	7608.55
649.642	7618.79
649.835	7440.61
650.027	7596.26
650.22	7596.26
650.413	7330.02
650.605	7389.41
650.798	7401.7
650.991	7244.01
651.183	7198.95
651.376	7385.32
651.568	7235.81
651.761	7252.2
651.954	7192.81
652.146	7211.24
652.339	7194.86
652.531	7018.73
652.724	7020.78
652.916	6955.24
653.109	7041.26
653.301	6820.08
653.494	6895.85
653.686	6635.76
653.879	6994.15
654.071	6695.15
654.263	6711.53
654.456	6891.76
654.648	6625.52
654.84	6402.29
655.033	6650.1
655.225	6582.51
655.417	6590.7
655.61	6492.4
655.802	6541.55
655.994	6396.15
656.186	6564.08
656.379	6297.85
656.571	6414.58
656.763	6289.65
656.955	6322.42
657.148	6263.03
657.34	6297.85
657.532	6140.15
657.724	6154.49
657.916	6179.06
658.108	6052.09
658.3	5986.55
658.492	6187.25
658.684	6013.18
658.876	5961.98
659.068	5908.73
659.26	5843.2
659.452	6027.51
659.644	5748.99
659.836	5753.09
660.028	6004.99
660.22	5765.37
660.412	5562.62
660.604	5695.74
660.796	5853.44
660.988	5716.22
661.18	5435.65
661.372	5542.14
661.563	5433.6
661.755	5421.31
661.947	5536
662.139	5462.27
662.331	5423.36
662.522	5372.16
662.714	5202.18
662.906	5419.27
663.097	5306.63
663.289	5366.02
663.481	5146.89
663.673	5196.04
663.864	5230.85
664.056	5230.85
664.247	5124.36
664.439	5136.65
664.631	5230.85
664.822	5161.22
665.014	5048.58
665.205	5081.35
665.397	5060.87
665.588	5013.77
665.78	4880.65
665.971	4835.6
666.163	4940.04
666.354	4845.84
666.546	4892.94
666.737	4899.08
666.929	4862.22
667.12	4874.51
667.311	4737.29
667.503	4712.72
667.694	4786.44
667.885	4862.22
668.077	4665.61
668.268	4682
668.459	4624.65
668.651	4563.22
668.842	4641.04
669.033	4589.84
669.224	4577.55
669.416	4632.85
669.607	4532.5
669.798	4413.71
669.989	4671.76
670.18	4487.44
670.371	4522.26
670.563	4469.01
670.754	4434.19
670.945	4466.96
671.136	4315.41
671.327	4387.09
671.518	4139.29
671.709	4313.36
671.9	4475.15
672.091	4407.57
672.282	4335.89
672.473	4227.35
672.664	4286.74
672.855	4294.93
673.046	4163.86
673.237	4204.82
673.428	4221.2
673.619	4221.2
673.809	4167.96
674	4151.57
674.191	4057.37
674.382	4180.25
674.573	4147.48
674.764	4129.05
674.954	4081.94
675.145	3987.74
675.336	4049.18
675.527	3967.26
675.717	4102.42
675.908	3938.59
676.099	3899.67
676.289	3954.97
676.48	4043.03
676.671	4006.17
676.861	3983.64
677.052	3875.1
677.243	3959.06
677.433	3995.93
677.624	3981.59
677.814	3981.59
678.005	3871
678.195	3883.29
678.386	3868.95
678.576	3934.49
678.767	3819.8
678.957	3961.11
679.148	3879.19
679.338	3813.66
679.529	3782.94
679.719	3797.28
679.909	3827.99
680.1	3703.07
680.29	3899.67
680.481	3807.52
680.671	3838.23
680.861	3674.4
681.052	3836.19
681.242	3801.37
681.432	3633.44
681.622	3725.6
681.813	3658.01
682.003	3782.94
682.193	3594.53
682.383	3705.12
682.573	3750.17
682.764	3758.36
682.954	3696.92
683.144	3868.95
683.334	3647.77
683.524	3739.93
683.714	3604.77
683.904	3537.18
684.094	3639.58
684.284	3662.11
684.474	3660.06
684.664	3674.4
684.854	3694.88
685.044	3668.25
685.234	3531.04
685.424	3670.3
685.614	3631.39
685.804	3545.38
685.994	3332.39
686.184	3356.96
686.374	3381.54
686.564	3453.22
686.753	3414.31
686.943	3412.26
687.133	3463.46
687.323	3485.98
687.513	3485.98
687.702	3408.16
687.892	3289.38
688.082	3402.02
688.272	3502.37
688.461	3266.85
688.651	3379.49
688.841	3223.84
689.03	3311.91
689.22	3408.16
689.41	3176.74
689.599	3209.51
689.789	3211.56
689.979	3279.14
690.168	3238.18
690.358	3205.41
690.547	3172.64
690.737	3303.71
690.926	3154.21
691.116	3193.12
691.305	3186.98
691.495	3012.9
691.684	3066.15
691.874	3053.86
692.063	3174.69
692.252	3064.1
692.442	3158.31
692.631	3098.92
692.82	3160.36
693.01	2965.8
693.199	3055.91
693.388	3008.81
693.578	2906.41
693.767	2969.9
693.956	3004.71
694.146	3090.73
694.335	3008.81
694.524	2906.41
694.713	3039.53
694.902	2951.46
695.092	2955.56
695.281	2986.28
695.47	2978.09
695.659	2986.28
695.848	2808.11
696.037	2847.02
696.226	2904.36
696.415	2824.49
696.604	2904.36
696.793	3000.62
696.982	2941.22
697.171	2910.5
697.36	2824.49
697.549	2867.5
697.738	2791.72
697.927	2963.75
698.116	2808.11
698.305	2767.15
698.494	2785.58
698.683	2664.75
698.872	2810.15
699.061	2761
699.25	2672.94
699.438	2756.91
699.627	2799.91
699.816	2887.98
700.005	2758.96
700.193	2836.78
700.382	2758.96
700.571	2783.53
700.76	2736.43
700.948	2654.51
701.137	2750.76
701.326	2595.12
701.514	2697.52
701.703	2697.52
701.892	2621.74
702.08	2740.52
702.269	2697.52
702.457	2644.27
702.646	2697.52
702.834	2627.89
703.023	2666.8
703.212	2742.57
703.4	2552.11
703.589	2699.56
703.777	2644.27
703.965	2591.02
704.154	2638.13
704.342	2625.84
704.531	2554.16
704.719	2576.69
704.907	2539.82
705.096	2455.86
705.284	2642.22
705.472	2629.93
705.661	2541.87
705.849	2601.26
706.037	2658.6
706.226	2580.78
706.414	2634.03
706.602	2507.06
706.79	2537.77
706.979	2437.42
707.167	2505.01
707.355	2570.54
707.543	2545.97
707.731	2636.08
707.919	2541.87
708.107	2609.45
708.296	2619.69
708.484	2613.55
708.672	2629.93
708.86	2502.96
709.048	2406.7
709.236	2533.68
709.424	2572.59
709.612	2496.82
709.8	2472.24
709.988	2416.94
710.176	2578.73
710.364	2511.15
710.551	2591.02
710.739	2502.96
710.927	2492.72
711.115	2451.76
711.303	2502.96
711.491	2392.37
711.679	2414.9
711.866	2398.51
712.054	2521.39
712.242	2484.53
712.43	2423.09
712.617	2478.38
712.805	2431.28
712.993	2382.13
713.181	2457.9
713.368	2513.2
713.556	2414.9
713.744	2349.36
713.931	2457.9
714.119	2353.46
714.306	2341.17
714.494	2386.22
714.682	2439.47
714.869	2306.35
715.057	2396.46
715.244	2349.36
715.432	2236.72
715.619	2324.79
715.807	2384.18
715.994	2337.07
716.182	2402.61
716.369	2392.37
716.556	2447.66
716.744	2351.41
716.931	2357.55
717.119	2353.46
717.306	2150.71
717.493	2316.59
717.681	2318.64
717.868	2234.68
718.055	2222.39
718.242	2304.31
718.43	2271.54
718.617	2208.05
718.804	2326.83
718.991	2249.01
719.179	2300.21
719.366	2269.49
719.553	2306.35
719.74	2285.87
719.927	2429.23
720.114	2287.92
720.301	2279.73
720.488	2173.24
720.676	2111.8
720.863	2261.3
721.05	2236.72
721.237	2257.2
721.424	2300.21
721.611	2322.74
721.798	2222.39
721.985	1990.97
722.172	2201.91
722.358	2220.34
722.545	2111.8
722.732	2103.61
722.919	2234.68
723.106	2119.99
723.293	2240.82
723.48	2111.8
723.667	2242.87
723.853	2238.77
724.04	2097.46
724.227	2085.17
724.414	2072.89
724.6	2056.5
724.787	2210.1
724.974	2156.85
725.161	2163
725.347	2033.97
725.534	2134.32
725.72	2160.95
725.907	2265.39
726.094	2105.65
726.28	2083.13
726.467	2099.51
726.653	2038.07
726.84	1986.87
727.027	2093.37
727.213	2025.78
727.4	2079.03
727.586	2130.23
727.773	2046.26
727.959	2066.74
728.145	1988.92
728.332	2015.54
728.518	2085.17
728.705	2103.61
728.891	2111.8
729.077	2027.83
729.264	2021.69
729.45	2005.3
729.636	2052.41
729.823	2048.31
730.009	1988.92
730.195	1956.15
730.382	2044.21
730.568	1960.25
730.754	2021.69
730.94	1962.3
731.126	2095.41
731.313	1986.87
731.499	2005.3
731.685	2042.17
731.871	1993.01
732.057	1954.1
732.243	2040.12
732.429	1845.56
732.615	1872.18
732.801	1884.47
732.987	1947.96
733.173	1823.03
733.359	1937.72
733.545	1861.94
733.731	1853.75
733.917	1882.42
734.103	1939.77
734.289	1915.19
734.475	1820.99
734.661	2009.4
734.847	1935.67
735.033	1833.27
735.219	1857.85
735.404	1898.81
735.59	1829.18
735.776	1780.03
735.962	1890.62
736.148	1923.38
736.333	1849.66
736.519	1810.75
736.705	1845.56
736.89	1814.84
737.076	1753.4
737.262	1831.23
737.447	1734.97
737.633	1681.72
737.819	1835.32
738.004	1868.09
738.19	1749.31
738.375	1751.35
738.561	1710.4
738.747	1888.57
738.932	1790.27
739.118	1825.08
739.303	1651
739.489	1718.59
739.674	1685.82
739.859	1812.79
740.045	1694.01
740.23	1675.58
740.416	1653.05
740.601	1757.5
740.786	1728.83
740.972	1534.27
741.157	1653.05
741.342	1689.92
741.528	1739.07
741.713	1718.59
741.898	1671.48
742.084	1694.01
742.269	1718.59
742.454	1540.41
742.639	1651
742.824	1730.87
743.01	1579.33
743.195	1708.35
743.38	1636.67
743.565	1651
743.75	1651
743.935	1595.71
744.12	1614.14
744.305	1521.98
744.49	1567.04
744.675	1628.48
744.86	1648.96
745.045	1521.98
745.23	1550.65
745.415	1554.75
745.6	1550.65
745.785	1407.3
745.97	1526.08
746.155	1661.24
746.34	1478.97
746.525	1423.68
746.71	1468.73
746.895	1505.6
747.079	1401.15
747.264	1401.15
747.449	1487.17
747.634	1411.39
747.819	1390.91
748.003	1452.35
748.188	1462.59
748.373	1323.33
748.557	1392.96
748.742	1374.53
748.927	1282.37
749.111	1376.58
749.296	1255.75
749.481	1392.96
749.665	1253.7
749.85	1308.99
750.034	1268.03
750.219	1308.99
750.404	1345.86
750.588	1349.95
750.773	1280.32
750.957	1325.38
751.141	1276.23
751.326	1157.44
751.51	1245.51
751.695	1155.4
751.879	1165.64
752.064	1270.08
752.248	1237.31
752.432	1255.75
752.617	1188.16
752.801	1177.92
752.985	1145.16
753.17	1118.53
753.354	1165.64
753.538	1149.25
753.722	1169.73
753.907	1124.68
754.091	1001.8
754.275	1059.14
754.459	1014.09
754.643	1071.43
754.828	1063.24
755.012	1102.15
755.196	1055.05
755.38	1114.44
755.564	1018.18
755.748	1040.71
755.932	1055.05
756.116	1003.85
756.3	1071.43
756.484	1046.85
756.668	1046.85
756.852	1014.09
757.036	991.56
757.22	979.27
757.404	936.26
757.588	1007.94
757.772	971.08
757.956	956.74
758.14	1040.71
758.323	973.13
758.507	899.4
758.691	985.41
758.875	930.12
759.059	913.74
759.242	856.39
759.426	856.39
759.61	911.69
759.794	952.65
759.977	923.98
760.161	923.98
760.345	887.11
760.528	907.59
760.712	809.29
760.895	827.72
761.079	887.11
761.263	788.81
761.446	848.2
761.63	870.73
761.813	903.5
761.997	903.5
762.18	870.73
762.364	897.35
762.547	846.15
762.731	858.44
762.914	823.62
763.098	848.2
763.281	850.25
763.464	797
763.648	821.58
763.831	819.53
764.015	897.35
764.198	784.71
764.381	874.82
764.564	801.1
764.748	741.71
764.931	768.33
765.114	743.75
765.297	850.25
765.481	735.56
765.664	731.47
765.847	825.67
766.03	803.15
766.213	733.51
766.397	694.6
766.58	753.99
766.763	727.37
766.946	727.37
767.129	751.95
767.312	772.43
767.495	715.08
767.678	674.12
767.861	741.71
768.044	700.75
768.227	737.61
768.41	655.69
768.593	749.9
768.776	749.9
768.959	653.64
769.142	721.23
769.324	694.6
769.507	756.04
769.69	745.8
769.873	743.75
770.056	737.61
770.239	614.73
770.421	696.65
770.604	727.37
770.787	704.84
770.97	645.45
771.152	614.73
771.335	614.73
771.518	690.51
771.7	719.18
771.883	737.61
772.066	651.6
772.248	657.74
772.431	727.37
772.613	663.88
772.796	577.87
772.978	604.49
773.161	686.41
773.343	629.07
773.526	534.86
773.708	641.36
773.891	641.36
774.073	579.92
774.256	686.41
774.438	710.99
774.621	649.55
774.803	631.12
774.985	575.82
775.168	571.72
775.35	538.96
775.532	592.2
775.715	493.9
775.897	600.4
776.079	573.77
776.261	579.92
776.444	567.63
776.626	536.91
776.808	565.58
776.99	457.04
777.173	526.67
777.355	545.1
777.537	520.53
777.719	457.04
777.901	459.09
778.083	432.46
778.265	465.23
778.447	473.42
778.629	495.95
778.811	481.61
778.993	383.31
779.175	498
779.357	477.52
779.539	411.98
779.721	551.24
779.903	414.03
780.085	510.29
780.267	465.23
780.449	489.81
780.631	438.61
780.812	434.51
780.994	473.42
781.176	416.08
781.358	416.08
781.54	436.56
781.721	469.33
781.903	459.09
782.085	434.51
782.267	391.5
782.448	481.61
782.63	391.5
782.812	452.94
782.993	391.5
783.175	328.02
783.357	391.5
783.538	352.59
783.72	352.59
783.901	440.65
784.083	391.5
784.264	446.8
784.446	297.3
784.627	360.78
784.809	438.61
784.99	311.63
785.172	405.84
785.353	315.73
785.535	407.89
785.716	393.55
785.897	385.36
786.079	358.74
786.26	285.01
786.441	297.3
786.623	325.97
786.804	362.83
786.985	254.29
787.167	348.5
787.348	344.4
787.529	307.54
787.71	395.6
787.891	328.02
788.073	248.15
788.254	342.35
788.435	282.96
788.616	266.58
788.797	254.29
788.978	301.39
789.159	268.63
789.34	293.2
789.522	262.48
789.703	280.91
789.884	313.68
790.065	315.73
790.246	258.39
790.427	311.63
790.607	291.15
790.788	293.2
790.969	227.67
791.15	260.43
791.331	231.76
791.512	282.96
791.693	336.21
791.874	239.95
792.054	328.02
792.235	311.63
792.416	252.24
792.597	213.33
792.778	264.53
792.958	282.96
793.139	264.53
793.32	244.05
793.5	270.67
793.681	280.91
793.862	291.15
794.042	270.67
794.223	256.34
794.404	223.57
794.584	313.68
794.765	276.82
794.945	182.61
795.126	291.15
795.306	246.1
795.487	221.52
795.667	233.81
795.848	219.47
796.028	180.56
796.209	280.91
796.389	278.87
796.57	248.15
796.75	223.57
796.93	227.67
797.111	262.48
797.291	252.24
797.471	336.21
797.652	235.86
797.832	244.05
798.012	231.76
798.192	168.27
798.373	184.66
798.553	149.84
798.733	190.8
798.913	178.51
799.093	160.08
799.274	272.72
799.454	221.52
799.634	123.22
799.814	242
799.994	205.14
800.174	315.73
800.354	170.32
800.534	155.99
800.714	264.53
800.894	205.14
801.074	178.51
801.254	192.85
801.434	141.65
801.614	211.28
801.794	176.47
801.974	618.83
802.154	186.71
802.334	153.94
802.514	155.99
802.693	205.14
802.873	209.23
803.053	219.47
803.233	176.47
803.413	123.22
803.592	164.18
803.772	129.36
803.952	141.65
804.131	190.8
804.311	176.47
804.491	182.61
804.67	137.56
804.85	209.23
805.03	155.99
805.209	153.94
805.389	192.85
805.568	139.6
805.748	119.12
805.928	205.14
806.107	160.08
806.287	258.39
806.466	192.85
806.646	162.13
806.825	137.56
807.004	115.03
807.184	209.23
807.363	174.42
807.543	192.85
807.722	86.36
807.901	211.28
808.081	231.76
808.26	149.84
808.439	184.66
808.619	117.08
808.798	225.62
808.977	170.32
809.156	182.61
809.336	96.6
809.515	174.42
809.694	59.73
809.873	92.5
810.052	153.94
810.231	149.84
810.411	172.37
810.59	172.37
810.769	135.51
810.948	112.98
811.127	78.16
811.306	131.41
811.485	129.36
811.664	170.32
811.843	182.61
812.022	164.18
812.201	119.12
812.38	121.17
812.559	121.17
812.737	76.12
812.916	108.88
813.095	117.08
813.274	86.36
813.453	121.17
813.632	131.41
813.811	190.8
813.989	72.02
814.168	45.4
814.347	72.02
814.526	133.46
814.704	96.6
814.883	149.84
815.062	39.25
815.24	174.42
815.419	80.21
815.598	67.92
815.776	86.36
815.955	117.08
816.133	72.02
816.312	141.65
816.49	57.68
816.669	69.97
816.847	92.5
817.026	198.99
817.204	127.32
817.383	186.71
817.561	80.21
817.74	110.93
817.918	127.32
818.097	119.12
818.275	123.22
818.453	139.6
818.632	86.36
818.81	115.03
818.988	141.65
819.167	98.64
819.345	94.55
819.523	49.49
819.701	63.83
819.879	59.73
820.058	123.22
820.236	178.51
820.414	145.75
820.592	117.08
820.77	51.54
820.948	22.87
821.127	112.98
821.305	94.55
821.483	49.49
821.661	59.73
821.839	61.78
822.017	151.89
822.195	88.4
822.373	141.65
822.551	63.83
822.729	94.55
822.907	143.7
823.085	178.51
823.262	127.32
823.44	100.69
823.618	4.44
823.796	80.21
823.974	57.68
824.152	149.84
824.329	84.31
824.507	94.55
824.685	135.51
824.863	137.56
825.04	106.84
825.218	125.27
825.396	55.64
825.574	102.74
825.751	96.6
825.929	84.31
826.107	80.21
826.284	106.84
826.462	104.79
826.639	63.83
826.817	76.12
826.994	100.69
827.172	29.01
827.349	186.71
827.527	125.27
827.704	8.53
827.882	100.69
828.059	55.64
828.237	14.68
828.414	149.84
828.591	37.2
828.769	104.79
828.946	51.54
829.124	104.79
829.301	143.7
829.478	104.79
829.655	129.36
829.833	84.31
830.01	14.68
830.187	139.6
830.364	53.59
830.542	59.73
830.719	102.74
830.896	121.17
831.073	12.63
831.25	125.27
831.427	51.54
831.604	88.4
831.782	55.64
831.959	88.4
832.136	51.54
832.313	96.6
832.49	35.16
832.667	-54.95
832.844	59.73
833.021	141.65
833.198	84.31
833.374	55.64
833.551	33.11
833.728	33.11
833.905	78.16
834.082	12.63
834.259	76.12
834.436	76.12
834.612	127.32
834.789	45.4
834.966	45.4
835.143	76.12
835.319	121.17
835.496	72.02
835.673	14.68
835.85	76.12
836.026	51.54
836.203	164.18
836.38	-20.14
836.556	84.31
836.733	16.73
836.909	104.79
837.086	49.49
837.262	76.12
837.439	45.4
837.616	72.02
837.792	82.26
837.968	51.54
838.145	72.02
838.321	31.06
838.498	119.12
838.674	47.44
838.851	35.16
839.027	31.06
839.203	31.06
839.38	80.21
839.556	69.97
839.732	8.53
839.909	10.58
840.085	76.12
840.261	51.54
840.437	110.93
840.614	37.2
840.79	112.98
840.966	45.4
841.142	63.83
841.318	-9.9
841.494	45.4
841.671	-7.85
841.847	29.01
842.023	63.83
842.199	61.78
842.375	86.36
842.551	65.88
842.727	43.35
842.903	125.27
843.079	51.54
843.255	129.36
843.431	149.84
843.607	-1.71
843.783	55.64
843.959	69.97
844.134	80.21
844.31	39.25
844.486	14.68
844.662	-24.23
844.838	90.45
845.013	-24.23
845.189	55.64
845.365	14.68
845.541	20.82
845.716	31.06
845.892	127.32
846.068	104.79
846.244	-9.9
846.419	-34.47
846.595	-1.71
846.77	-24.23
846.946	96.6
847.122	67.92
847.297	31.06
847.473	22.87
847.648	59.73
847.824	-16.04
847.999	-52.91
848.175	33.11
848.35	47.44
848.526	84.31
848.701	80.21
848.876	49.49
849.052	-13.99
849.227	26.96
849.403	22.87
849.578	37.2
849.753	4.44
849.929	-32.43
850.104	16.73
850.279	67.92
850.454	39.25
850.63	2.39
850.805	67.92
850.98	57.68
851.155	6.49
851.33	4.44
851.505	37.2
851.681	133.46
851.856	39.25
852.031	53.59
852.206	55.64
852.381	84.31
852.556	10.58
852.731	72.02
852.906	31.06
853.081	22.87
853.256	37.2
853.431	53.59
853.606	22.87
853.781	24.92
853.956	-24.23
854.131	29.01
854.305	63.83
854.48	90.45
854.655	47.44
854.83	125.27
855.005	63.83
855.18	57.68
855.354	41.3
855.529	57.68
855.704	31.06
855.879	47.44
856.053	33.11
856.228	49.49
856.403	-1.71
856.577	-26.28
856.752	-30.38
856.926	33.11
857.101	61.78
857.276	67.92
857.45	39.25
857.625	78.16
857.799	55.64
857.974	31.06
858.148	8.53
858.323	80.21
858.497	20.82
858.672	43.35
858.846	59.73
859.02	65.88
859.195	69.97
859.369	2.39
859.543	12.63
859.718	53.59
859.892	-18.09
860.066	-7.85
860.241	-20.14
860.415	-59.05
860.589	61.78
860.763	61.78
860.938	18.77
861.112	59.73
861.286	47.44
861.46	47.44
861.634	53.59
861.808	100.69
861.982	51.54
862.157	14.68
862.331	-9.9
862.505	20.82
862.679	-13.99
862.853	-30.38
863.027	20.82
863.201	106.84
863.375	-46.76
863.549	45.4
863.722	39.25
863.896	102.74
864.07	6.49
864.244	4.44
864.418	51.54
864.592	14.68
864.766	41.3
864.939	-3.75
865.113	-28.33
865.287	29.01
865.461	-42.67
865.634	76.12
865.808	29.01
865.982	39.25
866.156	-28.33
866.329	47.44
866.503	57.68
866.676	26.96
866.85	10.58
867.024	-20.14
867.197	51.54
867.371	80.21
867.544	33.11
867.718	26.96
867.891	-11.95
868.065	-1.71
868.238	47.44
868.412	2.39
868.585	131.41
868.759	2.39
868.932	-36.52
869.105	0.34
869.279	121.17
869.452	43.35
869.625	108.88
869.799	-1.71
869.972	29.01
870.145	14.68
870.319	24.92
870.492	53.59
870.665	78.16
870.838	43.35
871.011	0.34
871.185	47.44
871.358	55.64
871.531	-18.09
871.704	-22.19
871.877	26.96
872.05	33.11
872.223	20.82
872.396	84.31
872.569	98.64
872.742	18.77
872.915	-69.29
873.088	14.68
873.261	-28.33
873.434	67.92
873.607	0.34
873.78	-24.23
873.953	119.12
874.126	41.3
874.299	63.83
874.471	-34.47
874.644	24.92
874.817	88.4
874.99	76.12
875.163	22.87
875.335	98.64
875.508	22.87
875.681	63.83
875.853	16.73
876.026	39.25
876.199	39.25
876.371	84.31
876.544	49.49
876.717	16.73
876.889	-34.47
877.062	-48.81
877.234	-42.67
877.407	-1.71
877.579	39.25
877.752	35.16
877.924	43.35
878.097	-9.9
878.269	-34.47
878.442	49.49
878.614	45.4
878.786	0.34
878.959	59.73
879.131	-11.95
879.303	2.39
879.476	29.01
879.648	55.64
879.82	47.44
879.993	16.73
880.165	55.64
880.337	-24.23
880.509	0.34
880.681	-13.99
880.854	67.92
881.026	-34.47
881.198	137.56
881.37	61.78
881.542	-11.95
881.714	10.58
881.886	20.82
882.058	6.49
882.23	-46.76
882.402	-16.04
882.574	-34.47
882.746	24.92
882.918	10.58
883.09	-11.95
883.262	14.68
883.434	53.59
883.606	22.87
883.778	22.87
883.95	31.06
884.122	2.39
884.293	-13.99
884.465	-30.38
884.637	92.5
884.809	-34.47
884.98	10.58
885.152	76.12
885.324	47.44
885.496	20.82
885.667	16.73
885.839	37.2
886.011	84.31
886.182	4.44
886.354	33.11
886.525	22.87
886.697	-5.8
886.869	-13.99
887.04	31.06
887.212	35.16
887.383	108.88
887.555	-3.75
887.726	-75.43
887.897	-11.95
888.069	-50.86
888.24	51.54
888.412	20.82
888.583	-9.9
888.754	69.97
888.926	-1.71
889.097	14.68
889.268	8.53
889.44	72.02
889.611	-13.99
889.782	-18.09
889.953	-16.04
890.125	80.21
890.296	20.82
890.467	20.82
890.638	-20.14
890.809	-91.82
890.98	20.82
891.151	88.4
891.323	6.49
891.494	22.87
891.665	-30.38
891.836	96.6
892.007	-28.33
892.178	59.73
892.349	65.88
892.52	-5.8
892.691	18.77
892.862	39.25
893.032	92.5
893.203	-30.38
893.374	63.83
893.545	12.63
893.716	-11.95
893.887	31.06
894.057	104.79
894.228	31.06
894.399	8.53
894.57	82.26
894.74	78.16
894.911	-18.09
895.082	-1.71
895.253	-9.9
895.423	-1.71
895.594	47.44
895.764	22.87
895.935	37.2
896.106	18.77
896.276	-46.76
896.447	61.78
896.617	57.68
896.788	24.92
896.958	-48.81
897.129	22.87
897.299	-16.04
897.47	47.44
897.64	59.73
897.81	4.44
897.981	24.92
898.151	51.54
898.322	-26.28
898.492	16.73
898.662	10.58
898.832	20.82
899.003	41.3
899.173	6.49
899.343	-18.09
899.513	-13.99
