Data from USB4F104151__149__10-26-39-534.txt Node

Date: Wed Mar 12 10:26:39 EDT 2025
User: louis
Spectrometer: USB4F10415
Trigger mode: 4
Integration Time (sec): 3.000000E-2
Scans to average: 1
Electric dark correction enabled: true
Nonlinearity correction enabled: false
Boxcar width: 0
XAxis mode: Wavelengths
Number of Pixels in Spectrum: 3648
>>>>>Begin Spectral Data<<<<<
178.204	-12.12
178.424	-12.12
178.644	-12.12
178.864	-204.63
179.084	-87.89
179.304	51.37
179.524	26.79
179.744	-36.69
179.964	57.51
180.184	-8.02
180.404	8.36
180.624	-87.89
180.844	47.27
181.064	-57.17
181.283	34.99
181.503	-71.51
181.723	34.99
181.943	2.22
182.163	88.23
182.383	-3.93
182.602	-5.97
182.822	53.42
183.042	2.22
183.262	20.65
183.482	53.42
183.701	92.33
183.921	86.19
184.141	12.46
184.361	92.33
184.58	57.51
184.8	-18.26
185.02	-28.5
185.239	125.1
185.459	28.84
185.679	30.89
185.898	-22.36
186.118	10.41
186.338	-18.26
186.557	26.79
186.777	-5.97
186.997	16.55
187.216	6.31
187.436	57.51
187.655	-16.21
187.875	47.27
188.095	37.03
188.314	34.99
188.534	39.08
188.753	-46.93
188.973	16.55
189.192	45.23
189.412	88.23
189.631	-81.75
189.851	82.09
190.07	45.23
190.29	-30.55
190.509	10.41
190.729	49.32
190.948	37.03
191.168	114.86
191.387	61.61
191.607	28.84
191.826	6.31
192.045	4.27
192.265	37.03
192.484	45.23
192.704	-12.12
192.923	-67.41
193.142	18.6
193.362	-22.36
193.581	131.24
193.8	16.55
194.02	10.41
194.239	16.55
194.458	-34.64
194.678	-28.5
194.897	-40.79
195.116	-22.36
195.335	-30.55
195.555	45.23
195.774	26.79
195.993	57.51
196.212	-48.98
196.432	-16.21
196.651	45.23
196.87	8.36
197.089	61.61
197.308	18.6
197.528	39.08
197.747	-69.46
197.966	22.7
198.185	43.18
198.404	43.18
198.623	43.18
198.842	49.32
199.062	-12.12
199.281	24.75
199.5	0.17
199.719	12.46
199.938	24.75
200.157	63.66
200.376	147.62
200.595	0.17
200.814	4.27
201.033	-30.55
201.252	10.41
201.471	10.41
201.69	28.84
201.909	55.47
202.128	34.99
202.347	67.75
202.566	-61.27
202.785	-20.31
203.004	28.84
203.223	32.94
203.442	37.03
203.661	-44.88
203.879	41.13
204.098	32.94
204.317	-26.45
204.536	10.41
204.755	-48.98
204.974	4.27
205.193	24.75
205.411	73.9
205.63	14.51
205.849	-44.88
206.068	10.41
206.287	0.17
206.505	49.32
206.724	20.65
206.943	-8.02
207.162	0.17
207.381	65.71
207.599	14.51
207.818	-22.36
208.037	43.18
208.255	37.03
208.474	-46.93
208.693	59.56
208.911	6.31
209.13	-12.12
209.349	8.36
209.567	22.7
209.786	69.8
210.005	94.38
210.223	-20.31
210.442	-18.26
210.661	0.17
210.879	6.31
211.098	-8.02
211.316	75.95
211.535	102.57
211.753	-28.5
211.972	47.27
212.191	-16.21
212.409	43.18
212.628	-8.02
212.846	67.75
213.065	92.33
213.283	-3.93
213.502	20.65
213.72	47.27
213.938	4.27
214.157	77.99
214.375	10.41
214.594	45.23
214.812	-28.5
215.031	12.46
215.249	-22.36
215.467	-1.88
215.686	45.23
215.904	43.18
216.122	28.84
216.341	82.09
216.559	32.94
216.778	43.18
216.996	73.9
217.214	2.22
217.432	12.46
217.651	8.36
217.869	4.27
218.087	2.22
218.306	-77.65
218.524	59.56
218.742	-55.12
218.96	49.32
219.179	114.86
219.397	-12.12
219.615	71.85
219.833	39.08
220.051	20.65
220.27	57.51
220.488	-1.88
220.706	8.36
220.924	28.84
221.142	12.46
221.36	20.65
221.578	-34.64
221.796	96.43
222.015	57.51
222.233	-32.6
222.451	43.18
222.669	32.94
222.887	22.7
223.105	2.22
223.323	-69.46
223.541	4.27
223.759	57.51
223.977	4.27
224.195	12.46
224.413	45.23
224.631	-24.4
224.849	-24.4
225.067	100.52
225.285	8.36
225.503	88.23
225.721	-18.26
225.939	10.41
226.157	24.75
226.375	102.57
226.592	37.03
226.81	20.65
227.028	53.42
227.246	55.47
227.464	28.84
227.682	14.51
227.9	114.86
228.117	47.27
228.335	18.6
228.553	-55.12
228.771	8.36
228.989	53.42
229.206	57.51
229.424	24.75
229.642	-61.27
229.86	34.99
230.077	73.9
230.295	18.6
230.513	88.23
230.731	12.46
230.948	41.13
231.166	71.85
231.384	20.65
231.601	-10.07
231.819	16.55
232.037	16.55
232.254	-24.4
232.472	39.08
232.689	32.94
232.907	77.99
233.125	14.51
233.342	-1.88
233.56	24.75
233.777	10.41
233.995	77.99
234.213	10.41
234.43	69.8
234.648	-5.97
234.865	10.41
235.083	-5.97
235.3	34.99
235.518	57.51
235.735	22.7
235.953	-20.31
236.17	0.17
236.388	4.27
236.605	73.9
236.822	57.51
237.04	47.27
237.257	75.95
237.475	8.36
237.692	86.19
237.909	45.23
238.127	-28.5
238.344	16.55
238.562	63.66
238.779	24.75
238.996	-22.36
239.214	45.23
239.431	39.08
239.648	8.36
239.865	0.17
240.083	73.9
240.3	92.33
240.517	0.17
240.735	45.23
240.952	30.89
241.169	77.99
241.386	24.75
241.603	82.09
241.821	20.65
242.038	34.99
242.255	106.67
242.472	57.51
242.689	26.79
242.907	69.8
243.124	-5.97
243.341	8.36
243.558	2.22
243.775	-3.93
243.992	-12.12
244.209	41.13
244.426	172.2
244.643	49.32
244.86	75.95
245.078	24.75
245.295	-8.02
245.512	8.36
245.729	-28.5
245.946	-85.84
246.163	43.18
246.38	8.36
246.597	69.8
246.814	45.23
247.031	77.99
247.248	61.61
247.464	80.04
247.681	26.79
247.898	26.79
248.115	100.52
248.332	-5.97
248.549	112.81
248.766	63.66
248.983	61.61
249.2	-24.4
249.417	43.18
249.633	28.84
249.85	96.43
250.067	77.99
250.284	-12.12
250.501	69.8
250.717	102.57
250.934	-20.31
251.151	61.61
251.368	75.95
251.585	-22.36
251.801	26.79
252.018	-16.21
252.235	20.65
252.451	37.03
252.668	94.38
252.885	34.99
253.102	2.22
253.318	-18.26
253.535	67.75
253.752	-8.02
253.968	-8.02
254.185	-22.36
254.401	43.18
254.618	51.37
254.835	12.46
255.051	22.7
255.268	-48.98
255.484	45.23
255.701	20.65
255.917	12.46
256.134	-51.03
256.351	-3.93
256.567	-48.98
256.784	67.75
257	-5.97
257.217	75.95
257.433	45.23
257.65	10.41
257.866	69.8
258.082	2.22
258.299	63.66
258.515	61.61
258.732	-18.26
258.948	55.47
259.165	0.17
259.381	24.75
259.597	-5.97
259.814	2.22
260.03	2.22
260.246	-14.17
260.463	-32.6
260.679	94.38
260.895	45.23
261.112	-14.17
261.328	-8.02
261.544	73.9
261.761	41.13
261.977	73.9
262.193	16.55
262.409	-24.4
262.626	71.85
262.842	49.32
263.058	-1.88
263.274	73.9
263.49	39.08
263.707	82.09
263.923	47.27
264.139	-59.22
264.355	63.66
264.571	63.66
264.787	43.18
265.004	28.84
265.22	24.75
265.436	2.22
265.652	-18.26
265.868	55.47
266.084	22.7
266.3	28.84
266.516	-102.23
266.732	30.89
266.948	-12.12
267.164	16.55
267.38	69.8
267.596	51.37
267.812	10.41
268.028	34.99
268.244	26.79
268.46	30.89
268.676	-16.21
268.892	24.75
269.108	26.79
269.324	47.27
269.54	-57.17
269.756	-10.07
269.972	-32.6
270.188	26.79
270.403	4.27
270.619	86.19
270.835	37.03
271.051	0.17
271.267	24.75
271.483	37.03
271.698	26.79
271.914	18.6
272.13	-65.36
272.346	73.9
272.562	8.36
272.777	49.32
272.993	-26.45
273.209	-3.93
273.425	-34.64
273.64	-69.46
273.856	26.79
274.072	-3.93
274.287	26.79
274.503	-22.36
274.719	84.14
274.934	18.6
275.15	12.46
275.366	30.89
275.581	28.84
275.797	86.19
276.012	51.37
276.228	49.32
276.444	121
276.659	75.95
276.875	53.42
277.09	-16.21
277.306	-20.31
277.521	4.27
277.737	-8.02
277.952	77.99
278.168	18.6
278.383	32.94
278.599	32.94
278.814	-20.31
279.03	8.36
279.245	39.08
279.461	-28.5
279.676	41.13
279.892	-3.93
280.107	57.51
280.322	-69.46
280.538	-30.55
280.753	10.41
280.969	67.75
281.184	-16.21
281.399	47.27
281.615	-12.12
281.83	37.03
282.045	82.09
282.26	4.27
282.476	55.47
282.691	37.03
282.906	49.32
283.122	-10.07
283.337	12.46
283.552	32.94
283.767	16.55
283.983	71.85
284.198	-42.84
284.413	32.94
284.628	-5.97
284.843	37.03
285.058	-14.17
285.274	75.95
285.489	-12.12
285.704	65.71
285.919	20.65
286.134	45.23
286.349	6.31
286.564	37.03
286.779	22.7
286.995	28.84
287.21	-61.27
287.425	-26.45
287.64	71.85
287.855	6.31
288.07	-22.36
288.285	55.47
288.5	4.27
288.715	84.14
288.93	18.6
289.145	47.27
289.36	43.18
289.575	18.6
289.79	28.84
290.004	24.75
290.219	82.09
290.434	53.42
290.649	57.51
290.864	-69.46
291.079	14.51
291.294	12.46
291.509	57.51
291.724	20.65
291.938	114.86
292.153	45.23
292.368	2.22
292.583	12.46
292.798	20.65
293.012	37.03
293.227	37.03
293.442	-22.36
293.657	-24.4
293.871	45.23
294.086	59.56
294.301	86.19
294.516	51.37
294.73	82.09
294.945	12.46
295.16	69.8
295.374	22.7
295.589	-3.93
295.804	-20.31
296.018	-10.07
296.233	82.09
296.447	100.52
296.662	16.55
296.877	69.8
297.091	4.27
297.306	16.55
297.52	75.95
297.735	24.75
297.949	-8.02
298.164	61.61
298.378	28.84
298.593	-14.17
298.807	8.36
299.022	20.65
299.236	49.32
299.451	0.17
299.665	-3.93
299.88	-22.36
300.094	-48.98
300.309	4.27
300.523	53.42
300.737	26.79
300.952	24.75
301.166	10.41
301.381	24.75
301.595	34.99
301.809	-20.31
302.024	57.51
302.238	-16.21
302.452	32.94
302.667	18.6
302.881	129.19
303.095	16.55
303.309	12.46
303.524	28.84
303.738	14.51
303.952	80.04
304.166	24.75
304.381	-32.6
304.595	-1.88
304.809	34.99
305.023	100.52
305.237	-14.17
305.452	20.65
305.666	69.8
305.88	61.61
306.094	47.27
306.308	41.13
306.522	110.76
306.736	-63.32
306.95	20.65
307.164	30.89
307.379	-24.4
307.593	59.56
307.807	-14.17
308.021	49.32
308.235	96.43
308.449	-28.5
308.663	80.04
308.877	53.42
309.091	0.17
309.305	84.14
309.519	43.18
309.733	51.37
309.947	-1.88
310.161	47.27
310.374	0.17
310.588	20.65
310.802	-36.69
311.016	18.6
311.23	77.99
311.444	18.6
311.658	43.18
311.872	61.61
312.085	49.32
312.299	75.95
312.513	73.9
312.727	32.94
312.941	-3.93
313.154	59.56
313.368	-3.93
313.582	77.99
313.796	43.18
314.009	32.94
314.223	123.05
314.437	98.47
314.651	118.95
314.864	20.65
315.078	51.37
315.292	75.95
315.505	61.61
315.719	24.75
315.933	49.32
316.146	41.13
316.36	-57.17
316.573	90.28
316.787	-12.12
317.001	114.86
317.214	-53.08
317.428	49.32
317.641	12.46
317.855	8.36
318.068	45.23
318.282	139.43
318.495	100.52
318.709	18.6
318.922	-44.88
319.136	51.37
319.349	41.13
319.563	0.17
319.776	26.79
319.99	-71.51
320.203	88.23
320.417	41.13
320.63	67.75
320.843	61.61
321.057	28.84
321.27	43.18
321.483	37.03
321.697	69.8
321.91	10.41
322.124	4.27
322.337	61.61
322.55	-10.07
322.763	32.94
322.977	61.61
323.19	32.94
323.403	4.27
323.617	6.31
323.83	32.94
324.043	55.47
324.256	39.08
324.469	45.23
324.683	14.51
324.896	-38.74
325.109	14.51
325.322	-61.27
325.535	59.56
325.748	90.28
325.962	-32.6
326.175	75.95
326.388	43.18
326.601	67.75
326.814	86.19
327.027	-8.02
327.24	118.95
327.453	16.55
327.666	43.18
327.879	65.71
328.092	53.42
328.305	73.9
328.518	-73.56
328.731	32.94
328.944	47.27
329.157	28.84
329.37	90.28
329.583	53.42
329.796	153.77
330.009	-10.07
330.222	53.42
330.435	14.51
330.648	37.03
330.861	43.18
331.073	28.84
331.286	12.46
331.499	-32.6
331.712	28.84
331.925	37.03
332.138	34.99
332.35	69.8
332.563	28.84
332.776	45.23
332.989	-5.97
333.202	53.42
333.414	108.71
333.627	0.17
333.84	59.56
334.053	24.75
334.265	32.94
334.478	63.66
334.691	45.23
334.903	28.84
335.116	-20.31
335.329	41.13
335.541	10.41
335.754	164.01
335.966	-8.02
336.179	110.76
336.392	86.19
336.604	45.23
336.817	-20.31
337.029	110.76
337.242	4.27
337.454	57.51
337.667	51.37
337.88	69.8
338.092	47.27
338.305	47.27
338.517	28.84
338.729	108.71
338.942	45.23
339.154	37.03
339.367	-24.4
339.579	26.79
339.792	-46.93
340.004	53.42
340.217	88.23
340.429	90.28
340.641	34.99
340.854	-79.7
341.066	59.56
341.278	77.99
341.491	20.65
341.703	63.66
341.915	32.94
342.128	41.13
342.34	61.61
342.552	86.19
342.764	61.61
342.977	-5.97
343.189	43.18
343.401	51.37
343.613	-14.17
343.826	84.14
344.038	-42.84
344.25	8.36
344.462	22.7
344.674	53.42
344.886	43.18
345.099	84.14
345.311	16.55
345.523	53.42
345.735	4.27
345.947	57.51
346.159	118.95
346.371	100.52
346.583	69.8
346.795	57.51
347.007	32.94
347.219	98.47
347.431	45.23
347.643	51.37
347.855	12.46
348.067	47.27
348.279	82.09
348.491	57.51
348.703	61.61
348.915	24.75
349.127	-46.93
349.339	-14.17
349.551	-12.12
349.763	123.05
349.975	20.65
350.187	16.55
350.399	139.43
350.61	45.23
350.822	37.03
351.034	67.75
351.246	0.17
351.458	24.75
351.669	77.99
351.881	41.13
352.093	82.09
352.305	57.51
352.517	-8.02
352.728	88.23
352.94	67.75
353.152	49.32
353.363	37.03
353.575	37.03
353.787	114.86
353.999	12.46
354.21	77.99
354.422	75.95
354.633	34.99
354.845	55.47
355.057	57.51
355.268	41.13
355.48	24.75
355.692	-22.36
355.903	61.61
356.115	24.75
356.326	-26.45
356.538	24.75
356.749	12.46
356.961	45.23
357.172	12.46
357.384	55.47
357.595	118.95
357.807	57.51
358.018	49.32
358.23	69.8
358.441	12.46
358.653	75.95
358.864	77.99
359.075	75.95
359.287	22.7
359.498	110.76
359.709	43.18
359.921	18.6
360.132	8.36
360.344	30.89
360.555	114.86
360.766	26.79
360.977	28.84
361.189	114.86
361.4	-3.93
361.611	6.31
361.823	69.8
362.034	73.9
362.245	28.84
362.456	61.61
362.667	57.51
362.879	12.46
363.09	28.84
363.301	18.6
363.512	86.19
363.723	24.75
363.935	75.95
364.146	32.94
364.357	55.47
364.568	4.27
364.779	0.17
364.99	28.84
365.201	37.03
365.412	43.18
365.623	39.08
365.834	-1.88
366.045	-36.69
366.256	37.03
366.467	77.99
366.678	61.61
366.889	-3.93
367.1	61.61
367.311	65.71
367.522	57.51
367.733	39.08
367.944	-3.93
368.155	-8.02
368.366	125.1
368.577	108.71
368.788	96.43
368.999	32.94
369.209	20.65
369.42	61.61
369.631	94.38
369.842	57.51
370.053	100.52
370.264	45.23
370.474	-8.02
370.685	41.13
370.896	-8.02
371.107	28.84
371.317	133.29
371.528	41.13
371.739	92.33
371.95	61.61
372.16	34.99
372.371	73.9
372.582	51.37
372.792	65.71
373.003	55.47
373.214	26.79
373.424	100.52
373.635	-28.5
373.846	67.75
374.056	24.75
374.267	20.65
374.477	133.29
374.688	51.37
374.898	108.71
375.109	98.47
375.319	10.41
375.53	16.55
375.74	92.33
375.951	84.14
376.161	20.65
376.372	164.01
376.582	80.04
376.793	32.94
377.003	0.17
377.214	63.66
377.424	55.47
377.635	43.18
377.845	43.18
378.055	8.36
378.266	12.46
378.476	82.09
378.686	45.23
378.897	2.22
379.107	86.19
379.317	8.36
379.528	0.17
379.738	32.94
379.948	-57.17
380.158	108.71
380.369	-5.97
380.579	63.66
380.789	55.47
380.999	110.76
381.21	112.81
381.42	71.85
381.63	-69.46
381.84	47.27
382.05	30.89
382.261	14.51
382.471	118.95
382.681	102.57
382.891	106.67
383.101	80.04
383.311	0.17
383.521	92.33
383.731	12.46
383.941	82.09
384.151	28.84
384.361	0.17
384.571	100.52
384.781	12.46
384.991	168.1
385.201	98.47
385.411	20.65
385.621	114.86
385.831	86.19
386.041	82.09
386.251	22.7
386.461	45.23
386.671	71.85
386.881	41.13
387.091	90.28
387.301	108.71
387.511	67.75
387.72	53.42
387.93	10.41
388.14	47.27
388.35	108.71
388.56	86.19
388.769	37.03
388.979	100.52
389.189	80.04
389.399	45.23
389.609	51.37
389.818	-18.26
390.028	8.36
390.238	71.85
390.447	24.75
390.657	24.75
390.867	43.18
391.076	28.84
391.286	86.19
391.496	75.95
391.705	47.27
391.915	51.37
392.125	57.51
392.334	-1.88
392.544	71.85
392.753	30.89
392.963	73.9
393.172	61.61
393.382	69.8
393.591	92.33
393.801	112.81
394.01	123.05
394.22	39.08
394.429	41.13
394.639	45.23
394.848	82.09
395.058	118.95
395.267	63.66
395.477	143.53
395.686	127.14
395.895	153.77
396.105	100.52
396.314	34.99
396.524	77.99
396.733	127.14
396.942	168.1
397.152	131.24
397.361	86.19
397.57	151.72
397.78	65.71
397.989	178.34
398.198	133.29
398.407	125.1
398.617	114.86
398.826	151.72
399.035	127.14
399.244	98.47
399.453	69.8
399.663	88.23
399.872	65.71
400.081	88.23
400.29	153.77
400.499	53.42
400.708	106.67
400.917	69.8
401.127	51.37
401.336	123.05
401.545	161.96
401.754	137.38
401.963	141.48
402.172	100.52
402.381	88.23
402.59	114.86
402.799	174.25
403.008	84.14
403.217	133.29
403.426	114.86
403.635	176.3
403.844	153.77
404.053	188.58
404.262	143.53
404.471	241.83
404.68	139.43
404.888	161.96
405.097	194.73
405.306	233.64
405.515	159.91
405.724	143.53
405.933	219.3
406.142	186.54
406.35	192.68
406.559	176.3
406.768	192.68
406.977	192.68
407.185	196.78
407.394	235.69
407.603	217.26
407.812	254.12
408.02	270.5
408.229	219.3
408.438	192.68
408.646	217.26
408.855	233.64
409.064	274.6
409.272	270.5
409.481	278.69
409.69	247.97
409.898	346.28
410.107	352.42
410.315	350.37
410.524	336.04
410.733	395.43
410.941	387.24
411.15	389.28
411.358	379.04
411.567	506.02
411.775	393.38
411.984	413.86
412.192	536.74
412.401	508.07
412.609	559.27
412.818	475.3
413.026	606.37
413.234	624.8
413.443	618.66
413.651	575.65
413.86	569.51
414.068	645.28
414.276	712.86
414.485	667.81
414.693	624.8
414.901	823.45
415.11	817.31
415.318	821.41
415.526	843.93
415.734	784.54
415.943	891.04
416.151	938.14
416.359	864.41
416.567	936.09
416.776	995.48
416.984	1079.45
417.192	1061.02
417.4	1036.44
417.608	1065.11
417.817	1106.07
418.025	1167.51
418.233	1335.45
418.441	1278.1
418.649	1181.85
418.857	1347.73
419.065	1446.04
419.273	1396.89
419.481	1437.84
419.689	1454.23
419.897	1616.02
420.105	1691.79
420.313	1695.89
420.521	1839.25
420.729	1736.85
420.937	1851.53
421.145	1933.45
421.353	1996.94
421.561	2103.43
421.769	2085
421.977	2121.87
422.185	2199.69
422.393	2371.72
422.601	2461.83
422.809	2467.97
423.017	2515.08
423.224	2666.63
423.432	2629.76
423.64	2844.8
423.848	3039.36
424.056	2928.77
424.263	3154.04
424.471	3117.18
424.679	3207.29
424.887	3338.36
425.094	3541.11
425.302	3467.38
425.51	3706.99
425.718	3649.65
425.925	3840.11
426.133	3913.84
426.341	4155.5
426.548	4233.32
426.756	4231.27
426.964	4345.96
427.171	4454.5
427.379	4638.82
427.586	4821.09
427.794	4923.49
428.001	5126.24
428.209	5259.35
428.417	5371.99
428.624	5427.29
428.832	5668.95
429.039	5533.78
429.247	5820.5
429.454	6164.56
429.662	6541.38
429.869	6072.4
430.076	6737.99
430.284	6512.71
430.491	6928.45
430.699	6977.6
430.906	7063.61
431.114	7039.04
431.321	7370.81
431.528	7598.13
431.736	8001.58
431.943	8405.03
432.15	8128.56
432.358	8235.05
432.565	8745
432.772	8654.89
432.979	9068.58
433.187	9242.65
433.394	9244.7
433.601	9973.78
433.808	10024.98
434.016	10049.55
434.223	10223.63
434.43	10887.17
434.637	10774.53
434.844	11249.66
435.052	11585.53
435.259	11493.37
435.466	11757.56
435.673	11618.3
435.88	12247.02
436.087	12795.88
436.294	13043.68
436.501	12562.41
436.708	12816.36
436.915	13326.3
437.122	13940.69
437.329	13735.9
437.537	14475.21
437.743	14575.56
437.95	14391.25
438.157	15306.69
438.364	15620.03
438.571	15673.28
438.778	15704
438.985	17237.92
439.192	16529.33
439.399	17108.9
439.606	16570.29
439.813	17635.23
440.02	18460.56
440.227	18536.34
440.433	18067.35
440.64	18644.88
440.847	18536.34
441.054	19015.56
441.261	20309.88
441.467	19935.1
441.674	20438.9
441.881	21102.44
442.088	21192.55
442.294	20834.16
442.501	21679.97
442.708	21741.41
442.914	22818.64
443.121	23701.31
443.328	22912.85
443.534	24973.1
443.741	23969.6
443.948	23850.81
444.154	25513.77
444.361	25319.21
444.568	25218.86
444.774	25259.82
444.981	25216.81
445.187	26689.3
445.394	27643.65
445.6	27029.26
445.807	29544.17
446.013	28358.39
446.22	28950.26
446.426	29939.43
446.633	30381.79
446.839	31145.68
447.046	29914.85
447.252	31362.76
447.459	31540.94
447.665	32075.46
447.871	33046.19
448.078	34199.2
448.284	32442.04
448.491	33599.15
448.697	34823.83
448.903	35280.53
449.11	35520.14
449.316	34836.12
449.522	35438.22
449.728	36253.31
449.935	36808.31
450.141	36069
450.347	37164.66
450.553	35880.58
450.76	36417.15
450.966	37922.41
451.172	37244.53
451.378	38080.1
451.584	37127.8
451.791	38368.87
451.997	38159.97
452.203	38483.55
452.409	38698.59
452.615	38549.09
452.821	37029.49
453.027	36621.95
453.233	38551.13
453.44	36865.66
453.646	37365.36
453.852	37631.6
454.058	37733.99
454.264	37127.8
454.47	37506.67
454.676	36626.04
454.882	38131.3
455.088	34586.27
455.294	34993.81
455.5	35622.54
455.705	35927.69
455.911	34580.12
456.117	34094.75
456.323	33482.41
456.529	31854.28
456.735	32790.2
456.941	31782.6
457.147	31557.32
457.352	30224.09
457.558	30004.96
457.764	30213.85
457.97	29363.95
458.176	28985.07
458.381	28999.41
458.587	27598.6
458.793	27199.24
458.999	26175.26
459.204	28018.43
459.41	27191.05
459.616	25157.42
459.821	25507.62
460.027	25319.21
460.233	24756.02
460.438	23435.08
460.644	23846.72
460.85	22855.5
461.055	22523.73
461.261	22310.74
461.466	20916.08
461.672	20027.26
461.878	21428.07
462.083	20338.55
462.289	20019.07
462.494	19580.8
462.7	18640.78
462.905	18423.7
463.111	18855.82
463.316	18997.13
463.522	18272.15
463.727	18739.08
463.932	18450.32
464.138	18255.76
464.343	18372.5
464.549	17635.23
464.754	18319.25
464.959	18419.6
465.165	18347.92
465.37	17305.51
465.575	17002.41
465.781	17555.36
465.986	17745.82
466.191	17180.58
466.397	16938.92
466.602	15609.79
466.807	16586.67
467.012	16574.38
467.218	16601.01
467.423	16330.67
467.628	16322.48
467.833	16988.07
468.038	16412.59
468.244	15894.46
468.449	16613.29
468.654	15939.51
468.859	15994.81
469.064	15765.43
469.269	15097.8
469.474	15298.5
469.679	15591.36
469.885	14936.01
470.09	15421.38
470.295	15314.88
470.5	15005.64
470.705	14995.4
470.91	14753.74
471.115	14362.58
471.32	14811.08
471.525	14661.58
471.73	14176.21
471.935	14077.91
472.139	13752.28
472.344	14018.52
472.549	13842.39
472.754	13463.52
472.959	13537.24
473.164	13182.95
473.369	12812.26
473.574	13162.47
473.778	13230.05
473.983	13078.5
474.188	13268.96
474.393	12613.61
474.598	12638.19
474.802	12390.38
475.007	12439.53
475.212	12455.92
475.417	11759.61
475.621	11991.03
475.826	12144.63
476.031	11710.46
476.235	11747.32
476.44	11845.62
476.645	11606.01
476.849	11261.95
477.054	11446.27
477.259	11329.53
477.463	11190.27
477.668	10813.45
477.872	11182.08
478.077	10756.1
478.282	10582.03
478.486	10555.4
478.691	10401.8
478.895	10514.44
479.1	10278.93
479.304	10502.15
479.509	10063.89
479.713	10336.27
479.918	10203.15
480.122	9922.58
480.326	9898
480.531	10137.62
480.735	10029.07
480.94	9910.29
481.144	9988.11
481.348	9773.08
481.553	9836.56
481.757	9740.31
481.961	9938.96
482.166	10092.56
482.37	10055.7
482.574	9693.21
482.778	9740.31
482.983	9869.33
483.187	9650.2
483.391	9805.85
483.595	9617.43
483.8	9539.61
484.004	9701.4
484.208	9959.44
484.412	9519.13
484.616	9863.19
484.821	9617.43
485.025	9324.57
485.229	9750.55
485.433	9637.91
485.637	9623.58
485.841	9582.62
486.045	9689.11
486.249	9527.32
486.453	9410.59
486.657	9635.86
486.861	9660.44
487.065	9437.21
487.269	9717.78
487.473	9547.8
487.677	9906.2
487.881	9748.5
488.085	9668.63
488.289	9814.04
488.493	9654.3
488.697	9775.13
488.901	9660.44
489.105	9695.25
489.309	9883.67
489.512	9984.02
489.716	10018.83
489.92	9740.31
490.124	9723.93
490.328	10016.79
490.531	9883.67
490.735	10039.31
490.939	10035.22
491.143	9852.95
491.346	9938.96
491.55	10137.62
491.754	10053.65
491.958	10090.51
492.161	10059.79
492.365	10178.58
492.569	10088.46
492.772	10366.99
492.976	10203.15
493.18	10565.64
493.383	10369.04
493.587	10569.74
493.79	10590.22
493.994	10364.94
494.197	10532.87
494.401	10749.96
494.605	10700.81
494.808	10985.48
495.012	10954.76
495.215	11065.35
495.419	11102.21
495.622	11087.87
495.825	11288.57
496.029	11505.66
496.232	11696.12
496.436	11452.41
496.639	11804.66
496.843	11704.31
497.046	11931.64
497.249	12111.86
497.453	12081.14
497.656	12255.22
497.859	12339.18
498.063	12417.01
498.266	12851.17
498.469	12339.18
498.673	12937.19
498.876	12937.19
499.079	13295.58
499.282	13361.12
499.485	13473.76
499.689	13680.6
499.892	13766.62
500.095	13879.25
500.298	13912.02
500.501	13983.7
500.705	14387.15
500.908	14542.8
501.111	14632.91
501.314	14796.74
501.517	15103.94
501.72	15153.09
501.923	15253.44
502.126	15415.23
502.329	15931.32
502.532	15800.25
502.735	15527.87
502.938	16283.57
503.141	16115.64
503.344	16549.81
503.547	16553.9
503.75	16752.56
503.953	17022.89
504.156	17184.68
504.359	17248.16
504.562	17364.9
504.765	17919.9
504.968	17719.2
505.17	18165.65
505.373	18110.36
505.576	18493.33
505.779	18599.82
505.982	18651.02
506.185	19447.68
506.387	19240.84
506.59	19572.61
506.793	19865.47
506.996	19697.53
507.198	20154.23
507.401	20146.04
507.604	20316.02
507.807	20705.13
508.009	21170.02
508.212	21086.06
508.415	21624.67
508.617	21483.36
508.82	21950.3
509.022	21761.89
509.225	22259.54
509.428	22685.52
509.63	22685.52
509.833	22851.41
510.035	23338.82
510.238	23226.18
510.44	23752.51
510.643	23764.8
510.845	24076.09
511.048	24018.75
511.25	24426.29
511.453	24616.76
511.655	25683.75
511.858	25122.6
512.06	25257.77
512.262	25800.48
512.465	25509.67
512.667	26072.86
512.87	26191.64
513.072	26511.13
513.274	26887.95
513.477	27346.7
513.679	27664.13
513.881	28161.79
514.084	28098.3
514.286	27889.41
514.488	28315.39
514.69	29163.25
514.893	29134.57
515.095	29058.8
515.297	29560.55
515.499	29540.07
515.701	30099.17
515.904	30228.19
516.106	30217.95
516.308	30645.98
516.51	31268.56
516.712	31315.66
516.914	31932.1
517.116	32276.16
517.318	32089.79
517.52	32478.91
517.722	32603.83
517.925	33281.71
518.127	33470.12
518.329	33392.3
518.531	33676.97
518.733	34260.64
518.935	34457.24
519.136	34412.19
519.338	35131.03
519.54	35241.62
519.742	35151.51
519.944	35624.59
520.146	36337.28
520.348	36441.73
520.55	36636.28
520.752	36984.44
520.954	37645.93
521.155	36961.91
521.357	37834.35
521.559	38006.37
521.761	38909.53
521.963	38307.43
522.164	38893.15
522.366	38917.72
522.568	39622.22
522.77	39378.51
522.971	40123.97
523.173	39982.66
523.375	40111.69
523.576	40662.59
523.778	40365.63
523.98	41203.25
524.181	41178.68
524.383	41649.71
524.584	41834.03
524.786	41944.62
524.988	42143.27
525.189	42434.08
525.391	42817.05
525.592	42950.17
525.794	42800.67
525.995	43341.33
526.197	43404.82
526.398	43042.33
526.6	43800.08
526.801	43886.09
527.003	44262.92
527.204	44211.72
527.406	44424.71
527.607	44936.7
527.808	45127.16
528.01	44244.49
528.211	44942.84
528.412	45755.89
528.614	45600.24
528.815	45235.7
529.016	45972.97
529.218	45762.03
529.419	45635.06
529.62	45938.16
529.822	46065.13
530.023	45774.32
530.224	46110.19
530.425	45827.57
530.626	45817.33
530.828	45739.5
531.029	47056.35
531.23	46157.29
531.431	46562.79
531.632	46642.66
531.833	46761.44
532.035	46956
532.236	46757.35
532.437	47048.16
532.638	46751.2
532.839	47726.03
533.04	47635.92
533.241	46743.01
533.442	47969.74
533.643	47408.6
533.844	47484.37
534.045	47431.13
534.246	47375.83
534.447	47658.45
534.648	47666.64
534.849	47658.45
535.05	47027.68
535.251	47427.03
535.451	47580.63
535.652	48102.86
535.853	47564.24
536.054	47601.11
536.255	48078.29
536.456	47275.48
536.657	48385.48
536.857	47674.84
537.058	47670.74
537.259	48022.99
537.46	47629.78
537.66	47797.71
537.861	47844.82
538.062	47855.06
538.263	47814.1
538.463	47498.71
538.664	47699.41
538.865	47965.65
539.065	48260.55
539.266	47511
539.466	48258.51
539.667	47506.9
539.868	48365
540.068	47629.78
540.269	47881.68
540.469	48342.47
540.67	47695.31
540.87	47912.4
541.071	47838.67
541.271	48399.82
541.472	47490.52
541.672	47687.12
541.873	47187.42
542.073	47185.37
542.274	47842.77
542.474	47424.98
542.675	47531.48
542.875	47912.4
543.075	47529.43
543.276	47338.97
543.476	47666.64
543.676	47306.2
543.877	47640.02
544.077	47619.54
544.277	47658.45
544.478	47496.66
544.678	47312.34
544.878	47551.96
545.078	47609.3
545.279	47556.05
545.479	47609.3
545.679	47709.65
545.879	47470.04
546.079	47936.98
546.28	47511
546.48	47187.42
546.68	47422.94
546.88	47545.81
547.08	47576.53
547.28	47113.69
547.48	46974.43
547.68	47666.64
547.88	47046.11
548.081	47834.58
548.281	47381.98
548.481	47443.41
548.681	47603.16
548.881	47502.81
549.081	47203.8
549.28	46716.39
549.48	47554.01
549.68	47263.19
549.88	47943.12
550.08	47281.63
550.28	47467.99
550.48	47105.5
550.68	47369.69
550.88	47062.49
551.08	47355.35
551.279	47369.69
551.479	46915.04
551.679	47353.3
551.879	47199.71
552.079	47830.48
552.278	47085.02
552.478	47365.59
552.678	47283.67
552.878	47484.37
553.077	47056.35
553.277	47015.39
553.477	47136.22
553.676	46822.88
553.876	47005.15
554.076	46826.98
554.275	46900.7
554.475	46308.84
554.674	47214.04
554.874	46730.72
555.074	46425.57
555.273	46935.52
555.473	46974.43
555.672	46669.28
555.872	46079.47
556.071	46521.83
556.271	46849.5
556.47	46515.68
556.67	46110.19
556.869	46241.26
557.068	46089.71
557.268	46257.64
557.467	46355.94
557.667	46282.22
557.866	46204.39
558.065	45839.86
558.265	46007.79
558.464	45551.09
558.663	46265.83
558.863	45530.61
559.062	46226.92
559.261	45311.48
559.461	46327.27
559.66	45299.19
559.859	45702.64
560.058	44862.97
560.258	45344.25
560.457	44799.49
560.656	45864.43
560.855	44838.4
561.054	45147.64
561.253	44797.44
561.453	45137.4
561.652	44983.8
561.851	45084.15
562.05	44926.46
562.249	44500.48
562.448	44606.98
562.647	44733.95
562.846	44613.12
563.045	44398.09
563.244	43798.03
563.443	44647.94
563.642	44082.7
563.841	44525.06
564.04	43832.85
564.239	44285.45
564.438	43578.9
564.637	44305.93
564.836	44158.47
565.035	43531.79
565.234	43509.27
565.432	43042.33
565.631	43329.05
565.83	43546.13
566.029	43165.21
566.228	43120.15
566.427	42944.03
566.625	42849.82
566.824	42343.97
567.023	43152.92
567.222	41993.77
567.42	42751.52
567.619	42341.92
567.818	42036.78
568.016	41662
568.215	42153.51
568.414	41827.88
568.612	42331.68
568.811	41735.73
569.01	42051.11
569.208	41492.02
569.407	41561.65
569.605	41397.81
569.804	41819.69
570.002	40838.72
570.201	41383.48
570.4	41031.22
570.598	40228.42
570.797	40451.65
570.995	40793.66
571.193	40140.36
571.392	40691.26
571.59	40109.64
571.789	40193.61
571.987	40234.56
572.186	40111.69
572.384	39781.96
572.582	39921.23
572.781	39900.75
572.979	39155.29
573.177	39552.59
573.376	39925.32
573.574	39106.13
573.772	39544.4
573.971	39036.5
574.169	38868.57
574.367	38737.5
574.565	38864.47
574.763	39292.5
574.962	38663.77
575.16	38348.39
575.358	38573.66
575.556	38237.8
575.754	38555.23
575.952	37863.02
576.151	38082.15
576.349	37688.94
576.547	37746.28
576.745	37762.67
576.943	37658.22
577.141	37582.45
577.339	37953.13
577.537	37568.11
577.735	37310.07
577.933	36980.34
578.131	37512.81
578.329	37179
578.527	36984.44
578.725	36675.2
578.923	37033.59
579.121	36585.08
579.319	36609.66
579.516	37146.23
579.714	36927.1
579.912	36253.31
580.11	36445.82
580.308	36443.77
580.506	35839.62
580.704	35497.61
580.901	35829.38
581.099	35962.5
581.297	35454.61
581.495	35280.53
581.692	35757.71
581.89	35563.15
582.088	35559.05
582.285	35530.38
582.483	35741.32
582.681	35219.09
582.878	35028.63
583.076	34651.8
583.274	35288.72
583.471	34608.79
583.669	34944.66
583.866	34326.17
584.064	34920.09
584.262	34150.05
584.459	34154.15
584.657	34268.83
584.854	34338.46
585.052	33380.01
585.249	33945.25
585.447	33687.21
585.644	33871.53
585.841	33896.1
586.039	34010.79
586.236	33406.64
586.434	33300.14
586.631	33150.64
586.828	33253.04
587.026	33476.27
587.223	32970.42
587.42	33097.39
587.618	33027.76
587.815	32515.77
588.012	32685.75
588.21	32714.42
588.407	32480.96
588.604	32319.17
588.801	31880.9
588.999	31755.97
589.196	32306.88
589.393	32247.49
589.59	32050.88
589.787	31823.56
589.984	31704.77
590.182	31332.04
590.379	31614.66
590.576	31585.99
590.773	31188.69
590.97	31192.78
591.167	31358.67
591.364	30930.64
591.561	31069.9
591.758	30963.41
591.955	30914.26
592.152	31270.61
592.349	30613.21
592.546	30463.71
592.743	30508.76
592.94	30342.88
593.137	30461.66
593.334	30553.82
593.531	29933.28
593.727	30201.57
593.924	29972.19
594.121	30238.43
594.318	30211.81
594.515	29630.18
594.712	29837.03
594.908	29429.48
595.105	29671.14
595.302	29212.4
595.499	29343.47
595.696	29499.11
595.892	28911.35
596.089	28669.69
596.286	29157.1
596.482	28651.25
596.679	29103.85
596.876	28847.86
597.072	28595.96
597.269	28595.96
597.466	28270.33
597.662	28405.5
597.859	28339.96
598.055	28473.08
598.252	28448.5
598.448	27881.22
598.645	27809.54
598.841	27860.74
599.038	27705.09
599.234	28010.24
599.431	27739.91
599.627	27834.11
599.824	27647.75
600.02	27483.91
600.217	27887.36
600.413	27289.35
600.609	27309.83
600.806	27293.45
601.002	27586.31
601.198	26863.38
601.395	26709.78
601.591	26918.67
601.787	26509.08
601.984	26308.38
602.18	26668.82
602.376	26529.56
602.572	26300.19
602.769	26519.32
602.965	25986.85
603.161	26269.47
603.357	25601.83
603.553	26222.36
603.75	25978.65
603.946	25550.63
604.142	25782.05
604.338	25591.59
604.534	25833.25
604.73	25542.44
604.926	25495.33
605.122	25364.26
605.318	25329.45
605.514	25317.16
605.71	25143.08
605.906	25190.19
606.102	25130.8
606.298	25227.05
606.494	24985.39
606.69	24997.68
606.886	24995.63
607.082	24409.91
607.278	24737.59
607.474	24297.27
607.67	24614.71
607.866	24196.92
608.062	24565.56
608.257	24284.98
608.453	24438.58
608.649	24403.77
608.845	24018.75
609.041	24028.99
609.236	24250.17
609.432	24192.83
609.628	23985.98
609.824	23801.66
610.019	23811.9
610.215	23629.63
610.411	23672.64
610.606	23555.91
610.802	23953.21
610.998	23461.7
611.193	23793.47
611.389	23254.86
611.584	23334.73
611.78	23054.15
611.976	23576.39
612.171	23138.12
612.367	23273.29
612.562	23314.25
612.758	22746.96
612.953	22820.69
613.149	23191.37
613.344	22679.38
613.539	23480.13
613.735	22579.03
613.93	22753.1
614.126	22792.01
614.321	22966.09
614.517	22636.37
614.712	22470.48
614.907	22415.19
615.103	22742.86
615.298	22382.42
615.493	22415.19
615.688	22341.46
615.884	22679.38
616.079	22034.27
616.274	22386.52
616.47	22351.7
616.665	22277.97
616.86	22353.75
617.055	21899.1
617.25	21993.31
617.445	22261.59
617.641	21532.51
617.836	22007.64
618.031	21272.42
618.226	22157.14
618.421	21557.09
618.616	21745.5
618.811	21071.72
619.006	21722.98
619.201	21028.71
619.396	21309.29
619.591	21114.73
619.786	21094.25
619.981	20619.12
620.176	20813.68
620.371	20842.35
620.566	20752.24
620.761	20692.85
620.956	20780.91
621.151	20705.13
621.346	20565.87
621.541	20010.87
621.735	20328.31
621.93	20000.63
622.125	20268.92
622.32	19566.46
622.515	20109.18
622.709	19507.07
622.904	19646.33
623.099	19625.86
623.294	19629.95
623.488	19201.93
623.683	19566.46
623.878	19072.9
624.072	19310.47
624.267	19177.35
624.462	18927.5
624.656	18499.47
624.851	18786.19
625.046	18495.38
625.24	18550.67
625.435	18341.78
625.629	18532.24
625.824	18210.71
626.018	18139.03
626.213	17706.91
626.407	18005.91
626.602	17657.76
626.796	17885.08
626.991	17471.39
627.185	17602.46
627.38	17354.66
627.574	17395.62
627.768	16977.83
627.963	17145.77
628.157	16730.03
628.352	17080.23
628.546	16644.01
628.74	17115.05
628.935	16424.88
629.129	16523.18
629.323	16285.62
629.517	16420.78
629.712	16420.78
629.906	16066.49
630.1	15900.6
630.294	16082.87
630.489	15925.18
630.683	16254.9
630.877	15804.35
631.071	15624.12
631.265	15587.26
631.459	15448
631.653	15378.37
631.848	15689.66
632.042	15196.1
632.236	15255.49
632.43	15253.44
632.624	15253.44
632.818	14833.61
633.012	14733.26
633.206	14819.27
633.4	14944.2
633.594	14563.28
633.788	14647.24
633.982	14657.48
634.176	14405.58
634.369	14227.41
634.563	14540.75
634.757	14077.91
634.951	14182.35
635.145	14018.52
635.339	14084.05
635.533	13764.57
635.726	13735.9
635.92	13707.23
636.114	13877.21
636.308	13715.42
636.501	13627.35
636.695	13303.78
636.889	13488.09
637.083	13330.4
637.276	13498.33
637.47	13170.66
637.664	13266.91
637.857	13096.93
638.051	12771.3
638.244	12703.72
638.438	13060.07
638.632	12746.73
638.825	12675.05
639.019	12537.84
639.212	12570.6
639.406	12474.35
639.599	12427.25
639.793	12257.26
639.986	12210.16
640.18	12310.51
640.373	12296.18
640.567	12017.65
640.76	12156.91
640.954	12001.27
641.147	11927.54
641.34	11755.51
641.534	11735.03
641.727	11700.22
641.92	11823.09
642.114	11436.03
642.307	11511.8
642.5	11446.27
642.694	11261.95
642.887	11309.05
643.08	11450.36
643.273	11317.25
643.467	11159.55
643.66	11141.12
643.853	10952.71
644.046	10881.03
644.239	11012.1
644.432	10807.3
644.626	10823.69
644.819	10805.25
645.012	10776.58
645.205	10729.48
645.398	10620.94
645.591	10436.62
645.784	10614.79
645.977	10309.65
646.17	10291.21
646.363	10180.62
646.556	10276.88
646.749	10133.52
646.942	10094.61
647.135	9941.01
647.328	9805.85
647.521	9902.1
647.714	9859.09
647.907	9695.25
648.099	9840.66
648.292	9816.08
648.485	9588.76
648.678	9656.34
648.871	9535.51
649.064	9414.68
649.256	9392.16
649.449	9418.78
649.642	9363.48
649.835	9164.83
650.027	9183.26
650.22	9185.31
650.413	9113.63
650.605	9064.48
650.798	9193.5
650.991	8998.95
651.183	8861.73
651.376	8896.55
651.568	8753.19
651.761	8628.26
651.954	8871.97
652.146	8624.17
652.339	8646.69
652.531	8689.7
652.724	8679.46
652.916	8394.79
653.109	8325.16
653.301	8417.32
653.494	8474.67
653.686	8144.94
653.879	8190
654.071	8202.29
654.263	8202.29
654.456	8288.3
654.648	8331.31
654.84	8108.08
655.033	7993.39
655.225	7946.29
655.417	7835.7
655.61	7956.53
655.802	7936.05
655.994	7682.1
656.186	7843.89
656.379	7721.01
656.571	7639.09
656.763	7766.07
656.955	7567.42
657.148	7737.4
657.34	7581.75
657.532	7385.15
657.724	7448.63
657.916	7422.01
658.108	7407.67
658.3	7256.12
658.492	7227.45
658.684	7182.4
658.876	7309.37
659.068	7290.94
659.26	7239.74
659.452	7176.25
659.644	7157.82
659.836	7233.6
660.028	7041.09
660.22	6840.39
660.412	7086.14
660.604	6821.95
660.796	6862.91
660.988	6877.25
661.18	6699.08
661.372	6774.85
661.563	6932.54
661.755	6664.26
661.947	6762.56
662.139	6625.35
662.331	6627.4
662.522	6422.6
662.714	6705.22
662.906	6498.38
663.097	6520.9
663.289	6453.32
663.481	6213.71
663.673	6334.54
663.864	6369.35
664.056	6193.23
664.247	6438.98
664.439	6129.74
664.631	6170.7
664.822	6174.8
665.014	6172.75
665.205	6223.95
665.397	5826.64
665.588	6072.4
665.78	6207.56
665.971	6019.15
666.163	5980.24
666.354	5947.47
666.546	5865.55
666.737	5828.69
666.929	5922.9
667.12	5939.28
667.311	5984.34
667.503	5845.07
667.694	5843.03
667.885	5851.22
668.077	5648.47
668.268	5722.2
668.459	5572.69
668.651	5640.28
668.842	5664.85
669.033	5580.89
669.224	5449.82
669.416	5511.25
669.607	5464.15
669.798	5449.82
669.989	5478.49
670.18	5507.16
670.371	5353.56
670.563	5441.62
670.754	5355.61
670.945	5324.89
671.136	5386.33
671.327	5226.59
671.518	5255.26
671.709	5390.42
671.9	5265.5
672.091	5238.87
672.282	5230.68
672.473	5144.67
672.664	5118.04
672.855	5136.48
673.046	5269.59
673.237	5116
673.428	5050.46
673.619	5105.76
673.809	5013.6
674	5234.78
674.191	5197.92
674.382	4860
674.573	4919.39
674.764	4896.86
674.954	4993.12
675.145	4923.49
675.336	4874.34
675.527	4923.49
675.717	4937.82
675.908	4872.29
676.099	5046.37
676.289	4868.19
676.48	4958.3
676.671	4943.97
676.861	5072.99
677.052	4677.73
677.243	4841.57
677.433	4810.85
677.624	4796.51
677.814	4659.3
678.005	4663.4
678.195	4804.71
678.386	4864.1
678.576	4612.2
678.767	4722.79
678.957	4690.02
679.148	4761.7
679.338	4712.55
679.529	4511.85
679.719	4651.11
679.909	4716.64
680.1	4737.12
680.29	4804.71
680.481	4491.37
680.671	4575.33
680.861	4581.48
681.052	4534.37
681.242	4513.89
681.432	4671.59
681.622	4651.11
681.813	4509.8
682.003	4649.06
682.193	4640.87
682.383	4620.39
682.573	4528.23
682.764	4524.13
682.954	4573.28
683.144	4515.94
683.334	4352.1
683.524	4462.69
683.714	4499.56
683.904	4558.95
684.094	4509.8
684.284	4462.69
684.474	4517.99
684.664	4413.54
684.854	4386.92
685.044	4452.45
685.234	4442.21
685.424	4376.68
685.614	4337.77
685.804	4286.57
685.994	4511.85
686.184	4376.68
686.374	4296.81
686.564	4229.23
686.753	4208.75
686.943	4216.94
687.133	4280.43
687.323	4227.18
687.513	4173.93
687.702	4290.67
687.892	4200.55
688.082	4186.22
688.272	4184.17
688.461	4167.79
688.651	4071.53
688.841	3969.13
689.03	4186.22
689.22	4063.34
689.41	4249.71
689.599	4036.72
689.789	4089.96
689.979	4092.01
690.168	3897.46
690.358	4006
690.547	3954.8
690.737	3989.61
690.926	4059.24
691.116	3911.79
691.305	3885.17
691.495	3919.98
691.684	3833.97
691.874	3999.85
692.063	3909.74
692.252	3895.41
692.442	3860.59
692.631	3752.05
692.82	3971.18
693.01	3762.29
693.199	3836.02
693.388	3790.96
693.578	3608.69
693.767	3752.05
693.956	3670.13
694.146	3829.87
694.335	3735.67
694.524	3686.51
694.713	3721.33
694.902	3631.22
695.092	3762.29
695.281	3657.84
695.47	3752.05
695.659	3637.36
695.848	3580.02
696.037	3625.08
696.226	3672.18
696.415	3645.56
696.604	3637.36
696.793	3551.35
696.982	3610.74
697.171	3608.69
697.36	3594.36
697.549	3627.12
697.738	3473.53
697.927	3582.07
698.116	3623.03
698.305	3610.74
698.494	3694.71
698.683	3541.11
698.872	3549.3
699.061	3698.8
699.25	3473.53
699.438	3387.51
699.627	3567.73
699.816	3537.01
700.005	3616.88
700.193	3537.01
700.382	3561.59
700.571	3647.6
700.76	3594.36
700.948	3557.49
701.137	3510.39
701.326	3428.47
701.514	3500.15
701.703	3436.66
701.892	3442.81
702.08	3524.72
702.269	3633.27
702.457	3459.19
702.646	3522.68
702.834	3420.28
703.023	3526.77
703.212	3506.29
703.4	3428.47
703.589	3424.37
703.777	3395.7
703.965	3293.3
704.154	3577.97
704.342	3393.65
704.531	3485.81
704.719	3403.89
704.907	3491.96
705.096	3516.53
705.284	3483.77
705.472	3532.92
705.661	3479.67
705.849	3514.49
706.037	3489.91
706.226	3600.5
706.414	3440.76
706.602	3440.76
706.79	3465.33
706.979	3629.17
707.167	3285.11
707.355	3461.24
707.543	3444.85
707.731	3436.66
707.919	3549.3
708.107	3420.28
708.296	3428.47
708.484	3324.02
708.672	3412.09
708.86	3387.51
709.048	3526.77
709.236	3260.54
709.424	3391.61
709.612	3285.11
709.8	3371.13
709.988	3453.05
710.176	3399.8
710.364	3502.2
710.551	3455.09
710.739	3321.98
710.927	3338.36
711.115	3475.57
711.303	3379.32
711.491	3453.05
711.679	3500.15
711.866	3440.76
712.054	3389.56
712.242	3477.62
712.43	3500.15
712.617	3379.32
712.805	3453.05
712.993	3442.81
713.181	3313.78
713.368	3358.84
713.556	3379.32
713.744	3356.79
713.931	3453.05
714.119	3616.88
714.306	3420.28
714.494	3524.72
714.682	3444.85
714.869	3334.26
715.057	3485.81
715.244	3336.31
715.432	3395.7
715.619	3494.01
715.807	3420.28
715.994	3334.26
716.182	3444.85
716.369	3448.95
716.556	3346.55
716.744	3442.81
716.931	3440.76
717.119	3487.86
717.306	3491.96
717.493	3440.76
717.681	3432.57
717.868	3336.31
718.055	3504.25
718.242	3471.48
718.43	3410.04
718.617	3375.22
718.804	3395.7
718.991	3534.96
719.179	3420.28
719.366	3424.37
719.553	3420.28
719.74	3436.66
719.927	3467.38
720.114	3428.47
720.301	3549.3
720.488	3436.66
720.676	3315.83
720.863	3461.24
721.05	3387.51
721.237	3324.02
721.424	3352.7
721.611	3430.52
721.798	3358.84
721.985	3305.59
722.172	3340.41
722.358	3403.89
722.545	3516.53
722.732	3262.58
722.919	3315.83
723.106	3315.83
723.293	3330.17
723.48	3256.44
723.667	3270.78
723.853	3149.95
724.04	3459.19
724.227	3180.67
724.414	3342.46
724.6	3260.54
724.787	3307.64
724.974	3344.5
725.161	3338.36
725.347	3272.82
725.534	3348.6
725.72	3334.26
725.907	3246.2
726.094	3223.67
726.28	3207.29
726.467	3164.28
726.653	3151.99
726.84	3260.54
727.027	3231.87
727.213	3311.74
727.4	3356.79
727.586	3180.67
727.773	3324.02
727.959	3145.85
728.145	3297.4
728.332	3188.86
728.518	3242.11
728.705	3414.13
728.891	3219.58
729.077	3207.29
729.264	3293.3
729.45	3287.16
729.636	3307.64
729.823	3084.41
730.009	3342.46
730.195	3231.87
730.382	3315.83
730.568	3186.81
730.754	3244.15
730.94	3145.85
731.126	3172.47
731.313	3268.73
731.499	3108.99
731.685	3072.12
731.871	3217.53
732.057	3180.67
732.243	3264.63
732.429	3264.63
732.615	3278.97
732.801	3223.67
732.987	3141.75
733.173	3145.85
733.359	3219.58
733.545	3104.89
733.731	3117.18
733.917	3072.12
734.103	3309.69
734.289	3111.04
734.475	3143.8
734.661	3188.86
734.847	3162.23
735.033	3106.94
735.219	3043.45
735.404	3076.22
735.59	3086.46
735.776	3027.07
735.962	3199.1
736.148	3106.94
736.333	3115.13
736.519	3096.7
736.705	2992.25
736.89	3016.83
737.076	3119.23
737.262	3055.74
737.447	2924.67
737.633	2955.39
737.819	3037.31
738.004	2875.52
738.19	3072.12
738.375	2986.11
738.561	3133.56
738.747	3035.26
738.932	2857.09
739.118	3041.4
739.303	2996.35
739.489	2809.98
739.674	2865.28
739.859	2992.25
740.045	2928.77
740.23	2896
740.416	2906.24
740.601	2883.71
740.786	3063.93
740.972	2840.7
741.157	2955.39
741.342	2826.37
741.528	2830.46
741.713	2863.23
741.898	2834.56
742.084	2766.98
742.269	2844.8
742.454	2812.03
742.639	2902.14
742.824	2666.63
743.01	2820.22
743.195	2764.93
743.38	2805.89
743.565	2795.65
743.75	2728.07
743.935	2611.33
744.12	2601.09
744.305	2619.52
744.49	2599.04
744.675	2502.79
744.86	2650.24
745.045	2625.67
745.23	2597
745.415	2588.8
745.6	2654.34
745.785	2451.59
745.97	2644.1
746.155	2586.76
746.34	2496.64
746.525	2474.12
746.71	2470.02
746.895	2457.73
747.079	2474.12
747.264	2361.48
747.449	2433.16
747.634	2332.81
747.819	2457.73
748.003	2330.76
748.188	2338.95
748.373	2367.62
748.557	2443.4
748.742	2320.52
748.927	2381.96
749.111	2359.43
749.296	2203.79
749.481	2328.71
749.665	2216.07
749.85	2162.83
750.034	2240.65
750.219	2138.25
750.404	2168.97
750.588	2134.15
750.773	2205.83
750.957	2066.57
751.141	2191.5
751.326	2093.19
751.51	2095.24
751.695	2033.8
751.879	2171.02
752.064	2078.86
752.248	2113.67
752.432	2003.08
752.617	2037.9
752.801	2011.28
752.985	2078.86
753.17	1900.69
753.354	1853.58
753.538	1986.7
753.722	1904.78
753.907	2023.56
754.091	1921.17
754.275	1976.46
754.459	1851.53
754.643	1736.85
754.828	1929.36
755.012	1876.11
755.196	1829.01
755.38	1798.29
755.564	1704.08
755.748	1730.7
755.932	1839.25
756.116	1773.71
756.3	1659.03
756.484	1720.46
756.668	1745.04
756.852	1530
757.036	1585.3
757.22	1626.26
757.404	1601.68
757.588	1652.88
757.772	1589.39
757.956	1681.55
758.14	1562.77
758.323	1527.96
758.507	1716.37
758.691	1581.2
758.875	1556.63
759.059	1632.4
759.242	1573.01
759.426	1611.92
759.61	1476.76
759.794	1511.57
759.977	1579.15
760.161	1595.54
760.345	1480.85
760.528	1437.84
760.712	1618.07
760.895	1505.43
761.079	1468.56
761.263	1390.74
761.446	1405.08
761.63	1474.71
761.813	1530
761.997	1394.84
762.18	1495.19
762.364	1329.3
762.547	1333.4
762.731	1423.51
762.914	1421.46
763.098	1384.6
763.281	1302.68
763.464	1407.13
763.648	1347.73
763.831	1415.32
764.015	1304.73
764.198	1368.21
764.381	1323.16
764.564	1427.6
764.748	1327.25
764.931	1333.4
765.114	1331.35
765.297	1380.5
765.481	1245.34
765.664	1255.58
765.847	1226.9
766.03	1286.3
766.213	1233.05
766.397	1306.77
766.58	1163.42
766.763	1247.38
766.946	1261.72
767.129	1235.1
767.312	1169.56
767.495	1192.09
767.678	1116.31
767.861	1187.99
768.044	1171.61
768.227	1233.05
768.41	1208.47
768.593	1202.33
768.776	1140.89
768.959	1165.46
769.142	1239.19
769.324	1069.21
769.507	1147.03
769.69	1220.76
769.873	1183.9
770.056	1153.18
770.239	1108.12
770.421	1079.45
770.604	1179.8
770.787	1126.55
770.97	1083.55
771.152	972.96
771.335	1095.83
771.518	1050.78
771.7	1075.35
771.883	1126.55
772.066	1097.88
772.248	1038.49
772.431	1114.27
772.613	962.72
772.796	1106.07
772.978	1087.64
773.161	1040.54
773.343	882.85
773.526	1054.87
773.708	997.53
773.891	997.53
774.073	970.91
774.256	977.05
774.438	987.29
774.621	946.33
774.803	942.24
774.985	862.37
775.168	872.61
775.35	888.99
775.532	942.24
775.715	1015.96
775.897	905.37
776.079	893.09
776.261	860.32
776.444	940.19
776.626	862.37
776.808	854.17
776.99	829.6
777.173	884.89
777.355	878.75
777.537	905.37
777.719	884.89
777.901	784.54
778.083	759.97
778.265	821.41
778.447	827.55
778.629	866.46
778.811	833.69
778.993	866.46
779.175	823.45
779.357	753.82
779.539	770.21
779.721	848.03
779.903	776.35
780.085	807.07
780.267	798.88
780.449	737.44
780.631	708.77
780.812	745.63
780.994	680.1
781.176	659.62
781.358	759.97
781.54	596.13
781.721	723.1
781.903	661.66
782.085	712.86
782.267	688.29
782.448	723.1
782.63	585.89
782.812	651.42
782.993	714.91
783.175	659.62
783.357	659.62
783.538	569.51
783.72	704.67
783.901	606.37
784.083	598.18
784.264	727.2
784.446	602.27
784.627	632.99
784.809	637.09
784.99	632.99
785.172	596.13
785.353	573.6
785.535	655.52
785.716	600.23
785.897	534.69
786.079	532.64
786.26	575.65
786.441	467.11
786.623	487.59
786.804	524.45
786.985	506.02
787.167	522.4
787.348	536.74
787.529	549.03
787.71	602.27
787.891	495.78
788.073	532.64
788.254	450.72
788.435	549.03
788.616	446.63
788.797	417.96
788.978	485.54
789.159	487.59
789.34	581.79
789.522	491.68
789.703	526.5
789.884	454.82
790.065	506.02
790.246	487.59
790.427	512.16
790.607	463.01
790.788	467.11
790.969	452.77
791.15	465.06
791.331	444.58
791.512	456.87
791.693	471.2
791.874	442.53
792.054	501.92
792.235	444.58
792.416	395.43
792.597	432.29
792.778	422.05
792.958	366.76
793.139	485.54
793.32	473.25
793.5	448.68
793.681	454.82
793.862	362.66
794.042	354.47
794.223	342.18
794.404	364.71
794.584	420
794.765	305.32
794.945	290.98
795.126	426.15
795.306	450.72
795.487	321.7
795.667	403.62
795.848	409.76
796.028	393.38
796.209	350.37
796.389	338.09
796.57	413.86
796.75	333.99
796.93	360.61
797.111	266.41
797.291	403.62
797.471	399.52
797.652	325.8
797.832	352.42
798.012	305.32
798.192	299.17
798.373	282.79
798.553	254.12
798.733	338.09
798.913	387.24
799.093	288.93
799.274	286.89
799.454	401.57
799.634	266.41
799.814	424.1
799.994	315.56
800.174	274.6
800.354	323.75
800.534	321.7
800.714	299.17
800.894	297.13
801.074	321.7
801.254	340.13
801.434	307.37
801.614	282.79
801.794	307.37
801.974	835.74
802.154	274.6
802.334	239.78
802.514	372.9
802.693	282.79
802.873	233.64
803.053	276.65
803.233	276.65
803.413	250.02
803.592	290.98
803.772	235.69
803.952	247.97
804.131	247.97
804.311	182.44
804.491	290.98
804.67	258.21
804.85	274.6
805.03	340.13
805.209	307.37
805.389	284.84
805.568	295.08
805.748	256.17
805.928	290.98
806.107	250.02
806.287	372.9
806.466	297.13
806.646	278.69
806.825	217.26
807.004	278.69
807.184	250.02
807.363	329.89
807.543	260.26
807.722	266.41
807.901	233.64
808.081	288.93
808.26	188.58
808.439	174.25
808.619	186.54
808.798	241.83
808.977	143.53
809.156	245.93
809.336	223.4
809.515	276.65
809.694	196.78
809.873	194.73
810.052	200.87
810.231	221.35
810.411	245.93
810.59	284.84
810.769	182.44
810.948	221.35
811.127	147.62
811.306	239.78
811.485	221.35
811.664	254.12
811.843	180.39
812.022	237.74
812.201	180.39
812.38	194.73
812.559	225.45
812.737	196.78
812.916	96.43
813.095	245.93
813.274	168.1
813.453	286.89
813.632	174.25
813.811	274.6
813.989	176.3
814.168	215.21
814.347	153.77
814.526	104.62
814.704	168.1
814.883	223.4
815.062	209.06
815.24	118.95
815.419	118.95
815.598	180.39
815.776	147.62
815.955	211.11
816.133	182.44
816.312	194.73
816.49	215.21
816.669	168.1
816.847	190.63
817.026	170.15
817.204	184.49
817.383	159.91
817.561	141.48
817.74	182.44
817.918	133.29
818.097	186.54
818.275	188.58
818.453	188.58
818.632	127.14
818.81	127.14
818.988	125.1
819.167	176.3
819.345	137.38
819.523	139.43
819.701	168.1
819.879	172.2
820.058	106.67
820.236	82.09
820.414	192.68
820.592	217.26
820.77	112.81
820.948	112.81
821.127	190.63
821.305	161.96
821.483	59.56
821.661	172.2
821.839	143.53
822.017	219.3
822.195	188.58
822.373	155.82
822.551	196.78
822.729	157.86
822.907	106.67
823.085	186.54
823.262	161.96
823.44	192.68
823.618	159.91
823.796	106.67
823.974	145.58
824.152	39.08
824.329	172.2
824.507	168.1
824.685	186.54
824.863	90.28
825.04	118.95
825.218	116.9
825.396	94.38
825.574	96.43
825.751	151.72
825.929	129.19
826.107	49.32
826.284	92.33
826.462	213.16
826.639	69.8
826.817	59.56
826.994	82.09
827.172	94.38
827.349	164.01
827.527	123.05
827.704	190.63
827.882	116.9
828.059	157.86
828.237	94.38
828.414	4.27
828.591	37.03
828.769	135.34
828.946	121
829.124	141.48
829.301	159.91
829.478	73.9
829.655	135.34
829.833	129.19
830.01	57.51
830.187	157.86
830.364	4.27
830.542	30.89
830.719	98.47
830.896	194.73
831.073	53.42
831.25	151.72
831.427	164.01
831.604	16.55
831.782	69.8
831.959	123.05
832.136	145.58
832.313	114.86
832.49	57.51
832.667	121
832.844	63.66
833.021	114.86
833.198	141.48
833.374	63.66
833.551	110.76
833.728	67.75
833.905	137.38
834.082	94.38
834.259	102.57
834.436	98.47
834.612	51.37
834.789	86.19
834.966	84.14
835.143	77.99
835.319	61.61
835.496	147.62
835.673	45.23
835.85	114.86
836.026	131.24
836.203	41.13
836.38	24.75
836.556	65.71
836.733	114.86
836.909	161.96
837.086	75.95
837.262	84.14
837.439	86.19
837.616	-18.26
837.792	161.96
837.968	69.8
838.145	30.89
838.321	55.47
838.498	82.09
838.674	61.61
838.851	37.03
839.027	37.03
839.203	88.23
839.38	106.67
839.556	82.09
839.732	86.19
839.909	51.37
840.085	45.23
840.261	24.75
840.437	141.48
840.614	98.47
840.79	211.11
840.966	92.33
841.142	59.56
841.318	20.65
841.494	102.57
841.671	73.9
841.847	84.14
842.023	26.79
842.199	104.62
842.375	80.04
842.551	28.84
842.727	61.61
842.903	57.51
843.079	69.8
843.255	55.47
843.431	100.52
843.607	0.17
843.783	65.71
843.959	-12.12
844.134	18.6
844.31	108.71
844.486	67.75
844.662	118.95
844.838	77.99
845.013	53.42
845.189	71.85
845.365	55.47
845.541	135.34
845.716	86.19
845.892	84.14
846.068	108.71
846.244	67.75
846.419	43.18
846.595	32.94
846.77	34.99
846.946	18.6
847.122	16.55
847.297	43.18
847.473	147.62
847.648	8.36
847.824	16.55
847.999	45.23
848.175	84.14
848.35	-77.65
848.526	73.9
848.701	92.33
848.876	-8.02
849.052	6.31
849.227	55.47
849.403	2.22
849.578	127.14
849.753	37.03
849.929	77.99
850.104	67.75
850.279	53.42
850.454	28.84
850.63	145.58
850.805	-20.31
850.98	86.19
851.155	69.8
851.33	61.61
851.505	-34.64
851.681	98.47
851.856	57.51
852.031	-8.02
852.206	-14.17
852.381	6.31
852.556	4.27
852.731	8.36
852.906	59.56
853.081	61.61
853.256	71.85
853.431	-42.84
853.606	28.84
853.781	47.27
853.956	-46.93
854.131	45.23
854.305	24.75
854.48	-10.07
854.655	18.6
854.83	4.27
855.005	43.18
855.18	51.37
855.354	51.37
855.529	-3.93
855.704	131.24
855.879	65.71
856.053	20.65
856.228	34.99
856.403	-10.07
856.577	20.65
856.752	20.65
856.926	4.27
857.101	-16.21
857.276	86.19
857.45	92.33
857.625	34.99
857.799	41.13
857.974	28.84
858.148	6.31
858.323	28.84
858.497	147.62
858.672	86.19
858.846	4.27
859.02	28.84
859.195	-16.21
859.369	53.42
859.543	0.17
859.718	-18.26
859.892	67.75
860.066	-5.97
860.241	-1.88
860.415	-5.97
860.589	20.65
860.763	20.65
860.938	37.03
861.112	-10.07
861.286	4.27
861.46	65.71
861.634	16.55
861.808	69.8
861.982	-16.21
862.157	-14.17
862.331	28.84
862.505	-16.21
862.679	-32.6
862.853	-51.03
863.027	-3.93
863.201	73.9
863.375	12.46
863.549	16.55
863.722	14.51
863.896	82.09
864.07	37.03
864.244	41.13
864.418	53.42
864.592	75.95
864.766	37.03
864.939	4.27
865.113	-3.93
865.287	-3.93
865.461	22.7
865.634	22.7
865.808	-32.6
865.982	8.36
866.156	-5.97
866.329	39.08
866.503	4.27
866.676	-5.97
866.85	-3.93
867.024	-3.93
867.197	37.03
867.371	10.41
867.544	84.14
867.718	112.81
867.891	28.84
868.065	39.08
868.238	28.84
868.412	77.99
868.585	8.36
868.759	65.71
868.932	-10.07
869.105	-16.21
869.279	-44.88
869.452	32.94
869.625	49.32
869.799	18.6
869.972	-14.17
870.145	20.65
870.319	39.08
870.492	41.13
870.665	20.65
870.838	45.23
871.011	-12.12
871.185	47.27
871.358	2.22
871.531	-12.12
871.704	-53.08
871.877	14.51
872.05	12.46
872.223	-14.17
872.396	26.79
872.569	41.13
872.742	-28.5
872.915	39.08
873.088	-12.12
873.261	-20.31
873.434	26.79
873.607	18.6
873.78	45.23
873.953	-61.27
874.126	-16.21
874.299	-12.12
874.471	30.89
874.644	34.99
874.817	-48.98
874.99	98.47
875.163	12.46
875.335	55.47
875.508	-61.27
875.681	82.09
875.853	10.41
876.026	-5.97
876.199	-1.88
876.371	34.99
876.544	-20.31
876.717	30.89
876.889	-20.31
877.062	55.47
877.234	8.36
877.407	-30.55
877.579	-28.5
877.752	-46.93
877.924	12.46
878.097	12.46
878.269	12.46
878.442	-38.74
878.614	43.18
878.786	8.36
878.959	-12.12
879.131	10.41
879.303	-12.12
879.476	30.89
879.648	51.37
879.82	26.79
879.993	-34.64
880.165	-32.6
880.337	53.42
880.509	-24.4
880.681	14.51
880.854	12.46
881.026	67.75
881.198	65.71
881.37	49.32
881.542	65.71
881.714	32.94
881.886	18.6
882.058	61.61
882.23	43.18
882.402	51.37
882.574	-44.88
882.746	-46.93
882.918	67.75
883.09	28.84
883.262	96.43
883.434	-8.02
883.606	-77.65
883.778	12.46
883.95	61.61
884.122	32.94
884.293	-8.02
884.465	-40.79
884.637	8.36
884.809	-16.21
884.98	-26.45
885.152	8.36
885.324	73.9
885.496	4.27
885.667	-30.55
885.839	14.51
886.011	12.46
886.182	4.27
886.354	67.75
886.525	24.75
886.697	-51.03
886.869	28.84
887.04	-1.88
887.212	-12.12
887.383	71.85
887.555	49.32
887.726	-20.31
887.897	88.23
888.069	-40.79
888.24	32.94
888.412	-18.26
888.583	12.46
888.754	18.6
888.926	-22.36
889.097	12.46
889.268	-14.17
889.44	37.03
889.611	-61.27
889.782	-46.93
889.953	-1.88
890.125	-61.27
890.296	-12.12
890.467	41.13
890.638	-5.97
890.809	24.75
890.98	-22.36
891.151	32.94
891.323	12.46
891.494	16.55
891.665	-12.12
891.836	-44.88
892.007	8.36
892.178	53.42
892.349	41.13
892.52	-42.84
892.691	-44.88
892.862	30.89
893.032	-61.27
893.203	-14.17
893.374	-38.74
893.545	32.94
893.716	-20.31
893.887	61.61
894.057	100.52
894.228	24.75
894.399	-36.69
894.57	-12.12
894.74	63.66
894.911	53.42
895.082	69.8
895.253	-69.46
895.423	20.65
895.594	45.23
895.764	-38.74
895.935	6.31
896.106	14.51
896.276	-65.36
896.447	-3.93
896.617	28.84
896.788	-44.88
896.958	-20.31
897.129	-46.93
897.299	16.55
897.47	71.85
897.64	6.31
897.81	22.7
897.981	8.36
898.151	-77.65
898.322	-10.07
898.492	67.75
898.662	-38.74
898.832	92.33
899.003	20.65
899.173	-77.65
899.343	2.22
899.513	-10.07
