Data from USB4F104151__86__10-24-22-022.txt Node

Date: Wed Mar 12 10:24:22 EDT 2025
User: louis
Spectrometer: USB4F10415
Trigger mode: 4
Integration Time (sec): 3.000000E-2
Scans to average: 1
Electric dark correction enabled: true
Nonlinearity correction enabled: false
Boxcar width: 0
XAxis mode: Wavelengths
Number of Pixels in Spectrum: 3648
>>>>>Begin Spectral Data<<<<<
178.204	-113.66
178.424	-113.66
178.644	-113.66
178.864	-185.34
179.084	-99.33
179.304	-9.22
179.524	13.31
179.744	9.22
179.964	21.5
180.184	-52.22
180.404	-17.41
180.624	-58.37
180.844	89.09
181.064	-29.7
181.283	11.26
181.503	9.22
181.723	13.31
181.943	5.12
182.163	56.32
182.383	-31.74
182.602	11.26
182.822	68.61
183.042	56.32
183.262	-3.07
183.482	-37.89
183.701	48.13
183.921	72.7
184.141	-41.98
184.361	9.22
184.58	23.55
184.8	-23.55
185.02	-25.6
185.239	66.56
185.459	5.12
185.679	3.07
185.898	-70.65
186.118	11.26
186.338	-5.12
186.557	80.89
186.777	-37.89
186.997	23.55
187.216	-9.22
187.436	66.56
187.655	58.37
187.875	23.55
188.095	-48.13
188.314	44.03
188.534	-1.02
188.753	17.41
188.973	70.65
189.192	68.61
189.412	93.18
189.631	-15.36
189.851	39.94
190.07	52.22
190.29	1.02
190.509	-23.55
190.729	-17.41
190.948	95.23
191.168	109.57
191.387	11.26
191.607	39.94
191.826	17.41
192.045	15.36
192.265	56.32
192.484	41.98
192.704	-25.6
192.923	-37.89
193.142	41.98
193.362	9.22
193.581	52.22
193.8	39.94
194.02	46.08
194.239	23.55
194.458	17.41
194.678	56.32
194.897	29.7
195.116	37.89
195.335	9.22
195.555	17.41
195.774	1.02
195.993	27.65
196.212	-5.12
196.432	11.26
196.651	37.89
196.87	7.17
197.089	80.89
197.308	25.6
197.528	31.74
197.747	-56.32
197.966	3.07
198.185	82.94
198.404	-13.31
198.623	-29.7
198.842	9.22
199.062	21.5
199.281	9.22
199.5	33.79
199.719	70.65
199.938	60.42
200.157	80.89
200.376	64.51
200.595	58.37
200.814	1.02
201.033	-37.89
201.252	66.56
201.471	27.65
201.69	35.84
201.909	3.07
202.128	-9.22
202.347	35.84
202.566	3.07
202.785	-35.84
203.004	-9.22
203.223	27.65
203.442	62.46
203.661	15.36
203.879	99.33
204.098	-5.12
204.317	68.61
204.536	87.04
204.755	146.43
204.974	17.41
205.193	35.84
205.411	56.32
205.63	48.13
205.849	72.7
206.068	15.36
206.287	46.08
206.505	76.8
206.724	66.56
206.943	76.8
207.162	58.37
207.381	-1.02
207.599	41.98
207.818	11.26
208.037	11.26
208.255	35.84
208.474	70.65
208.693	-5.12
208.911	15.36
209.13	37.89
209.349	37.89
209.567	25.6
209.786	-27.65
210.005	23.55
210.223	72.7
210.442	-15.36
210.661	58.37
210.879	3.07
211.098	52.22
211.316	33.79
211.535	31.74
211.753	5.12
211.972	35.84
212.191	56.32
212.409	37.89
212.628	-1.02
212.846	-29.7
213.065	27.65
213.283	44.03
213.502	60.42
213.72	19.46
213.938	93.18
214.157	27.65
214.375	66.56
214.594	15.36
214.812	31.74
215.031	27.65
215.249	27.65
215.467	11.26
215.686	-23.55
215.904	11.26
216.122	-11.26
216.341	33.79
216.559	54.27
216.778	1.02
216.996	11.26
217.214	-21.5
217.432	29.7
217.651	56.32
217.869	31.74
218.087	17.41
218.306	-15.36
218.524	56.32
218.742	66.56
218.96	-13.31
219.179	27.65
219.397	39.94
219.615	123.9
219.833	50.18
220.051	25.6
220.27	1.02
220.488	48.13
220.706	62.46
220.924	3.07
221.142	-11.26
221.36	44.03
221.578	-29.7
221.796	27.65
222.015	17.41
222.233	-48.13
222.451	-1.02
222.669	-21.5
222.887	46.08
223.105	50.18
223.323	35.84
223.541	-9.22
223.759	97.28
223.977	-33.79
224.195	41.98
224.413	58.37
224.631	19.46
224.849	15.36
225.067	-64.51
225.285	-52.22
225.503	44.03
225.721	-13.31
225.939	54.27
226.157	41.98
226.375	39.94
226.592	25.6
226.81	-13.31
227.028	72.7
227.246	60.42
227.464	-15.36
227.682	80.89
227.9	41.98
228.117	64.51
228.335	11.26
228.553	41.98
228.771	35.84
228.989	60.42
229.206	64.51
229.424	52.22
229.642	3.07
229.86	44.03
230.077	15.36
230.295	50.18
230.513	35.84
230.731	27.65
230.948	142.33
231.166	48.13
231.384	9.22
231.601	50.18
231.819	68.61
232.037	-21.5
232.254	17.41
232.472	44.03
232.689	-7.17
232.907	84.99
233.125	44.03
233.342	52.22
233.56	-64.51
233.777	31.74
233.995	82.94
234.213	89.09
234.43	31.74
234.648	-21.5
234.865	33.79
235.083	35.84
235.3	52.22
235.518	44.03
235.735	82.94
235.953	52.22
236.17	29.7
236.388	-11.26
236.605	99.33
236.822	138.24
237.04	41.98
237.257	-11.26
237.475	-29.7
237.692	95.23
237.909	-54.27
238.127	39.94
238.344	97.28
238.562	-7.17
238.779	15.36
238.996	23.55
239.214	-11.26
239.431	27.65
239.648	11.26
239.865	66.56
240.083	89.09
240.3	-7.17
240.517	31.74
240.735	5.12
240.952	66.56
241.169	78.85
241.386	46.08
241.603	17.41
241.821	68.61
242.038	29.7
242.255	15.36
242.472	-93.18
242.689	109.57
242.907	31.74
243.124	-9.22
243.341	60.42
243.558	-5.12
243.775	33.79
243.992	19.46
244.209	60.42
244.426	78.85
244.643	58.37
244.86	33.79
245.078	-5.12
245.295	76.8
245.512	-1.02
245.729	-3.07
245.946	27.65
246.163	-17.41
246.38	-54.27
246.597	-39.94
246.814	5.12
247.031	39.94
247.248	35.84
247.464	3.07
247.681	60.42
247.898	35.84
248.115	-11.26
248.332	7.17
248.549	-25.6
248.766	35.84
248.983	1.02
249.2	54.27
249.417	29.7
249.633	46.08
249.85	89.09
250.067	-15.36
250.284	33.79
250.501	1.02
250.717	19.46
250.934	-48.13
251.151	-21.5
251.368	15.36
251.585	84.99
251.801	66.56
252.018	5.12
252.235	-25.6
252.451	70.65
252.668	-31.74
252.885	72.7
253.102	19.46
253.318	5.12
253.535	76.8
253.752	9.22
253.968	-35.84
254.185	41.98
254.401	93.18
254.618	44.03
254.835	-21.5
255.051	33.79
255.268	27.65
255.484	15.36
255.701	3.07
255.917	74.75
256.134	13.31
256.351	50.18
256.567	-19.46
256.784	97.28
257	-52.22
257.217	21.5
257.433	19.46
257.65	31.74
257.866	52.22
258.082	-19.46
258.299	-23.55
258.515	-11.26
258.732	3.07
258.948	-37.89
259.165	62.46
259.381	-25.6
259.597	107.52
259.814	-5.12
260.03	60.42
260.246	17.41
260.463	44.03
260.679	25.6
260.895	25.6
261.112	72.7
261.328	-13.31
261.544	-35.84
261.761	87.04
261.977	25.6
262.193	-17.41
262.409	58.37
262.626	27.65
262.842	52.22
263.058	7.17
263.274	39.94
263.49	39.94
263.707	11.26
263.923	29.7
264.139	-7.17
264.355	37.89
264.571	56.32
264.787	48.13
265.004	60.42
265.22	-23.55
265.436	25.6
265.652	64.51
265.868	41.98
266.084	-5.12
266.3	27.65
266.516	44.03
266.732	84.99
266.948	23.55
267.164	72.7
267.38	21.5
267.596	48.13
267.812	109.57
268.028	60.42
268.244	35.84
268.46	-44.03
268.676	54.27
268.892	23.55
269.108	74.75
269.324	-15.36
269.54	87.04
269.756	35.84
269.972	-11.26
270.188	-5.12
270.403	-80.89
270.619	62.46
270.835	68.61
271.051	48.13
271.267	-25.6
271.483	17.41
271.698	-11.26
271.914	62.46
272.13	5.12
272.346	80.89
272.562	-27.65
272.777	50.18
272.993	7.17
273.209	58.37
273.425	109.57
273.64	31.74
273.856	27.65
274.072	-23.55
274.287	-1.02
274.503	142.33
274.719	70.65
274.934	-17.41
275.15	37.89
275.366	-1.02
275.581	-68.61
275.797	44.03
276.012	72.7
276.228	41.98
276.444	9.22
276.659	117.76
276.875	35.84
277.09	11.26
277.306	-15.36
277.521	99.33
277.737	-39.94
277.952	76.8
278.168	17.41
278.383	27.65
278.599	21.5
278.814	-37.89
279.03	72.7
279.245	48.13
279.461	-7.17
279.676	68.61
279.892	9.22
280.107	72.7
280.322	-15.36
280.538	70.65
280.753	35.84
280.969	-27.65
281.184	99.33
281.399	78.85
281.615	115.71
281.83	23.55
282.045	-13.31
282.26	9.22
282.476	-3.07
282.691	70.65
282.906	50.18
283.122	-39.94
283.337	-15.36
283.552	58.37
283.767	52.22
283.983	17.41
284.198	15.36
284.413	37.89
284.628	-1.02
284.843	11.26
285.058	5.12
285.274	58.37
285.489	-11.26
285.704	91.13
285.919	35.84
286.134	-46.08
286.349	-72.7
286.564	-56.32
286.779	48.13
286.995	91.13
287.21	1.02
287.425	31.74
287.64	19.46
287.855	15.36
288.07	-97.28
288.285	54.27
288.5	17.41
288.715	72.7
288.93	-33.79
289.145	25.6
289.36	123.9
289.575	-39.94
289.79	25.6
290.004	-21.5
290.219	25.6
290.434	11.26
290.649	48.13
290.864	50.18
291.079	76.8
291.294	52.22
291.509	68.61
291.724	13.31
291.938	15.36
292.153	76.8
292.368	19.46
292.583	-27.65
292.798	21.5
293.012	82.94
293.227	80.89
293.442	35.84
293.657	68.61
293.871	52.22
294.086	58.37
294.301	60.42
294.516	93.18
294.73	101.37
294.945	-31.74
295.16	72.7
295.374	119.81
295.589	-5.12
295.804	11.26
296.018	68.61
296.233	23.55
296.447	-1.02
296.662	-33.79
296.877	64.51
297.091	27.65
297.306	56.32
297.52	76.8
297.735	17.41
297.949	31.74
298.164	44.03
298.378	50.18
298.593	41.98
298.807	66.56
299.022	19.46
299.236	52.22
299.451	-7.17
299.665	44.03
299.88	121.85
300.094	50.18
300.309	44.03
300.523	25.6
300.737	23.55
300.952	64.51
301.166	52.22
301.381	35.84
301.595	-29.7
301.809	50.18
302.024	-44.03
302.238	1.02
302.452	-7.17
302.667	41.98
302.881	107.52
303.095	68.61
303.309	31.74
303.524	3.07
303.738	-41.98
303.952	-62.46
304.166	95.23
304.381	9.22
304.595	29.7
304.809	-29.7
305.023	1.02
305.237	48.13
305.452	-23.55
305.666	41.98
305.88	44.03
306.094	66.56
306.308	60.42
306.522	50.18
306.736	72.7
306.95	25.6
307.164	-37.89
307.379	-64.51
307.593	56.32
307.807	64.51
308.021	70.65
308.235	1.02
308.449	39.94
308.663	109.57
308.877	76.8
309.091	89.09
309.305	-33.79
309.519	-54.27
309.733	60.42
309.947	19.46
310.161	54.27
310.374	33.79
310.588	21.5
310.802	3.07
311.016	62.46
311.23	9.22
311.444	50.18
311.658	37.89
311.872	70.65
312.085	35.84
312.299	31.74
312.513	23.55
312.727	52.22
312.941	-29.7
313.154	68.61
313.368	-7.17
313.582	70.65
313.796	13.31
314.009	-9.22
314.223	142.33
314.437	95.23
314.651	-74.75
314.864	-25.6
315.078	-15.36
315.292	48.13
315.505	64.51
315.719	91.13
315.933	62.46
316.146	-15.36
316.36	82.94
316.573	41.98
316.787	64.51
317.001	56.32
317.214	-1.02
317.428	-27.65
317.641	-60.42
317.855	15.36
318.068	-3.07
318.282	58.37
318.495	60.42
318.709	23.55
318.922	68.61
319.136	68.61
319.349	39.94
319.563	68.61
319.776	31.74
319.99	23.55
320.203	48.13
320.417	99.33
320.63	84.99
320.843	58.37
321.057	44.03
321.27	27.65
321.483	7.17
321.697	56.32
321.91	54.27
322.124	52.22
322.337	52.22
322.55	11.26
322.763	66.56
322.977	44.03
323.19	39.94
323.403	50.18
323.617	54.27
323.83	130.05
324.043	27.65
324.256	7.17
324.469	-37.89
324.683	44.03
324.896	52.22
325.109	105.47
325.322	1.02
325.535	121.85
325.748	-29.7
325.962	23.55
326.175	39.94
326.388	64.51
326.601	23.55
326.814	3.07
327.027	1.02
327.24	50.18
327.453	-13.31
327.666	21.5
327.879	35.84
328.092	56.32
328.305	101.37
328.518	1.02
328.731	-5.12
328.944	99.33
329.157	44.03
329.37	17.41
329.583	46.08
329.796	50.18
330.009	13.31
330.222	56.32
330.435	35.84
330.648	80.89
330.861	-7.17
331.073	52.22
331.286	70.65
331.499	82.94
331.712	27.65
331.925	64.51
332.138	33.79
332.35	39.94
332.563	60.42
332.776	46.08
332.989	19.46
333.202	33.79
333.414	84.99
333.627	125.95
333.84	80.89
334.053	99.33
334.265	54.27
334.478	9.22
334.691	119.81
334.903	44.03
335.116	52.22
335.329	50.18
335.541	-5.12
335.754	187.39
335.966	-9.22
336.179	70.65
336.392	-21.5
336.604	-15.36
336.817	-11.26
337.029	48.13
337.242	-23.55
337.454	-1.02
337.667	25.6
337.88	138.24
338.092	64.51
338.305	48.13
338.517	19.46
338.729	52.22
338.942	103.42
339.154	13.31
339.367	9.22
339.579	13.31
339.792	-37.89
340.004	58.37
340.217	44.03
340.429	56.32
340.641	50.18
340.854	13.31
341.066	-5.12
341.278	23.55
341.491	64.51
341.703	109.57
341.915	56.32
342.128	9.22
342.34	-23.55
342.552	62.46
342.764	101.37
342.977	46.08
343.189	93.18
343.401	121.85
343.613	15.36
343.826	31.74
344.038	1.02
344.25	35.84
344.462	-41.98
344.674	87.04
344.886	105.47
345.099	58.37
345.311	62.46
345.523	-5.12
345.735	17.41
345.947	111.61
346.159	3.07
346.371	66.56
346.583	41.98
346.795	50.18
347.007	35.84
347.219	50.18
347.431	-46.08
347.643	68.61
347.855	117.76
348.067	46.08
348.279	54.27
348.491	52.22
348.703	35.84
348.915	-37.89
349.127	41.98
349.339	54.27
349.551	68.61
349.763	150.53
349.975	72.7
350.187	107.52
350.399	44.03
350.61	101.37
350.822	17.41
351.034	68.61
351.246	9.22
351.458	56.32
351.669	50.18
351.881	64.51
352.093	70.65
352.305	48.13
352.517	62.46
352.728	25.6
352.94	58.37
353.152	64.51
353.363	9.22
353.575	113.66
353.787	23.55
353.999	11.26
354.21	117.76
354.422	13.31
354.633	56.32
354.845	52.22
355.057	52.22
355.268	68.61
355.48	173.05
355.692	-27.65
355.903	33.79
356.115	74.75
356.326	-5.12
356.538	41.98
356.749	89.09
356.961	117.76
357.172	37.89
357.384	99.33
357.595	125.95
357.807	9.22
358.018	58.37
358.23	117.76
358.441	80.89
358.653	33.79
358.864	7.17
359.075	35.84
359.287	58.37
359.498	44.03
359.709	91.13
359.921	117.76
360.132	46.08
360.344	-13.31
360.555	58.37
360.766	52.22
360.977	5.12
361.189	44.03
361.4	44.03
361.611	17.41
361.823	158.72
362.034	80.89
362.245	-1.02
362.456	76.8
362.667	37.89
362.879	93.18
363.09	23.55
363.301	91.13
363.512	48.13
363.723	15.36
363.935	84.99
364.146	93.18
364.357	125.95
364.568	91.13
364.779	60.42
364.99	82.94
365.201	33.79
365.412	62.46
365.623	33.79
365.834	27.65
366.045	76.8
366.256	-1.02
366.467	87.04
366.678	72.7
366.889	31.74
367.1	-35.84
367.311	7.17
367.522	9.22
367.733	-39.94
367.944	41.98
368.155	107.52
368.366	130.05
368.577	7.17
368.788	66.56
368.999	-11.26
369.209	27.65
369.42	87.04
369.631	119.81
369.842	37.89
370.053	44.03
370.264	11.26
370.474	19.46
370.685	82.94
370.896	-41.98
371.107	89.09
371.317	31.74
371.528	60.42
371.739	80.89
371.95	48.13
372.16	29.7
372.371	33.79
372.582	62.46
372.792	25.6
373.003	13.31
373.214	-48.13
373.424	84.99
373.635	23.55
373.846	142.33
374.056	7.17
374.267	56.32
374.477	-3.07
374.688	109.57
374.898	140.29
375.109	82.94
375.319	-19.46
375.53	95.23
375.74	44.03
375.951	23.55
376.161	115.71
376.372	27.65
376.582	117.76
376.793	19.46
377.003	23.55
377.214	46.08
377.424	72.7
377.635	-7.17
377.845	11.26
378.055	78.85
378.266	80.89
378.476	76.8
378.686	123.9
378.897	70.65
379.107	130.05
379.317	54.27
379.528	35.84
379.738	76.8
379.948	56.32
380.158	54.27
380.369	44.03
380.579	31.74
380.789	82.94
380.999	115.71
381.21	-11.26
381.42	52.22
381.63	89.09
381.84	113.66
382.05	105.47
382.261	136.19
382.471	33.79
382.681	80.89
382.891	48.13
383.101	27.65
383.311	-11.26
383.521	84.99
383.731	-7.17
383.941	35.84
384.151	56.32
384.361	64.51
384.571	54.27
384.781	66.56
384.991	70.65
385.201	128
385.411	70.65
385.621	107.52
385.831	19.46
386.041	64.51
386.251	68.61
386.461	66.56
386.671	41.98
386.881	60.42
387.091	44.03
387.301	125.95
387.511	105.47
387.72	111.61
387.93	33.79
388.14	1.02
388.35	117.76
388.56	103.42
388.769	78.85
388.979	64.51
389.189	-1.02
389.399	19.46
389.609	64.51
389.818	52.22
390.028	39.94
390.238	105.47
390.447	17.41
390.657	109.57
390.867	46.08
391.076	41.98
391.286	95.23
391.496	-21.5
391.705	27.65
391.915	111.61
392.125	123.9
392.334	-17.41
392.544	64.51
392.753	74.75
392.963	87.04
393.172	25.6
393.382	84.99
393.591	117.76
393.801	68.61
394.01	107.52
394.22	68.61
394.429	87.04
394.639	103.42
394.848	76.8
395.058	125.95
395.267	91.13
395.477	48.13
395.686	175.1
395.895	134.14
396.105	177.15
396.314	125.95
396.524	35.84
396.733	66.56
396.942	134.14
397.152	121.85
397.361	23.55
397.57	113.66
397.78	93.18
397.989	220.16
398.198	199.68
398.407	134.14
398.617	82.94
398.826	64.51
399.035	89.09
399.244	58.37
399.453	70.65
399.663	89.09
399.872	115.71
400.081	52.22
400.29	154.62
400.499	93.18
400.708	199.68
400.917	132.09
401.127	31.74
401.336	82.94
401.545	183.29
401.754	35.84
401.963	130.05
402.172	162.81
402.381	123.9
402.59	109.57
402.799	197.63
403.008	171.01
403.217	177.15
403.426	117.76
403.635	93.18
403.844	146.43
404.053	189.44
404.262	154.62
404.471	205.82
404.68	156.67
404.888	152.57
405.097	181.25
405.306	185.34
405.515	166.91
405.724	214.01
405.933	244.73
406.142	181.25
406.35	297.98
406.559	144.38
406.768	244.73
406.977	205.82
407.185	269.31
407.394	224.25
407.603	205.82
407.812	166.91
408.02	392.19
408.229	277.5
408.438	332.79
408.646	246.78
408.855	281.6
409.064	289.79
409.272	238.59
409.481	353.27
409.69	353.27
409.898	271.36
410.107	328.7
410.315	398.33
410.524	420.86
410.733	394.23
410.941	394.23
411.15	453.63
411.358	404.47
411.567	517.11
411.775	465.91
411.984	513.02
412.192	461.82
412.401	531.45
412.609	535.54
412.818	562.17
413.026	629.75
413.234	527.35
413.443	670.71
413.651	576.5
413.86	625.65
414.068	744.44
414.276	691.19
414.485	799.73
414.693	783.35
414.901	855.03
415.11	812.02
415.318	756.72
415.526	818.16
415.734	830.45
415.943	926.71
416.151	867.31
416.359	1022.96
416.567	1063.92
416.776	1096.69
416.984	1047.54
417.192	1223.66
417.4	1068.02
417.608	1084.4
417.817	1065.97
418.025	1291.24
418.233	1346.54
418.441	1330.16
418.649	1297.39
418.857	1563.62
419.065	1543.14
419.273	1489.9
419.481	1629.16
419.689	1690.6
419.897	1721.32
420.105	1817.57
420.313	1825.76
420.521	1876.96
420.729	1928.16
420.937	1989.6
421.145	2139.1
421.353	2124.77
421.561	2247.65
421.769	2296.8
421.977	2487.26
422.185	2393.05
422.393	2501.59
422.601	2778.07
422.809	2622.42
423.017	2683.86
423.224	2876.37
423.432	2894.8
423.64	2888.66
423.848	3183.57
424.056	3066.83
424.263	3316.69
424.471	3388.36
424.679	3320.78
424.887	3480.52
425.094	3593.16
425.302	3787.72
425.51	3847.11
425.718	4008.9
425.925	3953.6
426.133	3986.37
426.341	4350.91
426.548	4639.67
426.756	4553.66
426.964	4615.1
427.171	4867
427.379	4934.58
427.586	5176.24
427.794	5307.31
428.001	5442.48
428.209	5725.1
428.417	5610.41
428.624	6253.47
428.832	6040.48
429.039	6134.69
429.247	6081.44
429.454	6656.92
429.662	7070.61
429.869	6548.38
430.076	7111.57
430.284	6892.44
430.491	7193.49
430.699	7527.31
430.906	7687.05
431.114	7746.44
431.321	8092.55
431.528	8123.27
431.736	8725.37
431.943	8876.92
432.15	8635.26
432.358	8954.74
432.565	9319.28
432.772	9173.88
432.979	9790.31
433.187	10152.81
433.394	10003.3
433.601	10750.81
433.808	10765.15
434.016	10589.02
434.223	11060.06
434.43	11606.86
434.637	11502.42
434.844	12155.72
435.052	12417.86
435.259	12581.7
435.466	12448.58
435.673	12256.07
435.88	13339.44
436.087	13959.98
436.294	13847.34
436.501	13523.76
436.708	13726.51
436.915	14291.75
437.122	15072.03
437.329	15031.07
437.537	15123.23
437.743	15731.47
437.95	15571.73
438.157	16470.79
438.364	16646.91
438.571	16655.11
438.778	16786.18
438.985	18580.2
439.192	17781.49
439.399	18301.67
439.606	17947.37
439.813	19069.66
440.02	19870.42
440.227	19569.37
440.433	19405.53
440.64	20034.25
440.847	19817.17
441.054	20619.97
441.261	21805.75
441.467	21342.91
441.674	21947.06
441.881	22600.36
442.088	22633.13
442.294	22444.71
442.501	22858.4
442.708	23499.42
442.914	24439.44
443.121	25188.99
443.328	24312.46
443.534	26393.2
443.741	25741.94
443.948	25404.03
444.154	27460.19
444.361	26616.43
444.568	27130.47
444.774	27173.47
444.981	27662.94
445.187	28619.34
445.394	29696.57
445.6	29063.75
445.807	31918.62
446.013	30566.96
446.22	31050.28
446.426	32180.76
446.633	32467.47
446.839	33477.12
447.046	32033.3
447.252	33964.54
447.459	33796.6
447.665	33403.39
447.871	35123.69
448.078	36665.81
448.284	34570.74
448.491	35949.02
448.697	37224.9
448.903	38023.61
449.11	38074.81
449.316	37159.37
449.522	37683.65
449.728	38656.43
449.935	39246.25
450.141	38855.09
450.347	39694.75
450.553	38592.95
450.76	39029.16
450.966	40057.24
451.172	39739.81
451.378	40475.03
451.584	39913.89
451.791	40911.25
451.997	40595.86
452.203	41439.62
452.409	41347.47
452.615	41005.45
452.821	38945.2
453.027	39238.06
453.233	41232.78
453.44	39317.93
453.646	39999.9
453.852	39877.02
454.058	40554.9
454.264	39137.71
454.47	39838.11
454.676	39143.85
454.882	40577.43
455.088	37372.36
455.294	37308.87
455.5	37773.76
455.705	38226.36
455.911	36655.57
456.117	36047.32
456.323	35592.67
456.529	33409.54
456.735	34789.87
456.941	33974.78
457.147	33796.6
457.352	32502.29
457.558	32240.15
457.764	31965.72
457.97	31388.19
458.176	31105.57
458.381	30794.28
458.587	29442.62
458.793	29475.39
458.999	27839.06
459.204	29776.44
459.41	28861
459.616	27388.51
459.821	26935.91
460.027	26980.96
460.233	26364.53
460.438	25105.02
460.644	25305.73
460.85	24124.05
461.055	23771.8
461.261	23636.63
461.466	22117.04
461.672	21402.3
461.878	23083.68
462.083	21504.7
462.289	21207.74
462.494	20605.64
462.7	19954.38
462.905	19352.28
463.111	20138.7
463.316	20116.17
463.522	19700.44
463.727	19876.56
463.932	19507.93
464.138	19739.35
464.343	19497.69
464.549	18979.55
464.754	19702.48
464.959	19305.18
465.165	19204.83
465.37	18457.32
465.575	18162.41
465.781	18893.54
465.986	19100.38
466.191	18109.16
466.397	17709.81
466.602	16980.73
466.807	17885.94
467.012	17713.91
467.218	17642.23
467.423	17445.62
467.628	17322.74
467.833	18281.19
468.038	17636.08
468.244	16864
468.449	17398.52
468.654	17089.28
468.859	16861.95
469.064	17015.55
469.269	16024.33
469.474	16478.98
469.679	16702.21
469.885	16093.96
470.09	16780.03
470.295	16182.03
470.5	15817.49
470.705	16024.33
470.91	15717.14
471.115	15457.04
471.32	15538.96
471.525	15680.27
471.73	15106.84
471.935	15211.29
472.139	14818.08
472.344	14932.76
472.549	14676.77
472.754	14682.91
472.959	14359.33
473.164	13953.84
473.369	13671.22
473.574	14388
473.778	14199.59
473.983	13693.74
474.188	13945.64
474.393	13390.64
474.598	13208.37
474.802	13321.01
475.007	13267.77
475.212	13191.99
475.417	12729.15
475.621	12972.86
475.826	12636.99
476.031	12497.73
476.235	12100.42
476.44	12442.43
476.645	12088.14
476.849	12268.36
477.054	11850.57
477.259	11991.88
477.463	11871.05
477.668	11596.62
477.872	11653.97
478.077	11514.7
478.282	11338.58
478.486	11328.34
478.691	11209.56
478.895	10904.41
479.1	11035.48
479.304	10971.99
479.509	10627.93
479.713	10883.93
479.918	10595.17
480.122	10539.87
480.326	10816.35
480.531	10646.37
480.735	10447.71
480.94	10396.51
481.144	10734.43
481.348	10294.11
481.553	10513.25
481.757	10036.07
481.961	10460
482.166	10636.13
482.37	10367.84
482.574	10259.3
482.778	10290.02
482.983	10552.16
483.187	10171.24
483.391	10349.41
483.595	10234.72
483.8	10232.68
484.004	10314.59
484.208	10236.77
484.412	10140.52
484.616	10115.94
484.821	10249.06
485.025	10117.99
485.229	10355.55
485.433	9997.16
485.637	9909.1
485.841	10236.77
486.045	10181.48
486.249	10109.8
486.453	10083.17
486.657	10220.39
486.861	10290.02
487.065	10038.12
487.269	10290.02
487.473	10031.97
487.677	10175.33
487.881	10265.44
488.085	10175.33
488.289	10357.6
488.493	10173.28
488.697	10060.65
488.901	10234.72
489.105	10165.09
489.309	10247.01
489.512	10353.51
489.716	10464.1
489.92	10165.09
490.124	10503.01
490.328	10349.41
490.531	10517.34
490.735	10636.13
490.939	10449.76
491.143	10593.12
491.346	10603.36
491.55	10672.99
491.754	10505.06
491.958	10885.98
492.161	10705.76
492.365	10570.59
492.569	10763.1
492.772	10879.83
492.976	10941.27
493.18	10971.99
493.383	11252.56
493.587	11244.37
493.79	11193.17
493.994	11135.83
494.197	11385.68
494.401	11344.72
494.605	11445.07
494.808	11402.07
495.012	11522.9
495.215	11748.17
495.419	11787.08
495.622	11664.21
495.825	11973.45
496.029	11922.25
496.232	12282.69
496.436	12092.23
496.639	12649.28
496.843	12340.04
497.046	12665.66
497.249	12792.64
497.453	12659.52
497.656	13273.91
497.859	12917.56
498.063	13038.39
498.266	13435.7
498.469	13386.55
498.673	13484.85
498.876	13708.08
499.079	13787.95
499.282	13763.37
499.485	14226.21
499.689	14187.3
499.892	14525.22
500.095	14529.31
500.298	14689.06
500.501	14781.21
500.705	15088.41
500.908	14983.96
501.111	15323.93
501.314	15665.94
501.517	15749.9
501.72	16044.81
501.923	15950.6
502.126	16151.31
502.329	16562.95
502.532	16456.45
502.735	16782.08
502.938	16849.66
503.141	16913.15
503.344	17449.72
503.547	17347.32
503.75	17638.13
503.953	17648.37
504.156	18137.84
504.359	17980.14
504.562	18299.62
504.765	18735.84
504.968	18957.02
505.17	19147.48
505.373	18975.45
505.576	19557.08
505.779	19639
505.982	19938
506.185	20335.31
506.387	20155.08
506.59	20406.98
506.793	20734.66
506.996	20871.87
507.198	21306.04
507.401	21355.19
507.604	21492.41
507.807	21881.52
508.009	22010.54
508.212	22129.33
508.415	22463.15
508.617	22930.08
508.82	23069.34
509.022	22796.96
509.225	23587.48
509.428	23624.34
509.63	23616.15
509.833	23786.13
510.035	24642.18
510.238	24593.03
510.44	24687.24
510.643	25072.26
510.845	25397.88
511.048	25188.99
511.25	25819.77
511.453	25858.68
511.655	26720.87
511.858	26438.25
512.06	26520.17
512.262	26993.25
512.465	27089.51
512.667	27339.36
512.87	27939.41
513.072	27779.67
513.274	28510.8
513.477	28322.38
513.679	28799.56
513.881	29219.39
514.084	29418.05
514.286	29497.92
514.488	29712.95
514.69	30351.92
514.893	30569.01
515.095	30585.39
515.297	31121.96
515.499	31093.29
515.701	31386.15
515.904	31906.33
516.106	31969.82
516.308	32064.02
516.51	32678.41
516.712	32686.61
516.914	33108.49
517.116	33569.28
517.318	33616.38
517.52	33913.34
517.722	33911.29
517.925	34775.53
518.127	35056.11
518.329	35189.22
518.531	35181.03
518.733	35979.74
518.935	36282.84
519.136	36239.83
519.338	36518.35
519.54	36749.78
519.742	37743.04
519.944	37460.42
520.146	37644.74
520.348	38107.58
520.55	38140.35
520.752	38322.62
520.954	38908.33
521.155	38326.71
521.357	39418.28
521.559	39449
521.761	40419.74
521.963	40362.39
522.164	40386.97
522.366	40442.26
522.568	41130.38
522.77	41189.77
522.971	41757.06
523.173	41826.69
523.375	42619.25
523.576	41951.62
523.778	42516.86
523.98	42260.86
524.181	42817.91
524.383	43065.71
524.584	43700.58
524.786	43512.17
524.988	43325.8
525.189	44009.82
525.391	44407.13
525.592	45027.66
525.794	44388.7
525.995	44802.39
526.197	44622.17
526.398	45285.71
526.6	45289.8
526.801	45605.19
527.003	45906.24
527.204	45648.2
527.406	45908.29
527.607	46203.2
527.808	46358.84
528.01	45973.83
528.211	46219.58
528.412	47059.25
528.614	47063.35
528.815	47001.91
529.016	47624.49
529.218	47089.97
529.419	47280.43
529.62	47425.84
529.822	47460.65
530.023	47235.38
530.224	47528.23
530.425	47573.29
530.626	47749.42
530.828	47468.84
531.029	48750.87
531.23	48408.86
531.431	48191.78
531.632	48382.24
531.833	48529.69
532.035	48398.62
532.236	48462.11
532.437	48992.53
532.638	48636.19
532.839	48924.95
533.04	48922.9
533.241	48380.19
533.442	49072.4
533.643	48787.74
533.844	49213.71
534.045	48763.16
534.246	48574.75
534.447	49393.93
534.648	48711.96
534.849	49389.84
535.05	48996.63
535.251	49262.86
535.451	49170.71
535.652	48920.85
535.853	49295.63
536.054	49217.81
536.255	49207.57
536.456	48992.53
536.657	49475.85
536.857	49002.77
537.058	48871.7
537.259	49271.06
537.46	48922.9
537.66	49053.97
537.861	48902.42
538.062	48927
538.263	49385.74
538.463	49139.99
538.664	49078.55
538.865	49393.93
539.065	49443.09
539.266	48937.24
539.466	49563.92
539.667	48513.31
539.868	49680.65
540.068	49160.47
540.269	49074.45
540.469	49561.87
540.67	48943.38
540.87	49565.96
541.071	48861.46
541.271	48976.15
541.472	48990.48
541.672	49103.12
541.873	48879.89
542.073	48656.67
542.274	49393.93
542.474	48847.13
542.675	48791.83
542.875	49461.52
543.075	49201.43
543.276	48462.11
543.476	49109.27
543.676	48873.75
543.877	48967.96
544.077	49213.71
544.277	48705.82
544.478	48941.33
544.678	49107.22
544.878	49213.71
545.078	48789.78
545.279	48496.92
545.479	48451.87
545.679	49121.55
545.879	48845.08
546.079	49062.16
546.28	48904.47
546.48	48111.91
546.68	48877.85
546.88	49230.1
547.08	48738.58
547.28	49037.59
547.48	48548.12
547.68	48963.86
547.88	48361.76
548.081	48849.17
548.281	48890.13
548.481	48691.48
548.681	48941.33
548.881	49148.18
549.081	48619.8
549.28	48189.73
549.48	48677.15
549.68	48912.66
549.88	49066.26
550.08	48607.51
550.28	48415.01
550.48	48546.08
550.68	48748.82
550.88	47982.88
551.08	48214.3
551.279	49013.01
551.479	48099.62
551.679	48533.79
551.879	48288.03
552.079	48619.8
552.278	48640.28
552.478	48531.74
552.678	48427.29
552.878	48550.17
553.077	48029.99
553.277	47960.36
553.477	48666.91
553.676	48079.14
553.876	48445.72
554.076	48079.14
554.275	48263.46
554.475	47794.47
554.674	47536.43
554.874	48202.02
555.074	47444.27
555.273	48025.89
555.473	47976.74
555.672	47884.58
555.872	47878.44
556.071	47958.31
556.271	47968.55
556.47	47300.91
556.67	47632.68
556.869	47307.05
557.068	47583.53
557.268	47442.22
557.467	46948.66
557.667	47053.11
557.866	47599.91
558.065	47141.17
558.265	46895.41
558.464	46991.67
558.663	47683.88
558.863	46856.5
559.062	47223.09
559.261	46244.16
559.461	47247.66
559.66	46027.07
559.859	46666.04
560.058	46356.8
560.258	47026.48
560.457	46152
560.656	46707
560.855	46127.42
561.054	46479.67
561.253	46063.94
561.453	46248.25
561.652	46403.9
561.851	46035.27
562.05	45683.01
562.249	45631.82
562.448	46027.07
562.647	45975.87
562.846	45945.15
563.045	45455.69
563.244	45371.72
563.443	45947.2
563.642	44970.32
563.841	45314.38
564.04	45054.29
564.239	45404.49
564.438	44595.54
564.637	45220.17
564.836	44808.53
565.035	44736.85
565.234	44863.83
565.432	44624.22
565.631	44310.88
565.83	44523.86
566.029	44130.65
566.228	43811.17
566.427	43905.38
566.625	44134.75
566.824	43274.6
567.023	43983.2
567.222	43080.05
567.42	44007.78
567.619	43346.28
567.818	43268.46
568.016	43397.48
568.215	43839.84
568.414	43211.12
568.612	43546.98
568.811	42948.98
569.01	42758.52
569.208	42178.94
569.407	42977.65
569.605	42326.39
569.804	43080.05
570.002	42420.6
570.201	42314.11
570.4	42226.04
570.598	42162.56
570.797	41920.9
570.995	41871.75
571.193	41578.89
571.392	42123.65
571.59	41720.2
571.789	41396.62
571.987	40976.78
572.186	41302.41
572.384	40984.97
572.582	40987.02
572.781	41140.62
572.979	40677.78
573.177	41044.37
573.376	41128.33
573.574	40352.15
573.772	40685.97
573.971	40515.99
574.169	40208.79
574.367	40016.29
574.565	40378.78
574.763	39848.35
574.962	39899.55
575.16	39061.93
575.358	39874.98
575.556	39055.79
575.754	39829.92
575.952	39260.58
576.151	39645.6
576.349	38799.79
576.547	39301.54
576.745	39111.08
576.943	39371.18
577.141	38857.14
577.339	39020.97
577.537	38517.17
577.735	38570.42
577.933	38173.11
578.131	38343.09
578.329	38154.68
578.527	38054.33
578.725	37730.75
578.923	37935.55
579.121	38042.04
579.319	37663.17
579.516	38302.14
579.714	37409.22
579.912	37376.45
580.11	37499.33
580.308	37454.28
580.506	36983.24
580.704	36577.75
580.901	36954.57
581.099	37147.08
581.297	36862.41
581.495	36774.35
581.692	36893.13
581.89	36266.45
582.088	37077.45
582.285	36362.71
582.483	36577.75
582.681	35987.93
582.878	36239.83
583.076	36114.9
583.274	36100.57
583.471	35557.86
583.669	36137.43
583.866	35396.07
584.064	35596.77
584.262	34499.06
584.459	35316.2
584.657	35285.48
584.854	35498.47
585.052	34568.69
585.249	34980.33
585.447	35209.7
585.644	34519.54
585.841	34812.4
586.039	35113.45
586.236	34476.53
586.434	34427.38
586.631	34361.84
586.828	34361.84
587.026	34148.85
587.223	34263.54
587.42	33812.99
587.618	33739.26
587.815	33978.87
588.012	33307.14
588.21	33593.86
588.407	33714.69
588.604	33135.11
588.801	33018.38
588.999	33239.56
589.196	33186.31
589.393	33243.65
589.59	32801.29
589.787	32739.85
589.984	32633.36
590.182	32543.25
590.379	32563.73
590.576	32641.55
590.773	32512.53
590.97	32258.58
591.167	32391.7
591.364	31820.31
591.561	32373.27
591.758	31730.2
591.955	32317.97
592.152	32131.61
592.349	31726.11
592.546	31646.24
592.743	31715.87
592.94	31224.36
593.137	31406.62
593.334	31363.62
593.531	31003.17
593.727	31199.78
593.924	31197.73
594.121	30626.35
594.318	30915.11
594.515	30759.47
594.712	30763.56
594.908	30345.78
595.105	30603.82
595.302	30360.11
595.499	30638.64
595.696	30179.89
595.892	29925.94
596.089	30192.18
596.286	30114.36
596.482	29870.65
596.679	29846.07
596.876	29569.6
597.072	29667.9
597.269	29594.17
597.466	29784.63
597.662	29422.14
597.859	29272.64
598.055	29303.36
598.252	29342.27
598.448	28985.93
598.645	28994.12
598.841	28691.02
599.038	28953.16
599.234	29102.66
599.431	28746.31
599.627	28533.32
599.824	28705.35
600.02	28285.52
600.217	28537.42
600.413	28017.24
600.609	27937.37
600.806	28127.83
601.002	28086.87
601.198	28093.01
601.395	27826.78
601.591	27945.56
601.787	27738.71
601.984	27222.62
602.18	27646.55
602.376	27472.48
602.572	27208.29
602.769	27183.71
602.965	26942.05
603.161	27146.85
603.357	26995.3
603.553	26806.89
603.75	27310.69
603.946	26706.54
604.142	26786.41
604.338	26366.57
604.534	26706.54
604.73	26870.37
604.926	26190.45
605.122	26700.39
605.318	26270.32
605.514	26241.65
605.71	26305.13
605.906	26057.33
606.102	26255.98
606.298	26040.95
606.494	26045.04
606.69	26012.28
606.886	26049.14
607.082	25528.95
607.278	25723.51
607.474	25328.25
607.67	25551.48
607.866	25471.61
608.062	25565.82
608.257	24976
608.453	25301.63
608.649	25387.64
608.845	24978.05
609.041	24808.07
609.236	25062.02
609.432	24986.24
609.628	25062.02
609.824	24947.33
610.019	24748.68
610.215	24683.14
610.411	24994.43
610.606	24447.63
610.802	24564.36
610.998	24367.76
611.193	24789.64
611.389	24461.96
611.584	24380.04
611.78	24402.57
611.976	24142.48
612.171	24410.76
612.367	24091.28
612.562	24074.9
612.758	23902.87
612.953	23683.73
613.149	24226.45
613.344	23878.29
613.539	24316.56
613.735	24044.18
613.93	24023.7
614.126	23906.96
614.321	23995.03
614.517	23868.05
614.712	23730.84
614.907	23726.74
615.103	23607.96
615.298	23243.42
615.493	23677.59
615.688	23261.85
615.884	23784.09
616.079	22940.32
616.274	23124.64
616.47	23163.55
616.665	23337.63
616.86	22989.47
617.055	23061.15
617.25	23173.79
617.445	23181.98
617.641	22495.91
617.836	23040.67
618.031	22975.14
618.226	22874.79
618.421	22651.56
618.616	23042.72
618.811	22448.81
619.006	22817.44
619.201	22272.68
619.396	22518.44
619.591	22188.72
619.786	22543.02
619.981	21955.25
620.176	22469.29
620.371	21910.19
620.566	21844.66
620.761	21752.5
620.956	21830.32
621.151	21330.62
621.346	21574.33
621.541	21000.9
621.735	21527.22
621.93	21074.62
622.125	21091.01
622.32	20746.95
622.515	20998.85
622.709	20777.67
622.904	20757.19
623.099	20656.84
623.294	20609.73
623.488	20337.35
623.683	20443.85
623.878	20114.13
624.072	20134.6
624.267	20017.87
624.462	19821.27
624.656	19653.33
624.851	19716.82
625.046	19780.31
625.24	19540.69
625.435	19327.71
625.629	19407.58
625.824	19092.19
626.018	19024.61
626.213	18557.67
626.407	19010.27
626.602	18600.68
626.796	18725.6
626.991	18868.96
627.185	18363.11
627.38	18264.81
627.574	18359.02
627.768	18186.99
627.963	18299.62
628.157	17984.24
628.352	18049.77
628.546	17279.74
628.74	17744.63
628.935	17711.86
629.129	17623.8
629.323	17431.29
629.517	17373.94
629.712	17388.28
629.906	17296.12
630.1	16952.06
630.294	16919.29
630.489	16876.29
630.683	16913.15
630.877	16560.9
631.071	16751.36
631.265	16816.9
631.459	16530.18
631.653	16337.67
631.848	16345.86
632.042	16485.12
632.236	16358.15
632.43	15850.25
632.624	16208.65
632.818	16126.73
633.012	15424.28
633.206	15848.21
633.4	15710.99
633.594	15325.97
633.788	15641.36
633.982	15586.07
634.176	15348.5
634.369	15139.61
634.563	15334.17
634.757	15252.25
634.951	15340.31
635.145	15166.23
635.339	15246.1
635.533	15045.4
635.726	14807.84
635.92	14689.06
636.114	14588.71
636.308	14541.6
636.501	14439.2
636.695	14502.69
636.889	14258.98
637.083	14172.97
637.276	13957.93
637.47	14093.1
637.664	14007.08
637.857	14185.26
638.051	13962.03
638.244	13882.16
638.438	13708.08
638.632	13716.27
638.825	13751.09
639.019	13538.1
639.212	13515.57
639.406	13314.87
639.599	13486.9
639.793	13237.05
639.986	13108.02
640.18	13134.65
640.373	13179.7
640.567	12716.86
640.76	13026.11
640.954	12802.88
641.147	12909.37
641.34	12630.85
641.534	12800.83
641.727	12747.58
641.92	12395.33
642.114	12340.04
642.307	12352.32
642.5	12155.72
642.694	12325.7
642.887	11993.93
643.08	12305.22
643.273	12067.66
643.467	12081.99
643.66	11799.37
643.853	11721.55
644.046	11522.9
644.239	11823.95
644.432	11694.93
644.626	11490.13
644.819	11610.96
645.012	11400.02
645.205	11391.83
645.398	11479.89
645.591	11178.84
645.784	11334.48
645.977	11105.11
646.17	11045.72
646.363	11025.24
646.556	11068.25
646.749	10922.84
646.942	11225.94
647.135	10951.51
647.328	10879.83
647.521	10597.21
647.714	10681.18
647.907	10677.09
648.099	10396.51
648.292	10480.48
648.485	10468.19
648.678	10361.7
648.871	10175.33
649.064	10216.29
649.256	10281.83
649.449	10181.48
649.642	9911.14
649.835	9988.97
650.027	9837.42
650.22	9765.74
650.413	9833.32
650.605	9868.14
650.798	9745.26
650.991	9757.55
651.183	9747.31
651.376	9591.66
651.568	9579.37
651.761	9622.38
651.954	9448.3
652.146	9415.54
652.339	9362.29
652.531	9497.46
652.724	9350
652.916	9206.64
653.109	9083.77
653.301	9286.51
653.494	9393.01
653.686	9048.95
653.879	9304.95
654.071	8973.18
654.263	8737.66
654.456	9010.04
654.648	9057.14
654.84	8815.48
655.033	8702.84
655.225	8749.95
655.417	8737.66
655.61	8768.38
655.802	8819.58
655.994	8614.78
656.186	8717.18
656.379	8405.89
656.571	8430.46
656.763	8450.94
656.955	8242.05
657.148	8293.25
657.34	8090.5
657.532	8125.32
657.724	8061.83
657.916	8203.14
658.108	8166.28
658.3	8080.26
658.492	8008.58
658.684	7773.07
658.876	7852.94
659.068	7893.9
659.26	7803.78
659.452	7728.01
659.644	7728.01
659.836	7541.64
660.028	7867.27
660.22	7517.07
660.412	7637.9
660.604	7412.62
660.796	7510.93
660.988	7666.57
661.18	7443.34
661.372	7324.56
661.563	7404.43
661.755	7267.22
661.947	7422.86
662.139	7265.17
662.331	7261.07
662.522	7101.33
662.714	7170.96
662.906	6996.89
663.097	7146.39
663.289	6968.21
663.481	7072.66
663.673	7068.56
663.864	6953.88
664.056	6755.22
664.247	6841.24
664.439	6820.76
664.631	6867.86
664.822	6947.73
665.014	6790.04
665.205	6765.46
665.397	6710.17
665.588	6634.39
665.78	6595.48
665.971	6452.13
666.163	6636.44
666.354	6597.53
666.546	6366.11
666.737	6474.65
666.929	6327.2
667.12	6374.3
667.311	6206.37
667.503	6501.28
667.694	6331.3
667.885	6146.98
668.077	6452.13
668.268	6149.03
668.459	6167.46
668.651	6194.08
668.842	6106.02
669.033	6134.69
669.224	6011.81
669.416	6177.7
669.607	6099.87
669.798	5952.42
669.989	6116.26
670.18	5977
670.371	6046.63
670.563	6083.49
670.754	5913.51
670.945	5774.25
671.136	5874.6
671.327	5768.1
671.518	5786.54
671.709	5776.3
671.9	5829.54
672.091	5800.87
672.282	5663.66
672.473	5628.84
672.664	5776.3
672.855	5733.29
673.046	5655.47
673.237	5751.72
673.428	5626.79
673.619	5575.59
673.809	5575.59
674	5489.58
674.191	5671.85
674.382	5462.96
674.573	5514.16
674.764	5540.78
674.954	5518.25
675.145	5407.66
675.336	5546.92
675.527	5434.29
675.717	5637.03
675.908	5424.05
676.099	5450.67
676.289	5356.46
676.48	5368.75
676.671	5295.02
676.861	5368.75
677.052	5405.61
677.243	5327.79
677.433	5301.17
677.624	5448.62
677.814	5225.39
678.005	5217.2
678.195	5196.72
678.386	5286.83
678.576	5229.49
678.767	5237.68
678.957	5223.34
679.148	5217.2
679.338	5254.06
679.529	5131.19
679.719	5209.01
679.909	5178.29
680.1	5024.69
680.29	5196.72
680.481	5139.38
680.671	4862.9
680.861	5135.28
681.052	5094.32
681.242	5104.56
681.432	5323.69
681.622	4944.82
681.813	4979.64
682.003	4987.83
682.193	4979.64
682.383	5061.55
682.573	4963.25
682.764	4959.16
682.954	5012.4
683.144	4914.1
683.334	4979.64
683.524	5118.9
683.714	4920.24
683.904	4912.05
684.094	4981.68
684.284	4918.2
684.474	4932.53
684.664	4836.28
684.854	4922.29
685.044	4830.13
685.234	4897.72
685.424	4950.96
685.614	4844.47
685.804	4840.37
685.994	4817.85
686.184	4795.32
686.374	4701.11
686.564	4731.83
686.753	4770.74
686.943	4594.62
687.133	4686.78
687.323	4555.71
687.513	4729.78
687.702	4688.82
687.892	4576.19
688.082	4502.46
688.272	4600.76
688.461	4436.92
688.651	4627.39
688.841	4518.84
689.03	4512.7
689.22	4467.64
689.41	4328.38
689.599	4531.13
689.789	4230.08
689.979	4432.83
690.168	4406.2
690.358	4303.81
690.547	4295.61
690.737	4072.39
690.926	4287.42
691.116	4299.71
691.305	4455.36
691.495	4225.98
691.684	4162.5
691.874	4344.77
692.063	4156.35
692.252	4225.98
692.442	4078.53
692.631	4045.76
692.82	4101.06
693.01	4004.8
693.199	4008.9
693.388	3914.69
693.578	4135.87
693.767	4017.09
693.956	3976.13
694.146	4064.19
694.335	4008.9
694.524	3935.17
694.713	3988.42
694.902	3883.97
695.092	4088.77
695.281	3914.69
695.47	3832.77
695.659	3898.31
695.848	3972.04
696.037	3816.39
696.226	3867.59
696.415	3828.68
696.604	3845.06
696.793	3750.85
696.982	3877.83
697.171	3947.46
697.36	3883.97
697.549	3883.97
697.738	3789.77
697.927	3793.86
698.116	3896.26
698.305	3726.28
698.494	3656.65
698.683	3789.77
698.872	3800.01
699.061	3705.8
699.25	3742.66
699.438	3713.99
699.627	3771.33
699.816	3840.97
700.005	3718.09
700.193	3703.75
700.382	3722.18
700.571	3670.98
700.76	3591.11
700.948	3738.57
701.137	3558.35
701.326	3724.23
701.514	3736.52
701.703	3558.35
701.892	3810.25
702.08	3611.59
702.269	3574.73
702.457	3562.44
702.646	3560.39
702.834	3570.63
703.023	3584.97
703.212	3726.28
703.4	3670.98
703.589	3505.1
703.777	3566.54
703.965	3619.78
704.154	3709.9
704.342	3533.77
704.531	3593.16
704.719	3636.17
704.907	3519.43
705.096	3564.49
705.284	3550.15
705.472	3503.05
705.661	3517.39
705.849	3615.69
706.037	3548.11
706.226	3513.29
706.414	3597.26
706.602	3507.15
706.79	3537.87
706.979	3400.65
707.167	3531.72
707.355	3554.25
707.543	3423.18
707.731	3511.24
707.919	3466.19
708.107	3447.76
708.296	3587.02
708.484	3498.95
708.672	3423.18
708.86	3427.28
709.048	3515.34
709.236	3611.59
709.424	3636.17
709.612	3603.4
709.8	3568.59
709.988	3466.19
710.176	3535.82
710.364	3484.62
710.551	3374.03
710.739	3490.76
710.927	3453.9
711.115	3468.24
711.303	3441.61
711.491	3470.28
711.679	3462.09
711.866	3398.6
712.054	3509.19
712.242	3521.48
712.43	3275.73
712.617	3523.53
712.805	3507.15
712.993	3427.28
713.181	3357.64
713.368	3449.8
713.556	3320.78
713.744	3523.53
713.931	3572.68
714.119	3361.74
714.306	3472.33
714.494	3474.38
714.682	3568.59
714.869	3347.4
715.057	3429.32
715.244	3435.47
715.432	3462.09
715.619	3449.8
715.807	3427.28
715.994	3537.87
716.182	3410.89
716.369	3535.82
716.556	3472.33
716.744	3316.69
716.931	3316.69
717.119	3384.27
717.306	3509.19
717.493	3333.07
717.681	3445.71
717.868	3427.28
718.055	3308.49
718.242	3345.36
718.43	3357.64
718.617	3408.84
718.804	3308.49
718.991	3390.41
719.179	3335.12
719.366	3322.83
719.553	3347.4
719.74	3214.29
719.927	3464.14
720.114	3458
720.301	3388.36
720.488	3238.86
720.676	3361.74
720.863	3322.83
721.05	3312.59
721.237	3400.65
721.424	3353.55
721.611	3402.7
721.798	3312.59
721.985	3308.49
722.172	3312.59
722.358	3351.5
722.545	3277.77
722.732	3271.63
722.919	3316.69
723.106	3363.79
723.293	3335.12
723.48	3302.35
723.667	3175.38
723.853	3357.64
724.04	3247.05
724.227	3333.07
724.414	3249.1
724.6	3197.9
724.787	3331.02
724.974	3386.32
725.161	3204.05
725.347	3273.68
725.534	3255.25
725.72	3386.32
725.907	3111.89
726.094	3185.62
726.28	3361.74
726.467	3165.14
726.653	3294.16
726.84	3367.88
727.027	3210.19
727.213	3019.73
727.4	3251.15
727.586	3197.9
727.773	3163.09
727.959	3238.86
728.145	3318.73
728.332	3238.86
728.518	3222.48
728.705	3158.99
728.891	3214.29
729.077	3187.66
729.264	3199.95
729.45	3138.51
729.636	3103.7
729.823	3105.74
730.009	3132.37
730.195	2972.63
730.382	3132.37
730.568	3216.33
730.754	3175.38
730.94	3126.22
731.126	3144.66
731.313	3294.16
731.499	3050.45
731.685	3128.27
731.871	3046.35
732.057	3115.98
732.243	3251.15
732.429	3169.23
732.615	3130.32
732.801	3085.26
732.987	3072.98
733.173	2956.24
733.359	3171.28
733.545	3124.18
733.731	3029.97
733.917	3050.45
734.103	3066.83
734.289	3099.6
734.475	2964.43
734.661	3040.21
734.847	3070.93
735.033	2989.01
735.219	2991.06
735.404	3105.74
735.59	2960.34
735.776	3097.55
735.962	3009.49
736.148	2948.05
736.333	2927.57
736.519	3003.35
736.705	3013.59
736.89	2943.96
737.076	3021.78
737.262	2933.72
737.447	2984.91
737.633	2943.96
737.819	2956.24
738.004	2808.79
738.19	2837.46
738.375	2892.76
738.561	2952.15
738.747	2892.76
738.932	2935.76
739.118	2907.09
739.303	2923.48
739.489	2814.93
739.674	2765.78
739.859	2761.69
740.045	2739.16
740.23	2804.69
740.416	2769.88
740.601	2696.15
740.786	2794.45
740.972	2767.83
741.157	2814.93
741.342	2763.73
741.528	2743.25
741.713	2730.97
741.898	2730.97
742.084	2710.49
742.269	2712.53
742.454	2663.38
742.639	2751.45
742.824	2690.01
743.01	2808.79
743.195	2669.53
743.38	2671.58
743.565	2692.05
743.75	2477.02
743.935	2546.65
744.12	2687.96
744.305	2442.2
744.49	2468.83
744.675	2532.31
744.86	2554.84
745.045	2546.65
745.23	2530.27
745.415	2466.78
745.6	2522.07
745.785	2411.48
745.97	2503.64
746.155	2546.65
746.34	2393.05
746.525	2407.39
746.71	2415.58
746.895	2393.05
747.079	2423.77
747.264	2259.93
747.449	2409.44
747.634	2417.63
747.819	2280.41
748.003	2264.03
748.188	2247.65
748.373	2284.51
748.557	2198.49
748.742	2296.8
748.927	2270.17
749.111	2159.58
749.296	2151.39
749.481	2255.84
749.665	2178.01
749.85	2092
750.034	2108.38
750.219	2272.22
750.404	2026.47
750.588	2026.47
750.773	2085.86
750.957	2081.76
751.141	2022.37
751.326	2005.99
751.51	1969.12
751.695	2108.38
751.879	2157.54
752.064	1946.59
752.248	2026.47
752.432	1965.03
752.617	1960.93
752.801	1887.2
752.985	1940.45
753.17	1940.45
753.354	1973.22
753.538	1852.39
753.722	1848.29
753.907	1829.86
754.091	1821.67
754.275	1819.62
754.459	1780.71
754.643	1709.03
754.828	1786.85
755.012	1715.17
755.196	1752.04
755.38	1889.25
755.564	1690.6
755.748	1721.32
755.932	1666.02
756.116	1743.85
756.3	1698.79
756.484	1657.83
756.668	1602.54
756.852	1600.49
757.036	1580.01
757.22	1567.72
757.404	1522.66
757.588	1639.4
757.772	1600.49
757.956	1555.43
758.14	1594.34
758.323	1498.09
758.507	1627.11
758.691	1504.23
758.875	1612.78
759.059	1502.19
759.242	1442.79
759.426	1489.9
759.61	1461.23
759.794	1430.51
759.977	1534.95
760.161	1487.85
760.345	1485.8
760.528	1352.68
760.712	1377.26
760.895	1405.93
761.079	1428.46
761.263	1375.21
761.446	1401.83
761.63	1313.77
761.813	1399.79
761.997	1293.29
762.18	1381.35
762.364	1434.6
762.547	1350.64
762.731	1352.68
762.914	1254.38
763.098	1342.44
763.281	1293.29
763.464	1350.64
763.648	1395.69
763.831	1268.72
764.015	1311.72
764.198	1309.68
764.381	1174.51
764.564	1256.43
764.748	1272.81
764.931	1223.66
765.114	1281
765.297	1313.77
765.481	1178.61
765.664	1211.37
765.847	1264.62
766.03	1309.68
766.213	1188.85
766.397	1184.75
766.58	1278.96
766.763	1272.81
766.946	1158.13
767.129	1203.18
767.312	1117.17
767.495	1154.03
767.678	1170.41
767.861	1250.28
768.044	1240.05
768.227	1141.74
768.41	1235.95
768.593	1242.09
768.776	1143.79
768.959	1145.84
769.142	1127.41
769.324	1102.83
769.507	1147.89
769.69	1166.32
769.873	1168.37
770.056	1092.59
770.239	1121.26
770.421	1092.59
770.604	1160.17
770.787	1049.58
770.97	1092.59
771.152	1113.07
771.335	1008.62
771.518	1065.97
771.7	1033.2
771.883	1084.4
772.066	1055.73
772.248	992.24
772.431	1078.26
772.613	1051.63
772.796	996.34
772.978	934.9
773.161	920.56
773.343	969.71
773.526	953.33
773.708	936.95
773.891	844.79
774.073	957.43
774.256	945.14
774.438	1014.77
774.621	920.56
774.803	932.85
774.985	840.69
775.168	852.98
775.35	922.61
775.532	904.18
775.715	863.22
775.897	914.42
776.079	848.88
776.261	895.99
776.444	852.98
776.626	846.84
776.808	869.36
776.99	846.84
777.173	869.36
777.355	889.84
777.537	756.72
777.719	736.24
777.901	781.3
778.083	697.33
778.265	844.79
778.447	871.41
778.629	769.01
778.811	719.86
778.993	668.66
779.175	715.77
779.357	748.53
779.539	709.62
779.721	769.01
779.903	732.15
780.085	779.25
780.267	707.57
780.449	721.91
780.631	705.53
780.812	764.92
780.994	652.28
781.176	711.67
781.358	621.56
781.54	633.85
781.721	775.16
781.903	699.38
782.085	685.05
782.267	646.13
782.448	621.56
782.63	607.22
782.812	629.75
782.993	654.33
783.175	613.37
783.357	574.46
783.538	713.72
783.72	533.5
783.901	523.26
784.083	560.12
784.264	637.94
784.446	547.83
784.627	642.04
784.809	648.18
784.99	578.55
785.172	527.35
785.353	648.18
785.535	615.41
785.716	558.07
785.897	527.35
786.079	558.07
786.26	517.11
786.441	574.46
786.623	519.16
786.804	531.45
786.985	609.27
787.167	564.22
787.348	504.82
787.529	529.4
787.71	478.2
787.891	482.3
788.073	482.3
788.254	435.19
788.435	576.5
788.616	513.02
788.797	474.1
788.978	502.78
789.159	543.74
789.34	500.73
789.522	418.81
789.703	478.2
789.884	498.68
790.065	422.91
790.246	465.91
790.427	478.2
790.607	451.58
790.788	529.4
790.969	433.15
791.15	437.24
791.331	459.77
791.512	482.3
791.693	373.75
791.874	543.74
792.054	498.68
792.235	465.91
792.416	379.9
792.597	392.19
792.778	392.19
792.958	396.28
793.139	383.99
793.32	461.82
793.5	406.52
793.681	404.47
793.862	347.13
794.042	439.29
794.223	295.93
794.404	361.47
794.584	359.42
794.765	324.6
794.945	429.05
795.126	439.29
795.306	359.42
795.487	330.75
795.667	443.39
795.848	449.53
796.028	367.61
796.209	297.98
796.389	300.03
796.57	304.12
796.75	297.98
796.93	322.56
797.111	269.31
797.291	445.43
797.471	316.41
797.652	369.66
797.832	263.16
798.012	363.51
798.192	312.32
798.373	271.36
798.553	300.03
798.733	324.6
798.913	211.96
799.093	289.79
799.274	406.52
799.454	302.08
799.634	297.98
799.814	306.17
799.994	379.9
800.174	338.94
800.354	267.26
800.534	261.12
800.714	308.22
800.894	195.58
801.074	295.93
801.254	281.6
801.434	287.74
801.614	306.17
801.794	252.92
801.974	715.77
802.154	248.83
802.334	328.7
802.514	238.59
802.693	254.97
802.873	293.88
803.053	267.26
803.233	240.64
803.413	273.4
803.592	318.46
803.772	185.34
803.952	281.6
804.131	261.12
804.311	275.45
804.491	324.6
804.67	220.16
804.85	287.74
805.03	261.12
805.209	254.97
805.389	248.83
805.568	322.56
805.748	326.65
805.928	261.12
806.107	275.45
806.287	289.79
806.466	273.4
806.646	254.97
806.825	271.36
807.004	308.22
807.184	312.32
807.363	330.75
807.543	226.3
807.722	265.21
807.901	316.41
808.081	207.87
808.26	187.39
808.439	257.02
808.619	164.86
808.798	199.68
808.977	162.81
809.156	269.31
809.336	232.44
809.515	218.11
809.694	187.39
809.873	250.88
810.052	134.14
810.231	271.36
810.411	187.39
810.59	238.59
810.769	187.39
810.948	216.06
811.127	183.29
811.306	171.01
811.485	257.02
811.664	259.07
811.843	234.49
812.022	185.34
812.201	269.31
812.38	220.16
812.559	185.34
812.737	226.3
812.916	181.25
813.095	162.81
813.274	207.87
813.453	259.07
813.632	236.54
813.811	238.59
813.989	203.77
814.168	193.53
814.347	93.18
814.526	173.05
814.704	125.95
814.883	187.39
815.062	201.72
815.24	150.53
815.419	164.86
815.598	207.87
815.776	130.05
815.955	203.77
816.133	183.29
816.312	105.47
816.49	189.44
816.669	191.49
816.847	203.77
817.026	158.72
817.204	183.29
817.383	156.67
817.561	132.09
817.74	189.44
817.918	220.16
818.097	171.01
818.275	146.43
818.453	140.29
818.632	148.48
818.81	183.29
818.988	123.9
819.167	119.81
819.345	148.48
819.523	209.92
819.701	93.18
819.879	224.25
820.058	132.09
820.236	232.44
820.414	199.68
820.592	240.64
820.77	125.95
820.948	70.65
821.127	136.19
821.305	164.86
821.483	197.63
821.661	214.01
821.839	136.19
822.017	76.8
822.195	35.84
822.373	142.33
822.551	125.95
822.729	158.72
822.907	181.25
823.085	203.77
823.262	207.87
823.44	91.13
823.618	130.05
823.796	150.53
823.974	146.43
824.152	60.42
824.329	146.43
824.507	240.64
824.685	195.58
824.863	148.48
825.04	72.7
825.218	187.39
825.396	138.24
825.574	173.05
825.751	93.18
825.929	111.61
826.107	156.67
826.284	74.75
826.462	125.95
826.639	111.61
826.817	117.76
826.994	111.61
827.172	107.52
827.349	171.01
827.527	113.66
827.704	56.32
827.882	119.81
828.059	128
828.237	125.95
828.414	142.33
828.591	103.42
828.769	140.29
828.946	99.33
829.124	99.33
829.301	191.49
829.478	74.75
829.655	158.72
829.833	46.08
830.01	80.89
830.187	156.67
830.364	95.23
830.542	134.14
830.719	132.09
830.896	166.91
831.073	193.53
831.25	130.05
831.427	78.85
831.604	35.84
831.782	91.13
831.959	87.04
832.136	125.95
832.313	111.61
832.49	3.07
832.667	142.33
832.844	33.79
833.021	93.18
833.198	37.89
833.374	35.84
833.551	148.48
833.728	56.32
833.905	58.37
834.082	58.37
834.259	64.51
834.436	48.13
834.612	44.03
834.789	39.94
834.966	19.46
835.143	109.57
835.319	54.27
835.496	27.65
835.673	76.8
835.85	80.89
836.026	166.91
836.203	107.52
836.38	80.89
836.556	31.74
836.733	23.55
836.909	148.48
837.086	84.99
837.262	89.09
837.439	82.94
837.616	91.13
837.792	121.85
837.968	56.32
838.145	82.94
838.321	181.25
838.498	46.08
838.674	80.89
838.851	80.89
839.027	66.56
839.203	33.79
839.38	95.23
839.556	91.13
839.732	164.86
839.909	101.37
840.085	97.28
840.261	93.18
840.437	52.22
840.614	29.7
840.79	130.05
840.966	121.85
841.142	99.33
841.318	78.85
841.494	68.61
841.671	-23.55
841.847	113.66
842.023	44.03
842.199	113.66
842.375	52.22
842.551	-15.36
842.727	109.57
842.903	142.33
843.079	134.14
843.255	105.47
843.431	35.84
843.607	33.79
843.783	-1.02
843.959	109.57
844.134	21.5
844.31	25.6
844.486	23.55
844.662	44.03
844.838	128
845.013	-15.36
845.189	72.7
845.365	72.7
845.541	76.8
845.716	105.47
845.892	15.36
846.068	19.46
846.244	29.7
846.419	97.28
846.595	68.61
846.77	29.7
846.946	99.33
847.122	68.61
847.297	-52.22
847.473	107.52
847.648	-13.31
847.824	-29.7
847.999	-72.7
848.175	64.51
848.35	-17.41
848.526	60.42
848.701	11.26
848.876	56.32
849.052	23.55
849.227	78.85
849.403	23.55
849.578	31.74
849.753	68.61
849.929	84.99
850.104	39.94
850.279	76.8
850.454	-21.5
850.63	39.94
850.805	11.26
850.98	121.85
851.155	54.27
851.33	80.89
851.505	-58.37
851.681	166.91
851.856	84.99
852.031	97.28
852.206	119.81
852.381	-54.27
852.556	17.41
852.731	23.55
852.906	48.13
853.081	56.32
853.256	82.94
853.431	25.6
853.606	3.07
853.781	19.46
853.956	29.7
854.131	-7.17
854.305	-13.31
854.48	1.02
854.655	33.79
854.83	-27.65
855.005	15.36
855.18	9.22
855.354	-39.94
855.529	25.6
855.704	11.26
855.879	7.17
856.053	-29.7
856.228	41.98
856.403	-13.31
856.577	-48.13
856.752	7.17
856.926	27.65
857.101	54.27
857.276	74.75
857.45	52.22
857.625	84.99
857.799	9.22
857.974	3.07
858.148	46.08
858.323	39.94
858.497	91.13
858.672	9.22
858.846	-35.84
859.02	25.6
859.195	37.89
859.369	41.98
859.543	58.37
859.718	37.89
859.892	52.22
860.066	39.94
860.241	19.46
860.415	35.84
860.589	31.74
860.763	25.6
860.938	31.74
861.112	35.84
861.286	11.26
861.46	35.84
861.634	72.7
861.808	48.13
861.982	21.5
862.157	-1.02
862.331	1.02
862.505	19.46
862.679	46.08
862.853	91.13
863.027	15.36
863.201	62.46
863.375	23.55
863.549	-1.02
863.722	-5.12
863.896	99.33
864.07	27.65
864.244	89.09
864.418	121.85
864.592	13.31
864.766	39.94
864.939	-7.17
865.113	76.8
865.287	33.79
865.461	-89.09
865.634	11.26
865.808	25.6
865.982	11.26
866.156	-39.94
866.329	-23.55
866.503	74.75
866.676	66.56
866.85	48.13
867.024	80.89
867.197	21.5
867.371	-27.65
867.544	68.61
867.718	23.55
867.891	44.03
868.065	39.94
868.238	39.94
868.412	23.55
868.585	56.32
868.759	7.17
868.932	-5.12
869.105	-13.31
869.279	7.17
869.452	-9.22
869.625	7.17
869.799	13.31
869.972	19.46
870.145	-23.55
870.319	3.07
870.492	1.02
870.665	-31.74
870.838	27.65
871.011	-39.94
871.185	31.74
871.358	-11.26
871.531	7.17
871.704	9.22
871.877	33.79
872.05	21.5
872.223	39.94
872.396	-9.22
872.569	-3.07
872.742	-13.31
872.915	58.37
873.088	-9.22
873.261	-41.98
873.434	27.65
873.607	1.02
873.78	72.7
873.953	-58.37
874.126	13.31
874.299	56.32
874.471	3.07
874.644	68.61
874.817	19.46
874.99	70.65
875.163	-33.79
875.335	-9.22
875.508	-27.65
875.681	27.65
875.853	-56.32
876.026	-39.94
876.199	109.57
876.371	-1.02
876.544	1.02
876.717	-3.07
876.889	-31.74
877.062	33.79
877.234	-70.65
877.407	-44.03
877.579	-52.22
877.752	11.26
877.924	15.36
878.097	23.55
878.269	-15.36
878.442	-17.41
878.614	-39.94
878.786	23.55
878.959	80.89
879.131	-58.37
879.303	-89.09
879.476	23.55
879.648	17.41
879.82	-9.22
879.993	74.75
880.165	-1.02
880.337	-31.74
880.509	-62.46
880.681	-35.84
880.854	-27.65
881.026	-48.13
881.198	35.84
881.37	-31.74
881.542	-35.84
881.714	-1.02
881.886	52.22
882.058	-29.7
882.23	82.94
882.402	105.47
882.574	15.36
882.746	-15.36
882.918	-5.12
883.09	-41.98
883.262	41.98
883.434	19.46
883.606	-31.74
883.778	23.55
883.95	-13.31
884.122	-78.85
884.293	58.37
884.465	17.41
884.637	13.31
884.809	17.41
884.98	17.41
885.152	11.26
885.324	19.46
885.496	-37.89
885.667	9.22
885.839	11.26
886.011	17.41
886.182	-5.12
886.354	60.42
886.525	39.94
886.697	25.6
886.869	-17.41
887.04	-29.7
887.212	66.56
887.383	-5.12
887.555	-1.02
887.726	7.17
887.897	-35.84
888.069	29.7
888.24	17.41
888.412	1.02
888.583	-29.7
888.754	-37.89
888.926	21.5
889.097	35.84
889.268	-58.37
889.44	50.18
889.611	-66.56
889.782	-56.32
889.953	-29.7
890.125	48.13
890.296	-78.85
890.467	15.36
890.638	-72.7
890.809	5.12
890.98	19.46
891.151	13.31
891.323	21.5
891.494	25.6
891.665	-46.08
891.836	68.61
892.007	37.89
892.178	27.65
892.349	64.51
892.52	-1.02
892.691	23.55
892.862	-21.5
893.032	-58.37
893.203	7.17
893.374	-25.6
893.545	68.61
893.716	-23.55
893.887	27.65
894.057	70.65
894.228	23.55
894.399	-25.6
894.57	72.7
894.74	-23.55
894.911	1.02
895.082	27.65
895.253	19.46
895.423	-23.55
895.594	97.28
895.764	5.12
895.935	9.22
896.106	17.41
896.276	58.37
896.447	-21.5
896.617	-33.79
896.788	-9.22
896.958	-15.36
897.129	-1.02
897.299	-35.84
897.47	58.37
897.64	52.22
897.81	-31.74
897.981	35.84
898.151	-31.74
898.322	3.07
898.492	19.46
898.662	-1.02
898.832	11.26
899.003	82.94
899.173	66.56
899.343	23.55
899.513	-31.74
