Data from USB4F104151__42__10-22-41-301.txt Node

Date: Wed Mar 12 10:22:41 EDT 2025
User: louis
Spectrometer: USB4F10415
Trigger mode: 4
Integration Time (sec): 3.000000E-2
Scans to average: 1
Electric dark correction enabled: true
Nonlinearity correction enabled: false
Boxcar width: 0
XAxis mode: Wavelengths
Number of Pixels in Spectrum: 3648
>>>>>Begin Spectral Data<<<<<
178.204	-78.51
178.424	-78.51
178.644	-78.51
178.864	-148.14
179.084	-191.14
179.304	-31.4
179.524	-25.26
179.744	32.08
179.964	-47.79
180.184	27.99
180.404	23.89
180.624	13.65
180.844	64.85
181.064	-2.73
181.283	-10.92
181.503	-41.64
181.723	-2.73
181.943	-23.21
182.163	91.48
182.383	-76.46
182.602	64.85
182.822	7.51
183.042	48.47
183.262	-12.97
183.482	27.99
183.701	48.47
183.921	3.41
184.141	-8.87
184.361	25.94
184.58	-70.31
184.8	48.47
185.02	-10.92
185.239	52.56
185.459	-4.78
185.679	58.71
185.898	-35.5
186.118	-10.92
186.338	75.09
186.557	42.32
186.777	64.85
186.997	52.56
187.216	-25.26
187.436	64.85
187.655	-86.7
187.875	32.08
188.095	-66.22
188.314	13.65
188.534	34.13
188.753	-8.87
188.973	27.99
189.192	60.76
189.412	-12.97
189.631	38.23
189.851	38.23
190.07	21.84
190.29	-25.26
190.509	-2.73
190.729	-53.93
190.948	52.56
191.168	79.19
191.387	124.24
191.607	-74.41
191.826	62.8
192.045	-51.88
192.265	5.46
192.484	25.94
192.704	-27.31
192.923	15.7
193.142	60.76
193.362	13.65
193.581	23.89
193.8	93.52
194.02	-2.73
194.239	19.8
194.458	-27.31
194.678	-25.26
194.897	93.52
195.116	-23.21
195.335	-21.16
195.555	32.08
195.774	-8.87
195.993	75.09
196.212	3.41
196.432	-0.68
196.651	5.46
196.87	73.04
197.089	25.94
197.308	17.75
197.528	64.85
197.747	30.04
197.966	-51.88
198.185	73.04
198.404	36.18
198.623	93.52
198.842	23.89
199.062	60.76
199.281	52.56
199.5	-8.87
199.719	34.13
199.938	54.61
200.157	60.76
200.376	97.62
200.595	13.65
200.814	23.89
201.033	36.18
201.252	-17.07
201.471	32.08
201.69	91.48
201.909	30.04
202.128	-6.83
202.347	27.99
202.566	-37.55
202.785	-4.78
203.004	-4.78
203.223	109.91
203.442	-17.07
203.661	-8.87
203.879	77.14
204.098	32.08
204.317	60.76
204.536	42.32
204.755	27.99
204.974	-74.41
205.193	3.41
205.411	58.71
205.63	32.08
205.849	25.94
206.068	-0.68
206.287	30.04
206.505	38.23
206.724	15.7
206.943	-41.64
207.162	-12.97
207.381	9.56
207.599	-6.83
207.818	15.7
208.037	52.56
208.255	15.7
208.474	13.65
208.693	-8.87
208.911	9.56
209.13	56.66
209.349	1.37
209.567	7.51
209.786	54.61
210.005	15.7
210.223	52.56
210.442	-62.12
210.661	-21.16
210.879	23.89
211.098	36.18
211.316	118.1
211.535	116.05
211.753	-15.02
211.972	52.56
212.191	21.84
212.409	36.18
212.628	-31.4
212.846	27.99
213.065	21.84
213.283	-17.07
213.502	62.8
213.72	46.42
213.938	32.08
214.157	50.52
214.375	52.56
214.594	11.61
214.812	36.18
215.031	3.41
215.249	42.32
215.467	79.19
215.686	56.66
215.904	42.32
216.122	7.51
216.341	46.42
216.559	27.99
216.778	-0.68
216.996	38.23
217.214	-12.97
217.432	36.18
217.651	54.61
217.869	-8.87
218.087	11.61
218.306	48.47
218.524	-41.64
218.742	-41.64
218.96	-0.68
219.179	-10.92
219.397	46.42
219.615	136.53
219.833	60.76
220.051	-58.03
220.27	79.19
220.488	-19.11
220.706	1.37
220.924	15.7
221.142	85.33
221.36	-17.07
221.578	-45.74
221.796	-33.45
222.015	83.28
222.233	11.61
222.451	21.84
222.669	-2.73
222.887	46.42
223.105	-17.07
223.323	83.28
223.541	-37.55
223.759	46.42
223.977	15.7
224.195	7.51
224.413	-6.83
224.631	23.89
224.849	52.56
225.067	81.24
225.285	40.28
225.503	-12.97
225.721	-62.12
225.939	7.51
226.157	27.99
226.375	81.24
226.592	-25.26
226.81	38.23
227.028	-29.35
227.246	103.76
227.464	3.41
227.682	21.84
227.9	23.89
228.117	34.13
228.335	77.14
228.553	62.8
228.771	11.61
228.989	64.85
229.206	-12.97
229.424	3.41
229.642	-62.12
229.86	23.89
230.077	89.43
230.295	85.33
230.513	-25.26
230.731	40.28
230.948	19.8
231.166	54.61
231.384	48.47
231.601	71
231.819	19.8
232.037	15.7
232.254	7.51
232.472	54.61
232.689	30.04
232.907	46.42
233.125	73.04
233.342	15.7
233.56	7.51
233.777	-17.07
233.995	138.58
234.213	62.8
234.43	-39.59
234.648	-6.83
234.865	23.89
235.083	7.51
235.3	56.66
235.518	21.84
235.735	30.04
235.953	15.7
236.17	-39.59
236.388	-10.92
236.605	32.08
236.822	73.04
237.04	19.8
237.257	11.61
237.475	54.61
237.692	13.65
237.909	7.51
238.127	11.61
238.344	19.8
238.562	48.47
238.779	19.8
238.996	-2.73
239.214	40.28
239.431	-0.68
239.648	77.14
239.865	-37.55
240.083	81.24
240.3	46.42
240.517	27.99
240.735	17.75
240.952	79.19
241.169	34.13
241.386	13.65
241.603	64.85
241.821	-27.31
242.038	97.62
242.255	-15.02
242.472	19.8
242.689	64.85
242.907	64.85
243.124	23.89
243.341	56.66
243.558	21.84
243.775	-19.11
243.992	-43.69
244.209	-8.87
244.426	68.95
244.643	-12.97
244.86	7.51
245.078	87.38
245.295	5.46
245.512	3.41
245.729	-17.07
245.946	54.61
246.163	-12.97
246.38	23.89
246.597	56.66
246.814	87.38
247.031	7.51
247.248	-0.68
247.464	-17.07
247.681	-17.07
247.898	15.7
248.115	9.56
248.332	-8.87
248.549	19.8
248.766	111.96
248.983	62.8
249.2	-55.98
249.417	21.84
249.633	15.7
249.85	48.47
250.067	40.28
250.284	44.37
250.501	68.95
250.717	95.57
250.934	-23.21
251.151	13.65
251.368	-21.16
251.585	-19.11
251.801	54.61
252.018	40.28
252.235	13.65
252.451	40.28
252.668	-49.83
252.885	30.04
253.102	-45.74
253.318	-125.61
253.535	48.47
253.752	-29.35
253.968	3.41
254.185	-0.68
254.401	25.94
254.618	109.91
254.835	30.04
255.051	134.48
255.268	7.51
255.484	-25.26
255.701	40.28
255.917	56.66
256.134	-2.73
256.351	17.75
256.567	-53.93
256.784	11.61
257	36.18
257.217	62.8
257.433	-4.78
257.65	44.37
257.866	46.42
258.082	-6.83
258.299	56.66
258.515	81.24
258.732	23.89
258.948	-8.87
259.165	60.76
259.381	23.89
259.597	-10.92
259.814	42.32
260.03	-0.68
260.246	77.14
260.463	44.37
260.679	-60.07
260.895	23.89
261.112	-53.93
261.328	23.89
261.544	68.95
261.761	25.94
261.977	36.18
262.193	-41.64
262.409	32.08
262.626	64.85
262.842	27.99
263.058	23.89
263.274	75.09
263.49	38.23
263.707	38.23
263.923	3.41
264.139	5.46
264.355	32.08
264.571	85.33
264.787	81.24
265.004	101.72
265.22	73.04
265.436	-6.83
265.652	48.47
265.868	52.56
266.084	-4.78
266.3	46.42
266.516	-0.68
266.732	21.84
266.948	30.04
267.164	40.28
267.38	-33.45
267.596	52.56
267.812	42.32
268.028	85.33
268.244	-43.69
268.46	48.47
268.676	13.65
268.892	7.51
269.108	-25.26
269.324	21.84
269.54	21.84
269.756	64.85
269.972	19.8
270.188	44.37
270.403	-66.22
270.619	56.66
270.835	56.66
271.051	54.61
271.267	56.66
271.483	48.47
271.698	34.13
271.914	30.04
272.13	71
272.346	1.37
272.562	32.08
272.777	93.52
272.993	-6.83
273.209	21.84
273.425	68.95
273.64	-21.16
273.856	64.85
274.072	120.15
274.287	-12.97
274.503	60.76
274.719	75.09
274.934	23.89
275.15	17.75
275.366	-27.31
275.581	3.41
275.797	-6.83
276.012	-41.64
276.228	52.56
276.444	-15.02
276.659	79.19
276.875	56.66
277.09	46.42
277.306	-0.68
277.521	38.23
277.737	-35.5
277.952	5.46
278.168	68.95
278.383	19.8
278.599	11.61
278.814	48.47
279.03	-2.73
279.245	-49.83
279.461	-12.97
279.676	7.51
279.892	48.47
280.107	-17.07
280.322	34.13
280.538	46.42
280.753	83.28
280.969	48.47
281.184	-23.21
281.399	97.62
281.615	3.41
281.83	11.61
282.045	-8.87
282.26	-10.92
282.476	-8.87
282.691	73.04
282.906	44.37
283.122	42.32
283.337	-2.73
283.552	40.28
283.767	-29.35
283.983	21.84
284.198	-49.83
284.413	36.18
284.628	-21.16
284.843	105.81
285.058	13.65
285.274	52.56
285.489	52.56
285.704	85.33
285.919	-51.88
286.134	21.84
286.349	-4.78
286.564	46.42
286.779	25.94
286.995	-62.12
287.21	-8.87
287.425	27.99
287.64	15.7
287.855	66.9
288.07	7.51
288.285	95.57
288.5	9.56
288.715	40.28
288.93	-66.22
289.145	38.23
289.36	50.52
289.575	3.41
289.79	46.42
290.004	17.75
290.219	52.56
290.434	-15.02
290.649	-19.11
290.864	46.42
291.079	56.66
291.294	58.71
291.509	23.89
291.724	66.9
291.938	1.37
292.153	50.52
292.368	46.42
292.583	17.75
292.798	42.32
293.012	11.61
293.227	58.71
293.442	38.23
293.657	-8.87
293.871	56.66
294.086	64.85
294.301	44.37
294.516	60.76
294.73	23.89
294.945	23.89
295.16	23.89
295.374	52.56
295.589	34.13
295.804	23.89
296.018	-2.73
296.233	48.47
296.447	-10.92
296.662	21.84
296.877	101.72
297.091	-2.73
297.306	66.9
297.52	66.9
297.735	-21.16
297.949	32.08
298.164	62.8
298.378	-2.73
298.593	-37.55
298.807	68.95
299.022	111.96
299.236	105.81
299.451	-29.35
299.665	5.46
299.88	36.18
300.094	54.61
300.309	5.46
300.523	62.8
300.737	27.99
300.952	-0.68
301.166	23.89
301.381	89.43
301.595	7.51
301.809	27.99
302.024	3.41
302.238	-8.87
302.452	66.9
302.667	5.46
302.881	103.76
303.095	95.57
303.309	91.48
303.524	62.8
303.738	11.61
303.952	-4.78
304.166	111.96
304.381	-62.12
304.595	50.52
304.809	3.41
305.023	46.42
305.237	5.46
305.452	40.28
305.666	-10.92
305.88	73.04
306.094	62.8
306.308	17.75
306.522	11.61
306.736	44.37
306.95	15.7
307.164	15.7
307.379	30.04
307.593	-2.73
307.807	3.41
308.021	-2.73
308.235	42.32
308.449	-21.16
308.663	87.38
308.877	79.19
309.091	19.8
309.305	48.47
309.519	13.65
309.733	36.18
309.947	-23.21
310.161	73.04
310.374	7.51
310.588	58.71
310.802	3.41
311.016	-25.26
311.23	73.04
311.444	-29.35
311.658	32.08
311.872	87.38
312.085	97.62
312.299	3.41
312.513	9.56
312.727	54.61
312.941	19.8
313.154	48.47
313.368	58.71
313.582	36.18
313.796	-33.45
314.009	15.7
314.223	64.85
314.437	-8.87
314.651	36.18
314.864	15.7
315.078	42.32
315.292	-10.92
315.505	-25.26
315.719	152.91
315.933	68.95
316.146	30.04
316.36	3.41
316.573	1.37
316.787	30.04
317.001	64.85
317.214	7.51
317.428	-15.02
317.641	11.61
317.855	109.91
318.068	7.51
318.282	68.95
318.495	52.56
318.709	52.56
318.922	40.28
319.136	15.7
319.349	95.57
319.563	58.71
319.776	56.66
319.99	11.61
320.203	44.37
320.417	68.95
320.63	68.95
320.843	81.24
321.057	21.84
321.27	32.08
321.483	23.89
321.697	77.14
321.91	97.62
322.124	-29.35
322.337	5.46
322.55	17.75
322.763	27.99
322.977	23.89
323.19	-31.4
323.403	64.85
323.617	60.76
323.83	25.94
324.043	3.41
324.256	25.94
324.469	54.61
324.683	17.75
324.896	-27.31
325.109	1.37
325.322	-10.92
325.535	107.86
325.748	83.28
325.962	-2.73
326.175	44.37
326.388	21.84
326.601	107.86
326.814	-98.99
327.027	3.41
327.24	60.76
327.453	-15.02
327.666	40.28
327.879	40.28
328.092	-17.07
328.305	81.24
328.518	15.7
328.731	46.42
328.944	25.94
329.157	44.37
329.37	27.99
329.583	118.1
329.796	83.28
330.009	-0.68
330.222	7.51
330.435	36.18
330.648	73.04
330.861	142.68
331.073	64.85
331.286	44.37
331.499	44.37
331.712	15.7
331.925	48.47
332.138	89.43
332.35	91.48
332.563	-49.83
332.776	73.04
332.989	48.47
333.202	-37.55
333.414	46.42
333.627	46.42
333.84	42.32
334.053	15.7
334.265	40.28
334.478	9.56
334.691	32.08
334.903	30.04
335.116	44.37
335.329	21.84
335.541	52.56
335.754	120.15
335.966	-27.31
336.179	3.41
336.392	60.76
336.604	-21.16
336.817	-27.31
337.029	21.84
337.242	56.66
337.454	48.47
337.667	85.33
337.88	-12.97
338.092	103.76
338.305	52.56
338.517	73.04
338.729	15.7
338.942	-0.68
339.154	46.42
339.367	-21.16
339.579	50.52
339.792	46.42
340.004	23.89
340.217	-17.07
340.429	1.37
340.641	-2.73
340.854	44.37
341.066	58.71
341.278	62.8
341.491	93.52
341.703	85.33
341.915	-35.5
342.128	30.04
342.34	54.61
342.552	46.42
342.764	23.89
342.977	1.37
343.189	-0.68
343.401	7.51
343.613	68.95
343.826	27.99
344.038	36.18
344.25	77.14
344.462	13.65
344.674	11.61
344.886	11.61
345.099	-17.07
345.311	83.28
345.523	97.62
345.735	13.65
345.947	60.76
346.159	136.53
346.371	103.76
346.583	1.37
346.795	71
347.007	-17.07
347.219	-41.64
347.431	-41.64
347.643	13.65
347.855	27.99
348.067	107.86
348.279	44.37
348.491	95.57
348.703	95.57
348.915	-45.74
349.127	-10.92
349.339	21.84
349.551	7.51
349.763	56.66
349.975	32.08
350.187	40.28
350.399	-10.92
350.61	87.38
350.822	-21.16
351.034	71
351.246	32.08
351.458	32.08
351.669	89.43
351.881	36.18
352.093	5.46
352.305	13.65
352.517	109.91
352.728	87.38
352.94	-4.78
353.152	-19.11
353.363	-0.68
353.575	62.8
353.787	-8.87
353.999	-6.83
354.21	136.53
354.422	54.61
354.633	46.42
354.845	38.23
355.057	85.33
355.268	38.23
355.48	97.62
355.692	-0.68
355.903	48.47
356.115	68.95
356.326	-4.78
356.538	79.19
356.749	5.46
356.961	38.23
357.172	40.28
357.384	95.57
357.595	118.1
357.807	23.89
358.018	32.08
358.23	81.24
358.441	79.19
358.653	103.76
358.864	40.28
359.075	42.32
359.287	11.61
359.498	46.42
359.709	89.43
359.921	46.42
360.132	50.52
360.344	1.37
360.555	36.18
360.766	73.04
360.977	93.52
361.189	15.7
361.4	-49.83
361.611	56.66
361.823	32.08
362.034	81.24
362.245	-33.45
362.456	56.66
362.667	46.42
362.879	23.89
363.09	109.91
363.301	60.76
363.512	-12.97
363.723	73.04
363.935	56.66
364.146	-2.73
364.357	-4.78
364.568	50.52
364.779	-78.51
364.99	56.66
365.201	73.04
365.412	25.94
365.623	64.85
365.834	60.76
366.045	89.43
366.256	136.53
366.467	-51.88
366.678	52.56
366.889	66.9
367.1	97.62
367.311	38.23
367.522	-0.68
367.733	25.94
367.944	71
368.155	32.08
368.366	-12.97
368.577	77.14
368.788	19.8
368.999	25.94
369.209	13.65
369.42	132.44
369.631	62.8
369.842	62.8
370.053	62.8
370.264	42.32
370.474	52.56
370.685	11.61
370.896	79.19
371.107	111.96
371.317	-12.97
371.528	-6.83
371.739	87.38
371.95	36.18
372.16	21.84
372.371	-10.92
372.582	32.08
372.792	50.52
373.003	-12.97
373.214	52.56
373.424	21.84
373.635	36.18
373.846	42.32
374.056	66.9
374.267	3.41
374.477	68.95
374.688	50.52
374.898	27.99
375.109	19.8
375.319	-2.73
375.53	56.66
375.74	25.94
375.951	27.99
376.161	48.47
376.372	36.18
376.582	32.08
376.793	85.33
377.003	56.66
377.214	58.71
377.424	-15.02
377.635	109.91
377.845	13.65
378.055	120.15
378.266	-4.78
378.476	60.76
378.686	-17.07
378.897	79.19
379.107	114
379.317	122.2
379.528	7.51
379.738	95.57
379.948	5.46
380.158	56.66
380.369	66.9
380.579	60.76
380.789	60.76
380.999	48.47
381.21	75.09
381.42	99.67
381.63	75.09
381.84	85.33
382.05	83.28
382.261	64.85
382.471	-29.35
382.681	46.42
382.891	38.23
383.101	52.56
383.311	15.7
383.521	38.23
383.731	87.38
383.941	85.33
384.151	27.99
384.361	32.08
384.571	30.04
384.781	-23.21
384.991	23.89
385.201	152.91
385.411	30.04
385.621	95.57
385.831	73.04
386.041	32.08
386.251	38.23
386.461	60.76
386.671	13.65
386.881	118.1
387.091	77.14
387.301	32.08
387.511	23.89
387.72	48.47
387.93	128.34
388.14	-53.93
388.35	11.61
388.56	58.71
388.769	-15.02
388.979	111.96
389.189	15.7
389.399	56.66
389.609	128.34
389.818	30.04
390.028	95.57
390.238	75.09
390.447	73.04
390.657	68.95
390.867	32.08
391.076	48.47
391.286	60.76
391.496	50.52
391.705	46.42
391.915	54.61
392.125	60.76
392.334	79.19
392.544	13.65
392.753	34.13
392.963	-37.55
393.172	11.61
393.382	-21.16
393.591	105.81
393.801	77.14
394.01	93.52
394.22	58.71
394.429	111.96
394.639	21.84
394.848	75.09
395.058	81.24
395.267	111.96
395.477	62.8
395.686	89.43
395.895	183.63
396.105	85.33
396.314	42.32
396.524	107.86
396.733	19.8
396.942	148.82
397.152	97.62
397.361	54.61
397.57	50.52
397.78	124.24
397.989	95.57
398.198	167.25
398.407	19.8
398.617	179.54
398.826	124.24
399.035	132.44
399.244	52.56
399.453	128.34
399.663	89.43
399.872	46.42
400.081	101.72
400.29	191.83
400.499	134.48
400.708	148.82
400.917	81.24
401.127	114
401.336	48.47
401.545	157.01
401.754	136.53
401.963	79.19
402.172	-55.98
402.381	46.42
402.59	19.8
402.799	105.81
403.008	179.54
403.217	83.28
403.426	173.39
403.635	73.04
403.844	163.15
404.053	114
404.262	187.73
404.471	179.54
404.68	146.77
404.888	157.01
405.097	159.06
405.306	91.48
405.515	171.35
405.724	195.92
405.933	154.96
406.142	132.44
406.35	189.78
406.559	247.12
406.768	191.83
406.977	189.78
407.185	204.11
407.394	214.35
407.603	243.03
407.812	204.11
408.02	245.07
408.229	275.79
408.438	175.44
408.646	316.75
408.855	331.09
409.064	306.51
409.272	181.59
409.481	286.03
409.69	380.24
409.898	228.69
410.107	251.22
410.315	318.8
410.524	423.25
410.733	349.52
410.941	384.34
411.15	394.58
411.358	425.29
411.567	417.1
411.775	408.91
411.984	480.59
412.192	417.1
412.401	484.69
412.609	494.93
412.818	552.27
413.026	537.93
413.234	527.69
413.443	523.6
413.651	568.65
413.86	650.57
414.068	673.1
414.276	609.61
414.485	693.58
414.693	773.45
414.901	802.12
415.11	712.01
415.318	714.06
415.526	832.84
415.734	851.27
415.943	795.98
416.151	898.38
416.359	892.23
416.567	881.99
416.776	982.34
416.984	972.1
417.192	1039.69
417.4	1035.59
417.608	1058.12
417.817	1092.93
418.025	1170.76
418.233	1226.05
418.441	1242.43
418.649	1267.01
418.857	1408.32
419.065	1377.6
419.273	1303.87
419.481	1498.43
419.689	1555.77
419.897	1625.4
420.105	1625.4
420.313	1725.75
420.521	1768.76
420.729	1772.86
420.937	1842.49
421.145	1836.35
421.353	2059.57
421.561	2153.78
421.769	2010.42
421.977	2194.74
422.185	2198.84
422.393	2395.44
422.601	2481.46
422.809	2479.41
423.017	2508.08
423.224	2643.24
423.432	2831.66
423.64	2827.56
423.848	2897.19
424.056	2837.8
424.263	3050.79
424.471	3009.83
424.679	3233.06
424.887	3314.98
425.094	3398.95
425.302	3513.63
425.51	3538.21
425.718	3679.52
425.925	3806.49
426.133	3915.03
426.341	4054.3
426.548	4152.6
426.756	4238.61
426.964	4285.72
427.171	4594.96
427.379	4689.17
427.586	4740.36
427.794	4898.06
428.001	5094.66
428.209	5238.02
428.417	5274.88
428.624	5711.1
428.832	5430.53
429.039	5666.05
429.247	5506.31
429.454	6337.78
429.662	6421.75
429.869	6067.45
430.076	6520.05
430.284	6401.27
430.491	6667.5
430.699	6862.06
430.906	6915.31
431.114	7130.34
431.321	7410.92
431.528	7527.65
431.736	7965.92
431.943	8236.25
432.15	8207.58
432.358	8146.14
432.565	8533.2
432.772	8666.32
432.979	9106.63
433.187	9102.54
433.394	9254.09
433.601	9729.22
433.808	9592
434.016	9878.72
434.223	10200.25
434.43	10482.87
434.637	10622.13
434.844	11308.2
435.052	11449.51
435.259	11510.95
435.466	11541.67
435.673	11469.99
435.88	12360.86
436.087	12663.96
436.294	12670.1
436.501	12418.2
436.708	13145.23
436.915	12913.81
437.122	13978.75
437.329	13761.67
437.537	14195.84
437.743	14503.03
437.95	14285.95
438.157	15127.66
438.364	15332.46
438.571	15479.91
438.778	15572.07
438.985	17067.09
439.192	16338.01
439.399	17040.47
439.606	16485.47
439.813	17531.98
440.02	18555.96
440.227	17917
440.433	17841.22
440.64	18699.32
440.847	18457.66
441.054	18912.31
441.261	19821.61
441.467	19641.39
441.674	20216.86
441.881	20855.83
442.088	20855.83
442.294	20782.1
442.501	21113.88
442.708	21732.36
442.914	22139.91
443.121	23211
443.328	22598.65
443.534	24339.43
443.741	23720.94
443.948	23452.66
444.154	25134.04
444.361	24929.24
444.568	25005.02
444.774	25226.2
444.981	25199.57
445.187	25936.84
445.394	27143.1
445.6	26850.24
445.807	29154.2
446.013	28283.81
446.22	28875.68
446.426	29715.34
446.633	29873.04
446.839	30985.08
447.046	29578.13
447.252	31230.84
447.459	31538.04
447.665	31181.69
447.871	32607.08
448.078	33925.97
448.284	32308.07
448.491	33276.76
448.697	34138.96
448.903	34601.8
449.11	35269.44
449.316	34188.11
449.522	35111.74
449.728	36293.42
449.935	36234.03
450.141	36207.4
450.347	37139.23
450.553	35771.19
450.76	36098.86
450.966	37313.31
451.172	36809.51
451.378	37731.09
451.584	37083.94
451.791	37774.1
451.997	37800.72
452.203	38105.87
452.409	38034.19
452.615	38109.97
452.821	36752.16
453.027	36373.29
453.233	38267.66
453.44	36617
453.646	37131.04
453.852	36875.04
454.058	37667.61
454.264	36256.56
454.47	37321.5
454.676	36039.47
454.882	37266.2
455.088	34136.91
455.294	34638.66
455.5	34908.99
455.705	35922.74
455.911	34163.53
456.117	33659.73
456.323	32668.51
456.529	31196.03
456.735	32482.15
456.941	31257.46
457.147	31196.03
457.352	30147.47
457.558	29899.66
457.764	29703.06
457.97	29457.3
458.176	28822.43
458.381	28388.26
458.587	27194.29
458.793	27274.17
458.999	25766.86
459.204	27524.02
459.41	26899.39
459.616	24982.49
459.821	25248.72
460.027	25263.06
460.233	24450.02
460.438	23415.79
460.644	23641.07
460.85	22834.17
461.055	22252.55
461.261	22287.36
461.466	20472.86
461.672	19770.41
461.878	21521.42
462.083	19973.16
462.289	19686.44
462.494	19375.15
462.7	18750.52
462.905	18433.08
463.111	18725.94
463.316	18852.92
463.522	18308.16
463.727	18545.72
463.932	18426.94
464.138	18164.8
464.343	18469.95
464.549	17607.75
464.754	18353.21
464.959	18091.07
465.165	17998.91
465.37	17271.89
465.575	17003.6
465.781	17343.56
465.986	17585.22
466.191	17001.55
466.397	16637.02
466.602	15709.29
466.807	16217.18
467.012	16634.97
467.218	16333.92
467.423	15955.04
467.628	16168.03
467.833	17019.99
468.038	16426.07
468.244	15783.01
468.449	16252
468.654	15952.99
468.859	15590.5
469.064	15369.32
469.269	15158.38
469.474	15193.2
469.679	15430.76
469.885	14900.34
470.09	15199.34
470.295	15213.68
470.5	14896.24
470.705	14779.51
470.91	14388.35
471.115	14404.73
471.32	14759.03
471.525	14693.49
471.73	14023.81
471.935	14077.05
472.139	13671.56
472.344	13923.46
472.549	13638.79
472.754	13581.45
472.959	13075.6
473.164	13134.99
473.369	13038.73
473.574	13331.59
473.778	13313.16
473.983	13024.4
474.188	12838.03
474.393	12371.1
474.598	12534.93
474.802	12502.17
475.007	12303.51
475.212	12158.11
475.417	11615.4
475.621	11871.39
475.826	11728.03
476.031	11705.51
476.235	11394.22
476.44	11556.01
476.645	11164.84
476.849	11558.05
477.054	11170.99
477.259	11115.69
477.463	11011.25
477.668	10974.38
477.872	11064.49
478.077	10605.75
478.282	10394.81
478.486	10372.28
478.691	10407.09
478.895	10249.4
479.1	10233.02
479.304	10198.2
479.509	9968.83
479.713	10114.24
479.918	10034.36
480.122	9952.45
480.326	10013.88
480.531	10009.79
480.735	9755.84
480.94	9632.96
481.144	10163.39
481.348	9612.48
481.553	9743.55
481.757	9587.91
481.961	9704.64
482.166	9858.24
482.37	9477.32
482.574	9499.84
482.778	9381.06
482.983	9632.96
483.187	9688.26
483.391	9739.46
483.595	9499.84
483.8	9327.81
484.004	9387.21
484.208	9682.11
484.412	9448.65
484.616	9675.97
484.821	9452.74
485.025	9542.85
485.229	9694.4
485.433	9262.28
485.637	9477.32
485.841	9469.12
486.045	9669.83
486.249	9436.36
486.453	9528.52
486.657	9419.97
486.861	9542.85
487.065	9206.98
487.269	9602.24
487.473	9399.49
487.677	9655.49
487.881	9620.67
488.085	9426.12
488.289	9518.28
488.493	9399.49
488.697	9794.75
488.901	9405.64
489.105	9608.39
489.309	9639.11
489.512	9589.95
489.716	9665.73
489.92	9467.08
490.124	9563.33
490.328	9512.13
490.531	9788.61
490.735	9657.54
490.939	9866.43
491.143	9669.83
491.346	9714.88
491.55	10034.36
491.754	9905.34
491.958	10032.32
492.161	10058.94
492.365	10042.56
492.569	10009.79
492.772	10251.45
492.976	10128.57
493.18	10446.01
493.383	10247.35
493.587	10386.61
493.79	10558.64
493.994	10390.71
494.197	10497.21
494.401	10468.53
494.605	10597.56
494.808	10990.77
495.012	10765.49
495.215	10896.56
495.419	11003.05
495.622	10896.56
495.825	11056.3
496.029	11009.2
496.232	11517.09
496.436	11416.74
496.639	11531.43
496.843	11459.75
497.046	11844.77
497.249	11699.36
497.453	11893.92
497.656	12254.36
497.859	12108.96
498.063	12463.26
498.266	12297.37
498.469	12377.24
498.673	12842.13
498.876	12862.61
499.079	12928.14
499.282	12938.38
499.485	13300.87
499.689	13159.56
499.892	13513.86
500.095	13403.27
500.298	13950.08
500.501	13714.56
500.705	14244.99
500.908	14310.52
501.111	14406.78
501.314	14476.41
501.517	14437.5
501.72	14877.81
501.923	14814.32
502.126	15103.09
502.329	15131.76
502.532	15527.02
502.735	15510.63
502.938	15946.85
503.141	15881.31
503.344	16061.54
503.547	16084.06
503.75	16469.08
503.953	16628.82
504.156	17022.03
504.359	16866.39
504.562	16911.44
504.765	17357.9
504.968	17495.11
505.17	17603.66
505.373	17658.95
505.576	18152.51
505.779	18385.98
505.982	18381.88
506.185	18719.8
506.387	18857.01
506.59	19323.95
506.793	19385.39
506.996	19516.46
507.198	19846.18
507.401	19567.66
507.604	19917.86
507.807	20554.78
508.009	20493.34
508.212	20450.33
508.415	21040.15
508.617	21484.56
508.82	21474.32
509.022	21357.58
509.225	21814.28
509.428	21851.14
509.63	22125.57
509.833	22144
510.035	22823.93
510.238	22850.55
510.44	23309.3
510.643	23198.71
510.845	23356.4
511.048	23434.22
511.25	24191.97
511.453	23856.11
511.655	24708.06
511.858	24763.36
512.06	24857.56
512.262	25179.09
512.465	24904.67
512.667	25320.4
512.87	25750.48
513.072	25893.83
513.274	26493.89
513.477	26723.26
513.679	26854.33
513.881	26919.87
514.084	27265.97
514.286	27567.02
514.488	27507.63
514.69	28285.86
514.893	28449.7
515.095	28455.84
515.297	28883.87
515.499	28677.02
515.701	29639.57
515.904	29942.67
516.106	30145.42
516.308	30102.41
516.51	30933.89
516.712	30874.49
516.914	30970.75
517.116	31458.17
517.318	31449.97
517.52	31460.21
517.722	31857.52
517.925	32719.71
518.127	32453.48
518.329	32967.52
518.531	33039.2
518.733	33399.64
518.935	33905.49
519.136	33647.44
519.338	34288.46
519.54	34120.52
519.742	34876.23
519.944	34974.53
520.146	35339.07
520.348	35763
520.55	36311.85
520.752	36516.65
520.954	36834.08
521.155	36795.17
521.357	37096.22
521.559	37618.46
521.761	38007.57
521.963	37909.27
522.164	38292.24
522.366	38429.45
522.568	38785.8
522.77	38718.21
522.971	39398.14
523.173	39314.17
523.375	39879.41
523.576	39637.75
523.778	39965.43
523.98	40596.2
524.181	40655.59
524.383	40760.04
524.584	41106.15
524.786	40899.3
524.988	41061.09
525.189	41990.87
525.391	42218.19
525.592	42027.73
525.794	41878.23
525.995	42881.74
526.197	42533.58
526.398	42721.99
526.6	43279.04
526.801	42851.02
527.003	43346.62
527.204	43330.24
527.406	43807.42
527.607	44018.36
527.808	44362.42
528.01	43797.18
528.211	44106.42
528.412	44524.21
528.614	44483.25
528.815	44585.64
529.016	45179.56
529.218	44589.74
529.419	45085.35
529.62	45025.96
529.822	44823.21
530.023	45388.45
530.224	45179.56
530.425	45429.41
530.626	45433.5
530.828	45339.3
531.029	46150.29
531.23	45597.34
531.431	45814.43
531.632	46324.37
531.833	46355.09
532.035	46113.43
532.236	46041.75
532.437	46256.79
532.638	45607.58
532.839	46203.54
533.04	46541.46
533.241	46293.65
533.442	46969.48
533.643	46654.09
533.844	46811.79
534.045	46625.42
534.246	45775.51
534.447	46969.48
534.648	46490.26
534.849	46596.75
535.05	46574.22
535.251	46881.42
535.451	46723.72
535.652	46895.75
535.853	46693
536.054	47374.98
536.255	47049.35
536.456	46615.18
536.657	47280.77
536.857	47403.65
537.058	46787.21
537.259	47671.93
537.46	46953.1
537.66	46709.39
537.861	47270.53
538.062	46725.77
538.263	47391.36
538.463	46826.12
538.664	46971.53
538.865	47202.95
539.065	47432.32
539.266	46961.29
539.466	47645.31
539.667	46899.85
539.868	47563.39
540.068	47104.65
540.269	47043.21
540.469	47366.79
540.67	46809.74
540.87	47118.98
541.071	47211.14
541.271	46963.34
541.472	47485.57
541.672	46912.14
541.873	46819.98
542.073	46514.83
542.274	47389.31
542.474	46838.41
542.675	46629.52
542.875	47274.63
543.075	47096.45
543.276	46729.87
543.476	47215.24
543.676	46617.23
543.877	47538.82
544.077	47039.11
544.277	46936.71
544.478	46566.03
544.678	47637.12
544.878	47030.92
545.078	46817.93
545.279	46715.53
545.479	46758.54
545.679	47041.16
545.879	46910.09
546.079	47129.22
546.28	46985.86
546.48	46539.41
546.68	46776.97
546.88	47043.21
547.08	46959.24
547.28	46492.3
547.48	46695.05
547.68	47006.34
547.88	46555.79
548.081	46877.32
548.281	46865.03
548.481	46862.99
548.681	46719.63
548.881	46838.41
549.081	46885.51
549.28	46881.42
549.48	47014.54
549.68	46828.17
549.88	47254.15
550.08	46645.9
550.28	46899.85
550.48	46621.33
550.68	47006.34
550.88	46127.77
551.08	46408.34
551.279	46695.05
551.479	46465.68
551.679	46527.12
551.879	47075.97
552.079	46817.93
552.278	46045.85
552.478	46711.44
552.678	46543.5
552.878	46645.9
553.077	46334.61
553.277	45849.24
553.477	46930.57
553.676	46609.04
553.876	46473.87
554.076	45970.07
554.275	45965.98
554.475	45744.8
554.674	46008.98
554.874	46426.77
555.074	45998.74
555.273	46248.6
555.473	46199.44
555.672	45793.95
555.872	45990.55
556.071	46314.13
556.271	46273.17
556.47	46019.22
556.67	45421.22
556.869	45548.19
557.068	46043.8
557.268	45339.3
557.467	45712.03
557.667	45281.95
557.866	45871.77
558.065	45447.84
558.265	45159.08
558.464	45288.1
558.663	45806.23
558.863	44827.31
559.062	46023.32
559.261	45025.96
559.461	45488.8
559.66	45017.77
559.859	45208.23
560.058	45007.53
560.258	44624.56
560.457	44520.11
560.656	44991.14
560.855	44141.24
561.054	44851.88
561.253	44368.56
561.453	44673.71
561.652	44753.58
561.851	44483.25
562.05	44069.56
562.249	43954.87
562.448	44462.77
562.647	44399.28
562.846	43643.58
563.045	43985.59
563.244	43264.71
563.443	44235.44
563.642	43530.94
563.841	43897.53
564.04	43397.82
564.239	43995.83
564.438	43631.29
564.637	43715.26
564.836	43219.65
565.035	43035.33
565.234	42877.64
565.432	42797.77
565.631	43107.01
565.83	42617.55
566.029	42521.29
566.228	42638.03
566.427	42545.87
566.625	42119.89
566.824	42062.55
567.023	42171.09
567.222	41425.63
567.42	42287.82
567.619	41990.87
567.818	41421.53
568.016	41560.8
568.215	41937.62
568.414	41345.76
568.612	42177.23
568.811	41288.42
569.01	41376.48
569.208	40719.08
569.407	41593.56
569.605	40739.56
569.804	41190.11
570.002	40342.25
570.201	40760.04
570.4	40372.97
570.598	40438.51
570.797	40129.26
570.995	40264.43
571.193	39830.26
571.392	40270.57
571.59	39713.53
571.789	40026.87
571.987	39758.58
572.186	39621.37
572.384	39561.98
572.582	39637.75
572.781	39594.75
572.979	39348.99
573.177	39144.19
573.376	39299.84
573.574	38970.11
573.772	39103.23
573.971	38636.3
574.169	38437.64
574.367	38466.31
574.565	38759.17
574.763	38269.71
574.962	37946.13
575.16	37874.45
575.358	38574.86
575.556	37739.29
575.754	38081.3
575.952	37399.32
576.151	37667.61
576.349	37360.41
576.547	37620.5
576.745	37552.92
576.943	37319.45
577.141	37210.91
577.339	37552.92
577.537	36860.71
577.735	37143.33
577.933	36782.88
578.131	36760.36
578.329	36676.39
578.527	36322.09
578.725	36672.29
578.923	36469.54
579.121	36074.29
579.319	36037.42
579.516	36758.31
579.714	36373.29
579.912	36154.16
580.11	35699.51
580.308	36117.29
580.506	35674.93
580.704	35101.5
580.901	35504.95
581.099	35638.07
581.297	35226.43
581.495	35011.39
581.692	35363.64
581.89	34927.42
582.088	35052.35
582.285	34892.61
582.483	34945.86
582.681	34943.81
582.878	34624.33
583.076	34251.59
583.274	34642.76
583.471	34030.41
583.669	34169.68
583.866	33903.44
584.064	34726.72
584.262	33538.9
584.459	33833.81
584.657	33733.46
584.854	33817.43
585.052	33164.12
585.249	33842
585.447	33532.76
585.644	32777.06
585.841	33344.34
586.039	33264.47
586.236	32947.04
586.434	32963.42
586.631	32940.89
586.828	33020.77
587.026	32826.21
587.223	32527.2
587.42	32682.85
587.618	32334.7
587.815	32084.84
588.012	32185.19
588.21	32263.02
588.407	32547.68
588.604	32039.79
588.801	31576.95
588.999	31994.73
589.196	31875.95
589.393	31710.07
589.59	31583.09
589.787	31419.25
589.984	31226.74
590.182	31157.11
590.379	31271.8
590.576	30854.01
590.773	31009.66
590.97	30442.37
591.167	30774.14
591.364	30460.8
591.561	30636.93
591.758	30401.41
591.955	30180.23
592.152	30708.61
592.349	30227.34
592.546	30380.93
592.743	30391.17
592.94	29803.41
593.137	29860.75
593.334	29803.41
593.531	29612.95
593.727	29760.4
593.924	29389.72
594.121	29320.09
594.318	29301.65
594.515	28885.92
594.712	29215.64
594.908	29201.3
595.105	29162.39
595.302	29025.18
595.499	28826.53
595.696	28812.19
595.892	28715.94
596.089	28971.93
596.286	28752.8
596.482	28394.4
596.679	28310.44
596.876	28246.95
597.072	28310.44
597.269	28072.87
597.466	27884.46
597.662	27911.08
597.859	27638.7
598.055	27993
598.252	27626.42
598.448	27556.78
598.645	27564.98
598.841	26979.26
599.038	27607.98
599.234	27610.03
599.431	26936.25
599.627	27007.93
599.824	27405.24
600.02	26799.04
600.217	27095.99
600.413	26682.3
600.609	26641.34
600.806	26592.19
601.002	26659.77
601.198	26356.68
601.395	26354.63
601.591	26072.01
601.787	25996.23
601.984	26299.33
602.18	26299.33
602.376	25959.37
602.572	25899.98
602.769	25789.39
602.965	25519.06
603.161	25611.21
603.357	25410.51
603.553	25308.12
603.75	25588.69
603.946	25355.22
604.142	25273.3
604.338	25011.16
604.534	25277.4
604.73	24908.76
604.926	24820.7
605.122	25048.02
605.318	24691.68
605.514	24646.62
605.71	24710.11
605.906	24425.44
606.102	24615.9
606.298	24597.47
606.494	24714.2
606.69	24640.48
606.886	24673.24
607.082	24179.68
607.278	24306.66
607.474	23870.44
607.67	24073.19
607.866	23647.21
608.062	24083.43
608.257	23997.42
608.453	23671.79
608.649	23577.58
608.845	23225.33
609.041	23598.06
609.236	23370.74
609.432	23864.3
609.628	23587.82
609.824	23337.97
610.019	23151.6
610.215	22991.86
610.411	23301.11
610.606	23088.12
610.802	22991.86
610.998	22934.52
611.193	23110.64
611.389	22969.33
611.584	22864.89
611.78	22612.99
611.976	22754.3
612.171	22758.39
612.367	22578.17
612.562	22438.91
612.758	22477.82
612.953	22408.19
613.149	22651.9
613.344	22393.86
613.539	22598.65
613.735	22289.41
613.93	22371.33
614.126	22283.27
614.321	22516.73
614.517	22330.37
614.712	22152.2
614.907	22057.99
615.103	22242.31
615.298	21955.59
615.493	22324.22
615.688	21599.24
615.884	22410.24
616.079	21548.04
616.274	21836.81
616.47	21447.69
616.665	21629.96
616.86	21795.85
617.055	21623.82
617.25	21627.92
617.445	21875.72
617.641	21165.07
617.836	21621.77
618.031	21169.17
618.226	21351.44
618.421	21085.2
618.616	21476.37
618.811	20505.63
619.006	20904.98
619.201	20519.96
619.396	20765.72
619.591	20472.86
619.786	20530.2
619.981	20225.06
620.176	20560.92
620.371	20014.12
620.566	20239.39
620.761	20214.82
620.956	20300.83
621.151	19866.66
621.346	20061.22
621.541	19758.12
621.735	19805.22
621.93	19661.87
622.125	19899.43
622.32	19215.41
622.515	19483.69
622.709	19219.5
622.904	19266.61
623.099	19039.28
623.294	19256.37
623.488	18828.34
623.683	18977.84
623.878	18676.79
624.072	18594.87
624.267	18365.5
624.462	18547.77
624.656	18228.29
624.851	18279.49
625.046	18361.41
625.24	18216
625.435	17839.17
625.629	17876.04
625.824	17661
626.018	17826.89
626.213	17378.38
626.407	17427.53
626.602	17296.46
626.796	17261.65
626.991	17114.19
627.185	17204.3
627.38	16829.52
627.574	16774.23
627.768	16958.55
627.963	16620.63
628.157	16497.75
628.352	16634.97
628.546	16333.92
628.74	16557.14
628.935	16118.88
629.129	16319.58
629.323	15895.65
629.517	16268.38
629.712	15944.8
629.906	16047.2
630.1	15727.72
630.294	15711.33
630.489	15549.54
630.683	15481.96
630.877	15189.1
631.071	15262.83
631.265	15197.29
631.459	15082.61
631.653	15096.94
631.848	15168.62
632.042	14646.39
632.236	15037.55
632.43	14822.52
632.624	14910.58
632.818	14404.73
633.012	14357.63
633.206	14392.44
633.4	14357.63
633.594	14240.89
633.788	14312.57
633.982	13960.32
634.176	14042.24
634.369	14204.03
634.563	14142.59
634.757	13911.17
634.951	13755.52
635.145	13972.61
635.339	13651.08
635.533	13474.95
635.726	13542.53
635.92	13491.34
636.114	13433.99
636.308	13470.86
636.501	13118.61
636.695	13137.04
636.889	13190.28
637.083	13059.21
637.276	12911.76
637.47	12901.52
637.664	12682.39
637.857	12770.45
638.051	12631.19
638.244	12739.73
638.438	12295.32
638.632	12647.57
638.825	12205.21
639.019	12201.12
639.212	12111
639.406	12342.42
639.599	12190.88
639.793	12151.96
639.986	11642.02
640.18	12012.7
640.373	12088.48
640.567	11713.7
640.76	11844.77
640.954	11543.72
641.147	11361.45
641.34	11510.95
641.534	11510.95
641.727	11297.96
641.92	11242.67
642.114	11377.83
642.307	11402.41
642.5	11205.8
642.694	10927.28
642.887	10779.82
643.08	11011.25
643.273	10781.87
643.467	10972.33
643.66	10876.08
643.853	10947.76
644.046	10687.67
644.239	10517.68
644.432	10525.88
644.626	10347.7
644.819	10210.49
645.012	10378.42
645.205	10456.25
645.398	10355.9
645.591	10153.15
645.784	10091.71
645.977	10036.41
646.17	10007.74
646.363	9811.14
646.556	9825.47
646.749	9934.01
646.942	9741.5
647.135	9782.46
647.328	9761.98
647.521	9540.8
647.714	9544.9
647.907	9688.26
648.099	9573.57
648.292	9518.28
648.485	9565.38
648.678	9362.63
648.871	9137.35
649.064	9211.08
649.256	9307.34
649.449	9157.83
649.642	9141.45
649.835	8942.8
650.027	8842.45
650.22	8912.08
650.413	8840.4
650.605	8975.56
650.798	8846.54
650.991	8707.28
651.183	8772.82
651.376	8592.59
651.568	8637.65
651.761	8522.96
651.954	8561.87
652.146	8531.16
652.339	8502.48
652.531	8430.8
652.724	8363.22
652.916	8217.82
653.109	8277.21
653.301	8283.35
653.494	8228.06
653.686	8051.93
653.879	8164.57
654.071	8160.47
654.263	7976.16
654.456	7871.71
654.648	8053.98
654.84	7814.37
655.033	7851.23
655.225	7972.06
655.417	7785.69
655.61	7849.18
655.802	7816.41
655.994	7515.36
656.186	7763.17
656.379	7562.47
656.571	7494.88
656.763	7509.22
656.955	7453.92
657.148	7427.3
657.34	7392.48
657.532	7388.39
657.724	7269.61
657.916	7320.81
658.108	7167.21
658.3	7300.33
658.492	7251.17
658.684	6937.84
658.876	7169.26
659.068	7101.67
659.26	6980.84
659.452	7001.32
659.644	6937.84
659.836	6849.77
660.028	6907.12
660.22	6790.38
660.412	6792.43
660.604	6855.92
660.796	6845.68
660.988	6692.08
661.18	6677.74
661.372	6567.15
661.563	6638.83
661.755	6694.13
661.947	6634.74
662.139	6477.04
662.331	6421.75
662.522	6321.4
662.714	6474.99
662.906	6321.4
663.097	6296.82
663.289	6309.11
663.481	6249.72
663.673	6200.57
663.864	6143.22
664.056	6071.54
664.247	6200.57
664.439	6010.11
664.631	6116.6
664.822	6135.03
665.014	5999.87
665.205	6014.2
665.397	6089.98
665.588	5987.58
665.78	5846.27
665.971	5819.64
666.163	5813.5
666.354	5821.69
666.546	5803.26
666.737	5770.49
666.929	5940.47
667.12	5856.51
667.311	5823.74
667.503	5545.22
667.694	5637.38
667.885	5668.09
668.077	5618.94
668.268	5680.38
668.459	5766.4
668.651	5461.25
668.842	5395.71
669.033	5485.83
669.224	5418.24
669.416	5442.82
669.607	5516.55
669.798	5354.76
669.989	5453.06
670.18	5448.96
670.371	5285.12
670.563	5354.76
670.754	5276.93
670.945	5238.02
671.136	5190.92
671.327	5209.35
671.518	5223.69
671.709	5094.66
671.9	5215.49
672.091	5203.21
672.282	5057.8
672.473	4912.39
672.664	5082.38
672.855	5086.47
673.046	5012.74
673.237	5041.42
673.428	4953.35
673.619	5094.66
673.809	4984.07
674	4979.98
674.191	4726.03
674.382	4910.35
674.573	4689.17
674.764	4928.78
674.954	4984.07
675.145	4801.8
675.336	4939.02
675.527	4803.85
675.717	4766.99
675.908	4777.23
676.099	4846.86
676.289	4719.89
676.48	4726.03
676.671	4750.6
676.861	4842.76
677.052	4795.66
677.243	4642.06
677.433	4703.5
677.624	4730.13
677.814	4762.89
678.005	4676.88
678.195	4586.77
678.386	4617.49
678.576	4689.17
678.767	4670.73
678.957	4611.34
679.148	4652.3
679.338	4601.1
679.529	4672.78
679.719	4603.15
679.909	4676.88
680.1	4416.79
680.29	4496.66
680.481	4504.85
680.671	4562.19
680.861	4418.83
681.052	4492.56
681.242	4564.24
681.432	4398.35
681.622	4445.46
681.813	4537.62
682.003	4410.64
682.193	4341.01
682.383	4396.31
682.573	4435.22
682.764	4523.28
682.954	4347.15
683.144	4453.65
683.334	4242.71
683.524	4269.33
683.714	4414.74
683.904	4263.19
684.094	4304.15
684.284	4316.44
684.474	4320.53
684.664	4263.19
684.854	4300.05
685.044	4154.65
685.234	4222.23
685.424	4132.12
685.614	4289.81
685.804	4218.13
685.994	4295.96
686.184	4261.14
686.374	4259.09
686.564	4168.98
686.753	4218.13
686.943	4091.16
687.133	4179.22
687.323	4117.78
687.513	4273.43
687.702	4156.69
687.892	4070.68
688.082	4021.53
688.272	4078.87
688.461	3921.18
688.651	4142.36
688.841	3978.52
689.03	4105.49
689.22	3876.12
689.41	3982.62
689.599	3923.23
689.789	3984.66
689.979	3845.4
690.168	3964.18
690.358	3943.71
690.547	3824.92
690.737	3861.79
690.926	3964.18
691.116	3857.69
691.305	3853.59
691.495	3820.83
691.684	3839.26
691.874	3808.54
692.063	3726.62
692.252	3613.98
692.442	3798.3
692.631	3534.11
692.82	3759.39
693.01	3712.28
693.199	3677.47
693.388	3628.32
693.578	3786.01
693.767	3759.39
693.956	3640.61
694.146	3661.09
694.335	3652.89
694.524	3536.16
694.713	3609.89
694.902	3589.41
695.092	3659.04
695.281	3452.19
695.47	3454.24
695.659	3552.54
695.848	3513.63
696.037	3564.83
696.226	3679.52
696.415	3573.02
696.604	3681.57
696.793	3525.92
696.982	3650.85
697.171	3579.17
697.36	3570.97
697.549	3456.29
697.738	3517.73
697.927	3513.63
698.116	3538.21
698.305	3487.01
698.494	3474.72
698.683	3429.66
698.872	3456.29
699.061	3491.1
699.25	3415.33
699.438	3509.54
699.627	3478.82
699.816	3429.66
700.005	3460.38
700.193	3407.14
700.382	3530.02
700.571	3417.38
700.76	3603.74
700.948	3470.62
701.137	3509.54
701.326	3470.62
701.514	3495.2
701.703	3419.43
701.892	3366.18
702.08	3396.9
702.269	3509.54
702.457	3396.9
702.646	3456.29
702.834	3357.99
703.023	3388.71
703.212	3398.95
703.4	3390.75
703.589	3538.21
703.777	3454.24
703.965	3333.41
704.154	3452.19
704.342	3329.31
704.531	3519.78
704.719	3339.55
704.907	3417.38
705.096	3355.94
705.284	3384.61
705.472	3476.77
705.661	3259.68
705.849	3362.08
706.037	3423.52
706.226	3472.67
706.414	3452.19
706.602	3382.56
706.79	3376.42
706.979	3306.79
707.167	3308.83
707.355	3411.23
707.543	3304.74
707.731	3409.19
707.919	3429.66
708.107	3366.18
708.296	3312.93
708.484	3374.37
708.672	3417.38
708.86	3390.75
709.048	3487.01
709.236	3411.23
709.424	3396.9
709.612	3300.64
709.8	3364.13
709.988	3370.27
710.176	3409.19
710.364	3452.19
710.551	3271.97
710.739	3530.02
710.927	3331.36
711.115	3321.12
711.303	3464.48
711.491	3259.68
711.679	3331.36
711.866	3423.52
712.054	3206.44
712.242	3233.06
712.43	3511.58
712.617	3284.26
712.805	3280.16
712.993	3349.79
713.181	3286.31
713.368	3239.2
713.556	3441.95
713.744	3407.14
713.931	3421.47
714.119	3482.91
714.306	3368.23
714.494	3378.47
714.682	3317.03
714.869	3222.82
715.057	3343.65
715.244	3441.95
715.432	3423.52
715.619	3353.89
715.807	3247.4
715.994	3300.64
716.182	3386.66
716.369	3271.97
716.556	3317.03
716.744	3331.36
716.931	3284.26
717.119	3382.56
717.306	3482.91
717.493	3364.13
717.681	3247.4
717.868	3398.95
718.055	3304.74
718.242	3317.03
718.43	3419.43
718.617	3319.07
718.804	3355.94
718.991	3327.27
719.179	3202.34
719.366	3370.27
719.553	3366.18
719.74	3444
719.927	3296.55
720.114	3257.64
720.301	3310.88
720.488	3177.76
720.676	3345.7
720.863	3355.94
721.05	3284.26
721.237	3165.48
721.424	3153.19
721.611	3300.64
721.798	3112.23
721.985	3077.41
722.172	3175.72
722.358	3202.34
722.545	3267.88
722.732	3233.06
722.919	3222.82
723.106	3206.44
723.293	3241.25
723.48	3165.48
723.667	3175.72
723.853	3091.75
724.04	3251.49
724.227	3206.44
724.414	3269.92
724.6	3245.35
724.787	3198.24
724.974	3208.48
725.161	3165.48
725.347	3155.24
725.534	3140.9
725.72	3093.8
725.907	3265.83
726.094	3271.97
726.28	3157.29
726.467	3095.85
726.653	3157.29
726.84	3087.65
727.027	3222.82
727.213	3028.26
727.4	3280.16
727.586	3165.48
727.773	3202.34
727.959	3142.95
728.145	3259.68
728.332	3173.67
728.518	3112.23
728.705	3077.41
728.891	3132.71
729.077	2940.2
729.264	3288.36
729.45	3022.12
729.636	3165.48
729.823	3079.46
730.009	3210.53
730.195	2956.58
730.382	3108.13
730.568	3038.5
730.754	3112.23
730.94	3030.31
731.126	3101.99
731.313	3032.36
731.499	3183.91
731.685	3108.13
731.871	3015.98
732.057	3030.31
732.243	3114.28
732.429	3065.13
732.615	3073.32
732.801	3015.98
732.987	3018.02
733.173	3069.22
733.359	3022.12
733.545	3003.69
733.731	3079.46
733.917	3097.89
734.103	3020.07
734.289	2952.49
734.475	3040.55
734.661	3101.99
734.847	2942.25
735.033	3011.88
735.219	2972.97
735.404	2993.45
735.59	2854.19
735.776	2839.85
735.962	2932.01
736.148	2932.01
736.333	3015.98
736.519	2884.91
736.705	2956.58
736.89	3018.02
737.076	2811.18
737.262	2778.41
737.447	2907.43
737.633	2821.42
737.819	2827.56
738.004	2792.75
738.19	2880.81
738.375	2723.12
738.561	2845.99
738.747	2759.98
738.932	2833.71
739.118	2825.51
739.303	2917.67
739.489	2786.6
739.674	2868.52
739.859	2626.86
740.045	2755.88
740.23	2766.12
740.416	2772.27
740.601	2798.89
740.786	2743.6
740.972	2714.92
741.157	2721.07
741.342	2657.58
741.528	2563.37
741.713	2694.44
741.898	2577.71
742.084	2667.82
742.269	2669.87
742.454	2555.18
742.639	2604.33
742.824	2551.09
743.01	2620.72
743.195	2655.53
743.38	2608.43
743.565	2592.05
743.75	2579.76
743.935	2549.04
744.12	2610.48
744.305	2411.82
744.49	2460.98
744.675	2444.59
744.86	2360.63
745.045	2575.66
745.23	2352.43
745.415	2448.69
745.6	2563.37
745.785	2383.15
745.97	2452.78
746.155	2366.77
746.34	2395.44
746.525	2405.68
746.71	2354.48
746.895	2311.47
747.079	2137.4
747.264	2342.19
747.449	2250.03
747.634	2166.07
747.819	2290.99
748.003	2157.88
748.188	2223.41
748.373	2237.75
748.557	2209.08
748.742	2231.6
748.927	2223.41
749.111	2174.26
749.296	2164.02
749.481	2131.25
749.665	2037.05
749.85	2030.9
750.034	2082.1
750.219	2037.05
750.404	2137.4
750.588	2069.81
750.773	2006.33
750.957	1979.7
751.141	2092.34
751.326	2012.47
751.51	1948.98
751.695	1813.82
751.879	1903.93
752.064	2014.52
752.248	1924.41
752.432	1901.88
752.617	2022.71
752.801	1871.16
752.985	1873.21
753.17	1887.54
753.354	1867.06
753.538	1815.87
753.722	1832.25
753.907	1828.15
754.091	1754.43
754.275	1830.2
754.459	1690.94
754.643	1774.91
754.828	1756.47
755.012	1711.42
755.196	1666.36
755.38	1744.19
755.564	1688.89
755.748	1674.56
755.932	1609.02
756.116	1723.71
756.3	1623.36
756.484	1654.08
756.668	1629.5
756.852	1500.48
757.036	1617.21
757.22	1510.72
757.404	1625.4
757.588	1598.78
757.772	1592.64
757.956	1488.19
758.14	1566.01
758.323	1506.62
758.507	1428.8
758.691	1457.47
758.875	1533.25
759.059	1494.33
759.242	1375.55
759.426	1322.31
759.61	1457.47
759.794	1443.14
759.977	1445.18
760.161	1488.19
760.345	1465.66
760.528	1447.23
760.712	1340.74
760.895	1369.41
761.079	1353.02
761.263	1316.16
761.446	1312.07
761.63	1305.92
761.813	1465.66
761.997	1312.07
762.18	1316.16
762.364	1289.54
762.547	1258.82
762.731	1310.02
762.914	1318.21
763.098	1203.52
763.281	1299.78
763.464	1279.3
763.648	1289.54
763.831	1291.59
764.015	1187.14
764.198	1215.81
764.381	1228.1
764.564	1307.97
764.748	1199.43
764.931	1293.63
765.114	1264.96
765.297	1166.66
765.481	1160.52
765.664	1127.75
765.847	1219.91
766.03	1183.04
766.213	1117.51
766.397	1140.04
766.58	1176.9
766.763	1203.52
766.946	1142.08
767.129	1097.03
767.312	1062.21
767.495	1088.84
767.678	1011.01
767.861	1193.28
768.044	1178.95
768.227	1162.56
768.41	1213.76
768.593	1074.5
768.776	1115.46
768.959	1072.45
769.142	1154.37
769.324	1099.08
769.507	937.29
769.69	1127.75
769.873	1047.88
770.056	1154.37
770.239	1045.83
770.421	1142.08
770.604	1103.17
770.787	1011.01
770.97	931.14
771.152	1025.35
771.335	1027.4
771.518	976.2
771.7	1080.64
771.883	1103.17
772.066	1023.3
772.248	1035.59
772.431	1062.21
772.613	957.77
772.796	990.53
772.978	980.29
773.161	994.63
773.343	894.28
773.526	906.57
773.708	920.9
773.891	877.9
774.073	984.39
774.256	947.53
774.438	947.53
774.621	851.27
774.803	978.25
774.985	1011.01
775.168	982.34
775.35	888.14
775.532	931.14
775.715	892.23
775.897	914.76
776.079	851.27
776.261	863.56
776.444	945.48
776.626	785.74
776.808	894.28
776.99	834.89
777.173	896.33
777.355	818.5
777.537	859.46
777.719	759.11
777.901	748.87
778.083	816.46
778.265	783.69
778.447	871.75
778.629	798.03
778.811	806.22
778.993	763.21
779.175	808.26
779.357	787.79
779.539	755.02
779.721	752.97
779.903	806.22
780.085	810.31
780.267	701.77
780.449	740.68
780.631	746.83
780.812	695.63
780.994	691.53
781.176	617.8
781.358	679.24
781.54	685.39
781.721	722.25
781.903	679.24
782.085	576.84
782.267	718.15
782.448	693.58
782.63	597.32
782.812	658.76
782.993	589.13
783.175	660.81
783.357	623.95
783.538	605.52
783.72	580.94
783.901	628.04
784.083	763.21
784.264	562.51
784.446	542.03
784.627	552.27
784.809	709.96
784.99	591.18
785.172	613.71
785.353	626
785.535	595.28
785.716	587.08
785.897	587.08
786.079	474.45
786.26	556.36
786.441	589.13
786.623	490.83
786.804	529.74
786.985	527.69
787.167	511.31
787.348	435.53
787.529	517.45
787.71	554.32
787.891	511.31
788.073	431.44
788.254	511.31
788.435	480.59
788.616	505.17
788.797	400.72
788.978	476.49
789.159	392.53
789.34	451.92
789.522	429.39
789.703	535.89
789.884	433.49
790.065	449.87
790.246	513.36
790.427	496.97
790.607	392.53
790.788	431.44
790.969	425.29
791.15	394.58
791.331	453.97
791.512	408.91
791.693	410.96
791.874	435.53
792.054	472.4
792.235	431.44
792.416	384.34
792.597	449.87
792.778	492.88
792.958	413.01
793.139	470.35
793.32	525.65
793.5	349.52
793.681	462.16
793.862	394.58
794.042	390.48
794.223	370
794.404	333.14
794.584	302.42
794.765	343.38
794.945	431.44
795.126	390.48
795.306	429.39
795.487	384.34
795.667	302.42
795.848	441.68
796.028	347.47
796.209	339.28
796.389	337.23
796.57	341.33
796.75	306.51
796.93	347.47
797.111	341.33
797.291	306.51
797.471	413.01
797.652	331.09
797.832	290.13
798.012	304.46
798.192	298.32
798.373	279.89
798.553	390.48
798.733	349.52
798.913	310.61
799.093	257.36
799.274	329.04
799.454	310.61
799.634	290.13
799.814	374.1
799.994	277.84
800.174	351.57
800.354	255.31
800.534	339.28
800.714	253.27
800.894	253.27
801.074	273.75
801.254	257.36
801.434	306.51
801.614	298.32
801.794	314.7
801.974	836.94
802.154	326.99
802.334	195.92
802.514	292.18
802.693	308.56
802.873	228.69
803.053	296.27
803.233	259.41
803.413	267.6
803.592	238.93
803.772	222.55
803.952	255.31
804.131	240.98
804.311	240.98
804.491	183.63
804.67	216.4
804.85	189.78
805.03	152.91
805.209	279.89
805.389	204.11
805.568	218.45
805.748	318.8
805.928	222.55
806.107	228.69
806.287	159.06
806.466	230.74
806.646	202.07
806.825	261.46
807.004	202.07
807.184	257.36
807.363	269.65
807.543	210.26
807.722	191.83
807.901	195.92
808.081	238.93
808.26	173.39
808.439	224.59
808.619	210.26
808.798	294.22
808.977	228.69
809.156	191.83
809.336	216.4
809.515	212.31
809.694	175.44
809.873	228.69
810.052	171.35
810.231	257.36
810.411	251.22
810.59	195.92
810.769	249.17
810.948	173.39
811.127	118.1
811.306	126.29
811.485	191.83
811.664	154.96
811.843	230.74
812.022	183.63
812.201	132.44
812.38	159.06
812.559	105.81
812.737	245.07
812.916	179.54
813.095	140.63
813.274	230.74
813.453	154.96
813.632	185.68
813.811	210.26
813.989	142.68
814.168	157.01
814.347	171.35
814.526	93.52
814.704	181.59
814.883	286.03
815.062	169.3
815.24	183.63
815.419	210.26
815.598	142.68
815.776	146.77
815.955	232.79
816.133	208.21
816.312	167.25
816.49	179.54
816.669	218.45
816.847	200.02
817.026	150.87
817.204	152.91
817.383	81.24
817.561	177.49
817.74	146.77
817.918	185.68
818.097	146.77
818.275	202.07
818.453	228.69
818.632	152.91
818.81	118.1
818.988	163.15
819.167	142.68
819.345	171.35
819.523	66.9
819.701	105.81
819.879	107.86
820.058	150.87
820.236	130.39
820.414	195.92
820.592	150.87
820.77	111.96
820.948	107.86
821.127	83.28
821.305	54.61
821.483	54.61
821.661	91.48
821.839	177.49
822.017	93.52
822.195	103.76
822.373	144.72
822.551	40.28
822.729	56.66
822.907	159.06
823.085	150.87
823.262	107.86
823.44	79.19
823.618	9.56
823.796	195.92
823.974	122.2
824.152	89.43
824.329	200.02
824.507	202.07
824.685	140.63
824.863	54.61
825.04	165.2
825.218	79.19
825.396	93.52
825.574	126.29
825.751	81.24
825.929	175.44
826.107	154.96
826.284	111.96
826.462	103.76
826.639	142.68
826.817	13.65
826.994	150.87
827.172	144.72
827.349	154.96
827.527	181.59
827.704	124.24
827.882	122.2
828.059	144.72
828.237	128.34
828.414	130.39
828.591	40.28
828.769	66.9
828.946	44.37
829.124	134.48
829.301	130.39
829.478	130.39
829.655	124.24
829.833	107.86
830.01	21.84
830.187	99.67
830.364	77.14
830.542	73.04
830.719	122.2
830.896	138.58
831.073	15.7
831.25	81.24
831.427	46.42
831.604	152.91
831.782	114
831.959	87.38
832.136	109.91
832.313	81.24
832.49	81.24
832.667	91.48
832.844	95.57
833.021	144.72
833.198	144.72
833.374	56.66
833.551	48.47
833.728	54.61
833.905	68.95
834.082	89.43
834.259	116.05
834.436	107.86
834.612	75.09
834.789	93.52
834.966	99.67
835.143	126.29
835.319	120.15
835.496	105.81
835.673	118.1
835.85	132.44
836.026	107.86
836.203	128.34
836.38	52.56
836.556	77.14
836.733	97.62
836.909	64.85
837.086	73.04
837.262	48.47
837.439	73.04
837.616	120.15
837.792	101.72
837.968	120.15
838.145	71
838.321	109.91
838.498	38.23
838.674	95.57
838.851	52.56
839.027	68.95
839.203	79.19
839.38	13.65
839.556	3.41
839.732	83.28
839.909	97.62
840.085	32.08
840.261	52.56
840.437	95.57
840.614	73.04
840.79	97.62
840.966	122.2
841.142	142.68
841.318	77.14
841.494	111.96
841.671	32.08
841.847	32.08
842.023	38.23
842.199	89.43
842.375	101.72
842.551	118.1
842.727	58.71
842.903	77.14
843.079	21.84
843.255	83.28
843.431	-4.78
843.607	77.14
843.783	15.7
843.959	-0.68
844.134	23.89
844.31	40.28
844.486	30.04
844.662	64.85
844.838	62.8
845.013	36.18
845.189	60.76
845.365	50.52
845.541	111.96
845.716	60.76
845.892	93.52
846.068	64.85
846.244	-0.68
846.419	89.43
846.595	81.24
846.77	-0.68
846.946	42.32
847.122	179.54
847.297	42.32
847.473	95.57
847.648	38.23
847.824	15.7
847.999	-12.97
848.175	62.8
848.35	-19.11
848.526	99.67
848.701	68.95
848.876	68.95
849.052	68.95
849.227	60.76
849.403	3.41
849.578	97.62
849.753	27.99
849.929	68.95
850.104	50.52
850.279	-35.5
850.454	-2.73
850.63	36.18
850.805	62.8
850.98	32.08
851.155	23.89
851.33	36.18
851.505	54.61
851.681	111.96
851.856	17.75
852.031	27.99
852.206	42.32
852.381	-0.68
852.556	-25.26
852.731	46.42
852.906	46.42
853.081	85.33
853.256	81.24
853.431	64.85
853.606	-25.26
853.781	21.84
853.956	-12.97
854.131	38.23
854.305	1.37
854.48	83.28
854.655	-6.83
854.83	-19.11
855.005	-43.69
855.18	111.96
855.354	15.7
855.529	38.23
855.704	54.61
855.879	23.89
856.053	64.85
856.228	56.66
856.403	-62.12
856.577	85.33
856.752	-10.92
856.926	64.85
857.101	79.19
857.276	-19.11
857.45	-29.35
857.625	15.7
857.799	-35.5
857.974	-66.22
858.148	-21.16
858.323	46.42
858.497	21.84
858.672	91.48
858.846	-53.93
859.02	109.91
859.195	-8.87
859.369	-15.02
859.543	38.23
859.718	27.99
859.892	73.04
860.066	54.61
860.241	32.08
860.415	1.37
860.589	-6.83
860.763	60.76
860.938	36.18
861.112	-15.02
861.286	64.85
861.46	3.41
861.634	-15.02
861.808	-15.02
861.982	21.84
862.157	44.37
862.331	21.84
862.505	-19.11
862.679	11.61
862.853	68.95
863.027	-19.11
863.201	-17.07
863.375	17.75
863.549	56.66
863.722	3.41
863.896	62.8
864.07	73.04
864.244	3.41
864.418	30.04
864.592	68.95
864.766	-49.83
864.939	38.23
865.113	5.46
865.287	103.76
865.461	5.46
865.634	-0.68
865.808	13.65
865.982	44.37
866.156	7.51
866.329	-37.55
866.503	62.8
866.676	13.65
866.85	27.99
867.024	-45.74
867.197	21.84
867.371	-4.78
867.544	-2.73
867.718	-4.78
867.891	-0.68
868.065	-62.12
868.238	15.7
868.412	56.66
868.585	71
868.759	36.18
868.932	-25.26
869.105	5.46
869.279	42.32
869.452	44.37
869.625	-0.68
869.799	-21.16
869.972	-4.78
870.145	-17.07
870.319	-43.69
870.492	-15.02
870.665	46.42
870.838	58.71
871.011	-10.92
871.185	-31.4
871.358	-12.97
871.531	89.43
871.704	11.61
871.877	44.37
872.05	-17.07
872.223	-53.93
872.396	15.7
872.569	25.94
872.742	-25.26
872.915	58.71
873.088	-17.07
873.261	-8.87
873.434	-8.87
873.607	34.13
873.78	34.13
873.953	21.84
874.126	23.89
874.299	-25.26
874.471	27.99
874.644	42.32
874.817	-10.92
874.99	50.52
875.163	17.75
875.335	-62.12
875.508	-6.83
875.681	52.56
875.853	-37.55
876.026	32.08
876.199	40.28
876.371	-19.11
876.544	5.46
876.717	-17.07
876.889	27.99
877.062	-27.31
877.234	15.7
877.407	75.09
877.579	-12.97
877.752	9.56
877.924	-35.5
878.097	46.42
878.269	-2.73
878.442	15.7
878.614	-0.68
878.786	68.95
878.959	-25.26
879.131	64.85
879.303	19.8
879.476	-17.07
879.648	-4.78
879.82	19.8
879.993	-76.46
880.165	73.04
880.337	-43.69
880.509	-23.21
880.681	-27.31
880.854	-21.16
881.026	-8.87
881.198	81.24
881.37	15.7
881.542	-25.26
881.714	62.8
881.886	50.52
882.058	15.7
882.23	-15.02
882.402	-62.12
882.574	34.13
882.746	-8.87
882.918	62.8
883.09	5.46
883.262	48.47
883.434	3.41
883.606	-41.64
883.778	-10.92
883.95	11.61
884.122	-74.41
884.293	15.7
884.465	-0.68
884.637	-10.92
884.809	-27.31
884.98	-0.68
885.152	9.56
885.324	-12.97
885.496	-29.35
885.667	-53.93
885.839	32.08
886.011	30.04
886.182	-10.92
886.354	52.56
886.525	-33.45
886.697	-4.78
886.869	23.89
887.04	9.56
887.212	-47.79
887.383	7.51
887.555	-2.73
887.726	32.08
887.897	-15.02
888.069	-55.98
888.24	1.37
888.412	-53.93
888.583	-19.11
888.754	9.56
888.926	1.37
889.097	-8.87
889.268	-17.07
889.44	-0.68
889.611	-35.5
889.782	25.94
889.953	-17.07
890.125	23.89
890.296	-31.4
890.467	40.28
890.638	-70.31
890.809	42.32
890.98	-58.03
891.151	-51.88
891.323	40.28
891.494	-4.78
891.665	-2.73
891.836	23.89
892.007	-17.07
892.178	124.24
892.349	11.61
892.52	19.8
892.691	-58.03
892.862	11.61
893.032	-123.56
893.203	7.51
893.374	77.14
893.545	91.48
893.716	-43.69
893.887	23.89
894.057	73.04
894.228	-25.26
894.399	-12.97
894.57	-53.93
894.74	-6.83
894.911	27.99
895.082	15.7
895.253	56.66
895.423	-25.26
895.594	97.62
895.764	5.46
895.935	-10.92
896.106	-68.27
896.276	-62.12
896.447	-21.16
896.617	-35.5
896.788	7.51
896.958	-64.17
897.129	-43.69
897.299	7.51
897.47	50.52
897.64	101.72
897.81	7.51
897.981	60.76
898.151	-8.87
898.322	-2.73
898.492	-17.07
898.662	19.8
898.832	-21.16
899.003	-10.92
899.173	-37.55
899.343	-12.97
899.513	40.28
