Data from USB4F104151__126__10-25-21-034.txt Node

Date: Wed Mar 12 10:25:21 EDT 2025
User: louis
Spectrometer: USB4F10415
Trigger mode: 4
Integration Time (sec): 3.000000E-2
Scans to average: 1
Electric dark correction enabled: true
Nonlinearity correction enabled: false
Boxcar width: 0
XAxis mode: Wavelengths
Number of Pixels in Spectrum: 3648
>>>>>Begin Spectral Data<<<<<
178.204	-48.47
178.424	-48.47
178.644	-48.47
178.864	-152.92
179.084	-107.86
179.304	-52.56
179.524	-15.7
179.744	-34.13
179.964	12.97
180.184	39.59
180.404	-19.8
180.624	39.59
180.844	41.64
181.064	6.83
181.283	-17.75
181.503	-54.61
181.723	53.93
181.943	8.87
182.163	17.07
182.383	15.02
182.602	47.79
182.822	-25.94
183.042	33.45
183.262	10.92
183.482	-1.37
183.701	-15.7
183.921	6.83
184.141	-40.28
184.361	8.87
184.58	43.69
184.8	21.16
185.02	-27.99
185.239	31.4
185.459	0.68
185.679	19.11
185.898	17.07
186.118	6.83
186.338	90.79
186.557	23.21
186.777	43.69
186.997	2.73
187.216	0.68
187.436	43.69
187.655	90.79
187.875	64.17
188.095	12.97
188.314	60.07
188.534	115.37
188.753	17.07
188.973	33.45
189.192	80.55
189.412	15.02
189.631	78.51
189.851	4.78
190.07	15.02
190.29	-15.7
190.509	-11.61
190.729	-56.66
190.948	115.37
191.168	98.99
191.387	92.84
191.607	23.21
191.826	-48.47
192.045	12.97
192.265	37.55
192.484	58.03
192.704	-9.56
192.923	8.87
193.142	74.41
193.362	96.94
193.581	62.12
193.8	21.16
194.02	25.26
194.239	15.02
194.458	55.98
194.678	15.02
194.897	86.7
195.116	0.68
195.335	-27.99
195.555	27.31
195.774	41.64
195.993	-13.65
196.212	25.26
196.432	-36.18
196.651	25.26
196.87	12.97
197.089	94.89
197.308	197.29
197.528	-3.41
197.747	-38.23
197.966	-36.18
198.185	0.68
198.404	47.79
198.623	23.21
198.842	66.22
199.062	58.03
199.281	6.83
199.5	-30.04
199.719	62.12
199.938	58.03
200.157	41.64
200.376	33.45
200.595	74.41
200.814	-34.13
201.033	17.07
201.252	58.03
201.471	19.11
201.69	33.45
201.909	72.36
202.128	70.31
202.347	41.64
202.566	-7.51
202.785	-13.65
203.004	47.79
203.223	37.55
203.442	12.97
203.661	-32.08
203.879	72.36
204.098	58.03
204.317	-42.32
204.536	47.79
204.755	88.75
204.974	55.98
205.193	4.78
205.411	74.41
205.63	76.46
205.849	-34.13
206.068	62.12
206.287	-27.99
206.505	66.22
206.724	-58.71
206.943	23.21
207.162	12.97
207.381	8.87
207.599	-3.41
207.818	105.13
208.037	17.07
208.255	0.68
208.474	29.35
208.693	58.03
208.911	17.07
209.13	6.83
209.349	37.55
209.567	37.55
209.786	68.27
210.005	64.17
210.223	21.16
210.442	-64.85
210.661	33.45
210.879	-44.37
211.098	39.59
211.316	33.45
211.535	82.6
211.753	29.35
211.972	12.97
212.191	-15.7
212.409	-48.47
212.628	70.31
212.846	-52.56
213.065	15.02
213.283	58.03
213.502	29.35
213.72	33.45
213.938	-40.28
214.157	55.98
214.375	55.98
214.594	31.4
214.812	37.55
215.031	90.79
215.249	19.11
215.467	-9.56
215.686	64.17
215.904	37.55
216.122	0.68
216.341	66.22
216.559	53.93
216.778	31.4
216.996	23.21
217.214	41.64
217.432	-15.7
217.651	51.88
217.869	4.78
218.087	0.68
218.306	-64.85
218.524	-48.47
218.742	41.64
218.96	58.03
219.179	15.02
219.397	12.97
219.615	15.02
219.833	8.87
220.051	51.88
220.27	55.98
220.488	37.55
220.706	47.79
220.924	76.46
221.142	2.73
221.36	8.87
221.578	6.83
221.796	-5.46
222.015	21.16
222.233	23.21
222.451	68.27
222.669	74.41
222.887	-11.61
223.105	-34.13
223.323	-25.94
223.541	62.12
223.759	-40.28
223.977	41.64
224.195	68.27
224.413	64.17
224.631	72.36
224.849	39.59
225.067	49.83
225.285	10.92
225.503	49.83
225.721	-68.95
225.939	-34.13
226.157	66.22
226.375	113.32
226.592	-7.51
226.81	15.02
227.028	12.97
227.246	68.27
227.464	15.02
227.682	-1.37
227.9	49.83
228.117	-27.99
228.335	43.69
228.553	-52.56
228.771	17.07
228.989	2.73
229.206	33.45
229.424	-3.41
229.642	78.51
229.86	-5.46
230.077	31.4
230.295	35.5
230.513	78.51
230.731	68.27
230.948	53.93
231.166	10.92
231.384	10.92
231.601	17.07
231.819	86.7
232.037	8.87
232.254	17.07
232.472	-1.37
232.689	-75.09
232.907	125.61
233.125	53.93
233.342	55.98
233.56	23.21
233.777	21.16
233.995	39.59
234.213	70.31
234.43	35.5
234.648	55.98
234.865	37.55
235.083	29.35
235.3	4.78
235.518	-19.8
235.735	70.31
235.953	51.88
236.17	25.26
236.388	92.84
236.605	-5.46
236.822	58.03
237.04	-1.37
237.257	-9.56
237.475	53.93
237.692	135.85
237.909	-11.61
238.127	15.02
238.344	131.75
238.562	33.45
238.779	-11.61
238.996	33.45
239.214	-11.61
239.431	62.12
239.648	25.26
239.865	27.31
240.083	-1.37
240.3	25.26
240.517	45.74
240.735	12.97
240.952	15.02
241.169	70.31
241.386	35.5
241.603	37.55
241.821	23.21
242.038	70.31
242.255	25.26
242.472	-56.66
242.689	41.64
242.907	90.79
243.124	-11.61
243.341	-23.89
243.558	58.03
243.775	23.21
243.992	-25.94
244.209	19.11
244.426	90.79
244.643	4.78
244.86	35.5
245.078	66.22
245.295	47.79
245.512	15.02
245.729	-19.8
245.946	-17.75
246.163	86.7
246.38	19.11
246.597	17.07
246.814	37.55
247.031	72.36
247.248	84.65
247.464	70.31
247.681	2.73
247.898	78.51
248.115	27.31
248.332	23.21
248.549	58.03
248.766	45.74
248.983	31.4
249.2	15.02
249.417	78.51
249.633	80.55
249.85	49.83
250.067	21.16
250.284	6.83
250.501	53.93
250.717	21.16
250.934	10.92
251.151	58.03
251.368	12.97
251.585	23.21
251.801	123.56
252.018	76.46
252.235	25.26
252.451	-11.61
252.668	2.73
252.885	-1.37
253.102	29.35
253.318	17.07
253.535	17.07
253.752	-11.61
253.968	17.07
254.185	-40.28
254.401	31.4
254.618	76.46
254.835	-25.94
255.051	111.27
255.268	64.17
255.484	64.17
255.701	64.17
255.917	66.22
256.134	33.45
256.351	101.03
256.567	-56.66
256.784	33.45
257	8.87
257.217	23.21
257.433	-5.46
257.65	49.83
257.866	58.03
258.082	-13.65
258.299	-21.85
258.515	19.11
258.732	94.89
258.948	-56.66
259.165	82.6
259.381	-3.41
259.597	33.45
259.814	23.21
260.03	43.69
260.246	31.4
260.463	64.17
260.679	31.4
260.895	35.5
261.112	53.93
261.328	10.92
261.544	10.92
261.761	150.18
261.977	4.78
262.193	0.68
262.409	-3.41
262.626	74.41
262.842	4.78
263.058	-1.37
263.274	6.83
263.49	94.89
263.707	45.74
263.923	35.5
264.139	55.98
264.355	60.07
264.571	-19.8
264.787	70.31
265.004	117.42
265.22	21.16
265.436	0.68
265.652	-32.08
265.868	21.16
266.084	41.64
266.3	-23.89
266.516	66.22
266.732	12.97
266.948	-40.28
267.164	41.64
267.38	131.75
267.596	25.26
267.812	53.93
268.028	49.83
268.244	4.78
268.46	33.45
268.676	-15.7
268.892	66.22
269.108	-13.65
269.324	-7.51
269.54	25.26
269.756	127.66
269.972	21.16
270.188	-34.13
270.403	15.02
270.619	41.64
270.835	103.08
271.051	-11.61
271.267	39.59
271.483	-32.08
271.698	55.98
271.914	47.79
272.13	55.98
272.346	70.31
272.562	-30.04
272.777	74.41
272.993	-5.46
273.209	-30.04
273.425	43.69
273.64	8.87
273.856	70.31
274.072	12.97
274.287	41.64
274.503	8.87
274.719	43.69
274.934	-21.85
275.15	-89.43
275.366	60.07
275.581	55.98
275.797	21.16
276.012	47.79
276.228	8.87
276.444	58.03
276.659	43.69
276.875	31.4
277.09	37.55
277.306	21.16
277.521	84.65
277.737	70.31
277.952	68.27
278.168	21.16
278.383	25.26
278.599	45.74
278.814	25.26
279.03	27.31
279.245	88.75
279.461	12.97
279.676	19.11
279.892	53.93
280.107	25.26
280.322	29.35
280.538	49.83
280.753	15.02
280.969	-7.51
281.184	29.35
281.399	31.4
281.615	-7.51
281.83	-11.61
282.045	-56.66
282.26	25.26
282.476	15.02
282.691	53.93
282.906	10.92
283.122	68.27
283.337	23.21
283.552	33.45
283.767	-34.13
283.983	-17.75
284.198	-81.24
284.413	-44.37
284.628	-56.66
284.843	-40.28
285.058	21.16
285.274	39.59
285.489	-36.18
285.704	70.31
285.919	-5.46
286.134	10.92
286.349	23.21
286.564	-36.18
286.779	94.89
286.995	2.73
287.21	-23.89
287.425	33.45
287.64	-17.75
287.855	-23.89
288.07	29.35
288.285	55.98
288.5	96.94
288.715	68.27
288.93	53.93
289.145	53.93
289.36	148.14
289.575	-7.51
289.79	86.7
290.004	-1.37
290.219	80.55
290.434	25.26
290.649	-32.08
290.864	6.83
291.079	41.64
291.294	84.65
291.509	-7.51
291.724	78.51
291.938	47.79
292.153	39.59
292.368	82.6
292.583	19.11
292.798	21.16
293.012	33.45
293.227	27.31
293.442	35.5
293.657	103.08
293.871	76.46
294.086	-17.75
294.301	76.46
294.516	12.97
294.73	0.68
294.945	31.4
295.16	10.92
295.374	8.87
295.589	62.12
295.804	55.98
296.018	66.22
296.233	90.79
296.447	10.92
296.662	10.92
296.877	37.55
297.091	105.13
297.306	45.74
297.52	-40.28
297.735	23.21
297.949	17.07
298.164	55.98
298.378	39.59
298.593	53.93
298.807	-17.75
299.022	66.22
299.236	10.92
299.451	-17.75
299.665	8.87
299.88	49.83
300.094	47.79
300.309	78.51
300.523	-3.41
300.737	4.78
300.952	17.07
301.166	43.69
301.381	58.03
301.595	-7.51
301.809	64.17
302.024	-25.94
302.238	21.16
302.452	-5.46
302.667	27.31
302.881	70.31
303.095	35.5
303.309	115.37
303.524	41.64
303.738	66.22
303.952	-19.8
304.166	66.22
304.381	-23.89
304.595	94.89
304.809	33.45
305.023	37.55
305.237	80.55
305.452	31.4
305.666	39.59
305.88	74.41
306.094	68.27
306.308	43.69
306.522	47.79
306.736	49.83
306.95	47.79
307.164	-42.32
307.379	29.35
307.593	45.74
307.807	29.35
308.021	119.46
308.235	19.11
308.449	25.26
308.663	-30.04
308.877	107.18
309.091	-11.61
309.305	62.12
309.519	8.87
309.733	37.55
309.947	49.83
310.161	39.59
310.374	33.45
310.588	58.03
310.802	25.26
311.016	25.26
311.23	4.78
311.444	0.68
311.658	154.28
311.872	19.11
312.085	-60.76
312.299	58.03
312.513	29.35
312.727	-25.94
312.941	25.26
313.154	-27.99
313.368	8.87
313.582	47.79
313.796	12.97
314.009	2.73
314.223	21.16
314.437	119.46
314.651	25.26
314.864	0.68
315.078	12.97
315.292	76.46
315.505	17.07
315.719	17.07
315.933	47.79
316.146	31.4
316.36	-21.85
316.573	96.94
316.787	49.83
317.001	64.17
317.214	29.35
317.428	39.59
317.641	55.98
317.855	-11.61
318.068	25.26
318.282	49.83
318.495	154.28
318.709	98.99
318.922	88.75
319.136	49.83
319.349	82.6
319.563	90.79
319.776	37.55
319.99	4.78
320.203	33.45
320.417	25.26
320.63	55.98
320.843	131.75
321.057	6.83
321.27	58.03
321.483	-7.51
321.697	88.75
321.91	58.03
322.124	-3.41
322.337	55.98
322.55	62.12
322.763	72.36
322.977	53.93
323.19	-40.28
323.403	10.92
323.617	58.03
323.83	70.31
324.043	25.26
324.256	45.74
324.469	39.59
324.683	27.31
324.896	98.99
325.109	39.59
325.322	23.21
325.535	53.93
325.748	119.46
325.962	27.31
326.175	-34.13
326.388	45.74
326.601	60.07
326.814	55.98
327.027	58.03
327.24	39.59
327.453	90.79
327.666	41.64
327.879	31.4
328.092	39.59
328.305	74.41
328.518	29.35
328.731	6.83
328.944	66.22
329.157	0.68
329.37	72.36
329.583	88.75
329.796	82.6
330.009	-27.99
330.222	90.79
330.435	37.55
330.648	33.45
330.861	39.59
331.073	37.55
331.286	33.45
331.499	0.68
331.712	-7.51
331.925	23.21
332.138	37.55
332.35	62.12
332.563	66.22
332.776	78.51
332.989	47.79
333.202	33.45
333.414	-1.37
333.627	17.07
333.84	19.11
334.053	88.75
334.265	8.87
334.478	37.55
334.691	70.31
334.903	62.12
335.116	17.07
335.329	96.94
335.541	47.79
335.754	76.46
335.966	27.31
336.179	47.79
336.392	86.7
336.604	2.73
336.817	33.45
337.029	2.73
337.242	29.35
337.454	19.11
337.667	49.83
337.88	33.45
338.092	33.45
338.305	33.45
338.517	-1.37
338.729	76.46
338.942	12.97
339.154	23.21
339.367	0.68
339.579	70.31
339.792	41.64
340.004	109.22
340.217	15.02
340.429	68.27
340.641	-46.42
340.854	70.31
341.066	64.17
341.278	19.11
341.491	103.08
341.703	66.22
341.915	0.68
342.128	82.6
342.34	62.12
342.552	15.02
342.764	80.55
342.977	-11.61
343.189	90.79
343.401	43.69
343.613	74.41
343.826	70.31
344.038	-23.89
344.25	60.07
344.462	23.21
344.674	70.31
344.886	10.92
345.099	72.36
345.311	62.12
345.523	-58.71
345.735	80.55
345.947	41.64
346.159	-7.51
346.371	64.17
346.583	90.79
346.795	72.36
347.007	21.16
347.219	68.27
347.431	49.83
347.643	37.55
347.855	27.31
348.067	12.97
348.279	12.97
348.491	33.45
348.703	72.36
348.915	21.16
349.127	27.31
349.339	111.27
349.551	70.31
349.763	135.85
349.975	4.78
350.187	39.59
350.399	35.5
350.61	33.45
350.822	12.97
351.034	39.59
351.246	-13.65
351.458	37.55
351.669	0.68
351.881	53.93
352.093	98.99
352.305	41.64
352.517	31.4
352.728	66.22
352.94	-1.37
353.152	55.98
353.363	41.64
353.575	84.65
353.787	103.08
353.999	27.31
354.21	51.88
354.422	66.22
354.633	66.22
354.845	137.9
355.057	41.64
355.268	90.79
355.48	27.31
355.692	41.64
355.903	58.03
356.115	70.31
356.326	-32.08
356.538	43.69
356.749	-7.51
356.961	90.79
357.172	29.35
357.384	-3.41
357.595	98.99
357.807	41.64
358.018	8.87
358.23	58.03
358.441	113.32
358.653	58.03
358.864	-23.89
359.075	66.22
359.287	25.26
359.498	37.55
359.709	90.79
359.921	39.59
360.132	37.55
360.344	115.37
360.555	-11.61
360.766	51.88
360.977	21.16
361.189	78.51
361.4	70.31
361.611	21.16
361.823	60.07
362.034	103.08
362.245	-1.37
362.456	45.74
362.667	33.45
362.879	6.83
363.09	41.64
363.301	72.36
363.512	58.03
363.723	98.99
363.935	121.51
364.146	70.31
364.357	-23.89
364.568	107.18
364.779	53.93
364.99	19.11
365.201	41.64
365.412	58.03
365.623	47.79
365.834	17.07
366.045	-15.7
366.256	90.79
366.467	39.59
366.678	51.88
366.889	82.6
367.1	-52.56
367.311	78.51
367.522	107.18
367.733	101.03
367.944	96.94
368.155	94.89
368.366	64.17
368.577	90.79
368.788	17.07
368.999	39.59
369.209	78.51
369.42	90.79
369.631	162.47
369.842	29.35
370.053	64.17
370.264	82.6
370.474	141.99
370.685	-1.37
370.896	60.07
371.107	101.03
371.317	111.27
371.528	8.87
371.739	76.46
371.95	31.4
372.16	72.36
372.371	49.83
372.582	62.12
372.792	66.22
373.003	64.17
373.214	55.98
373.424	29.35
373.635	17.07
373.846	55.98
374.056	17.07
374.267	39.59
374.477	6.83
374.688	-9.56
374.898	12.97
375.109	45.74
375.319	162.47
375.53	37.55
375.74	12.97
375.951	82.6
376.161	37.55
376.372	98.99
376.582	-17.75
376.793	19.11
377.003	6.83
377.214	58.03
377.424	21.16
377.635	139.94
377.845	58.03
378.055	123.56
378.266	96.94
378.476	23.21
378.686	78.51
378.897	41.64
379.107	47.79
379.317	55.98
379.528	17.07
379.738	39.59
379.948	41.64
380.158	156.33
380.369	21.16
380.579	60.07
380.789	-56.66
380.999	92.84
381.21	105.13
381.42	123.56
381.63	33.45
381.84	78.51
382.05	-21.85
382.261	162.47
382.471	88.75
382.681	37.55
382.891	129.7
383.101	90.79
383.311	96.94
383.521	160.42
383.731	80.55
383.941	62.12
384.151	82.6
384.361	21.16
384.571	49.83
384.781	107.18
384.991	98.99
385.201	135.85
385.411	119.46
385.621	66.22
385.831	27.31
386.041	58.03
386.251	47.79
386.461	115.37
386.671	141.99
386.881	74.41
387.091	41.64
387.301	117.42
387.511	82.6
387.72	80.55
387.93	33.45
388.14	25.26
388.35	148.14
388.56	101.03
388.769	47.79
388.979	27.31
389.189	29.35
389.399	135.85
389.609	70.31
389.818	90.79
390.028	43.69
390.238	41.64
390.447	51.88
390.657	92.84
390.867	58.03
391.076	49.83
391.286	176.81
391.496	133.8
391.705	150.18
391.915	90.79
392.125	39.59
392.334	60.07
392.544	144.04
392.753	60.07
392.963	64.17
393.172	135.85
393.382	41.64
393.591	117.42
393.801	47.79
394.01	146.09
394.22	2.73
394.429	64.17
394.639	31.4
394.848	172.71
395.058	53.93
395.267	55.98
395.477	121.51
395.686	103.08
395.895	119.46
396.105	127.66
396.314	-15.7
396.524	37.55
396.733	135.85
396.942	156.33
397.152	127.66
397.361	193.19
397.57	90.79
397.78	33.45
397.989	139.94
398.198	146.09
398.407	133.8
398.617	115.37
398.826	185
399.035	90.79
399.244	129.7
399.453	148.14
399.663	137.9
399.872	146.09
400.081	55.98
400.29	133.8
400.499	141.99
400.708	105.13
400.917	135.85
401.127	154.28
401.336	105.13
401.545	203.43
401.754	98.99
401.963	139.94
402.172	121.51
402.381	111.27
402.59	174.76
402.799	133.8
403.008	103.08
403.217	148.14
403.426	180.9
403.635	195.24
403.844	139.94
404.053	162.47
404.262	176.81
404.471	205.48
404.68	127.66
404.888	96.94
405.097	211.62
405.306	172.71
405.515	205.48
405.724	156.33
405.933	221.86
406.142	207.53
406.35	144.04
406.559	279.21
406.768	219.82
406.977	309.93
407.185	262.82
407.394	236.2
407.603	236.2
407.812	238.25
408.02	260.77
408.229	328.36
408.438	252.58
408.646	320.17
408.855	385.7
409.064	287.4
409.272	281.25
409.481	271.01
409.69	326.31
409.898	332.45
410.107	348.84
410.315	387.75
410.524	344.74
410.733	408.23
410.941	404.13
411.15	490.15
411.358	441
411.567	510.63
411.775	418.47
411.984	524.96
412.192	561.83
412.401	529.06
412.609	574.11
412.818	610.98
413.026	565.92
413.234	619.17
413.443	598.69
413.651	672.42
413.86	682.66
414.068	703.14
414.276	651.94
414.485	676.51
414.693	836.25
414.901	836.25
415.11	848.54
415.318	842.4
415.526	891.55
415.734	871.07
415.943	1002.14
416.151	930.46
416.359	940.7
416.567	1030.81
416.776	1106.59
416.984	1110.68
417.192	1141.4
417.4	1182.36
417.608	1098.39
417.817	1225.37
418.025	1325.72
418.233	1399.45
418.441	1405.59
418.649	1403.54
418.857	1473.17
419.065	1419.92
419.273	1405.59
419.481	1690.26
419.689	1604.24
419.897	1663.63
420.105	1745.55
420.313	1995.4
420.521	1970.83
420.729	1979.02
420.937	1946.25
421.145	2105.99
421.353	2220.68
421.561	2249.35
421.769	2331.27
421.977	2394.76
422.185	2450.05
422.393	2613.89
422.601	2839.17
422.809	2706.05
423.017	2810.5
423.224	2820.74
423.432	2970.24
423.64	3015.29
423.848	3226.23
424.056	3142.27
424.263	3404.41
424.471	3463.8
424.679	3443.32
424.887	3605.11
425.094	3674.74
425.302	3932.78
425.51	4080.24
425.718	4151.92
425.925	4094.57
426.133	4354.66
426.341	4567.65
426.548	4754.02
426.756	4643.43
426.964	4815.46
427.171	5079.65
427.379	5153.37
427.586	5161.56
427.794	5212.76
428.001	5620.31
428.209	6040.14
428.417	5900.88
428.624	6011.47
428.832	6191.69
429.039	6201.93
429.247	6140.49
429.454	6685.25
429.662	7105.09
429.869	6797.89
430.076	7203.39
430.284	7000.64
430.491	7369.27
430.699	7731.76
430.906	7795.25
431.114	7938.61
431.321	8165.93
431.528	8307.24
431.736	8708.65
431.943	9335.32
432.15	8825.38
432.358	9300.51
432.565	9421.34
432.772	9505.31
432.979	9927.19
433.187	10072.59
433.394	10263.05
433.601	10846.73
433.808	11026.95
434.016	10963.46
434.223	11493.88
434.43	11960.82
434.637	11794.93
434.844	12497.39
435.052	12892.65
435.259	12677.61
435.466	12945.89
435.673	12642.79
435.88	13535.71
436.087	14160.34
436.294	14090.71
436.501	13924.82
436.708	14090.71
436.915	14666.19
437.122	15274.43
437.329	15264.19
437.537	15858.1
437.743	16023.99
437.95	15694.27
438.157	16597.42
438.364	17363.36
438.571	17127.85
438.778	17332.64
438.985	18819.47
439.192	18426.26
439.399	18876.81
439.606	18200.98
439.813	19222.92
440.02	20457.84
440.227	20416.88
440.433	19962.23
440.64	20687.22
440.847	20668.78
441.054	20947.31
441.261	22171.99
441.467	22053.21
441.674	22448.47
441.881	22960.46
442.088	23077.19
442.294	23150.92
442.501	23830.85
442.708	24240.44
442.914	25002.29
443.121	26075.42
443.328	25063.72
443.534	27638.02
443.741	26423.58
443.948	26054.94
444.154	27965.7
444.361	27865.35
444.568	28334.33
444.774	28014.85
444.981	28315.9
445.187	29141.23
445.394	30249.18
445.6	29731.04
445.807	32686.26
446.013	31283.41
446.22	32078.02
446.426	33034.42
446.633	33398.96
446.839	34449.57
447.046	33171.63
447.252	34955.41
447.459	34998.42
447.665	34777.24
447.871	36444.29
448.078	37566.57
448.284	35995.78
448.491	37165.17
448.697	37836.91
448.903	39045.21
449.11	38905.94
449.316	38217.83
449.522	38936.66
449.728	39936.07
449.935	40380.48
450.141	40269.89
450.347	40972.35
450.553	39780.43
450.76	40351.81
450.966	41414.71
451.172	41052.22
451.378	42182.69
451.584	41224.25
451.791	42395.68
451.997	41801.77
452.203	42950.68
452.409	42653.73
452.615	42395.68
452.821	40915
453.027	40136.77
453.233	42301.48
453.44	40517.7
453.646	41416.75
453.852	41304.12
454.058	42020.91
454.264	40691.77
454.47	41406.51
454.676	40484.93
454.882	41433.14
455.088	38049.89
455.294	38475.87
455.5	39161.94
455.705	39684.17
455.911	37947.5
456.117	37152.88
456.323	36796.54
456.529	34793.62
456.735	36266.11
456.941	35192.98
457.147	34599.07
457.352	33663.14
457.558	33456.3
457.764	33167.54
457.97	32993.46
458.176	32131.26
458.381	32020.67
458.587	30398.68
458.793	30480.6
458.999	28858.61
459.204	31135.95
459.41	30298.33
459.616	28266.75
459.821	27975.94
460.027	28055.81
460.233	27369.74
460.438	26061.08
460.644	26544.41
460.85	25223.47
461.055	24899.89
461.261	24836.4
461.466	22770
461.672	22395.22
461.878	23808.32
462.083	22245.72
462.289	21977.44
462.494	21475.68
462.7	20744.56
462.905	20339.06
463.111	20973.93
463.316	21045.61
463.522	20668.78
463.727	20396.4
463.932	20332.92
464.138	20242.81
464.343	20406.64
464.549	19630.46
464.754	20363.64
464.959	20136.31
465.165	19757.44
465.37	19204.49
465.575	18809.23
465.781	19564.93
465.986	19624.32
466.191	18776.46
466.397	18405.78
466.602	17828.25
466.807	18379.15
467.012	18289.04
467.218	18188.69
467.423	17869.21
467.628	18108.82
467.833	18848.14
468.038	18123.16
468.244	17674.65
468.449	18266.52
468.654	17660.32
468.859	17527.2
469.064	17527.2
469.269	16871.85
469.474	17011.11
469.679	17295.78
469.885	16546.22
470.09	16998.82
470.295	16910.76
470.5	16578.99
470.705	16617.9
470.91	16110
471.115	15856.06
471.32	16304.56
471.525	16177.59
471.73	16150.96
471.935	15565.25
472.139	15385.02
472.344	15202.75
472.549	15247.81
472.754	15028.68
472.959	14889.42
473.164	14397.9
473.369	14211.54
473.574	14580.17
473.778	14520.78
473.983	14336.46
474.188	14594.51
474.393	14094.8
474.598	13869.53
474.802	13720.03
475.007	13853.14
475.212	13572.57
475.417	13119.97
475.621	13162.98
475.826	13275.62
476.031	13023.72
476.235	12691.94
476.44	12710.38
476.645	12593.64
476.849	12784.1
477.054	12499.44
477.259	12343.79
477.463	12241.39
477.668	11764.22
477.872	12177.9
478.077	11880.95
478.282	11624.95
478.486	11737.59
478.691	11387.39
478.895	11414.01
479.1	11416.06
479.304	11510.27
479.509	11307.52
479.713	11407.87
479.918	10885.64
480.122	11151.87
480.326	11137.54
480.531	10863.11
480.735	10801.67
480.94	10785.29
481.144	11301.37
481.348	10629.64
481.553	10674.7
481.757	10596.87
481.961	10658.31
482.166	10885.64
482.37	10705.42
482.574	10467.85
482.778	10727.94
482.983	10740.23
483.187	10588.68
483.391	10643.98
483.595	10525.19
483.8	10467.85
484.004	10666.5
484.208	10674.7
484.412	10547.72
484.616	10473.99
484.821	10592.78
485.025	10400.27
485.229	10777.09
485.433	10523.15
485.637	10695.18
485.841	10613.26
486.045	10510.86
486.249	10617.35
486.453	10428.94
486.657	10660.36
486.861	10621.45
487.065	10336.78
487.269	10447.37
487.473	10347.02
487.677	10672.65
487.881	10471.95
488.085	10426.89
488.289	10801.67
488.493	10725.9
488.697	10727.94
488.901	10609.16
489.105	10711.56
489.309	10844.68
489.512	10568.2
489.716	10615.3
489.92	10617.35
490.124	10709.51
490.328	11037.19
490.531	10846.73
490.735	10783.24
490.939	10912.26
491.143	10879.49
491.346	10938.88
491.55	11143.68
491.754	10959.36
491.958	11151.87
492.161	11012.61
492.365	11239.94
492.569	11164.16
492.772	11182.59
492.976	11336.19
493.18	11403.77
493.383	11442.68
493.587	11670.01
493.79	11545.08
493.994	11284.99
494.197	11592.19
494.401	11846.13
494.605	11680.25
494.808	12095.99
495.012	11944.44
495.215	12095.99
495.419	12132.85
495.622	12057.07
495.825	12190.19
496.029	12280.3
496.232	12556.78
496.436	12718.57
496.639	13142.5
496.843	12612.07
497.046	13134.31
497.249	13064.68
497.453	13210.08
497.656	13375.97
497.859	13476.32
498.063	13803.99
498.266	13941.21
498.469	13801.94
498.673	13890.01
498.876	14205.39
499.079	14436.81
499.282	14416.33
499.485	14797.26
499.689	14793.16
499.892	14737.87
500.095	15184.32
500.298	15391.17
500.501	15067.59
500.705	15591.87
500.908	15909.3
501.111	16036.28
501.314	16177.59
501.517	15974.84
501.72	16329.14
501.923	16564.65
502.126	16955.82
502.329	17177
502.532	17011.11
502.735	17275.3
502.938	17742.24
503.141	17904.03
503.344	18106.77
503.547	18028.95
503.75	18342.29
503.953	18325.91
504.156	18684.3
504.359	18983.31
504.562	19177.86
504.765	19323.27
504.968	19581.31
505.17	19784.06
505.373	19857.79
505.576	20238.71
505.779	20246.9
505.982	20506.99
506.185	21076.33
506.387	20765.04
506.59	21393.76
506.793	21737.82
506.996	21537.12
507.198	22040.92
507.401	21903.71
507.604	22399.32
507.807	23019.85
508.009	23030.09
508.212	22985.04
508.415	23148.87
508.617	23378.25
508.82	23767.36
509.022	23597.38
509.225	24037.69
509.428	24453.43
509.63	24502.58
509.833	24893.74
510.035	25362.73
510.238	24965.42
510.44	25403.69
510.643	26145.05
510.845	26118.43
511.048	26237.21
511.25	26409.24
511.453	26427.67
511.655	27595.01
511.858	27261.19
512.06	27633.92
512.262	27920.64
512.465	27865.35
512.667	28272.89
512.87	28662.01
513.072	28811.51
513.274	29296.88
513.477	29585.64
513.679	29892.83
513.881	30111.97
514.084	30423.26
514.286	30484.7
514.488	30785.75
514.69	31633.61
514.893	31477.96
515.095	31635.66
515.297	31842.5
515.499	32012.48
515.701	32803
515.904	32952.5
516.106	33175.73
516.308	33243.31
516.51	34189.47
516.712	33745.06
516.914	34121.89
517.116	34570.4
517.318	34869.4
517.52	35129.49
517.722	35592.33
517.925	35967.11
518.127	35840.14
518.329	36479.1
518.531	36802.68
518.733	36761.72
518.935	37453.94
519.136	37156.98
519.338	37787.75
519.54	38205.54
519.742	38459.49
519.944	38453.34
520.146	38656.09
520.348	39460.94
520.55	39655.5
520.752	39667.79
520.954	40470.59
521.155	40501.31
521.357	40685.63
521.559	41011.26
521.761	41472.05
521.963	41687.09
522.164	42018.86
522.366	42158.12
522.568	42686.5
522.77	42715.17
522.971	43407.38
523.173	42731.55
523.375	43735.06
523.576	43427.86
523.778	43528.21
523.98	44374.02
524.181	44242.95
524.383	44619.78
524.584	45135.87
524.786	44738.56
524.988	45078.52
525.189	45361.14
525.391	45654
525.592	46073.84
525.794	45983.72
525.995	46010.35
526.197	46282.73
526.398	46682.08
526.6	47015.9
526.801	47257.56
527.003	47290.33
527.204	47093.72
527.406	47957.97
527.607	48000.97
527.808	48205.77
528.01	47443.93
528.211	48119.76
528.412	49031.1
528.614	48840.64
528.815	48756.67
529.016	49170.36
529.218	48922.56
529.419	48631.75
529.62	49194.94
529.822	49285.05
530.023	49063.87
530.224	49321.91
530.425	49530.81
530.626	49207.23
530.828	49452.98
531.029	50476.97
531.23	49692.6
531.431	49850.29
531.632	50149.29
531.833	50436.01
532.035	50102.19
532.236	49977.26
532.437	49932.21
532.638	50241.45
532.839	50218.92
533.04	50311.08
533.241	50206.64
533.442	51128.22
533.643	50675.62
533.844	50718.63
534.045	50939.81
534.246	50290.6
534.447	50792.36
534.648	50644.9
534.849	50751.4
535.05	50456.49
535.251	50816.93
535.451	50513.83
535.652	50872.23
535.853	50726.82
536.054	51300.25
536.255	51046.3
536.456	50665.38
536.657	51640.21
536.857	50683.81
537.058	50597.8
537.259	51761.04
537.46	50798.5
537.66	50440.1
537.861	51160.99
538.062	51146.65
538.263	50923.43
538.463	51134.37
538.664	50915.23
538.865	51206.05
539.065	51548.06
539.266	50325.42
539.466	51204
539.667	50390.95
539.868	51435.42
540.068	50769.83
540.269	50960.29
540.469	51199.9
540.67	50792.36
540.87	50993.06
541.071	50583.46
541.271	51251.1
541.472	50984.86
541.672	50730.92
541.873	50784.16
542.073	50065.33
542.274	51247
542.474	50565.03
542.675	50509.74
542.875	51234.72
543.075	50667.43
543.276	50759.59
543.476	50782.12
543.676	50726.82
543.877	50855.84
544.077	50665.38
544.277	50579.37
544.478	50978.72
544.678	51021.73
544.878	50782.12
545.078	51034.02
545.279	50771.88
545.479	50565.03
545.679	50376.62
545.879	50253.74
546.079	50890.66
546.28	50464.68
546.48	50202.54
546.68	50792.36
546.88	50577.32
547.08	50952.1
547.28	50585.51
547.48	50323.37
547.68	50818.98
547.88	50479.02
548.081	50724.77
548.281	50505.64
548.481	50192.3
548.681	50829.22
548.881	50085.81
549.081	49825.71
549.28	49887.15
549.48	50759.59
549.68	50089.9
549.88	50806.69
550.08	49878.96
550.28	50487.21
550.48	50202.54
550.68	50464.68
550.88	50139.05
551.08	50173.87
551.279	50438.06
551.479	49784.75
551.679	49956.78
551.879	49551.29
552.079	50587.56
552.278	49713.08
552.478	50382.76
552.678	50063.28
552.878	50718.63
553.077	50100.14
553.277	49838
553.477	50257.84
553.676	49715.12
553.876	50108.33
554.076	49686.45
554.275	49690.55
554.475	49145.79
554.674	49948.59
554.874	49698.74
555.074	49448.89
555.273	49737.65
555.473	49956.78
555.672	49346.49
555.872	49467.32
556.071	49489.85
556.271	49579.96
556.47	49473.46
556.67	48928.7
556.869	49362.87
557.068	49420.22
557.268	48689.09
557.467	49137.6
557.667	48631.75
557.866	48850.88
558.065	48803.78
558.265	48621.51
558.464	48480.2
558.663	48981.95
558.863	48256.97
559.062	49141.69
559.261	48347.08
559.461	48732.1
559.66	47826.9
559.859	48510.92
560.058	47837.14
560.258	48474.06
560.457	47888.34
560.656	48469.96
560.855	47679.44
561.054	48318.41
561.253	47622.1
561.453	47900.62
561.652	47894.48
561.851	47728.59
562.05	47622.1
562.249	46952.41
562.448	47783.89
562.647	47638.48
562.846	47278.04
563.045	47157.21
563.244	46999.52
563.443	47575
563.642	46651.36
563.841	47081.44
564.04	46712.8
564.239	47259.61
564.438	45973.49
564.637	46680.03
564.836	46790.62
565.035	46163.95
565.234	46254.06
565.432	46196.71
565.631	45926.38
565.83	46118.89
566.029	45903.85
566.228	45694.96
566.427	45606.9
566.625	45406.2
566.824	44931.07
567.023	45402.1
567.222	45189.11
567.42	45537.27
567.619	45168.63
567.818	45082.62
568.016	44804.1
568.215	45019.13
568.414	44789.76
568.612	44800
568.811	44322.82
569.01	44326.92
569.208	43763.73
569.407	44208.14
569.605	43317.27
569.804	44058.63
570.002	43491.35
570.201	43591.7
570.4	43094.04
570.598	43165.72
570.797	43337.75
570.995	43208.73
571.193	43153.43
571.392	43452.44
571.59	42698.78
571.789	43235.35
571.987	42821.66
572.186	42684.45
572.384	42399.78
572.582	42620.96
572.781	42485.79
572.979	41584.69
573.177	42248.23
573.376	42303.53
573.574	41818.16
573.772	41824.3
573.971	41369.65
574.169	41332.79
574.367	41609.26
574.565	41338.93
574.763	41171
574.962	41250.87
575.16	40970.3
575.358	41084.98
575.556	40335.43
575.754	41125.94
575.952	40216.64
576.151	40912.95
576.349	40044.62
576.547	40400.96
576.745	40056.9
576.943	40591.42
577.141	39604.3
577.339	40290.37
577.537	39827.53
577.735	39782.48
577.933	39516.24
578.131	39368.79
578.329	38971.48
578.527	39088.21
578.725	39280.72
578.923	39397.46
579.121	38994.01
579.319	38963.29
579.516	39053.4
579.714	38793.31
579.912	38586.46
580.11	38692.96
580.308	38037.61
580.506	38443.1
580.704	37728.36
580.901	38307.94
581.099	38543.45
581.297	37884.01
581.495	37800.04
581.692	37959.78
581.89	37679.21
582.088	37720.17
582.285	37423.22
582.483	37679.21
582.681	37570.67
582.878	36917.37
583.076	36937.85
583.274	37410.93
583.471	36753.53
583.669	37173.36
583.866	36522.11
584.064	36669.56
584.262	36229.25
584.459	36288.64
584.657	36604.03
584.854	36235.39
585.052	35240.08
585.249	35854.47
585.447	36178.05
585.644	35473.55
585.841	35842.18
586.039	36061.32
586.236	35590.28
586.434	35555.47
586.631	35358.86
586.828	35500.17
587.026	35217.55
587.223	34752.66
587.42	34955.41
587.618	35252.37
587.815	34580.64
588.012	34404.51
588.21	34617.5
588.407	34662.55
588.604	34302.11
588.801	34064.55
588.999	34451.61
589.196	33878.18
589.393	34019.49
589.59	33497.26
589.787	33749.16
589.984	33515.69
590.182	33392.81
590.379	33489.07
590.576	32831.67
590.773	33665.19
590.97	33018.03
591.167	32958.64
591.364	32927.92
591.561	32970.93
591.758	32723.13
591.955	32471.23
592.152	32907.44
592.349	32352.44
592.546	32143.55
592.743	32600.25
592.94	31842.5
593.137	32325.82
593.334	32280.77
593.531	31647.94
593.727	32229.57
593.924	31807.69
594.121	31561.93
594.318	31748.29
594.515	31668.42
594.712	31920.32
594.908	31441.1
595.105	31674.57
595.302	31129.81
595.499	31238.35
595.696	30765.27
595.892	30539.99
596.089	30824.66
596.286	31099.09
596.482	30570.71
596.679	30556.38
596.876	30458.07
597.072	30208.22
597.269	30351.58
597.466	30236.89
597.662	29984.99
597.859	29995.23
598.055	30005.47
598.252	29434.09
598.448	29772
598.645	29421.8
598.841	29559.02
599.038	29495.53
599.234	29233.39
599.431	28905.71
599.627	29219.05
599.824	29206.76
600.02	28854.51
600.217	29077.74
600.413	28854.51
600.609	28621.05
600.806	28367.1
601.002	28567.8
601.198	28461.3
601.395	28424.44
601.591	28139.77
601.787	28160.25
601.984	27908.35
602.18	28184.83
602.376	28014.85
602.572	27353.35
602.769	27519.24
602.965	27859.2
603.161	27541.77
603.357	27531.53
603.553	27382.02
603.75	27275.53
603.946	27218.19
604.142	27678.98
604.338	27048.21
604.534	26964.24
604.73	26884.37
604.926	26513.69
605.122	26919.18
605.318	26804.5
605.514	26806.55
605.71	26736.91
605.906	26644.76
606.102	26538.26
606.298	26482.97
606.494	26341.66
606.69	26120.48
606.886	26118.43
607.082	25913.63
607.278	25794.85
607.474	25786.66
607.67	25790.75
607.866	25616.68
608.062	25858.34
608.257	25596.2
608.453	25637.16
608.649	25559.33
608.845	25501.99
609.041	25428.26
609.236	25422.12
609.432	25379.11
609.628	25162.03
609.824	25082.16
610.019	25078.06
610.215	25184.55
610.411	24883.5
610.606	24953.13
610.802	24994.09
610.998	24906.03
611.193	24762.67
611.389	24367.41
611.584	24551.73
611.78	24607.03
611.976	24645.94
612.171	24770.86
612.367	24584.5
612.562	24488.24
612.758	24088.89
612.953	23916.86
613.149	24432.95
613.344	24131.9
613.539	24387.89
613.735	23914.81
613.93	24224.06
614.126	23939.39
614.321	24135.99
614.517	24113.47
614.712	24068.41
614.907	23923.01
615.103	24105.27
615.298	23839.04
615.493	24027.45
615.688	23208.26
615.884	23849.28
616.079	23648.58
616.274	23718.21
616.47	23306.57
616.665	23486.79
616.86	23243.08
617.055	23368.01
617.25	23177.54
617.445	23460.16
617.641	22767.95
617.836	23341.38
618.031	22802.77
618.226	23394.63
618.421	22747.47
618.616	23118.15
618.811	22751.57
619.006	22991.18
619.201	22120.79
619.396	22583.63
619.591	22337.88
619.786	22589.78
619.981	21985.63
620.176	22169.94
620.371	21778.78
620.566	22118.75
620.761	21815.65
620.956	21946.72
621.151	21571.94
621.346	21614.94
621.541	21250.41
621.735	21670.24
621.93	21078.38
622.125	21332.33
622.32	20744.56
622.515	20857.2
622.709	20777.33
622.904	20652.4
623.099	20629.87
623.294	20658.54
623.488	20205.94
623.683	20482.42
623.878	20228.47
624.072	20308.34
624.267	20050.3
624.462	19958.14
624.656	19853.69
624.851	19675.52
625.046	19560.83
625.24	19628.42
625.435	19351.94
625.629	19413.38
625.824	19286.4
626.018	19188.1
626.213	18735.5
626.407	19106.18
626.602	19024.26
626.796	19005.83
626.991	18700.69
627.185	18340.24
627.38	18411.92
627.574	18393.49
627.768	17992.09
627.963	18106.77
628.157	17957.27
628.352	17899.93
628.546	17815.96
628.74	17940.89
628.935	17523.1
629.129	17650.08
629.323	17228.2
629.517	17492.38
629.712	17136.04
629.906	17318.31
630.1	16875.95
630.294	17043.88
630.489	16841.13
630.683	16933.29
630.877	16697.77
631.071	16474.54
631.265	16802.22
631.459	16267.7
631.653	16542.13
631.848	16509.36
632.042	16007.61
632.236	16251.31
632.43	15897.02
632.624	16023.99
632.818	15708.6
633.012	15903.16
633.206	15651.26
633.4	15651.26
633.594	15581.63
633.788	15542.72
633.982	15415.74
634.176	15286.72
634.369	15337.92
634.563	15227.33
634.757	15020.49
634.951	15270.34
635.145	14916.04
635.339	14744.01
635.533	14696.91
635.726	14682.57
635.92	14422.48
636.114	14569.93
636.308	14445.01
636.501	14352.85
636.695	14303.7
636.889	14189.01
637.083	13918.68
637.276	14113.24
637.47	13953.49
637.664	13689.31
637.857	13844.95
638.051	13767.13
638.244	13859.29
638.438	13660.63
638.632	13523.42
638.825	13412.83
639.019	13154.79
639.212	13242.85
639.406	13066.72
639.599	12980.71
639.793	13177.31
639.986	13083.11
640.18	12939.75
640.373	13001.19
640.567	12743.14
640.76	12679.66
640.954	12489.2
641.147	12476.91
641.34	12579.31
641.534	12444.14
641.727	12284.4
641.92	12077.55
642.114	12147.19
642.307	12212.72
642.5	12102.13
642.694	11944.44
642.887	11792.89
643.08	11866.61
643.273	11688.44
643.467	11690.49
643.66	11710.97
643.853	11670.01
644.046	11514.36
644.239	11414.01
644.432	11444.73
644.626	11428.35
644.819	11260.41
645.012	11510.27
645.205	11072
645.398	11248.13
645.591	11223.55
645.784	10936.84
645.977	10854.92
646.17	10990.08
646.363	10930.69
646.556	10746.37
646.749	10787.33
646.942	10797.57
647.135	10445.32
647.328	10680.84
647.521	10435.08
647.714	10308.11
647.907	10437.13
648.099	10297.87
648.292	10322.45
648.485	10039.83
648.678	10267.15
648.871	9990.67
649.064	10113.55
649.256	10127.89
649.449	10007.06
649.642	9892.37
649.835	9957.91
650.027	9937.43
650.22	9798.17
650.413	9609.75
650.605	9642.52
650.798	9691.67
650.991	9376.28
651.183	9493.02
651.376	9345.56
651.568	9318.94
651.761	9327.13
651.954	9318.94
652.146	9290.27
652.339	9224.73
652.531	8888.87
652.724	9003.55
652.916	9046.56
653.109	9144.86
653.301	9075.23
653.494	9036.32
653.686	8931.87
653.879	8827.43
654.071	8731.17
654.263	8571.43
654.456	8688.17
654.648	8718.89
654.84	8608.3
655.033	8446.51
655.225	8608.3
655.417	8299.05
655.61	8413.74
655.802	8583.72
655.994	8360.49
656.186	8092.21
656.379	8067.63
656.571	8229.42
656.763	8071.73
656.955	8110.64
657.148	8217.13
657.34	8104.49
657.532	7983.66
657.724	7944.75
657.916	8032.82
658.108	7856.69
658.3	7805.49
658.492	7692.85
658.684	7778.87
658.876	7791.16
659.068	7776.82
659.26	7533.11
659.452	7569.98
659.644	7715.38
659.836	7578.17
660.028	7512.63
660.22	7379.51
660.412	7320.12
660.604	7303.74
660.796	7438.91
660.988	7211.58
661.18	7035.46
661.372	7301.69
661.563	7395.9
661.755	7068.22
661.947	7299.64
662.139	7135.81
662.331	7004.74
662.522	6982.21
662.714	7121.47
662.906	6799.94
663.097	6865.47
663.289	6947.39
663.481	6920.77
663.673	6824.51
663.864	6830.66
664.056	6775.36
664.247	6783.56
664.439	6668.87
664.631	6742.6
664.822	6482.5
665.014	6531.65
665.205	6429.26
665.397	6507.08
665.588	6593.09
665.78	6595.14
665.971	6423.11
666.163	6242.89
666.354	6392.39
666.546	6242.89
666.737	6289.99
666.929	6261.32
667.12	6222.41
667.311	6242.89
667.503	6113.87
667.694	6244.94
667.885	6228.56
668.077	6189.64
668.268	6175.31
668.459	6138.44
668.651	5982.8
668.842	6165.07
669.033	5988.94
669.224	5913.17
669.416	5968.46
669.607	6050.38
669.798	5818.96
669.989	5956.18
670.18	5812.82
670.371	5804.63
670.563	5821.01
670.754	5831.25
670.945	5536.34
671.136	5646.93
671.327	5814.87
671.518	5691.99
671.709	5841.49
671.9	5698.13
672.091	5700.18
672.282	5751.38
672.473	5503.57
672.664	5532.25
672.855	5603.93
673.046	5579.35
673.237	5538.39
673.428	5530.2
673.619	5681.75
673.809	5503.57
674	5438.04
674.191	5448.28
674.382	5435.99
674.573	5464.66
674.764	5325.4
674.954	5499.48
675.145	5397.08
675.336	5313.11
675.527	5319.26
675.717	5362.26
675.908	5255.77
676.099	5321.31
676.289	5223
676.48	5106.27
676.671	5282.39
676.861	5286.49
677.052	5208.67
677.243	5171.8
677.433	5194.33
677.624	5153.37
677.814	5169.76
678.005	5298.78
678.195	5161.56
678.386	5102.17
678.576	5120.6
678.767	5128.8
678.957	5120.6
679.148	5214.81
679.338	5186.14
679.529	5161.56
679.719	5007.97
679.909	5149.28
680.1	5257.82
680.29	4911.71
680.481	5038.69
680.671	4987.49
680.861	4909.66
681.052	5206.62
681.242	4930.14
681.432	5050.97
681.622	5089.88
681.813	5038.69
682.003	5165.66
682.193	4876.9
682.383	5044.83
682.573	4932.19
682.764	4899.42
682.954	4958.81
683.144	5001.82
683.334	4825.7
683.524	4833.89
683.714	4948.58
683.904	4874.85
684.094	4975.2
684.284	5014.11
684.474	5005.92
684.664	4852.32
684.854	4930.14
685.044	4911.71
685.234	4862.56
685.424	4870.75
685.614	4749.92
685.804	4850.27
685.994	4837.98
686.184	4807.27
686.374	4698.72
686.564	4686.44
686.753	4678.24
686.943	4641.38
687.133	4604.52
687.323	4645.48
687.513	4581.99
687.702	4567.65
687.892	4837.98
688.082	4473.45
688.272	4573.8
688.461	4487.78
688.651	4610.66
688.841	4500.07
689.03	4514.41
689.22	4516.45
689.41	4332.14
689.599	4373.1
689.789	4196.97
689.979	4278.89
690.168	4440.68
690.358	4246.12
690.547	4407.91
690.737	4350.57
690.926	4127.34
691.116	4186.73
691.305	4438.63
691.495	4289.13
691.684	4239.98
691.874	4260.46
692.063	4237.93
692.252	4149.87
692.442	4260.46
692.631	4108.91
692.82	4192.87
693.01	4047.47
693.199	3971.69
693.388	3973.74
693.578	4061.8
693.767	4076.14
693.956	4121.2
694.146	4092.52
694.335	4051.56
694.524	3998.32
694.713	4035.18
694.902	3957.36
695.092	3908.21
695.281	3936.88
695.47	3875.44
695.659	3834.48
695.848	3945.07
696.037	3947.12
696.226	3945.07
696.415	3906.16
696.604	4002.41
696.793	3885.68
696.982	3979.89
697.171	3787.38
697.36	3799.66
697.549	3742.32
697.738	3881.58
697.927	3775.09
698.116	3889.78
698.305	3912.3
698.494	4014.7
698.683	3613.3
698.872	3768.95
699.061	3816.05
699.25	3838.58
699.438	3863.15
699.627	3695.22
699.816	3824.24
700.005	3674.74
700.193	3709.55
700.382	3779.18
700.571	3666.55
700.76	3695.22
700.948	3906.16
701.137	3742.32
701.326	3842.67
701.514	3775.09
701.703	3697.27
701.892	3764.85
702.08	3826.29
702.269	3781.23
702.457	3648.11
702.646	3787.38
702.834	3766.9
703.023	3644.02
703.212	3715.7
703.4	3691.12
703.589	3752.56
703.777	3670.64
703.965	3699.31
704.154	3646.07
704.342	3760.75
704.531	3775.09
704.719	3541.62
704.907	3676.79
705.096	3613.3
705.284	3723.89
705.472	3727.99
705.661	3566.2
705.849	3758.71
706.037	3672.69
706.226	3684.98
706.414	3676.79
706.602	3648.11
706.79	3807.86
706.979	3623.54
707.167	3658.35
707.355	3650.16
707.543	3707.51
707.731	3629.68
707.919	3613.3
708.107	3678.83
708.296	3699.31
708.484	3588.72
708.672	3623.54
708.86	3543.67
709.048	3633.78
709.236	3711.6
709.424	3678.83
709.612	3717.75
709.8	3666.55
709.988	3750.51
710.176	3705.46
710.364	3734.13
710.551	3752.56
710.739	3580.53
710.927	3592.82
711.115	3570.29
711.303	3693.17
711.491	3601.01
711.679	3625.59
711.866	3752.56
712.054	3674.74
712.242	3723.89
712.43	3754.61
712.617	3654.26
712.805	3703.41
712.993	3601.01
713.181	3584.63
713.368	3648.11
713.556	3674.74
713.744	3635.83
713.931	3594.87
714.119	3617.4
714.306	3715.7
714.494	3662.45
714.682	3625.59
714.869	3744.37
715.057	3713.65
715.244	3635.83
715.432	3703.41
715.619	3678.83
715.807	3668.59
715.994	3672.69
716.182	3641.97
716.369	3795.57
716.556	3674.74
716.744	3705.46
716.931	3713.65
717.119	3705.46
717.306	3727.99
717.493	3566.2
717.681	3637.88
717.868	3590.77
718.055	3703.41
718.242	3629.68
718.43	3689.07
718.617	3535.48
718.804	3549.81
718.991	3564.15
719.179	3578.48
719.366	3564.15
719.553	3633.78
719.74	3539.57
719.927	3689.07
720.114	3754.61
720.301	3605.11
720.488	3601.01
720.676	3572.34
720.863	3707.51
721.05	3625.59
721.237	3623.54
721.424	3684.98
721.611	3562.1
721.798	3603.06
721.985	3664.5
722.172	3500.66
722.358	3531.38
722.545	3529.33
722.732	3549.81
722.919	3682.93
723.106	3570.29
723.293	3547.76
723.48	3570.29
723.667	3506.81
723.853	3539.57
724.04	3555.96
724.227	3527.28
724.414	3572.34
724.6	3486.33
724.787	3572.34
724.974	3555.96
725.161	3463.8
725.347	3476.09
725.534	3519.09
725.72	3529.33
725.907	3644.02
726.094	3584.63
726.28	3525.24
726.467	3727.99
726.653	3594.87
726.84	3469.94
727.027	3517.05
727.213	3547.76
727.4	3502.71
727.586	3490.42
727.773	3572.34
727.959	3553.91
728.145	3449.46
728.332	3443.32
728.518	3416.69
728.705	3623.54
728.891	3383.93
729.077	3523.19
729.264	3543.67
729.45	3406.45
729.636	3562.1
729.823	3482.23
730.009	3590.77
730.195	3445.37
730.382	3474.04
730.568	3416.69
730.754	3445.37
730.94	3410.55
731.126	3498.61
731.313	3410.55
731.499	3408.5
731.685	3467.89
731.871	3316.34
732.057	3467.89
732.243	3396.21
732.429	3471.99
732.615	3379.83
732.801	3426.93
732.987	3408.5
733.173	3340.92
733.359	3498.61
733.545	3306.1
733.731	3259
733.917	3351.16
734.103	3377.78
734.289	3492.47
734.475	3474.04
734.661	3318.39
734.847	3342.97
735.033	3375.74
735.219	3230.33
735.404	3318.39
735.59	3334.78
735.776	3273.34
735.962	3293.82
736.148	3390.07
736.333	3375.74
736.519	3248.76
736.705	3418.74
736.89	3263.1
737.076	3351.16
737.262	3222.14
737.447	3359.35
737.633	3142.27
737.819	3375.74
738.004	3291.77
738.19	3357.3
738.375	3125.88
738.561	3392.12
738.747	3275.38
738.932	3154.55
739.118	3357.3
739.303	3211.9
739.489	3199.61
739.674	3089.02
739.859	3099.26
740.045	3213.95
740.23	3156.6
740.416	3080.83
740.601	3113.6
740.786	3150.46
740.972	2945.66
741.157	3218.04
741.342	2998.91
741.528	2945.66
741.713	3103.36
741.898	3023.48
742.084	3003
742.269	3052.16
742.454	3007.1
742.639	3072.64
742.824	2962.05
743.01	3062.4
743.195	2986.62
743.38	2898.56
743.565	2855.55
743.75	2939.52
743.935	2892.41
744.12	2841.22
744.305	2757.25
744.49	2790.02
744.675	2835.07
744.86	2863.74
745.045	2802.3
745.23	2869.89
745.415	2732.67
745.6	2888.32
745.785	2787.97
745.97	2855.55
746.155	2671.23
746.34	2749.06
746.525	2704
746.71	2802.3
746.895	2697.86
747.079	2617.99
747.264	2691.71
747.449	2572.93
747.634	2529.92
747.819	2622.08
748.003	2552.45
748.188	2466.44
748.373	2476.68
748.557	2476.68
748.742	2527.88
748.927	2486.92
749.111	2493.06
749.296	2394.76
749.481	2476.68
749.665	2425.48
749.85	2284.17
750.034	2351.75
750.219	2341.51
750.404	2366.09
750.588	2380.42
750.773	2253.45
750.957	2278.02
751.141	2290.31
751.326	2187.91
751.51	2149
751.695	2171.53
751.879	2130.57
752.064	2263.69
752.248	2198.15
752.432	2120.33
752.617	2114.19
752.801	2126.47
752.985	2075.27
753.17	2095.75
753.354	2101.9
753.538	2013.84
753.722	2048.65
753.907	2001.55
754.091	2110.09
754.275	1962.64
754.459	1999.5
754.643	1991.31
754.828	2026.12
755.012	1933.97
755.196	1976.97
755.38	1833.61
755.564	1819.28
755.748	1888.91
755.932	1917.58
756.116	1825.42
756.3	1827.47
756.484	1737.36
756.668	1829.52
756.852	1727.12
757.036	1843.85
757.22	1720.98
757.404	1714.83
757.588	1720.98
757.772	1778.32
757.956	1716.88
758.14	1778.32
758.323	1743.5
758.507	1774.22
758.691	1626.77
758.875	1727.12
759.059	1690.26
759.242	1690.26
759.426	1639.06
759.61	1723.02
759.794	1692.3
759.977	1675.92
760.161	1573.52
760.345	1614.48
760.528	1610.39
760.712	1614.48
760.895	1532.56
761.079	1489.56
761.263	1550.99
761.446	1598.1
761.63	1555.09
761.813	1589.91
761.997	1477.27
762.18	1532.56
762.364	1450.64
762.547	1456.79
762.731	1477.27
762.914	1573.52
763.098	1518.23
763.281	1368.73
763.464	1409.69
763.648	1446.55
763.831	1393.3
764.015	1524.37
764.198	1421.97
764.381	1385.11
764.564	1374.87
764.748	1450.64
764.931	1292.95
765.114	1503.89
765.297	1391.25
765.481	1362.58
765.664	1385.11
765.847	1335.96
766.03	1381.01
766.213	1325.72
766.397	1200.79
766.58	1278.62
766.763	1327.77
766.946	1383.06
767.129	1272.47
767.312	1313.43
767.495	1239.7
767.678	1286.81
767.861	1340.05
768.044	1331.86
768.227	1260.18
768.41	1233.56
768.593	1413.78
768.776	1327.77
768.959	1311.38
769.142	1200.79
769.324	1188.5
769.507	1274.52
769.69	1143.45
769.873	1186.46
770.056	1155.74
770.239	1190.55
770.421	1223.32
770.604	1247.9
770.787	1153.69
770.97	1141.4
771.152	1090.2
771.335	1196.7
771.518	1151.64
771.7	1110.68
771.883	1184.41
772.066	1131.16
772.248	1168.02
772.431	1180.31
772.613	1090.2
772.796	1159.83
772.978	1118.87
773.161	1014.43
773.343	1112.73
773.526	1018.52
773.708	1051.29
773.891	979.61
774.073	1020.57
774.256	1032.86
774.438	1082.01
774.621	957.08
774.803	926.36
774.985	1036.95
775.168	985.76
775.35	963.23
775.532	967.32
775.715	942.75
775.897	959.13
776.079	959.13
776.261	975.52
776.444	1057.43
776.626	934.56
776.808	934.56
776.99	934.56
777.173	959.13
777.355	930.46
777.537	922.27
777.719	838.3
777.901	916.12
778.083	809.63
778.265	821.92
778.447	916.12
778.629	807.58
778.811	907.93
778.993	866.97
779.175	856.73
779.357	891.55
779.539	809.63
779.721	899.74
779.903	864.93
780.085	856.73
780.267	717.47
780.449	760.48
780.631	768.67
780.812	828.06
780.994	754.34
781.176	756.38
781.358	717.47
781.54	733.86
781.721	772.77
781.903	744.1
782.085	789.15
782.267	748.19
782.448	819.87
782.63	746.14
782.812	666.27
782.993	647.84
783.175	686.75
783.357	680.61
783.538	690.85
783.72	596.64
783.901	686.75
784.083	559.78
784.264	713.38
784.446	694.94
784.627	533.15
784.809	664.22
784.99	656.03
785.172	567.97
785.353	623.27
785.535	524.96
785.716	598.69
785.897	594.59
786.079	508.58
786.26	557.73
786.441	680.61
786.623	635.55
786.804	594.59
786.985	572.07
787.167	602.79
787.348	567.97
787.529	570.02
787.71	574.11
787.891	572.07
788.073	586.4
788.254	488.1
788.435	518.82
788.616	625.31
788.797	467.62
788.978	567.97
789.159	555.68
789.34	543.39
789.522	547.49
789.703	553.63
789.884	443.04
790.065	467.62
790.246	459.43
790.427	408.23
790.607	565.92
790.788	539.3
790.969	488.1
791.15	504.48
791.331	475.81
791.512	412.32
791.693	457.38
791.874	488.1
792.054	471.72
792.235	492.2
792.416	510.63
792.597	441
792.778	451.24
792.958	361.13
793.139	473.76
793.32	570.02
793.5	475.81
793.681	393.89
793.862	391.84
794.042	445.09
794.223	363.17
794.404	377.51
794.584	326.31
794.765	395.94
794.945	412.32
795.126	441
795.306	467.62
795.487	486.05
795.667	367.27
795.848	361.13
796.028	432.8
796.209	445.09
796.389	408.23
796.57	340.65
796.75	334.5
796.93	369.32
797.111	348.84
797.291	299.69
797.471	375.46
797.652	344.74
797.832	393.89
798.012	420.52
798.192	303.78
798.373	324.26
798.553	397.99
798.733	365.22
798.913	342.69
799.093	369.32
799.274	324.26
799.454	326.31
799.634	295.59
799.814	373.41
799.994	348.84
800.174	350.89
800.354	332.45
800.534	266.92
800.714	268.97
800.894	301.73
801.074	299.69
801.254	260.77
801.434	254.63
801.614	363.17
801.794	264.87
801.974	803.49
802.154	307.88
802.334	361.13
802.514	268.97
802.693	293.54
802.873	307.88
803.053	410.28
803.233	248.49
803.413	318.12
803.592	283.3
803.772	252.58
803.952	283.3
804.131	307.88
804.311	275.11
804.491	361.13
804.67	230.06
804.85	266.92
805.03	287.4
805.209	367.27
805.389	252.58
805.568	217.77
805.748	275.11
805.928	311.97
806.107	213.67
806.287	311.97
806.466	254.63
806.646	297.64
806.825	238.25
807.004	201.38
807.184	332.45
807.363	303.78
807.543	322.21
807.722	246.44
807.901	299.69
808.081	221.86
808.26	180.9
808.439	234.15
808.619	309.93
808.798	236.2
808.977	185
809.156	223.91
809.336	205.48
809.515	297.64
809.694	228.01
809.873	287.4
810.052	266.92
810.231	197.29
810.411	219.82
810.59	283.3
810.769	189.1
810.948	309.93
811.127	170.66
811.306	195.24
811.485	139.94
811.664	246.44
811.843	215.72
812.022	273.06
812.201	242.34
812.38	236.2
812.559	209.58
812.737	248.49
812.916	252.58
813.095	303.78
813.274	230.06
813.453	246.44
813.632	236.2
813.811	254.63
813.989	141.99
814.168	121.51
814.347	201.38
814.526	203.43
814.704	242.34
814.883	166.57
815.062	180.9
815.24	164.52
815.419	219.82
815.598	213.67
815.776	156.33
815.955	150.18
816.133	168.62
816.312	187.05
816.49	254.63
816.669	236.2
816.847	144.04
817.026	268.97
817.204	125.61
817.383	174.76
817.561	152.23
817.74	127.66
817.918	256.68
818.097	135.85
818.275	162.47
818.453	168.62
818.632	187.05
818.81	197.29
818.988	137.9
819.167	242.34
819.345	238.25
819.523	223.91
819.701	164.52
819.879	139.94
820.058	228.01
820.236	162.47
820.414	137.9
820.592	176.81
820.77	144.04
820.948	203.43
821.127	111.27
821.305	150.18
821.483	148.14
821.661	193.19
821.839	201.38
822.017	176.81
822.195	96.94
822.373	170.66
822.551	185
822.729	162.47
822.907	141.99
823.085	144.04
823.262	158.38
823.44	152.23
823.618	174.76
823.796	201.38
823.974	146.09
824.152	92.84
824.329	129.7
824.507	119.46
824.685	197.29
824.863	113.32
825.04	90.79
825.218	113.32
825.396	139.94
825.574	164.52
825.751	144.04
825.929	119.46
826.107	178.86
826.284	127.66
826.462	107.18
826.639	156.33
826.817	129.7
826.994	62.12
827.172	105.13
827.349	187.05
827.527	135.85
827.704	164.52
827.882	66.22
828.059	150.18
828.237	74.41
828.414	199.34
828.591	84.65
828.769	172.71
828.946	49.83
829.124	66.22
829.301	191.14
829.478	135.85
829.655	148.14
829.833	178.86
830.01	94.89
830.187	121.51
830.364	84.65
830.542	101.03
830.719	135.85
830.896	193.19
831.073	164.52
831.25	146.09
831.427	78.51
831.604	199.34
831.782	115.37
831.959	193.19
832.136	45.74
832.313	88.75
832.49	72.36
832.667	135.85
832.844	86.7
833.021	47.79
833.198	76.46
833.374	123.56
833.551	27.31
833.728	51.88
833.905	115.37
834.082	82.6
834.259	82.6
834.436	129.7
834.612	92.84
834.789	129.7
834.966	119.46
835.143	70.31
835.319	68.27
835.496	125.61
835.673	82.6
835.85	129.7
836.026	98.99
836.203	109.22
836.38	68.27
836.556	60.07
836.733	107.18
836.909	129.7
837.086	43.69
837.262	55.98
837.439	27.31
837.616	39.59
837.792	49.83
837.968	209.58
838.145	70.31
838.321	105.13
838.498	125.61
838.674	96.94
838.851	64.17
839.027	62.12
839.203	82.6
839.38	123.56
839.556	123.56
839.732	84.65
839.909	47.79
840.085	172.71
840.261	80.55
840.437	58.03
840.614	82.6
840.79	105.13
840.966	123.56
841.142	160.42
841.318	98.99
841.494	86.7
841.671	125.61
841.847	58.03
842.023	23.21
842.199	43.69
842.375	207.53
842.551	109.22
842.727	41.64
842.903	137.9
843.079	-1.37
843.255	58.03
843.431	27.31
843.607	27.31
843.783	58.03
843.959	90.79
844.134	101.03
844.31	80.55
844.486	131.75
844.662	49.83
844.838	51.88
845.013	31.4
845.189	41.64
845.365	37.55
845.541	72.36
845.716	35.5
845.892	115.37
846.068	33.45
846.244	33.45
846.419	94.89
846.595	-9.56
846.77	21.16
846.946	148.14
847.122	103.08
847.297	53.93
847.473	29.35
847.648	-11.61
847.824	58.03
847.999	27.31
848.175	70.31
848.35	86.7
848.526	127.66
848.701	31.4
848.876	72.36
849.052	105.13
849.227	137.9
849.403	25.26
849.578	6.83
849.753	66.22
849.929	115.37
850.104	66.22
850.279	51.88
850.454	8.87
850.63	6.83
850.805	23.21
850.98	33.45
851.155	131.75
851.33	109.22
851.505	-1.37
851.681	53.93
851.856	6.83
852.031	37.55
852.206	-13.65
852.381	47.79
852.556	84.65
852.731	35.5
852.906	74.41
853.081	0.68
853.256	101.03
853.431	25.26
853.606	98.99
853.781	66.22
853.956	-83.28
854.131	55.98
854.305	103.08
854.48	41.64
854.655	6.83
854.83	-36.18
855.005	51.88
855.18	70.31
855.354	60.07
855.529	58.03
855.704	29.35
855.879	47.79
856.053	39.59
856.228	76.46
856.403	60.07
856.577	123.56
856.752	-15.7
856.926	53.93
857.101	-30.04
857.276	-1.37
857.45	43.69
857.625	80.55
857.799	15.02
857.974	-7.51
858.148	45.74
858.323	41.64
858.497	-13.65
858.672	25.26
858.846	25.26
859.02	4.78
859.195	-19.8
859.369	10.92
859.543	17.07
859.718	-1.37
859.892	23.21
860.066	37.55
860.241	45.74
860.415	-32.08
860.589	82.6
860.763	-19.8
860.938	-11.61
861.112	53.93
861.286	-50.52
861.46	0.68
861.634	33.45
861.808	27.31
861.982	113.32
862.157	4.78
862.331	-15.7
862.505	25.26
862.679	-11.61
862.853	-32.08
863.027	66.22
863.201	148.14
863.375	21.16
863.549	4.78
863.722	74.41
863.896	101.03
864.07	-15.7
864.244	51.88
864.418	23.21
864.592	68.27
864.766	-23.89
864.939	88.75
865.113	27.31
865.287	41.64
865.461	-17.75
865.634	-34.13
865.808	-17.75
865.982	17.07
866.156	33.45
866.329	-36.18
866.503	47.79
866.676	37.55
866.85	88.75
867.024	35.5
867.197	29.35
867.371	62.12
867.544	-7.51
867.718	37.55
867.891	8.87
868.065	-27.99
868.238	-36.18
868.412	98.99
868.585	2.73
868.759	-17.75
868.932	12.97
869.105	35.5
869.279	64.17
869.452	25.26
869.625	2.73
869.799	0.68
869.972	27.31
870.145	25.26
870.319	-1.37
870.492	27.31
870.665	10.92
870.838	15.02
871.011	17.07
871.185	12.97
871.358	-23.89
871.531	51.88
871.704	12.97
871.877	-32.08
872.05	4.78
872.223	8.87
872.396	-25.94
872.569	-13.65
872.742	37.55
872.915	21.16
873.088	27.31
873.261	60.07
873.434	33.45
873.607	25.26
873.78	66.22
873.953	19.11
874.126	-7.51
874.299	-40.28
874.471	8.87
874.644	55.98
874.817	31.4
874.99	23.21
875.163	58.03
875.335	4.78
875.508	12.97
875.681	37.55
875.853	0.68
876.026	51.88
876.199	-93.52
876.371	58.03
876.544	-25.94
876.717	55.98
876.889	39.59
877.062	53.93
877.234	10.92
877.407	53.93
877.579	60.07
877.752	15.02
877.924	66.22
878.097	103.08
878.269	27.31
878.442	43.69
878.614	25.26
878.786	17.07
878.959	-13.65
879.131	45.74
879.303	-48.47
879.476	29.35
879.648	-23.89
879.82	21.16
879.993	-34.13
880.165	33.45
880.337	-40.28
880.509	37.55
880.681	-27.99
880.854	-21.85
881.026	-15.7
881.198	27.31
881.37	-19.8
881.542	27.31
881.714	4.78
881.886	41.64
882.058	39.59
882.23	90.79
882.402	49.83
882.574	49.83
882.746	49.83
882.918	78.51
883.09	12.97
883.262	-3.41
883.434	45.74
883.606	-32.08
883.778	8.87
883.95	-17.75
884.122	6.83
884.293	55.98
884.465	12.97
884.637	88.75
884.809	-23.89
884.98	10.92
885.152	-1.37
885.324	37.55
885.496	-32.08
885.667	-27.99
885.839	-7.51
886.011	64.17
886.182	-5.46
886.354	-30.04
886.525	33.45
886.697	60.07
886.869	-44.37
887.04	-27.99
887.212	33.45
887.383	76.46
887.555	-23.89
887.726	-40.28
887.897	21.16
888.069	0.68
888.24	94.89
888.412	39.59
888.583	23.21
888.754	6.83
888.926	-30.04
889.097	19.11
889.268	8.87
889.44	12.97
889.611	-7.51
889.782	-3.41
889.953	-11.61
890.125	74.41
890.296	-13.65
890.467	-9.56
890.638	8.87
890.809	39.59
890.98	-81.24
891.151	49.83
891.323	-19.8
891.494	-15.7
891.665	-48.47
891.836	49.83
892.007	60.07
892.178	-64.85
892.349	39.59
892.52	-5.46
892.691	92.84
892.862	-56.66
893.032	-40.28
893.203	-38.23
893.374	-15.7
893.545	98.99
893.716	17.07
893.887	-36.18
894.057	64.17
894.228	45.74
894.399	-1.37
894.57	74.41
894.74	68.27
894.911	66.22
895.082	2.73
895.253	-42.32
895.423	12.97
895.594	25.26
895.764	-7.51
895.935	49.83
896.106	4.78
896.276	-17.75
896.447	31.4
896.617	-7.51
896.788	-15.7
896.958	-17.75
897.129	-1.37
897.299	-48.47
897.47	-34.13
897.64	-25.94
897.81	49.83
897.981	55.98
898.151	-64.85
898.322	84.65
898.492	-13.65
898.662	-83.28
898.832	-54.61
899.003	15.02
899.173	-50.52
899.343	-25.94
899.513	-23.89
