Data from USB4F104151__113__10-24-56-826.txt Node

Date: Wed Mar 12 10:24:56 EDT 2025
User: louis
Spectrometer: USB4F10415
Trigger mode: 4
Integration Time (sec): 3.000000E-2
Scans to average: 1
Electric dark correction enabled: true
Nonlinearity correction enabled: false
Boxcar width: 0
XAxis mode: Wavelengths
Number of Pixels in Spectrum: 3648
>>>>>Begin Spectral Data<<<<<
178.204	-155.13
178.424	-155.13
178.644	-155.13
178.864	-138.75
179.084	-44.54
179.304	29.18
179.524	2.56
179.744	-7.68
179.964	-13.82
180.184	-3.58
180.404	-22.02
180.624	-11.78
180.844	4.61
181.064	-30.21
181.283	25.09
181.503	-15.87
181.723	43.52
181.943	-13.82
182.163	33.28
182.383	33.28
182.602	-11.78
182.822	37.38
183.042	8.7
183.262	-5.63
183.482	-5.63
183.701	-3.58
183.921	61.95
184.141	-11.78
184.361	80.38
184.58	41.47
184.8	74.24
185.02	-28.16
185.239	111.1
185.459	31.23
185.679	23.04
185.898	-40.45
186.118	14.85
186.338	-15.87
186.557	-3.58
186.777	35.33
186.997	64
187.216	51.71
187.436	94.72
187.655	137.73
187.875	14.85
188.095	16.9
188.314	-73.21
188.534	18.94
188.753	16.9
188.973	82.43
189.192	135.68
189.412	-24.06
189.631	39.42
189.851	102.91
190.07	74.24
190.29	-19.97
190.509	-48.64
190.729	53.76
190.948	49.66
191.168	102.91
191.387	119.29
191.607	16.9
191.826	23.04
192.045	-19.97
192.265	4.61
192.484	59.9
192.704	0.51
192.923	8.7
193.142	139.77
193.362	35.33
193.581	37.38
193.8	33.28
194.02	72.19
194.239	8.7
194.458	4.61
194.678	10.75
194.897	61.95
195.116	53.76
195.335	33.28
195.555	12.8
195.774	78.33
195.993	45.57
196.212	-11.78
196.432	-32.26
196.651	16.9
196.87	72.19
197.089	94.72
197.308	61.95
197.528	-19.97
197.747	14.85
197.966	113.15
198.185	92.67
198.404	-30.21
198.623	-5.63
198.842	8.7
199.062	10.75
199.281	49.66
199.5	-19.97
199.719	12.8
199.938	18.94
200.157	100.86
200.376	74.24
200.595	33.28
200.814	-5.63
201.033	49.66
201.252	45.57
201.471	37.38
201.69	45.57
201.909	59.9
202.128	6.66
202.347	61.95
202.566	35.33
202.785	-17.92
203.004	68.09
203.223	119.29
203.442	82.43
203.661	53.76
203.879	41.47
204.098	14.85
204.317	59.9
204.536	72.19
204.755	-1.54
204.974	61.95
205.193	33.28
205.411	102.91
205.63	45.57
205.849	37.38
206.068	10.75
206.287	49.66
206.505	96.77
206.724	78.33
206.943	29.18
207.162	4.61
207.381	70.14
207.599	2.56
207.818	-75.26
208.037	-26.11
208.255	61.95
208.474	117.25
208.693	59.9
208.911	53.76
209.13	59.9
209.349	35.33
209.567	74.24
209.786	49.66
210.005	61.95
210.223	27.14
210.442	25.09
210.661	51.71
210.879	-32.26
211.098	27.14
211.316	82.43
211.535	16.9
211.753	57.86
211.972	0.51
212.191	64
212.409	-7.68
212.628	25.09
212.846	12.8
213.065	72.19
213.283	31.23
213.502	74.24
213.72	20.99
213.938	2.56
214.157	-9.73
214.375	25.09
214.594	70.14
214.812	27.14
215.031	45.57
215.249	4.61
215.467	45.57
215.686	6.66
215.904	102.91
216.122	66.05
216.341	64
216.559	10.75
216.778	41.47
216.996	80.38
217.214	4.61
217.432	2.56
217.651	-77.31
217.869	57.86
218.087	-26.11
218.306	66.05
218.524	37.38
218.742	37.38
218.96	49.66
219.179	78.33
219.397	2.56
219.615	100.86
219.833	41.47
220.051	-58.88
220.27	4.61
220.488	92.67
220.706	49.66
220.924	64
221.142	57.86
221.36	-3.58
221.578	4.61
221.796	8.7
222.015	47.62
222.233	80.38
222.451	6.66
222.669	-58.88
222.887	-11.78
223.105	8.7
223.323	-32.26
223.541	43.52
223.759	31.23
223.977	51.71
224.195	86.53
224.413	64
224.631	98.81
224.849	70.14
225.067	8.7
225.285	27.14
225.503	4.61
225.721	-22.02
225.939	68.09
226.157	82.43
226.375	70.14
226.592	57.86
226.81	35.33
227.028	127.49
227.246	29.18
227.464	86.53
227.682	49.66
227.9	-1.54
228.117	84.48
228.335	20.99
228.553	31.23
228.771	27.14
228.989	6.66
229.206	29.18
229.424	-42.5
229.642	-69.12
229.86	-3.58
230.077	113.15
230.295	53.76
230.513	14.85
230.731	14.85
230.948	129.53
231.166	33.28
231.384	29.18
231.601	10.75
231.819	82.43
232.037	61.95
232.254	-40.45
232.472	0.51
232.689	86.53
232.907	57.86
233.125	27.14
233.342	31.23
233.56	33.28
233.777	-3.58
233.995	4.61
234.213	29.18
234.43	39.42
234.648	33.28
234.865	45.57
235.083	92.67
235.3	37.38
235.518	25.09
235.735	25.09
235.953	76.29
236.17	8.7
236.388	33.28
236.605	92.67
236.822	12.8
237.04	27.14
237.257	-24.06
237.475	-30.21
237.692	59.9
237.909	121.34
238.127	39.42
238.344	18.94
238.562	37.38
238.779	-52.74
238.996	29.18
239.214	45.57
239.431	53.76
239.648	53.76
239.865	66.05
240.083	107.01
240.3	16.9
240.517	119.29
240.735	8.7
240.952	115.2
241.169	94.72
241.386	0.51
241.603	29.18
241.821	35.33
242.038	74.24
242.255	43.52
242.472	8.7
242.689	53.76
242.907	47.62
243.124	-22.02
243.341	23.04
243.558	14.85
243.775	80.38
243.992	-1.54
244.209	-17.92
244.426	-3.58
244.643	20.99
244.86	76.29
245.078	43.52
245.295	8.7
245.512	37.38
245.729	20.99
245.946	-28.16
246.163	88.57
246.38	82.43
246.597	53.76
246.814	-24.06
247.031	66.05
247.248	49.66
247.464	-17.92
247.681	82.43
247.898	100.86
248.115	45.57
248.332	45.57
248.549	74.24
248.766	86.53
248.983	82.43
249.2	37.38
249.417	16.9
249.633	31.23
249.85	61.95
250.067	25.09
250.284	-9.73
250.501	2.56
250.717	-22.02
250.934	0.51
251.151	74.24
251.368	76.29
251.585	90.62
251.801	33.28
252.018	-44.54
252.235	0.51
252.451	51.71
252.668	25.09
252.885	20.99
253.102	55.81
253.318	84.48
253.535	45.57
253.752	12.8
253.968	31.23
254.185	-40.45
254.401	47.62
254.618	76.29
254.835	4.61
255.051	18.94
255.268	-38.4
255.484	-9.73
255.701	-7.68
255.917	78.33
256.134	23.04
256.351	12.8
256.567	-52.74
256.784	45.57
257	0.51
257.217	53.76
257.433	2.56
257.65	70.14
257.866	115.2
258.082	27.14
258.299	18.94
258.515	51.71
258.732	84.48
258.948	23.04
259.165	51.71
259.381	23.04
259.597	-17.92
259.814	-17.92
260.03	31.23
260.246	100.86
260.463	70.14
260.679	55.81
260.895	111.1
261.112	66.05
261.328	109.05
261.544	94.72
261.761	178.69
261.977	-5.63
262.193	-3.58
262.409	43.52
262.626	68.09
262.842	29.18
263.058	-36.35
263.274	100.86
263.49	12.8
263.707	66.05
263.923	14.85
264.139	45.57
264.355	-38.4
264.571	49.66
264.787	57.86
265.004	64
265.22	16.9
265.436	20.99
265.652	-40.45
265.868	53.76
266.084	35.33
266.3	86.53
266.516	31.23
266.732	64
266.948	2.56
267.164	16.9
267.38	113.15
267.596	41.47
267.812	10.75
268.028	33.28
268.244	-46.59
268.46	92.67
268.676	18.94
268.892	33.28
269.108	-40.45
269.324	-13.82
269.54	-9.73
269.756	39.42
269.972	-3.58
270.188	16.9
270.403	6.66
270.619	33.28
270.835	-5.63
271.051	70.14
271.267	25.09
271.483	18.94
271.698	70.14
271.914	90.62
272.13	53.76
272.346	20.99
272.562	20.99
272.777	20.99
272.993	-40.45
273.209	-9.73
273.425	107.01
273.64	0.51
273.856	25.09
274.072	55.81
274.287	29.18
274.503	-1.54
274.719	6.66
274.934	-15.87
275.15	43.52
275.366	37.38
275.581	43.52
275.797	20.99
276.012	12.8
276.228	70.14
276.444	33.28
276.659	74.24
276.875	-44.54
277.09	57.86
277.306	57.86
277.521	170.49
277.737	70.14
277.952	66.05
278.168	61.95
278.383	-5.63
278.599	16.9
278.814	45.57
279.03	27.14
279.245	78.33
279.461	-60.93
279.676	14.85
279.892	14.85
280.107	-19.97
280.322	-11.78
280.538	127.49
280.753	4.61
280.969	25.09
281.184	-11.78
281.399	107.01
281.615	16.9
281.83	-7.68
282.045	29.18
282.26	53.76
282.476	59.9
282.691	98.81
282.906	25.09
283.122	43.52
283.337	78.33
283.552	-28.16
283.767	29.18
283.983	74.24
284.198	-9.73
284.413	18.94
284.628	-44.54
284.843	25.09
285.058	57.86
285.274	-11.78
285.489	8.7
285.704	20.99
285.919	0.51
286.134	-7.68
286.349	64
286.564	51.71
286.779	29.18
286.995	4.61
287.21	-5.63
287.425	59.9
287.64	-28.16
287.855	16.9
288.07	66.05
288.285	10.75
288.5	41.47
288.715	88.57
288.93	0.51
289.145	53.76
289.36	66.05
289.575	10.75
289.79	12.8
290.004	25.09
290.219	92.67
290.434	-28.16
290.649	8.7
290.864	0.51
291.079	53.76
291.294	70.14
291.509	18.94
291.724	-9.73
291.938	43.52
292.153	39.42
292.368	59.9
292.583	37.38
292.798	35.33
293.012	6.66
293.227	39.42
293.442	-3.58
293.657	37.38
293.871	68.09
294.086	-22.02
294.301	86.53
294.516	39.42
294.73	4.61
294.945	76.29
295.16	-28.16
295.374	-11.78
295.589	31.23
295.804	61.95
296.018	25.09
296.233	55.81
296.447	12.8
296.662	53.76
296.877	82.43
297.091	-3.58
297.306	35.33
297.52	16.9
297.735	78.33
297.949	53.76
298.164	57.86
298.378	29.18
298.593	-3.58
298.807	25.09
299.022	41.47
299.236	45.57
299.451	82.43
299.665	74.24
299.88	-69.12
300.094	-7.68
300.309	20.99
300.523	82.43
300.737	66.05
300.952	8.7
301.166	0.51
301.381	98.81
301.595	51.71
301.809	29.18
302.024	86.53
302.238	68.09
302.452	98.81
302.667	12.8
302.881	113.15
303.095	59.9
303.309	10.75
303.524	37.38
303.738	57.86
303.952	12.8
304.166	55.81
304.381	66.05
304.595	-1.54
304.809	12.8
305.023	16.9
305.237	-5.63
305.452	98.81
305.666	0.51
305.88	74.24
306.094	59.9
306.308	-15.87
306.522	131.58
306.736	51.71
306.95	86.53
307.164	37.38
307.379	-15.87
307.593	80.38
307.807	23.04
308.021	23.04
308.235	64
308.449	14.85
308.663	37.38
308.877	90.62
309.091	2.56
309.305	51.71
309.519	33.28
309.733	-26.11
309.947	18.94
310.161	-36.35
310.374	33.28
310.588	-11.78
310.802	20.99
311.016	12.8
311.23	-11.78
311.444	61.95
311.658	23.04
311.872	80.38
312.085	29.18
312.299	107.01
312.513	98.81
312.727	47.62
312.941	12.8
313.154	74.24
313.368	-15.87
313.582	53.76
313.796	27.14
314.009	96.77
314.223	20.99
314.437	70.14
314.651	25.09
314.864	35.33
315.078	33.28
315.292	55.81
315.505	31.23
315.719	27.14
315.933	20.99
316.146	-15.87
316.36	-5.63
316.573	55.81
316.787	111.1
317.001	29.18
317.214	-22.02
317.428	33.28
317.641	53.76
317.855	12.8
318.068	33.28
318.282	45.57
318.495	64
318.709	-3.58
318.922	41.47
319.136	78.33
319.349	20.99
319.563	61.95
319.776	-5.63
319.99	12.8
320.203	102.91
320.417	74.24
320.63	37.38
320.843	68.09
321.057	4.61
321.27	53.76
321.483	82.43
321.697	86.53
321.91	41.47
322.124	33.28
322.337	86.53
322.55	20.99
322.763	41.47
322.977	55.81
323.19	76.29
323.403	20.99
323.617	10.75
323.83	70.14
324.043	31.23
324.256	37.38
324.469	27.14
324.683	70.14
324.896	35.33
325.109	45.57
325.322	4.61
325.535	121.34
325.748	82.43
325.962	68.09
326.175	-24.06
326.388	43.52
326.601	0.51
326.814	53.76
327.027	6.66
327.24	74.24
327.453	-52.74
327.666	51.71
327.879	57.86
328.092	90.62
328.305	72.19
328.518	59.9
328.731	68.09
328.944	4.61
329.157	45.57
329.37	-34.3
329.583	66.05
329.796	45.57
330.009	39.42
330.222	102.91
330.435	100.86
330.648	72.19
330.861	53.76
331.073	31.23
331.286	49.66
331.499	-3.58
331.712	-19.97
331.925	43.52
332.138	41.47
332.35	-36.35
332.563	39.42
332.776	64
332.989	20.99
333.202	41.47
333.414	78.33
333.627	84.48
333.84	-44.54
334.053	20.99
334.265	29.18
334.478	64
334.691	37.38
334.903	102.91
335.116	-11.78
335.329	29.18
335.541	12.8
335.754	117.25
335.966	-1.54
336.179	-36.35
336.392	4.61
336.604	61.95
336.817	80.38
337.029	23.04
337.242	76.29
337.454	82.43
337.667	51.71
337.88	41.47
338.092	78.33
338.305	-38.4
338.517	29.18
338.729	45.57
338.942	0.51
339.154	49.66
339.367	10.75
339.579	37.38
339.792	66.05
340.004	43.52
340.217	102.91
340.429	74.24
340.641	43.52
340.854	49.66
341.066	4.61
341.278	49.66
341.491	131.58
341.703	8.7
341.915	66.05
342.128	100.86
342.34	20.99
342.552	8.7
342.764	111.1
342.977	-1.54
343.189	16.9
343.401	125.44
343.613	29.18
343.826	16.9
344.038	-22.02
344.25	16.9
344.462	2.56
344.674	107.01
344.886	25.09
345.099	80.38
345.311	80.38
345.523	16.9
345.735	-5.63
345.947	86.53
346.159	27.14
346.371	45.57
346.583	37.38
346.795	109.05
347.007	2.56
347.219	45.57
347.431	8.7
347.643	43.52
347.855	-17.92
348.067	49.66
348.279	27.14
348.491	55.81
348.703	43.52
348.915	37.38
349.127	-17.92
349.339	61.95
349.551	-42.5
349.763	84.48
349.975	53.76
350.187	119.29
350.399	57.86
350.61	121.34
350.822	-42.5
351.034	20.99
351.246	43.52
351.458	74.24
351.669	68.09
351.881	53.76
352.093	113.15
352.305	150.01
352.517	72.19
352.728	29.18
352.94	37.38
353.152	68.09
353.363	-11.78
353.575	102.91
353.787	88.57
353.999	-30.21
354.21	33.28
354.422	12.8
354.633	107.01
354.845	133.63
355.057	25.09
355.268	88.57
355.48	-11.78
355.692	37.38
355.903	47.62
356.115	92.67
356.326	-5.63
356.538	104.96
356.749	68.09
356.961	72.19
357.172	10.75
357.384	25.09
357.595	66.05
357.807	66.05
358.018	90.62
358.23	-11.78
358.441	117.25
358.653	45.57
358.864	59.9
359.075	82.43
359.287	35.33
359.498	-9.73
359.709	84.48
359.921	78.33
360.132	4.61
360.344	64
360.555	78.33
360.766	37.38
360.977	0.51
361.189	107.01
361.4	51.71
361.611	55.81
361.823	70.14
362.034	70.14
362.245	86.53
362.456	41.47
362.667	55.81
362.879	4.61
363.09	59.9
363.301	74.24
363.512	70.14
363.723	98.81
363.935	-3.58
364.146	94.72
364.357	12.8
364.568	76.29
364.779	37.38
364.99	84.48
365.201	4.61
365.412	25.09
365.623	109.05
365.834	35.33
366.045	31.23
366.256	20.99
366.467	90.62
366.678	37.38
366.889	74.24
367.1	70.14
367.311	70.14
367.522	-40.45
367.733	53.76
367.944	84.48
368.155	107.01
368.366	86.53
368.577	90.62
368.788	92.67
368.999	27.14
369.209	53.76
369.42	127.49
369.631	180.73
369.842	78.33
370.053	29.18
370.264	107.01
370.474	37.38
370.685	37.38
370.896	76.29
371.107	41.47
371.317	139.77
371.528	18.94
371.739	76.29
371.95	33.28
372.16	20.99
372.371	35.33
372.582	-11.78
372.792	102.91
373.003	8.7
373.214	121.34
373.424	20.99
373.635	-15.87
373.846	109.05
374.056	6.66
374.267	57.86
374.477	51.71
374.688	127.49
374.898	76.29
375.109	74.24
375.319	27.14
375.53	70.14
375.74	43.52
375.951	61.95
376.161	115.2
376.372	72.19
376.582	23.04
376.793	109.05
377.003	-28.16
377.214	80.38
377.424	102.91
377.635	57.86
377.845	20.99
378.055	135.68
378.266	82.43
378.476	61.95
378.686	25.09
378.897	154.11
379.107	29.18
379.317	51.71
379.528	-11.78
379.738	37.38
379.948	-79.36
380.158	90.62
380.369	29.18
380.579	55.81
380.789	16.9
380.999	45.57
381.21	98.81
381.42	66.05
381.63	20.99
381.84	74.24
382.05	27.14
382.261	109.05
382.471	-7.68
382.681	10.75
382.891	59.9
383.101	88.57
383.311	66.05
383.521	35.33
383.731	70.14
383.941	76.29
384.151	53.76
384.361	47.62
384.571	104.96
384.781	102.91
384.991	18.94
385.201	152.06
385.411	80.38
385.621	100.86
385.831	94.72
386.041	78.33
386.251	29.18
386.461	100.86
386.671	57.86
386.881	-5.63
387.091	59.9
387.301	70.14
387.511	41.47
387.72	125.44
387.93	117.25
388.14	-13.82
388.35	137.73
388.56	102.91
388.769	127.49
388.979	45.57
389.189	121.34
389.399	119.29
389.609	121.34
389.818	35.33
390.028	96.77
390.238	121.34
390.447	107.01
390.657	74.24
390.867	25.09
391.076	68.09
391.286	111.1
391.496	70.14
391.705	51.71
391.915	47.62
392.125	141.82
392.334	45.57
392.544	10.75
392.753	78.33
392.963	-3.58
393.172	82.43
393.382	12.8
393.591	139.77
393.801	68.09
394.01	29.18
394.22	115.2
394.429	16.9
394.639	74.24
394.848	37.38
395.058	55.81
395.267	98.81
395.477	39.42
395.686	41.47
395.895	127.49
396.105	160.25
396.314	107.01
396.524	164.35
396.733	92.67
396.942	166.4
397.152	141.82
397.361	107.01
397.57	90.62
397.78	102.91
397.989	35.33
398.198	154.11
398.407	45.57
398.617	111.1
398.826	178.69
399.035	129.53
399.244	29.18
399.453	180.73
399.663	125.44
399.872	86.53
400.081	135.68
400.29	182.78
400.499	49.66
400.708	186.88
400.917	100.86
401.127	123.39
401.336	14.85
401.545	225.79
401.754	102.91
401.963	164.35
402.172	119.29
402.381	135.68
402.59	137.73
402.799	133.63
403.008	205.31
403.217	127.49
403.426	215.55
403.635	74.24
403.844	160.25
404.053	143.87
404.262	127.49
404.471	197.12
404.68	123.39
404.888	131.58
405.097	98.81
405.306	190.97
405.515	215.55
405.724	154.11
405.933	190.97
406.142	188.93
406.35	193.02
406.559	211.45
406.768	205.31
406.977	260.6
407.185	203.26
407.394	203.26
407.603	197.12
407.812	279.04
408.02	313.85
408.229	244.22
408.438	315.9
408.646	170.49
408.855	256.51
409.064	363
409.272	229.88
409.481	348.67
409.69	272.89
409.898	303.61
410.107	348.67
410.315	430.59
410.524	303.61
410.733	381.43
410.941	373.24
411.15	418.3
411.358	410.11
411.567	440.83
411.775	489.98
411.984	430.59
412.192	504.31
412.401	590.33
412.609	524.79
412.818	463.35
413.026	508.41
413.234	688.63
413.443	672.25
413.651	631.29
413.86	696.82
414.068	676.34
414.276	709.11
414.485	700.92
414.693	717.3
414.901	856.56
415.11	797.17
415.318	831.99
415.526	846.32
415.734	891.38
415.943	926.19
416.151	991.73
416.359	872.95
416.567	895.47
416.776	877.04
416.984	1151.47
417.192	1153.52
417.4	1124.85
417.608	1020.4
417.817	1202.67
418.025	1237.49
418.233	1276.4
418.441	1305.07
418.649	1331.69
418.857	1423.85
419.065	1376.75
419.273	1427.95
419.481	1477.1
419.689	1591.78
419.897	1675.75
420.105	1833.44
420.313	1665.51
420.521	1806.82
420.729	1847.78
420.937	1864.16
421.145	1941.99
421.353	2009.57
421.561	2144.74
421.769	2275.81
421.977	2142.69
422.185	2298.33
422.393	2345.44
422.601	2415.07
422.809	2578.9
423.017	2572.76
423.224	2650.58
423.432	2761.17
423.64	2841.04
423.848	3105.23
424.056	2939.35
424.263	3215.82
424.471	3201.49
424.679	3264.97
424.887	3418.57
425.094	3484.11
425.302	3568.07
425.51	3592.65
425.718	3848.65
425.925	3834.31
426.133	3953.09
426.341	4239.81
426.548	4370.88
426.756	4348.35
426.964	4295.1
427.171	4622.78
427.379	4860.34
427.586	4823.48
427.794	5104.05
428.001	5280.18
428.209	5355.95
428.417	5310.89
428.624	5767.59
428.832	5661.1
429.039	5753.26
429.247	5683.63
429.454	6298.02
429.662	6701.47
429.869	6496.67
430.076	6656.41
430.284	6578.59
430.491	6767
430.699	7221.65
430.906	7115.16
431.114	7352.72
431.321	7588.24
431.528	7760.27
431.736	8300.93
431.943	8612.22
432.15	8204.67
432.358	8573.31
432.565	8774.01
432.772	8767.87
432.979	9122.16
433.187	9421.17
433.394	9658.73
433.601	10066.28
433.808	10183.01
434.016	10076.52
434.223	10672.48
434.43	11057.5
434.637	10852.7
434.844	11581.78
435.052	12069.19
435.259	11819.34
435.466	11811.15
435.673	11622.73
435.88	12448.07
436.087	13136.18
436.294	13242.68
436.501	13179.19
436.708	13295.93
436.915	13715.76
437.122	14100.78
437.329	14035.24
437.537	14387.49
437.743	14977.31
437.95	14659.87
438.157	15616.27
438.364	16081.16
438.571	16019.72
438.778	16091.4
438.985	17467.64
439.192	16666.88
439.399	17090.81
439.606	16851.2
439.813	17871.09
440.02	18880.74
440.227	18653.41
440.433	18274.54
440.64	19095.77
440.847	18755.81
441.054	19484.89
441.261	20816.07
441.467	20162.76
441.674	20691.14
441.881	21592.25
442.088	21440.7
442.294	21254.33
442.501	21950.64
442.708	22317.23
442.914	23031.97
443.121	24539.27
443.328	23607.45
443.534	25249.92
443.741	24170.64
443.948	24066.19
444.154	26056.82
444.361	25534.59
444.568	25950.32
444.774	25925.75
444.981	26337.39
445.187	27076.71
445.394	28270.67
445.6	27797.59
445.807	30251.06
446.013	29231.17
446.22	29485.12
446.426	30916.65
446.633	30982.18
446.839	32247.83
447.046	30189.62
447.252	32405.52
447.459	32374.8
447.665	32124.95
447.871	33247.24
448.078	34856.94
448.284	33060.87
448.491	34357.24
448.697	35282.92
448.903	35977.18
449.11	36308.95
449.316	35379.17
449.522	35932.12
449.728	37060.55
449.935	37068.75
450.141	37246.92
450.347	38072.25
450.553	36708.3
450.76	37457.86
450.966	38481.84
451.172	37961.66
451.378	39063.47
451.584	38182.84
451.791	38848.43
451.997	38358.97
452.203	39473.06
452.409	39442.34
452.615	39274.41
452.821	37697.47
453.027	37457.86
453.233	39374.76
453.44	37291.97
453.646	38041.53
453.852	38166.46
454.058	39192.49
454.264	37543.88
454.47	38098.87
454.676	37846.97
454.882	38522.8
455.088	35049.45
455.294	35663.84
455.5	36489.17
455.705	36642.77
455.911	35026.92
456.117	34281.46
456.323	33513.47
456.529	32114.71
456.735	33155.08
456.941	32690.19
457.147	32149.53
457.352	31258.66
457.558	30738.47
457.764	30859.31
457.97	30267.44
458.176	29620.28
458.381	29724.73
458.587	28194.9
458.793	28172.37
458.999	26234.99
459.204	28194.9
459.41	27646.04
459.616	25888.88
459.821	25817.21
460.027	25712.76
460.233	25340.03
460.438	24184.97
460.644	24436.88
460.85	23173.28
461.055	22931.62
461.261	23050.4
461.466	21035.2
461.672	20502.73
461.878	21924.02
462.083	20547.78
462.289	20271.31
462.494	19771.6
462.7	19032.29
462.905	18559.2
463.111	19161.31
463.316	19552.47
463.522	18651.36
463.727	19009.76
463.932	18850.02
464.138	18872.54
464.343	18622.69
464.549	18176.23
464.754	18946.27
464.959	18979.04
465.165	18610.4
465.37	17682.67
465.575	17064.19
465.781	17922.29
465.986	18211.05
466.191	17346.81
466.397	16767.23
466.602	16484.61
466.807	16824.58
467.012	16982.27
467.218	16568.58
467.423	16521.48
467.628	16693.51
467.833	17463.54
468.038	16746.75
468.244	16263.43
468.449	16838.91
468.654	16439.56
468.859	16414.98
469.064	16275.72
469.269	15405.33
469.474	15741.2
469.679	15995.15
469.885	15415.57
470.09	15859.98
470.295	15673.62
470.5	15053.08
470.705	15452.44
470.91	14995.74
471.115	14778.65
471.32	15108.38
471.525	14827.81
471.73	14653.73
471.935	14541.09
472.139	14057.77
472.344	14059.82
472.549	14188.84
472.754	13906.22
472.959	13623.6
473.164	13287.73
473.369	13093.18
473.574	13705.52
473.778	13517.11
473.983	13543.73
474.188	13097.27
474.393	12763.45
474.598	12898.62
474.802	12665.15
475.007	12529.98
475.212	12659.01
475.417	12089.67
475.621	12177.73
475.826	12235.08
476.031	11823.44
476.235	11657.55
476.44	11952.46
476.645	11913.55
476.849	11667.79
477.054	11651.41
477.259	11428.18
477.463	11215.19
477.668	11178.33
477.872	11149.65
478.077	11288.92
478.282	10840.41
478.486	10711.39
478.691	10905.95
478.895	10742.11
479.1	10758.49
479.304	10623.33
479.509	10260.84
479.713	10660.19
479.918	10289.51
480.122	10068.33
480.326	10236.26
480.531	10223.97
480.735	10154.34
480.94	9849.19
481.144	10393.95
481.348	10123.62
481.553	10064.23
481.757	9779.56
481.961	10033.51
482.166	10099.05
482.37	9953.64
482.574	9914.73
482.778	9869.67
482.983	10074.47
483.187	9775.47
483.391	10035.56
483.595	9838.95
483.8	9929.06
484.004	9900.39
484.208	10066.28
484.412	9965.93
484.616	9795.95
484.821	9972.07
485.025	9783.66
485.229	9867.63
485.433	9855.34
485.637	9875.82
485.841	9851.24
486.045	9812.33
486.249	9867.63
486.453	9884.01
486.657	10002.79
486.861	9894.25
487.065	9634.16
487.269	9668.97
487.473	9703.79
487.677	9746.8
487.881	9791.85
488.085	9871.72
488.289	10033.51
488.493	9904.49
488.697	9933.16
488.901	9892.2
489.105	9986.41
489.309	9982.31
489.512	9939.3
489.716	10160.48
489.92	10160.48
490.124	9994.6
490.328	10260.84
490.531	10197.35
490.735	10183.01
490.939	10500.45
491.143	10219.88
491.346	10318.18
491.55	10453.34
491.754	10269.03
491.958	10484.06
492.161	10500.45
492.365	10625.37
492.569	10398.05
492.772	10547.55
492.976	10621.28
493.18	10621.28
493.383	10916.19
493.587	10752.35
493.79	10946.9
493.994	10856.79
494.197	10811.74
494.401	11106.65
494.605	11043.16
494.808	11198.81
495.012	11229.52
495.215	11241.81
495.419	11473.23
495.622	11239.76
495.825	11542.86
496.029	11653.45
496.232	11807.05
496.436	11827.53
496.639	12192.07
496.843	12036.42
497.046	12343.62
497.249	12331.33
497.453	12542.27
497.656	12591.42
497.859	12808.51
498.063	12919.1
498.266	13130.04
498.469	12767.55
498.673	13068.6
498.876	13214.01
499.079	13549.87
499.282	13539.63
499.485	13797.68
499.689	13742.38
499.892	14016.81
500.095	14016.81
500.298	14612.77
500.501	14375.2
500.705	14711.07
500.908	14879
501.111	15227.16
501.314	15120.67
501.517	15479.06
501.72	15438.1
501.923	15663.38
502.126	15819.02
502.329	16300.3
502.532	16187.66
502.735	16288.01
502.938	16619.78
503.141	16718.08
503.344	16963.84
503.547	16982.27
503.75	17279.22
503.953	17735.92
504.156	17828.08
504.359	17701.11
504.562	17948.91
504.765	18428.13
504.968	18614.5
505.17	18751.71
505.373	18735.33
505.576	18950.37
505.779	19011.81
505.982	19564.76
506.185	19661.01
506.387	20117.71
506.59	19992.78
506.793	20482.25
506.996	20342.99
507.198	20875.46
507.401	20611.27
507.604	21483.7
507.807	21657.78
508.009	21450.94
508.212	21893.3
508.415	22139.05
508.617	22169.77
508.82	22329.52
509.022	22597.8
509.225	23224.48
509.428	23666.84
509.63	23738.52
509.833	23290.01
510.035	24158.35
510.238	24101.01
510.44	24475.79
510.643	24676.49
510.845	24938.63
511.048	24778.89
511.25	25354.37
511.453	25555.07
511.655	26349.68
511.858	26155.12
512.06	26456.17
512.262	26644.59
512.465	26726.5
512.667	27023.46
512.87	27566.17
513.072	27478.11
513.274	28115.03
513.477	28186.71
513.679	28364.88
513.881	28794.95
514.084	29349.95
514.286	29175.87
514.488	29763.64
514.69	30003.25
514.893	30142.52
515.095	30410.8
515.297	30736.43
515.499	30980.14
515.701	31252.52
515.904	31778.84
516.106	31907.87
516.308	32350.23
516.51	32446.48
516.712	32753.68
516.914	32890.89
517.116	33568.77
517.318	33486.85
517.52	33806.33
517.722	33896.44
517.925	34846.7
518.127	35182.57
518.329	35342.31
518.531	35321.83
518.733	35887.07
518.935	36184.02
519.136	36001.75
519.338	36392.92
519.54	36855.76
519.742	37441.48
519.944	37365.7
520.146	38078.39
520.348	38205.37
520.55	38713.27
520.752	38899.63
520.954	38991.79
521.155	39167.91
521.357	39872.42
521.559	40193.95
521.761	40562.58
521.963	40462.23
522.164	40906.64
522.366	40957.84
522.568	41451.4
522.77	41574.28
522.971	42438.52
523.173	42219.39
523.375	42516.34
523.576	42815.35
523.778	42524.54
523.98	43188.08
524.181	43884.39
524.383	43685.73
524.584	43847.52
524.786	44488.54
524.988	44341.08
525.189	44830.55
525.391	45016.91
525.592	45205.33
525.794	45354.83
525.995	45619.02
526.197	45956.93
526.398	45696.84
526.6	46188.35
526.801	46518.07
527.003	46878.52
527.204	46970.68
527.406	47208.24
527.607	47083.31
527.808	47198
528.01	46561.08
528.211	47062.83
528.412	48447.26
528.614	47963.94
528.815	47906.6
529.016	48676.63
529.218	47816.49
529.419	48602.91
529.62	48066.34
529.822	48789.27
530.023	48463.64
530.224	48684.83
530.425	48842.52
530.626	48451.36
530.828	48486.17
531.029	49952.52
531.23	49092.37
531.431	48983.83
531.632	49395.47
531.833	49155.86
532.035	49461.01
532.236	49469.2
532.437	49907.46
532.638	49559.31
532.839	49784.58
533.04	50175.75
533.241	49989.38
533.442	50562.81
533.643	49932.04
533.844	49848.07
534.045	50030.34
534.246	49551.12
534.447	50218.75
534.648	50239.23
534.849	50351.87
535.05	50089.73
535.251	49911.56
535.451	49925.89
535.652	50589.44
535.853	50454.27
536.054	50231.04
536.255	50575.1
536.456	50456.32
536.657	51345.14
536.857	50312.96
537.058	50284.29
537.259	50636.54
537.46	50626.3
537.66	50165.51
537.861	50601.72
538.062	50454.27
538.263	51083
538.463	50259.71
538.664	50534.14
538.865	50421.5
539.065	50853.62
539.266	49782.54
539.466	50818.81
539.667	49800.97
539.868	51113.72
540.068	50081.54
540.269	50734.84
540.469	51162.87
540.67	50290.43
540.87	50431.74
541.071	50757.37
541.271	50337.54
541.472	50507.52
541.672	50345.73
541.873	50640.64
542.073	49862.41
542.274	50671.35
542.474	50743.03
542.675	50392.83
542.875	50636.54
543.075	50284.29
543.276	50149.12
543.476	50798.33
543.676	50259.71
543.877	50484.99
544.077	50468.61
544.277	50446.08
544.478	50398.97
544.678	50902.78
544.878	50298.62
545.078	50546.43
545.279	50132.74
545.479	50239.23
545.679	50456.32
545.879	49993.48
546.079	50067.2
546.28	50267.9
546.48	49624.84
546.68	50243.33
546.88	50183.94
547.08	50419.45
547.28	50181.89
547.48	50005.76
547.68	50431.74
547.88	49833.74
548.081	50239.23
548.281	50288.38
548.481	50132.74
548.681	50562.81
548.881	49891.08
549.081	49956.61
549.28	49475.34
549.48	50067.2
549.68	50132.74
549.88	50812.66
550.08	49813.26
550.28	49923.85
550.48	49815.3
550.68	50155.27
550.88	49997.57
551.08	49876.74
551.279	50095.88
551.479	49536.78
551.679	50120.45
551.879	49422.09
552.079	50036.48
552.278	49700.62
552.478	49649.42
552.678	49884.93
552.878	50233.09
553.077	49284.88
553.277	49162
553.477	50431.74
553.676	49600.27
553.876	49749.77
554.076	49497.87
554.275	49387.28
554.475	48928.53
554.674	49477.39
554.874	49399.57
555.074	49125.14
555.273	49524.49
555.473	49481.48
555.672	48740.12
555.872	49006.36
556.071	49209.11
556.271	49354.51
556.47	48830.23
556.67	49162
556.869	48791.32
557.068	48840.47
557.268	48482.08
557.467	48971.54
557.667	48627.48
557.866	48879.38
558.065	48912.15
558.265	48502.56
558.464	47859.49
558.663	48856.85
558.863	48037.67
559.062	48510.75
559.261	47789.86
559.461	48768.79
559.66	47732.52
559.859	47908.64
560.058	47787.81
560.258	48146.21
560.457	47343.41
560.656	47988.52
560.855	47822.63
561.054	48181.02
561.253	47355.69
561.453	47822.63
561.652	47613.74
561.851	47415.08
562.05	47316.78
562.249	46755.64
562.448	47449.9
562.647	46982.96
562.846	46831.41
563.045	47152.94
563.244	46559.03
563.443	47257.39
563.642	46366.52
563.841	46225.21
564.04	46092.1
564.239	46835.51
564.438	45580.1
564.637	46235.45
564.836	46192.45
565.035	45784.9
565.234	45590.34
565.432	45653.83
565.631	45031.25
565.83	45369.16
566.029	45256.53
566.228	45190.99
566.427	45150.03
566.625	44967.76
566.824	44957.52
567.023	45186.89
567.222	44496.73
567.42	44760.92
567.619	44906.32
567.818	44158.81
568.016	44119.9
568.215	44529.5
568.414	44230.49
568.612	44273.5
568.811	44058.46
569.01	43878.24
569.208	42932.08
569.407	43902.82
569.605	43085.68
569.804	43761.51
570.002	43196.27
570.201	43540.33
570.4	42696.56
570.598	43089.77
570.797	42645.37
570.995	42522.49
571.193	42268.54
571.392	43083.63
571.59	42145.66
571.789	42426.23
571.987	42186.62
572.186	42041.21
572.384	41670.53
572.582	42141.56
572.781	41965.44
572.979	41287.56
573.177	41543.56
573.376	41926.53
573.574	41248.65
573.772	41338.76
573.971	40970.13
574.169	40767.38
574.367	40560.53
574.565	41148.3
574.763	40247.19
574.962	40472.47
575.16	39921.57
575.358	40425.37
575.556	39546.79
575.754	40474.52
575.952	39753.63
576.151	40202.14
576.349	39425.96
576.547	39323.56
576.745	39473.06
576.943	39808.93
577.141	39606.18
577.339	39266.22
577.537	38797.23
577.735	39106.48
577.933	38524.85
578.131	39129
578.329	38760.37
578.527	38524.85
578.725	38377.4
578.923	38629.3
579.121	37949.37
579.319	38090.68
579.516	38188.99
579.714	38193.08
579.912	37939.13
580.11	37871.55
580.308	38197.18
580.506	37638.08
580.704	37271.5
580.901	37556.16
581.099	37599.17
581.297	37007.31
581.495	36992.97
581.692	37066.7
581.89	36896.72
582.088	37185.48
582.285	36562.9
582.483	36829.13
582.681	36589.52
582.878	36433.88
583.076	36087.77
583.274	36237.27
583.471	35819.49
583.669	36042.71
583.866	35655.65
584.064	36161.5
584.262	35370.98
584.459	35581.92
584.657	35272.68
584.854	35366.88
585.052	35053.55
585.249	35545.06
585.447	35178.47
585.644	34758.64
585.841	34725.87
586.039	35493.86
586.236	34547.7
586.434	34637.81
586.631	34396.15
586.828	34383.86
587.026	34541.55
587.223	33912.83
587.42	34109.43
587.618	34062.33
587.815	33925.11
588.012	33503.23
588.21	33892.35
588.407	33914.87
588.604	33732.61
588.801	33472.51
588.999	33345.54
589.196	33052.68
589.393	32817.16
589.59	33120.26
589.787	32659.47
589.984	32987.14
590.182	32712.72
590.379	32720.91
590.576	32245.78
590.773	32548.88
590.97	32233.49
591.167	32321.55
591.364	31682.59
591.561	32135.19
591.758	31733.79
591.955	31719.45
592.152	32086.04
592.349	31397.92
592.546	31330.34
592.743	31725.6
592.94	31367.2
593.137	31479.84
593.334	31408.16
593.531	30982.18
593.727	30904.36
593.924	31180.84
594.121	30713.9
594.318	31066.15
594.515	30496.81
594.712	30752.81
594.908	30668.84
595.105	30593.07
595.302	30042.17
595.499	30459.95
595.696	29995.06
595.892	29788.22
596.089	30488.62
596.286	30169.14
596.482	29640.76
596.679	29739.07
596.876	29847.61
597.072	29720.63
597.269	29333.57
597.466	29229.12
597.662	29296.7
597.859	29093.96
598.055	28932.17
598.252	28858.44
598.448	28952.65
598.645	28975.17
598.841	28473.42
599.038	28727.37
599.234	28639.31
599.431	28549.2
599.627	28139.6
599.824	28676.17
600.02	27959.38
600.217	28022.87
600.413	27945.05
600.609	27914.33
600.806	27811.93
601.002	28117.07
601.198	27764.82
601.395	27541.6
601.591	27693.15
601.787	27213.92
601.984	27326.56
602.18	27838.55
602.376	27246.69
602.572	27209.82
602.769	26822.76
602.965	26597.48
603.161	27035.75
603.357	26622.06
603.553	26546.28
603.75	26787.94
603.946	26290.29
604.142	26755.18
604.338	26294.38
604.534	26624.11
604.73	25852.02
604.926	26032.24
605.122	26007.67
605.318	25653.37
605.514	26048.63
605.71	25663.61
605.906	25331.84
606.102	26034.29
606.298	25964.66
606.494	25688.18
606.69	25385.08
606.886	25835.64
607.082	25368.7
607.278	25231.49
607.474	24875.14
607.67	25540.73
607.866	24934.53
608.062	25176.19
608.257	24834.18
608.453	25094.27
608.649	24944.77
608.845	24721.54
609.041	24778.89
609.236	25012.35
609.432	24721.54
609.628	24637.58
609.824	24598.66
610.019	24385.68
610.215	24238.22
610.411	24440.97
610.606	23959.7
610.802	24352.91
610.998	24330.38
611.193	24154.26
611.389	23769.24
611.584	24078.48
611.78	23632.02
611.976	23709.85
612.171	23724.18
612.367	23756.95
612.562	23439.51
612.758	23453.85
612.953	23154.85
613.149	23853.2
613.344	23093.41
613.539	23814.29
613.735	23423.13
613.93	23701.65
614.126	23115.94
614.321	23464.09
614.517	23197.85
614.712	23210.14
614.907	23191.71
615.103	23240.86
615.298	23105.7
615.493	23122.08
615.688	22644.9
615.884	23396.51
616.079	22612.13
616.274	22995.11
616.47	22642.85
616.665	22737.06
616.86	22593.7
617.055	22304.94
617.25	22630.57
617.445	22526.12
617.641	22280.36
617.836	22669.48
618.031	22175.92
618.226	22466.73
618.421	22202.54
618.616	22292.65
618.811	21844.15
619.006	22147.25
619.201	21573.81
619.396	21932.21
619.591	21356.73
619.786	21811.38
619.981	21168.32
620.176	21520.57
620.371	21217.47
620.566	21442.74
620.761	20848.83
620.956	21397.69
621.151	20760.77
621.346	20969.66
621.541	20478.15
621.735	20826.31
621.93	20555.97
622.125	20586.69
622.32	20119.76
622.515	20279.5
622.709	19957.97
622.904	20130
623.099	19886.29
623.294	19523.8
623.488	19572.95
623.683	19626.2
623.878	19290.33
624.072	19683.54
624.267	19509.46
624.462	19314.91
624.656	19126.49
624.851	19142.88
625.046	19071.2
625.24	18976.99
625.435	18532.58
625.629	18761.95
625.824	18475.24
626.018	18614.5
626.213	18239.72
626.407	18368.74
626.602	18151.66
626.796	18086.12
626.991	17985.77
627.185	18026.73
627.38	17654
627.574	17699.06
627.768	17512.69
627.963	17430.77
628.157	17234.17
628.352	17219.83
628.546	16969.98
628.74	17283.32
628.935	16834.82
629.129	16935.17
629.323	16654.59
629.517	16802.05
629.712	16765.18
629.906	16640.26
630.1	16204.04
630.294	16382.21
630.489	16087.31
630.683	16589.06
630.877	16077.07
631.071	15915.28
631.265	16032.01
631.459	15972.62
631.653	15792.4
631.848	15657.23
632.042	15630.61
632.236	15837.45
632.43	15698.19
632.624	15737.1
632.818	15331.61
633.012	15089.95
633.206	15079.71
633.4	15028.51
633.594	14872.86
633.788	14833.95
633.982	14917.92
634.176	14862.62
634.369	14776.61
634.563	14473.51
634.757	14696.74
634.951	14453.03
635.145	14281
635.339	14489.89
635.533	14309.67
635.726	14276.9
635.92	14076.2
636.114	14188.84
636.308	13918.51
636.501	14053.67
636.695	13936.94
636.889	13615.41
637.083	13515.06
637.276	13793.58
637.47	13250.87
637.664	13400.37
637.857	13289.78
638.051	13279.54
638.244	13109.56
638.438	12980.54
638.632	13046.07
638.825	12720.45
639.019	13138.23
639.212	12841.28
639.406	12841.28
639.599	12673.34
639.793	12724.54
639.986	12370.24
640.18	12448.07
640.373	12462.4
640.567	12335.43
640.76	12218.69
640.954	12261.7
641.147	12138.82
641.34	11905.35
641.534	11972.94
641.727	11743.56
641.92	11764.04
642.114	11817.29
642.307	11874.63
642.5	11667.79
642.694	11393.36
642.887	11536.72
643.08	11614.54
643.273	11485.52
643.467	11338.07
643.66	11247.96
643.853	11247.96
644.046	11153.75
644.239	11313.49
644.432	10862.94
644.626	10916.19
644.819	10697.05
645.012	10910.04
645.205	10961.24
645.398	10584.41
645.591	10666.33
645.784	10901.85
645.977	10363.23
646.17	10600.8
646.363	10355.04
646.556	10223.97
646.749	10375.52
646.942	10430.82
647.135	10305.89
647.328	10193.25
647.521	9963.88
647.714	10006.89
647.907	10135.91
648.099	9890.15
648.292	9937.26
648.485	9918.82
648.678	9613.68
648.871	9828.71
649.064	9523.57
649.256	9681.26
649.449	9791.85
649.642	9531.76
649.835	9490.8
650.027	9562.48
650.22	9415.02
650.413	9374.06
650.605	9400.69
650.798	9169.27
650.991	9331.06
651.183	9109.88
651.376	8714.62
651.568	9140.6
651.761	9007.48
651.954	8882.55
652.146	8939.9
652.339	8800.63
652.531	8675.71
652.724	8737.15
652.916	8540.54
653.109	8745.34
653.301	8778.11
653.494	8581.5
653.686	8485.25
653.879	8513.92
654.071	8362.37
654.263	8475.01
654.456	8407.42
654.648	8446.34
654.84	8184.2
655.033	7977.35
655.225	8180.1
655.417	8096.13
655.61	8176
655.802	8165.76
655.994	8020.36
656.186	8135.04
656.379	8022.41
656.571	7866.76
656.763	7754.12
656.955	7696.78
657.148	7760.27
657.34	7829.9
657.532	7500.17
657.724	7612.81
657.916	7655.82
658.108	7729.55
658.3	7416.21
658.492	7692.68
658.684	7399.82
658.876	7446.93
659.068	7375.25
659.26	7270.8
659.452	7319.95
659.644	7260.56
659.836	7317.9
660.028	7401.87
660.22	7117.2
660.412	7164.31
660.604	6986.13
660.796	7190.93
660.988	6869.4
661.18	7066
661.372	6963.61
661.563	7074.2
661.755	6828.44
661.947	6859.16
662.139	6726.04
662.331	6721.95
662.522	6779.29
662.714	6562.2
662.906	6842.78
663.097	6603.16
663.289	6648.22
663.481	6613.4
663.673	6506.91
663.864	6424.99
664.056	6701.47
664.247	6691.23
664.439	6406.56
664.631	6345.12
664.822	6390.17
665.014	6306.21
665.205	6216.1
665.397	6318.5
665.588	6226.34
665.78	6193.57
665.971	6285.73
666.163	6355.36
666.354	6175.14
666.546	5958.05
666.737	6144.42
666.929	6072.74
667.12	6033.83
667.311	6076.84
667.503	5968.29
667.694	6029.73
667.885	5904.81
668.077	6015.4
668.268	5816.74
668.459	5921.19
668.651	5837.22
668.842	5759.4
669.033	5622.19
669.224	5667.24
669.416	5777.83
669.607	5583.27
669.798	5761.45
669.989	5734.82
670.18	5687.72
670.371	5691.82
670.563	5636.52
670.754	5652.91
670.945	5620.14
671.136	5714.34
671.327	5538.22
671.518	5489.07
671.709	5573.03
671.9	5648.81
672.091	5460.4
672.282	5460.4
672.473	5329.33
672.664	5337.52
672.855	5394.86
673.046	5278.13
673.237	5491.12
673.428	5304.75
673.619	5394.86
673.809	5241.26
674	5358
674.191	5228.98
674.382	5253.55
674.573	5368.24
674.764	5280.18
674.954	5255.6
675.145	5124.53
675.336	5159.35
675.527	5202.35
675.717	5401.01
675.908	5079.47
676.099	5067.19
676.289	5134.77
676.48	5204.4
676.671	5274.03
676.861	5216.69
677.052	5040.56
677.243	5130.67
677.433	4944.31
677.624	5116.34
677.814	5046.71
678.005	5091.76
678.195	4903.35
678.386	5083.57
678.576	5013.94
678.767	5099.95
678.957	4917.68
679.148	5136.82
679.338	4968.88
679.529	4897.21
679.719	4968.88
679.909	4999.6
680.1	4929.97
680.29	5130.67
680.481	4915.64
680.671	4995.51
680.861	5061.04
681.052	4927.92
681.242	4891.06
681.432	5075.38
681.622	4878.77
681.813	4780.47
682.003	5034.42
682.193	4981.17
682.383	4968.88
682.573	4960.69
682.764	4878.77
682.954	4932.02
683.144	4944.31
683.334	4837.81
683.524	4932.02
683.714	4862.39
683.904	4927.92
684.094	4821.43
684.284	4905.4
684.474	4831.67
684.664	4952.5
684.854	4932.02
685.044	4786.61
685.234	4811.19
685.424	4934.07
685.614	4788.66
685.804	4809.14
685.994	4778.42
686.184	4940.21
686.374	4882.87
686.564	4602.3
686.753	4780.47
686.943	4714.94
687.133	4708.79
687.323	4524.47
687.513	4759.99
687.702	4649.4
687.892	4571.58
688.082	4506.04
688.272	4600.25
688.461	4538.81
688.651	4573.63
688.841	4551.1
689.03	4530.62
689.22	4569.53
689.41	4651.45
689.599	4559.29
689.789	4452.8
689.979	4305.34
690.168	4295.1
690.358	4379.07
690.547	4284.86
690.737	4284.86
690.926	4321.73
691.116	4254.14
691.305	4319.68
691.495	4301.25
691.684	4272.57
691.874	4237.76
692.063	4358.59
692.252	4231.62
692.442	4241.86
692.631	4190.66
692.82	4149.7
693.01	4170.18
693.199	4172.22
693.388	4159.94
693.578	4049.35
693.767	4063.68
693.956	4008.39
694.146	4188.61
694.335	4067.78
694.524	4024.77
694.713	4168.13
694.902	4075.97
695.092	4059.59
695.281	4121.03
695.47	4073.92
695.659	4098.5
695.848	3981.76
696.037	3916.23
696.226	4092.35
696.415	3899.84
696.604	4125.12
696.793	3985.86
696.982	3969.48
697.171	3944.9
697.36	4139.46
697.549	3942.85
697.738	4028.87
697.927	3895.75
698.116	4035.01
698.305	3848.65
698.494	3924.42
698.683	3895.75
698.872	4057.54
699.061	3903.94
699.25	3862.98
699.438	3920.32
699.627	3961.28
699.816	3901.89
700.005	3914.18
700.193	3856.84
700.382	3791.3
700.571	3936.71
700.76	3799.49
700.948	3989.96
701.137	3826.12
701.326	3852.74
701.514	3809.73
701.703	3811.78
701.892	3715.53
702.08	3817.93
702.269	3717.58
702.457	3750.34
702.646	3852.74
702.834	3738.05
703.023	3836.36
703.212	3588.55
703.4	3770.82
703.589	3895.75
703.777	3815.88
703.965	3791.3
704.154	3877.32
704.342	3910.08
704.531	3891.65
704.719	3830.21
704.907	3760.58
705.096	3707.34
705.284	3838.41
705.472	3914.18
705.661	3869.12
705.849	3836.36
706.037	3738.05
706.226	3781.06
706.414	3852.74
706.602	3817.93
706.79	3766.73
706.979	3690.95
707.167	3793.35
707.355	3723.72
707.543	3887.56
707.731	3731.91
707.919	3658.18
708.107	3701.19
708.296	3793.35
708.484	3629.51
708.672	3758.53
708.86	3903.94
709.048	3693
709.236	3795.4
709.424	3844.55
709.612	3719.62
709.8	3801.54
709.988	3736.01
710.176	3711.43
710.364	3744.2
710.551	3852.74
710.739	3774.92
710.927	3809.73
711.115	3629.51
711.303	3819.97
711.491	3723.72
711.679	3690.95
711.866	3748.29
712.054	3764.68
712.242	3639.75
712.43	3877.32
712.617	3711.43
712.805	3686.86
712.993	3723.72
713.181	3684.81
713.368	3740.1
713.556	3783.11
713.744	3760.58
713.931	3803.59
714.119	3723.72
714.306	3717.58
714.494	3690.95
714.682	3660.23
714.869	3678.66
715.057	3768.77
715.244	3664.33
715.432	3817.93
715.619	3877.32
715.807	3729.86
715.994	3776.97
716.182	3852.74
716.369	3826.12
716.556	3826.12
716.744	3723.72
716.931	3537.35
717.119	3779.01
717.306	3746.25
717.493	3797.45
717.681	3690.95
717.868	3783.11
718.055	3811.78
718.242	3705.29
718.43	3733.96
718.617	3703.24
718.804	3721.67
718.991	3533.26
719.179	3664.33
719.366	3662.28
719.553	3664.33
719.74	3774.92
719.927	3707.34
720.114	3656.14
720.301	3631.56
720.488	3613.13
720.676	3604.94
720.863	3623.37
721.05	3709.38
721.237	3703.24
721.424	3736.01
721.611	3647.94
721.798	3611.08
721.985	3559.88
722.172	3527.11
722.358	3713.48
722.545	3703.24
722.732	3570.12
722.919	3649.99
723.106	3680.71
723.293	3576.27
723.48	3570.12
723.667	3633.61
723.853	3500.49
724.04	3699.14
724.227	3666.38
724.414	3678.66
724.6	3518.92
724.787	3662.28
724.974	3699.14
725.161	3582.41
725.347	3396.04
725.534	3641.8
725.72	3600.84
725.907	3631.56
726.094	3606.98
726.28	3428.81
726.467	3459.53
726.653	3508.68
726.84	3449.29
727.027	3707.34
727.213	3424.72
727.4	3525.07
727.586	3516.87
727.773	3518.92
727.959	3494.35
728.145	3492.3
728.332	3494.35
728.518	3484.11
728.705	3613.13
728.891	3541.45
729.077	3445.2
729.264	3418.57
729.45	3396.04
729.636	3473.87
729.823	3469.77
730.009	3523.02
730.195	3461.58
730.382	3531.21
730.568	3455.44
730.754	3361.23
730.94	3394
731.126	3363.28
731.313	3506.63
731.499	3494.35
731.685	3473.87
731.871	3463.63
732.057	3467.72
732.243	3375.56
732.429	3269.07
732.615	3502.54
732.801	3412.43
732.987	3375.56
733.173	3295.69
733.359	3453.39
733.545	3281.36
733.731	3324.37
733.917	3379.66
734.103	3443.15
734.289	3391.95
734.475	3385.8
734.661	3467.72
734.847	3303.89
735.033	3277.26
735.219	3383.76
735.404	3363.28
735.59	3310.03
735.776	3299.79
735.962	3264.97
736.148	3281.36
736.333	3283.41
736.519	3144.14
736.705	3367.37
736.89	3236.3
737.076	3174.86
737.262	3324.37
737.447	3236.3
737.633	3293.65
737.819	3209.68
738.004	3244.49
738.19	3236.3
738.375	3291.6
738.561	3277.26
738.747	3258.83
738.932	3066.32
739.118	3295.69
739.303	3224.01
739.489	3264.97
739.674	3174.86
739.859	3068.37
740.045	3121.62
740.23	3154.38
740.416	2953.68
740.601	3144.14
740.786	3072.47
740.972	2965.97
741.157	3101.14
741.342	2871.76
741.528	3133.9
741.713	2992.59
741.898	2927.06
742.084	3051.99
742.269	3043.79
742.454	2982.35
742.639	3002.83
742.824	3062.23
743.01	2898.39
743.195	2935.25
743.38	2910.68
743.565	2867.67
743.75	2916.82
743.935	2890.2
744.12	2824.66
744.305	2841.04
744.49	2810.33
744.675	2836.95
744.86	2767.32
745.045	2591.19
745.23	2738.65
745.415	2628.06
745.6	2720.21
745.785	2722.26
745.97	2826.71
746.155	2644.44
746.34	2642.39
746.525	2664.92
746.71	2687.45
746.895	2626.01
747.079	2482.65
747.264	2587.1
747.449	2535.9
747.634	2505.18
747.819	2537.95
748.003	2556.38
748.188	2410.97
748.373	2511.32
748.557	2593.24
748.742	2492.89
748.927	2365.92
749.111	2507.23
749.296	2410.97
749.481	2386.4
749.665	2443.74
749.85	2329.05
750.034	2331.1
750.219	2337.24
750.404	2353.63
750.588	2296.28
750.773	2269.66
750.957	2202.08
751.141	2273.76
751.326	2200.03
751.51	2306.52
751.695	2200.03
751.879	2171.36
752.064	2179.55
752.248	2066.91
752.432	2187.74
752.617	2232.8
752.801	2118.11
752.985	2056.67
753.17	2114.02
753.354	2189.79
753.538	1984.99
753.722	2038.24
753.907	2046.43
754.091	1995.23
754.275	1962.47
754.459	1921.51
754.643	1987.04
754.828	1917.41
755.012	2068.96
755.196	1905.12
755.38	1966.56
755.564	1847.78
755.748	1913.31
755.932	1991.14
756.116	1847.78
756.3	1829.35
756.484	1849.83
756.668	1810.92
756.852	1661.41
757.036	1769.96
757.22	1724.9
757.404	1772
757.588	1802.72
757.772	1802.72
757.956	1681.89
758.14	1722.85
758.323	1632.74
758.507	1663.46
758.691	1700.33
758.875	1755.62
759.059	1640.93
759.242	1587.69
759.426	1597.93
759.61	1624.55
759.794	1739.24
759.977	1581.54
760.161	1614.31
760.345	1579.5
760.528	1626.6
760.712	1485.29
760.895	1520.1
761.079	1604.07
761.263	1579.5
761.446	1503.72
761.63	1446.38
761.813	1550.82
761.997	1403.37
762.18	1511.91
762.364	1540.58
762.547	1274.35
762.731	1452.52
762.914	1524.2
763.098	1458.67
763.281	1354.22
763.464	1442.28
763.648	1391.08
763.831	1372.65
764.015	1483.24
764.198	1399.27
764.381	1403.37
764.564	1475.05
764.748	1427.95
764.931	1317.36
765.114	1401.32
765.297	1358.32
765.481	1303.02
765.664	1364.46
765.847	1300.97
766.03	1346.03
766.213	1241.58
766.397	1337.84
766.58	1307.12
766.763	1372.65
766.946	1276.4
767.129	1292.78
767.312	1245.68
767.495	1294.83
767.678	1225.2
767.861	1368.56
768.044	1272.3
768.227	1239.53
768.41	1212.91
768.593	1309.16
768.776	1192.43
768.959	1280.49
769.142	1296.88
769.324	1147.37
769.507	1227.25
769.69	1184.24
769.873	1200.62
770.056	1255.92
770.239	1243.63
770.421	1118.7
770.604	1188.33
770.787	1133.04
770.97	1165.81
771.152	1147.37
771.335	1151.47
771.518	1169.9
771.7	1167.85
771.883	1133.04
772.066	1057.26
772.248	1143.28
772.431	1192.43
772.613	1063.41
772.796	1090.03
772.978	1030.64
773.161	1167.85
773.343	1030.64
773.526	1085.94
773.708	1028.59
773.891	1094.13
774.073	1004.02
774.256	1040.88
774.438	1069.55
774.621	909.81
774.803	913.91
774.985	991.73
775.168	954.87
775.35	934.39
775.532	983.54
775.715	952.82
775.897	987.63
776.079	952.82
776.261	946.67
776.444	920.05
776.626	879.09
776.808	899.57
776.99	930.29
777.173	971.25
777.355	877.04
777.537	932.34
777.719	926.19
777.901	848.37
778.083	915.95
778.265	823.8
778.447	879.09
778.629	797.17
778.811	870.9
778.993	811.51
779.175	854.51
779.357	883.19
779.539	745.97
779.721	852.47
779.903	852.47
780.085	821.75
780.267	739.83
780.449	838.13
780.631	872.95
780.812	799.22
780.994	795.12
781.176	700.92
781.358	766.45
781.54	713.21
781.721	735.73
781.903	707.06
782.085	664.05
782.267	674.29
782.448	686.58
782.63	745.97
782.812	705.01
782.993	647.67
783.175	707.06
783.357	649.72
783.538	649.72
783.72	633.33
783.901	682.49
784.083	680.44
784.264	645.62
784.446	614.9
784.627	637.43
784.809	641.53
784.99	623.09
785.172	553.46
785.353	639.48
785.535	619
785.716	594.42
785.897	594.42
786.079	614.9
786.26	647.67
786.441	645.62
786.623	479.74
786.804	555.51
786.985	547.32
787.167	541.18
787.348	526.84
787.529	621.05
787.71	528.89
787.891	590.33
788.073	508.41
788.254	520.7
788.435	532.98
788.616	498.17
788.797	489.98
788.978	518.65
789.159	514.55
789.34	590.33
789.522	459.26
789.703	487.93
789.884	549.37
790.065	535.03
790.246	553.46
790.427	582.14
790.607	467.45
790.788	442.87
790.969	444.92
791.15	467.45
791.331	444.92
791.512	446.97
791.693	459.26
791.874	395.77
792.054	471.54
792.235	436.73
792.416	449.02
792.597	410.11
792.778	442.87
792.958	487.93
793.139	449.02
793.32	416.25
793.5	487.93
793.681	432.63
793.862	496.12
794.042	459.26
794.223	354.81
794.404	461.3
794.584	426.49
794.765	410.11
794.945	414.2
795.126	418.3
795.306	442.87
795.487	358.91
795.667	473.59
795.848	412.15
796.028	401.91
796.209	367.1
796.389	324.09
796.57	348.67
796.75	395.77
796.93	350.71
797.111	367.1
797.291	483.83
797.471	426.49
797.652	408.06
797.832	324.09
798.012	305.66
798.192	352.76
798.373	320
798.553	401.91
798.733	336.38
798.913	250.36
799.093	354.81
799.274	344.57
799.454	340.47
799.634	354.81
799.814	299.52
799.994	393.72
800.174	367.1
800.354	324.09
800.534	315.9
800.714	307.71
800.894	238.08
801.074	283.13
801.254	272.89
801.434	350.71
801.614	410.11
801.794	307.71
801.974	831.99
802.154	264.7
802.334	338.43
802.514	330.23
802.693	291.32
802.873	270.84
803.053	315.9
803.233	348.67
803.413	322.04
803.592	311.8
803.772	205.31
803.952	260.6
804.131	332.28
804.311	281.08
804.491	293.37
804.67	252.41
804.85	248.32
805.03	266.75
805.209	326.14
805.389	262.65
805.568	270.84
805.748	197.12
805.928	299.52
806.107	266.75
806.287	262.65
806.466	260.6
806.646	252.41
806.825	217.6
807.004	258.56
807.184	180.73
807.363	279.04
807.543	209.4
807.722	193.02
807.901	338.43
808.081	240.12
808.26	180.73
808.439	301.56
808.619	190.97
808.798	193.02
808.977	289.28
809.156	219.64
809.336	203.26
809.515	221.69
809.694	209.4
809.873	162.3
810.052	190.97
810.231	254.46
810.411	205.31
810.59	233.98
810.769	166.4
810.948	266.75
811.127	172.54
811.306	240.12
811.485	227.84
811.664	229.88
811.843	246.27
812.022	215.55
812.201	279.04
812.38	213.5
812.559	166.4
812.737	225.79
812.916	203.26
813.095	188.93
813.274	264.7
813.453	236.03
813.632	250.36
813.811	160.25
813.989	219.64
814.168	229.88
814.347	176.64
814.526	188.93
814.704	219.64
814.883	299.52
815.062	197.12
815.24	205.31
815.419	201.21
815.598	203.26
815.776	147.97
815.955	172.54
816.133	145.92
816.312	240.12
816.49	166.4
816.669	209.4
816.847	156.16
817.026	207.36
817.204	180.73
817.383	133.63
817.561	188.93
817.74	199.16
817.918	150.01
818.097	168.45
818.275	125.44
818.453	244.22
818.632	205.31
818.81	152.06
818.988	133.63
819.167	209.4
819.345	168.45
819.523	190.97
819.701	188.93
819.879	225.79
820.058	240.12
820.236	215.55
820.414	250.36
820.592	107.01
820.77	199.16
820.948	190.97
821.127	143.87
821.305	211.45
821.483	170.49
821.661	162.3
821.839	72.19
822.017	147.97
822.195	188.93
822.373	215.55
822.551	225.79
822.729	162.3
822.907	188.93
823.085	190.97
823.262	168.45
823.44	139.77
823.618	139.77
823.796	109.05
823.974	143.87
824.152	117.25
824.329	131.58
824.507	246.27
824.685	117.25
824.863	84.48
825.04	84.48
825.218	125.44
825.396	145.92
825.574	131.58
825.751	133.63
825.929	182.78
826.107	182.78
826.284	174.59
826.462	115.2
826.639	129.53
826.817	86.53
826.994	49.66
827.172	98.81
827.349	168.45
827.527	90.62
827.704	90.62
827.882	84.48
828.059	98.81
828.237	168.45
828.414	137.73
828.591	158.21
828.769	111.1
828.946	113.15
829.124	117.25
829.301	96.77
829.478	131.58
829.655	98.81
829.833	145.92
830.01	117.25
830.187	143.87
830.364	45.57
830.542	133.63
830.719	152.06
830.896	139.77
831.073	86.53
831.25	102.91
831.427	102.91
831.604	64
831.782	139.77
831.959	94.72
832.136	125.44
832.313	154.11
832.49	137.73
832.667	123.39
832.844	88.57
833.021	66.05
833.198	98.81
833.374	92.67
833.551	107.01
833.728	78.33
833.905	127.49
834.082	111.1
834.259	72.19
834.436	92.67
834.612	113.15
834.789	158.21
834.966	61.95
835.143	119.29
835.319	84.48
835.496	113.15
835.673	141.82
835.85	90.62
836.026	117.25
836.203	86.53
836.38	45.57
836.556	80.38
836.733	102.91
836.909	141.82
837.086	117.25
837.262	2.56
837.439	117.25
837.616	94.72
837.792	59.9
837.968	-11.78
838.145	86.53
838.321	102.91
838.498	66.05
838.674	129.53
838.851	82.43
839.027	47.62
839.203	76.29
839.38	141.82
839.556	29.18
839.732	182.78
839.909	-3.58
840.085	119.29
840.261	90.62
840.437	164.35
840.614	66.05
840.79	59.9
840.966	127.49
841.142	115.2
841.318	82.43
841.494	76.29
841.671	76.29
841.847	64
842.023	-24.06
842.199	88.57
842.375	78.33
842.551	59.9
842.727	98.81
842.903	82.43
843.079	45.57
843.255	39.42
843.431	49.66
843.607	66.05
843.783	16.9
843.959	139.77
844.134	86.53
844.31	14.85
844.486	92.67
844.662	53.76
844.838	102.91
845.013	168.45
845.189	86.53
845.365	29.18
845.541	37.38
845.716	31.23
845.892	107.01
846.068	23.04
846.244	80.38
846.419	33.28
846.595	55.81
846.77	43.52
846.946	43.52
847.122	20.99
847.297	-28.16
847.473	119.29
847.648	31.23
847.824	158.21
847.999	-85.5
848.175	57.86
848.35	64
848.526	86.53
848.701	39.42
848.876	78.33
849.052	72.19
849.227	33.28
849.403	-15.87
849.578	55.81
849.753	70.14
849.929	16.9
850.104	57.86
850.279	14.85
850.454	43.52
850.63	47.62
850.805	49.66
850.98	70.14
851.155	18.94
851.33	27.14
851.505	2.56
851.681	59.9
851.856	-1.54
852.031	59.9
852.206	100.86
852.381	119.29
852.556	82.43
852.731	-3.58
852.906	121.34
853.081	74.24
853.256	61.95
853.431	37.38
853.606	-5.63
853.781	-1.54
853.956	76.29
854.131	57.86
854.305	61.95
854.48	35.33
854.655	23.04
854.83	31.23
855.005	94.72
855.18	74.24
855.354	37.38
855.529	-24.06
855.704	20.99
855.879	53.76
856.053	-62.98
856.228	72.19
856.403	4.61
856.577	84.48
856.752	-5.63
856.926	115.2
857.101	-7.68
857.276	6.66
857.45	45.57
857.625	59.9
857.799	25.09
857.974	23.04
858.148	-22.02
858.323	59.9
858.497	-11.78
858.672	35.33
858.846	-28.16
859.02	72.19
859.195	59.9
859.369	45.57
859.543	117.25
859.718	-32.26
859.892	59.9
860.066	53.76
860.241	27.14
860.415	70.14
860.589	94.72
860.763	84.48
860.938	-19.97
861.112	-38.4
861.286	29.18
861.46	53.76
861.634	49.66
861.808	45.57
861.982	8.7
862.157	33.28
862.331	-7.68
862.505	57.86
862.679	-40.45
862.853	-30.21
863.027	64
863.201	18.94
863.375	-54.78
863.549	78.33
863.722	12.8
863.896	139.77
864.07	49.66
864.244	94.72
864.418	92.67
864.592	78.33
864.766	59.9
864.939	68.09
865.113	8.7
865.287	25.09
865.461	-3.58
865.634	-5.63
865.808	-11.78
865.982	25.09
866.156	-40.45
866.329	-50.69
866.503	16.9
866.676	31.23
866.85	12.8
867.024	70.14
867.197	41.47
867.371	68.09
867.544	55.81
867.718	20.99
867.891	29.18
868.065	-60.93
868.238	64
868.412	27.14
868.585	-1.54
868.759	2.56
868.932	-5.63
869.105	0.51
869.279	47.62
869.452	76.29
869.625	27.14
869.799	-5.63
869.972	39.42
870.145	16.9
870.319	68.09
870.492	-48.64
870.665	-15.87
870.838	4.61
871.011	23.04
871.185	29.18
871.358	23.04
871.531	74.24
871.704	-13.82
871.877	12.8
872.05	29.18
872.223	-58.88
872.396	55.81
872.569	-32.26
872.742	16.9
872.915	33.28
873.088	0.51
873.261	35.33
873.434	61.95
873.607	-3.58
873.78	53.76
873.953	0.51
874.126	35.33
874.299	23.04
874.471	-7.68
874.644	27.14
874.817	51.71
874.99	-11.78
875.163	8.7
875.335	12.8
875.508	41.47
875.681	41.47
875.853	-52.74
876.026	47.62
876.199	100.86
876.371	-65.02
876.544	25.09
876.717	25.09
876.889	14.85
877.062	-9.73
877.234	-87.55
877.407	-38.4
877.579	41.47
877.752	49.66
877.924	4.61
878.097	35.33
878.269	6.66
878.442	20.99
878.614	37.38
878.786	33.28
878.959	12.8
879.131	-44.54
879.303	49.66
879.476	39.42
879.648	27.14
879.82	12.8
879.993	53.76
880.165	-32.26
880.337	-11.78
880.509	43.52
880.681	-1.54
880.854	-26.11
881.026	61.95
881.198	78.33
881.37	18.94
881.542	20.99
881.714	-62.98
881.886	45.57
882.058	37.38
882.23	25.09
882.402	12.8
882.574	64
882.746	84.48
882.918	109.05
883.09	43.52
883.262	-7.68
883.434	123.39
883.606	37.38
883.778	-5.63
883.95	35.33
884.122	2.56
884.293	35.33
884.465	37.38
884.637	57.86
884.809	-3.58
884.98	68.09
885.152	-3.58
885.324	74.24
885.496	4.61
885.667	-46.59
885.839	27.14
886.011	45.57
886.182	-13.82
886.354	35.33
886.525	33.28
886.697	35.33
886.869	-26.11
887.04	0.51
887.212	115.2
887.383	90.62
887.555	-3.58
887.726	-15.87
887.897	18.94
888.069	70.14
888.24	2.56
888.412	37.38
888.583	82.43
888.754	45.57
888.926	-24.06
889.097	59.9
889.268	4.61
889.44	51.71
889.611	-7.68
889.782	16.9
889.953	-85.5
890.125	49.66
890.296	-36.35
890.467	20.99
890.638	-38.4
890.809	-36.35
890.98	-1.54
891.151	-3.58
891.323	100.86
891.494	-46.59
891.665	25.09
891.836	8.7
892.007	-7.68
892.178	0.51
892.349	37.38
892.52	23.04
892.691	-30.21
892.862	20.99
893.032	-69.12
893.203	-38.4
893.374	-42.5
893.545	4.61
893.716	-36.35
893.887	-69.12
894.057	39.42
894.228	-34.3
894.399	-22.02
894.57	12.8
894.74	-44.54
894.911	82.43
895.082	-34.3
895.253	51.71
895.423	-1.54
895.594	-19.97
895.764	76.29
895.935	-19.97
896.106	33.28
896.276	47.62
896.447	51.71
896.617	-22.02
896.788	-52.74
896.958	57.86
897.129	-24.06
897.299	10.75
897.47	39.42
897.64	20.99
897.81	-40.45
897.981	29.18
898.151	68.09
898.322	45.57
898.492	39.42
898.662	23.04
898.832	2.56
899.003	80.38
899.173	-17.92
899.343	23.04
899.513	27.14
