Data from USB4F104151__121__10-25-14-944.txt Node

Date: Wed Mar 12 10:25:14 EDT 2025
User: louis
Spectrometer: USB4F10415
Trigger mode: 4
Integration Time (sec): 3.000000E-2
Scans to average: 1
Electric dark correction enabled: true
Nonlinearity correction enabled: false
Boxcar width: 0
XAxis mode: Wavelengths
Number of Pixels in Spectrum: 3648
>>>>>Begin Spectral Data<<<<<
178.204	-67.41
178.424	-67.41
178.644	-67.41
178.864	-139.09
179.084	-141.14
179.304	-5.97
179.524	10.41
179.744	-3.93
179.964	-3.93
180.184	12.46
180.404	30.89
180.624	16.55
180.844	-32.6
181.064	-57.17
181.283	-8.02
181.503	-30.55
181.723	71.85
181.943	-87.89
182.163	-30.55
182.383	30.89
182.602	94.38
182.822	18.6
183.042	100.52
183.262	-26.45
183.482	-14.17
183.701	39.08
183.921	69.8
184.141	6.31
184.361	39.08
184.58	63.66
184.8	41.13
185.02	39.08
185.239	24.75
185.459	-53.08
185.679	8.36
185.898	-22.36
186.118	98.47
186.338	14.51
186.557	-8.02
186.777	14.51
186.997	8.36
187.216	-1.88
187.436	43.18
187.655	26.79
187.875	49.32
188.095	-42.84
188.314	-22.36
188.534	49.32
188.753	6.31
188.973	55.47
189.192	24.75
189.412	-30.55
189.631	43.18
189.851	10.41
190.07	43.18
190.29	-30.55
190.509	43.18
190.729	73.9
190.948	41.13
191.168	116.9
191.387	-42.84
191.607	-5.97
191.826	24.75
192.045	30.89
192.265	2.22
192.484	92.33
192.704	26.79
192.923	84.14
193.142	39.08
193.362	-24.4
193.581	20.65
193.8	71.85
194.02	53.42
194.239	-32.6
194.458	22.7
194.678	8.36
194.897	22.7
195.116	14.51
195.335	-28.5
195.555	94.38
195.774	32.94
195.993	51.37
196.212	-5.97
196.432	39.08
196.651	20.65
196.87	-18.26
197.089	131.24
197.308	43.18
197.528	2.22
197.747	-16.21
197.966	47.27
198.185	37.03
198.404	2.22
198.623	57.51
198.842	20.65
199.062	-5.97
199.281	-1.88
199.5	2.22
199.719	53.42
199.938	6.31
200.157	55.47
200.376	28.84
200.595	-18.26
200.814	80.04
201.033	-8.02
201.252	82.09
201.471	45.23
201.69	55.47
201.909	28.84
202.128	34.99
202.347	37.03
202.566	18.6
202.785	51.37
203.004	-20.31
203.223	16.55
203.442	90.28
203.661	28.84
203.879	-51.03
204.098	116.9
204.317	2.22
204.536	26.79
204.755	24.75
204.974	-3.93
205.193	45.23
205.411	129.19
205.63	12.46
205.849	51.37
206.068	2.22
206.287	-8.02
206.505	55.47
206.724	-57.17
206.943	51.37
207.162	69.8
207.381	0.17
207.599	86.19
207.818	55.47
208.037	51.37
208.255	24.75
208.474	59.56
208.693	26.79
208.911	28.84
209.13	61.61
209.349	59.56
209.567	63.66
209.786	108.71
210.005	71.85
210.223	6.31
210.442	-40.79
210.661	12.46
210.879	-20.31
211.098	-12.12
211.316	2.22
211.535	49.32
211.753	80.04
211.972	84.14
212.191	-42.84
212.409	118.95
212.628	10.41
212.846	32.94
213.065	16.55
213.283	73.9
213.502	-10.07
213.72	-28.5
213.938	104.62
214.157	49.32
214.375	16.55
214.594	24.75
214.812	37.03
215.031	18.6
215.249	0.17
215.467	-20.31
215.686	14.51
215.904	34.99
216.122	-53.08
216.341	43.18
216.559	-38.74
216.778	2.22
216.996	-75.6
217.214	-1.88
217.432	30.89
217.651	-42.84
217.869	4.27
218.087	104.62
218.306	10.41
218.524	55.47
218.742	20.65
218.96	67.75
219.179	6.31
219.397	20.65
219.615	110.76
219.833	73.9
220.051	-22.36
220.27	-20.31
220.488	-3.93
220.706	-12.12
220.924	92.33
221.142	39.08
221.36	-18.26
221.578	39.08
221.796	84.14
222.015	41.13
222.233	-34.64
222.451	53.42
222.669	59.56
222.887	16.55
223.105	96.43
223.323	67.75
223.541	39.08
223.759	92.33
223.977	61.61
224.195	39.08
224.413	43.18
224.631	-3.93
224.849	8.36
225.067	145.58
225.285	14.51
225.503	-1.88
225.721	32.94
225.939	47.27
226.157	-12.12
226.375	63.66
226.592	8.36
226.81	49.32
227.028	34.99
227.246	39.08
227.464	24.75
227.682	10.41
227.9	-8.02
228.117	34.99
228.335	49.32
228.553	28.84
228.771	-57.17
228.989	61.61
229.206	0.17
229.424	-5.97
229.642	-1.88
229.86	-53.08
230.077	51.37
230.295	20.65
230.513	84.14
230.731	2.22
230.948	10.41
231.166	71.85
231.384	-46.93
231.601	4.27
231.819	34.99
232.037	37.03
232.254	4.27
232.472	51.37
232.689	12.46
232.907	30.89
233.125	34.99
233.342	16.55
233.56	4.27
233.777	30.89
233.995	116.9
234.213	41.13
234.43	-5.97
234.648	53.42
234.865	24.75
235.083	24.75
235.3	0.17
235.518	82.09
235.735	59.56
235.953	0.17
236.17	-22.36
236.388	10.41
236.605	37.03
236.822	121
237.04	55.47
237.257	24.75
237.475	-30.55
237.692	67.75
237.909	37.03
238.127	4.27
238.344	75.95
238.562	47.27
238.779	-14.17
238.996	43.18
239.214	26.79
239.431	65.71
239.648	71.85
239.865	59.56
240.083	49.32
240.3	8.36
240.517	-24.4
240.735	69.8
240.952	80.04
241.169	34.99
241.386	47.27
241.603	61.61
241.821	-8.02
242.038	53.42
242.255	39.08
242.472	-5.97
242.689	26.79
242.907	24.75
243.124	47.27
243.341	-18.26
243.558	41.13
243.775	-57.17
243.992	-30.55
244.209	139.43
244.426	80.04
244.643	14.51
244.86	16.55
245.078	34.99
245.295	18.6
245.512	0.17
245.729	57.51
245.946	69.8
246.163	77.99
246.38	65.71
246.597	22.7
246.814	2.22
247.031	18.6
247.248	51.37
247.464	18.6
247.681	61.61
247.898	49.32
248.115	18.6
248.332	4.27
248.549	71.85
248.766	39.08
248.983	84.14
249.2	-26.45
249.417	-38.74
249.633	77.99
249.85	-18.26
250.067	28.84
250.284	37.03
250.501	61.61
250.717	-5.97
250.934	-20.31
251.151	47.27
251.368	16.55
251.585	-3.93
251.801	30.89
252.018	12.46
252.235	-5.97
252.451	-12.12
252.668	-8.02
252.885	67.75
253.102	94.38
253.318	16.55
253.535	8.36
253.752	-28.5
253.968	28.84
254.185	71.85
254.401	75.95
254.618	59.56
254.835	75.95
255.051	14.51
255.268	102.57
255.484	49.32
255.701	-30.55
255.917	-1.88
256.134	26.79
256.351	-48.98
256.567	6.31
256.784	34.99
257	-38.74
257.217	2.22
257.433	43.18
257.65	51.37
257.866	108.71
258.082	-14.17
258.299	73.9
258.515	47.27
258.732	32.94
258.948	22.7
259.165	32.94
259.381	-8.02
259.597	100.52
259.814	73.9
260.03	63.66
260.246	-8.02
260.463	55.47
260.679	90.28
260.895	41.13
261.112	37.03
261.328	57.51
261.544	-28.5
261.761	22.7
261.977	16.55
262.193	57.51
262.409	-18.26
262.626	10.41
262.842	59.56
263.058	34.99
263.274	34.99
263.49	6.31
263.707	-16.21
263.923	14.51
264.139	12.46
264.355	57.51
264.571	2.22
264.787	0.17
265.004	45.23
265.22	51.37
265.436	24.75
265.652	26.79
265.868	114.86
266.084	18.6
266.3	14.51
266.516	2.22
266.732	18.6
266.948	112.81
267.164	61.61
267.38	24.75
267.596	94.38
267.812	59.56
268.028	18.6
268.244	-5.97
268.46	22.7
268.676	-14.17
268.892	55.47
269.108	67.75
269.324	-8.02
269.54	-22.36
269.756	39.08
269.972	-61.27
270.188	32.94
270.403	-30.55
270.619	63.66
270.835	22.7
271.051	-89.94
271.267	16.55
271.483	24.75
271.698	30.89
271.914	92.33
272.13	-16.21
272.346	57.51
272.562	69.8
272.777	71.85
272.993	55.47
273.209	-34.64
273.425	4.27
273.64	-34.64
273.856	65.71
274.072	24.75
274.287	-30.55
274.503	-1.88
274.719	34.99
274.934	39.08
275.15	20.65
275.366	24.75
275.581	2.22
275.797	6.31
276.012	4.27
276.228	57.51
276.444	34.99
276.659	14.51
276.875	28.84
277.09	22.7
277.306	24.75
277.521	43.18
277.737	73.9
277.952	34.99
278.168	34.99
278.383	55.47
278.599	10.41
278.814	2.22
279.03	32.94
279.245	8.36
279.461	69.8
279.676	26.79
279.892	39.08
280.107	18.6
280.322	26.79
280.538	8.36
280.753	8.36
280.969	75.95
281.184	20.65
281.399	102.57
281.615	80.04
281.83	49.32
282.045	43.18
282.26	53.42
282.476	18.6
282.691	82.09
282.906	-42.84
283.122	2.22
283.337	92.33
283.552	82.09
283.767	26.79
283.983	41.13
284.198	-24.4
284.413	63.66
284.628	67.75
284.843	30.89
285.058	71.85
285.274	14.51
285.489	32.94
285.704	28.84
285.919	6.31
286.134	-51.03
286.349	49.32
286.564	86.19
286.779	8.36
286.995	-42.84
287.21	18.6
287.425	14.51
287.64	22.7
287.855	26.79
288.07	8.36
288.285	59.56
288.5	-5.97
288.715	51.37
288.93	106.67
289.145	47.27
289.36	51.37
289.575	55.47
289.79	96.43
290.004	86.19
290.219	123.05
290.434	47.27
290.649	45.23
290.864	-10.07
291.079	8.36
291.294	43.18
291.509	34.99
291.724	16.55
291.938	8.36
292.153	49.32
292.368	26.79
292.583	12.46
292.798	71.85
293.012	67.75
293.227	45.23
293.442	20.65
293.657	26.79
293.871	47.27
294.086	6.31
294.301	80.04
294.516	37.03
294.73	2.22
294.945	18.6
295.16	-1.88
295.374	84.14
295.589	75.95
295.804	28.84
296.018	53.42
296.233	26.79
296.447	92.33
296.662	37.03
296.877	14.51
297.091	-18.26
297.306	39.08
297.52	53.42
297.735	118.95
297.949	86.19
298.164	-14.17
298.378	125.1
298.593	71.85
298.807	16.55
299.022	10.41
299.236	30.89
299.451	-5.97
299.665	69.8
299.88	28.84
300.094	30.89
300.309	30.89
300.523	24.75
300.737	4.27
300.952	63.66
301.166	71.85
301.381	-1.88
301.595	71.85
301.809	53.42
302.024	57.51
302.238	37.03
302.452	106.67
302.667	14.51
302.881	55.47
303.095	24.75
303.309	121
303.524	-16.21
303.738	10.41
303.952	-22.36
304.166	-1.88
304.381	-16.21
304.595	0.17
304.809	-40.79
305.023	65.71
305.237	57.51
305.452	34.99
305.666	135.34
305.88	-42.84
306.094	104.62
306.308	47.27
306.522	41.13
306.736	2.22
306.95	96.43
307.164	22.7
307.379	61.61
307.593	102.57
307.807	-12.12
308.021	34.99
308.235	80.04
308.449	43.18
308.663	-16.21
308.877	170.15
309.091	10.41
309.305	55.47
309.519	-10.07
309.733	45.23
309.947	20.65
310.161	49.32
310.374	6.31
310.588	-1.88
310.802	34.99
311.016	-8.02
311.23	63.66
311.444	10.41
311.658	65.71
311.872	55.47
312.085	14.51
312.299	88.23
312.513	63.66
312.727	8.36
312.941	65.71
313.154	22.7
313.368	133.29
313.582	123.05
313.796	4.27
314.009	30.89
314.223	77.99
314.437	45.23
314.651	41.13
314.864	24.75
315.078	32.94
315.292	59.56
315.505	55.47
315.719	57.51
315.933	14.51
316.146	34.99
316.36	14.51
316.573	127.14
316.787	98.47
317.001	-1.88
317.214	-5.97
317.428	28.84
317.641	-26.45
317.855	-36.69
318.068	26.79
318.282	77.99
318.495	92.33
318.709	129.19
318.922	34.99
319.136	47.27
319.349	20.65
319.563	53.42
319.776	106.67
319.99	59.56
320.203	51.37
320.417	6.31
320.63	26.79
320.843	84.14
321.057	39.08
321.27	2.22
321.483	55.47
321.697	73.9
321.91	53.42
322.124	24.75
322.337	49.32
322.55	-3.93
322.763	26.79
322.977	32.94
323.19	51.37
323.403	-20.31
323.617	-14.17
323.83	59.56
324.043	16.55
324.256	94.38
324.469	30.89
324.683	86.19
324.896	61.61
325.109	30.89
325.322	-22.36
325.535	2.22
325.748	34.99
325.962	26.79
326.175	39.08
326.388	63.66
326.601	147.62
326.814	-24.4
327.027	-38.74
327.24	32.94
327.453	-46.93
327.666	22.7
327.879	22.7
328.092	6.31
328.305	71.85
328.518	22.7
328.731	-5.97
328.944	92.33
329.157	-10.07
329.37	39.08
329.583	-51.03
329.796	133.29
330.009	61.61
330.222	39.08
330.435	20.65
330.648	10.41
330.861	6.31
331.073	45.23
331.286	65.71
331.499	47.27
331.712	43.18
331.925	6.31
332.138	-1.88
332.35	51.37
332.563	4.27
332.776	90.28
332.989	4.27
333.202	80.04
333.414	100.52
333.627	26.79
333.84	8.36
334.053	106.67
334.265	6.31
334.478	20.65
334.691	49.32
334.903	-10.07
335.116	57.51
335.329	22.7
335.541	-34.64
335.754	67.75
335.966	84.14
336.179	-5.97
336.392	12.46
336.604	-14.17
336.817	75.95
337.029	69.8
337.242	20.65
337.454	2.22
337.667	-1.88
337.88	69.8
338.092	73.9
338.305	53.42
338.517	-51.03
338.729	45.23
338.942	32.94
339.154	37.03
339.367	96.43
339.579	133.29
339.792	20.65
340.004	55.47
340.217	55.47
340.429	80.04
340.641	30.89
340.854	6.31
341.066	-28.5
341.278	53.42
341.491	149.67
341.703	71.85
341.915	-1.88
342.128	39.08
342.34	112.81
342.552	-55.12
342.764	59.56
342.977	34.99
343.189	16.55
343.401	100.52
343.613	28.84
343.826	43.18
344.038	65.71
344.25	-10.07
344.462	41.13
344.674	12.46
344.886	47.27
345.099	96.43
345.311	22.7
345.523	63.66
345.735	-36.69
345.947	47.27
346.159	41.13
346.371	-28.5
346.583	-1.88
346.795	114.86
347.007	86.19
347.219	16.55
347.431	-14.17
347.643	39.08
347.855	0.17
348.067	34.99
348.279	75.95
348.491	139.43
348.703	-20.31
348.915	28.84
349.127	69.8
349.339	-8.02
349.551	-3.93
349.763	-3.93
349.975	59.56
350.187	47.27
350.399	30.89
350.61	96.43
350.822	6.31
351.034	26.79
351.246	-34.64
351.458	92.33
351.669	-18.26
351.881	55.47
352.093	51.37
352.305	84.14
352.517	90.28
352.728	84.14
352.94	16.55
353.152	47.27
353.363	0.17
353.575	8.36
353.787	112.81
353.999	32.94
354.21	94.38
354.422	49.32
354.633	63.66
354.845	45.23
355.057	22.7
355.268	88.23
355.48	14.51
355.692	8.36
355.903	90.28
356.115	-8.02
356.326	32.94
356.538	26.79
356.749	55.47
356.961	67.75
357.172	22.7
357.384	22.7
357.595	53.42
357.807	22.7
358.018	-10.07
358.23	69.8
358.441	106.67
358.653	67.75
358.864	80.04
359.075	-12.12
359.287	67.75
359.498	92.33
359.709	30.89
359.921	-1.88
360.132	94.38
360.344	47.27
360.555	39.08
360.766	65.71
360.977	20.65
361.189	14.51
361.4	34.99
361.611	24.75
361.823	96.43
362.034	30.89
362.245	47.27
362.456	22.7
362.667	43.18
362.879	-10.07
363.09	32.94
363.301	94.38
363.512	75.95
363.723	22.7
363.935	65.71
364.146	0.17
364.357	43.18
364.568	6.31
364.779	-14.17
364.99	49.32
365.201	24.75
365.412	67.75
365.623	2.22
365.834	34.99
366.045	34.99
366.256	49.32
366.467	73.9
366.678	67.75
366.889	57.51
367.1	8.36
367.311	63.66
367.522	43.18
367.733	41.13
367.944	123.05
368.155	69.8
368.366	26.79
368.577	49.32
368.788	2.22
368.999	-14.17
369.209	8.36
369.42	108.71
369.631	51.37
369.842	114.86
370.053	18.6
370.264	71.85
370.474	8.36
370.685	90.28
370.896	6.31
371.107	59.56
371.317	55.47
371.528	-5.97
371.739	90.28
371.95	55.47
372.16	88.23
372.371	108.71
372.582	32.94
372.792	-14.17
373.003	34.99
373.214	10.41
373.424	92.33
373.635	10.41
373.846	110.76
374.056	24.75
374.267	28.84
374.477	-75.6
374.688	39.08
374.898	96.43
375.109	10.41
375.319	71.85
375.53	45.23
375.74	77.99
375.951	8.36
376.161	-26.45
376.372	53.42
376.582	63.66
376.793	67.75
377.003	26.79
377.214	82.09
377.424	73.9
377.635	-36.69
377.845	41.13
378.055	112.81
378.266	24.75
378.476	84.14
378.686	-8.02
378.897	-18.26
379.107	59.56
379.317	37.03
379.528	-10.07
379.738	55.47
379.948	98.47
380.158	16.55
380.369	112.81
380.579	18.6
380.789	12.46
380.999	49.32
381.21	45.23
381.42	98.47
381.63	61.61
381.84	51.37
382.05	16.55
382.261	84.14
382.471	16.55
382.681	86.19
382.891	77.99
383.101	75.95
383.311	59.56
383.521	67.75
383.731	51.37
383.941	112.81
384.151	102.57
384.361	55.47
384.571	6.31
384.781	92.33
384.991	90.28
385.201	96.43
385.411	98.47
385.621	51.37
385.831	34.99
386.041	88.23
386.251	112.81
386.461	84.14
386.671	57.51
386.881	37.03
387.091	24.75
387.301	34.99
387.511	34.99
387.72	80.04
387.93	51.37
388.14	61.61
388.35	16.55
388.56	84.14
388.769	114.86
388.979	26.79
389.189	45.23
389.399	73.9
389.609	96.43
389.818	102.57
390.028	14.51
390.238	53.42
390.447	65.71
390.657	61.61
390.867	-12.12
391.076	6.31
391.286	92.33
391.496	49.32
391.705	100.52
391.915	2.22
392.125	92.33
392.334	47.27
392.544	18.6
392.753	51.37
392.963	63.66
393.172	67.75
393.382	41.13
393.591	129.19
393.801	20.65
394.01	59.56
394.22	-26.45
394.429	55.47
394.639	34.99
394.848	63.66
395.058	80.04
395.267	24.75
395.477	141.48
395.686	98.47
395.895	145.58
396.105	84.14
396.314	108.71
396.524	49.32
396.733	90.28
396.942	53.42
397.152	55.47
397.361	59.56
397.57	75.95
397.78	86.19
397.989	110.76
398.198	164.01
398.407	0.17
398.617	100.52
398.826	114.86
399.035	69.8
399.244	161.96
399.453	106.67
399.663	108.71
399.872	94.38
400.081	145.58
400.29	112.81
400.499	69.8
400.708	118.95
400.917	88.23
401.127	135.34
401.336	34.99
401.545	176.3
401.754	196.78
401.963	135.34
402.172	182.44
402.381	143.53
402.59	102.57
402.799	43.18
403.008	112.81
403.217	137.38
403.426	149.67
403.635	49.32
403.844	190.63
404.053	147.62
404.262	151.72
404.471	254.12
404.68	157.86
404.888	98.47
405.097	71.85
405.306	196.78
405.515	182.44
405.724	188.58
405.933	174.25
406.142	176.3
406.35	137.38
406.559	186.54
406.768	145.58
406.977	207.02
407.185	186.54
407.394	209.06
407.603	204.97
407.812	161.96
408.02	217.26
408.229	284.84
408.438	264.36
408.646	258.21
408.855	262.31
409.064	313.51
409.272	229.54
409.481	290.98
409.69	297.13
409.898	274.6
410.107	342.18
410.315	354.47
410.524	276.65
410.733	350.37
410.941	297.13
411.15	354.47
411.358	362.66
411.567	528.55
411.775	397.48
411.984	409.76
412.192	422.05
412.401	405.67
412.609	518.31
412.818	573.6
413.026	508.07
413.234	540.83
413.443	551.07
413.651	575.65
413.86	563.36
414.068	688.29
414.276	708.77
414.485	647.33
414.693	639.14
414.901	770.21
415.11	737.44
415.318	669.86
415.526	764.06
415.734	792.73
415.943	770.21
416.151	932
416.359	856.22
416.567	929.95
416.776	975
416.984	1038.49
417.192	1108.12
417.4	1040.54
417.608	936.09
417.817	1118.36
418.025	1224.86
418.233	1271.96
418.441	1097.88
418.649	1149.08
418.857	1368.21
419.065	1351.83
419.273	1388.69
419.481	1454.23
419.689	1493.14
419.897	1661.07
420.105	1626.26
420.313	1616.02
420.521	1802.38
420.729	1630.35
420.937	1767.57
421.145	1824.91
421.353	1935.5
421.561	1933.45
421.769	2015.37
421.977	2138.25
422.185	2111.63
422.393	2195.59
422.601	2531.46
422.809	2429.06
423.017	2422.92
423.224	2574.47
423.432	2723.97
423.64	2537.6
423.848	2898.05
424.056	2832.51
424.263	2949.25
424.471	2883.71
424.679	3129.47
424.887	3192.95
425.094	3362.94
425.302	3389.56
425.51	3471.48
425.718	3604.6
425.925	3672.18
426.133	3790.96
426.341	3827.82
426.548	4089.96
426.756	4122.73
426.964	4235.37
427.171	4487.27
427.379	4491.37
427.586	4601.96
427.794	4679.78
428.001	5144.67
428.209	5085.28
428.417	5038.17
428.624	5531.73
428.832	5449.82
429.039	5322.84
429.247	5474.39
429.454	5998.67
429.662	6355.02
429.869	5957.71
430.076	6178.89
430.284	6211.66
430.491	6463.56
430.699	6711.36
430.906	6723.65
431.114	6981.7
431.321	7084.09
431.528	7299.13
431.736	7729.2
431.943	7960.63
432.15	7725.11
432.358	7888.95
432.565	8296.49
432.772	8298.54
432.979	8808.48
433.187	8871.97
433.394	8972.32
433.601	9478.17
433.808	9490.46
434.016	9504.79
434.223	9938.96
434.43	10446.86
434.637	10393.61
434.844	11048.96
435.052	11081.73
435.259	11046.91
435.466	11292.67
435.673	10913.8
435.88	12163.06
436.087	12296.18
436.294	12572.65
436.501	12185.58
436.708	12511.21
436.915	12779.5
437.122	13418.46
437.329	13195.23
437.537	13842.39
437.743	13973.46
437.95	14012.37
438.157	14473.17
438.364	15177.67
438.571	14964.68
438.778	15167.43
438.985	16514.99
439.192	15972.28
439.399	16228.28
439.606	15974.33
439.813	16869.29
440.02	17868.7
440.227	17555.36
440.433	17465.25
440.64	18061.21
440.847	17948.57
441.054	18278.29
441.261	19382.15
441.467	19371.91
441.674	19754.88
441.881	20420.47
442.088	20432.75
442.294	20068.22
442.501	20752.24
442.708	21153.64
442.914	21880.67
443.121	22816.59
443.328	22243.16
443.534	23893.82
443.741	23088.97
443.948	22726.48
444.154	24622.9
444.361	24110.91
444.568	24518.45
444.774	24575.8
444.981	24850.22
445.187	25513.77
445.394	26578.71
445.6	26328.86
445.807	28837.62
446.013	27266.83
446.22	27817.73
446.426	28704.5
446.633	29058.8
446.839	30346.97
447.046	29021.94
447.252	30506.71
447.459	30418.65
447.665	30285.53
447.871	31610.57
448.078	33054.39
448.284	31403.72
448.491	32456.38
448.697	33537.71
448.903	34186.91
449.11	34315.94
449.316	33480.36
449.522	34027.17
449.728	35329.68
449.935	35178.13
450.141	35163.79
450.347	35942.02
450.553	35014.29
450.76	35489.42
450.966	36241.03
451.172	35790.47
451.378	37058.17
451.584	36081.28
451.791	36806.27
451.997	36871.8
452.203	37557.87
452.409	37617.26
452.615	37572.21
452.821	35825.29
453.027	35182.23
453.233	37336.69
453.44	35624.59
453.646	36271.75
453.852	36427.39
454.058	36316.8
454.264	35784.33
454.47	36542.08
454.676	35391.12
454.882	36421.25
455.088	33580.71
455.294	34100.9
455.5	34107.04
455.705	34662.04
455.911	33418.92
456.117	32341.69
456.323	32177.86
456.529	30330.59
456.735	31729.35
456.941	30969.55
457.147	30539.48
457.352	29779.68
457.558	28911.35
457.764	28905.2
457.97	28817.14
458.176	28118.78
458.381	27967.23
458.587	26625.81
458.793	26849.04
458.999	25257.77
459.204	27203.34
459.41	26058.53
459.616	24446.77
459.821	24436.53
460.027	24291.13
460.233	24076.09
460.438	22587.22
460.644	23312.2
460.85	21774.17
461.055	21755.74
461.261	21663.58
461.466	19793.79
461.672	19283.84
461.878	20608.88
462.083	19388.29
462.289	19216.26
462.494	18907.02
462.7	18255.76
462.905	17641.37
463.111	18315.16
463.316	18608.01
463.522	17829.79
463.727	17915.8
463.932	17954.71
464.138	17772.44
464.343	17848.22
464.549	17309.6
464.754	17784.73
464.959	17737.63
465.165	17561.5
465.37	16762.79
465.575	16469.94
465.781	17104.81
465.986	17414.05
466.191	16500.65
466.397	16156.6
466.602	15224.77
466.807	16031.67
467.012	15931.32
467.218	15787.96
467.423	15622.08
467.628	15943.61
467.833	16496.56
468.038	15855.54
468.244	15263.68
468.449	16207.8
468.654	15558.59
468.859	15521.73
469.064	15327.17
469.269	14860.23
469.474	14661.58
469.679	15036.36
469.885	14643.15
470.09	14813.13
470.295	14735.31
470.5	14358.48
470.705	14692.3
470.91	14297.04
471.115	13922.26
471.32	14294.99
471.525	14118.87
471.73	13637.59
471.935	13606.88
472.139	13449.18
472.344	13529.05
472.549	13383.65
472.754	13332.45
472.959	12937.19
473.164	12732.39
473.369	12351.47
473.574	12775.4
473.778	12589.03
473.983	12681.19
474.188	12554.22
474.393	11907.06
474.598	12191.73
474.802	11943.92
475.007	12068.85
475.212	11915.25
475.417	11540.47
475.621	11542.52
475.826	11669.5
476.031	11061.25
476.235	11128.83
476.44	11159.55
476.645	11034.63
476.849	11089.92
477.054	11026.43
477.259	10747.91
477.463	10649.61
477.668	10528.78
477.872	10838.02
478.077	10348.56
478.282	9947.15
478.486	10010.64
478.691	10055.7
478.895	10016.79
479.1	9951.25
479.304	9990.16
479.509	9721.88
479.713	9895.96
479.918	9574.42
480.122	9603.1
480.326	9719.83
480.531	9674.78
480.735	9424.92
480.94	9406.49
481.144	9803.8
481.348	9529.37
481.553	9185.31
481.757	9127.97
481.961	9435.16
482.166	9562.14
482.37	9398.3
482.574	9228.32
482.778	9287.71
482.983	9357.34
483.187	9482.27
483.391	9480.22
483.595	9287.71
483.8	9193.5
484.004	9402.4
484.208	9199.65
484.412	9377.82
484.616	9420.83
484.821	9340.96
485.025	9224.22
485.229	9410.59
485.433	9125.92
485.637	9162.78
485.841	9119.78
486.045	9238.56
486.249	9304.09
486.453	9072.67
486.657	9209.89
486.861	9420.83
487.065	9017.38
487.269	9179.17
487.473	9123.87
487.677	9291.8
487.881	9322.52
488.085	9109.54
488.289	9291.8
488.493	9134.11
488.697	9187.36
488.901	9265.18
489.105	9218.08
489.309	9488.41
489.512	9379.87
489.716	9357.34
489.92	9236.51
490.124	9271.33
490.328	9586.71
490.531	9652.25
490.735	9613.34
490.939	9687.06
491.143	9607.19
491.346	9732.12
491.55	9547.8
491.754	9666.58
491.958	9746.45
492.161	9687.06
492.365	9926.68
492.569	9801.75
492.772	9957.39
492.976	9951.25
493.18	10061.84
493.383	10092.56
493.587	10154
493.79	10190.86
493.994	10117.14
494.197	10209.29
494.401	10354.7
494.605	10389.52
494.808	10508.3
495.012	10373.13
495.215	10442.76
495.419	10784.77
495.622	10635.27
495.825	10905.6
496.029	10971.14
496.232	10813.45
496.436	11016.19
496.639	11276.29
496.843	11255.81
497.046	11397.12
497.249	11565.05
497.453	11718.65
497.656	11706.36
497.859	11632.63
498.063	11790.33
498.266	12353.52
498.469	12191.73
498.673	12230.64
498.876	12363.76
499.079	12398.57
499.282	12449.77
499.485	12738.54
499.689	13010.92
499.892	13092.83
500.095	13258.72
500.298	13490.14
500.501	13326.3
500.705	13656.03
500.908	14098.39
501.111	13948.89
501.314	14415.82
501.517	14284.75
501.72	14446.54
501.923	14405.58
502.126	14618.57
502.329	15321.02
502.532	14862.28
502.735	15372.22
502.938	15730.62
503.141	15519.68
503.344	15964.09
503.547	15974.33
503.75	16242.61
503.953	16476.08
504.156	16531.37
504.359	16658.35
504.562	16672.68
504.765	16990.12
504.968	17147.81
505.17	17293.22
505.373	17493.92
505.576	17692.57
505.779	17917.85
505.982	18100.12
506.185	18507.66
506.387	18821
506.59	18816.91
506.793	18929.55
506.996	19240.84
507.198	19466.11
507.401	19494.79
507.604	19670.91
507.807	19926.91
508.009	20279.16
508.212	20264.82
508.415	20510.58
508.617	21036.91
508.82	20973.42
509.022	20813.68
509.225	21487.46
509.428	21552.99
509.63	21684.06
509.833	22026.07
510.035	22638.42
510.238	22447.96
510.44	22787.92
510.643	23076.68
510.845	23037.77
511.048	23271.24
511.25	23633.73
511.453	23631.68
511.655	24381.24
511.858	24018.75
512.06	24581.94
512.262	24674.1
512.465	25001.77
512.667	25268.01
512.87	25538.34
513.072	25734.95
513.274	25997.09
513.477	26404.63
513.679	26380.06
513.881	26953.49
514.084	26973.97
514.286	27012.88
514.488	27303.69
514.69	28327.67
514.893	28051.2
515.095	27971.33
515.297	28600.05
515.499	28708.6
515.701	29191.92
515.904	29517.54
516.106	29511.4
516.308	29947.62
516.51	30478.04
516.712	30439.13
516.914	30840.53
517.116	31123.15
517.318	31461.07
517.52	31516.36
517.722	31645.38
517.925	32147.14
518.127	32345.79
518.329	32730.81
518.531	32951.99
518.733	33828.52
518.935	34072.23
519.136	33740.46
519.338	34479.77
519.54	34856.6
519.742	34842.26
519.944	34709.15
520.146	35526.28
520.348	35835.53
520.55	35966.6
520.752	35886.73
520.954	36968.05
521.155	36679.29
521.357	36986.49
521.559	37394.03
521.761	37688.94
521.963	37959.27
522.164	38137.44
522.366	38151.78
522.568	38418.02
522.77	39290.45
522.971	39536.21
523.173	39282.26
523.375	39677.52
523.576	39972.42
523.778	39990.86
523.98	40023.62
524.181	40977.98
524.383	41012.79
524.584	41242.17
524.786	41193.01
524.988	41121.34
525.189	41827.88
525.391	41868.84
525.592	42044.97
525.794	42860.06
525.995	42393.12
526.197	42483.23
526.398	42888.73
526.6	43118.1
526.801	43283.99
527.003	43496.98
527.204	43480.6
527.406	44121.61
527.607	43886.09
527.808	44109.32
528.01	43814.41
528.211	44097.03
528.412	45020.67
528.614	44783.1
528.815	44813.82
529.016	45501.94
529.218	44932.61
529.419	45374.97
529.62	45422.07
529.822	45465.08
530.023	45737.46
530.224	45915.63
530.425	45702.64
530.626	45559.28
530.828	45225.46
531.029	46779.87
531.23	46271.98
531.431	46409.19
531.632	45932.01
531.833	46370.28
532.035	46484.97
532.236	46415.33
532.437	46636.52
532.638	46656.99
532.839	47173.08
533.04	46863.84
533.241	46161.39
533.442	47787.47
533.643	47107.55
533.844	46937.57
534.045	47103.45
534.246	46937.57
534.447	47678.93
534.648	47091.16
534.849	47128.03
535.05	46976.48
535.251	47111.64
535.451	47494.61
535.652	47228.38
535.853	47351.26
536.054	47457.75
536.255	47828.43
536.456	46751.2
536.657	47721.94
536.857	46919.13
537.058	47222.23
537.259	47748.56
537.46	47558.1
537.66	47371.74
537.861	47635.92
538.062	47087.07
538.263	47633.88
538.463	47363.54
538.664	46933.47
538.865	47488.47
539.065	47644.12
539.266	47353.3
539.466	47873.49
539.667	46962.14
539.868	47787.47
540.068	47701.46
540.269	47588.82
540.469	47545.81
540.67	47080.92
540.87	47519.19
541.071	47623.64
541.271	47289.82
541.472	47214.04
541.672	47255
541.873	47115.74
542.073	46972.38
542.274	47631.83
542.474	47402.46
542.675	47230.43
542.875	47570.39
543.075	47363.54
543.276	46763.49
543.476	47785.43
543.676	47136.22
543.877	47467.99
544.077	47091.16
544.277	47035.87
544.478	47138.27
544.678	47484.37
544.878	47308.25
545.078	47334.87
545.279	46880.22
545.479	47074.78
545.679	47769.04
545.879	47375.83
546.079	46935.52
546.28	46685.67
546.48	46859.74
546.68	47042.01
546.88	46921.18
547.08	47277.53
547.28	46779.87
547.48	46685.67
547.68	47140.32
547.88	46556.64
548.081	47193.56
548.281	47304.15
548.481	47052.25
548.681	47162.84
548.881	47074.78
549.081	46943.71
549.28	46484.97
549.48	46980.57
549.68	46661.09
549.88	47660.5
550.08	46990.81
550.28	46857.7
550.48	46849.5
550.68	47111.64
550.88	46364.14
551.08	46902.75
551.279	47080.92
551.479	46462.44
551.679	46878.18
551.879	46777.82
552.079	46829.02
552.278	46775.78
552.478	46755.3
552.678	46595.56
552.878	47050.2
553.077	46525.92
553.277	46231.02
553.477	46994.91
553.676	46431.72
553.876	46788.06
554.076	46591.46
554.275	46093.8
554.475	45874.67
554.674	46149.1
554.874	46296.55
555.074	45950.45
555.273	45923.82
555.473	46390.76
555.672	45962.73
555.872	45858.29
556.071	46038.51
556.271	46204.39
556.47	45995.5
556.67	45327.86
556.869	45757.94
557.068	46255.59
557.268	45311.48
557.467	46104.04
557.667	45454.84
557.866	45567.48
558.065	45618.67
558.265	45043.2
558.464	45118.97
558.663	45915.63
558.863	44905.98
559.062	45598.19
559.261	44789.25
559.461	45592.05
559.66	44748.29
559.859	45219.32
560.058	44301.83
560.258	44705.28
560.457	44267.02
560.656	44533.25
560.855	44404.23
561.054	44455.43
561.253	44551.68
561.453	44248.58
561.652	44133.9
561.851	44318.21
562.05	43892.24
562.249	43904.52
562.448	44011.02
562.647	43761.17
562.846	43576.85
563.045	43716.11
563.244	43390.48
563.443	43656.72
563.642	43259.41
563.841	43341.33
564.04	42847.77
564.239	43591.19
564.438	42907.16
564.637	43320.85
564.836	42741.28
565.035	42397.22
565.234	42665.5
565.432	42020.39
565.631	42524.19
565.83	42468.9
566.029	42221.09
566.228	41791.02
566.427	42034.73
566.625	41662
566.824	41539.12
567.023	41938.47
567.222	40875.58
567.42	41807.4
567.619	41528.88
567.818	41487.92
568.016	41092.66
568.215	41451.06
568.414	41029.18
568.612	41375.28
568.811	40721.98
569.01	41135.67
569.208	40209.99
569.407	40439.36
569.605	40040.01
569.804	40328.77
570.002	40052.3
570.201	40373.83
570.4	39947.85
570.598	39808.59
570.797	39663.18
570.995	39614.03
571.193	39202.39
571.392	39751.24
571.59	39652.94
571.789	38979.16
571.987	38700.64
572.186	38903.39
572.384	38749.79
572.582	38768.22
572.781	38628.96
572.979	38133.35
573.177	38385.25
573.376	38473.31
573.574	37803.63
573.772	38053.48
573.971	38248.04
574.169	37693.04
574.367	37729.9
574.565	37680.75
574.763	37799.53
574.962	37424.75
575.16	37105.27
575.358	37305.97
575.556	36595.32
575.754	37330.55
575.952	36884.09
576.151	36793.98
576.349	36261.51
576.547	36679.29
576.745	36654.72
576.943	36804.22
577.141	36011.65
577.339	36120.2
577.537	35913.35
577.735	36384.38
577.933	35726.99
578.131	35796.62
578.329	35712.65
578.527	35194.51
578.725	35618.44
578.923	35452.56
579.121	35462.8
579.319	35423.89
579.516	35464.85
579.714	35155.6
579.912	34956.95
580.11	34827.93
580.308	35102.36
580.506	34715.29
580.704	34049.7
580.901	34688.67
581.099	34498.2
581.297	34008.74
581.495	33775.27
581.692	34156.19
581.89	33951.4
582.088	34150.05
582.285	33537.71
582.483	34084.51
582.681	33488.56
582.878	33304.24
583.076	33128.11
583.274	33453.74
583.471	33042.1
583.669	33115.83
583.866	32976.56
584.064	33042.1
584.262	32495.29
584.459	33023.67
584.657	32609.98
584.854	32775.86
585.052	32122.56
585.249	32528.06
585.447	32437.95
585.644	31839.94
585.841	31948.48
586.039	32208.58
586.236	31577.8
586.434	31633.1
586.631	31596.23
586.828	31553.23
587.026	31882.95
587.223	31477.45
587.42	31465.16
587.618	31639.24
587.815	31170.26
588.012	30961.36
588.21	31098.58
588.407	31057.62
588.604	31094.48
588.801	30619.35
588.999	30641.88
589.196	30471.9
589.393	30342.88
589.59	30246.62
589.787	30256.86
589.984	30320.35
590.182	29847.27
590.379	30232.29
590.576	29441.77
590.773	29458.15
590.97	29396.71
591.167	29689.57
591.364	29288.17
591.561	29693.67
591.758	29101.81
591.955	29023.98
592.152	29392.62
592.349	28880.63
592.546	29069.04
592.743	29271.79
592.94	28514.04
593.137	28645.11
593.334	28935.92
593.531	28675.83
593.727	28735.22
593.924	28538.62
594.121	28249.85
594.318	28425.98
594.515	27938.56
594.712	28372.73
594.908	28014.34
595.105	28311.29
595.302	27707.14
595.499	27971.33
595.696	27827.97
595.892	27653.89
596.089	27512.58
596.286	27754.24
596.482	27592.45
596.679	27102.99
596.876	27432.71
597.072	26840.85
597.269	27129.61
597.466	26955.54
597.662	26736.4
597.859	26851.09
598.055	26945.3
598.252	26611.48
598.448	26613.52
598.645	26627.86
598.841	26437.4
599.038	26382.1
599.234	26165.02
599.431	26105.63
599.627	25818.91
599.824	25995.04
600.02	25825.06
600.217	25773.86
600.413	25773.86
600.609	25591.59
600.806	25261.87
601.002	25579.3
601.198	25495.33
601.395	25247.53
601.591	25220.91
601.787	25112.36
601.984	24954.67
602.18	25204.52
602.376	24723.25
602.572	24555.32
602.769	25206.57
602.965	24831.79
603.161	24659.76
603.357	24618.8
603.553	24196.92
603.75	24549.17
603.946	24553.27
604.142	24569.65
604.338	23990.08
604.534	24287.03
604.73	23854.91
604.926	24141.63
605.122	23881.53
605.318	23684.93
605.514	23883.58
605.71	23461.7
605.906	23492.42
606.102	23525.19
606.298	23553.86
606.494	23408.45
606.69	23467.84
606.886	23373.64
607.082	23095.11
607.278	23418.69
607.474	22867.79
607.67	23111.5
607.866	22931.28
608.062	23209.8
608.257	22976.33
608.453	23134.03
608.649	22937.42
608.845	22478.68
609.041	22511.44
609.236	22724.43
609.432	22417.24
609.628	22443.86
609.824	22392.66
610.019	22243.16
610.215	22306.65
610.411	22357.85
610.606	22191.96
610.802	22351.7
610.998	22165.34
611.193	22032.22
611.389	21968.73
611.584	21931.87
611.78	21765.98
611.976	21657.44
612.171	21968.73
612.367	22036.31
612.562	21653.34
612.758	21305.19
612.953	21317.48
613.149	21813.09
613.344	21585.76
613.539	21671.78
613.735	21426.02
613.93	21458.79
614.126	21188.46
614.321	21434.21
614.517	21376.87
614.712	21223.27
614.907	21186.41
615.103	21409.64
615.298	20987.75
615.493	21206.89
615.688	20799.34
615.884	21278.57
616.079	20842.35
616.274	21284.71
616.47	20881.26
616.665	21018.47
616.86	20809.58
617.055	20764.53
617.25	20598.64
617.445	21094.25
617.641	20367.22
617.836	20655.98
618.031	20219.77
618.226	20500.34
618.421	20180.85
618.616	20383.6
618.811	20117.37
619.006	20418.42
619.201	19953.53
619.396	20139.9
619.591	19756.93
619.786	19953.53
619.981	19644.29
620.176	19836.8
620.371	19447.68
620.566	19363.72
620.761	19533.7
620.956	19386.24
621.151	19105.67
621.346	19257.22
621.541	19015.56
621.735	19167.11
621.93	18933.64
622.125	18812.81
622.32	18601.87
622.515	18724.75
622.709	18487.18
622.904	18386.83
623.099	18468.75
623.294	18399.12
623.488	18128.79
623.683	18055.06
623.878	17930.14
624.072	17858.46
624.267	17700.76
624.462	17711
624.656	17704.86
624.851	17848.22
625.046	17461.15
625.24	17489.82
625.435	17016.74
625.629	17289.12
625.824	16951.21
626.018	17276.84
626.213	16725.93
626.407	16752.56
626.602	16562.09
626.796	16986.02
626.991	16789.42
627.185	16373.68
627.38	16443.31
627.574	16326.58
627.768	16193.46
627.963	16242.61
628.157	16025.53
628.352	15972.28
628.546	15802.3
628.74	16179.12
628.935	15562.69
629.129	15435.71
629.323	15321.02
629.517	15437.76
629.712	15470.53
629.906	15265.73
630.1	15146.95
630.294	15202.24
630.489	14817.22
630.683	15288.26
630.877	14706.63
631.071	14813.13
631.265	14731.21
631.459	14727.11
631.653	14534.6
631.848	14503.89
632.042	14122.96
632.236	14548.94
632.43	14460.88
632.624	14190.55
632.818	14073.81
633.012	14149.59
633.206	13973.46
633.4	13852.63
633.594	13846.49
633.788	13813.72
633.982	13658.07
634.176	13684.7
634.369	13567.96
634.563	13529.05
634.757	13338.59
634.951	13477.85
635.145	13244.38
635.339	13324.26
635.533	13203.43
635.726	13410.27
635.92	12996.58
636.114	13318.11
636.308	12926.95
636.501	12935.14
636.695	12832.74
636.889	12732.39
637.083	12742.63
637.276	12531.69
637.47	12230.64
637.664	12394.48
637.857	12269.55
638.051	12230.64
638.244	12074.99
638.438	12208.11
638.632	12072.95
638.825	12019.7
639.019	11821.05
639.212	11759.61
639.406	11765.75
639.599	11630.59
639.793	11671.54
639.986	11495.42
640.18	11628.54
640.373	11673.59
640.567	11362.3
640.76	11511.8
640.954	11241.47
641.147	11261.95
641.34	11177.98
641.534	11085.83
641.727	10864.64
641.92	11077.63
642.114	10874.88
642.307	10930.18
642.5	10745.86
642.694	10577.93
642.887	10694.66
643.08	10792.97
643.273	10586.12
643.467	10364.94
643.66	10340.36
643.853	10405.9
644.046	10233.87
644.239	10328.08
644.432	10315.79
644.626	10117.14
644.819	10037.27
645.012	10078.22
645.205	10113.04
645.398	10084.37
645.591	9879.57
645.784	9863.19
645.977	9830.42
646.17	9560.09
646.363	9807.89
646.556	9623.58
646.749	9551.9
646.942	9574.42
647.135	9519.13
647.328	9381.92
647.521	9443.35
647.714	9269.28
647.907	9134.11
648.099	9390.11
648.292	9375.77
648.485	9027.62
648.678	8939.55
648.871	9107.49
649.064	8972.32
649.256	9142.3
649.449	8736.81
649.642	8869.92
649.835	8908.83
650.027	8677.41
650.22	8759.33
650.413	8460.33
650.605	8648.74
650.798	8642.6
650.991	8523.82
651.183	8337.45
651.376	8312.88
651.568	8499.24
651.761	8398.89
651.954	8364.08
652.146	8224.81
652.339	8321.07
652.531	8204.33
652.724	8329.26
652.916	8087.6
653.109	7860.27
653.301	7977.01
653.494	8081.46
653.686	7817.27
653.879	8126.51
654.071	7839.8
654.263	7598.13
654.456	7944.24
654.648	7569.46
654.84	7735.35
655.033	7651.38
655.225	7477.3
655.417	7481.4
655.61	7602.23
655.802	7462.97
655.994	7505.98
656.186	7399.48
656.379	7407.67
656.571	7460.92
656.763	7366.71
656.955	7446.59
657.148	7370.81
657.34	7094.33
657.532	7153.73
657.724	7102.53
657.916	7075.9
658.108	6967.36
658.3	6916.16
658.492	7059.52
658.684	6914.11
658.876	6957.12
659.068	6934.59
659.26	6930.5
659.452	6717.51
659.644	6844.48
659.836	6783.04
660.028	6750.28
660.22	6684.74
660.412	6627.4
660.604	6305.87
660.796	6561.86
660.988	6533.19
661.18	6424.65
661.372	6365.26
661.563	6340.68
661.755	6330.44
661.947	6473.8
662.139	6369.35
662.331	6273.1
662.522	6178.89
662.714	5978.19
662.906	6039.63
663.097	6221.9
663.289	6072.4
663.481	6049.87
663.673	6139.98
663.864	6051.92
664.056	5949.52
664.247	5935.18
664.439	5847.12
664.631	5922.9
664.822	5883.98
665.014	5943.38
665.205	5978.19
665.397	5797.97
665.588	5875.79
665.78	5781.59
665.971	5734.48
666.163	5730.39
666.354	5736.53
666.546	5668.95
666.737	5619.8
666.929	5695.57
667.12	5638.23
667.311	5478.49
667.503	5523.54
667.694	5671
667.885	5558.36
668.077	5462.1
668.268	5496.92
668.459	5474.39
668.651	5455.96
668.842	5265.5
669.033	5199.96
669.224	5302.36
669.416	5335.13
669.607	5425.24
669.798	5111.9
669.989	5431.38
670.18	5179.48
670.371	5226.59
670.563	5093.47
670.754	5384.28
670.945	5199.96
671.136	5193.82
671.327	5140.57
671.518	5111.9
671.709	5226.59
671.9	5070.94
672.091	5253.21
672.282	5259.35
672.473	5015.65
672.664	5017.69
672.855	4952.16
673.046	5144.67
673.237	4950.11
673.428	4905.06
673.619	5095.52
673.809	4991.07
674	4903.01
674.191	4976.73
674.382	4894.82
674.573	4958.3
674.764	4907.1
674.954	4915.3
675.145	4894.82
675.336	4778.08
675.527	4653.16
675.717	4788.32
675.908	4763.75
676.099	4782.18
676.289	4816.99
676.48	4759.65
676.671	4776.03
676.861	4839.52
677.052	4802.66
677.243	4628.58
677.433	4636.77
677.624	4712.55
677.814	4821.09
678.005	4726.88
678.195	4655.2
678.386	4778.08
678.576	4728.93
678.767	4601.96
678.957	4663.4
679.148	4849.76
679.338	4647.01
679.529	4677.73
679.719	4759.65
679.909	4778.08
680.1	4743.27
680.29	4698.21
680.481	4743.27
680.671	4726.88
680.861	4690.02
681.052	4794.47
681.242	4501.61
681.432	4696.16
681.622	4753.51
681.813	4612.2
682.003	4735.07
682.193	4685.92
682.383	4743.27
682.573	4548.71
682.764	4597.86
682.954	4589.67
683.144	4692.07
683.334	4601.96
683.524	4655.2
683.714	4454.5
683.904	4460.65
684.094	4614.24
684.284	4552.81
684.474	4632.68
684.664	4513.89
684.854	4618.34
685.044	4540.52
685.234	4466.79
685.424	4429.93
685.614	4513.89
685.804	4485.22
685.994	4581.48
686.184	4485.22
686.374	4431.98
686.564	4520.04
686.753	4513.89
686.943	4499.56
687.133	4354.15
687.323	4382.82
687.513	4348.01
687.702	4352.1
687.892	4290.67
688.082	4364.39
688.272	4345.96
688.461	4171.88
688.651	4245.61
688.841	4132.97
689.03	4122.73
689.22	4081.77
689.41	4229.23
689.599	4206.7
689.789	4069.48
689.979	4112.49
690.168	4159.6
690.358	4001.9
690.547	4145.26
690.737	4184.17
690.926	4038.77
691.116	3946.61
691.305	4294.76
691.495	3946.61
691.684	4071.53
691.874	4003.95
692.063	3967.09
692.252	3901.55
692.442	3975.28
692.631	3965.04
692.82	3971.18
693.01	3940.46
693.199	4022.38
693.388	3778.67
693.578	3975.28
693.767	3885.17
693.956	3973.23
694.146	3856.5
694.335	3858.54
694.524	3727.47
694.713	3833.97
694.902	3719.28
695.092	3891.31
695.281	3719.28
695.47	3909.74
695.659	3821.68
695.848	3706.99
696.037	3702.9
696.226	3768.43
696.415	3782.77
696.604	3778.67
696.793	3713.14
696.982	3602.55
697.171	3811.44
697.36	3690.61
697.549	3567.73
697.738	3805.3
697.927	3756.15
698.116	3831.92
698.305	3750
698.494	3745.91
698.683	3817.58
698.872	3676.27
699.061	3784.82
699.25	3737.71
699.438	3745.91
699.627	3663.99
699.816	3741.81
700.005	3797.1
700.193	3692.66
700.382	3713.14
700.571	3623.03
700.76	3598.45
700.948	3739.76
701.137	3639.41
701.326	3627.12
701.514	3545.2
701.703	3823.73
701.892	3539.06
702.08	3672.18
702.269	3651.7
702.457	3678.32
702.646	3620.98
702.834	3653.75
703.023	3565.68
703.212	3723.38
703.4	3659.89
703.589	3655.79
703.777	3666.03
703.965	3534.96
704.154	3745.91
704.342	3577.97
704.531	3569.78
704.719	3614.84
704.907	3629.17
705.096	3512.44
705.284	3528.82
705.472	3508.34
705.661	3672.18
705.849	3602.55
706.037	3713.14
706.226	3702.9
706.414	3651.7
706.602	3610.74
706.79	3623.03
706.979	3700.85
707.167	3637.36
707.355	3514.49
707.543	3446.9
707.731	3557.49
707.919	3575.92
708.107	3588.21
708.296	3594.36
708.484	3451
708.672	3723.38
708.86	3530.87
709.048	3610.74
709.236	3655.79
709.424	3565.68
709.612	3586.16
709.8	3633.27
709.988	3672.18
710.176	3616.88
710.364	3717.23
710.551	3661.94
710.739	3520.63
710.927	3731.57
711.115	3489.91
711.303	3721.33
711.491	3559.54
711.679	3510.39
711.866	3647.6
712.054	3639.41
712.242	3709.04
712.43	3745.91
712.617	3657.84
712.805	3659.89
712.993	3698.8
713.181	3475.57
713.368	3598.45
713.556	3684.47
713.744	3620.98
713.931	3762.29
714.119	3586.16
714.306	3739.76
714.494	3719.28
714.682	3618.93
714.869	3649.65
715.057	3633.27
715.244	3684.47
715.432	3698.8
715.619	3676.27
715.807	3588.21
715.994	3668.08
716.182	3426.42
716.369	3600.5
716.556	3704.95
716.744	3680.37
716.931	3618.93
717.119	3706.99
717.306	3661.94
717.493	3672.18
717.681	3684.47
717.868	3795.06
718.055	3563.64
718.242	3655.79
718.43	3760.24
718.617	3647.6
718.804	3641.46
718.991	3670.13
719.179	3627.12
719.366	3610.74
719.553	3670.13
719.74	3594.36
719.927	3557.49
720.114	3700.85
720.301	3553.4
720.488	3680.37
720.676	3590.26
720.863	3741.81
721.05	3795.06
721.237	3702.9
721.424	3655.79
721.611	3516.53
721.798	3573.88
721.985	3504.25
722.172	3627.12
722.358	3692.66
722.545	3580.02
722.732	3680.37
722.919	3616.88
723.106	3606.64
723.293	3598.45
723.48	3534.96
723.667	3631.22
723.853	3594.36
724.04	3655.79
724.227	3410.04
724.414	3528.82
724.6	3547.25
724.787	3631.22
724.974	3704.95
725.161	3717.23
725.347	3401.85
725.534	3596.4
725.72	3502.2
725.907	3553.4
726.094	3659.89
726.28	3446.9
726.467	3475.57
726.653	3508.34
726.84	3598.45
727.027	3616.88
727.213	3567.73
727.4	3577.97
727.586	3516.53
727.773	3694.71
727.959	3557.49
728.145	3530.87
728.332	3571.83
728.518	3526.77
728.705	3549.3
728.891	3584.12
729.077	3551.35
729.264	3407.99
729.45	3502.2
729.636	3537.01
729.823	3512.44
730.009	3526.77
730.195	3553.4
730.382	3467.38
730.568	3381.37
730.754	3455.09
730.94	3532.92
731.126	3489.91
731.313	3573.88
731.499	3448.95
731.685	3532.92
731.871	3487.86
732.057	3598.45
732.243	3496.05
732.429	3457.14
732.615	3483.77
732.801	3424.37
732.987	3467.38
733.173	3502.2
733.359	3297.4
733.545	3405.94
733.731	3389.56
733.917	3407.99
734.103	3453.05
734.289	3485.81
734.475	3377.27
734.661	3549.3
734.847	3311.74
735.033	3393.65
735.219	3434.61
735.404	3481.72
735.59	3399.8
735.776	3272.82
735.962	3410.04
736.148	3477.62
736.333	3405.94
736.519	3254.39
736.705	3272.82
736.89	3260.54
737.076	3410.04
737.262	3393.65
737.447	3420.28
737.633	3225.72
737.819	3385.46
738.004	3149.95
738.19	3268.73
738.375	3176.57
738.561	3451
738.747	3274.87
738.932	3379.32
739.118	3160.19
739.303	3201.15
739.489	3166.33
739.674	3186.81
739.859	3268.73
740.045	3168.38
740.23	3059.84
740.416	3102.84
740.601	3063.93
740.786	3213.43
740.972	3098.75
741.157	3063.93
741.342	3094.65
741.528	3055.74
741.713	2994.3
741.898	2988.16
742.084	3014.78
742.269	3113.08
742.454	2977.92
742.639	2955.39
742.824	2861.18
743.01	3049.6
743.195	3053.69
743.38	2965.63
743.565	2949.25
743.75	3012.73
743.935	2893.95
744.12	2986.11
744.305	2693.25
744.49	2840.7
744.675	3002.49
744.86	2879.61
745.045	2881.66
745.23	2824.32
745.415	2730.11
745.6	2852.99
745.785	2740.35
745.97	2926.72
746.155	2695.3
746.34	2924.67
746.525	2777.22
746.71	2726.02
746.895	2687.11
747.079	2773.12
747.264	2580.61
747.449	2771.07
747.634	2754.69
747.819	2627.71
748.003	2603.14
748.188	2594.95
748.373	2637.95
748.557	2654.34
748.742	2513.03
748.927	2451.59
749.111	2467.97
749.296	2472.07
749.481	2535.56
749.665	2379.91
749.85	2451.59
750.034	2502.79
750.219	2345.09
750.404	2222.22
750.588	2310.28
750.773	2236.55
750.957	2326.66
751.141	2261.13
751.326	2242.7
751.51	2355.33
751.695	2207.88
751.879	2226.31
752.064	2261.13
752.248	2369.67
752.432	2267.27
752.617	2171.02
752.801	2185.35
752.985	2128.01
753.17	2117.77
753.354	2191.5
753.538	2068.62
753.722	1998.99
753.907	2134.15
754.091	2025.61
754.275	1955.98
754.459	2076.81
754.643	1984.65
754.828	2177.16
755.012	1931.41
755.196	1886.35
755.38	1910.93
755.564	2033.8
755.748	1996.94
755.932	1960.08
756.116	1865.87
756.3	1894.54
756.484	1915.02
756.668	1804.43
756.852	1831.05
757.036	1861.77
757.22	1781.9
757.404	1745.04
757.588	1779.86
757.772	1808.53
757.956	1716.37
758.14	1919.12
758.323	1704.08
758.507	1724.56
758.691	1689.74
758.875	1759.38
759.059	1640.59
759.242	1667.22
759.426	1605.78
759.61	1648.79
759.794	1656.98
759.977	1591.44
760.161	1706.13
760.345	1736.85
760.528	1620.11
760.712	1654.93
760.895	1581.2
761.079	1583.25
761.263	1452.18
761.446	1515.67
761.63	1530
761.813	1507.48
761.997	1505.43
762.18	1460.37
762.364	1622.16
762.547	1517.72
762.731	1554.58
762.914	1407.13
763.098	1460.37
763.281	1517.72
763.464	1517.72
763.648	1560.72
763.831	1415.32
764.015	1370.26
764.198	1509.52
764.381	1435.8
764.564	1536.15
764.748	1290.39
764.931	1460.37
765.114	1423.51
765.297	1415.32
765.481	1403.03
765.664	1405.08
765.847	1345.69
766.03	1411.22
766.213	1280.15
766.397	1347.73
766.58	1290.39
766.763	1300.63
766.946	1398.93
767.129	1304.73
767.312	1302.68
767.495	1327.25
767.678	1327.25
767.861	1243.29
768.044	1296.53
768.227	1321.11
768.41	1314.97
768.593	1228.95
768.776	1362.07
768.959	1171.61
769.142	1173.66
769.324	1161.37
769.507	1181.85
769.69	1147.03
769.873	1226.9
770.056	1130.65
770.239	1245.34
770.421	1241.24
770.604	1112.22
770.787	1149.08
770.97	1196.18
771.152	1073.31
771.335	1179.8
771.518	1208.47
771.7	1167.51
771.883	1183.9
772.066	1147.03
772.248	1073.31
772.431	1081.5
772.613	1124.51
772.796	1120.41
772.978	1075.35
773.161	1216.66
773.343	1063.07
773.526	1075.35
773.708	1118.36
773.891	1007.77
774.073	1001.63
774.256	1034.39
774.438	1116.31
774.621	1075.35
774.803	1081.5
774.985	1067.16
775.168	1001.63
775.35	962.72
775.532	1022.11
775.715	913.56
775.897	1018.01
776.079	958.62
776.261	938.14
776.444	907.42
776.626	829.6
776.808	927.9
776.99	825.5
777.173	927.9
777.355	907.42
777.537	915.61
777.719	905.37
777.901	934.04
778.083	815.26
778.265	876.7
778.447	880.8
778.629	825.5
778.811	940.19
778.993	878.75
779.175	835.74
779.357	852.13
779.539	821.41
779.721	858.27
779.903	911.52
780.085	811.17
780.267	737.44
780.449	716.96
780.631	788.64
780.812	721.06
780.994	766.11
781.176	700.58
781.358	800.93
781.54	698.53
781.721	690.34
781.903	725.15
782.085	723.1
782.267	788.64
782.448	684.19
782.63	694.43
782.812	739.49
782.993	690.34
783.175	749.73
783.357	614.56
783.538	673.95
783.72	737.44
783.901	616.61
784.083	549.03
784.264	686.24
784.446	620.71
784.627	698.53
784.809	604.32
784.99	592.03
785.172	604.32
785.353	612.51
785.535	651.42
785.716	583.84
785.897	512.16
786.079	585.89
786.26	645.28
786.441	510.11
786.623	534.69
786.804	514.21
786.985	575.65
787.167	540.83
787.348	555.17
787.529	520.35
787.71	667.81
787.891	506.02
788.073	561.31
788.254	485.54
788.435	575.65
788.616	485.54
788.797	581.79
788.978	514.21
789.159	557.22
789.34	589.99
789.522	499.88
789.703	485.54
789.884	467.11
790.065	436.39
790.246	553.12
790.427	401.57
790.607	520.35
790.788	485.54
790.969	499.88
791.15	512.16
791.331	510.11
791.512	430.24
791.693	405.67
791.874	430.24
792.054	485.54
792.235	389.28
792.416	448.68
792.597	405.67
792.778	428.2
792.958	452.77
793.139	407.72
793.32	465.06
793.5	483.49
793.681	520.35
793.862	356.52
794.042	362.66
794.223	374.95
794.404	307.37
794.584	481.44
794.765	428.2
794.945	350.37
795.126	401.57
795.306	479.4
795.487	407.72
795.667	372.9
795.848	374.95
796.028	364.71
796.209	362.66
796.389	420
796.57	350.37
796.75	305.32
796.93	358.57
797.111	329.89
797.291	385.19
797.471	403.62
797.652	327.85
797.832	385.19
798.012	381.09
798.192	370.85
798.373	319.65
798.553	295.08
798.733	336.04
798.913	346.28
799.093	383.14
799.274	377
799.454	360.61
799.634	399.52
799.814	295.08
799.994	356.52
800.174	266.41
800.354	342.18
800.534	301.22
800.714	346.28
800.894	309.41
801.074	319.65
801.254	342.18
801.434	313.51
801.614	254.12
801.794	299.17
801.974	733.34
802.154	260.26
802.334	301.22
802.514	272.55
802.693	213.16
802.873	252.07
803.053	331.94
803.233	403.62
803.413	260.26
803.592	264.36
803.772	387.24
803.952	268.45
804.131	309.41
804.311	370.85
804.491	311.46
804.67	270.5
804.85	305.32
805.03	305.32
805.209	329.89
805.389	346.28
805.568	274.6
805.748	202.92
805.928	215.21
806.107	274.6
806.287	258.21
806.466	284.84
806.646	200.87
806.825	237.74
807.004	200.87
807.184	270.5
807.363	313.51
807.543	266.41
807.722	233.64
807.901	338.09
808.081	245.93
808.26	149.67
808.439	262.31
808.619	239.78
808.798	194.73
808.977	231.59
809.156	260.26
809.336	247.97
809.515	297.13
809.694	278.69
809.873	264.36
810.052	266.41
810.231	252.07
810.411	233.64
810.59	245.93
810.769	278.69
810.948	276.65
811.127	157.86
811.306	333.99
811.485	172.2
811.664	280.74
811.843	170.15
812.022	233.64
812.201	141.48
812.38	147.62
812.559	215.21
812.737	231.59
812.916	245.93
813.095	133.29
813.274	182.44
813.453	207.02
813.632	182.44
813.811	223.4
813.989	196.78
814.168	231.59
814.347	186.54
814.526	174.25
814.704	213.16
814.883	247.97
815.062	108.71
815.24	184.49
815.419	143.53
815.598	196.78
815.776	155.82
815.955	264.36
816.133	121
816.312	166.06
816.49	129.19
816.669	204.97
816.847	155.82
817.026	227.5
817.204	254.12
817.383	137.38
817.561	104.62
817.74	192.68
817.918	127.14
818.097	118.95
818.275	180.39
818.453	94.38
818.632	241.83
818.81	108.71
818.988	204.97
819.167	174.25
819.345	161.96
819.523	174.25
819.701	108.71
819.879	151.72
820.058	127.14
820.236	188.58
820.414	211.11
820.592	207.02
820.77	131.24
820.948	151.72
821.127	121
821.305	225.45
821.483	198.82
821.661	137.38
821.839	129.19
822.017	135.34
822.195	149.67
822.373	178.34
822.551	121
822.729	137.38
822.907	100.52
823.085	211.11
823.262	90.28
823.44	151.72
823.618	164.01
823.796	170.15
823.974	176.3
824.152	143.53
824.329	125.1
824.507	135.34
824.685	106.67
824.863	198.82
825.04	139.43
825.218	159.91
825.396	118.95
825.574	63.66
825.751	84.14
825.929	170.15
826.107	104.62
826.284	145.58
826.462	121
826.639	125.1
826.817	59.56
826.994	180.39
827.172	112.81
827.349	141.48
827.527	194.73
827.704	100.52
827.882	157.86
828.059	116.9
828.237	65.71
828.414	141.48
828.591	108.71
828.769	157.86
828.946	100.52
829.124	41.13
829.301	135.34
829.478	108.71
829.655	96.43
829.833	149.67
830.01	100.52
830.187	143.53
830.364	196.78
830.542	92.33
830.719	86.19
830.896	67.75
831.073	65.71
831.25	133.29
831.427	104.62
831.604	39.08
831.782	182.44
831.959	86.19
832.136	178.34
832.313	49.32
832.49	6.31
832.667	90.28
832.844	51.37
833.021	98.47
833.198	149.67
833.374	80.04
833.551	174.25
833.728	49.32
833.905	168.1
834.082	129.19
834.259	90.28
834.436	102.57
834.612	51.37
834.789	139.43
834.966	80.04
835.143	90.28
835.319	12.46
835.496	59.56
835.673	196.78
835.85	133.29
836.026	16.55
836.203	121
836.38	90.28
836.556	112.81
836.733	22.7
836.909	145.58
837.086	73.9
837.262	37.03
837.439	84.14
837.616	61.61
837.792	129.19
837.968	151.72
838.145	110.76
838.321	110.76
838.498	112.81
838.674	133.29
838.851	80.04
839.027	59.56
839.203	67.75
839.38	176.3
839.556	104.62
839.732	63.66
839.909	49.32
840.085	41.13
840.261	98.47
840.437	43.18
840.614	47.27
840.79	94.38
840.966	65.71
841.142	125.1
841.318	43.18
841.494	168.1
841.671	188.58
841.847	82.09
842.023	16.55
842.199	51.37
842.375	92.33
842.551	34.99
842.727	10.41
842.903	110.76
843.079	16.55
843.255	110.76
843.431	18.6
843.607	45.23
843.783	34.99
843.959	59.56
844.134	43.18
844.31	47.27
844.486	77.99
844.662	37.03
844.838	4.27
845.013	73.9
845.189	16.55
845.365	18.6
845.541	59.56
845.716	102.57
845.892	143.53
846.068	65.71
846.244	118.95
846.419	-28.5
846.595	41.13
846.77	41.13
846.946	53.42
847.122	112.81
847.297	2.22
847.473	104.62
847.648	22.7
847.824	69.8
847.999	51.37
848.175	67.75
848.35	71.85
848.526	18.6
848.701	121
848.876	-16.21
849.052	90.28
849.227	-1.88
849.403	12.46
849.578	2.22
849.753	51.37
849.929	75.95
850.104	55.47
850.279	47.27
850.454	51.37
850.63	147.62
850.805	75.95
850.98	82.09
851.155	57.51
851.33	-32.6
851.505	22.7
851.681	129.19
851.856	51.37
852.031	88.23
852.206	-30.55
852.381	0.17
852.556	-14.17
852.731	82.09
852.906	47.27
853.081	22.7
853.256	80.04
853.431	53.42
853.606	34.99
853.781	14.51
853.956	-8.02
854.131	41.13
854.305	45.23
854.48	12.46
854.655	49.32
854.83	10.41
855.005	-26.45
855.18	-48.98
855.354	59.56
855.529	41.13
855.704	47.27
855.879	51.37
856.053	-22.36
856.228	-63.32
856.403	10.41
856.577	30.89
856.752	-26.45
856.926	16.55
857.101	69.8
857.276	-3.93
857.45	92.33
857.625	88.23
857.799	43.18
857.974	8.36
858.148	118.95
858.323	37.03
858.497	2.22
858.672	26.79
858.846	6.31
859.02	51.37
859.195	43.18
859.369	-18.26
859.543	-24.4
859.718	32.94
859.892	-26.45
860.066	106.67
860.241	28.84
860.415	53.42
860.589	59.56
860.763	26.79
860.938	6.31
861.112	-16.21
861.286	-65.36
861.46	37.03
861.634	-5.97
861.808	30.89
861.982	-22.36
862.157	4.27
862.331	22.7
862.505	-36.69
862.679	26.79
862.853	135.34
863.027	65.71
863.201	125.1
863.375	102.57
863.549	43.18
863.722	12.46
863.896	14.51
864.07	32.94
864.244	47.27
864.418	26.79
864.592	6.31
864.766	12.46
864.939	34.99
865.113	18.6
865.287	43.18
865.461	30.89
865.634	-1.88
865.808	-46.93
865.982	18.6
866.156	47.27
866.329	14.51
866.503	34.99
866.676	63.66
866.85	77.99
867.024	-5.97
867.197	18.6
867.371	73.9
867.544	20.65
867.718	16.55
867.891	49.32
868.065	-108.37
868.238	-55.12
868.412	80.04
868.585	14.51
868.759	30.89
868.932	-69.46
869.105	51.37
869.279	-55.12
869.452	-16.21
869.625	55.47
869.799	-26.45
869.972	10.41
870.145	84.14
870.319	12.46
870.492	59.56
870.665	14.51
870.838	18.6
871.011	-24.4
871.185	-51.03
871.358	24.75
871.531	80.04
871.704	49.32
871.877	30.89
872.05	32.94
872.223	-24.4
872.396	-46.93
872.569	-1.88
872.742	-1.88
872.915	2.22
873.088	-28.5
873.261	-22.36
873.434	34.99
873.607	-55.12
873.78	14.51
873.953	-44.88
874.126	-5.97
874.299	24.75
874.471	-57.17
874.644	-26.45
874.817	32.94
874.99	26.79
875.163	-22.36
875.335	80.04
875.508	-34.64
875.681	65.71
875.853	-42.84
876.026	-34.64
876.199	-5.97
876.371	67.75
876.544	10.41
876.717	30.89
876.889	-42.84
877.062	92.33
877.234	51.37
877.407	-22.36
877.579	-36.69
877.752	71.85
877.924	43.18
878.097	84.14
878.269	34.99
878.442	-8.02
878.614	18.6
878.786	-22.36
878.959	-61.27
879.131	18.6
879.303	73.9
879.476	26.79
879.648	12.46
879.82	-18.26
879.993	34.99
880.165	20.65
880.337	32.94
880.509	61.61
880.681	26.79
880.854	39.08
881.026	28.84
881.198	-14.17
881.37	51.37
881.542	49.32
881.714	-48.98
881.886	59.56
882.058	24.75
882.23	41.13
882.402	20.65
882.574	16.55
882.746	2.22
882.918	32.94
883.09	26.79
883.262	16.55
883.434	0.17
883.606	-1.88
883.778	-38.74
883.95	75.95
884.122	43.18
884.293	-24.4
884.465	84.14
884.637	-3.93
884.809	2.22
884.98	63.66
885.152	32.94
885.324	39.08
885.496	37.03
885.667	-8.02
885.839	-81.75
886.011	32.94
886.182	90.28
886.354	-42.84
886.525	-55.12
886.697	39.08
886.869	16.55
887.04	51.37
887.212	-24.4
887.383	100.52
887.555	10.41
887.726	-32.6
887.897	49.32
888.069	-16.21
888.24	59.56
888.412	-32.6
888.583	8.36
888.754	8.36
888.926	-5.97
889.097	-36.69
889.268	-24.4
889.44	75.95
889.611	-42.84
889.782	10.41
889.953	39.08
890.125	77.99
890.296	6.31
890.467	4.27
890.638	-5.97
890.809	-24.4
890.98	10.41
891.151	-22.36
891.323	49.32
891.494	26.79
891.665	28.84
891.836	63.66
892.007	-71.51
892.178	-1.88
892.349	-59.22
892.52	18.6
892.691	-1.88
892.862	8.36
893.032	10.41
893.203	-24.4
893.374	-26.45
893.545	-26.45
893.716	-91.99
893.887	28.84
894.057	-36.69
894.228	-24.4
894.399	-30.55
894.57	12.46
894.74	-87.89
894.911	18.6
895.082	-30.55
895.253	6.31
895.423	-10.07
895.594	75.95
895.764	47.27
895.935	55.47
896.106	84.14
896.276	34.99
896.447	-71.51
896.617	-5.97
896.788	-10.07
896.958	-34.64
897.129	-16.21
897.299	6.31
897.47	-8.02
897.64	61.61
897.81	2.22
897.981	71.85
898.151	39.08
898.322	28.84
898.492	-61.27
898.662	-18.26
898.832	-53.08
899.003	-42.84
899.173	-22.36
899.343	4.27
899.513	-53.08
