Data from USB4F104151__46__10-23-07-487.txt Node

Date: Wed Mar 12 10:23:07 EDT 2025
User: louis
Spectrometer: USB4F10415
Trigger mode: 4
Integration Time (sec): 3.000000E-2
Scans to average: 1
Electric dark correction enabled: true
Nonlinearity correction enabled: false
Boxcar width: 0
XAxis mode: Wavelengths
Number of Pixels in Spectrum: 3648
>>>>>Begin Spectral Data<<<<<
178.204	-72.19
178.424	-72.19
178.644	-72.19
178.864	-174.59
179.084	-119.29
179.304	-70.14
179.524	15.87
179.744	26.11
179.964	42.5
180.184	3.58
180.404	-10.75
180.624	1.54
180.844	19.97
181.064	-84.48
181.283	15.87
181.503	36.35
181.723	3.58
181.943	11.78
182.163	60.93
182.383	-23.04
182.602	13.82
182.822	89.6
183.042	-12.8
183.262	11.78
183.482	28.16
183.701	79.36
183.921	-14.85
184.141	-25.09
184.361	118.27
184.58	112.13
184.8	19.97
185.02	-14.85
185.239	60.93
185.459	40.45
185.679	30.21
185.898	-92.67
186.118	-64
186.338	-31.23
186.557	19.97
186.777	17.92
186.997	-6.66
187.216	26.11
187.436	36.35
187.655	58.88
187.875	62.98
188.095	36.35
188.314	89.6
188.534	87.55
188.753	71.17
188.973	15.87
189.192	130.56
189.412	11.78
189.631	48.64
189.851	71.17
190.07	56.83
190.29	26.11
190.509	5.63
190.729	58.88
190.948	67.07
191.168	140.8
191.387	48.64
191.607	22.02
191.826	9.73
192.045	-12.8
192.265	38.4
192.484	95.74
192.704	-8.7
192.923	-49.66
193.142	83.45
193.362	67.07
193.581	19.97
193.8	44.54
194.02	62.98
194.239	-37.38
194.458	-31.23
194.678	48.64
194.897	81.41
195.116	19.97
195.335	-12.8
195.555	3.58
195.774	40.45
195.993	-8.7
196.212	-92.67
196.432	-2.56
196.651	65.02
196.87	-70.14
197.089	79.36
197.308	110.08
197.528	11.78
197.747	34.3
197.966	77.31
198.185	1.54
198.404	54.78
198.623	62.98
198.842	17.92
199.062	-18.94
199.281	85.5
199.5	-2.56
199.719	24.06
199.938	67.07
200.157	34.3
200.376	58.88
200.595	19.97
200.814	69.12
201.033	5.63
201.252	-20.99
201.471	87.55
201.69	105.98
201.909	42.5
202.128	58.88
202.347	38.4
202.566	-72.19
202.785	19.97
203.004	-2.56
203.223	19.97
203.442	30.21
203.661	1.54
203.879	34.3
204.098	22.02
204.317	-0.51
204.536	-6.66
204.755	85.5
204.974	54.78
205.193	17.92
205.411	52.74
205.63	60.93
205.849	71.17
206.068	-10.75
206.287	32.26
206.505	58.88
206.724	30.21
206.943	46.59
207.162	-2.56
207.381	34.3
207.599	9.73
207.818	11.78
208.037	-12.8
208.255	-16.9
208.474	11.78
208.693	46.59
208.911	3.58
209.13	42.5
209.349	34.3
209.567	17.92
209.786	83.45
210.005	112.13
210.223	-8.7
210.442	7.68
210.661	24.06
210.879	36.35
211.098	34.3
211.316	-2.56
211.535	112.13
211.753	36.35
211.972	50.69
212.191	46.59
212.409	52.74
212.628	3.58
212.846	38.4
213.065	54.78
213.283	79.36
213.502	-18.94
213.72	9.73
213.938	30.21
214.157	17.92
214.375	42.5
214.594	-16.9
214.812	40.45
215.031	128.51
215.249	62.98
215.467	11.78
215.686	77.31
215.904	26.11
216.122	46.59
216.341	56.83
216.559	5.63
216.778	5.63
216.996	19.97
217.214	97.79
217.432	60.93
217.651	28.16
217.869	13.82
218.087	-12.8
218.306	-10.75
218.524	69.12
218.742	103.93
218.96	13.82
219.179	52.74
219.397	34.3
219.615	24.06
219.833	22.02
220.051	40.45
220.27	46.59
220.488	-14.85
220.706	71.17
220.924	48.64
221.142	65.02
221.36	44.54
221.578	1.54
221.796	11.78
222.015	5.63
222.233	24.06
222.451	34.3
222.669	50.69
222.887	13.82
223.105	17.92
223.323	5.63
223.541	-20.99
223.759	13.82
223.977	22.02
224.195	36.35
224.413	91.65
224.631	-2.56
224.849	17.92
225.067	161.28
225.285	60.93
225.503	44.54
225.721	-14.85
225.939	13.82
226.157	-27.14
226.375	38.4
226.592	26.11
226.81	60.93
227.028	-6.66
227.246	3.58
227.464	81.41
227.682	95.74
227.9	73.21
228.117	13.82
228.335	181.76
228.553	44.54
228.771	50.69
228.989	9.73
229.206	87.55
229.424	67.07
229.642	46.59
229.86	34.3
230.077	112.13
230.295	54.78
230.513	97.79
230.731	142.85
230.948	32.26
231.166	1.54
231.384	-8.7
231.601	1.54
231.819	114.17
232.037	-25.09
232.254	34.3
232.472	54.78
232.689	3.58
232.907	62.98
233.125	3.58
233.342	3.58
233.56	9.73
233.777	3.58
233.995	-31.23
234.213	87.55
234.43	48.64
234.648	56.83
234.865	-37.38
235.083	36.35
235.3	-12.8
235.518	-8.7
235.735	32.26
235.953	83.45
236.17	-2.56
236.388	65.02
236.605	-10.75
236.822	85.5
237.04	54.78
237.257	-2.56
237.475	-23.04
237.692	54.78
237.909	67.07
238.127	-0.51
238.344	50.69
238.562	-4.61
238.779	30.21
238.996	13.82
239.214	40.45
239.431	36.35
239.648	-33.28
239.865	13.82
240.083	38.4
240.3	26.11
240.517	-2.56
240.735	69.12
240.952	87.55
241.169	36.35
241.386	95.74
241.603	3.58
241.821	54.78
242.038	44.54
242.255	95.74
242.472	26.11
242.689	83.45
242.907	79.36
243.124	73.21
243.341	34.3
243.558	13.82
243.775	13.82
243.992	17.92
244.209	77.31
244.426	5.63
244.643	54.78
244.86	13.82
245.078	3.58
245.295	99.84
245.512	17.92
245.729	62.98
245.946	79.36
246.163	22.02
246.38	138.75
246.597	60.93
246.814	-6.66
247.031	83.45
247.248	99.84
247.464	120.32
247.681	-12.8
247.898	30.21
248.115	85.5
248.332	-0.51
248.549	77.31
248.766	99.84
248.983	48.64
249.2	15.87
249.417	28.16
249.633	77.31
249.85	60.93
250.067	79.36
250.284	38.4
250.501	54.78
250.717	46.59
250.934	22.02
251.151	-35.33
251.368	54.78
251.585	65.02
251.801	62.98
252.018	42.5
252.235	13.82
252.451	-6.66
252.668	30.21
252.885	108.03
253.102	34.3
253.318	108.03
253.535	22.02
253.752	-8.7
253.968	34.3
254.185	-33.28
254.401	-14.85
254.618	81.41
254.835	44.54
255.051	116.22
255.268	34.3
255.484	1.54
255.701	62.98
255.917	81.41
256.134	1.54
256.351	62.98
256.567	3.58
256.784	32.26
257	11.78
257.217	112.13
257.433	52.74
257.65	95.74
257.866	34.3
258.082	-64
258.299	-2.56
258.515	60.93
258.732	52.74
258.948	3.58
259.165	36.35
259.381	62.98
259.597	-41.47
259.814	38.4
260.03	60.93
260.246	-20.99
260.463	60.93
260.679	13.82
260.895	1.54
261.112	83.45
261.328	5.63
261.544	56.83
261.761	118.27
261.977	38.4
262.193	65.02
262.409	95.74
262.626	58.88
262.842	34.3
263.058	13.82
263.274	11.78
263.49	67.07
263.707	89.6
263.923	15.87
264.139	9.73
264.355	28.16
264.571	77.31
264.787	11.78
265.004	54.78
265.22	-68.09
265.436	22.02
265.652	67.07
265.868	46.59
266.084	-43.52
266.3	65.02
266.516	-10.75
266.732	38.4
266.948	101.89
267.164	95.74
267.38	79.36
267.596	34.3
267.812	58.88
268.028	69.12
268.244	54.78
268.46	60.93
268.676	26.11
268.892	34.3
269.108	52.74
269.324	-10.75
269.54	36.35
269.756	17.92
269.972	-31.23
270.188	42.5
270.403	-25.09
270.619	-14.85
270.835	40.45
271.051	81.41
271.267	26.11
271.483	60.93
271.698	3.58
271.914	75.26
272.13	58.88
272.346	32.26
272.562	-33.28
272.777	19.97
272.993	95.74
273.209	30.21
273.425	67.07
273.64	-18.94
273.856	95.74
274.072	19.97
274.287	65.02
274.503	44.54
274.719	30.21
274.934	52.74
275.15	44.54
275.366	-6.66
275.581	5.63
275.797	30.21
276.012	30.21
276.228	-0.51
276.444	75.26
276.659	50.69
276.875	5.63
277.09	46.59
277.306	26.11
277.521	44.54
277.737	15.87
277.952	62.98
278.168	87.55
278.383	22.02
278.599	-2.56
278.814	81.41
279.03	54.78
279.245	38.4
279.461	44.54
279.676	87.55
279.892	110.08
280.107	-0.51
280.322	-25.09
280.538	62.98
280.753	54.78
280.969	79.36
281.184	-2.56
281.399	36.35
281.615	71.17
281.83	-61.95
282.045	13.82
282.26	-2.56
282.476	9.73
282.691	46.59
282.906	-0.51
283.122	26.11
283.337	50.69
283.552	60.93
283.767	13.82
283.983	99.84
284.198	26.11
284.413	56.83
284.628	-29.18
284.843	-6.66
285.058	50.69
285.274	17.92
285.489	40.45
285.704	11.78
285.919	30.21
286.134	13.82
286.349	1.54
286.564	-14.85
286.779	-4.61
286.995	95.74
287.21	36.35
287.425	48.64
287.64	95.74
287.855	77.31
288.07	-12.8
288.285	153.09
288.5	38.4
288.715	-6.66
288.93	-4.61
289.145	30.21
289.36	40.45
289.575	54.78
289.79	62.98
290.004	34.3
290.219	48.64
290.434	13.82
290.649	50.69
290.864	62.98
291.079	11.78
291.294	32.26
291.509	-2.56
291.724	-8.7
291.938	54.78
292.153	3.58
292.368	9.73
292.583	-12.8
292.798	65.02
293.012	101.89
293.227	62.98
293.442	58.88
293.657	54.78
293.871	17.92
294.086	85.5
294.301	97.79
294.516	89.6
294.73	60.93
294.945	-43.52
295.16	105.98
295.374	28.16
295.589	56.83
295.804	52.74
296.018	85.5
296.233	54.78
296.447	81.41
296.662	-18.94
296.877	81.41
297.091	56.83
297.306	60.93
297.52	71.17
297.735	32.26
297.949	42.5
298.164	75.26
298.378	42.5
298.593	17.92
298.807	22.02
299.022	40.45
299.236	1.54
299.451	81.41
299.665	36.35
299.88	38.4
300.094	50.69
300.309	71.17
300.523	52.74
300.737	42.5
300.952	79.36
301.166	9.73
301.381	54.78
301.595	28.16
301.809	48.64
302.024	26.11
302.238	-25.09
302.452	48.64
302.667	9.73
302.881	75.26
303.095	22.02
303.309	-47.62
303.524	-2.56
303.738	50.69
303.952	28.16
304.166	50.69
304.381	-43.52
304.595	101.89
304.809	89.6
305.023	54.78
305.237	19.97
305.452	34.3
305.666	65.02
305.88	56.83
306.094	-14.85
306.308	93.69
306.522	73.21
306.736	48.64
306.95	54.78
307.164	38.4
307.379	71.17
307.593	79.36
307.807	77.31
308.021	-14.85
308.235	42.5
308.449	103.93
308.663	-8.7
308.877	32.26
309.091	58.88
309.305	52.74
309.519	-51.71
309.733	50.69
309.947	60.93
310.161	91.65
310.374	75.26
310.588	34.3
310.802	38.4
311.016	-14.85
311.23	38.4
311.444	17.92
311.658	-25.09
311.872	85.5
312.085	155.13
312.299	77.31
312.513	-2.56
312.727	40.45
312.941	50.69
313.154	87.55
313.368	38.4
313.582	101.89
313.796	60.93
314.009	34.3
314.223	46.59
314.437	17.92
314.651	130.56
314.864	93.69
315.078	30.21
315.292	24.06
315.505	32.26
315.719	112.13
315.933	30.21
316.146	19.97
316.36	34.3
316.573	71.17
316.787	9.73
317.001	7.68
317.214	28.16
317.428	52.74
317.641	7.68
317.855	71.17
318.068	110.08
318.282	79.36
318.495	79.36
318.709	30.21
318.922	40.45
319.136	89.6
319.349	60.93
319.563	3.58
319.776	46.59
319.99	17.92
320.203	54.78
320.417	34.3
320.63	58.88
320.843	65.02
321.057	22.02
321.27	11.78
321.483	30.21
321.697	91.65
321.91	9.73
322.124	40.45
322.337	85.5
322.55	44.54
322.763	-2.56
322.977	69.12
323.19	62.98
323.403	54.78
323.617	28.16
323.83	114.17
324.043	40.45
324.256	24.06
324.469	58.88
324.683	169.47
324.896	85.5
325.109	50.69
325.322	-29.18
325.535	79.36
325.748	71.17
325.962	-10.75
326.175	52.74
326.388	69.12
326.601	183.81
326.814	48.64
327.027	67.07
327.24	101.89
327.453	28.16
327.666	26.11
327.879	112.13
328.092	124.41
328.305	-18.94
328.518	-41.47
328.731	-4.61
328.944	60.93
329.157	62.98
329.37	69.12
329.583	153.09
329.796	54.78
330.009	-43.52
330.222	91.65
330.435	79.36
330.648	60.93
330.861	71.17
331.073	87.55
331.286	38.4
331.499	40.45
331.712	-35.33
331.925	62.98
332.138	62.98
332.35	60.93
332.563	56.83
332.776	17.92
332.989	26.11
333.202	75.26
333.414	56.83
333.627	114.17
333.84	-12.8
334.053	60.93
334.265	-14.85
334.478	19.97
334.691	-10.75
334.903	118.27
335.116	13.82
335.329	44.54
335.541	69.12
335.754	60.93
335.966	-14.85
336.179	42.5
336.392	44.54
336.604	-6.66
336.817	30.21
337.029	22.02
337.242	-20.99
337.454	48.64
337.667	48.64
337.88	101.89
338.092	140.8
338.305	48.64
338.517	5.63
338.729	38.4
338.942	22.02
339.154	60.93
339.367	42.5
339.579	71.17
339.792	77.31
340.004	110.08
340.217	46.59
340.429	-10.75
340.641	11.78
340.854	-27.14
341.066	54.78
341.278	71.17
341.491	120.32
341.703	34.3
341.915	-39.42
342.128	11.78
342.34	54.78
342.552	-4.61
342.764	11.78
342.977	103.93
343.189	67.07
343.401	71.17
343.613	-70.14
343.826	56.83
344.038	28.16
344.25	30.21
344.462	19.97
344.674	108.03
344.886	87.55
345.099	93.69
345.311	54.78
345.523	15.87
345.735	-37.38
345.947	73.21
346.159	15.87
346.371	1.54
346.583	-14.85
346.795	69.12
347.007	22.02
347.219	48.64
347.431	56.83
347.643	79.36
347.855	-39.42
348.067	91.65
348.279	54.78
348.491	17.92
348.703	77.31
348.915	58.88
349.127	38.4
349.339	54.78
349.551	-53.76
349.763	95.74
349.975	1.54
350.187	151.04
350.399	54.78
350.61	30.21
350.822	67.07
351.034	30.21
351.246	40.45
351.458	128.51
351.669	65.02
351.881	79.36
352.093	81.41
352.305	116.22
352.517	87.55
352.728	91.65
352.94	79.36
353.152	38.4
353.363	-4.61
353.575	5.63
353.787	77.31
353.999	19.97
354.21	153.09
354.422	50.69
354.633	36.35
354.845	85.5
355.057	17.92
355.268	67.07
355.48	103.93
355.692	50.69
355.903	83.45
356.115	93.69
356.326	67.07
356.538	95.74
356.749	24.06
356.961	108.03
357.172	3.58
357.384	-4.61
357.595	185.85
357.807	87.55
358.018	120.32
358.23	79.36
358.441	136.7
358.653	22.02
358.864	34.3
359.075	97.79
359.287	44.54
359.498	71.17
359.709	62.98
359.921	-35.33
360.132	34.3
360.344	71.17
360.555	56.83
360.766	9.73
360.977	46.59
361.189	87.55
361.4	-12.8
361.611	110.08
361.823	116.22
362.034	34.3
362.245	-2.56
362.456	22.02
362.667	93.69
362.879	73.21
363.09	77.31
363.301	44.54
363.512	58.88
363.723	42.5
363.935	103.93
364.146	81.41
364.357	83.45
364.568	48.64
364.779	1.54
364.99	42.5
365.201	81.41
365.412	91.65
365.623	81.41
365.834	89.6
366.045	118.27
366.256	30.21
366.467	36.35
366.678	83.45
366.889	26.11
367.1	71.17
367.311	73.21
367.522	13.82
367.733	7.68
367.944	83.45
368.155	79.36
368.366	146.94
368.577	77.31
368.788	67.07
368.999	-41.47
369.209	91.65
369.42	75.26
369.631	130.56
369.842	30.21
370.053	62.98
370.264	108.03
370.474	3.58
370.685	50.69
370.896	54.78
371.107	95.74
371.317	89.6
371.528	101.89
371.739	83.45
371.95	89.6
372.16	79.36
372.371	52.74
372.582	60.93
372.792	5.63
373.003	95.74
373.214	54.78
373.424	157.18
373.635	-4.61
373.846	89.6
374.056	75.26
374.267	58.88
374.477	87.55
374.688	11.78
374.898	118.27
375.109	28.16
375.319	67.07
375.53	148.99
375.74	89.6
375.951	38.4
376.161	67.07
376.372	85.5
376.582	34.3
376.793	28.16
377.003	7.68
377.214	50.69
377.424	75.26
377.635	19.97
377.845	5.63
378.055	95.74
378.266	24.06
378.476	17.92
378.686	71.17
378.897	99.84
379.107	69.12
379.317	22.02
379.528	13.82
379.738	60.93
379.948	17.92
380.158	69.12
380.369	3.58
380.579	52.74
380.789	38.4
380.999	103.93
381.21	38.4
381.42	112.13
381.63	5.63
381.84	95.74
382.05	46.59
382.261	101.89
382.471	124.41
382.681	50.69
382.891	142.85
383.101	32.26
383.311	54.78
383.521	126.46
383.731	97.79
383.941	146.94
384.151	116.22
384.361	15.87
384.571	112.13
384.781	153.09
384.991	60.93
385.201	69.12
385.411	112.13
385.621	62.98
385.831	69.12
386.041	140.8
386.251	71.17
386.461	73.21
386.671	54.78
386.881	67.07
387.091	126.46
387.301	95.74
387.511	87.55
387.72	5.63
387.93	105.98
388.14	30.21
388.35	75.26
388.56	71.17
388.769	58.88
388.979	77.31
389.189	54.78
389.399	-39.42
389.609	22.02
389.818	60.93
390.028	19.97
390.238	13.82
390.447	13.82
390.657	112.13
390.867	62.98
391.076	103.93
391.286	71.17
391.496	67.07
391.705	108.03
391.915	40.45
392.125	89.6
392.334	75.26
392.544	103.93
392.753	89.6
392.963	95.74
393.172	126.46
393.382	48.64
393.591	95.74
393.801	85.5
394.01	26.11
394.22	97.79
394.429	83.45
394.639	91.65
394.848	79.36
395.058	120.32
395.267	87.55
395.477	79.36
395.686	79.36
395.895	132.61
396.105	153.09
396.314	175.61
396.524	83.45
396.733	50.69
396.942	116.22
397.152	136.7
397.361	128.51
397.57	177.66
397.78	71.17
397.989	89.6
398.198	192
398.407	120.32
398.617	177.66
398.826	60.93
399.035	126.46
399.244	83.45
399.453	112.13
399.663	103.93
399.872	132.61
400.081	69.12
400.29	103.93
400.499	95.74
400.708	241.15
400.917	62.98
401.127	194.05
401.336	124.41
401.545	108.03
401.754	255.48
401.963	110.08
402.172	110.08
402.381	83.45
402.59	210.43
402.799	239.1
403.008	120.32
403.217	146.94
403.426	128.51
403.635	83.45
403.844	192
404.053	177.66
404.262	138.75
404.471	249.34
404.68	151.04
404.888	159.23
405.097	136.7
405.306	204.28
405.515	308.73
405.724	161.28
405.933	157.18
406.142	140.8
406.35	206.33
406.559	179.71
406.768	243.2
406.977	251.39
407.185	220.67
407.394	198.14
407.603	181.76
407.812	294.4
408.02	222.72
408.229	251.39
408.438	273.92
408.646	189.95
408.855	173.57
409.064	253.44
409.272	282.11
409.481	275.96
409.69	345.59
409.898	265.72
410.107	388.6
410.315	349.69
410.524	316.92
410.733	323.07
410.941	400.89
411.15	413.18
411.358	390.65
411.567	468.47
411.775	456.19
411.984	544.25
412.192	486.9
412.401	402.94
412.609	583.16
412.818	611.83
413.026	607.73
413.234	534.01
413.443	591.35
413.651	607.73
413.86	673.27
414.068	652.79
414.276	677.37
414.485	742.9
414.693	675.32
414.901	775.67
415.11	790
415.318	751.09
415.526	845.3
415.734	861.68
415.943	871.92
416.151	916.98
416.359	857.59
416.567	955.89
416.776	1046
416.984	1074.67
417.192	1019.38
417.4	1095.15
417.608	1062.38
417.817	1142.25
418.025	1246.7
418.233	1203.69
418.441	1234.41
418.649	1277.42
418.857	1383.91
419.065	1373.68
419.273	1394.15
419.481	1609.19
419.689	1607.14
419.897	1644.01
420.105	1676.77
420.313	1701.35
420.521	1725.93
420.729	1793.51
420.937	1900
421.145	1887.72
421.353	2020.83
421.561	2098.66
421.769	2080.22
421.977	2291.17
422.185	2233.82
422.393	2397.66
422.601	2528.73
422.809	2385.37
423.017	2412
423.224	2569.69
423.432	2680.28
423.64	2756.05
423.848	2964.95
424.056	2977.23
424.263	3134.93
424.471	3194.32
424.679	3114.45
424.887	3323.34
425.094	3317.2
425.302	3530.19
425.51	3706.31
425.718	3737.03
425.925	3732.94
426.133	3808.71
426.341	4027.84
426.548	4378.05
426.756	4337.09
426.964	4351.42
427.171	4664.76
427.379	4697.53
427.586	4804.02
427.794	4871.61
428.001	5168.56
428.209	5469.61
428.417	5139.89
428.624	5602.73
428.832	5727.66
429.039	5707.18
429.247	5576.11
429.454	6233.5
429.662	6632.86
429.869	6194.59
430.076	6542.75
430.284	6393.25
430.491	6636.95
430.699	7021.97
430.906	6991.25
431.114	7044.5
431.321	7654.8
431.528	7417.23
431.736	8115.59
431.943	8459.65
432.15	8185.22
432.358	8179.08
432.565	8885.62
432.772	8607.1
432.979	9133.43
433.187	9514.35
433.394	9246.07
433.601	9893.23
433.808	9928.04
434.016	9899.37
434.223	10515.81
434.43	11011.42
434.637	10671.45
434.844	11558.22
435.052	11601.23
435.259	11369.81
435.466	11502.93
435.673	11484.5
435.88	12418.37
436.087	12971.32
436.294	12795.2
436.501	12647.74
436.708	12744
436.915	13440.31
437.122	13739.31
437.329	13706.54
437.537	14415.14
437.743	14441.76
437.95	14611.75
438.157	15070.49
438.364	15686.93
438.571	15478.04
438.778	15813.9
438.985	17009.92
439.192	16473.35
439.399	16841.98
439.606	16485.64
439.813	17384.69
440.02	18674.92
440.227	18117.87
440.433	18003.18
440.64	18617.57
440.847	18416.87
441.054	18916.58
441.261	20102.35
441.467	19979.47
441.674	20358.35
441.881	20819.14
442.088	20800.71
442.294	20749.51
442.501	21494.97
442.708	21433.53
442.914	22414.51
443.121	23217.31
443.328	22871.2
443.534	24671.37
443.741	23575.7
443.948	23276.7
444.154	25193.6
444.361	24863.88
444.568	25271.42
444.774	25164.93
444.981	25678.97
445.187	26221.68
445.394	27221.09
445.6	26782.82
445.807	29523.01
446.013	28032.08
446.22	28617.8
446.426	29740.09
446.633	29910.07
446.839	31034.41
447.046	29725.75
447.252	31347.75
447.459	31427.62
447.665	31007.78
447.871	31966.23
448.078	33872.89
448.284	32171.03
448.491	32853
448.697	34055.16
448.903	34739.18
449.11	34849.77
449.316	34415.6
449.522	35060.71
449.728	35832.8
449.935	36031.45
450.141	36060.12
450.347	36821.97
450.553	35468.26
450.76	36045.79
450.966	37098.44
451.172	36432.85
451.378	37526.47
451.584	36828.11
451.791	37465.03
451.997	37219.27
452.203	38214.58
452.409	38112.19
452.615	37870.53
452.821	36195.29
453.027	36281.3
453.233	37915.58
453.44	36250.58
453.646	36588.5
453.852	36781.01
454.058	37362.63
454.264	36053.98
454.47	37211.08
454.676	36211.67
454.882	37233.61
455.088	33997.82
455.294	34515.95
455.5	34915.31
455.705	35208.17
455.911	33786.88
456.117	33383.43
456.323	32953.35
456.529	31001.64
456.735	32406.55
456.941	31278.11
457.147	30921.77
457.352	30231.6
457.558	29609.02
457.764	29852.73
457.97	29269.06
458.176	28539.98
458.381	28703.82
458.587	27118.69
458.793	27202.66
458.999	25875.57
459.204	27348.06
459.41	26455.15
459.616	25103.49
459.821	25109.63
460.027	25222.27
460.233	24345.74
460.438	23452.83
460.644	23848.08
460.85	22629.54
461.055	22285.48
461.261	22019.25
461.466	20442.31
461.672	19662.04
461.878	20892.87
462.083	20006.09
462.289	19479.77
462.494	19629.27
462.7	18636
462.905	18207.98
463.111	18779.36
463.316	18603.24
463.522	18371.82
463.727	18240.75
463.932	18199.79
464.138	18255.08
464.343	18076.91
464.549	17452.28
464.754	18273.51
464.959	18023.66
465.165	17976.56
465.37	17020.16
465.575	16762.11
465.781	17257.72
465.986	17470.71
466.191	16938.24
466.397	16420.1
466.602	15621.39
466.807	16297.22
467.012	16438.53
467.218	16164.11
467.423	16448.77
467.628	16252.17
467.833	16708.87
468.038	16092.43
468.244	15803.66
468.449	16227.59
468.654	15615.25
468.859	15707.41
469.064	15709.46
469.269	15023.39
469.474	15111.45
469.679	15203.61
469.885	14970.14
470.09	15076.63
470.295	14873.89
470.5	14646.56
470.705	14757.15
470.91	14564.64
471.115	14370.08
471.32	14583.07
471.525	14380.32
471.73	14069.03
471.935	14040.36
472.139	13554.99
472.344	13782.32
472.549	13620.53
472.754	13456.69
472.959	13153.59
473.164	12961.08
473.369	12528.96
473.574	13020.47
473.778	12834.11
473.983	13043
474.188	12725.57
474.393	12121.42
474.598	12461.38
474.802	12164.42
475.007	12352.84
475.212	12164.42
475.417	11781.45
475.621	11748.68
475.826	11803.98
476.031	11464.02
476.235	11656.53
476.44	11410.77
476.645	11273.56
476.849	11302.23
477.054	11095.38
477.259	10927.45
477.463	11212.12
477.668	10743.13
477.872	10929.5
478.077	10548.58
478.282	10407.27
478.486	10222.95
478.691	10349.92
478.895	10374.5
479.1	10040.68
479.304	10278.24
479.509	9823.59
479.713	10118.5
479.918	9940.33
480.122	9833.83
480.326	9901.42
480.531	9739.63
480.735	9753.96
480.94	9796.97
481.144	10124.65
481.348	9557.36
481.553	9739.63
481.757	9473.39
481.961	9567.6
482.166	9706.86
482.37	9645.42
482.574	9479.54
482.778	9688.43
482.983	9778.54
483.187	9416.05
483.391	9469.3
483.595	9471.34
483.8	9454.96
484.004	9661.8
484.208	9577.84
484.412	9557.36
484.616	9502.06
484.821	9684.33
485.025	9356.66
485.229	9469.3
485.433	9418.1
485.637	9512.3
485.841	9330.03
486.045	9514.35
486.249	9442.67
486.453	9196.92
486.657	9450.86
486.861	9397.62
487.065	9282.93
487.269	9438.58
487.473	9276.79
487.677	9543.02
487.881	9618.8
488.085	9575.79
488.289	9686.38
488.493	9434.48
488.697	9600.37
488.901	9575.79
489.105	9573.74
489.309	9487.73
489.512	9670
489.716	9616.75
489.92	9534.83
490.124	9424.24
490.328	9784.68
490.531	9633.13
490.735	9903.46
490.939	10040.68
491.143	9796.97
491.346	9655.66
491.55	9911.66
491.754	9903.46
491.958	9948.52
492.161	9829.74
492.365	9893.23
492.569	10048.87
492.772	9999.72
492.976	9842.03
493.18	10235.24
493.383	10380.64
493.587	10390.88
493.79	10657.12
493.994	10386.79
494.197	10358.11
494.401	10507.62
494.605	10780
494.808	10749.28
495.012	10767.71
495.215	10788.19
495.419	11076.95
495.622	10915.16
495.825	11189.59
496.029	10990.94
496.232	11265.36
496.436	11343.19
496.639	11681.1
496.843	11513.17
497.046	11920.71
497.249	11750.73
497.453	11926.86
497.656	12059.98
497.859	11928.91
498.063	12160.33
498.266	12447.04
498.469	12543.3
498.673	12514.63
498.876	12834.11
499.079	13059.38
499.282	12705.09
499.485	13067.58
499.689	13118.78
499.892	13571.38
500.095	13440.31
500.298	13724.97
500.501	13544.75
500.705	14028.07
500.908	14353.7
501.111	14279.97
501.314	14484.77
501.517	14634.27
501.72	14865.69
501.923	14456.1
502.126	15234.33
502.329	15400.21
502.532	15357.21
502.735	15357.21
502.938	15568.15
503.141	15799.57
503.344	15985.93
503.547	16065.8
503.75	16233.74
503.953	16346.37
504.156	16833.79
504.359	16907.52
504.562	16864.51
504.765	17288.44
504.968	17554.68
505.17	17743.09
505.373	17474.81
505.576	18259.18
505.779	18472.17
505.982	18328.81
506.185	18709.73
506.387	18916.58
506.59	18865.38
506.793	19215.58
506.996	19246.3
507.198	19727.57
507.401	19623.12
507.604	19809.49
507.807	20421.83
508.009	20511.94
508.212	20575.43
508.415	20708.55
508.617	21042.37
508.82	21136.57
509.022	21083.33
509.225	21689.53
509.428	21839.03
509.63	21916.85
509.833	22039.73
510.035	22846.63
510.238	22158.51
510.44	22754.47
510.643	23037.09
510.845	23418.01
511.048	23049.38
511.25	23573.66
511.453	23704.73
511.655	24310.93
511.858	24456.33
512.06	24773.77
512.262	24833.16
512.465	24788.1
512.667	25226.37
512.87	25574.52
513.072	25904.24
513.274	26215.54
513.477	26565.74
513.679	27026.53
513.881	26909.8
514.084	27216.99
514.286	27139.17
514.488	27497.56
514.69	28318.8
514.893	28257.36
515.095	28132.43
515.297	28654.67
515.499	28558.41
515.701	29203.52
515.904	29191.23
516.106	29549.63
516.308	29887.54
516.51	29867.06
516.712	30297.14
516.914	30424.11
517.116	31112.23
517.318	31040.55
517.52	31085.61
517.722	31405.09
517.925	32152.6
518.127	32392.21
518.329	32762.89
518.531	32457.74
518.733	33233.92
518.935	33227.78
519.136	33278.98
519.338	33811.45
519.54	33827.84
519.742	34429.94
519.944	34638.83
520.146	34880.49
520.348	34986.99
520.55	35144.68
520.752	35304.42
520.954	36299.73
521.155	35955.68
521.357	36899.79
521.559	36928.46
521.761	36912.08
521.963	37684.16
522.164	37333.96
522.366	37737.41
522.568	38157.24
522.77	37868.48
522.971	38937.52
523.173	38503.35
523.375	39119.79
523.576	38919.09
523.778	38861.74
523.98	39592.87
524.181	40024.99
524.383	39551.91
524.584	40573.84
524.786	40842.13
524.988	40264.6
525.189	41130.89
525.391	41155.47
525.592	41581.45
525.794	41440.14
525.995	41526.15
526.197	41712.52
526.398	42201.98
526.6	41876.35
526.801	42351.48
527.003	42802.03
527.204	42615.67
527.406	42931.06
527.607	43082.61
527.808	43219.82
528.01	43055.98
528.211	43152.24
528.412	43563.88
528.614	43877.22
528.815	43770.72
529.016	44501.85
529.218	43967.33
529.419	43809.64
529.62	44141.41
529.822	43721.57
530.023	43957.09
530.224	44411.74
530.425	44202.85
530.626	44415.83
530.828	44501.85
531.029	45349.71
531.23	44567.38
531.431	45290.32
531.632	45409.1
531.833	45206.35
532.035	45304.65
532.236	45175.63
532.437	45466.44
532.638	45149.01
532.839	45579.08
533.04	45790.02
533.241	45157.2
533.442	46193.47
533.643	45644.62
533.844	45708.1
534.045	45878.08
534.246	45833.03
534.447	46142.27
534.648	45734.73
534.849	45884.23
535.05	45230.93
535.251	45804.36
535.451	45943.62
535.652	46177.09
535.853	46181.18
536.054	45857.6
536.255	45984.58
536.456	45572.94
536.657	46824.25
536.857	45892.42
537.058	45574.98
537.259	46199.62
537.46	46535.48
537.66	46113.6
537.861	46385.98
538.062	46035.78
538.263	46175.04
538.463	45884.23
538.664	45665.1
538.865	46162.75
539.065	46603.06
539.266	45851.46
539.466	46574.39
539.667	45646.66
539.868	46701.37
540.068	45968.19
540.269	46107.46
540.469	46218.05
540.67	45812.55
540.87	45884.23
541.071	46005.06
541.271	46515
541.472	45634.38
541.672	45876.04
541.873	45921.09
542.073	45323.08
542.274	46576.44
542.474	46021.44
542.675	45558.6
542.875	46015.3
543.075	45890.37
543.276	45372.24
543.476	46342.97
543.676	45624.14
543.877	45906.76
544.077	46058.31
544.277	45742.92
544.478	46082.88
544.678	46037.83
544.878	45876.04
545.078	45902.66
545.279	45671.24
545.479	45792.07
545.679	45849.41
545.879	46080.83
546.079	46070.59
546.28	45996.87
546.48	45366.09
546.68	45892.42
546.88	46279.49
547.08	45681.48
547.28	45853.51
547.48	44933.97
547.68	45753.16
547.88	45527.88
548.081	46054.21
548.281	46025.54
548.481	46000.96
548.681	46123.84
548.881	46029.63
549.081	45833.03
549.28	45560.65
549.48	45837.12
549.68	45751.11
549.88	45990.72
550.08	45679.43
550.28	45937.48
550.48	45529.93
550.68	45667.14
550.88	45642.57
551.08	45407.05
551.279	45943.62
551.479	45441.87
551.679	45562.7
551.879	45802.31
552.079	45513.55
552.278	45419.34
552.478	45368.14
552.678	45699.91
552.878	45581.13
553.077	45376.33
553.277	45138.77
553.477	45894.47
553.676	45376.33
553.876	45554.5
554.076	44964.69
554.275	45185.87
554.475	44874.58
554.674	45077.33
554.874	45691.72
555.074	44886.87
555.273	45392.72
555.473	45566.79
555.672	44845.91
555.872	45454.15
556.071	45030.22
556.271	45353.8
556.47	44686.17
556.67	44768.08
556.869	44735.32
557.068	45046.61
557.268	44649.3
557.467	44698.45
557.667	45062.99
557.866	44788.56
558.065	44854.1
558.265	44227.42
558.464	44219.23
558.663	44700.5
558.863	44252
559.062	44505.94
559.261	43901.79
559.461	44778.32
559.66	43826.02
559.859	44407.64
560.058	44002.14
560.258	44215.13
560.457	43991.9
560.656	44075.87
560.855	43502.44
561.054	43950.95
561.253	43131.76
561.453	43559.78
561.652	43565.93
561.851	43883.36
562.05	43692.9
562.249	43015.02
562.448	44079.97
562.647	43258.73
562.846	43000.69
563.045	43383.66
563.244	42826.61
563.443	42931.06
563.642	42546.04
563.841	42634.1
564.04	42683.25
564.239	42974.06
564.438	42357.63
564.637	42695.54
564.836	42105.73
565.035	41853.83
565.234	42523.51
565.432	42199.93
565.631	42515.32
565.83	42228.6
566.029	41982.85
566.228	41943.94
566.427	41712.52
566.625	41722.76
566.824	41098.12
567.023	41720.71
567.222	40670.1
567.42	41294.73
567.619	41188.24
567.818	40870.8
568.016	41272.2
568.215	41139.08
568.414	40934.29
568.612	41196.43
568.811	40737.68
569.01	40780.69
569.208	40360.86
569.407	40956.82
569.605	39869.34
569.804	40514.45
570.002	39838.62
570.201	40176.54
570.4	39988.13
570.598	39515.05
570.797	40094.62
570.995	40084.38
571.193	39433.13
571.392	40010.65
571.59	39310.25
571.789	39394.21
571.987	39240.62
572.186	39123.88
572.384	38788.02
572.582	38992.81
572.781	38632.37
572.979	38435.77
573.177	38882.22
573.376	38642.61
573.574	38167.48
573.772	38540.21
573.971	38452.15
574.169	38648.75
574.367	37931.97
574.565	38017.98
574.763	37800.9
574.962	37610.43
575.16	37434.31
575.358	37919.68
575.556	37274.57
575.754	37845.95
575.952	37471.17
576.151	37577.67
576.349	36867.02
576.547	37141.45
576.745	36979.66
576.943	37379.01
577.141	36592.59
577.339	36983.76
577.537	36508.63
577.735	36623.31
577.933	36461.52
578.131	36506.58
578.329	36232.15
578.527	35912.67
578.725	35990.49
578.923	36283.35
579.121	35703.78
579.319	35875.8
579.516	36162.52
579.714	35826.65
579.912	35498.98
580.11	35128.3
580.308	35357.67
580.506	35091.43
580.704	34864.11
580.901	35261.41
581.099	35283.94
581.297	34948.07
581.495	34446.32
581.692	34874.35
581.89	34495.47
582.088	34800.62
582.285	34227.19
582.483	34792.43
582.681	34331.64
582.878	34374.64
583.076	33956.86
583.274	34399.22
583.471	33704.96
583.669	34180.09
583.866	33780.73
584.064	33842.17
584.262	33684.48
584.459	33774.59
584.657	33190.92
584.854	33874.94
585.052	32693.26
585.249	33287.17
585.447	33291.27
585.644	32777.23
585.841	32795.66
586.039	32988.17
586.236	32680.97
586.434	32492.56
586.631	32455.7
586.828	32347.15
587.026	32539.66
587.223	32711.69
587.42	32171.03
587.618	32467.98
587.815	32087.06
588.012	31562.78
588.21	31767.58
588.407	32121.88
588.604	31743
588.801	31304.74
588.999	31405.09
589.196	31472.67
589.393	31417.38
589.59	31087.65
589.787	31642.65
589.984	30860.33
590.182	30843.95
590.379	31153.19
590.576	30884.9
590.773	30833.71
590.97	30534.7
591.167	30534.7
591.364	30407.73
591.561	30348.34
591.758	30170.16
591.955	30428.21
592.152	30190.64
592.349	30157.88
592.546	30082.1
592.743	30071.86
592.94	29688.89
593.137	30024.76
593.334	29506.62
593.531	29381.7
593.727	29531.2
593.924	29582.4
594.121	29183.04
594.318	29656.12
594.515	29146.18
594.712	29310.02
594.908	29006.92
595.105	28902.47
595.302	28595.28
595.499	28879.94
595.696	28460.11
595.892	28142.67
596.089	28845.13
596.286	28849.22
596.482	28105.81
596.679	28259.41
596.876	28294.22
597.072	27735.13
597.269	28011.6
597.466	27925.59
597.662	27757.66
597.859	28042.32
598.055	27708.51
598.252	27763.8
598.448	27575.39
598.645	27444.32
598.841	27329.63
599.038	27368.54
599.234	27272.29
599.431	26926.18
599.627	27042.92
599.824	26805.35
600.02	26631.27
600.217	26766.44
600.413	26721.38
600.609	26760.3
600.806	26434.67
601.002	26743.91
601.198	26227.82
601.395	26266.74
601.591	26223.73
601.787	26121.33
601.984	26211.44
602.18	26020.98
602.376	25955.44
602.572	26043.51
602.769	25683.06
602.965	25408.64
603.161	25697.4
603.357	25506.94
603.553	25513.08
603.75	25543.8
603.946	25115.78
604.142	25314.43
604.338	24857.73
604.534	25175.17
604.73	24788.1
604.926	24982.66
605.122	25134.21
605.318	24644.74
605.514	24663.18
605.71	24591.5
605.906	24675.46
606.102	24583.3
606.298	24554.63
606.494	24353.93
606.69	24329.36
606.886	24347.79
607.082	23790.74
607.278	24036.5
607.474	23698.58
607.67	23997.59
607.866	23319.71
608.062	23991.44
608.257	23694.49
608.453	23620.76
608.649	23946.39
608.845	23764.12
609.041	23729.3
609.236	23671.96
609.432	23639.19
609.628	23262.37
609.824	23397.53
610.019	23108.77
610.215	23180.45
610.411	23458.97
610.606	23166.11
610.802	23438.49
610.998	23114.91
611.193	23076
611.389	23002.27
611.584	22877.35
611.78	22690.98
611.976	22613.16
612.171	22766.76
612.367	22514.86
612.562	22621.35
612.758	22371.5
612.953	22334.64
613.149	22541.48
613.344	22279.34
613.539	22764.71
613.735	22494.38
613.93	22373.55
614.126	22293.68
614.321	22273.2
614.517	22297.77
614.712	22099.12
614.907	22023.34
615.103	21908.66
615.298	21955.76
615.493	22271.15
615.688	21775.54
615.884	22211.76
616.079	21603.51
616.274	21589.17
616.47	21791.92
616.665	21443.77
616.86	21714.1
617.055	21466.3
617.25	21390.52
617.445	21597.37
617.641	21185.72
617.836	21529.78
618.031	20923.58
618.226	21331.13
618.421	21011.65
618.616	21245.12
618.811	21046.46
619.006	21085.37
619.201	20442.31
619.396	20939.97
619.591	20448.46
619.786	20931.78
619.981	20462.79
620.176	20528.33
620.371	20141.26
620.566	20382.92
620.761	20301
620.956	20100.3
621.151	20122.83
621.346	20069.58
621.541	19854.55
621.735	19815.63
621.93	19541.21
622.125	19647.7
622.32	19244.25
622.515	19307.74
622.709	19346.65
622.904	19180.76
623.099	19090.65
623.294	19193.05
623.488	18791.65
623.683	18797.79
623.878	18601.19
624.072	18617.57
624.267	18711.78
624.462	18330.86
624.656	18050.28
624.851	18062.57
625.046	18044.14
625.24	17999.09
625.435	17837.3
625.629	17517.81
625.824	17648.88
626.018	17517.81
626.213	17450.23
626.407	17478.9
626.602	17231.1
626.796	17378.55
626.991	17575.16
627.185	17083.64
627.38	17198.33
627.574	16813.31
627.768	16702.72
627.963	16524.55
628.157	16518.4
628.352	16575.75
628.546	16461.06
628.74	16497.92
628.935	16233.74
629.129	16340.23
629.323	15707.41
629.517	15885.58
629.712	15754.51
629.906	15762.7
630.1	15654.16
630.294	15691.02
630.489	15559.95
630.683	15389.97
630.877	15277.33
631.071	15265.05
631.265	15383.83
631.459	15052.06
631.653	15129.88
631.848	14933.28
632.042	14976.28
632.236	14783.77
632.43	14683.42
632.624	14781.73
632.818	14587.17
633.012	14423.33
633.206	14370.08
633.4	14241.06
633.594	14236.97
633.788	14099.75
633.982	14085.42
634.176	14032.17
634.369	13884.72
634.563	13759.79
634.757	13831.47
634.951	13763.89
635.145	13600.05
635.339	13595.95
635.533	13503.79
635.726	13509.94
635.92	13133.11
636.114	13231.41
636.308	13258.04
636.501	13030.71
636.695	12981.56
636.889	13096.25
637.083	12877.12
637.276	12651.84
637.47	12614.98
637.664	12633.41
637.857	12631.36
638.051	12533.06
638.244	12455.23
638.438	12363.08
638.632	12301.64
638.825	12318.02
639.019	12158.28
639.212	12096.84
639.406	11937.1
639.599	11998.54
639.793	12035.4
639.986	11910.47
640.18	12008.78
640.373	11806.03
640.567	11666.77
640.76	11668.81
640.954	11335
641.147	11349.33
641.34	11253.08
641.534	11504.98
641.727	11281.75
641.92	11490.64
642.114	11093.33
642.307	10966.36
642.5	11017.56
642.694	10829.15
642.887	10876.25
643.08	10904.92
643.273	10802.52
643.467	10636.64
643.66	10755.42
643.853	10628.45
644.046	10622.3
644.239	10399.07
644.432	10581.34
644.626	10433.89
644.819	10253.67
645.012	10306.91
645.205	10390.88
645.398	10380.64
645.591	10055.01
645.784	10050.92
645.977	10159.46
646.17	9942.38
646.363	10114.41
646.556	9788.78
646.749	9882.99
646.942	9815.4
647.135	9772.39
647.328	9586.03
647.521	9717.1
647.714	9381.23
647.907	9549.17
648.099	9301.36
648.292	9477.49
648.485	9280.88
648.678	9311.6
648.871	9352.56
649.064	9088.37
649.256	9313.65
649.449	9106.81
649.642	8957.3
649.835	9205.11
650.027	8861.05
650.22	9000.31
650.413	8754.55
650.605	9067.89
650.798	8795.51
650.991	8631.68
651.183	8654.2
651.376	8541.57
651.568	8762.75
651.761	8727.93
651.954	8521.09
652.146	8455.55
652.339	8392.06
652.531	8287.62
652.724	8244.61
652.916	8297.86
653.109	8215.94
653.301	8318.34
653.494	8256.9
653.686	7916.94
653.879	8000.9
654.071	8101.25
654.263	7953.8
654.456	7873.93
654.648	7865.74
654.84	7828.87
655.033	7658.89
655.225	7810.44
655.417	7669.13
655.61	7861.64
655.802	7783.82
655.994	7628.17
656.186	7593.36
656.379	7550.35
656.571	7761.29
656.763	7497.1
656.955	7384.46
657.148	7437.71
657.34	7454.09
657.532	7298.45
657.724	7204.24
657.916	7378.32
658.108	7325.07
658.3	7097.75
658.492	7179.67
658.684	6913.43
658.876	7007.64
659.068	6950.29
659.26	6786.46
659.452	6962.58
659.644	6995.35
659.836	6991.25
660.028	6923.67
660.22	6827.42
660.412	6714.78
660.604	6608.28
660.796	6874.52
660.988	6716.83
661.18	6665.63
661.372	6493.6
661.563	6626.71
661.755	6329.76
661.947	6585.76
662.139	6473.12
662.331	6387.1
662.522	6342.05
662.714	6411.68
662.906	6290.85
663.097	6333.86
663.289	6235.55
663.481	5961.13
663.673	6170.02
663.864	6124.96
664.056	6057.38
664.247	6063.52
664.439	5903.78
664.631	6065.57
664.822	6010.28
665.014	6145.44
665.205	5944.74
665.397	5928.36
665.588	5920.17
665.78	6038.95
665.971	5903.78
666.163	5895.59
666.354	5791.14
666.546	5916.07
666.737	5666.22
666.929	5701.03
667.12	5537.2
667.311	5766.57
667.503	5639.59
667.694	5600.68
667.885	5510.57
668.077	5588.39
668.268	5428.65
668.459	5494.19
668.651	5359.02
668.842	5559.72
669.033	5328.3
669.224	5408.17
669.416	5639.59
669.607	5377.45
669.798	5328.3
669.989	5299.63
670.18	5354.93
670.371	5383.6
670.563	5242.29
670.754	5352.88
670.945	5338.54
671.136	5195.18
671.327	5264.82
671.518	5152.18
671.709	5291.44
671.9	5184.94
672.091	5094.83
672.282	5174.71
672.473	5033.4
672.664	5150.13
672.855	5086.64
673.046	5156.27
673.237	4969.91
673.428	4957.62
673.619	4982.2
673.809	4869.56
674	4908.47
674.191	4828.6
674.382	4814.26
674.573	4914.61
674.764	4763.06
674.954	4922.8
675.145	4691.38
675.336	4631.99
675.527	4814.26
675.717	4904.37
675.908	4785.59
676.099	4697.53
676.289	4769.21
676.48	4738.49
676.671	4697.53
676.861	4869.56
677.052	4722.1
677.243	4607.42
677.433	4640.19
677.624	4636.09
677.814	4496.83
678.005	4658.62
678.195	4537.79
678.386	4613.56
678.576	4586.94
678.767	4638.14
678.957	4386.24
679.148	4476.35
679.338	4574.65
679.529	4509.12
679.719	4308.41
679.909	4511.16
680.1	4574.65
680.29	4486.59
680.481	4490.68
680.671	4539.83
680.861	4593.08
681.052	4568.51
681.242	4515.26
681.432	4369.85
681.622	4390.33
681.813	4357.57
682.003	4431.29
682.193	4482.49
682.383	4441.53
682.573	4441.53
682.764	4394.43
682.954	4408.76
683.144	4470.2
683.334	4347.33
683.524	4410.81
683.714	4308.41
683.904	4230.59
684.094	4345.28
684.284	4380.09
684.474	4378.05
684.664	4263.36
684.854	4189.63
685.044	4246.98
685.234	4191.68
685.424	4230.59
685.614	4175.3
685.804	4232.64
685.994	4287.93
686.184	4287.93
686.374	4242.88
686.564	4279.74
686.753	4242.88
686.943	4107.71
687.133	4074.95
687.323	4081.09
687.513	4017.6
687.702	4033.99
687.892	4036.03
688.082	3945.92
688.272	3995.08
688.461	4054.47
688.651	4056.51
688.841	3882.44
689.03	3970.5
689.22	3982.79
689.41	3872.2
689.599	3892.68
689.789	3976.64
689.979	3976.64
690.168	3896.77
690.358	3861.96
690.547	3835.33
690.737	3861.96
690.926	3757.51
691.116	3814.85
691.305	3745.22
691.495	3673.54
691.684	3612.1
691.874	3753.41
692.063	3624.39
692.252	3818.95
692.442	3749.32
692.631	3677.64
692.82	3681.74
693.01	3614.15
693.199	3558.86
693.388	3530.19
693.578	3659.21
693.767	3585.48
693.956	3687.88
694.146	3438.03
694.335	3528.14
694.524	3444.17
694.713	3577.29
694.902	3696.07
695.092	3558.86
695.281	3499.47
695.47	3542.47
695.659	3548.62
695.848	3511.75
696.037	3499.47
696.226	3511.75
696.415	3491.27
696.604	3552.71
696.793	3403.21
696.982	3530.19
697.171	3524.04
697.36	3478.99
697.549	3491.27
697.738	3390.92
697.927	3425.74
698.116	3470.8
698.305	3403.21
698.494	3380.68
698.683	3501.51
698.872	3446.22
699.061	3532.23
699.25	3468.75
699.438	3476.94
699.627	3476.94
699.816	3401.16
700.005	3491.27
700.193	3290.57
700.382	3413.45
700.571	3411.4
700.76	3442.12
700.948	3339.73
701.137	3413.45
701.326	3405.26
701.514	3446.22
701.703	3354.06
701.892	3329.49
702.08	3356.11
702.269	3347.92
702.457	3349.96
702.646	3341.77
702.834	3376.59
703.023	3354.06
703.212	3505.61
703.4	3347.92
703.589	3261.9
703.777	3464.65
703.965	3282.38
704.154	3239.37
704.342	3319.25
704.531	3321.29
704.719	3386.83
704.907	3325.39
705.096	3395.02
705.284	3331.53
705.472	3245.52
705.661	3298.77
705.849	3476.94
706.037	3266
706.226	3366.35
706.414	3331.53
706.602	3229.13
706.79	3405.26
706.979	3304.91
707.167	3425.74
707.355	3266
707.543	3296.72
707.731	3538.38
707.919	3300.81
708.107	3292.62
708.296	3362.25
708.484	3227.09
708.672	3487.18
708.86	3306.96
709.048	3476.94
709.236	3347.92
709.424	3323.34
709.612	3386.83
709.8	3294.67
709.988	3343.82
710.176	3390.92
710.364	3376.59
710.551	3290.57
710.739	3395.02
710.927	3327.44
711.115	3278.29
711.303	3306.96
711.491	3274.19
711.679	3257.81
711.866	3200.46
712.054	3239.37
712.242	3237.33
712.43	3298.77
712.617	3366.35
712.805	3325.39
712.993	3229.13
713.181	3435.98
713.368	3331.53
713.556	3397.07
713.744	3243.47
713.931	3235.28
714.119	3376.59
714.306	3243.47
714.494	3292.62
714.682	3378.64
714.869	3231.18
715.057	3407.31
715.244	3237.33
715.432	3298.77
715.619	3292.62
715.807	3309.01
715.994	3368.4
716.182	3413.45
716.369	3397.07
716.556	3292.62
716.744	3280.33
716.931	3325.39
717.119	3220.94
717.306	3106.26
717.493	3204.56
717.681	3405.26
717.868	3360.2
718.055	3315.15
718.242	3380.68
718.43	3282.38
718.617	3302.86
718.804	3397.07
718.991	3368.4
719.179	3401.16
719.366	3229.13
719.553	3241.42
719.74	3296.72
719.927	3354.06
720.114	3319.25
720.301	3319.25
720.488	3177.94
720.676	3192.27
720.863	3241.42
721.05	3296.72
721.237	3134.93
721.424	3255.76
721.611	3304.91
721.798	3188.18
721.985	3106.26
722.172	3163.6
722.358	3120.59
722.545	3372.49
722.732	3155.41
722.919	3261.9
723.106	3194.32
723.293	3212.75
723.48	3141.07
723.667	3196.37
723.853	3239.37
724.04	3302.86
724.227	3302.86
724.414	3100.11
724.6	3204.56
724.787	3220.94
724.974	3153.36
725.161	3200.46
725.347	3126.74
725.534	3282.38
725.72	3134.93
725.907	3169.74
726.094	3171.79
726.28	3167.7
726.467	3204.56
726.653	3290.57
726.84	3141.07
727.027	3372.49
727.213	3139.02
727.4	3208.66
727.586	3100.11
727.773	3233.23
727.959	3061.2
728.145	3214.8
728.332	2966.99
728.518	3233.23
728.705	3204.56
728.891	3143.12
729.077	3065.3
729.264	3214.8
729.45	3007.95
729.636	3225.04
729.823	3073.49
730.009	3186.13
730.195	3061.2
730.382	3239.37
730.568	3003.86
730.754	3106.26
730.94	3126.74
731.126	3266
731.313	3100.11
731.499	3007.95
731.685	3061.2
731.871	3034.58
732.057	3120.59
732.243	3198.42
732.429	3089.87
732.615	2971.09
732.801	3030.48
732.987	3143.12
733.173	3093.97
733.359	2979.28
733.545	2932.18
733.731	2975.19
733.917	3055.06
734.103	2975.19
734.289	2987.47
734.475	2993.62
734.661	3089.87
734.847	3022.29
735.033	2921.94
735.219	3022.29
735.404	3032.53
735.59	2852.31
735.776	2958.8
735.962	2913.75
736.148	3026.39
736.333	2987.47
736.519	2942.42
736.705	2991.57
736.89	2948.56
737.076	2885.08
737.262	2985.43
737.447	2954.71
737.633	2956.75
737.819	2870.74
738.004	2807.25
738.19	2817.49
738.375	2952.66
738.561	2909.65
738.747	2936.28
738.932	2889.17
739.118	2887.12
739.303	2831.83
739.489	2706.9
739.674	2862.55
739.859	2784.73
740.045	2807.25
740.23	2704.85
740.416	2704.85
740.601	2756.05
740.786	2778.58
740.972	2684.38
741.157	2786.77
741.342	2667.99
741.528	2731.48
741.713	2784.73
741.898	2676.18
742.084	2618.84
742.269	2616.79
742.454	2641.37
742.639	2643.42
742.824	2661.85
743.01	2616.79
743.195	2721.24
743.38	2612.7
743.565	2600.41
743.75	2538.97
743.935	2508.25
744.12	2614.74
744.305	2606.55
744.49	2508.25
744.675	2538.97
744.86	2536.92
745.045	2502.11
745.23	2401.76
745.415	2385.37
745.6	2422.24
745.785	2485.72
745.97	2426.33
746.155	2448.86
746.34	2276.83
746.525	2430.43
746.71	2418.14
746.895	2325.98
747.079	2457.05
747.264	2383.32
747.449	2373.08
747.634	2323.93
747.819	2323.93
748.003	2209.25
748.188	2203.1
748.373	2215.39
748.557	2119.14
748.742	2207.2
748.927	2143.71
749.111	2311.64
749.296	2121.18
749.481	2186.72
749.665	2049.5
749.85	2076.13
750.034	2160.1
750.219	2035.17
750.404	2115.04
750.588	1971.68
750.773	2033.12
750.957	2053.6
751.141	1975.78
751.326	1951.2
751.51	2022.88
751.695	1979.87
751.879	2006.5
752.064	2004.45
752.248	2069.98
752.432	1897.96
752.617	1793.51
752.801	1928.67
752.985	1795.56
753.17	1844.71
753.354	1895.91
753.538	1900
753.722	1809.89
753.907	1768.93
754.091	1746.41
754.275	1744.36
754.459	1791.46
754.643	1857
754.828	1762.79
755.012	1742.31
755.196	1783.27
755.38	1721.83
755.564	1699.3
755.748	1748.45
755.932	1668.58
756.116	1701.35
756.3	1639.91
756.484	1672.68
756.668	1586.66
756.852	1658.34
757.036	1566.18
757.22	1529.32
757.404	1605.1
757.588	1443.31
757.772	1576.42
757.956	1537.51
758.14	1650.15
758.323	1525.22
758.507	1480.17
758.691	1457.64
758.875	1535.46
759.059	1498.6
759.242	1398.25
759.426	1490.41
759.61	1533.42
759.794	1594.86
759.977	1457.64
760.161	1572.33
760.345	1439.21
760.528	1498.6
760.712	1328.62
760.895	1451.5
761.079	1353.2
761.263	1371.63
761.446	1381.87
761.63	1459.69
761.813	1314.28
761.997	1416.68
762.18	1390.06
762.364	1349.1
762.547	1314.28
762.731	1406.44
762.914	1406.44
763.098	1351.15
763.281	1379.82
763.464	1287.66
763.648	1304.04
763.831	1232.37
764.015	1170.93
764.198	1377.77
764.381	1279.47
764.564	1299.95
764.748	1267.18
764.931	1324.52
765.114	1177.07
765.297	1191.41
765.481	1263.08
765.664	1234.41
765.847	1275.37
766.03	1220.08
766.213	1181.17
766.397	1213.93
766.58	1177.07
766.763	1195.5
766.946	1140.21
767.129	1205.74
767.312	1187.31
767.495	1293.8
767.678	1119.73
767.861	1240.56
768.044	1177.07
768.227	1275.37
768.41	1033.71
768.593	1123.82
768.776	1076.72
768.959	1164.78
769.142	1125.87
769.324	1189.36
769.507	1109.49
769.69	1027.57
769.873	1062.38
770.056	1070.58
770.239	1162.73
770.421	1078.77
770.604	1017.33
770.787	1070.58
770.97	974.32
771.152	1029.62
771.335	1029.62
771.518	1062.38
771.7	1084.91
771.883	1136.11
772.066	1060.34
772.248	992.75
772.431	1066.48
772.613	1021.42
772.796	882.16
772.978	1027.57
773.161	1076.72
773.343	1035.76
773.526	939.51
773.708	939.51
773.891	923.12
774.073	972.27
774.256	937.46
774.438	968.18
774.621	882.16
774.803	996.85
774.985	939.51
775.168	876.02
775.35	921.07
775.532	855.54
775.715	931.31
775.897	894.45
776.079	779.76
776.261	966.13
776.444	843.25
776.626	923.12
776.808	781.81
776.99	927.22
777.173	742.9
777.355	886.26
777.537	763.38
777.719	820.72
777.901	818.68
778.083	833.01
778.265	751.09
778.447	869.87
778.629	804.34
778.811	759.28
778.993	833.01
779.175	742.9
779.357	757.24
779.539	699.89
779.721	749.04
779.903	824.82
780.085	722.42
780.267	732.66
780.449	792.05
780.631	767.48
780.812	771.57
780.994	693.75
781.176	615.93
781.358	716.28
781.54	650.74
781.721	660.98
781.903	595.45
782.085	706.04
782.267	724.47
782.448	630.26
782.63	595.45
782.812	667.13
782.993	656.89
783.175	687.61
783.357	595.45
783.538	634.36
783.72	581.11
783.901	593.4
784.083	611.83
784.264	609.78
784.446	630.26
784.627	566.78
784.809	667.13
784.99	529.91
785.172	570.87
785.353	665.08
785.535	658.93
785.716	536.06
785.897	566.78
786.079	503.29
786.26	527.86
786.441	550.39
786.623	542.2
786.804	554.49
786.985	579.06
787.167	464.38
787.348	505.34
787.529	505.34
787.71	542.2
787.891	439.8
788.073	521.72
788.254	554.49
788.435	515.58
788.616	513.53
788.797	470.52
788.978	515.58
789.159	419.32
789.34	525.82
789.522	527.86
789.703	433.66
789.884	507.38
790.065	464.38
790.246	525.82
790.427	396.79
790.607	476.66
790.788	450.04
790.969	370.17
791.15	435.71
791.331	491
791.512	462.33
791.693	480.76
791.874	435.71
792.054	427.51
792.235	519.67
792.416	372.22
792.597	316.92
792.778	491
792.958	445.95
793.139	458.23
793.32	374.27
793.5	382.46
793.681	456.19
793.862	417.27
794.042	400.89
794.223	364.03
794.404	435.71
794.584	316.92
794.765	378.36
794.945	404.99
795.126	386.55
795.306	386.55
795.487	357.88
795.667	333.31
795.848	347.64
796.028	341.5
796.209	376.31
796.389	296.44
796.57	372.22
796.75	364.03
796.93	280.06
797.111	329.21
797.291	368.12
797.471	323.07
797.652	335.35
797.832	337.4
798.012	390.65
798.192	251.39
798.373	224.76
798.553	292.35
798.733	409.08
798.913	339.45
799.093	235
799.274	286.2
799.454	331.26
799.634	372.22
799.814	312.83
799.994	382.46
800.174	282.11
800.354	431.61
800.534	296.44
800.714	310.78
800.894	300.54
801.074	390.65
801.254	263.68
801.434	318.97
801.614	304.64
801.794	306.68
801.974	759.28
802.154	275.96
802.334	241.15
802.514	265.72
802.693	308.73
802.873	298.49
803.053	308.73
803.233	251.39
803.413	261.63
803.592	275.96
803.772	265.72
803.952	247.29
804.131	241.15
804.311	267.77
804.491	224.76
804.67	249.34
804.85	255.48
805.03	232.96
805.209	275.96
805.389	327.16
805.568	314.88
805.748	316.92
805.928	310.78
806.107	206.33
806.287	314.88
806.466	249.34
806.646	312.83
806.825	298.49
807.004	235
807.184	230.91
807.363	261.63
807.543	257.53
807.722	216.57
807.901	282.11
808.081	271.87
808.26	292.35
808.439	245.24
808.619	151.04
808.798	226.81
808.977	255.48
809.156	290.3
809.336	278.01
809.515	316.92
809.694	189.95
809.873	230.91
810.052	198.14
810.231	341.5
810.411	247.29
810.59	306.68
810.769	235
810.948	296.44
811.127	177.66
811.306	167.42
811.485	200.19
811.664	226.81
811.843	247.29
812.022	230.91
812.201	273.92
812.38	159.23
812.559	267.77
812.737	280.06
812.916	159.23
813.095	181.76
813.274	185.85
813.453	308.73
813.632	187.9
813.811	153.09
813.989	103.93
814.168	187.9
814.347	157.18
814.526	230.91
814.704	210.43
814.883	208.38
815.062	187.9
815.24	179.71
815.419	179.71
815.598	257.53
815.776	161.28
815.955	198.14
816.133	142.85
816.312	189.95
816.49	241.15
816.669	200.19
816.847	189.95
817.026	224.76
817.204	120.32
817.383	183.81
817.561	179.71
817.74	142.85
817.918	159.23
818.097	130.56
818.275	103.93
818.453	212.48
818.632	192
818.81	144.89
818.988	167.42
819.167	153.09
819.345	171.52
819.523	87.55
819.701	171.52
819.879	181.76
820.058	108.03
820.236	179.71
820.414	95.74
820.592	171.52
820.77	93.69
820.948	69.12
821.127	177.66
821.305	241.15
821.483	136.7
821.661	126.46
821.839	140.8
822.017	153.09
822.195	93.69
822.373	159.23
822.551	132.61
822.729	124.41
822.907	138.75
823.085	89.6
823.262	93.69
823.44	144.89
823.618	81.41
823.796	196.09
823.974	142.85
824.152	173.57
824.329	181.76
824.507	132.61
824.685	114.17
824.863	95.74
825.04	181.76
825.218	91.65
825.396	216.57
825.574	136.7
825.751	108.03
825.929	87.55
826.107	120.32
826.284	116.22
826.462	120.32
826.639	87.55
826.817	148.99
826.994	189.95
827.172	95.74
827.349	181.76
827.527	159.23
827.704	128.51
827.882	181.76
828.059	83.45
828.237	93.69
828.414	183.81
828.591	112.13
828.769	118.27
828.946	87.55
829.124	157.18
829.301	155.13
829.478	95.74
829.655	140.8
829.833	157.18
830.01	85.5
830.187	79.36
830.364	153.09
830.542	114.17
830.719	175.61
830.896	161.28
831.073	81.41
831.25	208.38
831.427	75.26
831.604	60.93
831.782	67.07
831.959	138.75
832.136	30.21
832.313	173.57
832.49	97.79
832.667	91.65
832.844	44.54
833.021	183.81
833.198	79.36
833.374	110.08
833.551	77.31
833.728	85.5
833.905	144.89
834.082	116.22
834.259	65.02
834.436	120.32
834.612	26.11
834.789	110.08
834.966	83.45
835.143	83.45
835.319	46.59
835.496	71.17
835.673	128.51
835.85	103.93
836.026	52.74
836.203	112.13
836.38	91.65
836.556	103.93
836.733	46.59
836.909	99.84
837.086	83.45
837.262	60.93
837.439	48.64
837.616	110.08
837.792	89.6
837.968	1.54
838.145	58.88
838.321	75.26
838.498	36.35
838.674	87.55
838.851	73.21
839.027	85.5
839.203	91.65
839.38	60.93
839.556	97.79
839.732	112.13
839.909	97.79
840.085	99.84
840.261	69.12
840.437	65.02
840.614	26.11
840.79	83.45
840.966	42.5
841.142	52.74
841.318	93.69
841.494	110.08
841.671	46.59
841.847	79.36
842.023	81.41
842.199	40.45
842.375	120.32
842.551	65.02
842.727	60.93
842.903	112.13
843.079	28.16
843.255	79.36
843.431	181.76
843.607	44.54
843.783	67.07
843.959	138.75
844.134	142.85
844.31	116.22
844.486	26.11
844.662	71.17
844.838	-18.94
845.013	13.82
845.189	62.98
845.365	42.5
845.541	28.16
845.716	69.12
845.892	28.16
846.068	-0.51
846.244	97.79
846.419	99.84
846.595	54.78
846.77	97.79
846.946	34.3
847.122	103.93
847.297	91.65
847.473	118.27
847.648	79.36
847.824	114.17
847.999	36.35
848.175	17.92
848.35	83.45
848.526	75.26
848.701	62.98
848.876	-8.7
849.052	103.93
849.227	19.97
849.403	79.36
849.578	103.93
849.753	48.64
849.929	26.11
850.104	32.26
850.279	62.98
850.454	15.87
850.63	120.32
850.805	54.78
850.98	56.83
851.155	75.26
851.33	73.21
851.505	-12.8
851.681	103.93
851.856	79.36
852.031	56.83
852.206	83.45
852.381	28.16
852.556	15.87
852.731	54.78
852.906	75.26
853.081	34.3
853.256	40.45
853.431	22.02
853.606	91.65
853.781	-16.9
853.956	9.73
854.131	15.87
854.305	34.3
854.48	52.74
854.655	-49.66
854.83	22.02
855.005	83.45
855.18	75.26
855.354	-18.94
855.529	-25.09
855.704	22.02
855.879	44.54
856.053	1.54
856.228	108.03
856.403	58.88
856.577	52.74
856.752	-8.7
856.926	103.93
857.101	87.55
857.276	34.3
857.45	26.11
857.625	-59.9
857.799	87.55
857.974	126.46
858.148	-6.66
858.323	-10.75
858.497	-0.51
858.672	-6.66
858.846	-20.99
859.02	71.17
859.195	24.06
859.369	73.21
859.543	87.55
859.718	69.12
859.892	13.82
860.066	62.98
860.241	15.87
860.415	5.63
860.589	9.73
860.763	7.68
860.938	5.63
861.112	91.65
861.286	-31.23
861.46	159.23
861.634	-29.18
861.808	75.26
861.982	-14.85
862.157	9.73
862.331	-8.7
862.505	22.02
862.679	5.63
862.853	1.54
863.027	-4.61
863.201	65.02
863.375	-14.85
863.549	44.54
863.722	26.11
863.896	34.3
864.07	83.45
864.244	52.74
864.418	79.36
864.592	-31.23
864.766	52.74
864.939	65.02
865.113	46.59
865.287	-10.75
865.461	-51.71
865.634	-16.9
865.808	36.35
865.982	95.74
866.156	-14.85
866.329	-4.61
866.503	-18.94
866.676	99.84
866.85	77.31
867.024	-2.56
867.197	26.11
867.371	114.17
867.544	93.69
867.718	13.82
867.891	-27.14
868.065	26.11
868.238	28.16
868.412	38.4
868.585	-37.38
868.759	-23.04
868.932	38.4
869.105	-16.9
869.279	-0.51
869.452	11.78
869.625	28.16
869.799	28.16
869.972	1.54
870.145	52.74
870.319	46.59
870.492	5.63
870.665	-14.85
870.838	-18.94
871.011	-18.94
871.185	9.73
871.358	28.16
871.531	83.45
871.704	-45.57
871.877	9.73
872.05	26.11
872.223	24.06
872.396	36.35
872.569	-8.7
872.742	26.11
872.915	46.59
873.088	38.4
873.261	-14.85
873.434	40.45
873.607	13.82
873.78	54.78
873.953	-4.61
874.126	-27.14
874.299	24.06
874.471	24.06
874.644	77.31
874.817	38.4
874.99	28.16
875.163	65.02
875.335	75.26
875.508	-10.75
875.681	30.21
875.853	73.21
876.026	34.3
876.199	79.36
876.371	22.02
876.544	30.21
876.717	11.78
876.889	36.35
877.062	54.78
877.234	-27.14
877.407	75.26
877.579	-12.8
877.752	50.69
877.924	30.21
878.097	-10.75
878.269	-109.05
878.442	56.83
878.614	77.31
878.786	50.69
878.959	-10.75
879.131	34.3
879.303	87.55
879.476	40.45
879.648	3.58
879.82	40.45
879.993	22.02
880.165	46.59
880.337	44.54
880.509	30.21
880.681	3.58
880.854	34.3
881.026	54.78
881.198	36.35
881.37	38.4
881.542	54.78
881.714	62.98
881.886	-2.56
882.058	-18.94
882.23	7.68
882.402	60.93
882.574	5.63
882.746	44.54
882.918	48.64
883.09	22.02
883.262	62.98
883.434	-41.47
883.606	-0.51
883.778	-8.7
883.95	-12.8
884.122	17.92
884.293	60.93
884.465	44.54
884.637	87.55
884.809	38.4
884.98	-29.18
885.152	-2.56
885.324	1.54
885.496	-27.14
885.667	-14.85
885.839	24.06
886.011	13.82
886.182	-18.94
886.354	40.45
886.525	17.92
886.697	85.5
886.869	-88.57
887.04	95.74
887.212	32.26
887.383	67.07
887.555	28.16
887.726	22.02
887.897	-0.51
888.069	34.3
888.24	17.92
888.412	-6.66
888.583	-10.75
888.754	-6.66
888.926	-23.04
889.097	-8.7
889.268	-16.9
889.44	67.07
889.611	-37.38
889.782	42.5
889.953	17.92
890.125	42.5
890.296	22.02
890.467	30.21
890.638	-14.85
890.809	44.54
890.98	-10.75
891.151	34.3
891.323	69.12
891.494	26.11
891.665	44.54
891.836	36.35
892.007	-6.66
892.178	28.16
892.349	54.78
892.52	-57.86
892.691	-20.99
892.862	40.45
893.032	3.58
893.203	-8.7
893.374	36.35
893.545	71.17
893.716	5.63
893.887	-12.8
894.057	22.02
894.228	103.93
894.399	28.16
894.57	36.35
894.74	62.98
894.911	40.45
895.082	42.5
895.253	44.54
895.423	-39.42
895.594	83.45
895.764	-96.77
895.935	24.06
896.106	69.12
896.276	-2.56
896.447	-59.9
896.617	3.58
896.788	22.02
896.958	-2.56
897.129	17.92
897.299	56.83
897.47	112.13
897.64	56.83
897.81	62.98
897.981	22.02
898.151	-20.99
898.322	93.69
898.492	1.54
898.662	-49.66
898.832	-29.18
899.003	58.88
899.173	62.98
899.343	-39.42
899.513	26.11
