Data from USB4F104151__287__10-42-21-432.txt Node

Date: Wed Mar 12 10:42:21 EDT 2025
User: louis
Spectrometer: USB4F10415
Trigger mode: 4
Integration Time (sec): 3.000000E-2
Scans to average: 1
Electric dark correction enabled: true
Nonlinearity correction enabled: false
Boxcar width: 0
XAxis mode: Wavelengths
Number of Pixels in Spectrum: 3648
>>>>>Begin Spectral Data<<<<<
178.204	-86.36
178.424	-86.36
178.644	-86.36
178.864	-151.89
179.084	-102.74
179.304	44.71
179.524	38.57
179.744	-14.68
179.964	44.71
180.184	-20.82
180.404	-2.39
180.624	-39.25
180.844	-14.68
181.064	-26.96
181.283	16.04
181.503	-29.01
181.723	3.75
181.943	-35.16
182.163	143.02
182.383	18.09
182.602	89.77
182.822	57
183.042	-0.34
183.262	28.33
183.482	-16.73
183.701	42.67
183.921	-20.82
184.141	73.39
184.361	65.19
184.58	7.85
184.8	50.86
185.02	34.47
185.239	30.38
185.459	61.1
185.679	16.04
185.898	36.52
186.118	32.43
186.338	-18.77
186.557	128.68
186.777	-6.49
186.997	20.14
187.216	48.81
187.436	118.44
187.655	73.39
187.875	87.72
188.095	3.75
188.314	77.48
188.534	104.11
188.753	3.75
188.973	52.91
189.192	63.15
189.412	40.62
189.631	46.76
189.851	-49.49
190.07	91.82
190.29	1.71
190.509	20.14
190.729	-6.49
190.948	18.09
191.168	145.06
191.387	89.77
191.607	32.43
191.826	-53.59
192.045	65.19
192.265	52.91
192.484	85.67
192.704	30.38
192.923	28.33
193.142	81.58
193.362	-29.01
193.581	36.52
193.8	-16.73
194.02	38.57
194.239	-16.73
194.458	-29.01
194.678	20.14
194.897	-10.58
195.116	-12.63
195.335	7.85
195.555	89.77
195.774	-12.63
195.993	71.34
196.212	36.52
196.432	24.23
196.651	36.52
196.87	3.75
197.089	116.39
197.308	32.43
197.528	61.1
197.747	-41.3
197.966	48.81
198.185	97.96
198.404	26.28
198.623	11.95
198.842	54.95
199.062	-12.63
199.281	85.67
199.5	-10.58
199.719	59.05
199.938	108.2
200.157	159.4
200.376	-6.49
200.595	73.39
200.814	-4.44
201.033	-4.44
201.252	106.15
201.471	16.04
201.69	128.68
201.909	1.71
202.128	13.99
202.347	11.95
202.566	1.71
202.785	13.99
203.004	5.8
203.223	110.25
203.442	48.81
203.661	81.58
203.879	102.06
204.098	44.71
204.317	46.76
204.536	87.72
204.755	28.33
204.974	30.38
205.193	104.11
205.411	95.91
205.63	93.87
205.849	5.8
206.068	26.28
206.287	-16.73
206.505	20.14
206.724	30.38
206.943	40.62
207.162	11.95
207.381	42.67
207.599	16.04
207.818	83.63
208.037	30.38
208.255	-6.49
208.474	85.67
208.693	-22.87
208.911	67.24
209.13	44.71
209.349	18.09
209.567	40.62
209.786	24.23
210.005	79.53
210.223	81.58
210.442	48.81
210.661	48.81
210.879	67.24
211.098	52.91
211.316	50.86
211.535	71.34
211.753	-4.44
211.972	75.43
212.191	81.58
212.409	75.43
212.628	22.19
212.846	-0.34
213.065	44.71
213.283	40.62
213.502	7.85
213.72	-0.34
213.938	7.85
214.157	-4.44
214.375	52.91
214.594	3.75
214.812	132.78
215.031	63.15
215.249	71.34
215.467	44.71
215.686	-0.34
215.904	79.53
216.122	9.9
216.341	28.33
216.559	95.91
216.778	85.67
216.996	128.68
217.214	73.39
217.432	134.82
217.651	-18.77
217.869	52.91
218.087	26.28
218.306	16.04
218.524	57
218.742	20.14
218.96	73.39
219.179	32.43
219.397	16.04
219.615	202.41
219.833	97.96
220.051	20.14
220.27	155.3
220.488	52.91
220.706	18.09
220.924	48.81
221.142	93.87
221.36	30.38
221.578	40.62
221.796	26.28
222.015	65.19
222.233	-53.59
222.451	-4.44
222.669	59.05
222.887	3.75
223.105	-37.2
223.323	42.67
223.541	-6.49
223.759	122.54
223.977	126.63
224.195	5.8
224.413	106.15
224.631	28.33
224.849	48.81
225.067	120.49
225.285	57
225.503	30.38
225.721	5.8
225.939	65.19
226.157	59.05
226.375	108.2
226.592	7.85
226.81	24.23
227.028	36.52
227.246	87.72
227.464	77.48
227.682	22.19
227.9	44.71
228.117	32.43
228.335	61.1
228.553	44.71
228.771	52.91
228.989	89.77
229.206	18.09
229.424	63.15
229.642	97.96
229.86	106.15
230.077	110.25
230.295	81.58
230.513	36.52
230.731	22.19
230.948	48.81
231.166	77.48
231.384	1.71
231.601	-12.63
231.819	59.05
232.037	36.52
232.254	3.75
232.472	65.19
232.689	-4.44
232.907	18.09
233.125	1.71
233.342	42.67
233.56	3.75
233.777	9.9
233.995	-35.16
234.213	-4.44
234.43	16.04
234.648	77.48
234.865	44.71
235.083	42.67
235.3	-6.49
235.518	71.34
235.735	97.96
235.953	104.11
236.17	42.67
236.388	-0.34
236.605	106.15
236.822	104.11
237.04	104.11
237.257	63.15
237.475	7.85
237.692	61.1
237.909	-10.58
238.127	116.39
238.344	65.19
238.562	116.39
238.779	-8.53
238.996	69.29
239.214	-14.68
239.431	22.19
239.648	24.23
239.865	100.01
240.083	26.28
240.3	24.23
240.517	126.63
240.735	32.43
240.952	65.19
241.169	26.28
241.386	38.57
241.603	-41.3
241.821	52.91
242.038	65.19
242.255	61.1
242.472	65.19
242.689	59.05
242.907	65.19
243.124	20.14
243.341	102.06
243.558	20.14
243.775	85.67
243.992	67.24
244.209	26.28
244.426	65.19
244.643	89.77
244.86	-53.59
245.078	18.09
245.295	54.95
245.512	81.58
245.729	-18.77
245.946	118.44
246.163	16.04
246.38	5.8
246.597	22.19
246.814	59.05
247.031	-8.53
247.248	93.87
247.464	77.48
247.681	89.77
247.898	77.48
248.115	128.68
248.332	20.14
248.549	120.49
248.766	79.53
248.983	-14.68
249.2	75.43
249.417	18.09
249.633	67.24
249.85	20.14
250.067	42.67
250.284	1.71
250.501	116.39
250.717	114.34
250.934	59.05
251.151	81.58
251.368	-12.63
251.585	110.25
251.801	26.28
252.018	26.28
252.235	69.29
252.451	-41.3
252.668	48.81
252.885	130.73
253.102	89.77
253.318	46.76
253.535	36.52
253.752	32.43
253.968	48.81
254.185	13.99
254.401	42.67
254.618	26.28
254.835	20.14
255.051	147.11
255.268	57
255.484	54.95
255.701	79.53
255.917	95.91
256.134	95.91
256.351	85.67
256.567	54.95
256.784	57
257	-6.49
257.217	42.67
257.433	48.81
257.65	89.77
257.866	108.2
258.082	42.67
258.299	16.04
258.515	93.87
258.732	81.58
258.948	18.09
259.165	93.87
259.381	69.29
259.597	65.19
259.814	1.71
260.03	52.91
260.246	67.24
260.463	67.24
260.679	93.87
260.895	75.43
261.112	71.34
261.328	38.57
261.544	59.05
261.761	83.63
261.977	20.14
262.193	40.62
262.409	16.04
262.626	16.04
262.842	34.47
263.058	-6.49
263.274	52.91
263.49	52.91
263.707	161.45
263.923	79.53
264.139	50.86
264.355	9.9
264.571	61.1
264.787	50.86
265.004	44.71
265.22	28.33
265.436	3.75
265.652	50.86
265.868	114.34
266.084	65.19
266.3	11.95
266.516	9.9
266.732	85.67
266.948	18.09
267.164	26.28
267.38	75.43
267.596	28.33
267.812	114.34
268.028	46.76
268.244	57
268.46	11.95
268.676	48.81
268.892	93.87
269.108	52.91
269.324	-41.3
269.54	5.8
269.756	26.28
269.972	-20.82
270.188	81.58
270.403	50.86
270.619	42.67
270.835	71.34
271.051	65.19
271.267	-0.34
271.483	24.23
271.698	67.24
271.914	34.47
272.13	57
272.346	118.44
272.562	108.2
272.777	100.01
272.993	13.99
273.209	67.24
273.425	54.95
273.64	89.77
273.856	102.06
274.072	22.19
274.287	-10.58
274.503	93.87
274.719	116.39
274.934	61.1
275.15	16.04
275.366	61.1
275.581	-6.49
275.797	73.39
276.012	67.24
276.228	50.86
276.444	-6.49
276.659	171.69
276.875	18.09
277.09	95.91
277.306	20.14
277.521	57
277.737	69.29
277.952	61.1
278.168	28.33
278.383	110.25
278.599	57
278.814	69.29
279.03	57
279.245	143.02
279.461	71.34
279.676	102.06
279.892	13.99
280.107	7.85
280.322	30.38
280.538	11.95
280.753	61.1
280.969	122.54
281.184	46.76
281.399	124.58
281.615	75.43
281.83	147.11
282.045	7.85
282.26	65.19
282.476	71.34
282.691	40.62
282.906	83.63
283.122	42.67
283.337	57
283.552	54.95
283.767	40.62
283.983	151.21
284.198	44.71
284.413	97.96
284.628	61.1
284.843	57
285.058	52.91
285.274	16.04
285.489	59.05
285.704	3.75
285.919	36.52
286.134	30.38
286.349	102.06
286.564	95.91
286.779	54.95
286.995	16.04
287.21	-18.77
287.425	91.82
287.64	69.29
287.855	28.33
288.07	22.19
288.285	75.43
288.5	26.28
288.715	85.67
288.93	63.15
289.145	22.19
289.36	79.53
289.575	67.24
289.79	118.44
290.004	89.77
290.219	24.23
290.434	50.86
290.649	-8.53
290.864	95.91
291.079	40.62
291.294	57
291.509	44.71
291.724	36.52
291.938	7.85
292.153	151.21
292.368	40.62
292.583	-16.73
292.798	-4.44
293.012	24.23
293.227	26.28
293.442	44.71
293.657	46.76
293.871	89.77
294.086	16.04
294.301	42.67
294.516	73.39
294.73	54.95
294.945	63.15
295.16	34.47
295.374	52.91
295.589	28.33
295.804	-6.49
296.018	-29.01
296.233	89.77
296.447	50.86
296.662	50.86
296.877	108.2
297.091	50.86
297.306	44.71
297.52	59.05
297.735	11.95
297.949	57
298.164	95.91
298.378	36.52
298.593	30.38
298.807	-55.64
299.022	130.73
299.236	57
299.451	16.04
299.665	85.67
299.88	81.58
300.094	57
300.309	59.05
300.523	20.14
300.737	-35.16
300.952	63.15
301.166	36.52
301.381	18.09
301.595	122.54
301.809	85.67
302.024	40.62
302.238	75.43
302.452	126.63
302.667	24.23
302.881	120.49
303.095	34.47
303.309	91.82
303.524	20.14
303.738	-16.73
303.952	93.87
304.166	100.01
304.381	22.19
304.595	122.54
304.809	32.43
305.023	71.34
305.237	42.67
305.452	30.38
305.666	73.39
305.88	93.87
306.094	54.95
306.308	38.57
306.522	75.43
306.736	-45.4
306.95	59.05
307.164	122.54
307.379	91.82
307.593	147.11
307.807	114.34
308.021	63.15
308.235	54.95
308.449	18.09
308.663	-0.34
308.877	67.24
309.091	77.48
309.305	91.82
309.519	3.75
309.733	81.58
309.947	34.47
310.161	89.77
310.374	34.47
310.588	122.54
310.802	-37.2
311.016	-8.53
311.23	16.04
311.444	26.28
311.658	34.47
311.872	100.01
312.085	81.58
312.299	106.15
312.513	61.1
312.727	71.34
312.941	44.71
313.154	50.86
313.368	48.81
313.582	61.1
313.796	1.71
314.009	24.23
314.223	100.01
314.437	69.29
314.651	69.29
314.864	71.34
315.078	-0.34
315.292	40.62
315.505	112.3
315.719	44.71
315.933	91.82
316.146	38.57
316.36	93.87
316.573	57
316.787	81.58
317.001	57
317.214	59.05
317.428	36.52
317.641	73.39
317.855	36.52
318.068	59.05
318.282	50.86
318.495	61.1
318.709	67.24
318.922	-20.82
319.136	87.72
319.349	93.87
319.563	85.67
319.776	50.86
319.99	-20.82
320.203	50.86
320.417	71.34
320.63	159.4
320.843	108.2
321.057	20.14
321.27	85.67
321.483	16.04
321.697	38.57
321.91	48.81
322.124	71.34
322.337	-39.25
322.55	48.81
322.763	89.77
322.977	79.53
323.19	24.23
323.403	69.29
323.617	65.19
323.83	126.63
324.043	52.91
324.256	38.57
324.469	67.24
324.683	89.77
324.896	36.52
325.109	85.67
325.322	3.75
325.535	69.29
325.748	69.29
325.962	81.58
326.175	83.63
326.388	-16.73
326.601	-10.58
326.814	120.49
327.027	77.48
327.24	153.26
327.453	-49.49
327.666	57
327.879	110.25
328.092	165.54
328.305	118.44
328.518	-8.53
328.731	57
328.944	157.35
329.157	36.52
329.37	18.09
329.583	52.91
329.796	28.33
330.009	91.82
330.222	38.57
330.435	112.3
330.648	91.82
330.861	61.1
331.073	40.62
331.286	83.63
331.499	106.15
331.712	61.1
331.925	16.04
332.138	42.67
332.35	130.73
332.563	5.8
332.776	130.73
332.989	38.57
333.202	28.33
333.414	104.11
333.627	79.53
333.84	24.23
334.053	46.76
334.265	16.04
334.478	77.48
334.691	52.91
334.903	93.87
335.116	44.71
335.329	24.23
335.541	5.8
335.754	3.75
335.966	85.67
336.179	44.71
336.392	85.67
336.604	24.23
336.817	132.78
337.029	24.23
337.242	32.43
337.454	97.96
337.667	52.91
337.88	83.63
338.092	89.77
338.305	63.15
338.517	71.34
338.729	44.71
338.942	136.87
339.154	32.43
339.367	-0.34
339.579	77.48
339.792	20.14
340.004	124.58
340.217	36.52
340.429	91.82
340.641	85.67
340.854	3.75
341.066	63.15
341.278	65.19
341.491	11.95
341.703	52.91
341.915	32.43
342.128	128.68
342.34	124.58
342.552	24.23
342.764	69.29
342.977	5.8
343.189	57
343.401	50.86
343.613	28.33
343.826	30.38
344.038	91.82
344.25	85.67
344.462	13.99
344.674	54.95
344.886	77.48
345.099	118.44
345.311	75.43
345.523	32.43
345.735	28.33
345.947	87.72
346.159	67.24
346.371	28.33
346.583	132.78
346.795	104.11
347.007	91.82
347.219	48.81
347.431	71.34
347.643	126.63
347.855	36.52
348.067	118.44
348.279	46.76
348.491	40.62
348.703	77.48
348.915	71.34
349.127	89.77
349.339	132.78
349.551	26.28
349.763	97.96
349.975	79.53
350.187	69.29
350.399	32.43
350.61	93.87
350.822	18.09
351.034	28.33
351.246	54.95
351.458	20.14
351.669	93.87
351.881	130.73
352.093	91.82
352.305	75.43
352.517	151.21
352.728	40.62
352.94	34.47
353.152	57
353.363	42.67
353.575	95.91
353.787	57
353.999	73.39
354.21	73.39
354.422	32.43
354.633	67.24
354.845	108.2
355.057	18.09
355.268	71.34
355.48	59.05
355.692	52.91
355.903	91.82
356.115	3.75
356.326	52.91
356.538	44.71
356.749	34.47
356.961	110.25
357.172	3.75
357.384	22.19
357.595	89.77
357.807	30.38
358.018	44.71
358.23	42.67
358.441	114.34
358.653	63.15
358.864	69.29
359.075	79.53
359.287	89.77
359.498	42.67
359.709	87.72
359.921	32.43
360.132	28.33
360.344	110.25
360.555	83.63
360.766	147.11
360.977	-6.49
361.189	126.63
361.4	61.1
361.611	102.06
361.823	69.29
362.034	167.59
362.245	87.72
362.456	48.81
362.667	112.3
362.879	69.29
363.09	81.58
363.301	24.23
363.512	67.24
363.723	36.52
363.935	100.01
364.146	104.11
364.357	85.67
364.568	59.05
364.779	-22.87
364.99	91.82
365.201	79.53
365.412	50.86
365.623	20.14
365.834	67.24
366.045	28.33
366.256	124.58
366.467	65.19
366.678	118.44
366.889	30.38
367.1	128.68
367.311	124.58
367.522	61.1
367.733	108.2
367.944	102.06
368.155	13.99
368.366	147.11
368.577	71.34
368.788	77.48
368.999	44.71
369.209	38.57
369.42	120.49
369.631	79.53
369.842	91.82
370.053	89.77
370.264	122.54
370.474	75.43
370.685	52.91
370.896	65.19
371.107	108.2
371.317	11.95
371.528	50.86
371.739	136.87
371.95	83.63
372.16	85.67
372.371	65.19
372.582	20.14
372.792	128.68
373.003	5.8
373.214	54.95
373.424	61.1
373.635	36.52
373.846	102.06
374.056	20.14
374.267	24.23
374.477	67.24
374.688	114.34
374.898	73.39
375.109	44.71
375.319	61.1
375.53	100.01
375.74	95.91
375.951	36.52
376.161	100.01
376.372	108.2
376.582	67.24
376.793	91.82
377.003	40.62
377.214	153.26
377.424	83.63
377.635	24.23
377.845	-22.87
378.055	81.58
378.266	36.52
378.476	97.96
378.686	116.39
378.897	130.73
379.107	108.2
379.317	57
379.528	114.34
379.738	34.47
379.948	52.91
380.158	104.11
380.369	52.91
380.579	79.53
380.789	63.15
380.999	97.96
381.21	42.67
381.42	122.54
381.63	-12.63
381.84	59.05
382.05	85.67
382.261	42.67
382.471	114.34
382.681	122.54
382.891	159.4
383.101	132.78
383.311	71.34
383.521	93.87
383.731	97.96
383.941	93.87
384.151	50.86
384.361	77.48
384.571	110.25
384.781	145.06
384.991	116.39
385.201	83.63
385.411	52.91
385.621	108.2
385.831	73.39
386.041	77.48
386.251	149.16
386.461	102.06
386.671	65.19
386.881	112.3
387.091	57
387.301	118.44
387.511	130.73
387.72	77.48
387.93	147.11
388.14	44.71
388.35	73.39
388.56	110.25
388.769	106.15
388.979	112.3
389.189	89.77
389.399	112.3
389.609	87.72
389.818	106.15
390.028	116.39
390.238	81.58
390.447	89.77
390.657	-8.53
390.867	167.59
391.076	116.39
391.286	63.15
391.496	124.58
391.705	65.19
391.915	143.02
392.125	134.82
392.334	147.11
392.544	132.78
392.753	140.97
392.963	85.67
393.172	224.94
393.382	77.48
393.591	112.3
393.801	153.26
394.01	163.5
394.22	155.3
394.429	149.16
394.639	126.63
394.848	130.73
395.058	16.04
395.267	157.35
395.477	143.02
395.686	136.87
395.895	163.5
396.105	145.06
396.314	153.26
396.524	192.17
396.733	91.82
396.942	130.73
397.152	128.68
397.361	153.26
397.57	151.21
397.78	143.02
397.989	104.11
398.198	186.02
398.407	110.25
398.617	-0.34
398.826	138.92
399.035	52.91
399.244	112.3
399.453	134.82
399.663	169.64
399.872	165.54
400.081	149.16
400.29	188.07
400.499	169.64
400.708	161.45
400.917	130.73
401.127	159.4
401.336	97.96
401.545	245.41
401.754	179.88
401.963	249.51
402.172	157.35
402.381	69.29
402.59	77.48
402.799	165.54
403.008	235.18
403.217	118.44
403.426	167.59
403.635	151.21
403.844	226.98
404.053	126.63
404.262	130.73
404.471	179.88
404.68	181.93
404.888	165.54
405.097	151.21
405.306	239.27
405.515	233.13
405.724	167.59
405.933	229.03
406.142	257.7
406.35	253.61
406.559	200.36
406.768	194.22
406.977	257.7
407.185	306.85
407.394	288.42
407.603	226.98
407.812	337.57
408.02	323.24
408.229	337.57
408.438	329.38
408.646	308.9
408.855	298.66
409.064	415.4
409.272	298.66
409.481	401.06
409.69	372.39
409.898	345.77
410.107	444.07
410.315	364.2
410.524	439.97
410.733	480.93
410.941	466.6
411.15	497.32
411.358	503.46
411.567	511.65
411.775	478.88
411.984	442.02
412.192	544.42
412.401	556.71
412.609	673.44
412.818	704.16
413.026	714.4
413.234	706.21
413.443	628.39
413.651	650.91
413.86	681.63
414.068	810.65
414.276	773.79
414.485	816.8
414.693	847.52
414.901	831.13
415.11	968.35
415.318	902.81
415.526	986.78
415.734	1017.5
415.943	1007.26
416.151	1025.69
416.359	1031.83
416.567	1095.32
416.776	1164.95
416.984	1334.93
417.192	1298.07
417.4	1289.88
417.608	1265.3
417.817	1363.61
418.025	1363.61
418.233	1519.25
418.441	1474.2
418.649	1537.68
418.857	1541.78
419.065	1681.04
419.273	1672.85
419.481	1775.25
419.689	1932.94
419.897	1932.94
420.105	1900.17
420.313	2100.87
420.521	2084.49
420.729	2135.69
420.937	2277
421.145	2158.22
421.353	2317.96
421.561	2444.93
421.769	2522.76
421.977	2690.69
422.185	2629.25
422.393	2836.1
422.601	2975.36
422.809	2854.53
423.017	3034.75
423.224	3212.92
423.432	3225.21
423.64	3217.02
423.848	3417.72
424.056	3432.05
424.263	3704.43
424.471	3677.81
424.679	3698.29
424.887	3911.28
425.094	4193.9
425.302	3993.2
425.51	4359.78
425.718	4435.56
425.925	4421.22
426.133	4597.35
426.341	4849.25
426.548	5021.28
426.756	5101.15
426.964	5279.32
427.171	5471.83
427.379	5631.57
427.586	5568.09
427.794	5879.38
428.001	6032.97
428.209	6413.9
428.417	6176.33
428.624	6628.93
428.832	6798.91
429.039	6692.42
429.247	6659.65
429.454	7331.39
429.662	7882.29
429.869	7333.43
430.076	7872.05
430.284	7652.92
430.491	8072.75
430.699	8341.04
430.906	8445.48
431.114	8461.87
431.321	8799.78
431.528	9066.02
431.736	9483.8
431.943	9975.31
432.15	9786.9
432.358	9874.96
432.565	10536.46
432.772	10532.36
432.979	10821.13
433.187	10993.15
433.394	11159.04
433.601	12090.87
433.808	11916.79
434.016	11879.93
434.223	12518.89
434.43	13055.46
434.637	13037.03
434.844	13544.92
435.052	14175.7
435.259	13733.34
435.466	14032.34
435.673	13852.12
435.88	14691.79
436.087	15400.38
436.294	15330.75
436.501	15218.11
436.708	15390.14
436.915	15934.9
437.122	16778.67
437.329	16528.81
437.537	17153.44
437.743	17528.22
437.95	17208.74
438.157	18281.88
438.364	19080.58
438.571	18693.52
438.778	18980.23
438.985	20505.97
439.192	19735.93
439.399	20551.03
439.606	20014.46
439.813	21181.8
440.02	22517.08
440.227	21798.24
440.433	21949.79
440.64	22863.18
440.847	22519.12
441.054	23283.02
441.261	24485.17
441.467	24358.2
441.674	24708.4
441.881	25634.08
442.088	25568.55
442.294	25050.41
442.501	26072.35
442.708	26451.22
442.914	27741.44
443.121	28730.61
443.328	27987.2
443.534	29705.45
443.741	29064.43
443.948	28734.71
444.154	30948.56
444.361	30317.79
444.568	30725.33
444.774	30801.11
444.981	31362.25
445.187	31864
445.394	33600.68
445.6	32478.4
445.807	36119.68
446.013	34403.49
446.22	35450
446.426	36361.34
446.633	36736.12
446.839	38085.73
447.046	36301.95
447.252	38706.27
447.459	38372.45
447.665	38261.86
447.871	39812.17
448.078	41364.53
448.284	39574.61
448.491	40817.72
448.697	42370.08
448.903	42914.84
449.11	43045.91
449.316	42038.31
449.522	43148.31
449.728	44057.61
449.935	44364.81
450.141	44483.59
450.347	45331.45
450.553	43889.68
450.76	44594.18
450.966	45708.27
451.172	45036.54
451.378	46363.62
451.584	45405.17
451.791	46060.52
451.997	46044.14
452.203	46732.26
452.409	46359.53
452.615	46521.32
452.821	45026.3
453.027	44264.46
453.233	46767.07
453.44	44712.96
453.646	45435.89
453.852	44999.68
454.058	46091.24
454.264	44878.85
454.47	45618.16
454.676	44405.77
454.882	45308.92
455.088	42028.07
455.294	42083.37
455.5	43275.29
455.705	43275.29
455.911	41733.17
456.117	41075.77
456.323	40707.13
456.529	38259.81
456.735	39916.62
456.941	38866.01
457.147	38157.41
457.352	36598.91
457.558	36899.96
457.764	36873.34
457.97	35804.3
458.176	35128.47
458.381	35230.87
458.587	33363.12
458.793	32904.37
458.999	31698.12
459.204	33877.16
459.41	33219.76
459.616	30829.78
459.821	30731.48
460.027	30608.6
460.233	29947.11
460.438	28275.96
460.644	28927.22
460.85	27559.17
461.055	27206.92
461.261	27133.2
461.466	25183.53
461.672	24354.1
461.878	26176.8
462.083	24229.18
462.289	24177.98
462.494	23678.27
462.7	23002.44
462.905	21902.68
463.111	22922.57
463.316	23307.59
463.522	22369.62
463.727	22562.13
463.932	22431.06
464.138	22386.01
464.343	22256.98
464.549	21632.35
464.754	22410.58
464.959	22177.11
465.165	22101.34
465.37	21114.22
465.575	20712.81
465.781	21415.27
465.986	21568.87
466.191	20651.38
466.397	20209.01
466.602	19568
466.807	20194.68
467.012	20051.32
467.218	19971.45
467.423	19850.62
467.628	20043.13
467.833	20479.35
468.038	19938.68
468.244	19592.58
468.449	20198.77
468.654	19606.91
468.859	19639.68
469.064	19240.33
469.269	18501.01
469.474	18742.67
469.679	19121.54
469.885	18470.29
470.09	18883.98
470.295	18572.69
470.5	18261.4
470.705	18310.55
470.91	17950.1
471.115	18081.17
471.32	17929.63
471.525	17644.96
471.73	17376.67
471.935	17618.33
472.139	16758.19
472.344	17083.81
472.549	16840.11
472.754	16797.1
472.959	16377.26
473.164	16029.11
473.369	15996.34
473.574	16328.11
473.778	16115.12
473.983	16199.09
474.188	15961.53
474.393	15164.87
474.598	15377.86
474.802	15232.45
475.007	15105.48
475.212	15064.52
475.417	14570.96
475.621	14710.22
475.826	14745.03
476.031	14235.09
476.235	14003.67
476.44	14099.92
476.645	13962.71
476.849	13972.95
477.054	13757.91
477.259	13686.23
477.463	13600.22
477.668	13299.17
477.872	13475.29
478.077	13194.72
478.282	12979.68
478.486	12840.42
478.691	12840.42
478.895	12565.99
479.1	12723.69
479.304	12582.38
479.509	12262.9
479.713	12402.16
479.918	12250.61
480.122	12107.25
480.326	12406.25
480.531	12436.97
480.735	12146.16
480.94	12158.45
481.144	12355.05
481.348	12049.91
481.553	11994.61
481.757	11453.95
481.961	11918.84
482.166	11978.23
482.37	11927.03
482.574	11873.78
482.778	12023.28
482.983	12199.41
483.187	11875.83
483.391	11789.81
483.595	11687.42
483.8	11666.94
484.004	11773.43
484.208	11908.6
484.412	11865.59
484.616	11892.21
484.821	11886.07
485.025	11562.49
485.229	11744.76
485.433	11929.08
485.637	11777.53
485.841	11853.3
486.045	11884.02
486.249	11761.14
486.453	11806.2
486.657	11789.81
486.861	11759.1
487.065	11587.07
487.269	11744.76
487.473	11449.85
487.677	11791.86
487.881	11918.84
488.085	11787.77
488.289	11947.51
488.493	12051.95
488.697	11906.55
488.901	11918.84
489.105	11865.59
489.309	11742.71
489.512	12107.25
489.716	11976.18
489.92	12017.14
490.124	11912.69
490.328	12178.93
490.531	12056.05
490.735	12353.01
490.939	12088.82
491.143	12109.3
491.346	12279.28
491.55	12428.78
491.754	12537.32
491.958	12322.29
492.161	12715.5
492.365	12344.81
492.569	12465.64
492.772	12572.14
492.976	12912.1
493.18	12699.11
493.383	13217.25
493.587	12953.06
493.79	13336.03
493.994	12637.67
494.197	13057.51
494.401	13209.06
494.605	13385.18
494.808	13481.44
495.012	13456.86
495.215	13370.85
495.419	13692.38
495.622	13727.19
495.825	13950.42
496.029	14022.1
496.232	14317.01
496.436	14046.68
496.639	14607.82
496.843	14302.67
497.046	14816.71
497.249	14951.88
497.453	14708.17
497.656	15001.03
497.859	15289.79
498.063	15187.39
498.266	15660.48
498.469	15472.06
498.673	15984.05
498.876	16016.82
499.079	16258.48
499.282	15945.14
499.485	16600.49
499.689	16516.53
499.892	16719.28
500.095	16881.07
500.298	17272.23
500.501	16952.74
500.705	17610.14
500.908	17569.18
501.111	18046.36
501.314	18236.82
501.517	18159
501.72	18271.64
501.923	18447.76
502.126	18980.23
502.329	19258.76
502.532	19213.7
502.735	19375.49
502.938	19864.96
503.141	19944.83
503.344	20249.97
503.547	20110.71
503.75	20653.42
503.953	20950.38
504.156	21044.59
504.359	21255.53
504.562	21396.84
504.765	21900.64
504.968	21970.27
505.17	22351.19
505.373	22230.36
505.576	22805.84
505.779	22895.95
505.982	23131.47
506.185	23608.64
506.387	23502.15
506.59	23739.71
506.793	24210.75
506.996	24225.08
507.198	24954.16
507.401	24616.24
507.604	25056.56
507.807	25296.17
508.009	25773.35
508.212	25890.08
508.415	26287.39
508.617	26518.81
508.82	26719.51
509.022	26713.36
509.225	27282.7
509.428	27450.63
509.63	27739.4
509.833	27841.79
510.035	28587.25
510.238	28099.84
510.44	28730.61
510.643	28937.46
510.845	29568.23
511.048	29320.43
511.25	29897.95
511.453	29801.7
511.655	30997.71
511.858	30438.62
512.06	30684.37
512.262	31356.11
512.465	31179.98
512.667	31868.1
512.87	32406.72
513.072	32199.87
513.274	32890.04
513.477	33285.29
513.679	33389.74
513.881	33787.05
514.084	34075.81
514.286	34157.73
514.488	34366.62
514.69	35357.84
514.893	35247.25
515.095	35316.88
515.297	36025.48
515.499	36099.2
515.701	36521.09
515.904	37311.6
516.106	37207.15
516.308	37461.1
516.51	37719.15
516.712	37954.66
516.914	38554.72
517.116	38757.47
517.318	38777.95
517.52	39224.4
517.722	39570.51
517.925	39900.23
518.127	40666.17
518.329	40571.97
518.531	40324.16
518.733	41206.84
518.935	41882.67
519.136	41745.45
519.338	42497.06
519.54	42595.36
519.742	43066.39
519.944	43148.31
520.146	43787.28
520.348	43795.47
520.55	44340.23
520.752	43840.53
520.954	44841.98
521.155	44401.67
521.357	44981.24
521.559	45294.58
521.761	46255.08
521.963	46269.42
522.164	46058.48
522.366	46681.06
522.568	47092.7
522.77	47637.46
522.971	47784.91
523.173	47670.23
523.375	48231.37
523.576	48331.72
523.778	48634.82
523.98	48989.12
524.181	49132.48
524.383	49165.24
524.584	49947.57
524.786	49603.51
524.988	49603.51
525.189	50582.44
525.391	50437.03
525.592	51084.19
525.794	50873.25
525.995	51080.1
526.197	51145.63
526.398	51467.16
526.6	51499.93
526.801	52093.84
527.003	51917.71
527.204	51889.04
527.406	52953.99
527.607	52607.88
527.808	53289.85
528.01	52405.13
528.211	52935.55
528.412	53760.89
528.614	53130.11
528.815	53642.1
529.016	54297.45
529.218	53390.2
529.419	53887.86
529.62	53906.29
529.822	54100.85
530.023	53926.77
530.224	54070.13
530.425	54150
530.626	53898.1
530.828	53748.6
531.029	55034.72
531.23	54369.13
531.431	54760.3
531.632	54586.22
531.833	54932.32
532.035	54571.88
532.236	54610.79
532.437	54911.84
532.638	55092.07
532.839	55685.98
533.04	55419.74
533.241	54895.46
533.442	56091.47
533.643	55251.81
533.844	55407.45
534.045	55239.52
534.246	55290.72
534.447	55759.7
534.648	55341.92
534.849	55532.38
535.05	55415.65
535.251	55563.1
535.451	55835.48
535.652	55597.91
535.853	55714.65
536.054	55571.29
536.255	55737.18
536.456	55505.76
536.657	56085.33
536.857	55575.39
537.058	55489.37
537.259	55771.99
537.46	55776.09
537.66	55655.26
537.861	55810.9
538.062	55260
538.263	55372.64
538.463	55587.67
538.664	55337.82
538.865	55808.86
539.065	55868.25
539.266	54856.55
539.466	55923.54
539.667	55044.96
539.868	56095.57
540.068	55673.69
540.269	55753.56
540.469	55999.32
540.67	55282.53
540.87	55751.51
541.071	55567.19
541.271	55964.5
541.472	55712.6
541.672	55352.16
541.873	55321.44
542.073	55047.01
542.274	56054.61
542.474	55341.92
542.675	55067.49
542.875	55745.37
543.075	55427.93
543.276	54678.38
543.476	56021.84
543.676	54602.6
543.877	55423.84
544.077	55165.79
544.277	55597.91
544.478	55448.41
544.678	55776.09
544.878	55165.79
545.078	55432.03
545.279	55087.97
545.479	54868.84
545.679	55065.44
545.879	55317.34
546.079	55694.17
546.28	55317.34
546.48	55040.87
546.68	55210.85
546.88	55073.63
547.08	55051.11
547.28	55026.53
547.48	54924.13
547.68	55253.86
547.88	54649.7
548.081	55343.97
548.281	55542.62
548.481	54965.09
548.681	54997.86
548.881	55229.28
549.081	54834.02
549.28	54791.01
549.48	54999.91
549.68	54846.31
549.88	55475.04
550.08	54498.16
550.28	55022.44
550.48	54995.81
550.68	55497.56
550.88	55096.16
551.08	55038.82
551.279	55186.27
551.479	54479.72
551.679	55192.42
551.879	54645.61
552.079	55288.67
552.278	54856.55
552.478	54895.46
552.678	54858.6
552.878	55081.83
553.077	54915.94
553.277	54315.89
553.477	55079.78
553.676	54387.56
553.876	54489.96
554.076	54397.8
554.275	54127.47
554.475	54027.12
554.674	54621.03
554.874	54520.68
555.074	54031.22
555.273	54018.93
555.473	54860.65
555.672	54141.81
555.872	54125.42
556.071	54244.21
556.271	54674.28
556.47	54076.27
556.67	53613.43
556.869	53769.08
557.068	54375.28
557.268	53547.9
557.467	54088.56
557.667	53797.75
557.866	53752.69
558.065	53617.53
558.265	53265.28
558.464	53293.95
558.663	54063.99
558.863	53367.68
559.062	53916.53
559.261	52994.95
559.461	53838.71
559.66	53058.43
559.859	53054.34
560.058	52616.07
560.258	53216.13
560.457	52747.14
560.656	53179.26
560.855	52577.16
561.054	52745.09
561.253	51991.44
561.453	52861.83
561.652	52409.23
561.851	52976.51
562.05	52575.11
562.249	52104.08
562.448	52917.12
562.647	52480.91
562.846	51942.29
563.045	52329.36
563.244	51757.97
563.443	51958.67
563.642	51590.04
563.841	51590.04
564.04	51260.32
564.239	52009.87
564.438	51266.46
564.637	51680.15
564.836	51633.05
565.035	51157.92
565.234	51377.05
565.432	51039.14
565.631	50301.87
565.83	50574.25
566.029	50764.71
566.228	50768.8
566.427	50504.62
566.625	50484.14
566.824	49656.76
567.023	50578.34
567.222	49396.66
567.42	50291.63
567.619	50105.26
567.818	50011.06
568.016	49861.55
568.215	49830.83
568.414	49806.26
568.612	49966
568.811	49169.34
569.01	49550.26
569.208	49304.51
569.407	49402.81
569.605	48552.9
569.804	49077.18
570.002	48370.63
570.201	48853.95
570.4	48231.37
570.598	48327.63
570.797	48303.05
570.995	48554.95
571.193	47643.6
571.392	48126.92
571.59	48024.53
571.789	47352.79
571.987	47518.68
572.186	47391.7
572.384	47035.36
572.582	47934.42
572.781	47649.75
572.979	47064.03
573.177	47334.36
573.376	47236.06
573.574	46576.61
573.772	47074.27
573.971	46756.83
574.169	46232.55
574.367	46396.39
574.565	46597.09
574.763	45958.13
574.962	46437.35
575.16	45433.85
575.358	46271.46
575.556	44964.86
575.754	46185.45
575.952	45249.53
576.151	45548.53
576.349	45140.99
576.547	45356.02
576.745	45022.2
576.943	45104.12
577.141	45097.98
577.339	45022.2
577.537	44604.42
577.735	44792.83
577.933	44327.94
578.131	44528.64
578.329	44315.65
578.527	43926.54
578.725	44246.02
578.923	44332.04
579.121	43815.95
579.319	43605.01
579.516	44190.73
579.714	43375.64
579.912	43592.72
580.11	43451.41
580.308	43564.05
580.506	42961.95
580.704	42406.95
580.901	43064.35
581.099	43213.85
581.297	42497.06
581.495	42916.89
581.692	42857.5
581.89	42372.13
582.088	42632.22
582.285	42470.43
582.483	42456.1
582.681	41903.15
582.878	42101.8
583.076	41280.56
583.274	41907.24
583.471	41221.17
583.669	41657.39
583.866	41016.38
584.064	41159.73
584.262	41129.02
584.459	41159.73
584.657	40909.88
584.854	41641.01
585.052	40297.54
585.249	40977.47
585.447	40688.7
585.644	40358.98
585.841	40555.58
586.039	40774.72
586.236	40152.13
586.434	39808.08
586.631	39752.78
586.828	39955.53
587.026	40107.08
587.223	39973.96
587.42	39728.2
587.618	39953.48
587.815	38970.46
588.012	38976.6
588.21	39400.53
588.407	39496.78
588.604	39087.19
588.801	38755.42
588.999	38786.14
589.196	38259.81
589.393	38618.21
589.59	38425.7
589.787	38032.49
589.984	37784.68
590.182	37921.9
590.379	38198.37
590.576	37543.02
590.773	37878.89
590.97	37936.23
591.167	37680.24
591.364	37344.37
591.561	37598.32
591.758	37145.72
591.955	37123.19
592.152	37426.29
592.349	36910.2
592.546	37018.74
592.743	36885.62
592.94	36301.95
593.137	36859
593.334	36895.86
593.531	36062.34
593.727	36279.43
593.924	36541.57
594.121	35910.79
594.318	36025.48
594.515	35222.67
594.712	36076.68
594.908	35493.01
595.105	35921.03
595.302	35667.08
595.499	35798.15
595.696	35294.35
595.892	34876.57
596.089	35019.92
596.286	35189.91
596.482	35169.43
596.679	34710.68
596.876	34933.91
597.072	34684.06
597.269	34395.29
597.466	34176.16
597.662	33862.82
597.859	34200.74
598.055	34296.99
598.252	33674.41
598.448	33866.92
598.645	33604.78
598.841	33506.48
599.038	33313.97
599.234	33705.13
599.431	32922.8
599.627	33209.52
599.824	33299.63
600.02	32691.38
600.217	32896.18
600.413	32775.35
600.609	32697.53
600.806	32832.69
601.002	32763.06
601.198	32488.63
601.395	32224.45
601.591	32134.34
601.787	32117.95
601.984	31775.94
602.18	32584.89
602.376	31689.93
602.572	31716.55
602.769	31894.72
602.965	31405.26
603.161	31552.71
603.357	31212.75
603.553	31255.76
603.75	31294.67
603.946	30829.78
604.142	31290.57
604.338	30850.26
604.534	31102.16
604.73	30528.73
604.926	30264.54
605.122	30366.94
605.318	30205.15
605.514	30262.49
605.71	30149.85
605.906	30442.71
606.102	29998.3
606.298	29867.23
606.494	29816.04
606.69	30082.27
606.886	29879.52
607.082	29426.92
607.278	29959.39
607.474	29252.84
607.67	29734.12
607.866	29084.91
608.062	29701.35
608.257	29273.32
608.453	29537.51
608.649	29107.44
608.845	28986.61
609.041	29048.05
609.236	29064.43
609.432	29017.33
609.628	28990.7
609.824	28845.3
610.019	28382.46
610.215	28699.89
610.411	28847.35
610.606	28331.26
610.802	28650.74
610.998	28630.26
611.193	28218.62
611.389	28437.75
611.584	28062.97
611.78	27833.6
611.976	28126.46
612.171	28318.97
612.367	28122.37
612.562	27890.95
612.758	27505.93
612.953	27407.62
613.149	27995.39
613.344	27589.89
613.539	27892.99
613.735	27548.93
613.93	27745.54
614.126	27448.58
614.321	27575.56
614.517	27424.01
614.712	27553.03
614.907	27278.6
615.103	27368.71
615.298	27327.75
615.493	27288.84
615.688	26748.18
615.884	27254.03
616.079	26860.82
616.274	26944.78
616.47	27004.17
616.665	26850.58
616.86	27000.08
617.055	26508.57
617.25	26199.32
617.445	26907.92
617.641	25959.71
617.836	26471.7
618.031	26172.7
618.226	26252.57
618.421	26211.61
618.616	26498.33
618.811	25781.54
619.006	26279.19
619.201	25482.53
619.396	25615.65
619.591	25328.94
619.786	25683.23
619.981	25249.07
620.176	25570.6
620.371	24888.62
620.566	24984.88
620.761	24888.62
620.956	24972.59
621.151	24565.04
621.346	24722.74
621.541	24358.2
621.735	24548.66
621.93	24046.91
622.125	24241.46
622.32	23854.4
622.515	24266.04
622.709	24153.4
622.904	23721.28
623.099	23715.14
623.294	23586.11
623.488	22981.96
623.683	23264.58
623.878	23039.31
624.072	23168.33
624.267	22945.1
624.462	22824.27
624.656	22271.32
624.851	22705.49
625.046	22588.75
625.24	22343
625.435	22469.97
625.629	22205.78
625.824	21994.84
626.018	22076.76
626.213	21335.4
626.407	21925.21
626.602	21261.67
626.796	21194.09
626.991	21249.38
627.185	21187.94
627.38	20809.07
627.574	21056.87
627.768	20882.8
627.963	20843.88
628.157	20520.31
628.352	20577.65
628.546	20352.37
628.74	20407.67
628.935	19926.39
629.129	20206.97
629.323	19850.62
629.517	19774.84
629.712	19950.97
629.906	19903.87
630.1	19320.2
630.294	19578.24
630.489	19250.56
630.683	19330.44
630.877	19002.76
631.071	18822.54
631.265	19043.72
631.459	18695.57
631.653	18820.49
631.848	18765.2
632.042	18611.6
632.236	18621.84
632.43	18363.79
632.624	18357.65
632.818	18226.58
633.012	17878.43
633.206	18171.29
633.4	17884.57
633.594	17644.96
633.788	17647.01
633.982	17890.71
634.176	17311.14
634.369	17405.35
634.563	17614.24
634.757	17087.91
634.951	17249.7
635.145	16883.11
635.339	17034.66
635.533	16958.89
635.726	16854.44
635.92	16457.14
636.114	16666.03
636.308	16192.95
636.501	16455.09
636.695	16805.29
636.889	16319.92
637.083	16092.6
637.276	16039.35
637.47	16242.1
637.664	16049.59
637.857	16031.16
638.051	15850.94
638.244	15611.32
638.438	15461.82
638.632	15437.25
638.825	15416.77
639.019	15367.62
639.212	15166.92
639.406	15113.67
639.599	15160.77
639.793	15115.72
639.986	14757.32
640.18	14874.06
640.373	14747.08
640.567	14857.67
640.76	14532.04
640.954	14450.13
641.147	14474.7
641.34	14505.42
641.534	14353.87
641.727	14136.79
641.92	14245.33
642.114	14104.02
642.307	13891.03
642.5	13848.02
642.694	13667.8
642.887	13786.58
643.08	13757.91
643.273	13602.27
643.467	13665.75
643.66	13295.07
643.853	13397.47
644.046	13407.71
644.239	13190.63
644.432	13194.72
644.626	12834.28
644.819	13010.4
645.012	12889.57
645.205	13108.71
645.398	12619.24
645.591	12631.53
645.784	12744.17
645.977	12641.77
646.17	12750.31
646.363	12344.81
646.556	12365.29
646.749	12107.25
646.942	12332.53
647.135	12221.94
647.328	12215.79
647.521	12250.61
647.714	12152.31
647.907	12023.28
648.099	12062.19
648.292	12129.78
648.485	12035.57
648.678	11783.67
648.871	11630.07
649.064	11544.06
649.256	11748.86
649.449	11458.04
649.642	11621.88
649.835	11318.78
650.027	11314.69
650.22	11200
650.413	11027.97
650.605	11152.9
650.798	11136.51
650.991	11064.83
651.183	11136.51
651.376	10767.88
651.568	10939.91
651.761	10786.31
651.954	10780.17
652.146	10696.2
652.339	10585.61
652.531	10591.75
652.724	10544.65
652.916	10446.35
653.109	10358.28
653.301	10552.84
653.494	10317.33
653.686	10292.75
653.879	10378.76
654.071	10186.26
654.263	10235.41
654.456	10059.28
654.648	10159.63
654.84	9831.96
655.033	9805.33
655.225	10008.08
655.417	9848.34
655.61	9676.31
655.802	9836.05
655.994	9719.32
656.186	9494.04
656.379	9545.24
656.571	9473.56
656.763	9383.45
656.955	9379.36
657.148	9186.85
657.34	9434.65
657.532	9135.65
657.724	9076.26
657.916	8994.34
658.108	9004.58
658.3	8965.67
658.492	9029.15
658.684	9117.22
658.876	8830.5
659.068	8812.07
659.26	8746.53
659.452	8893.99
659.644	8853.03
659.836	8678.95
660.028	8736.29
660.22	8414.76
660.412	8586.79
660.604	8574.5
660.796	8480.3
660.988	8504.87
661.18	8447.53
661.372	8177.2
661.563	8373.8
661.755	8220.21
661.947	8250.92
662.139	8263.21
662.331	8175.15
662.522	8130.09
662.714	8054.32
662.906	7917.11
663.097	8011.31
663.289	7824.95
663.481	7870
663.673	7683.64
663.864	7794.23
664.056	7704.12
664.247	7829.04
664.439	7593.53
664.631	7761.46
664.822	7515.7
665.014	7560.76
665.205	7552.57
665.397	7386.68
665.588	7634.49
665.78	7530.04
665.971	7431.74
666.163	7351.87
666.354	7474.74
666.546	7317.05
666.737	7233.08
666.929	7073.34
667.12	7204.41
667.311	7181.89
667.503	7001.66
667.694	7024.19
667.885	7022.14
668.077	6923.84
668.268	6921.79
668.459	6956.61
668.651	6807.11
668.842	6938.18
669.033	6751.81
669.224	6809.15
669.416	6905.41
669.607	6938.18
669.798	6819.39
669.989	6813.25
670.18	6835.78
670.371	6628.93
670.563	6686.28
670.754	6454.86
670.945	6510.15
671.136	6600.26
671.327	6504.01
671.518	6409.8
671.709	6417.99
671.9	6592.07
672.091	6520.39
672.282	6450.76
672.473	6274.63
672.664	6452.81
672.855	6323.79
673.046	6313.55
673.237	6377.03
673.428	6196.81
673.619	6303.31
673.809	6188.62
674	6217.29
674.191	6229.58
674.382	5940.82
674.573	6121.04
674.764	6008.4
674.954	6213.2
675.145	6032.97
675.336	6014.54
675.527	6051.41
675.717	6008.4
675.908	6123.09
676.099	5965.39
676.289	5987.92
676.48	5819.99
676.671	5934.67
676.861	5949.01
677.052	5717.59
677.243	5908.05
677.433	5830.23
677.624	5932.62
677.814	5643.86
678.005	5709.4
678.195	5826.13
678.386	5729.88
678.576	5762.64
678.767	5740.12
678.957	5756.5
679.148	5838.42
679.338	5627.48
679.529	5740.12
679.719	5914.19
679.909	5781.07
680.1	5590.61
680.29	5664.34
680.481	5527.13
680.671	5742.16
680.861	5551.7
681.052	5566.04
681.242	5514.84
681.432	5613.14
681.622	5617.24
681.813	5545.56
682.003	5568.09
682.193	5559.89
682.383	5490.26
682.573	5574.23
682.764	5373.53
682.954	5596.76
683.144	5340.76
683.334	5441.11
683.524	5326.43
683.714	5547.61
683.904	5199.45
684.094	5416.54
684.284	5203.55
684.474	5383.77
684.664	5254.75
684.854	5422.68
685.044	5281.37
685.234	5324.38
685.424	5373.53
685.614	5299.8
685.804	5344.86
685.994	5283.42
686.184	5285.47
686.374	5203.55
686.564	5117.53
686.753	5035.61
686.943	4898.4
687.133	5242.46
687.323	5144.16
687.513	5156.44
687.702	5058.14
687.892	5049.95
688.082	5019.23
688.272	5041.76
688.461	4998.75
688.651	4898.4
688.841	4906.59
689.03	4980.32
689.22	4986.46
689.41	4793.95
689.599	4904.54
689.789	4738.66
689.979	4828.77
690.168	4742.75
690.358	4628.07
690.547	4728.42
690.737	4658.79
690.926	4669.03
691.116	4742.75
691.305	4742.75
691.495	4750.95
691.684	4634.21
691.874	4693.6
692.063	4535.91
692.252	4433.51
692.442	4531.81
692.631	4482.66
692.82	4499.05
693.01	4343.4
693.199	4386.41
693.388	4363.88
693.578	4441.7
693.767	4265.58
693.956	4361.83
694.146	4316.78
694.335	4181.61
694.524	4419.18
694.713	4423.27
694.902	4193.9
695.092	4361.83
695.281	4345.45
695.47	4267.63
695.659	4171.37
695.848	4187.75
696.037	4173.42
696.226	4189.8
696.415	4144.75
696.604	4148.84
696.793	4206.19
696.982	4109.93
697.171	4302.44
697.36	4111.98
697.549	4154.99
697.738	4241
697.927	4017.77
698.116	4062.83
698.305	4118.12
698.494	4163.18
698.683	4013.68
698.872	4202.09
699.061	4095.6
699.25	4083.31
699.438	3960.43
699.627	3939.95
699.816	3905.14
700.005	4042.35
700.193	4114.03
700.382	4013.68
700.571	3915.37
700.76	4066.92
700.948	3925.61
701.137	3999.34
701.326	3855.98
701.514	3939.95
701.703	3919.47
701.892	3958.38
702.08	3858.03
702.269	3909.23
702.457	4046.44
702.646	3898.99
702.834	3851.89
703.023	3989.1
703.212	3919.47
703.4	4007.53
703.589	3753.59
703.777	3952.24
703.965	3817.07
704.154	3786.35
704.342	3927.66
704.531	3860.08
704.719	3833.46
704.907	3894.9
705.096	3925.61
705.284	3874.42
705.472	3817.07
705.661	3800.69
705.849	3896.94
706.037	3870.32
706.226	3784.3
706.414	3917.42
706.602	3663.47
706.79	3874.42
706.979	3806.83
707.167	3808.88
707.355	3901.04
707.543	3831.41
707.731	3829.36
707.919	3804.78
708.107	3823.22
708.296	3903.09
708.484	3729.01
708.672	3671.67
708.86	3796.59
709.048	3907.18
709.236	3737.2
709.424	3812.98
709.612	3835.5
709.8	3804.78
709.988	3784.3
710.176	3731.06
710.364	3810.93
710.551	3800.69
710.739	3626.61
710.927	3686
711.115	3624.56
711.303	3710.58
711.491	3761.78
711.679	3716.72
711.866	3698.29
712.054	3743.35
712.242	3565.17
712.43	3649.14
712.617	3712.63
712.805	3751.54
712.993	3772.02
713.181	3673.71
713.368	3823.22
713.556	3841.65
713.744	3722.87
713.931	3765.87
714.119	3581.56
714.306	3778.16
714.494	3821.17
714.682	3735.15
714.869	3729.01
715.057	3698.29
715.244	3688.05
715.432	3837.55
715.619	3575.41
715.807	3702.39
715.994	3681.91
716.182	3690.1
716.369	3683.95
716.556	3640.95
716.744	3653.23
716.931	3704.43
717.119	3604.08
717.306	3706.48
717.493	3673.71
717.681	3612.28
717.868	3708.53
718.055	3677.81
718.242	3677.81
718.43	3790.45
718.617	3630.71
718.804	3761.78
718.991	3690.1
719.179	3624.56
719.366	3634.8
719.553	3655.28
719.74	3645.04
719.927	3690.1
720.114	3602.04
720.301	3513.97
720.488	3595.89
720.676	3759.73
720.863	3718.77
721.05	3655.28
721.237	3530.36
721.424	3587.7
721.611	3683.95
721.798	3706.48
721.985	3534.45
722.172	3665.52
722.358	3544.69
722.545	3726.96
722.732	3640.95
722.919	3604.08
723.106	3610.23
723.293	3604.08
723.48	3516.02
723.667	3501.69
723.853	3677.81
724.04	3556.98
724.227	3505.78
724.414	3391.09
724.6	3513.97
724.787	3591.8
724.974	3716.72
725.161	3485.3
725.347	3548.79
725.534	3436.15
725.72	3516.02
725.907	3503.73
726.094	3528.31
726.28	3427.96
726.467	3565.17
726.653	3694.19
726.84	3554.93
727.027	3550.84
727.213	3395.19
727.4	3382.9
727.586	3405.43
727.773	3462.77
727.959	3477.11
728.145	3567.22
728.332	3438.2
728.518	3540.6
728.705	3432.05
728.891	3399.29
729.077	3427.96
729.264	3468.92
729.45	3393.14
729.636	3468.92
729.823	3288.7
730.009	3536.5
730.195	3370.62
730.382	3499.64
730.568	3503.73
730.754	3405.43
730.94	3237.5
731.126	3413.62
731.313	3460.73
731.499	3354.23
731.685	3432.05
731.871	3430.01
732.057	3350.14
732.243	3374.71
732.429	3296.89
732.615	3354.23
732.801	3366.52
732.987	3501.69
733.173	3405.43
733.359	3413.62
733.545	3350.14
733.731	3421.81
733.917	3284.6
734.103	3315.32
734.289	3286.65
734.475	3331.7
734.661	3296.89
734.847	3370.62
735.033	3288.7
735.219	3346.04
735.404	3196.54
735.59	3266.17
735.776	3348.09
735.962	3206.78
736.148	3305.08
736.333	3260.02
736.519	3239.55
736.705	3208.83
736.89	3174.01
737.076	3239.55
737.262	3153.53
737.447	3143.29
737.633	3206.78
737.819	3280.5
738.004	3214.97
738.19	3178.11
738.375	3188.35
738.561	3210.87
738.747	3085.95
738.932	3124.86
739.118	3141.24
739.303	3214.97
739.489	3208.83
739.674	3161.72
739.859	3126.91
740.045	3124.86
740.23	3118.72
740.416	3034.75
740.601	3079.8
740.786	3026.56
740.972	2954.88
741.157	3028.6
741.342	3030.65
741.528	3059.32
741.713	3161.72
741.898	2999.93
742.084	2926.21
742.269	2870.91
742.454	3030.65
742.639	2950.78
742.824	3044.99
743.01	3004.03
743.195	2887.29
743.38	2834.05
743.565	2834.05
743.75	2961.02
743.935	2854.53
744.12	2942.59
744.305	2786.94
744.49	2797.18
744.675	2752.13
744.86	2862.72
745.045	2784.9
745.23	2772.61
745.415	2858.62
745.6	2637.44
745.785	2649.73
745.97	2770.56
746.155	2717.31
746.34	2793.09
746.525	2655.87
746.71	2700.93
746.895	2610.82
747.079	2559.62
747.264	2498.18
747.449	2653.83
747.634	2555.52
747.819	2494.08
748.003	2533
748.188	2449.03
748.373	2489.99
748.557	2477.7
748.742	2453.13
748.927	2344.58
749.111	2461.32
749.296	2604.67
749.481	2320.01
749.665	2469.51
749.85	2223.75
750.034	2442.89
750.219	2270.86
750.404	2297.48
750.588	2313.86
750.773	2215.56
750.957	2307.72
751.141	2217.61
751.326	2326.15
751.51	2193.03
751.695	2172.55
751.879	2238.09
752.064	2190.99
752.248	2057.87
752.432	2064.01
752.617	2190.99
752.801	2129.55
752.985	2119.31
753.17	2100.87
753.354	2031.24
753.538	2135.69
753.722	1986.19
753.907	2068.11
754.091	2092.68
754.275	1922.7
754.459	2014.86
754.643	1982.09
754.828	1914.51
755.012	1859.21
755.196	2008.72
755.38	1885.84
755.564	1881.74
755.748	1857.17
755.932	1969.8
756.116	1785.49
756.3	1908.37
756.484	1836.69
756.668	1910.41
756.852	1756.82
757.036	1822.35
757.22	1865.36
757.404	1633.94
757.588	1699.47
757.772	1693.33
757.956	1775.25
758.14	1750.67
758.323	1683.09
758.507	1633.94
758.691	1654.42
758.875	1697.42
759.059	1687.18
759.242	1650.32
759.426	1599.12
759.61	1580.69
759.794	1592.98
759.977	1529.49
760.161	1646.23
760.345	1547.92
760.528	1623.7
760.712	1625.75
760.895	1633.94
761.079	1588.88
761.263	1613.46
761.446	1572.5
761.63	1558.16
761.813	1615.51
761.997	1502.87
762.18	1556.11
762.364	1439.38
762.547	1506.96
762.731	1408.66
762.914	1484.44
763.098	1371.8
763.281	1414.81
763.464	1435.28
763.648	1480.34
763.831	1345.17
764.015	1451.67
764.198	1476.24
764.381	1535.64
764.564	1423
764.748	1306.26
764.931	1406.61
765.114	1330.84
765.297	1441.43
765.481	1357.46
765.664	1347.22
765.847	1351.32
766.03	1289.88
766.213	1357.46
766.397	1396.37
766.58	1382.04
766.763	1296.02
766.946	1357.46
767.129	1379.99
767.312	1253.02
767.495	1300.12
767.678	1222.3
767.861	1334.93
768.044	1218.2
768.227	1388.18
768.41	1248.92
768.593	1267.35
768.776	1199.77
768.959	1277.59
769.142	1359.51
769.324	1203.86
769.507	1183.38
769.69	1187.48
769.873	1189.53
770.056	1302.17
770.239	1250.97
770.421	1218.2
770.604	1240.73
770.787	1216.15
770.97	1138.33
771.152	1220.25
771.335	1160.86
771.518	1095.32
771.7	1156.76
771.883	1220.25
772.066	1093.27
772.248	1097.37
772.431	1138.33
772.613	1158.81
772.796	1109.66
772.978	1089.18
773.161	1123.99
773.343	1107.61
773.526	1050.27
773.708	1117.85
773.891	1085.08
774.073	1078.94
774.256	1050.27
774.438	1134.23
774.621	1072.79
774.803	1091.23
774.985	1058.46
775.168	1095.32
775.35	1025.69
775.532	1031.83
775.715	1040.03
775.897	1048.22
776.079	1007.26
776.261	966.3
776.444	931.48
776.626	941.72
776.808	958.11
776.99	960.16
777.173	908.96
777.355	956.06
777.537	921.24
777.719	976.54
777.901	880.29
778.083	888.48
778.265	900.76
778.447	843.42
778.629	835.23
778.811	857.76
778.993	886.43
779.175	923.29
779.357	861.85
779.539	812.7
779.721	804.51
779.903	798.37
780.085	786.08
780.267	878.24
780.449	814.75
780.631	861.85
780.812	849.57
780.994	839.33
781.176	757.41
781.358	784.03
781.54	806.56
781.721	837.28
781.903	759.46
782.085	732.83
782.267	765.6
782.448	710.3
782.63	786.08
782.812	628.39
782.993	722.59
783.175	679.58
783.357	681.63
783.538	683.68
783.72	663.2
783.901	677.54
784.083	665.25
784.264	767.65
784.446	642.72
784.627	659.1
784.809	765.6
784.99	630.43
785.172	679.58
785.353	564.9
785.535	640.67
785.716	693.92
785.897	591.52
786.079	636.58
786.26	683.68
786.441	648.86
786.623	577.19
786.804	517.79
786.985	622.24
787.167	528.03
787.348	622.24
787.529	556.71
787.71	640.67
787.891	612
788.073	607.91
788.254	501.41
788.435	573.09
788.616	650.91
788.797	583.33
788.978	601.76
789.159	534.18
789.34	595.62
789.522	538.27
789.703	468.64
789.884	552.61
790.065	487.08
790.246	536.23
790.427	550.56
790.607	546.47
790.788	585.38
790.969	503.46
791.15	595.62
791.331	503.46
791.512	544.42
791.693	403.11
791.874	433.83
792.054	546.47
792.235	462.5
792.416	439.97
792.597	446.12
792.778	472.74
792.958	468.64
793.139	454.31
793.32	476.84
793.5	505.51
793.681	431.78
793.862	454.31
794.042	364.2
794.223	474.79
794.404	491.17
794.584	409.25
794.765	427.68
794.945	413.35
795.126	439.97
795.306	480.93
795.487	439.97
795.667	384.68
795.848	464.55
796.028	470.69
796.209	462.5
796.389	396.96
796.57	337.57
796.75	378.53
796.93	448.16
797.111	429.73
797.291	341.67
797.471	407.2
797.652	364.2
797.832	360.1
798.012	409.25
798.192	347.81
798.373	327.33
798.553	306.85
798.733	394.92
798.913	413.35
799.093	298.66
799.274	351.91
799.454	411.3
799.634	272.04
799.814	396.96
799.994	394.92
800.174	341.67
800.354	356.01
800.534	331.43
800.714	372.39
800.894	327.33
801.074	341.67
801.254	294.57
801.434	370.34
801.614	374.44
801.794	280.23
801.974	986.78
802.154	274.09
802.334	343.72
802.514	278.18
802.693	333.48
802.873	286.37
803.053	372.39
803.233	364.2
803.413	368.29
803.592	343.72
803.772	347.81
803.952	333.48
804.131	190.12
804.311	329.38
804.491	341.67
804.67	272.04
804.85	317.09
805.03	292.52
805.209	302.76
805.389	321.19
805.568	251.56
805.748	300.71
805.928	286.37
806.107	325.29
806.287	257.7
806.466	241.32
806.646	181.93
806.825	302.76
807.004	202.41
807.184	298.66
807.363	366.25
807.543	245.41
807.722	306.85
807.901	218.79
808.081	349.86
808.26	249.51
808.439	269.99
808.619	222.89
808.798	245.41
808.977	202.41
809.156	284.33
809.336	351.91
809.515	298.66
809.694	265.89
809.873	267.94
810.052	313
810.231	259.75
810.411	300.71
810.59	315.05
810.769	202.41
810.948	306.85
811.127	241.32
811.306	204.46
811.485	265.89
811.664	280.23
811.843	183.98
812.022	157.35
812.201	239.27
812.38	239.27
812.559	134.82
812.737	206.5
812.916	212.65
813.095	126.63
813.274	206.5
813.453	247.46
813.632	274.09
813.811	247.46
813.989	210.6
814.168	202.41
814.347	118.44
814.526	241.32
814.704	192.17
814.883	224.94
815.062	216.74
815.24	214.7
815.419	165.54
815.598	276.13
815.776	286.37
815.955	200.36
816.133	155.3
816.312	249.51
816.49	249.51
816.669	157.35
816.847	167.59
817.026	239.27
817.204	97.96
817.383	229.03
817.561	261.8
817.74	198.31
817.918	251.56
818.097	136.87
818.275	171.69
818.453	235.18
818.632	136.87
818.81	202.41
818.988	161.45
819.167	206.5
819.345	280.23
819.523	196.26
819.701	212.65
819.879	212.65
820.058	136.87
820.236	173.74
820.414	208.55
820.592	157.35
820.77	206.5
820.948	196.26
821.127	136.87
821.305	151.21
821.483	91.82
821.661	200.36
821.839	202.41
822.017	202.41
822.195	192.17
822.373	229.03
822.551	169.64
822.729	253.61
822.907	147.11
823.085	192.17
823.262	143.02
823.44	122.54
823.618	169.64
823.796	159.4
823.974	132.78
824.152	136.87
824.329	134.82
824.507	106.15
824.685	155.3
824.863	165.54
825.04	175.78
825.218	169.64
825.396	138.92
825.574	231.08
825.751	151.21
825.929	167.59
826.107	114.34
826.284	126.63
826.462	73.39
826.639	222.89
826.817	59.05
826.994	79.53
827.172	87.72
827.349	175.78
827.527	110.25
827.704	42.67
827.882	198.31
828.059	118.44
828.237	132.78
828.414	171.69
828.591	85.67
828.769	216.74
828.946	102.06
829.124	151.21
829.301	46.76
829.478	126.63
829.655	112.3
829.833	114.34
830.01	3.75
830.187	89.77
830.364	206.5
830.542	134.82
830.719	157.35
830.896	159.4
831.073	89.77
831.25	108.2
831.427	122.54
831.604	138.92
831.782	116.39
831.959	145.06
832.136	118.44
832.313	67.24
832.49	114.34
832.667	210.6
832.844	132.78
833.021	161.45
833.198	57
833.374	155.3
833.551	104.11
833.728	63.15
833.905	177.83
834.082	132.78
834.259	126.63
834.436	169.64
834.612	102.06
834.789	183.98
834.966	48.81
835.143	128.68
835.319	48.81
835.496	171.69
835.673	91.82
835.85	116.39
836.026	65.19
836.203	85.67
836.38	93.87
836.556	85.67
836.733	89.77
836.909	155.3
837.086	122.54
837.262	73.39
837.439	52.91
837.616	32.43
837.792	114.34
837.968	108.2
838.145	149.16
838.321	32.43
838.498	140.97
838.674	100.01
838.851	50.86
839.027	65.19
839.203	108.2
839.38	118.44
839.556	122.54
839.732	114.34
839.909	106.15
840.085	126.63
840.261	44.71
840.437	181.93
840.614	106.15
840.79	100.01
840.966	93.87
841.142	75.43
841.318	50.86
841.494	95.91
841.671	104.11
841.847	69.29
842.023	106.15
842.199	132.78
842.375	126.63
842.551	63.15
842.727	50.86
842.903	104.11
843.079	93.87
843.255	93.87
843.431	93.87
843.607	151.21
843.783	11.95
843.959	138.92
844.134	69.29
844.31	149.16
844.486	108.2
844.662	20.14
844.838	32.43
845.013	52.91
845.189	65.19
845.365	16.04
845.541	130.73
845.716	28.33
845.892	65.19
846.068	77.48
846.244	44.71
846.419	87.72
846.595	69.29
846.77	67.24
846.946	59.05
847.122	81.58
847.297	48.81
847.473	126.63
847.648	24.23
847.824	108.2
847.999	42.67
848.175	54.95
848.35	126.63
848.526	97.96
848.701	89.77
848.876	75.43
849.052	28.33
849.227	20.14
849.403	36.52
849.578	52.91
849.753	77.48
849.929	52.91
850.104	7.85
850.279	97.96
850.454	13.99
850.63	79.53
850.805	81.58
850.98	63.15
851.155	52.91
851.33	126.63
851.505	61.1
851.681	48.81
851.856	-29.01
852.031	16.04
852.206	48.81
852.381	79.53
852.556	69.29
852.731	71.34
852.906	26.28
853.081	116.39
853.256	69.29
853.431	75.43
853.606	44.71
853.781	91.82
853.956	-0.34
854.131	48.81
854.305	3.75
854.48	65.19
854.655	48.81
854.83	44.71
855.005	65.19
855.18	20.14
855.354	50.86
855.529	-24.92
855.704	85.67
855.879	24.23
856.053	59.05
856.228	106.15
856.403	44.71
856.577	67.24
856.752	48.81
856.926	61.1
857.101	9.9
857.276	63.15
857.45	73.39
857.625	61.1
857.799	61.1
857.974	97.96
858.148	32.43
858.323	120.49
858.497	5.8
858.672	-12.63
858.846	65.19
859.02	-6.49
859.195	28.33
859.369	40.62
859.543	91.82
859.718	13.99
859.892	71.34
860.066	83.63
860.241	46.76
860.415	9.9
860.589	42.67
860.763	75.43
860.938	85.67
861.112	65.19
861.286	52.91
861.46	46.76
861.634	44.71
861.808	57
861.982	36.52
862.157	3.75
862.331	-16.73
862.505	32.43
862.679	46.76
862.853	-0.34
863.027	20.14
863.201	63.15
863.375	102.06
863.549	16.04
863.722	48.81
863.896	83.63
864.07	16.04
864.244	69.29
864.418	38.57
864.592	20.14
864.766	-16.73
864.939	26.28
865.113	24.23
865.287	11.95
865.461	13.99
865.634	71.34
865.808	30.38
865.982	-2.39
866.156	-33.11
866.329	48.81
866.503	52.91
866.676	97.96
866.85	46.76
867.024	91.82
867.197	57
867.371	40.62
867.544	46.76
867.718	-22.87
867.891	3.75
868.065	20.14
868.238	65.19
868.412	97.96
868.585	24.23
868.759	42.67
868.932	65.19
869.105	3.75
869.279	54.95
869.452	7.85
869.625	44.71
869.799	63.15
869.972	-67.92
870.145	38.57
870.319	54.95
870.492	18.09
870.665	42.67
870.838	-20.82
871.011	18.09
871.185	11.95
871.358	5.8
871.531	20.14
871.704	57
871.877	44.71
872.05	11.95
872.223	24.23
872.396	-39.25
872.569	65.19
872.742	46.76
872.915	28.33
873.088	-4.44
873.261	-43.35
873.434	18.09
873.607	32.43
873.78	81.58
873.953	-16.73
874.126	-20.82
874.299	30.38
874.471	16.04
874.644	108.2
874.817	-24.92
874.99	59.05
875.163	16.04
875.335	112.3
875.508	20.14
875.681	118.44
875.853	36.52
876.026	-33.11
876.199	34.47
876.371	32.43
876.544	-0.34
876.717	48.81
876.889	-45.4
877.062	28.33
877.234	-8.53
877.407	44.71
877.579	3.75
877.752	89.77
877.924	77.48
878.097	81.58
878.269	50.86
878.442	30.38
878.614	28.33
878.786	13.99
878.959	36.52
879.131	-14.68
879.303	-39.25
879.476	-12.63
879.648	73.39
879.82	81.58
879.993	28.33
880.165	-4.44
880.337	-61.78
880.509	36.52
880.681	11.95
880.854	73.39
881.026	28.33
881.198	79.53
881.37	26.28
881.542	71.34
881.714	9.9
881.886	44.71
882.058	-14.68
882.23	-45.4
882.402	-0.34
882.574	22.19
882.746	91.82
882.918	57
883.09	104.11
883.262	-20.82
883.434	20.14
883.606	-67.92
883.778	11.95
883.95	102.06
884.122	-2.39
884.293	71.34
884.465	-16.73
884.637	22.19
884.809	30.38
884.98	44.71
885.152	30.38
885.324	3.75
885.496	13.99
885.667	-16.73
885.839	11.95
886.011	46.76
886.182	18.09
886.354	61.1
886.525	65.19
886.697	22.19
886.869	46.76
887.04	-20.82
887.212	44.71
887.383	-2.39
887.555	52.91
887.726	5.8
887.897	57
888.069	57
888.24	24.23
888.412	50.86
888.583	24.23
888.754	20.14
888.926	36.52
889.097	100.01
889.268	-53.59
889.44	-24.92
889.611	11.95
889.782	32.43
889.953	16.04
890.125	85.67
890.296	-84.31
890.467	-16.73
890.638	81.58
890.809	73.39
890.98	7.85
891.151	50.86
891.323	83.63
891.494	42.67
891.665	9.9
891.836	50.86
892.007	18.09
892.178	-8.53
892.349	3.75
892.52	7.85
892.691	22.19
892.862	57
893.032	-16.73
893.203	32.43
893.374	7.85
893.545	30.38
893.716	-47.44
893.887	32.43
894.057	9.9
894.228	-16.73
894.399	67.24
894.57	-10.58
894.74	42.67
894.911	46.76
895.082	54.95
895.253	-35.16
895.423	5.8
895.594	22.19
895.764	7.85
895.935	65.19
896.106	42.67
896.276	-24.92
896.447	54.95
896.617	28.33
896.788	13.99
896.958	65.19
897.129	28.33
897.299	-22.87
897.47	40.62
897.64	63.15
897.81	-14.68
897.981	-8.53
898.151	48.81
898.322	-20.82
898.492	24.23
898.662	52.91
898.832	-16.73
899.003	22.19
899.173	-12.63
899.343	1.71
899.513	54.95
