Data from USB4F104151__239__10-30-36-149.txt Node

Date: Wed Mar 12 10:30:36 EDT 2025
User: louis
Spectrometer: USB4F10415
Trigger mode: 4
Integration Time (sec): 3.000000E-2
Scans to average: 1
Electric dark correction enabled: true
Nonlinearity correction enabled: false
Boxcar width: 0
XAxis mode: Wavelengths
Number of Pixels in Spectrum: 3648
>>>>>Begin Spectral Data<<<<<
178.204	-88.92
178.424	-88.92
178.644	-88.92
178.864	-101.2
179.084	-131.92
179.304	1.19
179.524	1.19
179.744	-52.05
179.964	36.01
180.184	-7
180.404	21.67
180.624	-43.86
180.844	-2.9
181.064	13.48
181.283	17.58
181.503	33.96
181.723	-19.29
181.943	-60.24
182.163	33.96
182.383	-2.9
182.602	64.68
182.822	52.39
183.042	-2.9
183.262	58.54
183.482	31.91
183.701	-4.95
183.921	-58.2
184.141	-90.96
184.361	50.35
184.58	19.63
184.8	-7
185.02	-15.19
185.239	79.02
185.459	54.44
185.679	56.49
185.898	-41.81
186.118	93.35
186.338	11.43
186.557	85.16
186.777	-37.72
186.997	3.24
187.216	13.48
187.436	-47.96
187.655	1.19
187.875	46.25
188.095	-9.05
188.314	-9.05
188.534	33.96
188.753	38.06
188.973	36.01
189.192	66.73
189.412	36.01
189.631	-29.52
189.851	-60.24
190.07	44.2
190.29	-37.72
190.509	36.01
190.729	9.39
190.948	52.39
191.168	191.66
191.387	19.63
191.607	-25.43
191.826	3.24
192.045	-15.19
192.265	66.73
192.484	76.97
192.704	-33.62
192.923	-29.52
193.142	50.35
193.362	60.59
193.581	25.77
193.8	42.15
194.02	101.55
194.239	25.77
194.458	23.72
194.678	-13.14
194.897	-4.95
195.116	50.35
195.335	36.01
195.555	62.63
195.774	5.29
195.993	52.39
196.212	7.34
196.432	-76.63
196.651	27.82
196.87	5.29
197.089	101.55
197.308	-27.48
197.528	1.19
197.747	-7
197.966	48.3
198.185	54.44
198.404	25.77
198.623	11.43
198.842	36.01
199.062	-60.24
199.281	5.29
199.5	25.77
199.719	31.91
199.938	87.21
200.157	-25.43
200.376	38.06
200.595	36.01
200.814	36.01
201.033	79.02
201.252	36.01
201.471	103.59
201.69	89.26
201.909	52.39
202.128	50.35
202.347	79.02
202.566	-2.9
202.785	-17.24
203.004	-21.33
203.223	70.83
203.442	-50
203.661	33.96
203.879	7.34
204.098	11.43
204.317	-27.48
204.536	70.83
204.755	-37.72
204.974	44.2
205.193	-13.14
205.411	109.74
205.63	56.49
205.849	-33.62
206.068	42.15
206.287	54.44
206.505	19.63
206.724	-0.85
206.943	25.77
207.162	1.19
207.381	-4.95
207.599	-21.33
207.818	-4.95
208.037	29.87
208.255	-74.58
208.474	-31.57
208.693	15.53
208.911	38.06
209.13	66.73
209.349	56.49
209.567	-23.38
209.786	11.43
210.005	54.44
210.223	-2.9
210.442	23.72
210.661	19.63
210.879	44.2
211.098	36.01
211.316	9.39
211.535	74.92
211.753	19.63
211.972	15.53
212.191	5.29
212.409	33.96
212.628	72.87
212.846	-23.38
213.065	13.48
213.283	15.53
213.502	66.73
213.72	38.06
213.938	-11.09
214.157	-62.29
214.375	3.24
214.594	46.25
214.812	76.97
215.031	-2.9
215.249	-7
215.467	46.25
215.686	21.67
215.904	119.98
216.122	-39.76
216.341	42.15
216.559	5.29
216.778	68.78
216.996	48.3
217.214	44.2
217.432	46.25
217.651	-19.29
217.869	38.06
218.087	23.72
218.306	-2.9
218.524	-7
218.742	44.2
218.96	3.24
219.179	9.39
219.397	44.2
219.615	66.73
219.833	25.77
220.051	23.72
220.27	-11.09
220.488	58.54
220.706	46.25
220.924	-27.48
221.142	9.39
221.36	17.58
221.578	15.53
221.796	38.06
222.015	33.96
222.233	36.01
222.451	107.69
222.669	29.87
222.887	1.19
223.105	-4.95
223.323	-27.48
223.541	58.54
223.759	40.11
223.977	17.58
224.195	13.48
224.413	9.39
224.631	3.24
224.849	40.11
225.067	7.34
225.285	3.24
225.503	-21.33
225.721	-78.68
225.939	9.39
226.157	42.15
226.375	52.39
226.592	-103.25
226.81	44.2
227.028	66.73
227.246	62.63
227.464	38.06
227.682	42.15
227.9	62.63
228.117	29.87
228.335	29.87
228.553	-56.15
228.771	1.19
228.989	62.63
229.206	46.25
229.424	27.82
229.642	27.82
229.86	48.3
230.077	50.35
230.295	-21.33
230.513	38.06
230.731	95.4
230.948	44.2
231.166	-35.67
231.384	17.58
231.601	44.2
231.819	38.06
232.037	74.92
232.254	38.06
232.472	33.96
232.689	-13.14
232.907	74.92
233.125	3.24
233.342	-56.15
233.56	-11.09
233.777	38.06
233.995	44.2
234.213	70.83
234.43	-56.15
234.648	-43.86
234.865	33.96
235.083	-35.67
235.3	62.63
235.518	3.24
235.735	62.63
235.953	42.15
236.17	-9.05
236.388	54.44
236.605	-13.14
236.822	-0.85
237.04	42.15
237.257	-66.39
237.475	-23.38
237.692	48.3
237.909	27.82
238.127	29.87
238.344	72.87
238.562	79.02
238.779	-54.1
238.996	29.87
239.214	15.53
239.431	72.87
239.648	-41.81
239.865	66.73
240.083	33.96
240.3	11.43
240.517	17.58
240.735	23.72
240.952	31.91
241.169	36.01
241.386	70.83
241.603	13.48
241.821	46.25
242.038	13.48
242.255	21.67
242.472	3.24
242.689	19.63
242.907	-11.09
243.124	66.73
243.341	-119.64
243.558	-27.48
243.775	-19.29
243.992	-56.15
244.209	17.58
244.426	31.91
244.643	27.82
244.86	7.34
245.078	64.68
245.295	-43.86
245.512	25.77
245.729	-19.29
245.946	1.19
246.163	27.82
246.38	36.01
246.597	21.67
246.814	124.07
247.031	-21.33
247.248	27.82
247.464	33.96
247.681	40.11
247.898	-15.19
248.115	-39.76
248.332	-35.67
248.549	66.73
248.766	68.78
248.983	46.25
249.2	103.59
249.417	-0.85
249.633	83.11
249.85	-37.72
250.067	19.63
250.284	19.63
250.501	31.91
250.717	56.49
250.934	7.34
251.151	9.39
251.368	46.25
251.585	95.4
251.801	-19.29
252.018	-25.43
252.235	27.82
252.451	13.48
252.668	29.87
252.885	5.29
253.102	85.16
253.318	101.55
253.535	42.15
253.752	23.72
253.968	-11.09
254.185	66.73
254.401	25.77
254.618	40.11
254.835	58.54
255.051	87.21
255.268	9.39
255.484	66.73
255.701	50.35
255.917	42.15
256.134	-13.14
256.351	42.15
256.567	9.39
256.784	21.67
257	42.15
257.217	11.43
257.433	42.15
257.65	-4.95
257.866	27.82
258.082	1.19
258.299	-37.72
258.515	3.24
258.732	17.58
258.948	-50
259.165	50.35
259.381	99.5
259.597	52.39
259.814	-27.48
260.03	25.77
260.246	3.24
260.463	64.68
260.679	38.06
260.895	101.55
261.112	97.45
261.328	-58.2
261.544	38.06
261.761	158.89
261.977	17.58
262.193	-11.09
262.409	17.58
262.626	-11.09
262.842	-15.19
263.058	-21.33
263.274	48.3
263.49	-13.14
263.707	117.93
263.923	83.11
264.139	-74.58
264.355	-15.19
264.571	87.21
264.787	33.96
265.004	-17.24
265.22	25.77
265.436	-31.57
265.652	74.92
265.868	19.63
266.084	-35.67
266.3	50.35
266.516	52.39
266.732	21.67
266.948	-76.63
267.164	36.01
267.38	40.11
267.596	60.59
267.812	36.01
268.028	-19.29
268.244	13.48
268.46	58.54
268.676	-23.38
268.892	-9.05
269.108	-45.91
269.324	-9.05
269.54	-2.9
269.756	79.02
269.972	29.87
270.188	52.39
270.403	-33.62
270.619	-52.05
270.835	-43.86
271.051	70.83
271.267	-11.09
271.483	68.78
271.698	70.83
271.914	-43.86
272.13	-29.52
272.346	11.43
272.562	107.69
272.777	40.11
272.993	29.87
273.209	33.96
273.425	11.43
273.64	-72.53
273.856	46.25
274.072	25.77
274.287	-60.24
274.503	-21.33
274.719	85.16
274.934	76.97
275.15	3.24
275.366	83.11
275.581	5.29
275.797	-19.29
276.012	-39.76
276.228	44.2
276.444	52.39
276.659	-19.29
276.875	-62.29
277.09	-19.29
277.306	-9.05
277.521	27.82
277.737	-25.43
277.952	46.25
278.168	23.72
278.383	79.02
278.599	13.48
278.814	60.59
279.03	54.44
279.245	150.7
279.461	-31.57
279.676	33.96
279.892	-23.38
280.107	42.15
280.322	19.63
280.538	79.02
280.753	-27.48
280.969	27.82
281.184	19.63
281.399	91.31
281.615	-4.95
281.83	72.87
282.045	13.48
282.26	38.06
282.476	5.29
282.691	25.77
282.906	15.53
283.122	1.19
283.337	115.88
283.552	38.06
283.767	-4.95
283.983	33.96
284.198	42.15
284.413	27.82
284.628	29.87
284.843	-43.86
285.058	29.87
285.274	-17.24
285.489	19.63
285.704	23.72
285.919	3.24
286.134	33.96
286.349	54.44
286.564	21.67
286.779	54.44
286.995	70.83
287.21	36.01
287.425	46.25
287.64	29.87
287.855	42.15
288.07	-7
288.285	93.35
288.5	124.07
288.715	13.48
288.93	29.87
289.145	25.77
289.36	13.48
289.575	9.39
289.79	27.82
290.004	91.31
290.219	56.49
290.434	44.2
290.649	99.5
290.864	-2.9
291.079	42.15
291.294	64.68
291.509	-27.48
291.724	-15.19
291.938	38.06
292.153	21.67
292.368	70.83
292.583	85.16
292.798	44.2
293.012	48.3
293.227	46.25
293.442	11.43
293.657	-9.05
293.871	76.97
294.086	50.35
294.301	68.78
294.516	25.77
294.73	29.87
294.945	87.21
295.16	42.15
295.374	-4.95
295.589	109.74
295.804	1.19
296.018	56.49
296.233	50.35
296.447	-17.24
296.662	48.3
296.877	76.97
297.091	33.96
297.306	11.43
297.52	5.29
297.735	-7
297.949	19.63
298.164	33.96
298.378	29.87
298.593	46.25
298.807	-2.9
299.022	-2.9
299.236	74.92
299.451	64.68
299.665	5.29
299.88	48.3
300.094	85.16
300.309	107.69
300.523	19.63
300.737	-13.14
300.952	5.29
301.166	46.25
301.381	50.35
301.595	27.82
301.809	9.39
302.024	3.24
302.238	3.24
302.452	122.02
302.667	36.01
302.881	3.24
303.095	64.68
303.309	13.48
303.524	9.39
303.738	13.48
303.952	-23.38
304.166	72.87
304.381	-4.95
304.595	46.25
304.809	21.67
305.023	19.63
305.237	85.16
305.452	62.63
305.666	58.54
305.88	66.73
306.094	38.06
306.308	36.01
306.522	81.07
306.736	76.97
306.95	74.92
307.164	58.54
307.379	5.29
307.593	85.16
307.807	54.44
308.021	3.24
308.235	-0.85
308.449	33.96
308.663	5.29
308.877	19.63
309.091	40.11
309.305	103.59
309.519	15.53
309.733	13.48
309.947	-43.86
310.161	95.4
310.374	25.77
310.588	70.83
310.802	-7
311.016	42.15
311.23	23.72
311.444	-15.19
311.658	48.3
311.872	29.87
312.085	-11.09
312.299	72.87
312.513	29.87
312.727	36.01
312.941	3.24
313.154	68.78
313.368	21.67
313.582	1.19
313.796	52.39
314.009	-29.52
314.223	54.44
314.437	15.53
314.651	115.88
314.864	-9.05
315.078	27.82
315.292	-0.85
315.505	60.59
315.719	58.54
315.933	-33.62
316.146	-11.09
316.36	76.97
316.573	29.87
316.787	46.25
317.001	79.02
317.214	5.29
317.428	68.78
317.641	9.39
317.855	64.68
318.068	97.45
318.282	54.44
318.495	72.87
318.709	89.26
318.922	-17.24
319.136	99.5
319.349	76.97
319.563	5.29
319.776	15.53
319.99	-72.53
320.203	76.97
320.417	60.59
320.63	60.59
320.843	136.36
321.057	91.31
321.27	81.07
321.483	19.63
321.697	42.15
321.91	52.39
322.124	-15.19
322.337	-33.62
322.55	19.63
322.763	74.92
322.977	3.24
323.19	7.34
323.403	46.25
323.617	66.73
323.83	70.83
324.043	13.48
324.256	23.72
324.469	13.48
324.683	-35.67
324.896	44.2
325.109	46.25
325.322	-25.43
325.535	38.06
325.748	3.24
325.962	-17.24
326.175	44.2
326.388	91.31
326.601	-13.14
326.814	-23.38
327.027	5.29
327.24	109.74
327.453	-11.09
327.666	42.15
327.879	38.06
328.092	38.06
328.305	95.4
328.518	122.02
328.731	15.53
328.944	38.06
329.157	-2.9
329.37	11.43
329.583	87.21
329.796	72.87
330.009	9.39
330.222	91.31
330.435	29.87
330.648	48.3
330.861	58.54
331.073	95.4
331.286	66.73
331.499	-2.9
331.712	36.01
331.925	68.78
332.138	66.73
332.35	42.15
332.563	-19.29
332.776	-9.05
332.989	-11.09
333.202	-37.72
333.414	-39.76
333.627	60.59
333.84	46.25
334.053	-13.14
334.265	9.39
334.478	46.25
334.691	33.96
334.903	11.43
335.116	25.77
335.329	68.78
335.541	66.73
335.754	42.15
335.966	15.53
336.179	40.11
336.392	-15.19
336.604	70.83
336.817	58.54
337.029	-2.9
337.242	46.25
337.454	72.87
337.667	27.82
337.88	52.39
338.092	9.39
338.305	29.87
338.517	-43.86
338.729	40.11
338.942	-0.85
339.154	58.54
339.367	33.96
339.579	-50
339.792	-4.95
340.004	58.54
340.217	5.29
340.429	-35.67
340.641	-2.9
340.854	-23.38
341.066	-27.48
341.278	7.34
341.491	89.26
341.703	-33.62
341.915	7.34
342.128	38.06
342.34	107.69
342.552	42.15
342.764	74.92
342.977	-25.43
343.189	-41.81
343.401	38.06
343.613	-0.85
343.826	13.48
344.038	-37.72
344.25	70.83
344.462	56.49
344.674	44.2
344.886	60.59
345.099	79.02
345.311	46.25
345.523	-2.9
345.735	29.87
345.947	144.55
346.159	23.72
346.371	17.58
346.583	46.25
346.795	66.73
347.007	46.25
347.219	42.15
347.431	17.58
347.643	40.11
347.855	13.48
348.067	68.78
348.279	17.58
348.491	54.44
348.703	91.31
348.915	7.34
349.127	-15.19
349.339	33.96
349.551	-23.38
349.763	54.44
349.975	81.07
350.187	87.21
350.399	79.02
350.61	11.43
350.822	70.83
351.034	79.02
351.246	23.72
351.458	101.55
351.669	21.67
351.881	81.07
352.093	58.54
352.305	23.72
352.517	46.25
352.728	44.2
352.94	31.91
353.152	50.35
353.363	54.44
353.575	91.31
353.787	79.02
353.999	-2.9
354.21	111.78
354.422	-7
354.633	9.39
354.845	11.43
355.057	42.15
355.268	62.63
355.48	-19.29
355.692	1.19
355.903	25.77
356.115	66.73
356.326	-23.38
356.538	66.73
356.749	140.46
356.961	103.59
357.172	-19.29
357.384	21.67
357.595	58.54
357.807	15.53
358.018	19.63
358.23	62.63
358.441	60.59
358.653	111.78
358.864	42.15
359.075	13.48
359.287	15.53
359.498	9.39
359.709	44.2
359.921	70.83
360.132	-9.05
360.344	36.01
360.555	25.77
360.766	103.59
360.977	23.72
361.189	66.73
361.4	17.58
361.611	54.44
361.823	15.53
362.034	48.3
362.245	50.35
362.456	62.63
362.667	19.63
362.879	15.53
363.09	74.92
363.301	58.54
363.512	23.72
363.723	5.29
363.935	-7
364.146	60.59
364.357	11.43
364.568	81.07
364.779	17.58
364.99	79.02
365.201	64.68
365.412	40.11
365.623	1.19
365.834	3.24
366.045	-0.85
366.256	15.53
366.467	-0.85
366.678	117.93
366.889	79.02
367.1	-2.9
367.311	58.54
367.522	48.3
367.733	15.53
367.944	66.73
368.155	1.19
368.366	70.83
368.577	97.45
368.788	79.02
368.999	38.06
369.209	76.97
369.42	101.55
369.631	46.25
369.842	64.68
370.053	83.11
370.264	156.84
370.474	54.44
370.685	54.44
370.896	-9.05
371.107	42.15
371.317	60.59
371.528	19.63
371.739	46.25
371.95	87.21
372.16	31.91
372.371	52.39
372.582	42.15
372.792	54.44
373.003	21.67
373.214	40.11
373.424	23.72
373.635	81.07
373.846	58.54
374.056	-47.96
374.267	107.69
374.477	79.02
374.688	46.25
374.898	-4.95
375.109	85.16
375.319	72.87
375.53	13.48
375.74	38.06
375.951	-21.33
376.161	99.5
376.372	93.35
376.582	-7
376.793	19.63
377.003	38.06
377.214	74.92
377.424	54.44
377.635	66.73
377.845	5.29
378.055	15.53
378.266	46.25
378.476	87.21
378.686	68.78
378.897	36.01
379.107	46.25
379.317	136.36
379.528	-13.14
379.738	17.58
379.948	46.25
380.158	76.97
380.369	70.83
380.579	15.53
380.789	54.44
380.999	-13.14
381.21	29.87
381.42	165.03
381.63	66.73
381.84	113.83
382.05	13.48
382.261	72.87
382.471	79.02
382.681	13.48
382.891	17.58
383.101	99.5
383.311	50.35
383.521	15.53
383.731	42.15
383.941	95.4
384.151	74.92
384.361	83.11
384.571	15.53
384.781	107.69
384.991	62.63
385.201	152.74
385.411	87.21
385.621	70.83
385.831	74.92
386.041	29.87
386.251	46.25
386.461	1.19
386.671	5.29
386.881	99.5
387.091	107.69
387.301	52.39
387.511	-0.85
387.72	50.35
387.93	36.01
388.14	27.82
388.35	38.06
388.56	107.69
388.769	93.35
388.979	9.39
389.189	-0.85
389.399	40.11
389.609	91.31
389.818	126.12
390.028	132.26
390.238	56.49
390.447	56.49
390.657	58.54
390.867	13.48
391.076	29.87
391.286	85.16
391.496	27.82
391.705	38.06
391.915	89.26
392.125	105.64
392.334	62.63
392.544	76.97
392.753	38.06
392.963	9.39
393.172	74.92
393.382	19.63
393.591	152.74
393.801	15.53
394.01	113.83
394.22	91.31
394.429	142.5
394.639	101.55
394.848	42.15
395.058	62.63
395.267	124.07
395.477	150.7
395.686	152.74
395.895	156.84
396.105	85.16
396.314	54.44
396.524	97.45
396.733	56.49
396.942	134.31
397.152	68.78
397.361	115.88
397.57	105.64
397.78	119.98
397.989	54.44
398.198	169.13
398.407	89.26
398.617	103.59
398.826	109.74
399.035	103.59
399.244	111.78
399.453	85.16
399.663	122.02
399.872	119.98
400.081	48.3
400.29	130.22
400.499	9.39
400.708	189.61
400.917	99.5
401.127	72.87
401.336	113.83
401.545	152.74
401.754	165.03
401.963	68.78
402.172	128.17
402.381	85.16
402.59	111.78
402.799	70.83
403.008	158.89
403.217	146.6
403.426	89.26
403.635	42.15
403.844	128.17
404.053	132.26
404.262	79.02
404.471	171.18
404.68	140.46
404.888	158.89
405.097	124.07
405.306	146.6
405.515	169.13
405.724	148.65
405.933	220.33
406.142	148.65
406.35	234.66
406.559	212.14
406.768	181.42
406.977	216.23
407.185	218.28
407.394	208.04
407.603	144.55
407.812	214.18
408.02	214.18
408.229	214.18
408.438	208.04
408.646	279.72
408.855	222.38
409.064	298.15
409.272	242.85
409.481	310.44
409.69	304.29
409.898	294.05
410.107	410.79
410.315	361.64
410.524	384.16
410.733	359.59
410.941	369.83
411.15	304.29
411.358	410.79
411.567	517.28
411.775	394.4
411.984	453.8
412.192	431.27
412.401	464.04
412.609	597.15
412.818	494.76
413.026	515.23
413.234	597.15
413.443	500.9
413.651	560.29
413.86	570.53
414.068	679.07
414.276	740.51
414.485	631.97
414.693	771.23
414.901	736.42
415.11	672.93
415.318	711.84
415.526	910.49
415.734	904.35
415.943	849.05
416.151	871.58
416.359	933.02
416.567	892.06
416.776	947.36
416.984	1090.71
417.192	1115.29
417.4	1127.58
417.608	1135.77
417.817	1150.11
418.025	1242.26
418.233	1250.46
418.441	1344.66
418.649	1238.17
418.857	1391.77
419.065	1414.29
419.273	1457.3
419.481	1522.84
419.689	1574.03
419.897	1584.27
420.105	1705.1
420.313	1698.96
420.521	1827.98
420.729	1762.45
420.937	1881.23
421.145	1909.9
421.353	2022.54
421.561	1967.24
421.769	2088.07
421.977	2217.1
422.185	2307.21
422.393	2352.26
422.601	2536.58
422.809	2534.53
423.017	2577.54
423.224	2600.07
423.432	2741.38
423.64	2763.9
423.848	3058.81
424.056	3026.04
424.263	3114.11
424.471	3263.61
424.679	3200.12
424.887	3503.22
425.094	3542.13
425.302	3624.05
425.51	3652.72
425.718	3732.59
425.925	3867.76
426.133	3882.1
426.341	4336.74
426.548	4330.6
426.756	4320.36
426.964	4525.16
427.171	4605.03
427.379	4621.41
427.586	4914.27
427.794	5090.4
428.001	5078.11
428.209	5438.55
428.417	5358.68
428.624	5844.05
428.832	5786.71
429.039	5692.5
429.247	5817.43
429.454	6288.46
429.662	6851.65
429.869	6292.55
430.076	6845.51
430.284	6526.02
430.491	6763.59
430.699	7382.07
430.906	7259.2
431.114	7271.48
431.321	7515.19
431.528	7492.66
431.736	8078.38
431.943	8631.33
432.15	8346.67
432.358	8401.96
432.565	8696.87
432.772	9073.7
432.979	9368.6
433.187	9391.13
433.394	9358.36
433.601	9970.71
433.808	10165.26
434.016	9843.73
434.223	10564.62
434.43	11154.43
434.637	10869.76
434.844	11617.27
435.052	11709.43
435.259	11703.29
435.466	11801.59
435.673	11600.89
435.88	12835.81
436.087	13067.24
436.294	13175.78
436.501	12712.94
436.708	13026.28
436.915	13636.57
437.122	14023.64
437.329	13925.33
437.537	14652.36
437.743	14937.03
437.95	14875.59
438.157	15451.07
438.364	16044.98
438.571	15788.99
438.778	16053.17
438.985	17630.11
439.192	16788.39
439.399	17298.34
439.606	16724.91
439.813	17867.67
440.02	18961.29
440.227	18488.21
440.433	18697.1
440.64	19100.55
440.847	18766.73
441.054	19313.54
441.261	20687.73
441.467	20292.47
441.674	20992.87
441.881	21592.93
442.088	21707.62
442.294	21265.25
442.501	21662.56
442.708	22459.22
442.914	23145.29
443.121	24107.83
443.328	23644.99
443.534	25051.95
443.741	24288.06
443.948	24175.42
444.154	25893.66
444.361	25697.06
444.568	26139.42
444.774	25731.87
444.981	26145.56
445.187	26966.8
445.394	27904.77
445.6	27839.23
445.807	30239.45
446.013	28820.21
446.22	29682.41
446.426	30505.69
446.633	30761.69
446.839	31818.44
447.046	30765.78
447.252	32242.37
447.459	32258.75
447.665	32152.26
447.871	33512.11
448.078	34927.25
448.284	33213.1
448.491	34175.65
448.697	35365.52
448.903	36029.06
449.11	36166.27
449.316	35330.7
449.522	36113.03
449.728	37206.64
449.935	37413.49
450.141	37159.54
450.347	38140.52
450.553	36940.41
450.76	37591.66
450.966	38431.33
451.172	37823.08
451.378	38924.89
451.584	38605.41
451.791	39174.74
451.997	38697.56
452.203	39414.35
452.409	39377.49
452.615	38857.31
452.821	37804.65
453.027	37606
453.233	39223.89
453.44	37997.16
453.646	38066.79
453.852	38265.44
454.058	38980.18
454.264	37534.32
454.47	38142.56
454.676	37194.36
454.882	38629.98
455.088	35408.53
455.294	35809.93
455.5	36074.12
455.705	36719.23
455.911	35000.98
456.117	34751.13
456.323	33895.08
456.529	32385.72
456.735	33647.27
456.941	32840.37
457.147	32144.06
457.352	31328.97
457.558	30896.85
457.764	30843.6
457.97	30325.47
458.176	29692.65
458.381	29479.66
458.587	28379.9
458.793	28152.57
458.999	27155.21
459.204	28519.16
459.41	27919.1
459.616	26110.75
459.821	26256.15
460.027	25940.77
460.233	25441.06
460.438	23987
460.644	24607.54
460.85	23253.83
461.055	22952.78
461.261	22858.57
461.466	21468
461.672	20525.94
461.878	22047.58
462.083	20575.09
462.289	20239.22
462.494	20233.08
462.7	19495.81
462.905	18686.86
463.111	19522.43
463.316	19516.29
463.522	19284.87
463.727	19094.41
463.932	19006.34
464.138	18748.3
464.343	18813.84
464.549	18189.21
464.754	19151.75
464.959	18693.01
465.165	18563.98
465.37	17802.14
465.575	17247.14
465.781	17939.35
465.986	18332.56
466.191	17666.97
466.397	17058.73
466.602	16444.34
466.807	17279.91
467.012	17206.18
467.218	16864.17
467.423	16696.24
467.628	16853.93
467.833	17437.6
468.038	16898.98
468.244	16182.2
468.449	17005.48
468.654	16386.99
468.859	16462.77
469.064	16395.18
469.269	15555.52
469.474	15680.44
469.679	16094.13
469.885	15549.37
470.09	15762.36
470.295	15780.79
470.5	15612.86
470.705	15498.17
470.91	15018.95
471.115	14873.54
471.32	15143.88
471.525	15010.76
471.73	14894.02
471.935	14394.32
472.139	14015.44
472.344	14212.05
472.549	14158.8
472.754	13917.14
472.959	13681.63
473.164	13560.8
473.369	13296.61
473.574	13814.74
473.778	13855.7
473.983	13446.11
474.188	13329.38
474.393	12846.05
474.598	12835.81
474.802	12622.83
475.007	12813.29
475.212	12837.86
475.417	12301.29
475.621	12282.86
475.826	12432.36
476.031	12076.02
476.235	11922.42
476.44	12041.2
476.645	11846.65
476.849	11922.42
477.054	11656.18
477.259	11408.38
477.463	11416.57
477.668	11240.45
477.872	11482.11
478.077	11193.34
478.282	10734.6
478.486	10796.04
478.691	10724.36
478.895	10865.67
479.1	10824.71
479.304	10662.92
479.509	10361.87
479.713	10597.38
479.918	10204.17
480.122	10181.65
480.326	10152.98
480.531	10517.51
480.735	10095.63
480.94	10083.34
481.144	10380.3
481.348	10007.57
481.553	10198.03
481.757	9929.75
481.961	9960.47
482.166	10130.45
482.37	10189.84
482.574	9909.27
482.778	10001.43
482.983	10296.33
483.187	9970.71
483.391	10310.67
483.595	10073.1
483.8	9735.19
484.004	9915.41
484.208	10050.58
484.412	9825.3
484.616	9927.7
484.821	9966.61
485.025	9790.49
485.229	9909.27
485.433	9761.81
485.637	9997.33
485.841	9860.12
486.045	9626.65
486.249	10093.58
486.453	9692.18
486.657	10034.19
486.861	10023.95
487.065	9624.6
487.269	9982.99
487.473	9731.09
487.677	10138.64
487.881	10077.2
488.085	9933.84
488.289	10218.51
488.493	9991.19
488.697	9980.95
488.901	9964.56
489.105	9923.6
489.309	10001.43
489.512	9985.04
489.716	10013.71
489.92	10273.81
490.124	10128.4
490.328	10306.57
490.531	10009.62
490.735	10376.2
490.939	10394.64
491.143	9921.56
491.346	10341.39
491.55	10562.57
491.754	10408.97
491.958	10638.34
492.161	10445.84
492.365	10427.4
492.569	10474.51
492.772	10404.88
492.976	10431.5
493.18	10650.63
493.383	10699.78
493.587	10787.85
493.79	11115.52
493.994	10988.55
494.197	10933.25
494.401	11224.06
494.605	10918.92
494.808	11195.39
495.012	11482.11
495.215	11484.16
495.419	11183.1
495.622	11592.7
495.825	11527.16
496.029	11699.19
496.232	11924.47
496.436	11895.8
496.639	12061.68
496.843	11987.96
497.046	12221.42
497.249	12493.8
497.453	12383.21
497.656	12872.68
497.859	12704.74
498.063	12717.03
498.266	13308.9
498.469	13186.02
498.673	13435.87
498.876	13368.29
499.079	13632.47
499.282	13466.59
499.485	14037.97
499.689	13970.39
499.892	14132.18
500.095	14224.34
500.298	14609.36
500.501	14529.48
500.705	15006.66
500.908	15119.3
501.111	15004.61
501.314	15373.25
501.517	15543.23
501.72	15643.58
501.923	15645.63
502.126	16012.21
502.329	15928.25
502.532	16397.23
502.735	16251.83
502.938	16692.14
503.141	16475.06
503.344	16825.26
503.547	16937.9
503.75	17310.63
503.953	17904.54
504.156	17609.63
504.359	18076.57
504.562	18191.25
504.765	18205.59
504.968	18834.32
505.17	18758.54
505.373	18756.49
505.576	19305.35
505.779	19348.36
505.982	19422.08
506.185	19889.02
506.387	19923.83
506.59	19866.49
506.793	20730.73
506.996	20349.81
507.198	21265.25
507.401	20978.54
507.604	21336.93
507.807	21678.94
508.009	21513.06
508.212	21842.78
508.415	22377.3
508.617	22446.93
508.82	22598.48
509.022	22598.48
509.225	23421.77
509.428	23518.02
509.63	23780.16
509.833	23919.42
510.035	24210.23
510.238	24386.36
510.44	24785.71
510.643	24843.06
510.845	25369.38
511.048	24955.69
511.25	25428.77
511.453	25434.92
511.655	26549.01
511.858	26270.49
512.06	26452.76
512.262	26632.98
512.465	26792.72
512.667	27388.68
512.87	27585.29
513.072	27765.51
513.274	28472.06
513.477	28441.34
513.679	29000.43
513.881	28988.14
514.084	29268.72
514.286	29448.94
514.488	29405.93
514.69	30477.02
514.893	30278.36
515.095	30669.53
515.297	30726.87
515.499	31118.03
515.701	31797.96
515.904	32019.14
516.106	32201.41
516.308	32324.29
516.51	33204.91
516.712	32746.17
516.914	32920.24
517.116	33551.02
517.318	33710.76
517.52	34265.76
517.722	34445.98
517.925	35013.27
518.127	35062.42
518.329	35209.87
518.531	35474.06
518.733	35738.25
518.935	36553.34
519.136	36588.16
519.338	36854.39
519.54	37094
519.742	37739.11
519.944	37591.66
520.146	38242.92
520.348	38943.32
520.55	38922.84
520.752	38795.87
520.954	39756.36
521.155	39322.19
521.357	40049.22
521.559	40643.13
521.761	40770.11
521.963	40780.35
522.164	41032.25
522.366	41294.39
522.568	41761.33
522.77	41810.48
522.971	42945.05
523.173	42392.1
523.375	42654.24
523.576	42875.42
523.778	42883.61
523.98	43837.97
524.181	43667.98
524.383	43672.08
524.584	44521.99
524.786	44685.82
524.988	44130.83
525.189	45312.5
525.391	45105.66
525.592	45828.59
525.794	45801.97
525.995	45412.85
526.197	45834.74
526.398	46055.92
526.6	46428.65
526.801	46866.91
527.003	47057.37
527.204	47165.91
527.406	47452.63
527.607	47421.91
527.808	47786.45
528.01	46938.59
528.211	47874.51
528.412	48419.27
528.614	48464.33
528.815	48384.46
529.016	48789.95
529.218	48437.7
529.419	48816.58
529.62	48558.53
529.822	48718.28
530.023	49181.12
530.224	48851.39
530.425	49015.23
530.626	48851.39
530.828	48959.94
531.029	49969.58
531.23	49316.28
531.431	49473.98
531.632	49496.5
531.833	49453.5
532.035	49824.18
532.236	49797.55
532.437	50059.69
532.638	49846.71
532.839	50457
533.04	50010.54
533.241	49236.41
533.442	50925.99
533.643	50612.65
533.844	50207.15
534.045	50678.18
534.246	50135.47
534.447	50495.91
534.648	50565.54
534.849	50567.59
535.05	50330.03
535.251	50534.82
535.451	50794.92
535.652	51200.41
535.853	50446.76
536.054	50669.99
536.255	50637.22
536.456	50450.86
536.657	51007.9
536.857	50454.95
537.058	50538.92
537.259	50739.62
537.46	50579.88
537.66	50899.36
537.861	51065.25
538.062	50577.83
538.263	51188.13
538.463	50966.94
538.664	51202.46
538.865	51067.3
539.065	50971.04
539.266	50379.18
539.466	51141.02
539.667	50162.09
539.868	51437.98
540.068	50739.62
540.269	50694.57
540.469	50862.5
540.67	50178.48
540.87	50940.32
541.071	50614.69
541.271	50995.62
541.472	50796.96
541.672	50600.36
541.873	50657.7
542.073	50162.09
542.274	51177.89
542.474	50870.69
542.675	50166.19
542.875	51317.15
543.075	50153.9
543.276	50530.73
543.476	50995.62
543.676	50233.77
543.877	50555.3
544.077	50631.08
544.277	50289.07
544.478	50338.22
544.678	51132.83
544.878	50272.68
545.078	50506.15
545.279	50289.07
545.479	50244.01
545.679	50307.5
545.879	50262.44
546.079	50014.64
546.28	50389.42
546.48	49961.39
546.68	50909.6
546.88	50534.82
547.08	50434.47
547.28	50119.09
547.48	50088.37
547.68	50395.56
547.88	50231.72
548.081	50448.81
548.281	50682.28
548.481	50059.69
548.681	50526.63
548.881	50125.23
549.081	50147.76
549.28	50276.78
549.48	50239.92
549.68	50196.91
549.88	50227.63
550.08	49912.24
550.28	50133.42
550.48	49830.32
550.68	50526.63
550.88	49748.4
551.08	50055.6
551.279	50229.68
551.479	49666.48
551.679	49682.87
551.879	49883.57
552.079	49795.51
552.278	50176.43
552.478	49887.67
552.678	49818.03
552.878	50092.46
553.077	49867.19
553.277	48980.42
553.477	50176.43
553.676	49912.24
553.876	49576.37
554.076	49250.75
554.275	49846.71
554.475	49060.29
554.674	49553.85
554.874	49746.36
555.074	49318.33
555.273	49355.19
555.473	49740.21
555.672	49111.49
555.872	48916.93
556.071	49519.03
556.271	49383.87
556.47	48900.54
556.67	48667.08
556.869	48998.85
557.068	49076.67
557.268	48865.73
557.467	48718.28
557.667	48376.26
557.866	49019.33
558.065	48503.24
558.265	48349.64
558.464	48243.15
558.663	48818.63
558.863	47866.32
559.062	48667.08
559.261	48249.29
559.461	48953.79
559.66	47837.65
559.859	48486.85
560.058	47866.32
560.258	48003.53
560.457	47552.98
560.656	48277.96
560.855	47759.83
561.054	47952.33
561.253	47395.29
561.453	47591.89
561.652	47260.12
561.851	47688.15
562.05	47122.91
562.249	47258.07
562.448	47129.05
562.647	47184.35
562.846	46858.72
563.045	46975.45
563.244	46410.21
563.443	47221.21
563.642	45965.81
563.841	46983.65
564.04	46408.17
564.239	46651.87
564.438	45718
564.637	46184.94
564.836	46119.4
565.035	45400.57
565.234	45734.38
565.432	45744.62
565.631	45658.61
565.83	45511.16
566.029	45179.39
566.228	45070.84
566.427	45371.89
566.625	44972.54
566.824	44540.42
567.023	45070.84
567.222	44114.44
567.42	44724.74
567.619	44722.69
567.818	44517.89
568.016	44298.76
568.215	44534.28
568.414	44063.24
568.612	44317.19
568.811	44206.6
569.01	44024.33
569.208	43469.33
569.407	43825.68
569.605	43381.27
569.804	43880.97
570.002	42742.3
570.201	43209.24
570.4	42908.19
570.598	42922.52
570.797	42736.16
570.995	43104.79
571.193	42203.69
571.392	42895.9
571.59	42607.14
571.789	42005.03
571.987	42476.07
572.186	42193.45
572.384	41884.2
572.582	41933.35
572.781	41890.35
572.979	41273.91
573.177	41562.67
573.376	41654.83
573.574	41278
573.772	41085.5
573.971	41056.82
574.169	40774.2
574.367	40671.81
574.565	40948.28
574.763	40360.51
574.962	40446.53
575.16	40098.37
575.358	40510.02
575.556	40196.68
575.754	40462.91
575.952	39797.32
576.151	40016.46
576.349	39332.43
576.547	39631.44
576.745	39645.77
576.943	39473.74
577.141	39443.02
577.339	39762.51
577.537	39248.47
577.735	39000.66
577.933	38802.01
578.131	39252.56
578.329	38574.69
578.527	38439.52
578.725	38675.04
578.923	38754.91
579.121	38541.92
579.319	38580.83
579.516	38431.33
579.714	38326.88
579.912	37976.68
580.11	37685.87
580.308	37933.67
580.506	37751.4
580.704	37038.71
580.901	37517.93
581.099	37698.16
581.297	37585.52
581.495	37048.95
581.692	37628.52
581.89	37167.73
582.088	37382.77
582.285	36459.13
582.483	36838.01
582.681	36872.82
582.878	36332.16
583.076	36100.74
583.274	36995.7
583.471	35838.6
583.669	36272.77
583.866	36014.73
584.064	36240
584.262	35631.75
584.459	35846.79
584.657	35760.78
584.854	35797.64
585.052	35705.48
585.249	35193.49
585.447	35306.13
585.644	34847.38
585.841	35025.56
586.039	35576.46
586.236	34689.69
586.434	34994.84
586.631	34382.49
586.828	34765.46
587.026	34355.87
587.223	34380.45
587.42	34142.88
587.618	33907.37
587.815	34017.96
588.012	33970.85
588.21	33995.43
588.407	34675.35
588.604	33977
588.801	33534.63
588.999	33315.5
589.196	33428.14
589.393	33538.73
589.59	33254.06
589.787	33047.22
589.984	33090.23
590.182	32414.4
590.379	32842.42
590.576	32514.75
590.773	32938.68
590.97	32268.99
591.167	32547.51
591.364	32539.32
591.561	32484.03
591.758	31990.47
591.955	31824.58
592.152	32332.48
592.349	31820.49
592.546	32189.12
592.743	31953.6
592.94	31275.73
593.137	31738.57
593.334	31843.01
593.531	31214.29
593.727	31494.86
593.924	31271.63
594.121	31142.61
594.318	31498.95
594.515	31193.81
594.712	31099.6
594.908	30816.98
595.105	30798.55
595.302	30456.54
595.499	30671.57
595.696	30560.98
595.892	30304.99
596.089	30595.8
596.286	30255.84
596.482	30280.41
596.679	30055.14
596.876	29983.46
597.072	29604.58
597.269	29539.05
597.466	29688.55
597.662	29893.35
597.859	29631.21
598.055	29418.22
598.252	29338.35
598.448	29342.44
598.645	29293.29
598.841	28791.54
599.038	29387.5
599.234	28922.61
599.431	28943.09
599.627	28951.28
599.824	28891.89
600.02	28455.67
600.217	28820.21
600.413	28394.23
600.609	28578.55
600.806	28306.17
601.002	28148.48
601.198	28171
601.395	27943.68
601.591	28056.32
601.787	27779.84
601.984	27691.78
602.18	28238.59
602.376	27601.67
602.572	27450.12
602.769	27292.43
602.965	27114.25
603.161	27536.13
603.357	27235.08
603.553	26852.11
603.75	27069.2
603.946	26684.18
604.142	26972.94
604.338	26706.71
604.534	26741.52
604.73	26762
604.926	26682.13
605.122	26618.64
605.318	26682.13
605.514	26086.17
605.71	26403.61
605.906	26434.33
606.102	26430.23
606.298	25965.34
606.494	26106.65
606.69	26153.76
606.886	26164
607.082	25375.53
607.278	25824.03
607.474	25674.53
607.67	26057.5
607.866	25033.52
608.062	25842.46
608.257	25520.93
608.453	25494.31
608.649	25328.42
608.845	25295.66
609.041	25336.62
609.236	25277.22
609.432	25287.46
609.628	25103.15
609.824	25205.55
610.019	24867.63
610.215	24914.73
610.411	24986.41
610.606	24738.61
610.802	24830.77
610.998	24750.9
611.193	24732.47
611.389	24652.59
611.584	24460.09
611.78	24478.52
611.976	24423.22
612.171	24589.11
612.367	24261.43
612.562	24130.36
612.758	24152.89
612.953	23958.33
613.149	24490.8
613.344	23849.79
613.539	24199.99
613.735	24394.55
613.93	24167.23
614.126	23872.32
614.321	24423.22
614.517	23890.75
614.712	23866.17
614.907	23583.55
615.103	24351.54
615.298	23620.42
615.493	23792.45
615.688	23292.74
615.884	23972.67
616.079	23071.56
616.274	23728.96
616.47	23454.53
616.665	23421.77
616.86	23077.71
617.055	23364.42
617.25	23083.85
617.445	23554.88
617.641	22823.76
617.836	23356.23
618.031	22639.44
618.226	22780.75
618.421	22842.19
618.616	22881.1
618.811	22414.16
619.006	23151.43
619.201	22444.88
619.396	22453.08
619.591	21926.75
619.786	22342.49
619.981	21965.66
620.176	22307.67
620.371	21988.19
620.566	21984.09
620.761	21859.17
620.956	21930.84
621.151	21676.9
621.346	21707.62
621.541	21396.32
621.735	21457.76
621.93	21085.03
622.125	21381.99
622.32	20745.07
622.515	21107.56
622.709	20745.07
622.904	20794.22
623.099	20736.88
623.294	20728.69
623.488	20441.97
623.683	20460.4
623.878	20001.66
624.072	20284.28
624.267	19876.73
624.462	19981.18
624.656	19637.12
624.851	19739.52
625.046	19508.1
625.24	19450.75
625.435	19440.51
625.629	19299.2
625.824	19301.25
626.018	19008.39
626.213	18709.39
626.407	19129.22
626.602	18576.27
626.796	18580.37
626.991	18559.89
627.185	18654.09
627.38	18578.32
627.574	18299.8
627.768	18074.52
627.963	18054.04
628.157	18056.09
628.352	18103.19
628.546	17980.31
628.74	18023.32
628.935	17664.93
629.129	17589.15
629.323	17290.15
629.517	17462.18
629.712	17132.45
629.906	17036.2
630.1	16989.1
630.294	17212.32
630.489	17028.01
630.683	16855.98
630.877	16686
631.071	16585.65
631.265	16384.94
631.459	16481.2
631.653	16434.1
631.848	16440.24
632.042	16137.14
632.236	16425.9
632.43	15954.87
632.624	16008.12
632.818	15911.86
633.012	15983.54
633.206	15803.32
633.4	15711.16
633.594	15393.73
633.788	15543.23
633.982	15545.28
634.176	15264.71
634.369	15113.16
634.563	15184.83
634.757	15111.11
634.951	15281.09
635.145	15086.53
635.339	14840.78
635.533	15064
635.726	14726.09
635.92	14431.18
636.114	14515.15
636.308	14275.54
636.501	14545.87
636.695	14322.64
636.889	14306.26
637.083	14042.07
637.276	14080.98
637.47	14173.14
637.664	13845.46
637.857	14005.2
638.051	13781.98
638.244	13583.32
638.438	13962.2
638.632	13515.74
638.825	13605.85
639.019	13351.9
639.212	13525.98
639.406	13312.99
639.599	13069.28
639.793	13298.66
639.986	12999.65
640.18	13052.9
640.373	12831.72
640.567	12784.62
640.76	12878.82
640.954	12602.35
641.147	12422.13
641.34	12338.16
641.534	12600.3
641.727	12317.68
641.92	12487.66
642.114	12334.06
642.307	12307.44
642.5	11983.86
642.694	11764.73
642.887	12053.49
643.08	11967.48
643.273	11914.23
643.467	11731.96
643.66	11588.6
643.853	11635.71
644.046	11529.21
644.239	11494.4
644.432	11351.04
644.626	11244.54
644.819	11602.94
645.012	11236.35
645.205	11355.13
645.398	11234.3
645.591	11037.7
645.784	10947.59
645.977	10963.97
646.17	11039.75
646.363	10787.85
646.556	10564.62
646.749	10720.26
646.942	10673.16
647.135	10527.75
647.328	10574.86
647.521	10601.48
647.714	10243.09
647.907	10451.98
648.099	10277.9
648.292	10370.06
648.485	10234.89
648.678	10146.83
648.871	10081.3
649.064	10015.76
649.256	10034.19
649.449	9972.75
649.642	9749.53
649.835	9733.14
650.027	9686.04
650.22	9851.92
650.413	9552.92
650.605	9720.85
650.798	9620.5
650.991	9423.9
651.183	9325.6
651.376	9344.03
651.568	9589.78
651.761	9274.4
651.954	9430.04
652.146	9258.01
652.339	9270.3
652.531	9325.6
652.724	9122.85
652.916	8805.41
653.109	8811.56
653.301	9061.41
653.494	9057.31
653.686	8760.36
653.879	8844.32
654.071	8748.07
654.263	8709.16
654.456	8694.82
654.648	8764.45
654.84	8410.15
655.033	8479.79
655.225	8635.43
655.417	8436.78
655.61	8451.11
655.802	8338.48
655.994	8365.1
656.186	8354.86
656.379	8254.51
656.571	8305.71
656.763	8039.47
656.955	8252.46
657.148	8193.07
657.34	8266.8
657.532	8023.09
657.724	7945.27
657.916	7910.45
658.108	7889.97
658.3	7830.58
658.492	7851.06
658.684	7785.52
658.876	7668.79
659.068	7748.66
659.26	7515.19
659.452	7623.73
659.644	7590.97
659.836	7396.41
660.028	7443.51
660.22	7316.54
660.412	7437.37
660.604	7324.73
660.796	7445.56
660.988	7222.33
661.18	7046.21
661.372	7377.98
661.563	7205.95
661.755	7156.8
661.947	7222.33
662.139	7078.97
662.331	6990.91
662.522	7003.2
662.714	6906.95
662.906	6906.95
663.097	7111.74
663.289	6904.9
663.481	6890.56
663.673	6835.27
663.864	6761.54
664.056	6609.99
664.247	6712.39
664.439	6460.49
664.631	6564.93
664.822	6593.61
665.014	6532.17
665.205	6708.29
665.397	6444.1
665.588	6603.85
665.78	6321.23
665.971	6397
666.163	6589.51
666.354	6460.49
666.546	6290.51
666.737	6351.95
666.929	6253.64
667.12	6321.23
667.311	6190.16
667.503	6095.95
667.694	6251.6
667.885	6370.38
668.077	6194.25
668.268	6218.83
668.459	6157.39
668.651	6118.48
668.842	6124.62
669.033	6120.53
669.224	5921.87
669.416	6089.81
669.607	6071.37
669.798	6048.85
669.989	6061.13
670.18	5801.04
670.371	5803.09
670.563	5891.15
670.754	5934.16
670.945	5768.27
671.136	5960.78
671.327	5833.81
671.518	5911.63
671.709	5743.7
671.9	5878.86
672.091	5817.43
672.282	5764.18
672.473	5768.27
672.664	5608.53
672.855	5680.21
673.046	5721.17
673.237	5665.88
673.428	5817.43
673.619	5678.16
673.809	5721.17
674	5645.4
674.191	5590.1
674.382	5420.12
674.573	5612.63
674.764	5653.59
674.954	5629.01
675.145	5493.85
675.336	5518.42
675.527	5502.04
675.717	5559.38
675.908	5497.94
676.099	5493.85
676.289	5626.96
676.48	5477.46
676.671	5504.09
676.861	5581.91
677.052	5358.68
677.243	5311.58
677.433	5309.53
677.624	5649.49
677.814	5426.26
678.005	5454.94
678.195	5452.89
678.386	5475.42
678.576	5340.25
678.767	5309.53
678.957	5370.97
679.148	5467.22
679.338	5446.74
679.529	5448.79
679.719	5311.58
679.909	5461.08
680.1	5334.11
680.29	5379.16
680.481	5461.08
680.671	5381.21
680.861	5383.26
681.052	5334.11
681.242	5231.71
681.432	5362.78
681.622	5350.49
681.813	5397.59
682.003	5323.87
682.193	5327.96
682.383	5293.15
682.573	5467.22
682.764	5323.87
682.954	5403.74
683.144	5334.11
683.334	5287
683.524	5293.15
683.714	5252.19
683.904	5119.07
684.094	5287
684.284	5293.15
684.474	5461.08
684.664	5160.03
684.854	5102.68
685.044	5344.35
685.234	5186.65
685.424	5135.45
685.614	5074.01
685.804	5035.1
685.994	5209.18
686.184	5184.6
686.374	5239.9
686.564	4951.14
686.753	5170.27
686.943	5039.2
687.133	5016.67
687.323	4977.76
687.513	5117.02
687.702	5098.59
687.892	4922.46
688.082	5024.86
688.272	5043.29
688.461	5008.48
688.651	4992.09
688.841	4969.57
689.03	5045.34
689.22	4805.73
689.41	4779.11
689.599	4779.11
689.789	4725.86
689.979	4768.87
690.168	4740.19
690.358	4791.39
690.547	4766.82
690.737	4621.41
690.926	4678.76
691.116	4781.15
691.305	4785.25
691.495	4801.63
691.684	4445.29
691.874	4775.01
692.063	4600.93
692.252	4596.84
692.442	4650.08
692.631	4547.69
692.82	4531.3
693.01	4504.68
693.199	4514.92
693.388	4402.28
693.578	4523.11
693.767	4537.45
693.956	4467.81
694.146	4482.15
694.335	4265.07
694.524	4351.08
694.713	4555.88
694.902	4306.02
695.092	4521.06
695.281	4351.08
695.47	4404.33
695.659	4277.35
695.848	4363.37
696.037	4211.82
696.226	4414.57
696.415	4252.78
696.604	4312.17
696.793	4385.9
696.982	4324.46
697.171	4363.37
697.36	4260.97
697.549	4211.82
697.738	4265.07
697.927	4211.82
698.116	4195.43
698.305	4250.73
698.494	4207.72
698.683	4291.69
698.872	4205.67
699.061	4111.47
699.25	4291.69
699.438	4220.01
699.627	4275.31
699.816	4277.35
700.005	4113.52
700.193	4248.68
700.382	4279.4
700.571	4222.06
700.76	4123.76
700.948	4183.15
701.137	4129.9
701.326	4213.87
701.514	4050.03
701.703	4269.16
701.892	4156.52
702.08	4252.78
702.269	4101.23
702.457	4052.08
702.646	4279.4
702.834	4078.7
703.023	4011.12
703.212	4195.43
703.4	4134
703.589	3984.49
703.777	4162.67
703.965	4088.94
704.154	4168.81
704.342	4127.85
704.531	4039.79
704.719	4011.12
704.907	4119.66
705.096	4054.12
705.284	4076.65
705.472	3992.69
705.661	4111.47
705.849	4164.72
706.037	4189.29
706.226	4115.56
706.414	4058.22
706.602	4154.48
706.79	4101.23
706.979	4129.9
707.167	4103.28
707.355	4052.08
707.543	4119.66
707.731	4082.8
707.919	4021.36
708.107	3972.21
708.296	3998.83
708.484	3968.11
708.672	4117.61
708.86	4082.8
709.048	4211.82
709.236	4052.08
709.424	4162.67
709.612	4203.63
709.8	4002.93
709.988	4039.79
710.176	4099.18
710.364	3988.59
710.551	4125.8
710.739	4035.69
710.927	4000.88
711.115	3949.68
711.303	4256.87
711.491	4166.76
711.679	4158.57
711.866	3996.78
712.054	4113.52
712.242	4113.52
712.43	4002.93
712.617	4060.27
712.805	4129.9
712.993	4109.42
713.181	3964.01
713.368	4000.88
713.556	4224.11
713.744	3914.86
713.931	4232.3
714.119	4125.8
714.306	4174.95
714.494	3961.97
714.682	4037.74
714.869	4031.6
715.057	4121.71
715.244	4019.31
715.432	4056.17
715.619	4162.67
715.807	4066.41
715.994	4068.46
716.182	3986.54
716.369	4058.22
716.556	4154.48
716.744	4021.36
716.931	4033.65
717.119	3951.73
717.306	4101.23
717.493	3927.15
717.681	4113.52
717.868	4027.5
718.055	4035.69
718.242	4054.12
718.43	4027.5
718.617	4154.48
718.804	3966.06
718.991	4002.93
719.179	4039.79
719.366	4084.84
719.553	3949.68
719.74	3910.77
719.927	4123.76
720.114	3984.49
720.301	3853.42
720.488	4052.08
720.676	3970.16
720.863	4011.12
721.05	3939.44
721.237	4013.17
721.424	4082.8
721.611	3949.68
721.798	3994.73
721.985	3966.06
722.172	3843.18
722.358	3982.45
722.545	4054.12
722.732	3779.7
722.919	3961.97
723.106	3914.86
723.293	4080.75
723.48	3867.76
723.667	3959.92
723.853	3695.73
724.04	4021.36
724.227	3937.39
724.414	3834.99
724.6	3941.49
724.787	3888.24
724.974	3916.91
725.161	3851.38
725.347	3888.24
725.534	3978.35
725.72	3802.22
725.907	3888.24
726.094	3718.26
726.28	3906.67
726.467	3789.94
726.653	3771.51
726.84	3859.57
727.027	4035.69
727.213	3871.86
727.4	3863.66
727.586	3882.1
727.773	3839.09
727.959	3923.05
728.145	3957.87
728.332	3853.42
728.518	3847.28
728.705	3906.67
728.891	3923.05
729.077	3839.09
729.264	3843.18
729.45	3896.43
729.636	3859.57
729.823	3873.9
730.009	3755.12
730.195	3761.27
730.382	3925.1
730.568	3638.39
730.754	3708.02
730.94	3736.69
731.126	3708.02
731.313	3853.42
731.499	3873.9
731.685	3945.58
731.871	3675.25
732.057	3810.42
732.243	3787.89
732.429	3865.71
732.615	3841.14
732.801	3822.7
732.987	3656.82
733.173	3728.5
733.359	3845.23
733.545	3814.51
733.731	3722.35
733.917	3585.14
734.103	3839.09
734.289	3685.49
734.475	3658.87
734.661	3632.24
734.847	3751.03
735.033	3794.03
735.219	3611.76
735.404	3910.77
735.59	3646.58
735.776	3552.37
735.962	3753.07
736.148	3748.98
736.333	3617.91
736.519	3601.52
736.705	3507.32
736.89	3609.72
737.076	3714.16
737.262	3589.24
737.447	3617.91
737.633	3529.84
737.819	3607.67
738.004	3589.24
738.19	3517.56
738.375	3576.95
738.561	3595.38
738.747	3560.56
738.932	3476.6
739.118	3544.18
739.303	3521.65
739.489	3525.75
739.674	3503.22
739.859	3390.58
740.045	3540.08
740.23	3433.59
740.416	3394.68
740.601	3462.26
740.786	3456.12
740.972	3370.1
741.157	3323
741.342	3361.91
741.528	3376.25
741.713	3374.2
741.898	3433.59
742.084	3290.23
742.269	3333.24
742.454	3320.95
742.639	3239.03
742.824	3302.52
743.01	3378.3
743.195	3366.01
743.38	3318.9
743.565	3191.93
743.75	3253.37
743.935	3255.42
744.12	3351.67
744.305	3159.16
744.49	3155.07
744.675	3112.06
744.86	3224.7
745.045	3169.4
745.23	3185.79
745.415	3069.05
745.6	3183.74
745.785	3132.54
745.97	3083.39
746.155	2952.32
746.34	3050.62
746.525	3044.48
746.71	3044.48
746.895	2987.13
747.079	3085.44
747.264	2825.34
747.449	2923.65
747.634	2749.57
747.819	2835.58
748.003	2800.77
748.188	2739.33
748.373	2815.1
748.557	2765.95
748.742	2747.52
748.927	2870.4
749.111	2741.38
749.296	2710.66
749.481	2774.14
749.665	2665.6
749.85	2598.02
750.034	2745.47
750.219	2618.5
750.404	2600.07
750.588	2557.06
750.773	2546.82
750.957	2536.58
751.141	2528.39
751.326	2446.47
751.51	2471.04
751.695	2532.48
751.879	2440.33
752.064	2483.33
752.248	2446.47
752.432	2397.32
752.617	2389.13
752.801	2325.64
752.985	2352.26
753.17	2350.21
753.354	2262.15
753.538	2339.97
753.722	2227.34
753.907	2350.21
754.091	2251.91
754.275	2266.25
754.459	2225.29
754.643	2186.38
754.828	2247.82
755.012	2194.57
755.196	2124.94
755.38	2139.27
755.564	2151.56
755.748	2141.32
755.932	2096.27
756.116	2100.36
756.3	2083.98
756.484	2145.42
756.668	2045.07
756.852	2034.83
757.036	1959.05
757.22	2008.2
757.404	2020.49
757.588	1686.67
757.772	1930.38
757.956	1895.57
758.14	1938.57
758.323	1838.22
758.507	1903.76
758.691	1799.31
758.875	1877.13
759.059	1971.34
759.242	1834.13
759.426	1870.99
759.61	1766.54
759.794	1860.75
759.977	1803.41
760.161	1787.02
760.345	1754.26
760.528	1772.69
760.712	1741.97
760.895	1754.26
761.079	1598.61
761.263	1674.39
761.446	1701.01
761.63	1725.58
761.813	1741.97
761.997	1772.69
762.18	1614.99
762.364	1639.57
762.547	1647.76
762.731	1588.37
762.914	1713.3
763.098	1598.61
763.281	1569.94
763.464	1619.09
763.648	1690.77
763.831	1588.37
764.015	1438.87
764.198	1510.55
764.381	1571.99
764.564	1528.98
764.748	1545.36
764.931	1553.55
765.114	1426.58
765.297	1549.46
765.481	1412.25
765.664	1520.79
765.847	1496.21
766.03	1492.12
766.213	1432.72
766.397	1512.6
766.58	1483.92
766.763	1383.57
766.946	1375.38
767.129	1500.31
767.312	1438.87
767.495	1424.53
767.678	1365.14
767.861	1455.25
768.044	1326.23
768.227	1307.8
768.41	1363.09
768.593	1418.39
768.776	1258.65
768.959	1309.85
769.142	1365.14
769.324	1272.98
769.507	1295.51
769.69	1250.46
769.873	1397.91
770.056	1467.54
770.239	1330.33
770.421	1326.23
770.604	1301.65
770.787	1299.61
770.97	1313.94
771.152	1262.74
771.335	1299.61
771.518	1264.79
771.7	1201.3
771.883	1307.8
772.066	1221.78
772.248	1195.16
772.431	1305.75
772.613	1168.54
772.796	1197.21
772.978	1217.69
773.161	1186.97
773.343	1197.21
773.526	1219.74
773.708	1072.28
773.891	1156.25
774.073	1143.96
774.256	1195.16
774.438	1143.96
774.621	1070.23
774.803	1117.34
774.985	1094.81
775.168	1103
775.35	1156.25
775.532	1041.56
775.715	1086.62
775.897	1139.87
776.079	1049.75
776.261	1004.7
776.444	980.12
776.626	1033.37
776.808	1068.19
776.99	904.35
777.173	1064.09
777.355	1021.08
777.537	988.32
777.719	1092.76
777.901	920.73
778.083	914.59
778.265	918.68
778.447	875.68
778.629	910.49
778.811	922.78
778.993	898.2
779.175	971.93
779.357	980.12
779.539	904.35
779.721	896.16
779.903	910.49
780.085	881.82
780.267	914.59
780.449	883.87
780.631	894.11
780.812	879.77
780.994	830.62
781.176	783.52
781.358	785.57
781.54	816.29
781.721	885.92
781.903	754.85
782.085	756.9
782.267	760.99
782.448	674.98
782.63	816.29
782.812	820.38
782.993	746.66
783.175	715.94
783.357	781.47
783.538	771.23
783.72	662.69
783.901	693.41
784.083	658.59
784.264	720.03
784.446	666.78
784.627	660.64
784.809	775.33
784.99	697.5
785.172	769.18
785.353	677.02
785.535	638.11
785.716	660.64
785.897	634.02
786.079	644.26
786.26	650.4
786.441	607.39
786.623	607.39
786.804	611.49
786.985	652.45
787.167	640.16
787.348	634.02
787.529	660.64
787.71	574.63
787.891	588.96
788.073	591.01
788.254	566.43
788.435	576.67
788.616	574.63
788.797	640.16
788.978	545.95
789.159	613.54
789.34	580.77
789.522	556.19
789.703	509.09
789.884	541.86
790.065	517.28
790.246	535.71
790.427	545.95
790.607	554.15
790.788	552.1
790.969	515.23
791.15	545.95
791.331	521.38
791.512	464.04
791.693	484.52
791.874	466.08
792.054	517.28
792.235	492.71
792.416	449.7
792.597	470.18
792.778	523.43
792.958	490.66
793.139	472.23
793.32	431.27
793.5	461.99
793.681	502.95
793.862	476.32
794.042	468.13
794.223	478.37
794.404	492.71
794.584	349.35
794.765	476.32
794.945	453.8
795.126	425.12
795.306	386.21
795.487	394.4
795.667	429.22
795.848	476.32
796.028	373.92
796.209	461.99
796.389	431.27
796.57	406.69
796.75	349.35
796.93	502.95
797.111	375.97
797.291	380.07
797.471	464.04
797.652	357.54
797.832	421.03
798.012	412.84
798.192	353.45
798.373	292.01
798.553	429.22
798.733	390.31
798.913	326.82
799.093	367.78
799.274	378.02
799.454	414.88
799.634	251.05
799.814	339.11
799.994	396.45
800.174	341.16
800.354	322.73
800.534	320.68
800.714	326.82
800.894	304.29
801.074	328.87
801.254	369.83
801.434	349.35
801.614	335.01
801.794	308.39
801.974	900.25
802.154	304.29
802.334	316.58
802.514	275.62
802.693	285.86
802.873	382.12
803.053	398.5
803.233	324.77
803.413	265.38
803.592	306.34
803.772	287.91
803.952	292.01
804.131	296.1
804.311	259.24
804.491	345.25
804.67	263.33
804.85	357.54
805.03	318.63
805.209	324.77
805.389	271.53
805.568	332.97
805.748	275.62
805.928	355.49
806.107	298.15
806.287	375.97
806.466	271.53
806.646	289.96
806.825	234.66
807.004	249
807.184	312.49
807.363	320.68
807.543	310.44
807.722	210.09
807.901	240.81
808.081	246.95
808.26	230.57
808.439	208.04
808.619	210.09
808.798	259.24
808.977	212.14
809.156	373.92
809.336	296.1
809.515	332.97
809.694	265.38
809.873	257.19
810.052	281.77
810.231	285.86
810.411	263.33
810.59	181.42
810.769	214.18
810.948	169.13
811.127	177.32
811.306	242.85
811.485	249
811.664	222.38
811.843	228.52
812.022	244.9
812.201	261.29
812.38	273.57
812.559	216.23
812.737	236.71
812.916	216.23
813.095	253.09
813.274	138.41
813.453	312.49
813.632	251.05
813.811	240.81
813.989	220.33
814.168	253.09
814.347	199.85
814.526	187.56
814.704	197.8
814.883	222.38
815.062	210.09
815.24	234.66
815.419	128.17
815.598	222.38
815.776	173.22
815.955	160.94
816.133	162.98
816.312	240.81
816.49	169.13
816.669	177.32
816.847	216.23
817.026	259.24
817.204	175.27
817.383	226.47
817.561	158.89
817.74	203.94
817.918	134.31
818.097	185.51
818.275	210.09
818.453	167.08
818.632	197.8
818.81	130.22
818.988	156.84
819.167	197.8
819.345	156.84
819.523	191.66
819.701	236.71
819.879	210.09
820.058	185.51
820.236	173.22
820.414	177.32
820.592	152.74
820.77	68.78
820.948	187.56
821.127	115.88
821.305	177.32
821.483	179.37
821.661	193.7
821.839	169.13
822.017	193.7
822.195	165.03
822.373	169.13
822.551	136.36
822.729	165.03
822.907	169.13
823.085	144.55
823.262	46.25
823.44	234.66
823.618	185.51
823.796	189.61
823.974	156.84
824.152	113.83
824.329	165.03
824.507	152.74
824.685	179.37
824.863	60.59
825.04	95.4
825.218	177.32
825.396	167.08
825.574	175.27
825.751	148.65
825.929	91.31
826.107	144.55
826.284	150.7
826.462	128.17
826.639	195.75
826.817	105.64
826.994	138.41
827.172	128.17
827.349	152.74
827.527	105.64
827.704	107.69
827.882	146.6
828.059	109.74
828.237	138.41
828.414	97.45
828.591	-0.85
828.769	140.46
828.946	81.07
829.124	152.74
829.301	158.89
829.478	103.59
829.655	191.66
829.833	150.7
830.01	101.55
830.187	54.44
830.364	89.26
830.542	124.07
830.719	185.51
830.896	68.78
831.073	58.54
831.25	60.59
831.427	99.5
831.604	156.84
831.782	83.11
831.959	101.55
832.136	136.36
832.313	134.31
832.49	33.96
832.667	72.87
832.844	38.06
833.021	165.03
833.198	21.67
833.374	54.44
833.551	91.31
833.728	144.55
833.905	91.31
834.082	95.4
834.259	70.83
834.436	85.16
834.612	103.59
834.789	144.55
834.966	54.44
835.143	101.55
835.319	52.39
835.496	42.15
835.673	72.87
835.85	181.42
836.026	81.07
836.203	68.78
836.38	72.87
836.556	117.93
836.733	68.78
836.909	140.46
837.086	95.4
837.262	83.11
837.439	134.31
837.616	107.69
837.792	167.08
837.968	160.94
838.145	38.06
838.321	70.83
838.498	66.73
838.674	156.84
838.851	76.97
839.027	150.7
839.203	105.64
839.38	91.31
839.556	17.58
839.732	169.13
839.909	89.26
840.085	146.6
840.261	54.44
840.437	85.16
840.614	48.3
840.79	111.78
840.966	58.54
841.142	79.02
841.318	44.2
841.494	99.5
841.671	68.78
841.847	54.44
842.023	66.73
842.199	93.35
842.375	87.21
842.551	58.54
842.727	72.87
842.903	144.55
843.079	97.45
843.255	148.65
843.431	21.67
843.607	101.55
843.783	-29.52
843.959	81.07
844.134	38.06
844.31	23.72
844.486	111.78
844.662	101.55
844.838	42.15
845.013	46.25
845.189	74.92
845.365	113.83
845.541	48.3
845.716	68.78
845.892	117.93
846.068	68.78
846.244	1.19
846.419	33.96
846.595	62.63
846.77	-13.14
846.946	99.5
847.122	93.35
847.297	54.44
847.473	36.01
847.648	1.19
847.824	85.16
847.999	21.67
848.175	68.78
848.35	62.63
848.526	136.36
848.701	83.11
848.876	113.83
849.052	1.19
849.227	79.02
849.403	54.44
849.578	74.92
849.753	103.59
849.929	126.12
850.104	36.01
850.279	48.3
850.454	70.83
850.63	111.78
850.805	81.07
850.98	46.25
851.155	-2.9
851.33	50.35
851.505	-0.85
851.681	81.07
851.856	25.77
852.031	42.15
852.206	27.82
852.381	3.24
852.556	38.06
852.731	25.77
852.906	50.35
853.081	48.3
853.256	99.5
853.431	89.26
853.606	-17.24
853.781	-19.29
853.956	-17.24
854.131	36.01
854.305	-41.81
854.48	87.21
854.655	23.72
854.83	-0.85
855.005	46.25
855.18	74.92
855.354	11.43
855.529	58.54
855.704	19.63
855.879	54.44
856.053	48.3
856.228	25.77
856.403	17.58
856.577	52.39
856.752	50.35
856.926	62.63
857.101	87.21
857.276	1.19
857.45	27.82
857.625	40.11
857.799	50.35
857.974	5.29
858.148	25.77
858.323	17.58
858.497	52.39
858.672	-15.19
858.846	58.54
859.02	11.43
859.195	42.15
859.369	-13.14
859.543	29.87
859.718	126.12
859.892	40.11
860.066	33.96
860.241	54.44
860.415	-13.14
860.589	58.54
860.763	-23.38
860.938	21.67
861.112	117.93
861.286	13.48
861.46	83.11
861.634	76.97
861.808	85.16
861.982	-41.81
862.157	-31.57
862.331	-23.38
862.505	-21.33
862.679	-29.52
862.853	66.73
863.027	3.24
863.201	40.11
863.375	36.01
863.549	54.44
863.722	91.31
863.896	5.29
864.07	-2.9
864.244	50.35
864.418	79.02
864.592	31.91
864.766	25.77
864.939	46.25
865.113	-2.9
865.287	46.25
865.461	-4.95
865.634	54.44
865.808	58.54
865.982	7.34
866.156	62.63
866.329	-17.24
866.503	58.54
866.676	-2.9
866.85	23.72
867.024	-25.43
867.197	60.59
867.371	62.63
867.544	29.87
867.718	48.3
867.891	83.11
868.065	29.87
868.238	38.06
868.412	44.2
868.585	-56.15
868.759	-11.09
868.932	1.19
869.105	15.53
869.279	13.48
869.452	40.11
869.625	38.06
869.799	25.77
869.972	-56.15
870.145	66.73
870.319	11.43
870.492	-35.67
870.665	36.01
870.838	-29.52
871.011	-68.44
871.185	46.25
871.358	-68.44
871.531	5.29
871.704	-11.09
871.877	29.87
872.05	29.87
872.223	44.2
872.396	-27.48
872.569	97.45
872.742	-50
872.915	46.25
873.088	54.44
873.261	3.24
873.434	46.25
873.607	-15.19
873.78	5.29
873.953	-15.19
874.126	25.77
874.299	-35.67
874.471	-68.44
874.644	-19.29
874.817	46.25
874.99	3.24
875.163	15.53
875.335	31.91
875.508	-11.09
875.681	52.39
875.853	-11.09
876.026	-35.67
876.199	-35.67
876.371	58.54
876.544	11.43
876.717	-4.95
876.889	60.59
877.062	40.11
877.234	-13.14
877.407	29.87
877.579	-17.24
877.752	66.73
877.924	-19.29
878.097	76.97
878.269	15.53
878.442	-21.33
878.614	-47.96
878.786	38.06
878.959	19.63
879.131	33.96
879.303	-27.48
879.476	29.87
879.648	-11.09
879.82	5.29
879.993	36.01
880.165	81.07
880.337	9.39
880.509	11.43
880.681	-31.57
880.854	-17.24
881.026	105.64
881.198	13.48
881.37	21.67
881.542	-103.25
881.714	3.24
881.886	-64.34
882.058	13.48
882.23	23.72
882.402	-7
882.574	50.35
882.746	64.68
882.918	29.87
883.09	-27.48
883.262	25.77
883.434	-56.15
883.606	-13.14
883.778	27.82
883.95	13.48
884.122	5.29
884.293	72.87
884.465	48.3
884.637	42.15
884.809	9.39
884.98	-7
885.152	-17.24
885.324	52.39
885.496	68.78
885.667	-60.24
885.839	-41.81
886.011	-21.33
886.182	-13.14
886.354	3.24
886.525	-76.63
886.697	33.96
886.869	9.39
887.04	-39.76
887.212	-62.29
887.383	13.48
887.555	15.53
887.726	42.15
887.897	-33.62
888.069	38.06
888.24	52.39
888.412	-39.76
888.583	-7
888.754	3.24
888.926	-72.53
889.097	56.49
889.268	27.82
889.44	-15.19
889.611	-72.53
889.782	-27.48
889.953	-13.14
890.125	52.39
890.296	-115.54
890.467	9.39
890.638	13.48
890.809	15.53
890.98	-4.95
891.151	-27.48
891.323	33.96
891.494	21.67
891.665	9.39
891.836	31.91
892.007	21.67
892.178	-19.29
892.349	21.67
892.52	19.63
892.691	25.77
892.862	-35.67
893.032	3.24
893.203	-41.81
893.374	17.58
893.545	11.43
893.716	31.91
893.887	66.73
894.057	-35.67
894.228	-31.57
894.399	7.34
894.57	38.06
894.74	44.2
894.911	52.39
895.082	-45.91
895.253	-13.14
895.423	40.11
895.594	11.43
895.764	-52.05
895.935	-50
896.106	38.06
896.276	38.06
896.447	44.2
896.617	11.43
896.788	9.39
896.958	52.39
897.129	5.29
897.299	-29.52
897.47	-9.05
897.64	-11.09
897.81	40.11
897.981	13.48
898.151	-17.24
898.322	21.67
898.492	58.54
898.662	-56.15
898.832	-7
899.003	33.96
899.173	-35.67
899.343	11.43
899.513	-60.24
