Data from USB4F104151__31__10-21-52-646.txt Node

Date: Wed Mar 12 10:21:52 EDT 2025
User: louis
Spectrometer: USB4F10415
Trigger mode: 4
Integration Time (sec): 3.000000E-2
Scans to average: 1
Electric dark correction enabled: true
Nonlinearity correction enabled: false
Boxcar width: 0
XAxis mode: Wavelengths
Number of Pixels in Spectrum: 3648
>>>>>Begin Spectral Data<<<<<
178.204	-100.52
178.424	-100.52
178.644	-100.52
178.864	-123.05
179.084	-108.71
179.304	26.45
179.524	-51.37
179.744	24.4
179.964	16.21
180.184	48.98
180.404	8.02
180.624	8.02
180.844	-30.89
181.064	-43.18
181.283	10.07
181.503	-18.6
181.723	1.88
181.943	63.32
182.163	65.36
182.383	10.07
182.602	55.12
182.822	110.42
183.042	-55.47
183.262	79.7
183.482	20.31
183.701	-4.27
183.921	1.88
184.141	-22.7
184.361	-39.08
184.58	22.36
184.8	-24.75
185.02	-18.6
185.239	40.79
185.459	-2.22
185.679	44.88
185.898	-22.7
186.118	-2.22
186.338	20.31
186.557	55.12
186.777	-69.8
186.997	75.6
187.216	3.93
187.436	38.74
187.655	26.45
187.875	36.69
188.095	-24.75
188.314	57.17
188.534	59.22
188.753	1.88
188.973	-18.6
189.192	65.36
189.412	-41.13
189.631	30.55
189.851	28.5
190.07	69.46
190.29	-4.27
190.509	26.45
190.729	-88.23
190.948	77.65
191.168	112.47
191.387	63.32
191.607	46.93
191.826	-2.22
192.045	14.17
192.265	-8.36
192.484	-10.41
192.704	24.4
192.923	-6.31
193.142	24.4
193.362	65.36
193.581	75.6
193.8	-37.03
194.02	-59.56
194.239	1.88
194.458	38.74
194.678	18.26
194.897	42.84
195.116	24.4
195.335	51.03
195.555	-2.22
195.774	-45.23
195.993	30.55
196.212	32.6
196.432	5.97
196.651	20.31
196.87	26.45
197.089	44.88
197.308	40.79
197.528	81.75
197.747	36.69
197.966	32.6
198.185	63.32
198.404	53.08
198.623	55.12
198.842	20.31
199.062	-28.84
199.281	40.79
199.5	-14.51
199.719	14.17
199.938	3.93
200.157	12.12
200.376	46.93
200.595	1.88
200.814	112.47
201.033	-2.22
201.252	-10.41
201.471	55.12
201.69	28.5
201.909	63.32
202.128	51.03
202.347	28.5
202.566	10.07
202.785	-59.56
203.004	-32.94
203.223	81.75
203.442	-20.65
203.661	-0.17
203.879	3.93
204.098	40.79
204.317	-0.17
204.536	63.32
204.755	5.97
204.974	28.5
205.193	81.75
205.411	94.04
205.63	-49.32
205.849	59.22
206.068	16.21
206.287	-8.36
206.505	26.45
206.724	8.02
206.943	-2.22
207.162	12.12
207.381	14.17
207.599	20.31
207.818	18.26
208.037	-59.56
208.255	110.42
208.474	42.84
208.693	30.55
208.911	20.31
209.13	69.46
209.349	12.12
209.567	42.84
209.786	96.08
210.005	61.27
210.223	24.4
210.442	-32.94
210.661	16.21
210.879	46.93
211.098	61.27
211.316	77.65
211.535	81.75
211.753	-106.67
211.972	-59.56
212.191	65.36
212.409	71.51
212.628	-0.17
212.846	42.84
213.065	20.31
213.283	38.74
213.502	-10.41
213.72	12.12
213.938	44.88
214.157	-37.03
214.375	53.08
214.594	-41.13
214.812	-6.31
215.031	-18.6
215.249	46.93
215.467	34.64
215.686	14.17
215.904	34.64
216.122	53.08
216.341	1.88
216.559	14.17
216.778	18.26
216.996	63.32
217.214	-59.56
217.432	69.46
217.651	12.12
217.869	-10.41
218.087	24.4
218.306	10.07
218.524	-12.46
218.742	5.97
218.96	14.17
219.179	69.46
219.397	-20.65
219.615	132.95
219.833	46.93
220.051	59.22
220.27	69.46
220.488	5.97
220.706	32.6
220.924	-28.84
221.142	-28.84
221.36	1.88
221.578	36.69
221.796	12.12
222.015	87.89
222.233	85.84
222.451	42.84
222.669	18.26
222.887	137.04
223.105	32.6
223.323	-20.65
223.541	-34.99
223.759	12.12
223.977	55.12
224.195	79.7
224.413	71.51
224.631	18.26
224.849	75.6
225.067	69.46
225.285	34.64
225.503	46.93
225.721	-37.03
225.939	46.93
226.157	1.88
226.375	104.28
226.592	-2.22
226.81	57.17
227.028	-6.31
227.246	110.42
227.464	34.64
227.682	20.31
227.9	-14.51
228.117	-51.37
228.335	44.88
228.553	12.12
228.771	10.07
228.989	-10.41
229.206	98.13
229.424	83.8
229.642	42.84
229.86	-18.6
230.077	1.88
230.295	40.79
230.513	61.27
230.731	18.26
230.948	-6.31
231.166	53.08
231.384	12.12
231.601	-22.7
231.819	46.93
232.037	-0.17
232.254	-37.03
232.472	57.17
232.689	-10.41
232.907	53.08
233.125	26.45
233.342	-2.22
233.56	-30.89
233.777	18.26
233.995	77.65
234.213	51.03
234.43	61.27
234.648	24.4
234.865	10.07
235.083	46.93
235.3	22.36
235.518	-8.36
235.735	71.51
235.953	51.03
236.17	-10.41
236.388	28.5
236.605	40.79
236.822	98.13
237.04	-26.79
237.257	5.97
237.475	36.69
237.692	46.93
237.909	-18.6
238.127	63.32
238.344	83.8
238.562	46.93
238.779	22.36
238.996	-53.42
239.214	55.12
239.431	28.5
239.648	65.36
239.865	77.65
240.083	65.36
240.3	-14.51
240.517	55.12
240.735	18.26
240.952	100.18
241.169	22.36
241.386	75.6
241.603	16.21
241.821	-8.36
242.038	42.84
242.255	12.12
242.472	18.26
242.689	79.7
242.907	81.75
243.124	42.84
243.341	-4.27
243.558	34.64
243.775	12.12
243.992	-37.03
244.209	-16.55
244.426	71.51
244.643	71.51
244.86	16.21
245.078	59.22
245.295	53.08
245.512	30.55
245.729	-2.22
245.946	87.89
246.163	-0.17
246.38	75.6
246.597	-4.27
246.814	28.5
247.031	14.17
247.248	-6.31
247.464	69.46
247.681	38.74
247.898	-14.51
248.115	34.64
248.332	18.26
248.549	22.36
248.766	77.65
248.983	59.22
249.2	75.6
249.417	65.36
249.633	-24.75
249.85	3.93
250.067	55.12
250.284	59.22
250.501	26.45
250.717	110.42
250.934	-8.36
251.151	-2.22
251.368	46.93
251.585	65.36
251.801	26.45
252.018	-45.23
252.235	77.65
252.451	16.21
252.668	-12.46
252.885	8.02
253.102	1.88
253.318	71.51
253.535	36.69
253.752	22.36
253.968	-0.17
254.185	18.26
254.401	24.4
254.618	8.02
254.835	55.12
255.051	79.7
255.268	-20.65
255.484	16.21
255.701	26.45
255.917	53.08
256.134	-20.65
256.351	18.26
256.567	22.36
256.784	51.03
257	46.93
257.217	61.27
257.433	12.12
257.65	18.26
257.866	-0.17
258.082	-75.95
258.299	18.26
258.515	48.98
258.732	36.69
258.948	34.64
259.165	1.88
259.381	3.93
259.597	26.45
259.814	30.55
260.03	28.5
260.246	12.12
260.463	5.97
260.679	67.41
260.895	116.56
261.112	12.12
261.328	5.97
261.544	26.45
261.761	83.8
261.977	-30.89
262.193	40.79
262.409	-20.65
262.626	18.26
262.842	44.88
263.058	14.17
263.274	59.22
263.49	18.26
263.707	104.28
263.923	-26.79
264.139	-49.32
264.355	22.36
264.571	77.65
264.787	-34.99
265.004	48.98
265.22	-0.17
265.436	59.22
265.652	1.88
265.868	32.6
266.084	-12.46
266.3	96.08
266.516	83.8
266.732	38.74
266.948	18.26
267.164	-22.7
267.38	55.12
267.596	85.84
267.812	98.13
268.028	-55.47
268.244	51.03
268.46	5.97
268.676	-10.41
268.892	114.52
269.108	28.5
269.324	-0.17
269.54	-10.41
269.756	91.99
269.972	-20.65
270.188	-55.47
270.403	-18.6
270.619	30.55
270.835	63.32
271.051	10.07
271.267	20.31
271.483	44.88
271.698	85.84
271.914	44.88
272.13	30.55
272.346	63.32
272.562	12.12
272.777	46.93
272.993	32.6
273.209	20.31
273.425	40.79
273.64	18.26
273.856	34.64
274.072	-16.55
274.287	8.02
274.503	116.56
274.719	124.76
274.934	48.98
275.15	-22.7
275.366	40.79
275.581	61.27
275.797	-20.65
276.012	53.08
276.228	30.55
276.444	81.75
276.659	5.97
276.875	-45.23
277.09	67.41
277.306	-26.79
277.521	-2.22
277.737	-22.7
277.952	-4.27
278.168	38.74
278.383	65.36
278.599	-22.7
278.814	32.6
279.03	42.84
279.245	48.98
279.461	67.41
279.676	36.69
279.892	-30.89
280.107	69.46
280.322	-10.41
280.538	57.17
280.753	-26.79
280.969	91.99
281.184	46.93
281.399	167.76
281.615	44.88
281.83	5.97
282.045	34.64
282.26	-18.6
282.476	26.45
282.691	59.22
282.906	126.8
283.122	8.02
283.337	38.74
283.552	20.31
283.767	-20.65
283.983	5.97
284.198	-20.65
284.413	5.97
284.628	38.74
284.843	10.07
285.058	22.36
285.274	40.79
285.489	-26.79
285.704	108.37
285.919	-73.9
286.134	28.5
286.349	-47.27
286.564	24.4
286.779	65.36
286.995	-30.89
287.21	28.5
287.425	65.36
287.64	-41.13
287.855	20.31
288.07	-73.9
288.285	71.51
288.5	-18.6
288.715	18.26
288.93	87.89
289.145	-2.22
289.36	75.6
289.575	65.36
289.79	1.88
290.004	38.74
290.219	63.32
290.434	-2.22
290.649	18.26
290.864	38.74
291.079	5.97
291.294	-28.84
291.509	42.84
291.724	-49.32
291.938	46.93
292.153	104.28
292.368	38.74
292.583	89.94
292.798	-14.51
293.012	40.79
293.227	46.93
293.442	42.84
293.657	65.36
293.871	-26.79
294.086	-10.41
294.301	44.88
294.516	38.74
294.73	20.31
294.945	14.17
295.16	-18.6
295.374	108.37
295.589	34.64
295.804	34.64
296.018	10.07
296.233	1.88
296.447	-20.65
296.662	36.69
296.877	-2.22
297.091	20.31
297.306	77.65
297.52	42.84
297.735	55.12
297.949	94.04
298.164	24.4
298.378	22.36
298.593	12.12
298.807	-20.65
299.022	63.32
299.236	151.38
299.451	-22.7
299.665	51.03
299.88	18.26
300.094	3.93
300.309	94.04
300.523	55.12
300.737	5.97
300.952	38.74
301.166	159.57
301.381	5.97
301.595	40.79
301.809	22.36
302.024	59.22
302.238	-18.6
302.452	126.8
302.667	-43.18
302.881	71.51
303.095	14.17
303.309	59.22
303.524	61.27
303.738	75.6
303.952	3.93
304.166	104.28
304.381	22.36
304.595	46.93
304.809	14.17
305.023	104.28
305.237	22.36
305.452	32.6
305.666	91.99
305.88	40.79
306.094	83.8
306.308	55.12
306.522	18.26
306.736	85.84
306.95	75.6
307.164	18.26
307.379	83.8
307.593	104.28
307.807	34.64
308.021	55.12
308.235	28.5
308.449	14.17
308.663	-16.55
308.877	159.57
309.091	-20.65
309.305	40.79
309.519	-0.17
309.733	22.36
309.947	-84.14
310.161	38.74
310.374	-16.55
310.588	67.41
310.802	-26.79
311.016	20.31
311.23	106.32
311.444	1.88
311.658	-26.79
311.872	79.7
312.085	14.17
312.299	34.64
312.513	46.93
312.727	42.84
312.941	44.88
313.154	91.99
313.368	79.7
313.582	48.98
313.796	-12.46
314.009	77.65
314.223	8.02
314.437	12.12
314.651	51.03
314.864	-18.6
315.078	12.12
315.292	-26.79
315.505	34.64
315.719	26.45
315.933	48.98
316.146	40.79
316.36	10.07
316.573	96.08
316.787	12.12
317.001	77.65
317.214	12.12
317.428	18.26
317.641	5.97
317.855	1.88
318.068	34.64
318.282	3.93
318.495	96.08
318.709	26.45
318.922	42.84
319.136	53.08
319.349	-4.27
319.563	8.02
319.776	10.07
319.99	14.17
320.203	81.75
320.417	20.31
320.63	-39.08
320.843	81.75
321.057	28.5
321.27	26.45
321.483	46.93
321.697	14.17
321.91	73.56
322.124	44.88
322.337	-41.13
322.55	5.97
322.763	38.74
322.977	79.7
323.19	34.64
323.403	46.93
323.617	24.4
323.83	5.97
324.043	12.12
324.256	34.64
324.469	79.7
324.683	51.03
324.896	-26.79
325.109	65.36
325.322	-49.32
325.535	53.08
325.748	-10.41
325.962	-6.31
326.175	-6.31
326.388	5.97
326.601	65.36
326.814	14.17
327.027	24.4
327.24	30.55
327.453	3.93
327.666	73.56
327.879	91.99
328.092	89.94
328.305	71.51
328.518	-20.65
328.731	1.88
328.944	69.46
329.157	26.45
329.37	71.51
329.583	3.93
329.796	-14.51
330.009	-2.22
330.222	20.31
330.435	85.84
330.648	-18.6
330.861	55.12
331.073	44.88
331.286	63.32
331.499	63.32
331.712	-8.36
331.925	51.03
332.138	51.03
332.35	36.69
332.563	5.97
332.776	77.65
332.989	-75.95
333.202	59.22
333.414	51.03
333.627	89.94
333.84	34.64
334.053	46.93
334.265	55.12
334.478	42.84
334.691	32.6
334.903	-2.22
335.116	3.93
335.329	20.31
335.541	61.27
335.754	122.71
335.966	18.26
336.179	-14.51
336.392	-0.17
336.604	20.31
336.817	71.51
337.029	46.93
337.242	8.02
337.454	36.69
337.667	32.6
337.88	98.13
338.092	26.45
338.305	30.55
338.517	-26.79
338.729	1.88
338.942	151.38
339.154	-2.22
339.367	-61.61
339.579	106.32
339.792	14.17
340.004	59.22
340.217	108.37
340.429	75.6
340.641	-20.65
340.854	85.84
341.066	-22.7
341.278	77.65
341.491	26.45
341.703	3.93
341.915	-22.7
342.128	155.47
342.34	30.55
342.552	3.93
342.764	-80.04
342.977	26.45
343.189	10.07
343.401	44.88
343.613	5.97
343.826	30.55
344.038	59.22
344.25	8.02
344.462	14.17
344.674	65.36
344.886	14.17
345.099	124.76
345.311	42.84
345.523	-4.27
345.735	-63.66
345.947	77.65
346.159	91.99
346.371	-18.6
346.583	79.7
346.795	145.24
347.007	16.21
347.219	-34.99
347.431	26.45
347.643	59.22
347.855	55.12
348.067	98.13
348.279	14.17
348.491	3.93
348.703	57.17
348.915	20.31
349.127	46.93
349.339	65.36
349.551	38.74
349.763	-4.27
349.975	5.97
350.187	96.08
350.399	40.79
350.61	85.84
350.822	-22.7
351.034	53.08
351.246	-2.22
351.458	63.32
351.669	77.65
351.881	81.75
352.093	53.08
352.305	3.93
352.517	18.26
352.728	120.66
352.94	-6.31
353.152	-59.56
353.363	-2.22
353.575	28.5
353.787	18.26
353.999	10.07
354.21	53.08
354.422	3.93
354.633	44.88
354.845	87.89
355.057	-59.56
355.268	55.12
355.48	14.17
355.692	-0.17
355.903	26.45
356.115	1.88
356.326	79.7
356.538	12.12
356.749	67.41
356.961	44.88
357.172	63.32
357.384	79.7
357.595	161.62
357.807	-28.84
358.018	26.45
358.23	28.5
358.441	96.08
358.653	73.56
358.864	36.69
359.075	85.84
359.287	42.84
359.498	55.12
359.709	69.46
359.921	24.4
360.132	87.89
360.344	24.4
360.555	110.42
360.766	-12.46
360.977	30.55
361.189	-6.31
361.4	12.12
361.611	98.13
361.823	34.64
362.034	83.8
362.245	61.27
362.456	46.93
362.667	34.64
362.879	12.12
363.09	42.84
363.301	-20.65
363.512	12.12
363.723	-28.84
363.935	34.64
364.146	98.13
364.357	34.64
364.568	40.79
364.779	44.88
364.99	73.56
365.201	38.74
365.412	69.46
365.623	-34.99
365.834	87.89
366.045	85.84
366.256	-6.31
366.467	26.45
366.678	94.04
366.889	-22.7
367.1	51.03
367.311	-12.46
367.522	81.75
367.733	96.08
367.944	71.51
368.155	48.98
368.366	12.12
368.577	69.46
368.788	48.98
368.999	-0.17
369.209	135
369.42	130.9
369.631	83.8
369.842	55.12
370.053	75.6
370.264	67.41
370.474	-16.55
370.685	14.17
370.896	1.88
371.107	75.6
371.317	67.41
371.528	46.93
371.739	57.17
371.95	1.88
372.16	73.56
372.371	14.17
372.582	53.08
372.792	20.31
373.003	77.65
373.214	51.03
373.424	116.56
373.635	46.93
373.846	61.27
374.056	18.26
374.267	83.8
374.477	79.7
374.688	34.64
374.898	14.17
375.109	42.84
375.319	22.36
375.53	12.12
375.74	94.04
375.951	16.21
376.161	46.93
376.372	61.27
376.582	22.36
376.793	48.98
377.003	79.7
377.214	28.5
377.424	59.22
377.635	12.12
377.845	-18.6
378.055	67.41
378.266	63.32
378.476	53.08
378.686	65.36
378.897	51.03
379.107	102.23
379.317	-20.65
379.528	51.03
379.738	38.74
379.948	-12.46
380.158	87.89
380.369	63.32
380.579	34.64
380.789	12.12
380.999	51.03
381.21	38.74
381.42	108.37
381.63	71.51
381.84	98.13
382.05	-2.22
382.261	53.08
382.471	77.65
382.681	-32.94
382.891	155.47
383.101	40.79
383.311	34.64
383.521	10.07
383.731	102.23
383.941	34.64
384.151	5.97
384.361	71.51
384.571	46.93
384.781	-2.22
384.991	79.7
385.201	26.45
385.411	63.32
385.621	108.37
385.831	83.8
386.041	55.12
386.251	1.88
386.461	85.84
386.671	20.31
386.881	83.8
387.091	38.74
387.301	108.37
387.511	89.94
387.72	-0.17
387.93	14.17
388.14	108.37
388.35	77.65
388.56	94.04
388.769	34.64
388.979	14.17
389.189	-10.41
389.399	71.51
389.609	22.36
389.818	73.56
390.028	51.03
390.238	38.74
390.447	100.18
390.657	132.95
390.867	14.17
391.076	18.26
391.286	114.52
391.496	79.7
391.705	71.51
391.915	96.08
392.125	71.51
392.334	100.18
392.544	10.07
392.753	30.55
392.963	120.66
393.172	40.79
393.382	55.12
393.591	67.41
393.801	112.47
394.01	110.42
394.22	96.08
394.429	112.47
394.639	98.13
394.848	16.21
395.058	75.6
395.267	141.14
395.477	53.08
395.686	1.88
395.895	81.75
396.105	182.1
396.314	137.04
396.524	5.97
396.733	89.94
396.942	114.52
397.152	100.18
397.361	94.04
397.57	96.08
397.78	87.89
397.989	63.32
398.198	137.04
398.407	104.28
398.617	89.94
398.826	153.43
399.035	65.36
399.244	120.66
399.453	104.28
399.663	100.18
399.872	145.24
400.081	143.19
400.29	159.57
400.499	36.69
400.708	91.99
400.917	98.13
401.127	81.75
401.336	71.51
401.545	192.34
401.754	106.32
401.963	208.72
402.172	108.37
402.381	120.66
402.59	91.99
402.799	94.04
403.008	51.03
403.217	169.81
403.426	87.89
403.635	171.86
403.844	87.89
404.053	79.7
404.262	34.64
404.471	229.2
404.68	104.28
404.888	79.7
405.097	126.8
405.306	175.95
405.515	182.1
405.724	165.71
405.933	157.52
406.142	85.84
406.35	110.42
406.559	159.57
406.768	225.11
406.977	194.39
407.185	243.54
407.394	198.48
407.603	225.11
407.812	264.02
408.02	249.68
408.229	251.73
408.438	356.18
408.646	229.2
408.855	300.88
409.064	245.59
409.272	235.35
409.481	259.92
409.69	223.06
409.898	298.83
410.107	294.74
410.315	319.31
410.524	321.36
410.733	415.57
410.941	345.94
411.15	329.55
411.358	411.47
411.567	440.14
411.775	417.61
411.984	370.51
412.192	364.37
412.401	438.09
412.609	479.05
412.818	499.53
413.026	468.81
413.234	530.25
413.443	550.73
413.651	526.16
413.86	644.94
414.068	575.31
414.276	630.6
414.485	612.17
414.693	718.67
414.901	694.09
415.11	655.18
415.318	653.13
415.526	763.72
415.734	751.43
415.943	755.53
416.151	837.45
416.359	765.77
416.567	851.78
416.776	945.99
416.984	921.42
417.192	1003.33
417.4	1015.62
417.608	1075.01
417.817	1054.53
418.025	1144.64
418.233	1226.56
418.441	1097.54
418.649	1193.8
418.857	1220.42
419.065	1345.34
419.273	1251.14
419.481	1392.45
419.689	1533.76
419.897	1546.05
420.105	1527.61
420.313	1568.57
420.521	1625.92
420.729	1617.72
420.937	1707.84
421.145	1759.03
421.353	1855.29
421.561	1937.21
421.769	2004.79
421.977	2144.05
422.185	1886.01
422.393	2094.9
422.601	2205.49
422.809	2318.13
423.017	2213.68
423.224	2391.86
423.432	2469.68
423.64	2596.65
423.848	2705.2
424.056	2735.92
424.263	2916.14
424.471	2785.07
424.679	2914.09
424.887	3016.49
425.094	3125.03
425.302	3196.71
425.51	3350.31
425.718	3374.88
425.925	3290.92
426.133	3559.2
426.341	3843.87
426.548	3852.06
426.756	3995.42
426.964	4042.52
427.171	4239.12
427.379	4273.94
427.586	4435.73
427.794	4650.77
428.001	4691.73
428.209	5025.54
428.417	4822.8
428.624	5170.95
428.832	5111.56
429.039	5183.24
429.247	5232.39
429.454	5711.61
429.662	6113.02
429.869	5615.36
430.076	5994.23
430.284	5816.06
430.491	6086.39
430.699	6299.38
430.906	6397.68
431.114	6549.23
431.321	6792.94
431.528	6815.47
431.736	7276.26
431.943	7771.87
432.15	7409.38
432.358	7620.32
432.565	8050.39
432.772	7945.95
432.979	8400.6
433.187	8468.18
433.394	8623.83
433.601	9254.6
433.808	9080.52
434.016	9250.5
434.223	9397.96
434.43	10182.33
434.637	9819.84
434.844	10442.42
435.052	10776.24
435.259	10555.06
435.466	10417.85
435.673	10559.16
435.88	11290.28
436.087	11769.51
436.294	11753.12
436.501	11720.35
436.708	11927.2
436.915	12127.9
437.122	12764.82
437.329	12560.02
437.537	13233.8
437.743	13313.67
437.95	13256.33
438.157	13651.59
438.364	14349.95
438.571	14435.96
438.778	14360.19
438.985	15746.66
439.192	15013.49
439.399	15701.61
439.606	15283.82
439.813	16229.98
440.02	17083.98
440.227	16711.25
440.433	16498.27
440.64	17215.05
440.847	16946.77
441.054	17827.4
441.261	18501.18
441.467	18529.85
441.674	18933.3
441.881	19525.16
442.088	19299.89
442.294	19416.62
442.501	19824.17
442.708	20074.02
442.914	20917.78
443.121	21827.08
443.328	21351.95
443.534	22828.54
443.741	22058.5
443.948	21622.28
444.154	23569.9
444.361	23043.57
444.568	23143.92
444.774	23387.63
444.981	23375.34
445.187	24114.66
445.394	25578.96
445.6	25159.13
445.807	27616.69
446.013	26000.84
446.22	26475.97
446.426	27444.66
446.633	28089.77
446.839	28835.23
447.046	27983.27
447.252	29148.57
447.459	29140.38
447.665	28990.87
447.871	30133.64
448.078	31825.26
448.284	30162.31
448.491	31122.81
448.697	32165.23
448.903	32542.05
449.11	32697.7
449.316	32259.43
449.522	32521.57
449.728	33789.27
449.935	33807.7
450.141	33563.99
450.347	34329.93
450.553	33232.22
450.76	33506.65
450.966	34598.21
451.172	34219.34
451.378	35167.55
451.584	34755.91
451.791	35001.66
451.997	34852.16
452.203	35566.9
452.409	35646.77
452.615	35212.6
452.821	34135.37
453.027	33727.83
453.233	35607.86
453.44	33752.4
453.646	34346.31
453.852	34389.32
454.058	35306.81
454.264	33977.68
454.47	34698.56
454.676	33725.78
454.882	34829.63
455.088	31731.06
455.294	32179.56
455.5	32554.34
455.705	32830.82
455.911	31309.18
456.117	30834.05
456.323	30446.98
456.529	28956.06
456.735	30350.73
456.941	29261.21
457.147	28964.25
457.352	28011.95
457.558	27497.91
457.764	27579.82
457.97	27344.31
458.176	26551.74
458.381	26566.08
458.587	25300.44
458.793	25286.1
458.999	23989.74
459.204	25839.05
459.41	25193.94
459.616	23154.16
459.821	23315.95
460.027	23496.17
460.233	22920.7
460.438	21644.81
460.644	22050.31
460.85	20852.25
461.055	20430.37
461.261	20618.78
461.466	18726.46
461.672	18370.11
461.878	19775.02
462.083	18372.16
462.289	18603.58
462.494	18306.62
462.7	17434.19
462.905	16932.43
463.111	17344.08
463.316	17456.71
463.522	17145.42
463.727	17118.8
463.932	17264.21
464.138	16885.33
464.343	16971.35
464.549	16592.47
464.754	16793.17
464.959	16973.39
465.165	16758.36
465.37	16217.69
465.575	15765.09
465.781	16229.98
465.986	16172.64
466.191	15771.24
466.397	15525.48
466.602	14665.33
466.807	15341.16
467.012	15394.41
467.218	15122.03
467.423	14902.9
467.628	15156.85
467.833	15955.55
468.038	15138.41
468.244	14691.96
468.449	15451.75
468.654	14712.44
468.859	14595.7
469.064	14560.89
469.269	13989.5
469.474	14343.8
469.679	14235.26
469.885	13874.82
470.09	14167.68
470.295	13969.02
470.5	13743.75
470.705	13887.11
470.91	13637.25
471.115	13317.77
471.32	13766.28
471.525	13551.24
471.73	12813.97
471.935	12795.54
472.139	12639.89
472.344	12848.79
472.549	12998.29
472.754	12672.66
472.959	12271.26
473.164	12150.43
473.369	12097.18
473.574	12226.2
473.778	12269.21
473.983	12127.9
474.188	12183.2
474.393	11675.3
474.598	11757.22
474.802	11603.62
475.007	11650.72
475.212	11450.02
475.417	11065
475.621	11009.71
475.826	11144.88
476.031	10983.09
476.235	10712.75
476.44	10735.28
476.645	10626.74
476.849	10569.4
477.054	10528.44
477.259	10047.16
477.463	10403.51
477.668	9940.67
477.872	10131.13
478.077	9975.49
478.282	9830.08
478.486	9836.22
478.691	9678.53
478.895	9754.3
479.1	9615.04
479.304	9774.78
479.509	9195.21
479.713	9561.8
479.918	9416.39
480.122	9176.78
480.326	9336.52
480.531	9346.76
480.735	9168.59
480.94	9141.96
481.144	9371.33
481.348	8974.03
481.553	9207.5
481.757	8804.05
481.961	8984.27
482.166	9098.95
482.37	9209.54
482.574	8836.81
482.778	8861.39
482.983	9137.87
483.187	8959.69
483.391	9125.58
483.595	8996.56
483.8	8902.35
484.004	9002.7
484.208	9184.97
484.412	8967.88
484.616	8918.73
484.821	9031.37
485.025	8832.72
485.229	8910.54
485.433	9021.13
485.637	9000.65
485.841	8906.45
486.045	8816.33
486.249	8928.97
486.453	8951.5
486.657	8834.77
486.861	8832.72
487.065	8845.01
487.269	9047.76
487.473	8677.07
487.677	8904.4
487.881	9014.99
488.085	8933.07
488.289	9113.29
488.493	9070.28
488.697	9074.38
488.901	9246.41
489.105	8773.33
489.309	9180.87
489.512	9156.3
489.716	9012.94
489.92	9187.02
490.124	8910.54
490.328	9197.26
490.531	8900.3
490.735	9397.96
490.939	9305.8
491.143	9146.06
491.346	9133.77
491.55	9371.33
491.754	9291.46
491.958	9561.8
492.161	9397.96
492.365	9381.57
492.569	9492.16
492.772	9461.44
492.976	9479.88
493.18	9737.92
493.383	9711.3
493.587	9778.88
493.79	9840.32
493.994	9703.11
494.197	9875.13
494.401	9940.67
494.605	9731.78
494.808	10282.68
495.012	10311.35
495.215	10114.75
495.419	10415.8
495.622	10309.3
495.825	10403.51
496.029	10448.57
496.232	10819.25
496.436	10626.74
496.639	10972.85
496.843	10763.95
497.046	11112.11
497.249	11450.02
497.453	11148.97
497.656	11495.08
497.859	11257.51
498.063	11531.94
498.266	11613.86
498.469	11912.86
498.673	11656.87
498.876	12138.14
499.079	12164.76
499.282	12187.29
499.485	12240.54
499.689	12191.39
499.892	12641.94
500.095	12738.19
500.298	13067.92
500.501	12557.97
500.705	13170.32
500.908	13242
501.111	13428.36
501.314	13694.6
501.517	13706.88
501.72	13887.11
501.923	14096
502.126	14292.6
502.329	14593.65
502.532	14599.8
502.735	14651
502.938	15085.17
503.141	15001.2
503.344	15183.47
503.547	15351.4
503.75	15369.83
503.953	15621.73
504.156	15560.3
504.359	15920.74
504.562	15986.27
504.765	16395.87
504.968	16514.65
505.17	16705.11
505.373	16524.89
505.576	17241.68
505.779	17223.25
505.982	17376.84
506.185	17649.22
506.387	17729.09
506.59	17782.34
506.793	18218.56
506.996	18173.5
507.198	18875.96
507.401	18325.05
507.604	18650.68
507.807	19285.55
508.009	19414.57
508.212	19623.47
508.415	19625.51
508.617	19961.38
508.82	19932.71
509.022	19883.56
509.225	20674.07
509.428	20454.94
509.63	20669.98
509.833	21030.42
510.035	21339.66
510.238	20977.17
510.44	21448.21
510.643	21728.78
510.845	21958.15
511.048	22197.76
511.25	22636.03
511.453	22484.48
511.655	23424.5
511.858	23293.43
512.06	23399.92
512.262	23733.74
512.465	23471.6
512.667	24018.41
512.87	24544.73
513.072	24352.23
513.274	24741.34
513.477	24878.55
513.679	25054.68
513.881	25349.59
514.084	25632.21
514.286	25837
514.488	26129.86
514.69	26627.52
514.893	27006.39
515.095	26361.28
515.297	27143.61
515.499	27405.75
515.701	27532.72
515.904	27856.3
516.106	28214.69
516.308	28302.76
516.51	28857.76
516.712	28865.95
516.914	28984.73
517.116	29709.71
517.318	29425.04
517.52	29644.18
517.722	29681.04
517.925	30303.62
518.127	30547.33
518.329	30928.25
518.531	30956.92
518.733	31522.16
518.935	31583.6
519.136	31788.4
519.338	32425.32
519.54	32605.54
519.742	32834.91
519.944	32370.02
520.146	33213.79
520.348	33502.55
520.55	33879.38
520.752	33727.83
520.954	34626.88
521.155	33881.42
521.357	34798.91
521.559	35005.76
521.761	35249.47
521.963	35599.67
522.164	35749.17
522.366	35790.13
522.568	36777.25
522.77	36193.58
522.971	36592.93
523.173	36920.61
523.375	37152.03
523.576	37211.42
523.778	37207.33
523.98	37817.62
524.181	38167.82
524.383	37846.29
524.584	38477.07
524.786	38651.14
524.988	38624.52
525.189	38745.35
525.391	39312.64
525.592	39386.36
525.794	39564.54
525.995	39736.57
526.197	39931.12
526.398	39951.6
526.6	40221.94
526.801	40142.06
527.003	40703.21
527.204	40570.09
527.406	40830.18
527.607	40727.78
527.808	40862.95
528.01	40631.53
528.211	40879.33
528.412	42007.76
528.614	41589.98
528.815	41805.02
529.016	41854.17
529.218	41839.83
529.419	41852.12
529.62	41858.26
529.822	42472.65
530.023	42509.52
530.224	42474.7
530.425	42538.19
530.626	42443.98
530.828	41999.57
531.029	43478.21
531.23	42409.17
531.431	42728.65
531.632	42880.2
531.833	42839.24
532.035	42609.87
532.236	43269.31
532.437	43105.48
532.638	43003.08
532.839	43429.05
533.04	43852.98
533.241	42517.71
533.442	43941.05
533.643	43400.38
533.844	43381.95
534.045	43992.25
534.246	43091.14
534.447	44049.59
534.648	43553.98
534.849	43531.45
535.05	43408.57
535.251	43656.38
535.451	43424.96
535.652	44016.82
535.853	43840.7
536.054	43846.84
536.255	43793.59
536.456	43347.14
536.657	44403.89
536.857	43420.86
537.058	43537.6
537.259	44160.18
537.46	43955.38
537.66	43478.21
537.861	44487.85
538.062	43629.76
538.263	43990.2
538.463	43644.09
538.664	43791.55
538.865	43912.38
539.065	44141.75
539.266	43717.82
539.466	43881.66
539.667	43809.98
539.868	44260.53
540.068	43377.86
540.269	43920.57
540.469	44141.75
540.67	43541.69
540.87	43828.41
541.071	44180.66
541.271	44039.35
541.472	43945.14
541.672	43631.8
541.873	43883.7
542.073	43330.75
542.274	43840.7
542.474	43807.93
542.675	43674.81
542.875	44033.21
543.075	43799.74
543.276	43326.66
543.476	44090.55
543.676	43621.56
543.877	44156.08
544.077	44020.92
544.277	43515.07
544.478	43611.32
544.678	44207.28
544.878	44113.08
545.078	43773.11
545.279	43578.56
545.479	43760.83
545.679	43941.05
545.879	43662.52
546.079	43775.16
546.28	43701.43
546.48	43566.27
546.68	43867.32
546.88	44178.61
547.08	43672.76
547.28	43461.82
547.48	43312.32
547.68	43633.85
547.88	43580.6
548.081	43867.32
548.281	43631.8
548.481	43316.42
548.681	43721.91
548.881	43535.55
549.081	43592.89
549.28	43146.43
549.48	43666.62
549.68	43605.18
549.88	44264.63
550.08	43420.86
550.28	44006.58
550.48	43297.98
550.68	43943.09
550.88	43074.76
551.08	43414.72
551.279	43089.09
551.479	43441.34
551.679	43570.36
551.879	43324.61
552.079	43898.04
552.278	43140.29
552.478	43465.92
552.678	43525.31
552.878	43822.26
553.077	43218.11
553.277	43355.33
553.477	44088.5
553.676	43338.94
553.876	43457.73
554.076	43130.05
554.275	43508.93
554.475	43093.19
554.674	43441.34
554.874	43015.36
555.074	43044.04
555.273	43183.3
555.473	43269.31
555.672	42652.87
555.872	42876.1
556.071	42998.98
556.271	43302.08
556.47	42953.93
556.67	42564.81
556.869	42732.75
557.068	43193.54
557.268	42728.65
557.467	42708.17
557.667	42869.96
557.866	42878.15
558.065	42691.79
558.265	42300.62
558.464	42515.66
558.663	42740.94
558.863	42030.29
559.062	42966.21
559.261	42274
559.461	42360.01
559.66	41823.45
559.859	42142.93
560.058	41555.16
560.258	41495.77
560.457	41657.56
560.656	42110.16
560.855	41794.78
561.054	41686.23
561.253	41567.45
561.453	41897.17
561.652	41768.15
561.851	41757.91
562.05	41540.83
562.249	41430.24
562.448	41737.43
562.647	41319.65
562.846	41151.71
563.045	41293.02
563.244	40854.76
563.443	41432.29
563.642	40662.25
563.841	40621.29
564.04	40948.96
564.239	40983.78
564.438	40711.4
564.637	41155.81
564.836	40938.72
565.035	40389.87
565.234	40207.6
565.432	40246.51
565.631	40176.88
565.83	40021.23
566.029	40021.23
566.228	40158.45
566.427	39990.52
566.625	39384.32
566.824	39124.22
567.023	39820.53
567.222	39064.83
567.42	39750.9
567.619	39427.32
567.818	39040.26
568.016	39263.49
568.215	39351.55
568.414	38960.39
568.612	39220.48
568.811	38567.18
569.01	38696.2
569.208	38081.81
569.407	38683.91
569.605	38053.14
569.804	38636.81
570.002	38003.99
570.201	38659.34
570.4	37911.83
570.598	37864.72
570.797	37831.96
570.995	38063.38
571.193	37338.4
571.392	37661.97
571.59	37448.99
571.789	37424.41
571.987	37393.69
572.186	37457.18
572.384	37135.65
572.582	37307.68
572.781	37676.31
572.979	37137.69
573.177	37000.48
573.376	37045.54
573.574	36533.54
573.772	36785.44
573.971	36316.46
574.169	36322.6
574.367	36308.27
574.565	36310.32
574.763	36212.01
574.962	36273.45
575.16	35327.29
575.358	36080.94
575.556	35310.91
575.754	35880.24
575.952	35249.47
576.151	35956.02
576.349	35487.03
576.547	35405.11
576.745	35685.68
576.943	35347.77
577.141	35161.4
577.339	35110.21
577.537	35175.74
577.735	34954.56
577.933	34661.7
578.131	34766.15
578.329	34106.7
578.527	34188.62
578.725	34297.16
578.923	34833.73
579.121	34104.65
579.319	34092.37
579.516	34065.74
579.714	34151.76
579.912	33721.68
580.11	33709.39
580.308	33879.38
580.506	33537.37
580.704	33351
580.901	33488.21
581.099	33813.84
581.297	32922.97
581.495	33262.94
581.692	33420.63
581.89	33178.97
582.088	33355.1
582.285	33170.78
582.483	33004.89
582.681	33092.96
582.878	32613.73
583.076	32458.09
583.274	32417.13
583.471	32157.03
583.669	32288.1
583.866	32349.54
584.064	32445.8
584.262	31821.17
584.459	32118.12
584.657	32023.92
584.854	32327.02
585.052	31151.48
585.249	31796.59
585.447	31585.65
585.644	31391.09
585.841	31651.19
586.039	31378.81
586.236	30829.95
586.434	31118.71
586.631	30772.61
586.828	31280.5
587.026	30932.35
587.223	30694.78
587.42	31065.47
587.618	30451.08
587.815	30440.84
588.012	30213.51
588.21	30104.97
588.407	30408.07
588.604	30403.97
588.801	29552.02
588.999	30006.67
589.196	29918.6
589.393	30074.25
589.59	29820.3
589.787	29377.94
589.984	29318.55
590.182	29029.79
590.379	29494.68
590.576	29007.26
590.773	29283.73
590.97	29144.47
591.167	29126.04
591.364	28220.84
591.561	29009.31
591.758	28521.89
591.955	28513.7
592.152	29101.47
592.349	28431.78
592.546	28745.12
592.743	28935.58
592.94	28042.67
593.137	28415.4
593.334	28548.51
593.531	27983.27
593.727	27760.05
593.924	28437.92
594.121	27788.72
594.318	28079.53
594.515	27282.87
594.712	27979.18
594.908	27184.57
595.105	27526.58
595.302	27190.71
595.499	27440.56
595.696	27028.92
595.892	26961.34
596.089	27368.88
596.286	27092.41
596.482	26881.47
596.679	26740.16
596.876	26979.77
597.072	26590.66
597.269	26561.98
597.466	26281.41
597.662	26279.36
597.859	26312.13
598.055	26191.3
598.252	26099.14
598.448	26103.24
598.645	26133.96
598.841	25853.39
599.038	25920.97
599.234	25888.2
599.431	25607.63
599.627	26039.75
599.824	25673.17
600.02	25361.87
600.217	25073.11
600.413	25226.71
600.609	24878.55
600.806	25144.79
601.002	25384.4
601.198	24643.04
601.395	24794.59
601.591	24770.01
601.787	24976.86
601.984	24530.4
602.18	24770.01
602.376	24407.52
602.572	24321.51
602.769	24260.07
602.965	24362.47
603.161	24399.33
603.357	24219.11
603.553	23950.82
603.75	24370.66
603.946	23651.82
604.142	23916.01
604.338	23234.03
604.534	23893.48
604.73	23414.26
604.926	23580.14
605.122	23305.71
605.318	23184.88
605.514	23299.57
605.71	23164.4
605.906	22894.07
606.102	23012.85
606.298	23049.72
606.494	23119.35
606.69	22861.3
606.886	23127.54
607.082	22656.51
607.278	22849.02
607.474	22824.44
607.67	22666.75
607.866	22547.97
608.062	22537.73
608.257	22683.13
608.453	22251.01
608.649	22519.29
608.845	22402.56
609.041	22666.75
609.236	22138.37
609.432	22199.81
609.628	22269.44
609.824	22140.42
610.019	21849.61
610.215	21825.03
610.411	22023.69
610.606	21790.22
610.802	21898.76
610.998	21913.09
611.193	21882.38
611.389	21630.48
611.584	21628.43
611.78	21669.39
611.976	21249.55
612.171	21612.04
612.367	21618.19
612.562	21173.78
612.758	21362.19
612.953	21079.57
613.149	21284.37
613.344	20799
613.539	21464.59
613.735	21083.67
613.93	21071.38
614.126	21042.71
614.321	21227.03
614.517	21229.07
614.712	21001.75
614.907	20770.33
615.103	20835.86
615.298	20760.09
615.493	20981.27
615.688	20358.69
615.884	21171.73
616.079	20479.52
616.274	20878.87
616.47	20626.97
616.665	20409.89
616.86	20403.74
617.055	20338.21
617.25	20231.71
617.445	20442.65
617.641	20125.22
617.836	20301.34
618.031	20026.92
618.226	20117.03
618.421	19912.23
618.616	20076.07
618.811	19826.21
619.006	20065.83
619.201	19430.96
619.396	19508.78
619.591	19322.41
619.786	19545.64
619.981	19207.73
620.176	19582.51
620.371	19256.88
620.566	19035.7
620.761	19115.57
620.956	19269.17
621.151	18619.96
621.346	19082.8
621.541	18406.97
621.735	18888.25
621.93	18585.15
622.125	18697.78
622.32	18208.32
622.515	18488.89
622.709	18142.78
622.904	18535.99
623.099	18048.58
623.294	18173.5
623.488	17702.47
623.683	17645.13
623.878	17667.66
624.072	17659.46
624.267	17638.98
624.462	17393.23
624.656	17241.68
624.851	17380.94
625.046	17100.37
625.24	17014.35
625.435	16963.15
625.629	16871
625.824	16791.13
626.018	16539.22
626.213	16076.38
626.407	16467.55
626.602	16373.34
626.796	16244.32
626.991	16141.92
627.185	16234.08
627.38	15758.95
627.574	16043.62
627.768	15793.76
627.963	15660.65
628.157	15599.21
628.352	15808.1
628.546	15074.93
628.74	15310.44
628.935	15076.98
629.129	15392.36
629.323	14732.92
629.517	14900.85
629.712	15060.59
629.906	14962.29
630.1	14587.51
630.294	14747.25
630.489	14624.37
630.683	14689.91
630.877	14270.08
631.071	14317.18
631.265	14290.56
631.459	14347.9
631.653	14294.65
631.848	14034.56
632.042	14159.49
632.236	13831.81
632.43	13739.65
632.624	13809.28
632.818	13684.36
633.012	13739.65
633.206	13440.65
633.4	13682.31
633.594	13485.7
633.788	13340.3
633.982	13459.08
634.176	13141.64
634.369	13403.78
634.563	12940.94
634.757	12945.04
634.951	13014.67
635.145	12957.33
635.339	12887.7
635.533	12801.68
635.726	12918.42
635.92	12539.54
636.114	12461.72
636.308	12273.31
636.501	12562.07
636.695	12232.35
636.889	12285.59
637.083	12310.17
637.276	12068.51
637.47	12265.11
637.664	12107.42
637.857	12058.27
638.051	11781.79
638.244	11738.79
638.438	11746.98
638.632	11628.2
638.825	11656.87
639.019	11597.48
639.212	11605.67
639.406	11527.85
639.599	11478.69
639.793	11429.54
639.986	11091.63
640.18	11196.07
640.373	11044.52
640.567	10952.37
640.76	11015.85
640.954	10987.18
641.147	10913.45
641.34	10673.84
641.534	10753.71
641.727	10815.15
641.92	10598.07
642.114	10448.57
642.307	10499.77
642.5	10415.8
642.694	10290.87
642.887	10311.35
643.08	10239.67
643.273	10309.3
643.467	10137.27
643.66	9916.09
643.853	10172.09
644.046	9946.81
644.239	10145.47
644.432	9877.18
644.626	9762.5
644.819	9912
645.012	9975.49
645.205	9854.65
645.398	9627.33
645.591	9379.53
645.784	9477.83
645.977	9232.07
646.17	9377.48
646.363	9490.12
646.556	9246.41
646.749	9043.66
646.942	9182.92
647.135	9230.02
647.328	9086.67
647.521	9082.57
647.714	9109.19
647.907	8992.46
648.099	8853.2
648.292	8941.26
648.485	8959.69
648.678	8804.05
648.871	8861.39
649.064	8834.77
649.256	8785.62
649.449	8550.1
649.642	8543.95
649.835	8494.8
650.027	8556.24
650.22	8691.41
650.413	8296.15
650.605	8277.72
650.798	8296.15
650.991	8181.46
651.183	8357.59
651.376	8189.66
651.568	8136.41
651.761	8144.6
651.954	7995.1
652.146	7966.43
652.339	7937.76
652.531	7982.81
652.724	7677.66
652.916	7722.72
653.109	7841.5
653.301	7743.2
653.494	7694.05
653.686	7448.29
653.879	7730.91
654.071	7550.69
654.263	7569.12
654.456	7483.11
654.648	7599.84
654.84	7108.33
655.033	7526.11
655.225	7272.17
655.417	7286.5
655.61	7360.23
655.802	7216.87
655.994	7290.6
656.186	7182.06
656.379	7081.71
656.571	7016.17
656.763	6952.68
656.955	7030.51
657.148	6852.33
657.34	6940.4
657.532	6917.87
657.724	6827.76
657.916	6868.72
658.108	6823.66
658.3	6694.64
658.492	6833.9
658.684	6608.62
658.876	6778.61
659.068	6604.53
659.26	6567.67
659.452	6493.94
659.644	6502.13
659.836	6342.39
660.028	6467.31
660.22	6461.17
660.412	6350.58
660.604	6176.5
660.796	6461.17
660.988	6475.51
661.18	6057.72
661.372	6160.12
661.563	6293.24
661.755	6086.39
661.947	6201.08
662.139	6102.78
662.331	6024.95
662.522	6024.95
662.714	6016.76
662.906	6057.72
663.097	6076.15
663.289	5826.3
663.481	5781.25
663.673	5879.55
663.864	5803.77
664.056	5809.92
664.247	5754.62
664.439	5533.44
664.631	5592.83
664.822	5652.22
665.014	5748.48
665.205	5705.47
665.397	5652.22
665.588	5617.41
665.78	5492.48
665.971	5578.5
666.163	5521.15
666.354	5506.82
666.546	5564.16
666.737	5467.91
666.929	5588.74
667.12	5435.14
667.311	5570.3
667.503	5322.5
667.694	5418.75
667.885	5279.49
668.077	5316.36
668.268	5285.64
668.459	5316.36
668.651	5173
668.842	5367.56
669.033	5283.59
669.224	5197.57
669.416	5224.2
669.607	5121.8
669.798	5084.94
669.989	5043.98
670.18	5066.5
670.371	5115.66
670.563	4937.48
670.754	5105.42
670.945	4859.66
671.136	5080.84
671.327	5011.21
671.518	4927.24
671.709	4962.06
671.9	5099.27
672.091	4953.87
672.282	4818.7
672.473	4878.09
672.664	4843.28
672.855	4902.67
673.046	4755.21
673.237	4917
673.428	4755.21
673.619	4568.85
673.809	4777.74
674	4796.17
674.191	4861.71
674.382	4728.59
674.573	4744.97
674.764	4615.95
674.954	4785.93
675.145	4599.57
675.336	4712.21
675.527	4697.87
675.717	4808.46
675.908	4507.41
676.099	4630.29
676.289	4593.42
676.48	4736.78
676.671	4687.63
676.861	4722.45
677.052	4536.08
677.243	4497.17
677.433	4505.36
677.624	4615.95
677.814	4632.33
678.005	4443.92
678.195	4558.61
678.386	4574.99
678.576	4443.92
678.767	4390.67
678.957	4407.06
679.148	4691.73
679.338	4501.26
679.529	4464.4
679.719	4493.07
679.909	4386.58
680.1	4478.74
680.29	4519.7
680.481	4527.89
680.671	4415.25
680.861	4542.22
681.052	4505.36
681.242	4421.39
681.432	4396.82
681.622	4325.14
681.813	4462.35
682.003	4402.96
682.193	4337.43
682.383	4382.48
682.573	4329.24
682.764	4269.84
682.954	4290.32
683.144	4405.01
683.334	4247.32
683.524	4265.75
683.714	4314.9
683.904	4196.12
684.094	4321.04
684.284	4378.39
684.474	4529.94
684.664	4212.5
684.854	4249.36
685.044	4312.85
685.234	4181.78
685.424	4407.06
685.614	4247.32
685.804	4126.49
685.994	4290.32
686.184	4241.17
686.374	4235.03
686.564	4214.55
686.753	4126.49
686.943	4054.81
687.133	4183.83
687.323	4232.98
687.513	4114.2
687.702	4079.38
687.892	3966.74
688.082	4112.15
688.272	3999.51
688.461	4032.28
688.651	4032.28
688.841	4017.94
689.03	4091.67
689.22	3872.54
689.41	3897.11
689.599	3794.72
689.789	3913.5
689.979	3958.55
690.168	3747.61
690.358	3917.59
690.547	3796.76
690.737	3841.82
690.926	3737.37
691.116	3882.78
691.305	3784.48
691.495	3827.48
691.684	3804.96
691.874	3743.52
692.063	3680.03
692.252	3716.89
692.442	3782.43
692.631	3630.88
692.82	3657.5
693.01	3659.55
693.199	3802.91
693.388	3581.73
693.578	3583.77
693.767	3628.83
693.956	3462.94
694.146	3426.08
694.335	3583.77
694.524	3591.97
694.713	3563.29
694.902	3508
695.092	3487.52
695.281	3575.58
695.47	3598.11
695.659	3452.7
695.848	3454.75
696.037	3475.23
696.226	3589.92
696.415	3471.14
696.604	3634.97
696.793	3454.75
696.982	3426.08
697.171	3440.42
697.36	3413.79
697.549	3536.67
697.738	3370.79
697.927	3360.55
698.116	3364.64
698.305	3395.36
698.494	3362.59
698.683	3399.46
698.872	3397.41
699.061	3372.83
699.25	3344.16
699.438	3356.45
699.627	3364.64
699.816	3393.31
700.005	3446.56
700.193	3372.83
700.382	3436.32
700.571	3348.26
700.76	3256.1
700.948	3440.42
701.137	3397.41
701.326	3327.78
701.514	3372.83
701.703	3354.4
701.892	3421.99
702.08	3477.28
702.269	3409.7
702.457	3413.79
702.646	3452.7
702.834	3307.3
703.023	3421.99
703.212	3286.82
703.4	3288.87
703.589	3278.63
703.777	3360.55
703.965	3321.63
704.154	3245.86
704.342	3329.83
704.531	3397.41
704.719	3237.67
704.907	3364.64
705.096	3299.11
705.284	3280.68
705.472	3245.86
705.661	3356.45
705.849	3290.92
706.037	3245.86
706.226	3264.29
706.414	3217.19
706.602	3323.68
706.79	3340.07
706.979	3241.76
707.167	3262.24
707.355	3350.31
707.543	3188.52
707.731	3239.72
707.919	3319.59
708.107	3231.52
708.296	3438.37
708.484	3217.19
708.672	3397.41
708.86	3329.83
709.048	3262.24
709.236	3260.2
709.424	3280.68
709.612	3327.78
709.8	3393.31
709.988	3221.28
710.176	3272.48
710.364	3358.5
710.551	3389.22
710.739	3204.9
710.927	3290.92
711.115	3393.31
711.303	3276.58
711.491	3307.3
711.679	3112.74
711.866	3333.92
712.054	3399.46
712.242	3243.81
712.43	3403.55
712.617	3264.29
712.805	3237.67
712.993	3258.15
713.181	3254.05
713.368	3229.48
713.556	3221.28
713.744	3209
713.931	3174.18
714.119	3276.58
714.306	3350.31
714.494	3268.39
714.682	3206.95
714.869	3256.1
715.057	3401.51
715.244	3223.33
715.432	3229.48
715.619	3350.31
715.807	3374.88
715.994	3325.73
716.182	3333.92
716.369	3266.34
716.556	3335.97
716.744	3237.67
716.931	3256.1
717.119	3413.79
717.306	3276.58
717.493	3348.26
717.681	3389.22
717.868	3217.19
718.055	3268.39
718.242	3376.93
718.43	3368.74
718.617	3323.68
718.804	3272.48
718.991	3182.37
719.179	3364.64
719.366	3209
719.553	3327.78
719.74	3319.59
719.927	3426.08
720.114	3319.59
720.301	3329.83
720.488	3151.65
720.676	3290.92
720.863	3292.96
721.05	3389.22
721.237	3217.19
721.424	3340.07
721.611	3335.97
721.798	3362.59
721.985	3182.37
722.172	3227.43
722.358	3209
722.545	3227.43
722.732	3229.48
722.919	3276.58
723.106	3335.97
723.293	3200.8
723.48	3407.65
723.667	3249.96
723.853	3276.58
724.04	3307.3
724.227	3288.87
724.414	3172.13
724.6	3307.3
724.787	3184.42
724.974	3202.85
725.161	3256.1
725.347	3211.04
725.534	3233.57
725.72	3192.61
725.907	3088.17
726.094	3213.09
726.28	3176.23
726.467	3139.37
726.653	3079.97
726.84	3100.45
727.027	3313.44
727.213	3063.59
727.4	3188.52
727.586	3278.63
727.773	3168.04
727.959	3305.25
728.145	3157.8
728.332	3241.76
728.518	3163.94
728.705	3292.96
728.891	3237.67
729.077	3213.09
729.264	3184.42
729.45	3168.04
729.636	3131.17
729.823	3098.41
730.009	3186.47
730.195	3092.26
730.382	3288.87
730.568	3112.74
730.754	3094.31
730.94	3217.19
731.126	3133.22
731.313	3295.01
731.499	3161.89
731.685	3106.6
731.871	3092.26
732.057	3067.69
732.243	3147.56
732.429	3002.15
732.615	3079.97
732.801	3133.22
732.987	3141.41
733.173	3241.76
733.359	3110.69
733.545	3278.63
733.731	2975.53
733.917	3106.6
734.103	3043.11
734.289	3008.3
734.475	3118.89
734.661	3172.13
734.847	3155.75
735.033	2977.58
735.219	3092.26
735.404	3012.39
735.59	3047.21
735.776	3030.82
735.962	3176.23
736.148	3030.82
736.333	3047.21
736.519	2940.71
736.705	3016.49
736.89	2991.91
737.076	2961.19
737.262	2965.29
737.447	3110.69
737.633	2873.13
737.819	3094.31
738.004	3010.34
738.19	3077.93
738.375	3024.68
738.561	2985.77
738.747	3002.15
738.932	2866.99
739.118	2897.71
739.303	2899.75
739.489	2830.12
739.674	2875.18
739.859	2873.13
740.045	2823.98
740.23	2783.02
740.416	2883.37
740.601	3069.73
740.786	2793.26
740.972	2860.84
741.157	2871.08
741.342	2721.58
741.528	2754.35
741.713	2797.35
741.898	2809.64
742.084	2807.59
742.269	2785.07
742.454	2887.47
742.639	2756.4
742.824	2715.44
743.01	2856.75
743.195	2821.93
743.38	2694.96
743.565	2690.86
743.75	2737.96
743.935	2516.78
744.12	2754.35
744.305	2647.85
744.49	2586.41
744.675	2623.28
744.86	2735.92
745.045	2512.69
745.23	2760.49
745.415	2631.47
745.6	2578.22
745.785	2502.45
745.97	2479.92
746.155	2541.36
746.34	2545.45
746.525	2455.34
746.71	2508.59
746.895	2443.06
747.079	2494.26
747.264	2408.24
747.449	2490.16
747.634	2379.57
747.819	2301.75
748.003	2275.12
748.188	2297.65
748.373	2385.71
748.557	2412.34
748.742	2264.88
748.927	2262.83
749.111	2281.27
749.296	2185.01
749.481	2248.5
749.665	2232.12
749.85	2160.44
750.034	2142
750.219	2172.72
750.404	2168.63
750.588	2254.64
750.773	2129.72
750.957	2109.24
751.141	2066.23
751.326	2088.76
751.51	2127.67
751.695	2115.38
751.879	2008.89
752.064	2078.52
752.248	1910.58
752.432	2031.41
752.617	2099
752.801	1994.55
752.985	1965.88
753.17	1924.92
753.354	2021.17
753.538	1922.87
753.722	1929.02
753.907	1924.92
754.091	1785.66
754.275	1787.71
754.459	1775.42
754.643	1914.68
754.828	1826.62
755.012	1763.13
755.196	1779.51
755.38	1822.52
755.564	1761.08
755.748	1822.52
755.932	1742.65
756.116	1736.51
756.3	1650.49
756.484	1781.56
756.668	1722.17
756.852	1587.01
757.036	1713.98
757.22	1707.84
757.404	1664.83
757.588	1632.06
757.772	1593.15
757.956	1627.96
758.14	1619.77
758.323	1644.35
758.507	1601.34
758.691	1578.81
758.875	1601.34
759.059	1562.43
759.242	1441.6
759.426	1595.2
759.61	1505.09
759.794	1478.46
759.977	1605.44
760.161	1460.03
760.345	1517.37
760.528	1519.42
760.712	1445.7
760.895	1402.69
761.079	1431.36
761.263	1445.7
761.446	1472.32
761.63	1447.74
761.813	1437.5
761.997	1470.27
762.18	1320.77
762.364	1388.35
762.547	1345.34
762.731	1292.1
762.914	1322.82
763.098	1353.54
763.281	1347.39
763.464	1265.47
763.648	1244.99
763.831	1277.76
764.015	1302.34
764.198	1369.92
764.381	1335.1
764.564	1255.23
764.748	1222.47
764.931	1251.14
765.114	1216.32
765.297	1283.91
765.481	1204.03
765.664	1288
765.847	1318.72
766.03	1322.82
766.213	1232.71
766.397	1218.37
766.58	1306.43
766.763	1226.56
766.946	1261.38
767.129	1193.8
767.312	1103.68
767.495	1259.33
767.678	1175.36
767.861	1146.69
768.044	1179.46
768.227	1230.66
768.41	1199.94
768.593	1193.8
768.776	1124.16
768.959	1163.08
769.142	1238.85
769.324	1148.74
769.507	1140.55
769.69	1193.8
769.873	1173.32
770.056	1169.22
770.239	1142.6
770.421	1115.97
770.604	1038.15
770.787	1167.17
770.97	1070.92
771.152	1068.87
771.335	1056.58
771.518	1046.34
771.7	1128.26
771.883	1040.2
772.066	1019.72
772.248	1013.57
772.431	1046.34
772.613	984.9
772.796	968.52
772.978	937.8
773.161	1011.53
773.343	1007.43
773.526	1011.53
773.708	962.37
773.891	943.94
774.073	927.56
774.256	937.8
774.438	972.61
774.621	970.57
774.803	923.46
774.985	888.65
775.168	966.47
775.35	921.42
775.532	886.6
775.715	894.79
775.897	890.7
776.079	933.7
776.261	966.47
776.444	857.93
776.626	921.42
776.808	851.78
776.99	796.49
777.173	857.93
777.355	845.64
777.537	945.99
777.719	812.87
777.901	866.12
778.083	784.2
778.265	823.11
778.447	845.64
778.629	810.82
778.811	862.02
778.993	687.95
779.175	831.3
779.357	769.87
779.539	751.43
779.721	755.53
779.903	741.19
780.085	737.1
780.267	685.9
780.449	747.34
780.631	747.34
780.812	778.06
780.994	741.19
781.176	651.08
781.358	720.71
781.54	767.82
781.721	661.32
781.903	741.19
782.085	665.42
782.267	685.9
782.448	681.8
782.63	681.8
782.812	628.56
782.993	636.75
783.175	620.36
783.357	657.23
783.538	687.95
783.72	653.13
783.901	673.61
784.083	597.84
784.264	632.65
784.446	603.98
784.627	563.02
784.809	620.36
784.99	573.26
785.172	573.26
785.353	573.26
785.535	601.93
785.716	595.79
785.897	550.73
786.079	585.55
786.26	495.44
786.441	577.36
786.623	528.21
786.804	520.01
786.985	538.45
787.167	569.16
787.348	587.6
787.529	517.97
787.71	526.16
787.891	436.05
788.073	513.87
788.254	534.35
788.435	470.86
788.616	526.16
788.797	446.29
788.978	501.58
789.159	458.57
789.34	497.49
789.522	460.62
789.703	440.14
789.884	460.62
790.065	501.58
790.246	583.5
790.427	436.05
790.607	438.09
790.788	442.19
790.969	472.91
791.15	497.49
791.331	458.57
791.512	501.58
791.693	341.84
791.874	493.39
792.054	421.71
792.235	434
792.416	472.91
792.597	364.37
792.778	493.39
792.958	370.51
793.139	413.52
793.32	452.43
793.5	393.04
793.681	388.94
793.862	374.61
794.042	401.23
794.223	423.76
794.404	300.88
794.584	431.95
794.765	395.09
794.945	333.65
795.126	350.03
795.306	358.22
795.487	364.37
795.667	438.09
795.848	395.09
796.028	397.14
796.209	288.59
796.389	362.32
796.57	337.74
796.75	325.46
796.93	354.13
797.111	354.13
797.291	282.45
797.471	309.07
797.652	341.84
797.832	282.45
798.012	393.04
798.192	374.61
798.373	317.26
798.553	284.5
798.733	343.89
798.913	247.63
799.093	266.07
799.274	376.66
799.454	397.14
799.634	384.85
799.814	329.55
799.994	286.54
800.174	298.83
800.354	329.55
800.534	319.31
800.714	307.02
800.894	227.15
801.074	317.26
801.254	249.68
801.434	356.18
801.614	304.98
801.794	243.54
801.974	726.86
802.154	280.4
802.334	313.17
802.514	327.5
802.693	257.87
802.873	280.4
803.053	223.06
803.233	264.02
803.413	251.73
803.592	309.07
803.772	284.5
803.952	290.64
804.131	237.39
804.311	257.87
804.491	270.16
804.67	188.24
804.85	231.25
805.03	341.84
805.209	276.31
805.389	223.06
805.568	206.67
805.748	200.53
805.928	214.87
806.107	298.83
806.287	210.77
806.466	255.83
806.646	194.39
806.825	229.2
807.004	261.97
807.184	194.39
807.363	290.64
807.543	251.73
807.722	188.24
807.901	210.77
808.081	249.68
808.26	145.24
808.439	261.97
808.619	178
808.798	274.26
808.977	243.54
809.156	276.31
809.336	202.58
809.515	245.59
809.694	261.97
809.873	190.29
810.052	231.25
810.231	243.54
810.411	233.3
810.59	204.63
810.769	167.76
810.948	178
811.127	155.47
811.306	255.83
811.485	225.11
811.664	235.35
811.843	178
812.022	266.07
812.201	206.67
812.38	178
812.559	190.29
812.737	184.15
812.916	192.34
813.095	227.15
813.274	208.72
813.453	235.35
813.632	126.8
813.811	190.29
813.989	255.83
814.168	221.01
814.347	137.04
814.526	110.42
814.704	151.38
814.883	202.58
815.062	120.66
815.24	167.76
815.419	159.57
815.598	235.35
815.776	159.57
815.955	145.24
816.133	112.47
816.312	184.15
816.49	157.52
816.669	214.87
816.847	112.47
817.026	159.57
817.204	198.48
817.383	173.91
817.561	118.61
817.74	126.8
817.918	169.81
818.097	94.04
818.275	106.32
818.453	147.28
818.632	186.19
818.81	188.24
818.988	143.19
819.167	157.52
819.345	98.13
819.523	182.1
819.701	147.28
819.879	182.1
820.058	163.67
820.236	137.04
820.414	149.33
820.592	149.33
820.77	149.33
820.948	83.8
821.127	149.33
821.305	175.95
821.483	118.61
821.661	139.09
821.839	186.19
822.017	149.33
822.195	108.37
822.373	137.04
822.551	218.96
822.729	137.04
822.907	165.71
823.085	171.86
823.262	200.53
823.44	75.6
823.618	81.75
823.796	100.18
823.974	163.67
824.152	69.46
824.329	67.41
824.507	173.91
824.685	214.87
824.863	137.04
825.04	122.71
825.218	155.47
825.396	141.14
825.574	77.65
825.751	118.61
825.929	190.29
826.107	63.32
826.284	96.08
826.462	194.39
826.639	165.71
826.817	141.14
826.994	114.52
827.172	89.94
827.349	126.8
827.527	157.52
827.704	182.1
827.882	116.56
828.059	112.47
828.237	91.99
828.414	108.37
828.591	94.04
828.769	94.04
828.946	44.88
829.124	159.57
829.301	116.56
829.478	77.65
829.655	132.95
829.833	89.94
830.01	16.21
830.187	89.94
830.364	126.8
830.542	91.99
830.719	79.7
830.896	116.56
831.073	122.71
831.25	141.14
831.427	120.66
831.604	141.14
831.782	51.03
831.959	75.6
832.136	110.42
832.313	96.08
832.49	55.12
832.667	26.45
832.844	87.89
833.021	141.14
833.198	24.4
833.374	71.51
833.551	51.03
833.728	-22.7
833.905	38.74
834.082	145.24
834.259	65.36
834.436	147.28
834.612	30.55
834.789	48.98
834.966	36.69
835.143	110.42
835.319	106.32
835.496	57.17
835.673	69.46
835.85	61.27
836.026	124.76
836.203	67.41
836.38	18.26
836.556	32.6
836.733	120.66
836.909	124.76
837.086	67.41
837.262	91.99
837.439	63.32
837.616	128.85
837.792	137.04
837.968	75.6
838.145	-18.6
838.321	91.99
838.498	114.52
838.674	46.93
838.851	106.32
839.027	30.55
839.203	22.36
839.38	98.13
839.556	85.84
839.732	61.27
839.909	30.55
840.085	59.22
840.261	5.97
840.437	124.76
840.614	55.12
840.79	104.28
840.966	130.9
841.142	81.75
841.318	114.52
841.494	87.89
841.671	104.28
841.847	59.22
842.023	24.4
842.199	91.99
842.375	38.74
842.551	48.98
842.727	3.93
842.903	22.36
843.079	-39.08
843.255	91.99
843.431	137.04
843.607	-6.31
843.783	-2.22
843.959	91.99
844.134	34.64
844.31	100.18
844.486	22.36
844.662	69.46
844.838	61.27
845.013	32.6
845.189	159.57
845.365	12.12
845.541	53.08
845.716	145.24
845.892	36.69
846.068	75.6
846.244	100.18
846.419	42.84
846.595	51.03
846.77	18.26
846.946	104.28
847.122	20.31
847.297	24.4
847.473	67.41
847.648	34.64
847.824	83.8
847.999	28.5
848.175	73.56
848.35	91.99
848.526	53.08
848.701	96.08
848.876	38.74
849.052	98.13
849.227	69.46
849.403	51.03
849.578	61.27
849.753	36.69
849.929	116.56
850.104	22.36
850.279	24.4
850.454	48.98
850.63	55.12
850.805	120.66
850.98	46.93
851.155	12.12
851.33	-10.41
851.505	3.93
851.681	55.12
851.856	85.84
852.031	38.74
852.206	-2.22
852.381	36.69
852.556	38.74
852.731	24.4
852.906	61.27
853.081	51.03
853.256	116.56
853.431	1.88
853.606	-12.46
853.781	5.97
853.956	-26.79
854.131	18.26
854.305	79.7
854.48	83.8
854.655	-10.41
854.83	10.07
855.005	-20.65
855.18	44.88
855.354	48.98
855.529	10.07
855.704	51.03
855.879	69.46
856.053	16.21
856.228	55.12
856.403	36.69
856.577	57.17
856.752	30.55
856.926	48.98
857.101	42.84
857.276	59.22
857.45	51.03
857.625	61.27
857.799	-2.22
857.974	14.17
858.148	10.07
858.323	61.27
858.497	10.07
858.672	38.74
858.846	38.74
859.02	53.08
859.195	14.17
859.369	102.23
859.543	104.28
859.718	-10.41
859.892	36.69
860.066	26.45
860.241	26.45
860.415	-6.31
860.589	26.45
860.763	42.84
860.938	67.41
861.112	46.93
861.286	73.56
861.46	-59.56
861.634	-28.84
861.808	91.99
861.982	18.26
862.157	-26.79
862.331	30.55
862.505	38.74
862.679	24.4
862.853	-4.27
863.027	-65.71
863.201	-0.17
863.375	36.69
863.549	28.5
863.722	-32.94
863.896	48.98
864.07	30.55
864.244	40.79
864.418	-30.89
864.592	-4.27
864.766	14.17
864.939	55.12
865.113	18.26
865.287	48.98
865.461	24.4
865.634	-16.55
865.808	-32.94
865.982	18.26
866.156	-0.17
866.329	-18.6
866.503	30.55
866.676	51.03
866.85	-69.8
867.024	-28.84
867.197	69.46
867.371	55.12
867.544	3.93
867.718	12.12
867.891	-22.7
868.065	-22.7
868.238	-0.17
868.412	85.84
868.585	53.08
868.759	55.12
868.932	14.17
869.105	53.08
869.279	-10.41
869.452	63.32
869.625	-2.22
869.799	-20.65
869.972	-30.89
870.145	28.5
870.319	10.07
870.492	-55.47
870.665	-2.22
870.838	10.07
871.011	-28.84
871.185	22.36
871.358	-20.65
871.531	67.41
871.704	28.5
871.877	32.6
872.05	22.36
872.223	-10.41
872.396	-8.36
872.569	-28.84
872.742	5.97
872.915	32.6
873.088	-57.51
873.261	-14.51
873.434	22.36
873.607	-16.55
873.78	-20.65
873.953	5.97
874.126	40.79
874.299	57.17
874.471	-12.46
874.644	12.12
874.817	-30.89
874.99	79.7
875.163	-14.51
875.335	46.93
875.508	-2.22
875.681	83.8
875.853	57.17
876.026	40.79
876.199	63.32
876.371	10.07
876.544	-14.51
876.717	1.88
876.889	42.84
877.062	5.97
877.234	14.17
877.407	75.6
877.579	75.6
877.752	-4.27
877.924	10.07
878.097	59.22
878.269	14.17
878.442	81.75
878.614	75.6
878.786	1.88
878.959	46.93
879.131	65.36
879.303	-86.19
879.476	48.98
879.648	102.23
879.82	85.84
879.993	-37.03
880.165	1.88
880.337	5.97
880.509	18.26
880.681	30.55
880.854	10.07
881.026	57.17
881.198	36.69
881.37	75.6
881.542	-22.7
881.714	5.97
881.886	-2.22
882.058	32.6
882.23	30.55
882.402	-28.84
882.574	12.12
882.746	18.26
882.918	-28.84
883.09	36.69
883.262	79.7
883.434	-69.8
883.606	-43.18
883.778	5.97
883.95	30.55
884.122	36.69
884.293	-57.51
884.465	14.17
884.637	-10.41
884.809	32.6
884.98	44.88
885.152	38.74
885.324	38.74
885.496	55.12
885.667	16.21
885.839	12.12
886.011	34.64
886.182	-22.7
886.354	-2.22
886.525	-14.51
886.697	-26.79
886.869	-43.18
887.04	1.88
887.212	73.56
887.383	28.5
887.555	46.93
887.726	-18.6
887.897	-43.18
888.069	69.46
888.24	18.26
888.412	14.17
888.583	-8.36
888.754	22.36
888.926	-53.42
889.097	-22.7
889.268	22.36
889.44	28.5
889.611	42.84
889.782	65.36
889.953	-51.37
890.125	65.36
890.296	-49.32
890.467	3.93
890.638	-49.32
890.809	79.7
890.98	32.6
891.151	22.36
891.323	-26.79
891.494	-20.65
891.665	55.12
891.836	14.17
892.007	3.93
892.178	89.94
892.349	14.17
892.52	-24.75
892.691	22.36
892.862	10.07
893.032	-26.79
893.203	-61.61
893.374	-2.22
893.545	71.51
893.716	-4.27
893.887	30.55
894.057	22.36
894.228	-49.32
894.399	-34.99
894.57	-2.22
894.74	-24.75
894.911	-10.41
895.082	-10.41
895.253	-34.99
895.423	18.26
895.594	14.17
895.764	8.02
895.935	-10.41
896.106	10.07
896.276	20.31
896.447	61.27
896.617	-82.09
896.788	18.26
896.958	-90.28
897.129	22.36
897.299	-43.18
897.47	36.69
897.64	-10.41
897.81	-14.51
897.981	46.93
898.151	-30.89
898.322	26.45
898.492	63.32
898.662	-22.7
898.832	-4.27
899.003	14.17
899.173	3.93
899.343	79.7
899.513	-22.7
