Data from USB4F104151__212__10-29-56-073.txt Node

Date: Wed Mar 12 10:29:56 EDT 2025
User: louis
Spectrometer: USB4F10415
Trigger mode: 4
Integration Time (sec): 3.000000E-2
Scans to average: 1
Electric dark correction enabled: true
Nonlinearity correction enabled: false
Boxcar width: 0
XAxis mode: Wavelengths
Number of Pixels in Spectrum: 3648
>>>>>Begin Spectral Data<<<<<
178.204	-76.12
178.424	-76.12
178.644	-76.12
178.864	-110.93
179.084	-88.4
179.304	7.85
179.524	28.33
179.744	-8.53
179.964	28.33
180.184	-41.3
180.404	13.99
180.624	-24.92
180.844	44.71
181.064	-14.68
181.283	-26.96
181.503	-16.73
181.723	9.9
181.943	-18.77
182.163	54.95
182.383	38.57
182.602	89.77
182.822	18.09
183.042	38.57
183.262	-22.87
183.482	59.05
183.701	7.85
183.921	40.62
184.141	7.85
184.361	71.34
184.58	83.63
184.8	9.9
185.02	-0.34
185.239	3.75
185.459	-10.58
185.679	7.85
185.898	36.52
186.118	3.75
186.338	30.38
186.557	69.29
186.777	67.24
186.997	-2.39
187.216	-47.44
187.436	73.39
187.655	48.81
187.875	52.91
188.095	-12.63
188.314	87.72
188.534	79.53
188.753	-6.49
188.973	102.06
189.192	91.82
189.412	22.19
189.631	83.63
189.851	26.28
190.07	-16.73
190.29	-47.44
190.509	40.62
190.729	54.95
190.948	120.49
191.168	83.63
191.387	91.82
191.607	-26.96
191.826	67.24
192.045	108.2
192.265	97.96
192.484	16.04
192.704	1.71
192.923	34.47
193.142	106.15
193.362	-4.44
193.581	38.57
193.8	38.57
194.02	42.67
194.239	50.86
194.458	-8.53
194.678	18.09
194.897	18.09
195.116	79.53
195.335	67.24
195.555	-6.49
195.774	69.29
195.993	61.1
196.212	-37.2
196.432	65.19
196.651	67.24
196.87	87.72
197.089	100.01
197.308	106.15
197.528	-6.49
197.747	-37.2
197.966	108.2
198.185	132.78
198.404	40.62
198.623	77.48
198.842	48.81
199.062	77.48
199.281	85.67
199.5	-39.25
199.719	16.04
199.938	-6.49
200.157	120.49
200.376	81.58
200.595	28.33
200.814	34.47
201.033	61.1
201.252	26.28
201.471	34.47
201.69	3.75
201.909	34.47
202.128	42.67
202.347	-6.49
202.566	28.33
202.785	-10.58
203.004	-33.11
203.223	44.71
203.442	9.9
203.661	13.99
203.879	-2.39
204.098	13.99
204.317	13.99
204.536	44.71
204.755	-33.11
204.974	16.04
205.193	65.19
205.411	110.25
205.63	81.58
205.849	-16.73
206.068	1.71
206.287	38.57
206.505	71.34
206.724	40.62
206.943	63.15
207.162	13.99
207.381	-0.34
207.599	79.53
207.818	22.19
208.037	16.04
208.255	20.14
208.474	79.53
208.693	83.63
208.911	36.52
209.13	-6.49
209.349	87.72
209.567	11.95
209.786	30.38
210.005	77.48
210.223	46.76
210.442	24.23
210.661	34.47
210.879	48.81
211.098	46.76
211.316	83.63
211.535	42.67
211.753	75.43
211.972	32.43
212.191	16.04
212.409	-39.25
212.628	-31.06
212.846	46.76
213.065	46.76
213.283	38.57
213.502	57
213.72	36.52
213.938	79.53
214.157	48.81
214.375	108.2
214.594	9.9
214.812	75.43
215.031	52.91
215.249	-22.87
215.467	13.99
215.686	5.8
215.904	75.43
216.122	52.91
216.341	18.09
216.559	75.43
216.778	69.29
216.996	32.43
217.214	54.95
217.432	-35.16
217.651	24.23
217.869	69.29
218.087	30.38
218.306	79.53
218.524	38.57
218.742	26.28
218.96	46.76
219.179	5.8
219.397	110.25
219.615	91.82
219.833	50.86
220.051	91.82
220.27	147.11
220.488	46.76
220.706	48.81
220.924	26.28
221.142	26.28
221.36	38.57
221.578	75.43
221.796	-20.82
222.015	38.57
222.233	59.05
222.451	34.47
222.669	46.76
222.887	16.04
223.105	-10.58
223.323	42.67
223.541	83.63
223.759	48.81
223.977	83.63
224.195	59.05
224.413	18.09
224.631	106.15
224.849	13.99
225.067	102.06
225.285	16.04
225.503	77.48
225.721	13.99
225.939	24.23
226.157	71.34
226.375	112.3
226.592	24.23
226.81	-10.58
227.028	18.09
227.246	83.63
227.464	28.33
227.682	-12.63
227.9	-33.11
228.117	52.91
228.335	75.43
228.553	1.71
228.771	48.81
228.989	9.9
229.206	67.24
229.424	59.05
229.642	-0.34
229.86	32.43
230.077	50.86
230.295	34.47
230.513	59.05
230.731	73.39
230.948	54.95
231.166	57
231.384	61.1
231.601	11.95
231.819	1.71
232.037	67.24
232.254	-2.39
232.472	50.86
232.689	-6.49
232.907	54.95
233.125	3.75
233.342	30.38
233.56	69.29
233.777	-2.39
233.995	40.62
234.213	48.81
234.43	-24.92
234.648	52.91
234.865	-24.92
235.083	63.15
235.3	-39.25
235.518	116.39
235.735	69.29
235.953	89.77
236.17	52.91
236.388	30.38
236.605	34.47
236.822	69.29
237.04	100.01
237.257	13.99
237.475	11.95
237.692	11.95
237.909	32.43
238.127	122.54
238.344	1.71
238.562	120.49
238.779	9.9
238.996	77.48
239.214	32.43
239.431	91.82
239.648	130.73
239.865	61.1
240.083	40.62
240.3	3.75
240.517	32.43
240.735	32.43
240.952	91.82
241.169	83.63
241.386	87.72
241.603	69.29
241.821	-39.25
242.038	100.01
242.255	1.71
242.472	-59.73
242.689	26.28
242.907	46.76
243.124	36.52
243.341	22.19
243.558	16.04
243.775	-14.68
243.992	114.34
244.209	50.86
244.426	104.11
244.643	40.62
244.86	9.9
245.078	48.81
245.295	48.81
245.512	42.67
245.729	65.19
245.946	46.76
246.163	112.3
246.38	42.67
246.597	13.99
246.814	-22.87
247.031	38.57
247.248	100.01
247.464	38.57
247.681	54.95
247.898	110.25
248.115	79.53
248.332	-98.64
248.549	93.87
248.766	93.87
248.983	61.1
249.2	63.15
249.417	91.82
249.633	85.67
249.85	59.05
250.067	24.23
250.284	-14.68
250.501	32.43
250.717	61.1
250.934	40.62
251.151	-45.4
251.368	26.28
251.585	13.99
251.801	18.09
252.018	59.05
252.235	32.43
252.451	20.14
252.668	40.62
252.885	67.24
253.102	3.75
253.318	61.1
253.535	61.1
253.752	-41.3
253.968	52.91
254.185	28.33
254.401	73.39
254.618	67.24
254.835	-51.54
255.051	59.05
255.268	61.1
255.484	-10.58
255.701	34.47
255.917	65.19
256.134	-39.25
256.351	-20.82
256.567	-2.39
256.784	36.52
257	30.38
257.217	40.62
257.433	71.34
257.65	102.06
257.866	44.71
258.082	5.8
258.299	-41.3
258.515	69.29
258.732	128.68
258.948	34.47
259.165	-39.25
259.381	54.95
259.597	30.38
259.814	73.39
260.03	-4.44
260.246	30.38
260.463	65.19
260.679	63.15
260.895	34.47
261.112	48.81
261.328	79.53
261.544	24.23
261.761	108.2
261.977	3.75
262.193	42.67
262.409	118.44
262.626	59.05
262.842	65.19
263.058	-35.16
263.274	83.63
263.49	-14.68
263.707	120.49
263.923	83.63
264.139	-2.39
264.355	46.76
264.571	132.78
264.787	42.67
265.004	97.96
265.22	44.71
265.436	40.62
265.652	-2.39
265.868	95.91
266.084	30.38
266.3	52.91
266.516	26.28
266.732	75.43
266.948	22.19
267.164	18.09
267.38	102.06
267.596	36.52
267.812	143.02
268.028	5.8
268.244	-2.39
268.46	63.15
268.676	20.14
268.892	54.95
269.108	22.19
269.324	28.33
269.54	71.34
269.756	54.95
269.972	36.52
270.188	1.71
270.403	9.9
270.619	7.85
270.835	30.38
271.051	50.86
271.267	46.76
271.483	61.1
271.698	42.67
271.914	104.11
272.13	106.15
272.346	-2.39
272.562	-2.39
272.777	67.24
272.993	9.9
273.209	42.67
273.425	16.04
273.64	-33.11
273.856	116.39
274.072	-0.34
274.287	-18.77
274.503	89.77
274.719	-59.73
274.934	52.91
275.15	65.19
275.366	85.67
275.581	71.34
275.797	95.91
276.012	50.86
276.228	16.04
276.444	1.71
276.659	120.49
276.875	89.77
277.09	28.33
277.306	42.67
277.521	71.34
277.737	-10.58
277.952	91.82
278.168	42.67
278.383	34.47
278.599	106.15
278.814	34.47
279.03	67.24
279.245	48.81
279.461	59.05
279.676	9.9
279.892	-6.49
280.107	-16.73
280.322	9.9
280.538	30.38
280.753	61.1
280.969	61.1
281.184	18.09
281.399	138.92
281.615	83.63
281.83	67.24
282.045	-18.77
282.26	42.67
282.476	38.57
282.691	106.15
282.906	83.63
283.122	1.71
283.337	11.95
283.552	48.81
283.767	18.09
283.983	57
284.198	3.75
284.413	22.19
284.628	-2.39
284.843	118.44
285.058	87.72
285.274	83.63
285.489	16.04
285.704	122.54
285.919	38.57
286.134	-20.82
286.349	20.14
286.564	46.76
286.779	46.76
286.995	79.53
287.21	-43.35
287.425	40.62
287.64	-14.68
287.855	95.91
288.07	26.28
288.285	59.05
288.5	5.8
288.715	54.95
288.93	-59.73
289.145	46.76
289.36	34.47
289.575	-6.49
289.79	118.44
290.004	11.95
290.219	75.43
290.434	-22.87
290.649	18.09
290.864	34.47
291.079	77.48
291.294	28.33
291.509	-37.2
291.724	79.53
291.938	18.09
292.153	54.95
292.368	-8.53
292.583	112.3
292.798	9.9
293.012	26.28
293.227	36.52
293.442	77.48
293.657	95.91
293.871	97.96
294.086	102.06
294.301	116.39
294.516	79.53
294.73	28.33
294.945	50.86
295.16	11.95
295.374	-14.68
295.589	100.01
295.804	9.9
296.018	100.01
296.233	75.43
296.447	7.85
296.662	34.47
296.877	93.87
297.091	46.76
297.306	42.67
297.52	22.19
297.735	38.57
297.949	9.9
298.164	63.15
298.378	34.47
298.593	38.57
298.807	44.71
299.022	87.72
299.236	87.72
299.451	87.72
299.665	13.99
299.88	24.23
300.094	79.53
300.309	71.34
300.523	-43.35
300.737	75.43
300.952	57
301.166	54.95
301.381	42.67
301.595	87.72
301.809	71.34
302.024	-26.96
302.238	26.28
302.452	165.54
302.667	-2.39
302.881	57
303.095	26.28
303.309	7.85
303.524	34.47
303.738	91.82
303.952	24.23
304.166	46.76
304.381	18.09
304.595	120.49
304.809	140.97
305.023	89.77
305.237	57
305.452	40.62
305.666	13.99
305.88	16.04
306.094	108.2
306.308	-12.63
306.522	79.53
306.736	52.91
306.95	140.97
307.164	89.77
307.379	26.28
307.593	208.55
307.807	106.15
308.021	54.95
308.235	95.91
308.449	-10.58
308.663	-37.2
308.877	73.39
309.091	63.15
309.305	108.2
309.519	1.71
309.733	83.63
309.947	1.71
310.161	-18.77
310.374	52.91
310.588	97.96
310.802	38.57
311.016	48.81
311.23	30.38
311.444	30.38
311.658	54.95
311.872	75.43
312.085	28.33
312.299	118.44
312.513	71.34
312.727	89.77
312.941	67.24
313.154	54.95
313.368	48.81
313.582	28.33
313.796	59.05
314.009	106.15
314.223	-6.49
314.437	128.68
314.651	34.47
314.864	-12.63
315.078	24.23
315.292	-2.39
315.505	42.67
315.719	85.67
315.933	-0.34
316.146	22.19
316.36	-10.58
316.573	65.19
316.787	28.33
317.001	38.57
317.214	52.91
317.428	67.24
317.641	42.67
317.855	46.76
318.068	73.39
318.282	59.05
318.495	93.87
318.709	57
318.922	85.67
319.136	-10.58
319.349	28.33
319.563	24.23
319.776	18.09
319.99	59.05
320.203	87.72
320.417	73.39
320.63	69.29
320.843	97.96
321.057	-6.49
321.27	3.75
321.483	40.62
321.697	22.19
321.91	59.05
322.124	75.43
322.337	-2.39
322.55	61.1
322.763	77.48
322.977	-2.39
323.19	5.8
323.403	48.81
323.617	-10.58
323.83	54.95
324.043	32.43
324.256	34.47
324.469	30.38
324.683	34.47
324.896	57
325.109	36.52
325.322	1.71
325.535	116.39
325.748	34.47
325.962	38.57
326.175	87.72
326.388	75.43
326.601	114.34
326.814	91.82
327.027	81.58
327.24	126.63
327.453	13.99
327.666	-0.34
327.879	73.39
328.092	85.67
328.305	22.19
328.518	38.57
328.731	18.09
328.944	50.86
329.157	26.28
329.37	-16.73
329.583	38.57
329.796	179.88
330.009	-24.92
330.222	118.44
330.435	-6.49
330.648	28.33
330.861	71.34
331.073	44.71
331.286	24.23
331.499	112.3
331.712	63.15
331.925	73.39
332.138	32.43
332.35	77.48
332.563	-8.53
332.776	50.86
332.989	36.52
333.202	54.95
333.414	30.38
333.627	44.71
333.84	44.71
334.053	59.05
334.265	57
334.478	91.82
334.691	71.34
334.903	54.95
335.116	50.86
335.329	32.43
335.541	50.86
335.754	50.86
335.966	71.34
336.179	24.23
336.392	87.72
336.604	50.86
336.817	20.14
337.029	81.58
337.242	40.62
337.454	50.86
337.667	28.33
337.88	5.8
338.092	79.53
338.305	18.09
338.517	59.05
338.729	-4.44
338.942	89.77
339.154	114.34
339.367	5.8
339.579	118.44
339.792	67.24
340.004	13.99
340.217	57
340.429	161.45
340.641	83.63
340.854	75.43
341.066	22.19
341.278	167.59
341.491	34.47
341.703	59.05
341.915	38.57
342.128	54.95
342.34	63.15
342.552	57
342.764	20.14
342.977	46.76
343.189	-4.44
343.401	112.3
343.613	95.91
343.826	52.91
344.038	50.86
344.25	75.43
344.462	-2.39
344.674	97.96
344.886	67.24
345.099	44.71
345.311	89.77
345.523	112.3
345.735	65.19
345.947	89.77
346.159	-45.4
346.371	85.67
346.583	54.95
346.795	97.96
347.007	38.57
347.219	20.14
347.431	128.68
347.643	153.26
347.855	18.09
348.067	126.63
348.279	57
348.491	157.35
348.703	75.43
348.915	71.34
349.127	59.05
349.339	77.48
349.551	-49.49
349.763	61.1
349.975	71.34
350.187	145.06
350.399	114.34
350.61	97.96
350.822	63.15
351.034	69.29
351.246	46.76
351.458	81.58
351.669	83.63
351.881	93.87
352.093	79.53
352.305	147.11
352.517	61.1
352.728	79.53
352.94	63.15
353.152	71.34
353.363	87.72
353.575	77.48
353.787	59.05
353.999	93.87
354.21	132.78
354.422	71.34
354.633	48.81
354.845	40.62
355.057	75.43
355.268	1.71
355.48	130.73
355.692	71.34
355.903	32.43
356.115	40.62
356.326	38.57
356.538	95.91
356.749	59.05
356.961	71.34
357.172	130.73
357.384	-2.39
357.595	100.01
357.807	30.38
358.018	116.39
358.23	81.58
358.441	112.3
358.653	108.2
358.864	28.33
359.075	54.95
359.287	69.29
359.498	67.24
359.709	108.2
359.921	-6.49
360.132	30.38
360.344	9.9
360.555	95.91
360.766	97.96
360.977	71.34
361.189	28.33
361.4	32.43
361.611	126.63
361.823	100.01
362.034	46.76
362.245	-10.58
362.456	75.43
362.667	89.77
362.879	18.09
363.09	71.34
363.301	63.15
363.512	32.43
363.723	54.95
363.935	95.91
364.146	108.2
364.357	95.91
364.568	89.77
364.779	16.04
364.99	73.39
365.201	100.01
365.412	87.72
365.623	50.86
365.834	67.24
366.045	59.05
366.256	59.05
366.467	44.71
366.678	138.92
366.889	97.96
367.1	87.72
367.311	116.39
367.522	48.81
367.733	38.57
367.944	136.87
368.155	65.19
368.366	26.28
368.577	106.15
368.788	63.15
368.999	95.91
369.209	100.01
369.42	102.06
369.631	171.69
369.842	75.43
370.053	128.68
370.264	120.49
370.474	71.34
370.685	28.33
370.896	9.9
371.107	38.57
371.317	36.52
371.528	34.47
371.739	124.58
371.95	104.11
372.16	124.58
372.371	57
372.582	24.23
372.792	89.77
373.003	71.34
373.214	20.14
373.424	149.16
373.635	87.72
373.846	100.01
374.056	54.95
374.267	63.15
374.477	85.67
374.688	38.57
374.898	100.01
375.109	69.29
375.319	48.81
375.53	63.15
375.74	130.73
375.951	36.52
376.161	116.39
376.372	118.44
376.582	38.57
376.793	106.15
377.003	26.28
377.214	57
377.424	136.87
377.635	63.15
377.845	97.96
378.055	186.02
378.266	89.77
378.476	71.34
378.686	75.43
378.897	149.16
379.107	61.1
379.317	118.44
379.528	75.43
379.738	124.58
379.948	34.47
380.158	132.78
380.369	132.78
380.579	71.34
380.789	110.25
380.999	67.24
381.21	81.58
381.42	108.2
381.63	65.19
381.84	87.72
382.05	128.68
382.261	87.72
382.471	83.63
382.681	83.63
382.891	32.43
383.101	83.63
383.311	-47.44
383.521	89.77
383.731	83.63
383.941	83.63
384.151	116.39
384.361	34.47
384.571	106.15
384.781	114.34
384.991	126.63
385.201	147.11
385.411	102.06
385.621	18.09
385.831	77.48
386.041	91.82
386.251	89.77
386.461	114.34
386.671	104.11
386.881	81.58
387.091	122.54
387.301	71.34
387.511	114.34
387.72	91.82
387.93	114.34
388.14	71.34
388.35	83.63
388.56	87.72
388.769	114.34
388.979	89.77
389.189	104.11
389.399	52.91
389.609	153.26
389.818	83.63
390.028	67.24
390.238	159.4
390.447	100.01
390.657	108.2
390.867	138.92
391.076	28.33
391.286	149.16
391.496	81.58
391.705	16.04
391.915	69.29
392.125	110.25
392.334	122.54
392.544	118.44
392.753	73.39
392.963	116.39
393.172	206.5
393.382	128.68
393.591	179.88
393.801	102.06
394.01	171.69
394.22	110.25
394.429	149.16
394.639	118.44
394.848	136.87
395.058	153.26
395.267	83.63
395.477	134.82
395.686	91.82
395.895	122.54
396.105	161.45
396.314	167.59
396.524	136.87
396.733	130.73
396.942	149.16
397.152	100.01
397.361	214.7
397.57	114.34
397.78	128.68
397.989	222.89
398.198	175.78
398.407	132.78
398.617	118.44
398.826	138.92
399.035	165.54
399.244	110.25
399.453	153.26
399.663	140.97
399.872	153.26
400.081	175.78
400.29	247.46
400.499	136.87
400.708	165.54
400.917	181.93
401.127	177.83
401.336	159.4
401.545	255.65
401.754	161.45
401.963	132.78
402.172	126.63
402.381	122.54
402.59	157.35
402.799	241.32
403.008	222.89
403.217	155.3
403.426	196.26
403.635	190.12
403.844	204.46
404.053	224.94
404.262	192.17
404.471	302.76
404.68	190.12
404.888	226.98
405.097	222.89
405.306	249.51
405.515	286.37
405.724	200.36
405.933	339.62
406.142	286.37
406.35	308.9
406.559	235.18
406.768	313
406.977	360.1
407.185	267.94
407.394	251.56
407.603	241.32
407.812	274.09
408.02	333.48
408.229	337.57
408.438	358.05
408.646	304.81
408.855	356.01
409.064	409.25
409.272	399.01
409.481	431.78
409.69	394.92
409.898	366.25
410.107	513.7
410.315	495.27
410.524	497.32
410.733	562.85
410.941	454.31
411.15	505.51
411.358	542.37
411.567	624.29
411.775	622.24
411.984	554.66
412.192	644.77
412.401	661.15
412.609	767.65
412.818	710.3
413.026	790.17
413.234	781.98
413.443	755.36
413.651	816.8
413.86	841.37
414.068	865.95
414.276	941.72
414.485	894.62
414.693	1017.5
414.901	1080.99
415.11	1099.42
415.318	1054.36
415.526	1148.57
415.734	1169.05
415.943	1154.71
416.151	1207.96
416.359	1173.14
416.567	1330.84
416.776	1279.64
416.984	1423
417.192	1506.96
417.4	1392.28
417.608	1437.33
417.817	1496.72
418.025	1674.9
418.233	1765.01
418.441	1765.01
418.649	1838.73
418.857	1926.8
419.065	1945.23
419.273	1873.55
419.481	2014.86
419.689	2195.08
419.897	2244.23
420.105	2401.93
420.313	2279.05
420.521	2350.73
420.729	2434.69
420.937	2477.7
421.145	2590.34
421.353	2784.9
421.561	2997.88
421.769	2954.88
421.977	3053.18
422.185	3069.56
422.393	3282.55
422.601	3509.88
422.809	3413.62
423.017	3430.01
423.224	3659.38
423.432	3683.95
423.64	3716.72
423.848	4011.63
424.056	3921.52
424.263	4271.72
424.471	4310.63
424.679	4327.02
424.887	4638.31
425.094	4863.58
425.302	4781.67
425.51	4877.92
425.718	5144.16
425.925	5199.45
426.133	5301.85
426.341	5584.47
426.548	5932.62
426.756	5916.24
426.964	5979.73
427.171	6301.26
427.379	6438.47
427.586	6723.14
427.794	6645.32
428.001	7110.21
428.209	7390.78
428.417	7222.84
428.624	7988.78
428.832	7775.8
429.039	7743.03
429.247	7894.58
429.454	8521.26
429.662	9033.25
429.869	8461.87
430.076	9074.21
430.284	8816.16
430.491	9365.02
430.699	9885.2
430.906	9580.06
431.114	9786.9
431.321	10421.77
431.528	10427.92
431.736	11083.27
431.943	11372.03
432.15	11179.52
432.358	11531.77
432.565	12029.43
432.772	11863.54
432.979	12379.63
433.187	12756.46
433.394	12740.07
433.601	13694.43
433.808	13665.75
434.016	13643.23
434.223	14370.26
434.43	15130.05
434.637	14790.09
434.844	15916.47
435.052	16115.12
435.259	16018.87
435.466	15945.14
435.673	15805.88
435.88	17214.88
436.087	17694.11
436.294	17819.03
436.501	17401.25
436.708	17485.22
436.915	18253.2
437.122	19090.82
437.329	19023.24
437.537	19697.02
437.743	20215.16
437.95	19975.55
438.157	20927.85
438.364	21454.18
438.571	21521.76
438.778	21663.07
438.985	23727.42
439.192	22742.35
439.399	23338.31
439.606	22775.12
439.813	24337.72
440.02	25787.68
440.227	25138.48
440.433	25144.62
440.64	25908.51
440.847	25881.89
441.054	26432.79
441.261	28200.19
441.467	27700.48
441.674	27917.57
441.881	29218.03
442.088	28978.42
442.294	28871.92
442.501	29709.54
442.708	30080.22
442.914	31358.16
443.121	32560.31
443.328	31831.24
443.534	34118.82
443.741	33090.74
443.948	32502.97
444.154	35288.21
444.361	34716.82
444.568	35185.81
444.774	35009.68
444.981	35792.01
445.187	36459.65
445.394	37911.66
445.6	37536.88
445.807	40735.81
446.013	39285.84
446.22	39746.64
446.426	41565.23
446.633	41528.37
446.839	42658.85
447.046	41624.62
447.252	43443.22
447.459	43588.63
447.665	43226.14
447.871	45147.13
448.078	46967.77
448.284	44803.07
448.491	46089.2
448.697	47199.19
448.903	48507.85
449.11	48966.59
449.316	47770.58
449.522	48679.88
449.728	49826.74
449.935	50224.04
450.141	49585.08
450.347	51170.21
450.553	49558.45
450.76	50099.12
450.966	51202.97
451.172	50781.09
451.378	51631
451.584	51116.96
451.791	52106.13
451.997	52104.08
452.203	53105.54
452.409	52501.39
452.615	52501.39
452.821	50338.73
453.027	50328.49
453.233	52622.22
453.44	50174.89
453.646	51270.56
453.852	51293.08
454.058	51983.25
454.264	50070.45
454.47	51067.81
454.676	49974.19
454.882	51741.59
455.088	47313.88
455.294	48063.44
455.5	48647.11
455.705	48892.86
455.911	46916.57
456.117	46003.18
456.323	45634.55
456.529	43084.83
456.735	45089.79
456.941	43435.03
457.147	43201.56
457.352	41409.59
457.558	41178.17
457.764	41354.29
457.97	40811.58
458.176	39795.79
458.381	39552.08
458.587	38075.49
458.793	37459.06
458.999	35888.26
459.204	38505.57
459.41	37555.31
459.616	34737.3
459.821	35146.9
460.027	34856.09
460.233	34174.11
460.438	32459.96
460.644	33051.83
460.85	31442.12
461.055	31106.26
461.261	30733.53
461.466	28460.28
461.672	27528.45
461.878	29654.25
462.083	27854.08
462.289	27434.25
462.494	26815.76
462.7	25736.48
462.905	25396.52
463.111	25904.42
463.316	26017.05
463.522	25417
463.727	25793.83
463.932	25666.85
464.138	25044.27
464.343	25341.22
464.549	24595.76
464.754	25318.7
464.959	25244.97
465.165	24843.57
465.37	24114.49
465.575	23416.13
465.781	24184.12
465.986	24628.53
466.191	23590.21
466.397	23020.88
466.602	22027.61
466.807	22719.82
467.012	23029.07
467.218	22613.33
467.423	22359.38
467.628	22412.63
467.833	23559.49
468.038	22728.02
468.244	21945.69
468.449	23125.32
468.654	22267.22
468.859	21980.51
469.064	22271.32
469.269	21165.42
469.474	21310.82
469.679	21738.85
469.885	21071.21
470.09	21247.33
470.295	21015.91
470.5	20686.19
470.705	20721.01
470.91	19918.2
471.115	19742.08
471.32	20440.43
471.525	20313.46
471.73	19662.21
471.935	19719.55
472.139	19201.41
472.344	19244.42
472.549	19101.06
472.754	18898.31
472.959	18417.04
473.164	18138.52
473.369	17806.75
473.574	18267.54
473.778	18228.63
473.983	18101.65
474.188	18247.06
474.393	17216.93
474.598	17378.72
474.802	17206.69
475.007	17063.33
475.212	16905.64
475.417	16342.45
475.621	16373.17
475.826	16498.09
476.031	16326.07
476.235	15998.39
476.44	15949.24
476.645	15672.76
476.849	15693.24
477.054	15386.05
477.259	15650.24
477.463	15455.68
477.668	14861.77
477.872	15320.51
478.077	14867.91
478.282	14695.88
478.486	14597.58
478.691	14259.67
478.895	14370.26
479.1	14312.91
479.304	14454.22
479.509	14085.59
479.713	13958.61
479.918	13919.7
480.122	13768.15
480.326	13870.55
480.531	13960.66
480.735	13716.95
480.94	13542.88
481.144	14124.5
481.348	13317.6
481.553	13497.82
481.757	13284.83
481.961	13379.04
482.166	13551.07
482.37	13714.91
482.574	13047.27
482.778	13067.75
482.983	13708.76
483.187	13544.92
483.391	13698.52
483.595	13254.11
483.8	13215.2
484.004	13376.99
484.208	13360.61
484.412	13250.02
484.616	13192.67
484.821	13305.31
485.025	13247.97
485.229	13483.48
485.433	13299.17
485.637	13395.42
485.841	13102.56
486.045	13243.87
486.249	13172.19
486.453	13256.16
486.657	13444.57
486.861	13370.85
487.065	13084.13
487.269	13166.05
487.473	13112.8
487.677	13477.34
487.881	13571.55
488.085	13184.48
488.289	13340.13
488.493	13229.54
488.697	13393.37
488.901	13602.27
489.105	13356.51
489.309	13540.83
489.512	13424.09
489.716	13581.79
489.92	13565.4
490.124	13333.98
490.328	13704.67
490.531	13475.29
490.735	13696.47
490.939	13657.56
491.143	13358.56
491.346	13589.98
491.55	13854.17
491.754	13805.02
491.958	14083.54
492.161	13852.12
492.365	14134.74
492.569	13899.22
492.772	14155.22
492.976	14274
493.18	13948.37
493.383	14400.97
493.587	14781.9
493.79	14489.04
493.994	14388.69
494.197	14532.04
494.401	14882.25
494.605	15005.13
494.808	14880.2
495.012	15154.63
495.215	15152.58
495.419	15431.1
495.622	15470.01
495.825	15525.31
496.029	15560.13
496.232	15750.59
496.436	15726.01
496.639	16164.28
496.843	16360.88
497.046	16242.1
497.249	16930.22
497.453	16281.01
497.656	16946.6
497.859	16944.55
498.063	16909.74
498.266	17352.1
498.469	17264.04
498.673	17579.42
498.876	18095.51
499.079	18070.93
499.282	17993.11
499.485	18277.78
499.689	18290.07
499.892	18705.81
500.095	18900.36
500.298	19402.11
500.501	19158.41
500.705	19895.68
500.908	19817.85
501.111	20018.55
501.314	20118.9
501.517	20305.27
501.72	20536.69
501.923	20567.41
502.126	20934
502.329	21476.71
502.532	21417.32
502.735	21902.68
502.938	22291.8
503.141	22093.15
503.344	22775.12
503.547	22377.81
503.75	22854.99
503.953	23246.15
504.156	23551.3
504.359	23620.93
504.562	23668.03
504.765	24464.69
504.968	24614.2
505.17	24685.87
505.373	24716.59
505.576	25298.22
505.779	25441.57
505.982	25523.49
506.185	26217.75
506.387	26299.67
506.59	26604.82
506.793	27106.57
506.996	26692.88
507.198	27796.74
507.401	27847.94
507.604	27639.04
507.807	28306.68
508.009	28452.09
508.212	28531.96
508.415	29041.9
508.617	29820.13
508.82	29601
509.022	29447.4
509.225	30254.3
509.428	30708.95
509.63	30790.87
509.833	30966.99
510.035	31767.75
510.238	31657.16
510.44	31833.28
510.643	32715.96
510.845	32861.37
511.048	32513.21
511.25	32914.61
511.453	33590.44
511.655	34626.71
511.858	34202.78
512.06	34307.23
512.262	34737.3
512.465	34421.92
512.667	35837.06
512.87	35673.23
513.072	36007.05
513.274	36811.9
513.477	36973.69
513.679	37454.96
513.881	37407.86
514.084	37977.19
514.286	37925.99
514.488	38450.27
514.69	39165.01
514.893	39222.36
515.095	39410.77
515.297	39967.82
515.499	39963.72
515.701	40586.3
515.904	41481.27
516.106	41454.64
516.308	41810.99
516.51	42325.03
516.712	41993.26
516.914	42560.55
517.116	43308.05
517.318	43412.5
517.52	43940.88
517.722	43815.95
517.925	44387.33
518.127	44901.37
518.329	44997.63
518.531	45218.81
518.733	46058.48
518.935	46142.44
519.136	46302.18
519.338	47213.53
519.54	46910.43
519.742	47526.87
519.944	47778.77
520.146	48581.57
520.348	48669.64
520.55	49204.16
520.752	49015.74
520.954	50066.35
521.155	49499.06
521.357	50490.28
521.559	50811.81
521.761	51934.1
521.963	51366.81
522.164	51839.89
522.366	51811.22
522.568	52562.82
522.77	52417.42
522.971	53515.13
523.173	52824.96
523.375	53656.44
523.576	53398.4
523.778	53902.2
523.98	54367.09
524.181	54881.13
524.383	55245.66
524.584	55454.56
524.786	55446.36
524.988	55710.55
525.189	55970.64
525.391	56988.49
525.592	57299.78
525.794	56789.83
525.995	56965.96
526.197	56937.29
526.398	57258.82
526.6	57160.51
526.801	57789.24
527.003	58309.42
527.204	57955.13
527.406	58575.66
527.607	58512.17
527.808	59124.52
528.01	58059.57
528.211	58780.46
528.412	59896.6
528.614	59300.64
528.815	59665.18
529.016	60154.64
529.218	59525.92
529.419	60257.04
529.62	59779.87
529.822	59943.7
530.023	60400.4
530.224	60447.5
530.425	60422.93
530.626	60246.8
530.828	60123.93
531.029	61328.13
531.23	60658.45
531.431	60480.27
531.632	60791.56
531.833	61072.13
532.035	60908.3
532.236	60922.63
532.437	61264.64
532.638	60812.04
532.839	61483.78
533.04	61477.63
533.241	60963.59
533.442	61999.86
533.643	61764.35
533.844	61680.38
534.045	61684.48
534.246	61475.58
534.447	62020.34
534.648	61516.54
534.849	62073.59
535.05	60967.69
535.251	61827.84
535.451	61455.1
535.652	62061.3
535.853	61735.68
536.054	62067.45
536.255	62014.2
536.456	61295.36
536.657	62493.43
536.857	61715.2
537.058	61956.86
537.259	62266.1
537.46	62003.96
537.66	61723.39
537.861	61917.95
538.062	61864.7
538.263	62130.93
538.463	61831.93
538.664	61487.87
538.865	62135.03
539.065	62073.59
539.266	61494.02
539.466	62206.71
539.667	61618.94
539.868	62589.68
540.068	62155.51
540.269	62012.15
540.469	62286.58
540.67	61881.08
540.87	61782.78
541.071	61995.77
541.271	62249.72
541.472	61840.12
541.672	61846.27
541.873	61700.86
542.073	61084.42
542.274	62278.39
542.474	61510.4
542.675	61516.54
542.875	62315.25
543.075	61934.33
543.276	61428.48
543.476	61907.71
543.676	61778.68
543.877	62075.64
544.077	62130.93
544.277	61817.6
544.478	61758.2
544.678	61758.2
544.878	61692.67
545.078	61702.91
545.279	61442.82
545.479	61369.09
545.679	61852.41
545.879	61618.94
546.079	61586.17
546.28	61543.17
546.48	61369.09
546.68	61385.47
546.88	61637.37
547.08	61698.81
547.28	61602.56
547.48	61233.92
547.68	61491.97
547.88	61524.74
548.081	61451.01
548.281	61156.1
548.481	61475.58
548.681	61655.81
548.881	61782.78
549.081	61369.09
549.28	61231.88
549.48	61416.19
549.68	61096.71
549.88	62046.97
550.08	60822.28
550.28	61453.06
550.48	61178.63
550.68	61649.66
550.88	60994.31
551.08	61211.4
551.279	61106.95
551.479	60910.35
551.679	61518.59
551.879	61055.75
552.079	61438.72
552.278	60730.12
552.478	60824.33
552.678	61025.03
552.878	61033.22
553.077	60992.26
553.277	60394.26
553.477	61364.99
553.676	60576.53
553.876	60932.87
554.076	60750.6
554.275	60642.06
554.475	60306.19
554.674	60660.49
554.874	60762.89
555.074	60429.07
555.273	60695.31
555.473	61188.87
555.672	60386.07
555.872	60197.65
556.071	60148.5
556.271	60705.55
556.47	60085.01
556.67	59915.03
556.869	60175.12
557.068	60482.32
557.268	59962.14
557.467	60125.97
557.667	59912.98
557.866	60142.36
558.065	60099.35
558.265	59618.08
558.464	59126.56
558.663	59837.21
558.863	59132.71
559.062	59878.17
559.261	59407.14
559.461	60074.77
559.66	58991.4
559.859	59480.86
560.058	58501.93
560.258	59153.19
560.457	58657.58
560.656	59312.93
560.855	58692.4
561.054	58569.52
561.253	58215.22
561.453	58942.25
561.652	58786.6
561.851	58639.15
562.05	58585.9
562.249	57764.67
562.448	58166.07
562.647	58286.9
562.846	58108.72
563.045	58180.4
563.244	57410.37
563.443	58182.45
563.642	57426.75
563.841	57451.33
564.04	57103.17
564.239	57559.87
564.438	56937.29
564.637	57398.08
564.836	57062.21
565.035	56757.06
565.234	56795.98
565.432	56675.15
565.631	56517.45
565.83	56724.3
566.029	56298.32
566.228	56384.33
566.427	55909.21
566.625	55923.54
566.824	55374.69
567.023	56456.01
567.222	55470.94
567.42	56111.95
567.619	55950.16
567.818	55292.77
568.016	55155.55
568.215	55872.34
568.414	54991.72
568.612	55438.17
568.811	54569.83
569.01	54651.75
569.208	54012.79
569.407	54801.25
569.605	54272.88
569.804	54332.27
570.002	53732.21
570.201	54391.66
570.4	53834.61
570.598	53746.55
570.797	53496.7
570.995	54031.22
571.193	53236.61
571.392	53441.4
571.59	53068.67
571.789	53631.86
571.987	52939.65
572.186	52906.88
572.384	52439.95
572.582	52816.77
572.781	52626.31
572.979	52063.12
573.177	52554.63
573.376	52186
573.574	51803.03
573.772	52169.61
573.971	51305.37
574.169	51448.73
574.367	50920.35
574.565	51780.5
574.763	51268.51
574.962	51082.14
575.16	50260.91
575.358	50910.11
575.556	50215.85
575.754	51250.08
575.952	49884.08
576.151	50559.91
576.349	50023.34
576.547	50002.86
576.745	49763.25
576.943	50578.34
577.141	49896.37
577.339	49886.13
577.537	49294.27
577.735	49374.14
577.933	48718.79
578.131	49370.04
578.329	48880.58
578.527	49054.65
578.725	48720.84
578.923	49200.06
579.121	48716.74
579.319	48520.13
579.516	48724.93
579.714	48241.61
579.912	48282.57
580.11	48204.75
580.308	47924.18
580.506	47659.99
580.704	47381.46
580.901	47698.9
581.099	47840.21
581.297	47238.11
581.495	47215.58
581.692	47528.92
581.89	46988.25
582.088	47088.6
582.285	46517.22
582.483	47059.93
582.681	46896.1
582.878	46285.8
583.076	46304.23
583.274	46414.82
583.471	45765.62
583.669	45941.74
583.866	45820.91
584.064	45693.94
584.262	45272.06
584.459	45394.93
584.657	44981.24
584.854	45954.03
585.052	44893.18
585.249	45255.67
585.447	44762.11
585.644	44561.41
585.841	44715.01
586.039	45054.97
586.236	44137.48
586.434	44104.71
586.631	43971.6
586.828	43951.12
587.026	44192.78
587.223	43981.84
587.42	43547.67
587.618	43818
587.815	43322.39
588.012	43461.65
588.21	42970.14
588.407	43463.7
588.604	42877.98
588.801	42794.01
588.999	42621.98
589.196	42632.22
589.393	42552.35
589.59	41999.4
589.787	42249.25
589.984	42224.68
590.182	41886.76
590.379	42542.11
590.576	41718.83
590.773	41630.77
590.97	41241.65
591.167	41536.56
591.364	41309.24
591.561	41303.09
591.758	41167.93
591.955	40854.59
592.152	40987.71
592.349	40807.48
592.546	40750.14
592.743	40580.16
592.94	39693.39
593.137	40623.17
593.334	40430.66
593.531	39947.34
593.727	39881.8
593.924	40037.45
594.121	39750.73
594.318	39537.74
594.515	39173.2
594.712	39496.78
594.908	39023.7
595.105	39210.07
595.302	39029.85
595.499	38827.1
595.696	38448.22
595.892	38562.91
596.089	38505.57
596.286	38610.01
596.482	38661.21
596.679	38239.33
596.876	38351.97
597.072	37842.03
597.269	37946.47
597.466	37809.26
597.662	37923.94
597.859	37768.3
598.055	37479.53
598.252	37172.34
598.448	37198.96
598.645	37176.44
598.841	36867.19
599.038	36932.73
599.234	36787.32
599.431	36719.74
599.627	36424.83
599.824	36719.74
600.02	36463.74
600.217	36361.34
600.413	36236.42
600.609	35914.89
600.806	36160.64
601.002	36256.9
601.198	35611.79
601.395	35536.01
601.591	35646.6
601.787	35560.59
601.984	35228.82
602.18	35200.15
602.376	34888.85
602.572	34843.8
602.769	34849.94
602.965	34532.51
603.161	34696.35
603.357	34583.71
603.553	34370.72
603.75	34733.21
603.946	33995.94
604.142	34354.33
604.338	34151.59
604.534	34094.24
604.73	33795.24
604.926	33486
605.122	33907.88
605.318	33410.22
605.514	33316.01
605.71	33297.58
605.906	33035.44
606.102	32935.09
606.298	32867.51
606.494	33035.44
606.69	32920.76
606.886	33240.24
607.082	32423.1
607.278	32945.33
607.474	32253.12
607.67	32427.2
607.866	32218.3
608.062	32459.96
608.257	32244.93
608.453	32292.03
608.649	32208.06
608.845	32005.31
609.041	31972.55
609.236	32076.99
609.432	31655.11
609.628	31538.38
609.824	31775.94
610.019	31399.12
610.215	31796.42
610.411	31460.55
610.606	31077.58
610.802	31395.02
610.998	31272.14
611.193	31517.9
611.389	31046.86
611.584	30987.47
611.78	30715.09
611.976	31171.79
612.171	30614.74
612.367	31231.18
612.562	30649.56
612.758	30399.71
612.953	30387.42
613.149	30399.71
613.344	29832.42
613.539	30766.29
613.735	30506.2
613.93	30373.08
614.126	30141.66
614.321	30827.73
614.517	30047.46
614.712	30323.93
614.907	29914.34
615.103	29725.93
615.298	29752.55
615.493	29940.96
615.688	29566.18
615.884	30065.89
616.079	29740.26
616.274	29697.25
616.47	29197.55
616.665	29484.26
616.86	29562.09
617.055	29189.36
617.25	29103.34
617.445	29560.04
617.641	28478.71
617.836	29117.68
618.031	28820.72
618.226	29414.63
618.421	28583.16
618.616	28843.25
618.811	28261.63
619.006	28650.74
619.201	28077.31
619.396	28349.69
619.591	27940.1
619.786	28253.44
619.981	27815.17
620.176	28050.69
620.371	27442.44
620.566	27688.2
620.761	27604.23
620.956	27897.09
621.151	27249.93
621.346	27362.57
621.541	26879.25
621.735	27063.57
621.93	26547.48
622.125	26838.29
622.32	26451.22
622.515	26529.05
622.709	26166.56
622.904	26072.35
623.099	25888.03
623.294	26146.08
623.488	25455.91
623.683	25599.27
623.878	25283.88
624.072	25576.74
624.267	25328.94
624.462	25201.96
624.656	25070.89
624.851	25105.71
625.046	24550.71
625.24	24501.56
625.435	24323.38
625.629	24323.38
625.824	24184.12
626.018	24253.75
626.213	23602.5
626.407	23776.58
626.602	23561.54
626.796	23962.94
626.991	23481.67
627.185	23668.03
627.38	23532.87
627.574	23004.49
627.768	22644.05
627.963	22838.61
628.157	22740.3
628.352	23080.27
628.546	22377.81
628.74	22721.87
628.935	22134.1
629.129	22084.95
629.323	22015.32
629.517	22000.99
629.712	21792.09
629.906	21693.79
630.1	21212.52
630.294	21603.68
630.489	21288.29
630.683	21329.25
630.877	20833.64
631.071	21171.56
631.265	21161.32
631.459	21054.83
631.653	20620.66
631.848	20405.62
632.042	20432.24
632.236	20551.03
632.43	20200.82
632.624	20309.36
632.818	19950.97
633.012	19989.88
633.206	19887.48
633.4	19912.06
633.594	19674.49
633.788	19643.77
633.982	19690.88
634.176	19414.4
634.369	19043.72
634.563	19072.39
634.757	19279.24
634.951	19142.02
635.145	18869.64
635.339	19328.39
635.533	18529.68
635.726	18595.21
635.92	18550.16
636.114	18476.43
636.308	18361.75
636.501	18470.29
636.695	18314.64
636.889	17835.42
637.083	17751.45
637.276	17905.05
637.47	17759.64
637.664	17653.15
637.857	17667.49
638.051	17587.61
638.244	17425.82
638.438	17479.07
638.632	17030.57
638.825	17151.4
639.019	17010.09
639.212	17145.25
639.406	16823.72
639.599	17001.9
639.793	16801.19
639.986	16557.49
640.18	16592.3
640.373	16424.37
640.567	16145.84
640.76	16455.09
640.954	16221.62
641.147	15955.38
641.34	16233.91
641.534	15887.8
641.727	15818.17
641.92	15668.67
642.114	15480.25
642.307	15654.33
642.5	15293.89
642.694	15164.87
642.887	15273.41
643.08	15369.66
643.273	15222.21
643.467	15130.05
643.66	14931.4
643.853	14896.58
644.046	14538.19
644.239	14693.83
644.432	14521.81
644.626	14667.21
644.819	14656.97
645.012	14591.44
645.205	14296.53
645.398	14222.8
645.591	14079.44
645.784	14224.85
645.977	13997.53
646.17	14165.46
646.363	13886.93
646.556	13628.89
646.749	13731.29
646.942	13862.36
647.135	13612.51
647.328	13675.99
647.521	13440.48
647.714	13139.43
647.907	13329.89
648.099	13301.22
648.292	13288.93
648.485	13260.26
648.678	13061.6
648.871	12912.1
649.064	12883.43
649.256	13102.56
649.449	12633.58
649.642	12801.51
649.835	12520.94
650.027	12520.94
650.22	12436.97
650.413	12348.91
650.605	12459.5
650.798	12199.41
650.991	12314.09
651.183	12187.12
651.376	12045.81
651.568	12054
651.761	12025.33
651.954	12039.67
652.146	11939.32
652.339	11714.04
652.531	11967.99
652.724	11687.42
652.916	11523.58
653.109	11691.51
653.301	11533.82
653.494	11675.13
653.686	11261.44
653.879	11292.16
654.071	11488.76
654.263	11126.27
654.456	11234.82
654.648	11224.58
654.84	10937.86
655.033	10868.23
655.225	10970.63
655.417	10712.58
655.61	10798.6
655.802	10878.47
655.994	10784.26
656.186	10718.73
656.379	10573.32
656.571	10755.59
656.763	10802.69
656.955	10358.28
657.148	10524.17
657.34	10507.79
657.532	10395.15
657.724	10294.8
657.916	10141.2
658.108	10077.71
658.3	10042.9
658.492	10221.07
658.684	10061.33
658.876	9973.27
659.068	9917.97
659.26	9958.93
659.452	9817.62
659.644	9575.96
659.836	9692.69
660.028	9903.64
660.22	9569.82
660.412	9684.5
660.604	9436.7
660.796	9479.71
660.988	9352.73
661.18	9420.31
661.372	9258.53
661.563	9315.87
661.755	9203.23
661.947	9328.16
662.139	9119.26
662.331	9104.93
662.522	9012.77
662.714	9047.58
662.906	8932.9
663.097	8844.84
663.289	8822.31
663.481	8758.82
663.673	8683.05
663.864	8715.81
664.056	8513.06
664.247	8730.15
664.439	8601.13
664.631	8586.79
664.822	8554.02
665.014	8599.08
665.205	8431.15
665.397	8367.66
665.588	8363.56
665.78	8363.56
665.971	8212.01
666.163	8218.16
666.354	8199.73
666.546	7992.88
666.737	8033.84
666.929	8087.09
667.12	7962.16
667.311	8023.6
667.503	7980.59
667.694	8101.42
667.885	7915.06
668.077	7931.44
668.268	7618.1
668.459	7921.2
668.651	7708.21
668.842	7818.8
669.033	7628.34
669.224	7685.69
669.416	7589.43
669.607	7638.58
669.798	7530.04
669.989	7560.76
670.18	7550.52
670.371	7628.34
670.563	7394.87
670.754	7325.24
670.945	7251.52
671.136	7386.68
671.327	7302.72
671.518	7173.69
671.709	7259.71
671.9	7435.83
672.091	7259.71
672.282	7075.39
672.473	7118.4
672.664	7112.25
672.855	7126.59
673.046	7050.82
673.237	7257.66
673.428	7046.72
673.619	7038.53
673.809	6999.62
674	6940.22
674.191	7145.02
674.382	6911.55
674.573	6850.11
674.764	6989.38
674.954	7093.82
675.145	6796.87
675.336	6735.43
675.527	6829.63
675.717	6940.22
675.908	6821.44
676.099	6893.12
676.289	6757.96
676.48	6690.37
676.671	6669.89
676.861	6684.23
677.052	6571.59
677.243	6633.03
677.433	6637.13
677.624	6594.12
677.814	6561.35
678.005	6735.43
678.195	6604.36
678.386	6432.33
678.576	6377.03
678.767	6342.22
678.957	6385.23
679.148	6473.29
679.338	6587.97
679.529	6434.38
679.719	6524.49
679.909	6383.18
680.1	6338.12
680.29	6532.68
680.481	6403.66
680.671	6405.7
680.861	6237.77
681.052	6356.55
681.242	6192.72
681.432	6354.51
681.622	6284.87
681.813	6243.92
682.003	6325.83
682.193	6229.58
682.383	6194.76
682.573	6313.55
682.764	6155.85
682.954	6256.2
683.144	6098.51
683.334	6082.13
683.524	6250.06
683.714	6248.01
683.904	6102.61
684.094	6186.57
684.284	5889.62
684.474	6149.71
684.664	6088.27
684.854	5992.02
685.044	6096.46
685.234	5989.97
685.424	6061.65
685.614	5819.99
685.804	5885.52
685.994	6061.65
686.184	5914.19
686.374	5969.49
686.564	5844.56
686.753	5848.66
686.943	5715.54
687.133	5754.45
687.323	5764.69
687.513	5906
687.702	5660.24
687.892	5697.11
688.082	5578.33
688.272	5637.72
688.461	5674.58
688.651	5596.76
688.841	5447.26
689.03	5547.61
689.22	5684.82
689.41	5469.78
689.599	5402.2
689.789	5477.98
689.979	5379.67
690.168	5398.1
690.358	5355.1
690.547	5455.45
690.737	5428.82
690.926	5406.3
691.116	5322.33
691.305	5373.53
691.495	5318.23
691.684	5121.63
691.874	5361.24
692.063	5189.21
692.252	5211.74
692.442	5111.39
692.631	5064.29
692.82	5142.11
693.01	5080.67
693.199	5113.44
693.388	5148.25
693.578	4935.26
693.767	5168.73
693.956	5107.29
694.146	4963.93
694.335	4929.12
694.524	4847.2
694.713	5097.05
694.902	4884.06
695.092	4851.3
695.281	4781.67
695.47	4886.11
695.659	4830.82
695.848	4859.49
696.037	4781.67
696.226	4873.82
696.415	4859.49
696.604	4810.34
696.793	4709.99
696.982	4734.56
697.171	4687.46
697.36	4613.73
697.549	4666.98
697.738	4619.88
697.927	4750.95
698.116	4757.09
698.305	4824.67
698.494	4855.39
698.683	4605.54
698.872	4701.79
699.061	4634.21
699.25	4648.55
699.438	4576.87
699.627	4689.51
699.816	4673.12
700.005	4720.23
700.193	4666.98
700.382	4572.77
700.571	4640.36
700.76	4552.29
700.948	4621.92
701.137	4554.34
701.326	4505.19
701.514	4589.16
701.703	4732.51
701.892	4580.96
702.08	4552.29
702.269	4531.81
702.457	4593.25
702.646	4376.17
702.834	4509.29
703.023	4566.63
703.212	4570.72
703.4	4572.77
703.589	4531.81
703.777	4494.95
703.965	4372.07
704.154	4554.34
704.342	4355.69
704.531	4429.42
704.719	4408.94
704.907	4486.76
705.096	4398.7
705.284	4462.18
705.472	4525.67
705.661	4398.7
705.849	4333.16
706.037	4462.18
706.226	4363.88
706.414	4478.57
706.602	4310.63
706.79	4468.33
706.979	4367.98
707.167	4292.2
707.355	4378.22
707.543	4486.76
707.731	4439.65
707.919	4269.67
708.107	4302.44
708.296	4318.82
708.484	4386.41
708.672	4548.2
708.86	4406.89
709.048	4349.54
709.236	4247.15
709.424	4468.33
709.612	4406.89
709.8	4351.59
709.988	4236.91
710.176	4357.74
710.364	4392.55
710.551	4361.83
710.739	4318.82
710.927	4347.5
711.115	4267.63
711.303	4439.65
711.491	4253.29
711.679	4372.07
711.866	4310.63
712.054	4163.18
712.242	4224.62
712.43	4292.2
712.617	4249.19
712.805	4329.06
712.993	4042.35
713.181	4171.37
713.368	4204.14
713.556	4249.19
713.744	4046.44
713.931	4337.26
714.119	4245.1
714.306	4202.09
714.494	4298.35
714.682	4218.47
714.869	4298.35
715.057	4218.47
715.244	4193.9
715.432	4138.6
715.619	4245.1
715.807	4216.43
715.994	4253.29
716.182	4245.1
716.369	4128.36
716.556	4331.11
716.744	4157.04
716.931	4200.04
717.119	4140.65
717.306	4271.72
717.493	4206.19
717.681	4097.64
717.868	4261.48
718.055	4089.45
718.242	4109.93
718.43	4122.22
718.617	4101.74
718.804	4175.47
718.991	4195.95
719.179	4202.09
719.366	4126.32
719.553	4208.23
719.74	4103.79
719.927	4269.67
720.114	4111.98
720.301	4136.56
720.488	4146.8
720.676	4152.94
720.863	4111.98
721.05	4073.07
721.237	3993.2
721.424	4077.16
721.611	4073.07
721.798	3937.9
721.985	4007.53
722.172	3954.29
722.358	4013.68
722.545	4079.21
722.732	4034.16
722.919	4134.51
723.106	3987.05
723.293	4071.02
723.48	4126.32
723.667	3923.57
723.853	3985.01
724.04	3882.61
724.227	3939.95
724.414	4019.82
724.6	4009.58
724.787	4036.21
724.974	3876.46
725.161	3966.57
725.347	3974.77
725.534	3948.14
725.72	3903.09
725.907	3939.95
726.094	3937.9
726.28	3917.42
726.467	3987.05
726.653	3874.42
726.84	4038.25
727.027	3985.01
727.213	3860.08
727.4	4103.79
727.586	3872.37
727.773	3843.7
727.959	3845.74
728.145	3853.94
728.332	3839.6
728.518	3915.37
728.705	3901.04
728.891	3933.81
729.077	3870.32
729.264	3753.59
729.45	3892.85
729.636	3835.5
729.823	3708.53
730.009	3831.41
730.195	3841.65
730.382	3911.28
730.568	3692.15
730.754	3833.46
730.94	3759.73
731.126	3892.85
731.313	3802.74
731.499	3786.35
731.685	3933.81
731.871	3765.87
732.057	3708.53
732.243	3864.18
732.429	3761.78
732.615	3761.78
732.801	3862.13
732.987	3634.8
733.173	3819.12
733.359	3522.16
733.545	3722.87
733.731	3655.28
733.917	3726.96
734.103	3653.23
734.289	3802.74
734.475	3638.9
734.661	3706.48
734.847	3622.52
735.033	3677.81
735.219	3688.05
735.404	3655.28
735.59	3630.71
735.776	3604.08
735.962	3636.85
736.148	3640.95
736.333	3612.28
736.519	3434.1
736.705	3571.32
736.89	3573.36
737.076	3550.84
737.262	3577.46
737.447	3663.47
737.633	3454.58
737.819	3632.76
738.004	3567.22
738.19	3559.03
738.375	3423.86
738.561	3638.9
738.747	3448.44
738.932	3542.64
739.118	3571.32
739.303	3505.78
739.489	3518.07
739.674	3366.52
739.859	3507.83
740.045	3427.96
740.23	3346.04
740.416	3270.26
740.601	3442.29
740.786	3196.54
740.972	3376.76
741.157	3423.86
741.342	3284.6
741.528	3401.33
741.713	3331.7
741.898	3348.09
742.084	3303.03
742.269	3319.42
742.454	3233.4
742.639	3210.87
742.824	3167.87
743.01	3296.89
743.195	3307.13
743.38	3178.11
743.565	3171.96
743.75	3124.86
743.935	3040.89
744.12	3200.63
744.305	3090.04
744.49	3069.56
744.675	3126.91
744.86	3106.43
745.045	3057.28
745.23	2948.73
745.415	2997.88
745.6	3063.42
745.785	2989.69
745.97	3028.6
746.155	3004.03
746.34	3044.99
746.525	2889.34
746.71	2754.18
746.895	2891.39
747.079	2934.4
747.264	2832
747.449	2915.97
747.634	2752.13
747.819	2784.9
748.003	2842.24
748.188	2686.59
748.373	2813.57
748.557	2719.36
748.742	2702.98
748.927	2778.75
749.111	2670.21
749.296	2657.92
749.481	2567.81
749.665	2700.93
749.85	2690.69
750.034	2535.04
750.219	2559.62
750.404	2496.13
750.588	2530.95
750.773	2483.84
750.957	2504.32
751.141	2403.97
751.326	2418.31
751.51	2449.03
751.695	2449.03
751.879	2363.01
752.064	2311.82
752.248	2334.34
752.432	2338.44
752.617	2301.58
752.801	2287.24
752.985	2336.39
753.17	2233.99
753.354	2303.62
753.538	2279.05
753.722	2188.94
753.907	2119.31
754.091	2094.73
754.275	2213.51
754.459	2236.04
754.643	2168.46
754.828	2066.06
755.012	2068.11
755.196	2143.88
755.38	2088.59
755.564	2145.93
755.748	2004.62
755.932	2115.21
756.116	1951.37
756.3	2090.63
756.484	2070.16
756.668	2068.11
756.852	1885.84
757.036	1908.37
757.22	1904.27
757.404	1928.85
757.588	1994.38
757.772	1918.61
757.956	1885.84
758.14	1937.04
758.323	1973.9
758.507	1781.39
758.691	1824.4
758.875	1848.97
759.059	1861.26
759.242	1836.69
759.426	1740.43
759.61	1767.06
759.794	1785.49
759.977	1775.25
760.161	1789.58
760.345	1748.62
760.528	1808.02
760.712	1713.81
760.895	1765.01
761.079	1760.91
761.263	1709.71
761.446	1588.88
761.63	1713.81
761.813	1760.91
761.997	1474.2
762.18	1595.03
762.364	1623.7
762.547	1635.99
762.731	1617.55
762.914	1545.88
763.098	1629.84
763.281	1779.34
763.464	1562.26
763.648	1574.55
763.831	1509.01
764.015	1586.83
764.198	1504.92
764.381	1543.83
764.564	1556.11
764.748	1576.59
764.931	1537.68
765.114	1466
765.297	1660.56
765.481	1527.44
765.664	1474.2
765.847	1543.83
766.03	1576.59
766.213	1515.16
766.397	1517.2
766.58	1351.32
766.763	1437.33
766.946	1521.3
767.129	1556.11
767.312	1341.08
767.495	1431.19
767.678	1316.5
767.861	1476.24
768.044	1373.85
768.227	1439.38
768.41	1398.42
768.593	1404.57
768.776	1480.34
768.959	1312.41
769.142	1341.08
769.324	1336.98
769.507	1279.64
769.69	1390.23
769.873	1310.36
770.056	1369.75
770.239	1363.61
770.421	1429.14
770.604	1291.93
770.787	1332.89
770.97	1336.98
771.152	1304.21
771.335	1302.17
771.518	1298.07
771.7	1318.55
771.883	1283.74
772.066	1244.82
772.248	1220.25
772.431	1216.15
772.613	1220.25
772.796	1199.77
772.978	1218.2
773.161	1185.43
773.343	1236.63
773.526	1177.24
773.708	1162.9
773.891	1144.47
774.073	1156.76
774.256	1169.05
774.438	1109.66
774.621	1115.8
774.803	1089.18
774.985	1007.26
775.168	1046.17
775.35	1015.45
775.532	1167
775.715	1060.51
775.897	1046.17
776.079	1080.99
776.261	1062.55
776.444	1068.7
776.626	1087.13
776.808	1070.75
776.99	1029.79
777.173	1040.03
777.355	1031.83
777.537	980.64
777.719	1035.93
777.901	976.54
778.083	1031.83
778.265	974.49
778.447	1003.16
778.629	1027.74
778.811	1027.74
778.993	939.68
779.175	1003.16
779.357	902.81
779.539	919.2
779.721	853.66
779.903	870.05
780.085	868
780.267	861.85
780.449	935.58
780.631	878.24
780.812	925.34
780.994	818.85
781.176	851.61
781.358	833.18
781.54	886.43
781.721	777.89
781.903	919.2
782.085	824.99
782.267	800.41
782.448	741.02
782.63	779.93
782.812	763.55
782.993	732.83
783.175	743.07
783.357	800.41
783.538	747.17
783.72	689.82
783.901	810.65
784.083	720.54
784.264	665.25
784.446	767.65
784.627	730.78
784.809	777.89
784.99	767.65
785.172	720.54
785.353	755.36
785.535	720.54
785.716	657.06
785.897	665.25
786.079	640.67
786.26	714.4
786.441	695.97
786.623	612
786.804	624.29
786.985	603.81
787.167	691.87
787.348	589.47
787.529	626.34
787.71	695.97
787.891	655.01
788.073	509.6
788.254	614.05
788.435	583.33
788.616	644.77
788.797	624.29
788.978	622.24
789.159	566.95
789.34	659.1
789.522	665.25
789.703	571.04
789.884	673.44
790.065	540.32
790.246	562.85
790.427	601.76
790.607	546.47
790.788	599.71
790.969	564.9
791.15	607.91
791.331	513.7
791.512	534.18
791.693	560.8
791.874	532.13
792.054	542.37
792.235	497.32
792.416	442.02
792.597	525.99
792.778	538.27
792.958	444.07
793.139	517.79
793.32	509.6
793.5	421.54
793.681	554.66
793.862	466.6
794.042	530.08
794.223	468.64
794.404	525.99
794.584	442.02
794.765	452.26
794.945	396.96
795.126	546.47
795.306	464.55
795.487	485.03
795.667	470.69
795.848	423.59
796.028	462.5
796.209	505.51
796.389	476.84
796.57	439.97
796.75	353.96
796.93	468.64
797.111	378.53
797.291	439.97
797.471	425.64
797.652	446.12
797.832	423.59
798.012	388.77
798.192	419.49
798.373	333.48
798.553	435.88
798.733	454.31
798.913	427.68
799.093	349.86
799.274	353.96
799.454	407.2
799.634	392.87
799.814	409.25
799.994	401.06
800.174	444.07
800.354	435.88
800.534	380.58
800.714	382.63
800.894	353.96
801.074	356.01
801.254	280.23
801.434	405.16
801.614	333.48
801.794	347.81
801.974	837.28
802.154	325.29
802.334	388.77
802.514	319.14
802.693	331.43
802.873	298.66
803.053	337.57
803.233	458.4
803.413	382.63
803.592	263.85
803.772	345.77
803.952	345.77
804.131	341.67
804.311	347.81
804.491	356.01
804.67	356.01
804.85	290.47
805.03	347.81
805.209	337.57
805.389	325.29
805.568	362.15
805.748	247.46
805.928	368.29
806.107	317.09
806.287	245.41
806.466	327.33
806.646	298.66
806.825	321.19
807.004	317.09
807.184	345.77
807.363	278.18
807.543	276.13
807.722	241.32
807.901	317.09
808.081	204.46
808.26	259.75
808.439	280.23
808.619	216.74
808.798	226.98
808.977	333.48
809.156	292.52
809.336	278.18
809.515	249.51
809.694	358.05
809.873	259.75
810.052	292.52
810.231	247.46
810.411	272.04
810.59	288.42
810.769	204.46
810.948	288.42
811.127	100.01
811.306	265.89
811.485	233.13
811.664	288.42
811.843	280.23
812.022	224.94
812.201	317.09
812.38	239.27
812.559	177.83
812.737	263.85
812.916	147.11
813.095	202.41
813.274	308.9
813.453	253.61
813.632	241.32
813.811	261.8
813.989	226.98
814.168	261.8
814.347	220.84
814.526	194.22
814.704	247.46
814.883	325.29
815.062	140.97
815.24	233.13
815.419	196.26
815.598	253.61
815.776	161.45
815.955	212.65
816.133	181.93
816.312	202.41
816.49	169.64
816.669	276.13
816.847	194.22
817.026	253.61
817.204	188.07
817.383	249.51
817.561	169.64
817.74	153.26
817.918	173.74
818.097	181.93
818.275	149.16
818.453	161.45
818.632	171.69
818.81	157.35
818.988	253.61
819.167	181.93
819.345	198.31
819.523	192.17
819.701	202.41
819.879	97.96
820.058	202.41
820.236	272.04
820.414	179.88
820.592	169.64
820.77	186.02
820.948	190.12
821.127	173.74
821.305	208.55
821.483	73.39
821.661	143.02
821.839	151.21
822.017	97.96
822.195	194.22
822.373	179.88
822.551	136.87
822.729	231.08
822.907	181.93
823.085	169.64
823.262	233.13
823.44	226.98
823.618	145.06
823.796	132.78
823.974	130.73
824.152	194.22
824.329	196.26
824.507	104.11
824.685	222.89
824.863	147.11
825.04	239.27
825.218	171.69
825.396	140.97
825.574	124.58
825.751	169.64
825.929	220.84
826.107	147.11
826.284	255.65
826.462	153.26
826.639	36.52
826.817	163.5
826.994	194.22
827.172	151.21
827.349	212.65
827.527	163.5
827.704	171.69
827.882	124.58
828.059	128.68
828.237	200.36
828.414	173.74
828.591	118.44
828.769	104.11
828.946	110.25
829.124	179.88
829.301	102.06
829.478	120.49
829.655	126.63
829.833	173.74
830.01	155.3
830.187	95.91
830.364	130.73
830.542	126.63
830.719	124.58
830.896	206.5
831.073	104.11
831.25	157.35
831.427	108.2
831.604	126.63
831.782	112.3
831.959	153.26
832.136	54.95
832.313	157.35
832.49	65.19
832.667	106.15
832.844	67.24
833.021	138.92
833.198	75.43
833.374	116.39
833.551	188.07
833.728	124.58
833.905	116.39
834.082	110.25
834.259	120.49
834.436	95.91
834.612	87.72
834.789	97.96
834.966	126.63
835.143	95.91
835.319	108.2
835.496	114.34
835.673	89.77
835.85	188.07
836.026	110.25
836.203	100.01
836.38	100.01
836.556	32.43
836.733	108.2
836.909	194.22
837.086	91.82
837.262	89.77
837.439	71.34
837.616	114.34
837.792	89.77
837.968	52.91
838.145	32.43
838.321	73.39
838.498	67.24
838.674	57
838.851	79.53
839.027	42.67
839.203	97.96
839.38	71.34
839.556	91.82
839.732	143.02
839.909	40.62
840.085	173.74
840.261	71.34
840.437	95.91
840.614	42.67
840.79	134.82
840.966	18.09
841.142	69.29
841.318	95.91
841.494	81.58
841.671	81.58
841.847	81.58
842.023	81.58
842.199	102.06
842.375	112.3
842.551	102.06
842.727	75.43
842.903	126.63
843.079	95.91
843.255	65.19
843.431	122.54
843.607	134.82
843.783	67.24
843.959	100.01
844.134	95.91
844.31	153.26
844.486	18.09
844.662	87.72
844.838	71.34
845.013	120.49
845.189	38.57
845.365	136.87
845.541	5.8
845.716	54.95
845.892	34.47
846.068	50.86
846.244	116.39
846.419	59.05
846.595	22.19
846.77	83.63
846.946	200.36
847.122	110.25
847.297	54.95
847.473	44.71
847.648	112.3
847.824	30.38
847.999	50.86
848.175	134.82
848.35	73.39
848.526	52.91
848.701	140.97
848.876	122.54
849.052	63.15
849.227	91.82
849.403	-43.35
849.578	50.86
849.753	75.43
849.929	83.63
850.104	-61.78
850.279	42.67
850.454	61.1
850.63	138.92
850.805	130.73
850.98	83.63
851.155	59.05
851.33	54.95
851.505	28.33
851.681	147.11
851.856	120.49
852.031	97.96
852.206	22.19
852.381	42.67
852.556	116.39
852.731	145.06
852.906	38.57
853.081	100.01
853.256	69.29
853.431	1.71
853.606	42.67
853.781	67.24
853.956	24.23
854.131	75.43
854.305	-47.44
854.48	71.34
854.655	89.77
854.83	100.01
855.005	26.28
855.18	122.54
855.354	65.19
855.529	95.91
855.704	-26.96
855.879	52.91
856.053	-14.68
856.228	75.43
856.403	-24.92
856.577	34.47
856.752	-2.39
856.926	75.43
857.101	32.43
857.276	7.85
857.45	108.2
857.625	44.71
857.799	30.38
857.974	50.86
858.148	7.85
858.323	77.48
858.497	50.86
858.672	-10.58
858.846	42.67
859.02	3.75
859.195	44.71
859.369	83.63
859.543	63.15
859.718	44.71
859.892	65.19
860.066	120.49
860.241	-4.44
860.415	-14.68
860.589	85.67
860.763	22.19
860.938	-18.77
861.112	54.95
861.286	63.15
861.46	65.19
861.634	26.28
861.808	59.05
861.982	3.75
862.157	13.99
862.331	-18.77
862.505	69.29
862.679	-4.44
862.853	40.62
863.027	32.43
863.201	67.24
863.375	16.04
863.549	65.19
863.722	57
863.896	108.2
864.07	28.33
864.244	-12.63
864.418	54.95
864.592	9.9
864.766	83.63
864.939	40.62
865.113	42.67
865.287	13.99
865.461	13.99
865.634	13.99
865.808	54.95
865.982	38.57
866.156	50.86
866.329	5.8
866.503	7.85
866.676	69.29
866.85	38.57
867.024	11.95
867.197	120.49
867.371	59.05
867.544	-29.01
867.718	3.75
867.891	48.81
868.065	11.95
868.238	104.11
868.412	149.16
868.585	-35.16
868.759	18.09
868.932	-0.34
869.105	-10.58
869.279	20.14
869.452	38.57
869.625	54.95
869.799	-14.68
869.972	67.24
870.145	93.87
870.319	91.82
870.492	63.15
870.665	26.28
870.838	38.57
871.011	-26.96
871.185	-14.68
871.358	-8.53
871.531	-0.34
871.704	65.19
871.877	-49.49
872.05	52.91
872.223	38.57
872.396	-6.49
872.569	95.91
872.742	-0.34
872.915	-8.53
873.088	-2.39
873.261	-14.68
873.434	24.23
873.607	63.15
873.78	50.86
873.953	69.29
874.126	-31.06
874.299	11.95
874.471	5.8
874.644	-14.68
874.817	61.1
874.99	67.24
875.163	42.67
875.335	97.96
875.508	-39.25
875.681	-2.39
875.853	54.95
876.026	67.24
876.199	46.76
876.371	3.75
876.544	9.9
876.717	38.57
876.889	-12.63
877.062	50.86
877.234	50.86
877.407	-4.44
877.579	-0.34
877.752	89.77
877.924	9.9
878.097	42.67
878.269	65.19
878.442	57
878.614	26.28
878.786	-0.34
878.959	-8.53
879.131	11.95
879.303	1.71
879.476	48.81
879.648	34.47
879.82	89.77
879.993	-8.53
880.165	-39.25
880.337	-33.11
880.509	7.85
880.681	26.28
880.854	-24.92
881.026	42.67
881.198	63.15
881.37	13.99
881.542	-24.92
881.714	-6.49
881.886	-12.63
882.058	18.09
882.23	44.71
882.402	5.8
882.574	7.85
882.746	7.85
882.918	83.63
883.09	-6.49
883.262	-22.87
883.434	48.81
883.606	91.82
883.778	-55.64
883.95	38.57
884.122	-16.73
884.293	-8.53
884.465	61.1
884.637	57
884.809	1.71
884.98	81.58
885.152	42.67
885.324	-22.87
885.496	9.9
885.667	1.71
885.839	22.19
886.011	116.39
886.182	-0.34
886.354	91.82
886.525	30.38
886.697	26.28
886.869	46.76
887.04	40.62
887.212	3.75
887.383	22.19
887.555	24.23
887.726	-20.82
887.897	46.76
888.069	32.43
888.24	-31.06
888.412	52.91
888.583	-53.59
888.754	42.67
888.926	-29.01
889.097	63.15
889.268	-29.01
889.44	57
889.611	-22.87
889.782	-8.53
889.953	-16.73
890.125	40.62
890.296	-6.49
890.467	42.67
890.638	-14.68
890.809	40.62
890.98	38.57
891.151	-2.39
891.323	34.47
891.494	-2.39
891.665	-4.44
891.836	-6.49
892.007	-16.73
892.178	67.24
892.349	73.39
892.52	-10.58
892.691	-0.34
892.862	-12.63
893.032	22.19
893.203	112.3
893.374	-55.64
893.545	50.86
893.716	13.99
893.887	50.86
894.057	-33.11
894.228	-29.01
894.399	9.9
894.57	61.1
894.74	65.19
894.911	77.48
895.082	-43.35
895.253	85.67
895.423	46.76
895.594	3.75
895.764	26.28
895.935	-37.2
896.106	-8.53
896.276	48.81
896.447	85.67
896.617	26.28
896.788	-31.06
896.958	-0.34
897.129	3.75
897.299	1.71
897.47	22.19
897.64	65.19
897.81	-49.49
897.981	-6.49
898.151	9.9
898.322	126.63
898.492	18.09
898.662	-33.11
898.832	-24.92
899.003	-26.96
899.173	63.15
899.343	57
899.513	-41.3
