Data from USB4F104151__283__10-42-10-002.txt Node

Date: Wed Mar 12 10:42:10 EDT 2025
User: louis
Spectrometer: USB4F10415
Trigger mode: 4
Integration Time (sec): 3.000000E-2
Scans to average: 1
Electric dark correction enabled: true
Nonlinearity correction enabled: false
Boxcar width: 0
XAxis mode: Wavelengths
Number of Pixels in Spectrum: 3648
>>>>>Begin Spectral Data<<<<<
178.204	-160.94
178.424	-160.94
178.644	-160.94
178.864	-115.88
179.084	-83.11
179.304	101.2
179.524	39.76
179.744	-21.67
179.964	9.05
180.184	-60.59
180.404	15.19
180.624	-25.77
180.844	2.9
181.064	-23.72
181.283	27.48
181.503	-89.26
181.723	25.43
181.943	-50.35
182.163	74.58
182.383	-15.53
182.602	-21.67
182.822	58.2
183.042	62.29
183.262	-27.82
183.482	119.64
183.701	-3.24
183.921	47.96
184.141	33.62
184.361	45.91
184.58	-9.39
184.8	19.29
185.02	-5.29
185.239	47.96
185.459	21.33
185.679	45.91
185.898	9.05
186.118	37.72
186.338	105.3
186.557	-15.53
186.777	-23.72
186.997	50
187.216	11.09
187.436	47.96
187.655	109.4
187.875	-25.77
188.095	-5.29
188.314	0.85
188.534	66.39
188.753	21.33
188.973	23.38
189.192	107.35
189.412	0.85
189.631	50
189.851	13.14
190.07	103.25
190.29	-19.63
190.509	0.85
190.729	23.38
190.948	31.57
191.168	176.98
191.387	-1.19
191.607	15.19
191.826	35.67
192.045	-11.43
192.265	35.67
192.484	-36.01
192.704	50
192.923	31.57
193.142	-13.48
193.362	25.43
193.581	109.4
193.8	66.39
194.02	68.44
194.239	11.09
194.458	43.86
194.678	27.48
194.897	-7.34
195.116	-15.53
195.335	35.67
195.555	123.73
195.774	56.15
195.993	-1.19
196.212	64.34
196.432	0.85
196.651	2.9
196.87	29.52
197.089	60.24
197.308	90.96
197.528	146.26
197.747	62.29
197.966	64.34
198.185	82.77
198.404	-38.06
198.623	-13.48
198.842	47.96
199.062	0.85
199.281	64.34
199.5	33.62
199.719	27.48
199.938	66.39
200.157	45.91
200.376	45.91
200.595	64.34
200.814	23.38
201.033	21.33
201.252	93.01
201.471	-3.24
201.69	45.91
201.909	-17.58
202.128	60.24
202.347	-19.63
202.566	-25.77
202.785	-60.59
203.004	-48.3
203.223	29.52
203.442	21.33
203.661	17.24
203.879	11.09
204.098	31.57
204.317	0.85
204.536	176.98
204.755	31.57
204.974	82.77
205.193	54.1
205.411	107.35
205.63	-7.34
205.849	13.14
206.068	41.81
206.287	23.38
206.505	88.92
206.724	50
206.943	2.9
207.162	25.43
207.381	56.15
207.599	-27.82
207.818	-42.15
208.037	-13.48
208.255	-3.24
208.474	39.76
208.693	2.9
208.911	9.05
209.13	129.88
209.349	68.44
209.567	45.91
209.786	82.77
210.005	56.15
210.223	33.62
210.442	-5.29
210.661	45.91
210.879	37.72
211.098	0.85
211.316	70.48
211.535	117.59
211.753	13.14
211.972	31.57
212.191	58.2
212.409	82.77
212.628	113.49
212.846	2.9
213.065	37.72
213.283	88.92
213.502	66.39
213.72	-38.06
213.938	41.81
214.157	35.67
214.375	19.29
214.594	31.57
214.812	25.43
215.031	35.67
215.249	66.39
215.467	4.95
215.686	-19.63
215.904	123.73
216.122	-15.53
216.341	19.29
216.559	41.81
216.778	56.15
216.996	-36.01
217.214	60.24
217.432	-5.29
217.651	45.91
217.869	-33.96
218.087	-15.53
218.306	25.43
218.524	31.57
218.742	-5.29
218.96	45.91
219.179	70.48
219.397	15.19
219.615	82.77
219.833	17.24
220.051	9.05
220.27	58.2
220.488	37.72
220.706	4.95
220.924	15.19
221.142	76.63
221.36	56.15
221.578	60.24
221.796	56.15
222.015	64.34
222.233	9.05
222.451	97.11
222.669	45.91
222.887	45.91
223.105	-1.19
223.323	47.96
223.541	-17.58
223.759	66.39
223.977	47.96
224.195	47.96
224.413	52.05
224.631	86.87
224.849	29.52
225.067	93.01
225.285	78.68
225.503	29.52
225.721	13.14
225.939	39.76
226.157	25.43
226.375	148.31
226.592	29.52
226.81	60.24
227.028	54.1
227.246	70.48
227.464	170.83
227.682	138.07
227.9	-11.43
228.117	41.81
228.335	-27.82
228.553	54.1
228.771	54.1
228.989	39.76
229.206	74.58
229.424	-7.34
229.642	-52.39
229.86	97.11
230.077	29.52
230.295	43.86
230.513	-15.53
230.731	109.4
230.948	9.05
231.166	60.24
231.384	15.19
231.601	-3.24
231.819	64.34
232.037	-25.77
232.254	-27.82
232.472	-23.72
232.689	7
232.907	29.52
233.125	17.24
233.342	-1.19
233.56	-23.72
233.777	50
233.995	64.34
234.213	45.91
234.43	50
234.648	21.33
234.865	72.53
235.083	31.57
235.3	82.77
235.518	76.63
235.735	58.2
235.953	121.68
236.17	58.2
236.388	21.33
236.605	29.52
236.822	80.72
237.04	45.91
237.257	19.29
237.475	-42.15
237.692	150.36
237.909	50
238.127	-44.2
238.344	66.39
238.562	29.52
238.779	-79.02
238.996	-11.43
239.214	17.24
239.431	-3.24
239.648	21.33
239.865	43.86
240.083	58.2
240.3	31.57
240.517	25.43
240.735	-81.07
240.952	0.85
241.169	117.59
241.386	105.3
241.603	2.9
241.821	17.24
242.038	13.14
242.255	25.43
242.472	50
242.689	52.05
242.907	90.96
243.124	13.14
243.341	-15.53
243.558	-36.01
243.775	33.62
243.992	-56.49
244.209	82.77
244.426	86.87
244.643	64.34
244.86	17.24
245.078	17.24
245.295	37.72
245.512	17.24
245.729	80.72
245.946	-19.63
246.163	78.68
246.38	23.38
246.597	-17.58
246.814	93.01
247.031	37.72
247.248	17.24
247.464	58.2
247.681	45.91
247.898	17.24
248.115	-1.19
248.332	-15.53
248.549	-23.72
248.766	99.16
248.983	19.29
249.2	99.16
249.417	19.29
249.633	-15.53
249.85	88.92
250.067	13.14
250.284	93.01
250.501	58.2
250.717	84.82
250.934	-11.43
251.151	-36.01
251.368	9.05
251.585	54.1
251.801	35.67
252.018	2.9
252.235	74.58
252.451	25.43
252.668	-17.58
252.885	58.2
253.102	52.05
253.318	86.87
253.535	17.24
253.752	4.95
253.968	99.16
254.185	0.85
254.401	58.2
254.618	11.09
254.835	4.95
255.051	95.06
255.268	25.43
255.484	64.34
255.701	-1.19
255.917	41.81
256.134	-7.34
256.351	39.76
256.567	33.62
256.784	0.85
257	7
257.217	72.53
257.433	47.96
257.65	-27.82
257.866	121.68
258.082	13.14
258.299	-48.3
258.515	13.14
258.732	29.52
258.948	-15.53
259.165	41.81
259.381	15.19
259.597	115.54
259.814	88.92
260.03	2.9
260.246	33.62
260.463	50
260.679	86.87
260.895	72.53
261.112	86.87
261.328	-7.34
261.544	13.14
261.761	84.82
261.977	-3.24
262.193	-68.78
262.409	76.63
262.626	74.58
262.842	103.25
263.058	0.85
263.274	54.1
263.49	27.48
263.707	58.2
263.923	76.63
264.139	-27.82
264.355	-27.82
264.571	101.2
264.787	58.2
265.004	103.25
265.22	39.76
265.436	64.34
265.652	25.43
265.868	-15.53
266.084	-40.11
266.3	39.76
266.516	39.76
266.732	97.11
266.948	62.29
267.164	99.16
267.38	74.58
267.596	54.1
267.812	117.59
268.028	-9.39
268.244	41.81
268.46	64.34
268.676	39.76
268.892	78.68
269.108	33.62
269.324	60.24
269.54	-42.15
269.756	107.35
269.972	-29.87
270.188	50
270.403	27.48
270.619	47.96
270.835	66.39
271.051	-19.63
271.267	25.43
271.483	-3.24
271.698	29.52
271.914	19.29
272.13	19.29
272.346	80.72
272.562	33.62
272.777	21.33
272.993	23.38
273.209	68.44
273.425	-13.48
273.64	43.86
273.856	68.44
274.072	39.76
274.287	-44.2
274.503	115.54
274.719	82.77
274.934	21.33
275.15	29.52
275.366	-23.72
275.581	15.19
275.797	111.44
276.012	58.2
276.228	35.67
276.444	0.85
276.659	86.87
276.875	86.87
277.09	90.96
277.306	-66.73
277.521	54.1
277.737	41.81
277.952	66.39
278.168	78.68
278.383	-5.29
278.599	13.14
278.814	25.43
279.03	78.68
279.245	50
279.461	9.05
279.676	95.06
279.892	-48.3
280.107	41.81
280.322	56.15
280.538	-7.34
280.753	-50.35
280.969	25.43
281.184	15.19
281.399	93.01
281.615	31.57
281.83	19.29
282.045	7
282.26	45.91
282.476	27.48
282.691	72.53
282.906	54.1
283.122	39.76
283.337	-11.43
283.552	-13.48
283.767	78.68
283.983	33.62
284.198	-9.39
284.413	62.29
284.628	-5.29
284.843	43.86
285.058	109.4
285.274	74.58
285.489	0.85
285.704	86.87
285.919	-19.63
286.134	52.05
286.349	-13.48
286.564	2.9
286.779	101.2
286.995	56.15
287.21	-13.48
287.425	105.3
287.64	4.95
287.855	74.58
288.07	35.67
288.285	78.68
288.5	52.05
288.715	97.11
288.93	9.05
289.145	50
289.36	45.91
289.575	15.19
289.79	4.95
290.004	47.96
290.219	68.44
290.434	70.48
290.649	56.15
290.864	17.24
291.079	-33.96
291.294	39.76
291.509	-31.91
291.724	13.14
291.938	25.43
292.153	56.15
292.368	37.72
292.583	62.29
292.798	15.19
293.012	4.95
293.227	2.9
293.442	33.62
293.657	80.72
293.871	-15.53
294.086	31.57
294.301	105.3
294.516	72.53
294.73	66.39
294.945	-72.87
295.16	37.72
295.374	64.34
295.589	35.67
295.804	-1.19
296.018	-23.72
296.233	50
296.447	25.43
296.662	-13.48
296.877	103.25
297.091	35.67
297.306	45.91
297.52	131.92
297.735	60.24
297.949	0.85
298.164	-31.91
298.378	52.05
298.593	2.9
298.807	-17.58
299.022	103.25
299.236	70.48
299.451	17.24
299.665	29.52
299.88	0.85
300.094	-3.24
300.309	43.86
300.523	9.05
300.737	13.14
300.952	9.05
301.166	115.54
301.381	-17.58
301.595	-5.29
301.809	4.95
302.024	54.1
302.238	-15.53
302.452	66.39
302.667	-7.34
302.881	74.58
303.095	-23.72
303.309	64.34
303.524	35.67
303.738	50
303.952	-13.48
304.166	170.83
304.381	-15.53
304.595	64.34
304.809	9.05
305.023	78.68
305.237	13.14
305.452	23.38
305.666	7
305.88	70.48
306.094	117.59
306.308	-11.43
306.522	43.86
306.736	31.57
306.95	54.1
307.164	64.34
307.379	-5.29
307.593	78.68
307.807	74.58
308.021	95.06
308.235	17.24
308.449	11.09
308.663	-19.63
308.877	50
309.091	43.86
309.305	84.82
309.519	-31.91
309.733	72.53
309.947	-25.77
310.161	-3.24
310.374	-1.19
310.588	35.67
310.802	45.91
311.016	-44.2
311.23	52.05
311.444	37.72
311.658	15.19
311.872	21.33
312.085	74.58
312.299	52.05
312.513	131.92
312.727	76.63
312.941	23.38
313.154	58.2
313.368	7
313.582	17.24
313.796	27.48
314.009	68.44
314.223	66.39
314.437	105.3
314.651	101.2
314.864	29.52
315.078	-19.63
315.292	-5.29
315.505	56.15
315.719	25.43
315.933	-19.63
316.146	41.81
316.36	70.48
316.573	27.48
316.787	15.19
317.001	47.96
317.214	31.57
317.428	-5.29
317.641	0.85
317.855	-11.43
318.068	74.58
318.282	115.54
318.495	76.63
318.709	31.57
318.922	33.62
319.136	105.3
319.349	19.29
319.563	27.48
319.776	45.91
319.99	25.43
320.203	-81.07
320.417	70.48
320.63	50
320.843	123.73
321.057	-13.48
321.27	39.76
321.483	29.52
321.697	70.48
321.91	27.48
322.124	39.76
322.337	56.15
322.55	90.96
322.763	33.62
322.977	56.15
323.19	-21.67
323.403	45.91
323.617	60.24
323.83	29.52
324.043	17.24
324.256	58.2
324.469	45.91
324.683	25.43
324.896	64.34
325.109	31.57
325.322	15.19
325.535	99.16
325.748	-31.91
325.962	-5.29
326.175	86.87
326.388	60.24
326.601	58.2
326.814	-21.67
327.027	64.34
327.24	4.95
327.453	7
327.666	21.33
327.879	74.58
328.092	76.63
328.305	21.33
328.518	2.9
328.731	-46.25
328.944	88.92
329.157	70.48
329.37	-11.43
329.583	31.57
329.796	45.91
330.009	-15.53
330.222	107.35
330.435	39.76
330.648	7
330.861	35.67
331.073	86.87
331.286	60.24
331.499	41.81
331.712	9.05
331.925	62.29
332.138	-29.87
332.35	-48.3
332.563	37.72
332.776	95.06
332.989	45.91
333.202	78.68
333.414	-15.53
333.627	7
333.84	74.58
334.053	54.1
334.265	33.62
334.478	27.48
334.691	31.57
334.903	31.57
335.116	56.15
335.329	-40.11
335.541	80.72
335.754	19.29
335.966	-3.24
336.179	64.34
336.392	33.62
336.604	-44.2
336.817	50
337.029	64.34
337.242	-17.58
337.454	17.24
337.667	25.43
337.88	109.4
338.092	21.33
338.305	31.57
338.517	19.29
338.729	150.36
338.942	107.35
339.154	-23.72
339.367	17.24
339.579	45.91
339.792	-13.48
340.004	-15.53
340.217	-13.48
340.429	-15.53
340.641	72.53
340.854	4.95
341.066	54.1
341.278	45.91
341.491	54.1
341.703	58.2
341.915	56.15
342.128	78.68
342.34	56.15
342.552	-7.34
342.764	68.44
342.977	70.48
343.189	2.9
343.401	62.29
343.613	103.25
343.826	58.2
344.038	29.52
344.25	82.77
344.462	-33.96
344.674	64.34
344.886	-5.29
345.099	64.34
345.311	62.29
345.523	-11.43
345.735	4.95
345.947	54.1
346.159	68.44
346.371	13.14
346.583	78.68
346.795	131.92
347.007	39.76
347.219	52.05
347.431	7
347.643	115.54
347.855	47.96
348.067	56.15
348.279	-56.49
348.491	52.05
348.703	-5.29
348.915	45.91
349.127	103.25
349.339	39.76
349.551	76.63
349.763	62.29
349.975	54.1
350.187	35.67
350.399	66.39
350.61	66.39
350.822	74.58
351.034	52.05
351.246	74.58
351.458	97.11
351.669	15.19
351.881	90.96
352.093	113.49
352.305	66.39
352.517	47.96
352.728	41.81
352.94	17.24
353.152	43.86
353.363	9.05
353.575	148.31
353.787	9.05
353.999	29.52
354.21	39.76
354.422	41.81
354.633	56.15
354.845	35.67
355.057	43.86
355.268	64.34
355.48	27.48
355.692	13.14
355.903	19.29
356.115	54.1
356.326	-3.24
356.538	105.3
356.749	19.29
356.961	37.72
357.172	93.01
357.384	13.14
357.595	66.39
357.807	50
358.018	25.43
358.23	115.54
358.441	80.72
358.653	37.72
358.864	82.77
359.075	-44.2
359.287	115.54
359.498	125.78
359.709	54.1
359.921	66.39
360.132	29.52
360.344	60.24
360.555	-27.82
360.766	31.57
360.977	47.96
361.189	35.67
361.4	37.72
361.611	64.34
361.823	60.24
362.034	117.59
362.245	23.38
362.456	95.06
362.667	72.53
362.879	11.09
363.09	95.06
363.301	-9.39
363.512	43.86
363.723	50
363.935	37.72
364.146	86.87
364.357	-7.34
364.568	11.09
364.779	68.44
364.99	103.25
365.201	37.72
365.412	13.14
365.623	39.76
365.834	7
366.045	17.24
366.256	50
366.467	4.95
366.678	45.91
366.889	158.55
367.1	29.52
367.311	107.35
367.522	25.43
367.733	84.82
367.944	68.44
368.155	27.48
368.366	54.1
368.577	58.2
368.788	72.53
368.999	76.63
369.209	66.39
369.42	123.73
369.631	123.73
369.842	99.16
370.053	86.87
370.264	66.39
370.474	50
370.685	140.12
370.896	45.91
371.107	99.16
371.317	97.11
371.528	-13.48
371.739	101.2
371.95	-5.29
372.16	90.96
372.371	39.76
372.582	45.91
372.792	43.86
373.003	33.62
373.214	62.29
373.424	121.68
373.635	21.33
373.846	99.16
374.056	131.92
374.267	19.29
374.477	90.96
374.688	93.01
374.898	33.62
375.109	84.82
375.319	2.9
375.53	80.72
375.74	11.09
375.951	43.86
376.161	131.92
376.372	131.92
376.582	76.63
376.793	15.19
377.003	60.24
377.214	62.29
377.424	119.64
377.635	29.52
377.845	21.33
378.055	37.72
378.266	-17.58
378.476	31.57
378.686	68.44
378.897	52.05
379.107	90.96
379.317	78.68
379.528	97.11
379.738	33.62
379.948	25.43
380.158	113.49
380.369	82.77
380.579	109.4
380.789	80.72
380.999	121.68
381.21	76.63
381.42	125.78
381.63	88.92
381.84	90.96
382.05	50
382.261	131.92
382.471	101.2
382.681	58.2
382.891	117.59
383.101	9.05
383.311	17.24
383.521	103.25
383.731	90.96
383.941	88.92
384.151	95.06
384.361	-11.43
384.571	127.83
384.781	54.1
384.991	99.16
385.201	119.64
385.411	72.53
385.621	103.25
385.831	41.81
386.041	4.95
386.251	66.39
386.461	62.29
386.671	15.19
386.881	72.53
387.091	31.57
387.301	117.59
387.511	50
387.72	115.54
387.93	13.14
388.14	47.96
388.35	103.25
388.56	103.25
388.769	111.44
388.979	66.39
389.189	41.81
389.399	-7.34
389.609	43.86
389.818	74.58
390.028	93.01
390.238	88.92
390.447	50
390.657	62.29
390.867	70.48
391.076	80.72
391.286	176.98
391.496	119.64
391.705	179.03
391.915	84.82
392.125	82.77
392.334	107.35
392.544	70.48
392.753	66.39
392.963	41.81
393.172	90.96
393.382	86.87
393.591	113.49
393.801	84.82
394.01	84.82
394.22	138.07
394.429	95.06
394.639	80.72
394.848	121.68
395.058	129.88
395.267	107.35
395.477	148.31
395.686	144.21
395.895	129.88
396.105	166.74
396.314	142.16
396.524	105.3
396.733	148.31
396.942	152.4
397.152	115.54
397.361	185.17
397.57	111.44
397.78	105.3
397.989	95.06
398.198	168.79
398.407	72.53
398.617	105.3
398.826	136.02
399.035	138.07
399.244	152.4
399.453	97.11
399.663	127.83
399.872	111.44
400.081	105.3
400.29	193.36
400.499	95.06
400.708	119.64
400.917	148.31
401.127	207.7
401.336	103.25
401.545	197.46
401.754	144.21
401.963	224.08
402.172	84.82
402.381	113.49
402.59	115.54
402.799	142.16
403.008	150.36
403.217	133.97
403.426	127.83
403.635	113.49
403.844	158.55
404.053	90.96
404.262	90.96
404.471	295.76
404.68	138.07
404.888	115.54
405.097	111.44
405.306	168.79
405.515	125.78
405.724	209.75
405.933	185.17
406.142	236.37
406.35	234.32
406.559	195.41
406.768	193.36
406.977	226.13
407.185	176.98
407.394	187.22
407.603	183.12
407.812	299.86
408.02	281.43
408.229	267.09
408.438	281.43
408.646	310.1
408.855	250.71
409.064	312.14
409.272	375.63
409.481	301.9
409.69	336.72
409.898	344.91
410.107	340.82
410.315	394.06
410.524	297.81
410.733	389.97
410.941	418.64
411.15	432.97
411.358	531.28
411.567	537.42
411.775	443.21
411.984	506.7
412.192	512.85
412.401	514.89
412.609	555.85
412.818	633.68
413.026	615.24
413.234	639.82
413.443	551.76
413.651	621.39
413.86	686.92
414.068	736.07
414.276	764.75
414.485	770.89
414.693	752.46
414.901	901.96
415.11	809.8
415.318	899.91
415.526	834.38
415.734	955.21
415.943	996.17
416.151	926.54
416.359	998.21
416.567	977.73
416.776	949.06
416.984	1137.48
417.192	1200.96
417.4	1174.34
417.608	1192.77
417.817	1268.55
418.025	1397.57
418.233	1454.91
418.441	1434.43
418.649	1397.57
418.857	1504.06
419.065	1614.65
419.273	1516.35
419.481	1647.42
419.689	1776.44
419.897	1770.3
420.105	1760.06
420.313	1964.86
420.521	1891.13
420.729	1975.1
420.937	2009.91
421.145	2165.56
421.353	2296.63
421.561	2302.77
421.769	2454.32
421.977	2491.18
422.185	2462.51
422.393	2540.33
422.601	2685.74
422.809	2722.6
423.017	2779.95
423.224	2859.82
423.432	2972.46
423.64	2937.64
423.848	3250.98
424.056	3285.8
424.263	3535.65
424.471	3433.25
424.679	3648.29
424.887	3681.05
425.094	3840.79
425.302	3812.12
425.51	3957.53
425.718	4010.78
425.925	4227.86
426.133	4322.07
426.341	4633.36
426.548	4770.57
426.756	4936.46
426.964	4813.58
427.171	5092.1
427.379	5174.02
427.586	5307.14
427.794	5600
428.001	5792.51
428.209	5970.68
428.417	5989.11
428.624	6333.17
428.832	6392.56
429.039	6386.42
429.247	6210.29
429.454	6916.84
429.662	7525.09
429.869	7021.29
430.076	7262.95
430.284	7197.42
430.491	7471.84
430.699	7842.53
430.906	8063.71
431.114	8096.47
431.321	8151.77
431.528	8483.54
431.736	9087.69
431.943	9464.52
432.15	9231.05
432.358	9284.3
432.565	9700.03
432.772	9603.78
432.979	10257.08
433.187	10324.66
433.394	10316.47
433.601	11203.24
433.808	11305.64
434.016	11014.83
434.223	11629.22
434.43	12407.45
434.637	12196.51
434.844	12698.26
435.052	13142.67
435.259	13103.76
435.466	13007.5
435.673	12724.88
435.88	13853.31
436.087	14731.89
436.294	14586.49
436.501	14293.63
436.708	14635.64
436.915	15250.03
437.122	15768.16
437.329	15612.52
437.537	16323.16
437.743	16484.95
437.95	16095.84
438.157	17332.81
438.364	17721.93
438.571	17531.47
438.778	17818.18
438.985	19388.97
439.192	18514.49
439.399	19157.55
439.606	18803.25
439.813	19931.69
440.02	21170.71
440.227	20460.06
440.433	20476.44
440.64	21424.65
440.847	21195.28
441.054	21742.09
441.261	22835.7
441.467	22825.47
441.674	23165.43
441.881	23994.86
442.088	24044.01
442.294	23564.78
442.501	24560.09
442.708	24789.47
442.914	26167.75
443.121	26708.41
443.328	26315.2
443.534	28035.5
443.741	27417.01
443.948	27070.9
444.154	29030.81
444.361	28467.62
444.568	28750.24
444.774	28873.12
444.981	29735.31
445.187	29899.15
445.394	31334.78
445.6	30851.45
445.807	33784.15
446.013	32319.85
446.22	33128.8
446.426	34330.95
446.633	34345.29
446.839	35567.93
447.046	34113.87
447.252	36469.03
447.459	35918.13
447.665	35774.77
447.871	37538.07
448.078	39160.06
448.284	36696.36
448.491	38070.54
448.697	39555.32
448.903	40012.02
449.11	40335.6
449.316	39356.67
449.522	40405.23
449.728	41314.53
449.935	41412.83
450.141	41687.26
450.347	42252.5
450.553	41175.27
450.76	41607.39
450.966	42719.43
451.172	42352.85
451.378	43335.87
451.584	42608.84
451.791	43202.75
451.997	43276.48
452.203	43925.69
452.409	43972.79
452.615	43927.74
452.821	41990.36
453.027	41582.81
453.233	43526.33
453.44	41674.97
453.646	42123.47
453.852	42356.94
454.058	43329.73
454.264	41517.28
454.47	42563.79
454.676	41492.7
454.882	42809.54
455.088	38615.3
455.294	39217.41
455.5	39803.13
455.705	40507.63
455.911	39104.77
456.117	38301.96
456.323	37077.28
456.529	35750.2
456.735	36878.63
456.941	36139.31
457.147	35283.26
457.352	34367.82
457.558	34013.52
457.764	34005.33
457.97	33509.72
458.176	32844.13
458.381	32651.62
458.587	31093.11
458.793	30955.9
458.999	29428.12
459.204	31549.81
459.41	30720.38
459.616	28637.6
459.821	28617.12
460.027	28600.74
460.233	27842.99
460.438	26382.79
460.644	26925.5
460.85	25815.5
461.055	25627.09
461.261	25012.7
461.466	23405.04
461.672	22624.76
461.878	24426.98
462.083	22809.08
462.289	22178.31
462.494	22172.16
462.7	21043.73
462.905	20711.96
463.111	21264.91
463.316	21385.74
463.522	21002.77
463.727	21352.98
463.932	21324.3
464.138	20681.24
464.343	20861.46
464.549	20128.29
464.754	21099.03
464.959	20605.47
465.165	20558.36
465.37	19669.55
465.575	19421.74
465.781	20038.18
465.986	20277.79
466.191	19452.46
466.397	18952.76
466.602	18350.65
466.807	18750.01
467.012	18762.3
467.218	18668.09
467.423	18557.5
467.628	18698.81
467.833	19599.91
468.038	18852.41
468.244	18000.45
468.449	18813.49
468.654	18278.97
468.859	18205.25
469.064	17973.83
469.269	17431.12
469.474	17744.45
469.679	17787.46
469.885	17341
470.09	17609.29
470.295	17406.54
470.5	16955.99
470.705	17160.78
470.91	16716.37
471.115	16603.74
471.32	16955.99
471.525	16761.43
471.73	16466.52
471.935	16120.42
472.139	15633
472.344	15870.56
472.549	15776.36
472.754	15719.01
472.959	14940.79
473.164	14901.87
473.369	14633.59
473.574	15383.15
473.778	15219.31
473.983	14643.83
474.188	15186.54
474.393	13998.72
474.598	14500.47
474.802	14404.22
475.007	14068.35
475.212	14322.3
475.417	13478.54
475.621	13644.42
475.826	13750.92
476.031	13376.14
476.235	13066.89
476.44	13363.85
476.645	13265.55
476.849	13075.09
477.054	12944.02
477.259	12831.38
477.463	12757.65
477.668	12493.46
477.872	12702.36
478.077	12348.06
478.282	12167.84
478.486	12286.62
478.691	12044.96
478.895	11965.09
479.1	11772.58
479.304	11864.74
479.509	11506.34
479.713	11901.6
479.918	11739.81
480.122	11457.19
480.326	11811.49
480.531	11557.54
480.735	11557.54
480.94	11537.06
481.144	11661.99
481.348	10990.25
481.553	11360.94
481.757	11072.17
481.961	11330.22
482.166	11348.65
482.37	11401.9
482.574	11061.93
482.778	11156.14
482.983	11358.89
483.187	11248.3
483.391	11098.8
483.595	11125.42
483.8	10955.44
484.004	11270.83
484.208	11193
484.412	11188.91
484.616	11356.84
484.821	11213.48
485.025	10928.81
485.229	11416.23
485.433	11109.04
485.637	11444.9
485.841	11090.6
486.045	11264.68
486.249	11332.26
486.453	11076.27
486.657	11221.67
486.861	11444.9
487.065	10996.4
487.269	11211.43
487.473	11074.22
487.677	11340.46
487.881	11285.16
488.085	11172.52
488.289	10969.77
488.493	11483.81
488.697	11270.83
488.901	11408.04
489.105	11371.18
489.309	11385.51
489.512	11514.53
489.716	11430.57
489.92	11395.75
490.124	11319.98
490.328	11762.34
490.531	11489.96
490.735	11694.75
490.939	11682.47
491.143	11539.11
491.346	11641.51
491.55	11872.93
491.754	11793.06
491.958	11846.3
492.161	11838.11
492.365	11643.56
492.569	11762.34
492.772	11936.42
492.976	12110.49
493.18	12239.51
493.383	12268.19
493.587	12479.13
493.79	12448.41
493.994	12370.58
494.197	12436.12
494.401	12438.17
494.605	12884.62
494.808	13077.13
495.012	12708.5
495.215	12935.82
495.419	13107.85
495.622	13136.52
495.825	13439.62
496.029	13185.68
496.232	13580.93
496.436	13513.35
496.639	13802.11
496.843	13763.2
497.046	14099.07
497.249	14023.3
497.453	14396.03
497.656	14598.77
497.859	14377.59
498.063	14473.85
498.266	14865.01
498.469	14881.39
498.673	14996.08
498.876	15368.81
499.079	15194.73
499.282	15618.66
499.485	16005.73
499.689	16011.87
499.892	16169.57
500.095	16081.5
500.298	16548.44
500.501	16538.2
500.705	16970.32
500.908	16968.27
501.111	17287.76
501.314	17379.92
501.517	17388.11
501.72	17713.74
501.923	17756.74
502.126	18012.74
502.329	18416.19
502.532	18575.93
502.735	18795.06
502.938	18922.04
503.141	19038.77
503.344	19442.22
503.547	19524.14
503.75	19614.25
503.953	20042.28
504.156	20257.31
504.359	20265.5
504.562	20541.98
504.765	21033.49
504.968	20806.17
505.17	21453.33
505.373	21256.72
505.576	21709.32
505.779	22055.43
505.982	21920.26
506.185	22639.1
506.387	22684.16
506.59	22735.35
506.793	23030.26
506.996	23382.51
507.198	23841.26
507.401	23529.97
507.604	24029.67
507.807	24261.09
508.009	24642.01
508.212	24590.81
508.415	24666.59
508.617	25250.26
508.82	25297.36
509.022	25190.87
509.225	25616.85
509.428	26237.38
509.63	26589.63
509.833	26626.5
510.035	26970.55
510.238	26671.55
510.44	27222.45
510.643	27611.57
510.845	27935.15
511.048	28094.89
511.25	28242.34
511.453	28596.64
511.655	29563.28
511.858	29006.23
512.06	29464.98
512.262	29817.23
512.465	29514.13
512.667	30413.19
512.87	30484.87
513.072	30384.52
513.274	30837.12
513.477	31062.4
513.679	31646.07
513.881	31607.16
514.084	32098.67
514.286	32657.76
514.488	32280.94
514.69	33546.58
514.893	33337.69
515.095	33556.82
515.297	33814.87
515.499	33751.38
515.701	34580.81
515.904	34855.23
516.106	34969.92
516.308	35211.58
516.51	35604.79
516.712	35645.75
516.914	35934.51
517.116	36716.84
517.318	36628.77
517.52	37099.81
517.722	37208.35
517.925	37546.26
518.127	38017.3
518.329	38189.33
518.531	37712.15
518.733	38953.22
518.935	39313.66
519.136	39041.28
519.338	39448.83
519.54	40124.66
519.742	40280.3
519.944	40114.42
520.146	40503.53
520.348	40915.17
520.55	41380.06
520.752	41210.08
520.954	42418.38
521.155	41892.05
521.357	42383.57
521.559	42721.48
521.761	43428.03
521.963	43065.54
522.164	43182.27
522.366	43540.67
522.568	43702.46
522.77	43608.25
522.971	44894.38
523.173	44247.22
523.375	44902.57
523.576	44619.95
523.778	45000.87
523.98	45797.53
524.181	45684.89
524.383	45887.64
524.584	45885.59
524.786	46297.23
524.988	46168.21
525.189	46905.48
525.391	47110.28
525.592	47081.61
525.794	46997.64
525.995	47919.23
526.197	47149.19
526.398	47513.73
526.6	48003.19
526.801	48062.58
527.003	48136.31
527.204	48552.05
527.406	48726.13
527.607	48506.99
527.808	48613.49
528.01	48451.7
528.211	48748.65
528.412	49715.29
528.614	49698.91
528.815	49438.82
529.016	49668.19
529.218	49047.66
529.419	49584.22
529.62	49786.97
529.822	49789.02
530.023	49428.58
530.224	49793.12
530.425	49825.89
530.626	49983.58
530.828	49793.12
531.029	50765.9
531.23	50337.88
531.431	50196.57
531.632	50264.15
531.833	50835.53
532.035	50419.8
532.236	50323.54
532.437	50579.54
532.638	49932.38
532.839	50991.18
533.04	50653.26
533.241	50165.85
533.442	51464.26
533.643	50686.03
533.844	50860.11
534.045	51023.95
534.246	50620.5
534.447	50982.99
534.648	50686.03
534.849	51210.31
535.05	50770
535.251	50770
535.451	50546.77
535.652	51177.54
535.853	50350.17
536.054	51298.37
536.255	50825.29
536.456	50600.02
536.657	51529.8
536.857	50808.91
537.058	51058.76
537.259	51429.44
537.46	50956.36
537.66	51220.55
537.861	51118.15
538.062	50810.96
538.263	51312.71
538.463	50630.74
538.664	50825.29
538.865	50853.97
539.065	51408.96
539.266	50413.65
539.466	51394.63
539.667	50462.8
539.868	51124.3
540.068	51224.65
540.269	51296.33
540.469	50606.16
540.67	50833.49
540.87	50843.73
541.071	50946.12
541.271	51071.05
541.472	50393.17
541.672	50382.93
541.873	50579.54
542.073	50212.95
542.274	51122.25
542.474	51025.99
542.675	50272.34
542.875	51406.92
543.075	50712.66
543.276	50096.22
543.476	51152.97
543.676	50040.92
543.877	51079.24
544.077	50640.98
544.277	50520.15
544.478	50825.29
544.678	51185.74
544.878	50497.62
545.078	50968.65
545.279	50227.29
545.479	50327.64
545.679	50360.4
545.879	50669.65
546.079	50522.19
546.28	50673.74
546.48	50268.25
546.68	50430.04
546.88	50714.7
547.08	50235.48
547.28	50301.01
547.48	49825.89
547.68	50784.33
547.88	49934.43
548.081	50892.88
548.281	50628.69
548.481	50303.06
548.681	50608.21
548.881	50145.37
549.081	50307.16
549.28	49856.6
549.48	50720.85
549.68	50360.4
549.88	50858.06
550.08	50341.97
550.28	50405.46
550.48	50415.7
550.68	50643.02
550.88	49647.71
551.08	50106.46
551.279	50421.84
551.479	49627.23
551.679	50647.12
551.879	49735.77
552.079	50702.42
552.278	50030.68
552.478	50268.25
552.678	50139.22
552.878	50356.31
553.077	50079.83
553.277	49834.08
553.477	50622.54
553.676	50071.64
553.876	50079.83
554.076	49653.86
554.275	49541.22
554.475	49170.54
554.674	49942.62
554.874	49477.73
555.074	49541.22
555.273	50155.61
555.473	50028.63
555.672	49733.73
555.872	49805.41
556.071	49870.94
556.271	49907.8
556.47	49309.8
556.67	49186.92
556.869	49539.17
557.068	49592.42
557.268	48980.07
557.467	49557.6
557.667	49350.76
557.866	49844.32
558.065	49031.27
558.265	48885.87
558.464	49191.01
558.663	49563.75
558.863	48728.17
559.062	49619.04
559.261	48668.78
559.461	49395.81
559.66	48420.98
559.859	48824.43
560.058	48361.59
560.258	48937.07
560.457	48330.87
560.656	48672.88
560.855	48386.16
561.054	48541.81
561.253	48375.92
561.453	48586.86
561.652	48216.18
561.851	48443.51
562.05	48408.69
562.249	47890.55
562.448	48326.77
562.647	47638.65
562.846	48019.58
563.045	48353.4
563.244	47298.69
563.443	48269.43
563.642	47417.47
563.841	47622.27
564.04	47358.08
564.239	48339.06
564.438	47255.68
564.637	48031.86
564.836	47556.74
565.035	46925.96
565.234	46950.54
565.432	47118.47
565.631	47247.49
565.83	47220.87
566.029	46903.43
566.228	46825.61
566.427	47233.16
566.625	46192.79
566.824	45959.32
567.023	46612.62
567.222	45738.14
567.42	46749.84
567.619	46188.69
567.818	46051.48
568.016	45926.55
568.215	46725.26
568.414	45938.84
568.612	46252.18
568.811	45537.44
569.01	45754.52
569.208	45152.42
569.407	45940.89
569.605	45265.06
569.804	45697.18
570.002	45394.08
570.201	45412.51
570.4	45203.62
570.598	45084.84
570.797	44755.11
570.995	45256.87
571.193	44601.52
571.392	44808.36
571.59	44259.51
571.789	44558.51
571.987	44558.51
572.186	44611.76
572.384	44413.1
572.582	44849.32
572.781	44492.97
572.979	43512
573.177	43980.98
573.376	43886.78
573.574	43878.58
573.772	44257.46
573.971	43673.79
574.169	43272.39
574.367	43409.6
574.565	43911.35
574.763	43415.74
574.962	43331.78
575.16	42485.97
575.358	42551.5
575.556	42189.01
575.754	43069.64
575.952	42604.75
576.151	43192.51
576.349	42135.76
576.547	42365.13
576.745	42166.48
576.943	42846.41
577.141	42379.47
577.339	42631.37
577.537	42051.8
577.735	42234.06
577.933	41816.28
578.131	42158.29
578.329	41343.2
578.527	41203.94
578.725	41986.26
578.923	41687.26
579.121	41126.11
579.319	41242.85
579.516	41410.78
579.714	41158.88
579.912	41122.02
580.11	40704.23
580.308	41068.77
580.506	41083.11
580.704	40210.67
580.901	40868.07
581.099	40827.11
581.297	40292.59
581.495	40481
581.692	40347.89
581.89	39645.43
582.088	40204.53
582.285	39749.88
582.483	40167.66
582.681	39997.68
582.878	39602.43
583.076	39495.93
583.274	39876.85
583.471	39385.34
583.669	39389.44
583.866	39287.04
584.064	39127.3
584.262	38498.57
584.459	39057.67
584.657	38488.33
584.854	38760.71
585.052	38387.98
585.249	38609.16
585.447	38551.82
585.644	38240.53
585.841	38052.11
586.039	38684.94
586.236	38002.96
586.434	37787.92
586.631	37818.64
586.828	38045.97
587.026	37734.68
587.223	37669.14
587.42	37447.96
587.618	37695.77
587.815	37179.68
588.012	37357.85
588.21	36935.97
588.407	37214.49
588.604	36602.15
588.801	36901.15
588.999	36387.11
589.196	36464.94
589.393	36692.26
589.59	36297
589.787	36053.3
589.984	35911.99
590.182	35852.59
590.379	36000.05
590.576	35694.9
590.773	36129.07
590.97	35586.36
591.167	35846.45
591.364	34965.82
591.561	35522.87
591.758	34992.45
591.955	35215.68
592.152	35215.68
592.349	34978.11
592.546	35311.93
592.743	35127.61
592.94	34410.82
593.137	34939.2
593.334	34650.44
593.531	34163.02
593.727	34150.73
593.924	34265.42
594.121	34089.29
594.318	34353.48
594.515	33870.16
594.712	34335.05
594.908	33384.79
595.105	33720.66
595.302	33497.43
595.499	33794.39
595.696	33229.15
595.892	32584.04
596.089	33411.42
596.286	33352.02
596.482	33171.8
596.679	33155.42
596.876	33032.54
597.072	32840.03
597.269	32848.22
597.466	32465.25
597.662	32575.84
597.859	32723.3
598.055	32645.48
598.252	32014.7
598.448	32424.29
598.645	32442.73
598.841	31672.69
599.038	31613.3
599.234	31873.39
599.431	31488.37
599.627	31590.77
599.824	31717.75
600.02	31259
600.217	31764.85
600.413	31043.96
600.609	31123.83
600.806	30740.86
601.002	31416.69
601.198	30620.03
601.395	30771.58
601.591	30251.4
601.787	30587.27
601.984	30017.93
602.18	31064.44
602.376	30132.62
602.572	29981.07
602.769	30081.42
602.965	30255.5
603.161	29989.26
603.357	29774.22
603.553	29542.8
603.75	30042.51
603.946	29565.33
604.142	29370.77
604.338	29192.6
604.534	29387.16
604.73	28926.36
604.926	29346.2
605.122	29082.01
605.318	28799.39
605.514	28682.66
605.71	28705.18
605.906	28389.8
606.102	28346.79
606.298	28479.91
606.494	28244.39
606.69	28314.02
606.886	28647.84
607.082	28182.95
607.278	28066.22
607.474	27869.61
607.67	28082.6
607.866	27685.29
608.062	28035.5
608.257	27275.7
608.453	27748.78
608.649	27711.92
608.845	27382.2
609.041	27824.56
609.236	27740.59
609.432	27271.61
609.628	27390.39
609.824	27558.32
610.019	27113.91
610.215	27052.47
610.411	27410.87
610.606	27105.72
610.802	27109.82
610.998	26583.49
611.193	26950.07
611.389	26597.82
611.584	26608.06
611.78	26732.99
611.976	26423.75
612.171	26798.52
612.367	26288.58
612.562	26513.86
612.758	26114.5
612.953	26071.5
613.149	26507.71
613.344	25866.7
613.539	26472.9
613.735	26059.21
613.93	26112.45
614.126	25956.81
614.321	26227.14
614.517	26192.33
614.712	25848.27
614.907	25606.61
615.103	26194.37
615.298	25625.04
615.493	25997.77
615.688	25549.26
615.884	25942.47
616.079	25188.82
616.274	25694.67
616.47	25432.53
616.665	25604.56
616.86	25084.37
617.055	25104.85
617.25	25131.48
617.445	25278.93
617.641	24984.02
617.836	25242.07
618.031	24648.16
618.226	24959.45
618.421	24791.52
618.616	24615.39
618.811	24695.26
619.006	24596.96
619.201	24195.56
619.396	24437.22
619.591	23935.46
619.786	24455.65
619.981	24084.97
620.176	24054.25
620.371	23556.59
620.566	23902.7
620.761	23630.32
620.956	24101.35
621.151	23298.55
621.346	23448.05
621.541	22915.58
621.735	23517.68
621.93	22641.15
622.125	23153.14
622.32	22655.48
622.515	22966.77
622.709	22415.87
622.904	22446.59
623.099	22401.54
623.294	22419.97
623.488	22000.13
623.683	22233.6
623.878	21631.5
624.072	21961.22
624.267	21756.43
624.462	21742.09
624.656	21053.97
624.851	21299.73
625.046	21096.98
625.24	21074.45
625.435	20814.36
625.629	20904.47
625.824	20861.46
626.018	20716.06
626.213	20554.27
626.407	20310.56
626.602	19794.47
626.796	20357.66
626.991	20232.74
627.185	20003.36
627.38	19798.57
627.574	19712.55
627.768	19483.18
627.963	19536.43
628.157	19368.49
628.352	19239.47
628.546	19065.39
628.74	18987.57
628.935	18702.9
629.129	18887.22
629.323	18610.75
629.517	18674.23
629.712	18768.44
629.906	18534.97
630.1	18141.76
630.294	18301.5
630.489	18229.82
630.683	18135.62
630.877	17959.49
631.071	17891.91
631.265	17744.45
631.459	17775.17
631.653	17742.41
631.848	17644.1
632.042	17386.06
632.236	17291.85
632.43	17287.76
632.624	17414.73
632.818	17130.06
633.012	16970.32
633.206	16933.46
633.4	17005.14
633.594	16632.41
633.788	16898.64
633.982	16765.53
634.176	16427.61
634.369	16310.88
634.563	16343.64
634.757	15936.1
634.951	16200.29
635.145	16353.88
635.339	16038.5
635.533	16077.41
635.726	16061.02
635.92	15551.08
636.114	15671.91
636.308	15493.74
636.501	15571.56
636.695	15508.07
636.889	15319.66
637.083	15147.63
637.276	15155.82
637.47	14850.67
637.664	15049.33
637.857	14901.87
638.051	14926.45
638.244	14776.95
638.438	14649.97
638.632	14570.1
638.825	14375.55
639.019	14389.88
639.212	14070.4
639.406	14369.4
639.599	14246.52
639.793	14156.41
639.986	13988.48
640.18	13812.35
640.373	13886.08
640.567	13703.81
640.76	14027.39
640.954	13554.31
641.147	13591.17
641.34	13523.59
641.534	13456.01
641.727	13279.88
641.92	13343.37
642.114	13011.6
642.307	13243.02
642.5	13118.09
642.694	12858
642.887	13011.6
643.08	12941.97
643.273	12831.38
643.467	12868.24
643.66	12630.68
643.853	12606.1
644.046	12368.54
644.239	12427.93
644.432	12458.65
644.626	12270.23
644.819	12184.22
645.012	12208.8
645.205	12266.14
645.398	12219.03
645.591	11862.69
645.784	12141.21
645.977	11981.47
646.17	12010.14
646.363	11784.87
646.556	11772.58
646.749	11606.69
646.942	11778.72
647.135	11682.47
647.328	11514.53
647.521	11332.26
647.714	11256.49
647.907	11305.64
648.099	11274.92
648.292	11326.12
648.485	11127.47
648.678	10949.29
648.871	10988.21
649.064	11035.31
649.256	11100.84
649.449	10853.04
649.642	10922.67
649.835	10832.56
650.027	10785.46
650.22	10666.67
650.413	10697.39
650.605	10609.33
650.798	10480.31
650.991	10488.5
651.183	10349.24
651.376	10232.51
651.568	10304.18
651.761	10207.93
651.954	10113.72
652.146	10085.05
652.339	9931.45
652.531	9913.02
652.724	10134.2
652.916	9695.94
653.109	9685.7
653.301	9700.03
653.494	9859.77
653.686	9421.51
653.879	9630.4
654.071	9464.52
654.263	9472.71
654.456	9286.34
654.648	9472.71
654.84	9132.75
655.033	9259.72
655.225	9317.06
655.417	9280.2
655.61	9210.57
655.802	9269.96
655.994	9116.36
656.186	9222.86
656.379	8938.19
656.571	8815.31
656.763	8864.46
656.955	8866.51
657.148	8911.57
657.34	8717.01
657.532	8633.04
657.724	8569.55
657.916	8651.47
658.108	8434.39
658.3	8717.01
658.492	8499.92
658.684	8381.14
658.876	8446.68
659.068	8501.97
659.26	8262.36
659.452	8397.53
659.644	8094.43
659.836	8190.68
660.028	8182.49
660.22	8028.89
660.412	7942.88
660.604	8098.52
660.796	8080.09
660.988	7762.65
661.18	7961.31
661.372	7729.89
661.563	7883.49
661.755	7807.71
661.947	7789.28
662.139	7738.08
662.331	7592.67
662.522	7779.04
662.714	7545.57
662.906	7467.75
663.097	7428.84
663.289	7412.45
663.481	7326.44
663.673	7512.8
663.864	7244.52
664.056	7162.6
664.247	7267.05
664.439	7142.12
664.631	7254.76
664.822	7271.14
665.014	7189.22
665.205	7121.64
665.397	6992.62
665.588	7043.82
665.78	6896.36
665.971	6906.6
666.163	6894.32
666.354	6992.62
666.546	6904.56
666.737	6648.56
666.929	6750.96
667.12	6755.05
667.311	6888.17
667.503	6671.09
667.694	6818.54
667.885	6574.83
668.077	6521.59
668.268	6460.15
668.459	6572.79
668.651	6386.42
668.842	6562.55
669.033	6404.85
669.224	6490.87
669.416	6509.3
669.607	6292.21
669.798	6318.84
669.989	6443.76
670.18	6255.35
670.371	6322.93
670.563	6212.34
670.754	6042.36
670.945	6230.77
671.136	6142.71
671.327	6021.88
671.518	6079.22
671.709	6148.86
671.9	6050.55
672.091	6036.22
672.282	6038.27
672.473	5821.18
672.664	5931.77
672.855	5817.08
673.046	5929.72
673.237	5894.91
673.428	5968.63
673.619	5995.26
673.809	5718.78
674	5720.83
674.191	5812.99
674.382	5632.77
674.573	5686.01
674.764	5845.76
674.954	5747.45
675.145	5487.36
675.336	5710.59
675.527	5518.08
675.717	5536.51
675.908	5571.33
676.099	5507.84
676.289	5536.51
676.48	5534.46
676.671	5518.08
676.861	5640.96
677.052	5632.77
677.243	5546.75
677.433	5296.9
677.624	5495.55
677.814	5374.72
678.005	5425.92
678.195	5260.04
678.386	5561.09
678.576	5227.27
678.767	5325.57
678.957	5315.33
679.148	5370.63
679.338	5374.72
679.529	5427.97
679.719	5288.71
679.909	5440.26
680.1	5198.6
680.29	5038.86
680.481	5210.89
680.671	5262.09
680.861	5137.16
681.052	5194.5
681.242	5124.87
681.432	5251.85
681.622	5008.14
681.813	4905.74
682.003	5106.44
682.193	5102.34
682.383	5083.91
682.573	4989.71
682.764	4983.56
682.954	4825.87
683.144	5018.38
683.334	4913.93
683.524	5018.38
683.714	4940.55
683.904	4967.18
684.094	4848.4
684.284	4952.84
684.474	5051.14
684.664	4866.83
684.854	4805.39
685.044	4844.3
685.234	4817.68
685.424	4991.75
685.614	4631.31
685.804	4827.92
685.994	4746
686.184	4805.39
686.374	4768.52
686.564	4850.44
686.753	4635.41
686.943	4582.16
687.133	4604.69
687.323	4711.18
687.513	4606.74
687.702	4625.17
687.892	4494.1
688.082	4453.14
688.272	4496.14
688.461	4614.93
688.651	4446.99
688.841	4453.14
689.03	4395.79
689.22	4453.14
689.41	4438.8
689.599	4440.85
689.789	4387.6
689.979	4461.33
690.168	4340.5
690.358	4373.27
690.547	4119.32
690.737	4248.34
690.926	4270.87
691.116	4123.41
691.305	4219.67
691.495	4131.61
691.684	4131.61
691.874	4164.37
692.063	4006.68
692.252	4061.98
692.442	4180.76
692.631	3982.1
692.82	3984.15
693.01	3982.1
693.199	3961.62
693.388	3910.43
693.578	4031.26
693.767	3953.43
693.956	3889.95
694.146	3924.76
694.335	3818.27
694.524	3783.45
694.713	4041.5
694.902	3928.86
695.092	3967.77
695.281	3842.84
695.47	3818.27
695.659	3783.45
695.848	3734.3
696.037	3875.61
696.226	3648.29
696.415	3668.77
696.604	3670.81
696.793	3756.83
696.982	3758.88
697.171	3748.64
697.36	3789.6
697.549	3654.43
697.738	3679.01
697.927	3650.33
698.116	3793.69
698.305	3568.41
698.494	3603.23
698.683	3617.57
698.872	3613.47
699.061	3580.7
699.25	3568.41
699.438	3476.26
699.627	3472.16
699.816	3640.09
700.005	3556.13
700.193	3537.7
700.382	3423.01
700.571	3496.74
700.76	3547.94
700.948	3531.55
701.137	3527.46
701.326	3592.99
701.514	3351.33
701.703	3476.26
701.892	3390.24
702.08	3523.36
702.269	3472.16
702.457	3396.39
702.646	3523.36
702.834	3353.38
703.023	3199.78
703.212	3425.06
703.4	3302.18
703.589	3293.99
703.777	3343.14
703.965	3412.77
704.154	3261.22
704.342	3404.58
704.531	3339.04
704.719	3316.51
704.907	3373.86
705.096	3283.75
705.284	3269.41
705.472	3343.14
705.661	3373.86
705.849	3296.04
706.037	3289.89
706.226	3236.64
706.414	3203.88
706.602	3398.43
706.79	3199.78
706.979	3203.88
707.167	3244.84
707.355	3271.46
707.543	3257.12
707.731	3289.89
707.919	3226.4
708.107	3242.79
708.296	3246.88
708.484	3238.69
708.672	3244.84
708.86	3210.02
709.048	3283.75
709.236	3181.35
709.424	3220.26
709.612	3148.58
709.8	3187.49
709.988	3058.47
710.176	3246.88
710.364	3277.6
710.551	3085.09
710.739	3156.77
710.927	2994.98
711.115	3134.25
711.303	3195.68
711.491	3220.26
711.679	3201.83
711.866	3226.4
712.054	3099.43
712.242	3101.48
712.43	3081
712.617	3056.42
712.805	2988.84
712.993	3271.46
713.181	3048.23
713.368	3107.62
713.556	3185.44
713.744	2986.79
713.931	2984.74
714.119	3144.49
714.306	3091.24
714.494	3107.62
714.682	3074.85
714.869	2951.98
715.057	3089.19
715.244	3027.75
715.432	3046.18
715.619	3066.66
715.807	3103.53
715.994	3093.29
716.182	3078.95
716.369	3060.52
716.556	3097.38
716.744	2968.36
716.931	3027.75
717.119	3109.67
717.306	3142.44
717.493	2958.12
717.681	3134.25
717.868	3048.23
718.055	3019.56
718.242	3046.18
718.43	3173.16
718.617	2999.08
718.804	2947.88
718.991	3009.32
719.179	3046.18
719.366	2970.41
719.553	2894.63
719.74	3001.13
719.927	2992.94
720.114	2714.41
720.301	2988.84
720.488	2939.69
720.676	3019.56
720.863	3001.13
721.05	2988.84
721.237	2970.41
721.424	2855.72
721.611	2990.89
721.798	2994.98
721.985	2984.74
722.172	2851.63
722.358	2962.22
722.545	2818.86
722.732	2804.52
722.919	2931.5
723.106	2900.78
723.293	2890.54
723.48	2986.79
723.667	2931.5
723.853	2880.3
724.04	2921.26
724.227	2911.02
724.414	2956.07
724.6	2814.76
724.787	2884.39
724.974	2976.55
725.161	2884.39
725.347	2827.05
725.534	2833.19
725.72	2915.11
725.907	2868.01
726.094	2900.78
726.28	2769.71
726.467	2906.92
726.653	2732.84
726.84	2982.7
727.027	3046.18
727.213	2810.67
727.4	2997.03
727.586	2884.39
727.773	2835.24
727.959	2929.45
728.145	2865.96
728.332	2841.39
728.518	2902.83
728.705	2839.34
728.891	2761.52
729.077	2818.86
729.264	2716.46
729.45	2757.42
729.636	2837.29
729.823	2945.83
730.009	2757.42
730.195	2798.38
730.382	2765.61
730.568	2859.82
730.754	2863.91
730.94	2618.16
731.126	2876.2
731.313	2685.74
731.499	2698.03
731.685	2718.51
731.871	2712.36
732.057	2714.41
732.243	2702.12
732.429	2734.89
732.615	2648.88
732.801	2659.12
732.987	2648.88
733.173	2683.69
733.359	2638.64
733.545	2648.88
733.731	2689.84
733.917	2714.41
734.103	2724.65
734.289	2775.85
734.475	2663.21
734.661	2708.27
734.847	2646.83
735.033	2630.45
735.219	2612.01
735.404	2609.97
735.59	2630.45
735.776	2554.67
735.962	2695.98
736.148	2513.71
736.333	2540.33
736.519	2638.64
736.705	2636.59
736.89	2593.58
737.076	2546.48
737.262	2544.43
737.447	2528.05
737.633	2558.77
737.819	2583.34
738.004	2448.18
738.19	2489.14
738.375	2534.19
738.561	2546.48
738.747	2558.77
738.932	2442.03
739.118	2493.23
739.303	2581.29
739.489	2528.05
739.674	2474.8
739.859	2587.44
740.045	2442.03
740.23	2458.42
740.416	2417.46
740.601	2415.41
740.786	2364.21
740.972	2384.69
741.157	2282.29
741.342	2433.84
741.528	2444.08
741.713	2458.42
741.898	2300.72
742.084	2435.89
742.269	2325.3
742.454	2368.31
742.639	2394.93
742.824	2368.31
743.01	2347.83
743.195	2335.54
743.38	2253.62
743.565	2272.05
743.75	2374.45
743.935	2325.3
744.12	2224.95
744.305	2212.66
744.49	2210.61
744.675	2104.12
744.86	2145.08
745.045	2167.6
745.23	2286.39
745.415	2179.89
745.6	2071.35
745.785	2065.21
745.97	2198.32
746.155	2091.83
746.34	2220.85
746.525	2106.17
746.71	2151.22
746.895	2073.4
747.079	1956.66
747.264	2083.64
747.449	2020.15
747.634	2054.97
747.819	2114.36
748.003	2038.58
748.188	2016.05
748.373	2007.86
748.557	1952.57
748.742	1856.31
748.927	2030.39
749.111	1909.56
749.296	1884.98
749.481	1835.83
749.665	1952.57
749.85	1911.61
750.034	1876.79
750.219	1907.51
750.404	1698.62
750.588	1801.02
750.773	1788.73
750.957	1891.13
751.141	1854.27
751.326	1729.34
751.51	1743.67
751.695	1702.72
751.879	1745.72
752.064	1801.02
752.248	1690.43
752.432	1745.72
752.617	1657.66
752.801	1669.95
752.985	1692.48
753.17	1657.66
753.354	1475.39
753.538	1659.71
753.722	1571.65
753.907	1661.76
754.091	1495.87
754.275	1581.89
754.459	1516.35
754.643	1618.75
754.828	1520.45
755.012	1528.64
755.196	1555.26
755.38	1479.49
755.564	1444.67
755.748	1577.79
755.932	1504.06
756.116	1520.45
756.3	1520.45
756.484	1375.04
756.668	1411.9
756.852	1491.77
757.036	1389.38
757.22	1377.09
757.404	1325.89
757.588	1436.48
757.772	1299.27
757.956	1416
758.14	1516.35
758.323	1358.66
758.507	1368.9
758.691	1446.72
758.875	1346.37
759.059	1260.35
759.242	1264.45
759.426	1381.18
759.61	1221.44
759.794	1289.03
759.977	1358.66
760.161	1317.7
760.345	1231.68
760.528	1336.13
760.712	1233.73
760.895	1217.35
761.079	1274.69
761.263	1258.31
761.446	1186.63
761.63	1137.48
761.813	1258.31
761.997	1131.33
762.18	1166.15
762.364	1235.78
762.547	1135.43
762.731	1088.32
762.914	1160
763.098	1121.09
763.281	1082.18
763.464	1127.24
763.648	1121.09
763.831	1131.33
764.015	1135.43
764.198	1135.43
764.381	1164.1
764.564	1131.33
764.748	1119.04
764.931	1082.18
765.114	1248.07
765.297	1094.47
765.481	1049.41
765.664	1174.34
765.847	1104.71
766.03	1200.96
766.213	1045.32
766.397	1063.75
766.58	1041.22
766.763	1094.47
766.946	1000.26
767.129	1076.04
767.312	1035.08
767.495	1035.08
767.678	1041.22
767.861	1041.22
768.044	979.78
768.227	887.62
768.41	936.78
768.593	1020.74
768.776	1047.37
768.959	1106.76
769.142	1045.32
769.324	1057.61
769.507	1030.98
769.69	1000.26
769.873	961.35
770.056	953.16
770.239	934.73
770.421	951.11
770.604	969.54
770.787	1022.79
770.97	1063.75
771.152	871.24
771.335	934.73
771.518	891.72
771.7	977.73
771.883	994.12
772.066	959.3
772.248	879.43
772.431	955.21
772.613	953.16
772.796	867.14
772.978	918.34
773.161	957.25
773.343	916.3
773.526	924.49
773.708	822.09
773.891	770.89
774.073	928.58
774.256	869.19
774.438	899.91
774.621	885.58
774.803	832.33
774.985	869.19
775.168	922.44
775.35	820.04
775.532	768.84
775.715	846.66
775.897	834.38
776.079	774.99
776.261	787.27
776.444	703.31
776.626	854.86
776.808	779.08
776.99	758.6
777.173	701.26
777.355	797.51
777.537	766.79
777.719	758.6
777.901	815.94
778.083	813.9
778.265	639.82
778.447	791.37
778.629	717.64
778.811	699.21
778.993	740.17
779.175	688.97
779.357	633.68
779.539	670.54
779.721	717.64
779.903	648.01
780.085	666.44
780.267	654.16
780.449	680.78
780.631	627.53
780.812	664.4
780.994	625.48
781.176	498.51
781.358	695.11
781.54	602.96
781.721	588.62
781.903	645.96
782.085	637.77
782.267	727.88
782.448	514.89
782.63	533.33
782.812	596.81
782.993	633.68
783.175	586.57
783.357	582.48
783.538	613.2
783.72	580.43
783.901	574.28
784.083	516.94
784.264	492.37
784.446	490.32
784.627	592.72
784.809	584.52
784.99	441.17
785.172	506.7
785.353	555.85
785.535	475.98
785.716	514.89
785.897	537.42
786.079	539.47
786.26	447.31
786.441	547.66
786.623	498.51
786.804	432.97
786.985	494.41
787.167	504.65
787.348	387.92
787.529	475.98
787.71	510.8
787.891	410.45
788.073	418.64
788.254	449.36
788.435	467.79
788.616	406.35
788.797	394.06
788.978	480.08
789.159	459.6
789.34	506.7
789.522	383.82
789.703	457.55
789.884	492.37
790.065	463.69
790.246	494.41
790.427	437.07
790.607	441.17
790.788	445.26
790.969	455.5
791.15	443.21
791.331	373.58
791.512	383.82
791.693	351.06
791.874	377.68
792.054	414.54
792.235	336.72
792.416	269.14
792.597	365.39
792.778	406.35
792.958	463.69
793.139	279.38
793.32	340.82
793.5	349.01
793.681	361.3
793.862	389.97
794.042	375.63
794.223	336.72
794.404	312.14
794.584	375.63
794.765	322.38
794.945	361.3
795.126	375.63
795.306	406.35
795.487	289.62
795.667	351.06
795.848	312.14
796.028	328.53
796.209	287.57
796.389	396.11
796.57	310.1
796.75	291.66
796.93	275.28
797.111	293.71
797.291	295.76
797.471	240.47
797.652	326.48
797.832	338.77
798.012	295.76
798.192	283.47
798.373	303.95
798.553	209.75
798.733	312.14
798.913	226.13
799.093	291.66
799.274	330.58
799.454	375.63
799.634	246.61
799.814	336.72
799.994	226.13
800.174	262.99
800.354	238.42
800.534	246.61
800.714	320.34
800.894	306
801.074	222.03
801.254	291.66
801.434	299.86
801.614	189.27
801.794	217.94
801.974	734.03
802.154	219.99
802.334	273.23
802.514	287.57
802.693	258.9
802.873	238.42
803.053	238.42
803.233	170.83
803.413	295.76
803.592	205.65
803.772	260.95
803.952	265.04
804.131	379.73
804.311	252.75
804.491	230.23
804.67	230.23
804.85	256.85
805.03	222.03
805.209	250.71
805.389	277.33
805.568	209.75
805.748	258.9
805.928	201.55
806.107	107.35
806.287	189.27
806.466	164.69
806.646	242.51
806.825	303.95
807.004	211.79
807.184	269.14
807.363	240.47
807.543	162.64
807.722	174.93
807.901	215.89
808.081	232.27
808.26	82.77
808.439	174.93
808.619	254.8
808.798	236.37
808.977	269.14
809.156	265.04
809.336	203.6
809.515	267.09
809.694	119.64
809.873	193.36
810.052	232.27
810.231	228.18
810.411	234.32
810.59	279.38
810.769	219.99
810.948	201.55
811.127	144.21
811.306	219.99
811.485	140.12
811.664	215.89
811.843	195.41
812.022	127.83
812.201	185.17
812.38	199.51
812.559	115.54
812.737	226.13
812.916	215.89
813.095	115.54
813.274	172.88
813.453	140.12
813.632	160.59
813.811	183.12
813.989	80.72
814.168	138.07
814.347	62.29
814.526	162.64
814.704	201.55
814.883	201.55
815.062	111.44
815.24	95.06
815.419	156.5
815.598	136.02
815.776	107.35
815.955	113.49
816.133	119.64
816.312	131.92
816.49	80.72
816.669	187.22
816.847	115.54
817.026	219.99
817.204	111.44
817.383	113.49
817.561	107.35
817.74	144.21
817.918	213.84
818.097	138.07
818.275	205.65
818.453	189.27
818.632	201.55
818.81	148.31
818.988	152.4
819.167	203.6
819.345	125.78
819.523	84.82
819.701	168.79
819.879	170.83
820.058	131.92
820.236	191.31
820.414	117.59
820.592	133.97
820.77	205.65
820.948	111.44
821.127	111.44
821.305	131.92
821.483	95.06
821.661	123.73
821.839	123.73
822.017	127.83
822.195	172.88
822.373	203.6
822.551	127.83
822.729	93.01
822.907	70.48
823.085	176.98
823.262	66.39
823.44	68.44
823.618	99.16
823.796	127.83
823.974	172.88
824.152	103.25
824.329	109.4
824.507	82.77
824.685	95.06
824.863	170.83
825.04	107.35
825.218	103.25
825.396	109.4
825.574	156.5
825.751	41.81
825.929	86.87
826.107	123.73
826.284	162.64
826.462	103.25
826.639	47.96
826.817	93.01
826.994	99.16
827.172	33.62
827.349	152.4
827.527	140.12
827.704	103.25
827.882	156.5
828.059	80.72
828.237	80.72
828.414	84.82
828.591	66.39
828.769	133.97
828.946	84.82
829.124	123.73
829.301	103.25
829.478	107.35
829.655	66.39
829.833	119.64
830.01	74.58
830.187	84.82
830.364	133.97
830.542	148.31
830.719	125.78
830.896	80.72
831.073	121.68
831.25	150.36
831.427	181.07
831.604	174.93
831.782	72.53
831.959	144.21
832.136	88.92
832.313	80.72
832.49	17.24
832.667	123.73
832.844	74.58
833.021	84.82
833.198	68.44
833.374	33.62
833.551	113.49
833.728	58.2
833.905	136.02
834.082	17.24
834.259	66.39
834.436	123.73
834.612	95.06
834.789	78.68
834.966	70.48
835.143	158.55
835.319	66.39
835.496	111.44
835.673	0.85
835.85	95.06
836.026	39.76
836.203	80.72
836.38	86.87
836.556	97.11
836.733	17.24
836.909	121.68
837.086	66.39
837.262	11.09
837.439	56.15
837.616	33.62
837.792	97.11
837.968	138.07
838.145	-19.63
838.321	2.9
838.498	9.05
838.674	33.62
838.851	62.29
839.027	72.53
839.203	45.91
839.38	25.43
839.556	70.48
839.732	47.96
839.909	111.44
840.085	74.58
840.261	29.52
840.437	76.63
840.614	131.92
840.79	129.88
840.966	60.24
841.142	133.97
841.318	60.24
841.494	109.4
841.671	95.06
841.847	54.1
842.023	41.81
842.199	54.1
842.375	64.34
842.551	99.16
842.727	66.39
842.903	74.58
843.079	43.86
843.255	115.54
843.431	-1.19
843.607	64.34
843.783	9.05
843.959	101.2
844.134	107.35
844.31	90.96
844.486	39.76
844.662	64.34
844.838	41.81
845.013	90.96
845.189	93.01
845.365	72.53
845.541	39.76
845.716	21.33
845.892	95.06
846.068	125.78
846.244	54.1
846.419	72.53
846.595	-33.96
846.77	27.48
846.946	4.95
847.122	39.76
847.297	43.86
847.473	58.2
847.648	84.82
847.824	70.48
847.999	17.24
848.175	76.63
848.35	39.76
848.526	111.44
848.701	25.43
848.876	82.77
849.052	43.86
849.227	25.43
849.403	84.82
849.578	76.63
849.753	56.15
849.929	74.58
850.104	50
850.279	52.05
850.454	54.1
850.63	60.24
850.805	47.96
850.98	88.92
851.155	50
851.33	43.86
851.505	23.38
851.681	103.25
851.856	58.2
852.031	103.25
852.206	13.14
852.381	-3.24
852.556	70.48
852.731	70.48
852.906	45.91
853.081	88.92
853.256	23.38
853.431	82.77
853.606	35.67
853.781	15.19
853.956	9.05
854.131	93.01
854.305	105.3
854.48	2.9
854.655	7
854.83	56.15
855.005	47.96
855.18	93.01
855.354	-23.72
855.529	19.29
855.704	50
855.879	86.87
856.053	-15.53
856.228	47.96
856.403	-23.72
856.577	-13.48
856.752	56.15
856.926	45.91
857.101	19.29
857.276	41.81
857.45	29.52
857.625	-1.19
857.799	33.62
857.974	15.19
858.148	88.92
858.323	4.95
858.497	15.19
858.672	45.91
858.846	-1.19
859.02	41.81
859.195	-25.77
859.369	97.11
859.543	13.14
859.718	90.96
859.892	45.91
860.066	33.62
860.241	-19.63
860.415	58.2
860.589	4.95
860.763	103.25
860.938	33.62
861.112	99.16
861.286	-33.96
861.46	99.16
861.634	15.19
861.808	-9.39
861.982	25.43
862.157	17.24
862.331	15.19
862.505	50
862.679	39.76
862.853	0.85
863.027	13.14
863.201	45.91
863.375	-23.72
863.549	66.39
863.722	74.58
863.896	101.2
864.07	0.85
864.244	-11.43
864.418	9.05
864.592	-5.29
864.766	-9.39
864.939	66.39
865.113	47.96
865.287	76.63
865.461	-15.53
865.634	99.16
865.808	-23.72
865.982	13.14
866.156	39.76
866.329	-44.2
866.503	111.44
866.676	107.35
866.85	58.2
867.024	29.52
867.197	-15.53
867.371	19.29
867.544	84.82
867.718	-7.34
867.891	56.15
868.065	37.72
868.238	13.14
868.412	-19.63
868.585	68.44
868.759	-11.43
868.932	64.34
869.105	-1.19
869.279	-31.91
869.452	-25.77
869.625	52.05
869.799	15.19
869.972	0.85
870.145	37.72
870.319	4.95
870.492	19.29
870.665	-1.19
870.838	-40.11
871.011	17.24
871.185	64.34
871.358	60.24
871.531	25.43
871.704	-27.82
871.877	35.67
872.05	45.91
872.223	-7.34
872.396	-23.72
872.569	74.58
872.742	-15.53
872.915	136.02
873.088	-36.01
873.261	-25.77
873.434	-7.34
873.607	-27.82
873.78	-11.43
873.953	0.85
874.126	0.85
874.299	37.72
874.471	-44.2
874.644	2.9
874.817	-19.63
874.99	82.77
875.163	-40.11
875.335	11.09
875.508	60.24
875.681	41.81
875.853	11.09
876.026	15.19
876.199	29.52
876.371	0.85
876.544	-74.92
876.717	0.85
876.889	-33.96
877.062	13.14
877.234	56.15
877.407	-62.63
877.579	-56.49
877.752	19.29
877.924	52.05
878.097	-9.39
878.269	-5.29
878.442	21.33
878.614	15.19
878.786	86.87
878.959	21.33
879.131	-11.43
879.303	9.05
879.476	-38.06
879.648	31.57
879.82	31.57
879.993	29.52
880.165	7
880.337	54.1
880.509	7
880.681	-17.58
880.854	-56.49
881.026	47.96
881.198	54.1
881.37	7
881.542	4.95
881.714	50
881.886	-9.39
882.058	7
882.23	90.96
882.402	-48.3
882.574	0.85
882.746	54.1
882.918	33.62
883.09	-7.34
883.262	-48.3
883.434	-52.39
883.606	-21.67
883.778	-19.63
883.95	23.38
884.122	-5.29
884.293	11.09
884.465	-81.07
884.637	9.05
884.809	13.14
884.98	21.33
885.152	11.09
885.324	-36.01
885.496	0.85
885.667	7
885.839	-42.15
886.011	58.2
886.182	21.33
886.354	11.09
886.525	29.52
886.697	23.38
886.869	-42.15
887.04	4.95
887.212	35.67
887.383	80.72
887.555	4.95
887.726	7
887.897	54.1
888.069	-21.67
888.24	-3.24
888.412	-19.63
888.583	4.95
888.754	31.57
888.926	0.85
889.097	13.14
889.268	-46.25
889.44	-15.53
889.611	-52.39
889.782	-27.82
889.953	-5.29
890.125	43.86
890.296	35.67
890.467	11.09
890.638	-68.78
890.809	-85.16
890.98	-13.48
891.151	41.81
891.323	52.05
891.494	37.72
891.665	29.52
891.836	88.92
892.007	-21.67
892.178	2.9
892.349	35.67
892.52	-7.34
892.691	58.2
892.862	50
893.032	45.91
893.203	-23.72
893.374	33.62
893.545	-11.43
893.716	68.44
893.887	9.05
894.057	58.2
894.228	9.05
894.399	7
894.57	-11.43
894.74	47.96
894.911	27.48
895.082	-15.53
895.253	70.48
895.423	-66.73
895.594	4.95
895.764	-40.11
895.935	-7.34
896.106	4.95
896.276	29.52
896.447	-9.39
896.617	31.57
896.788	66.39
896.958	15.19
897.129	-72.87
897.299	23.38
897.47	-46.25
897.64	21.33
897.81	74.58
897.981	29.52
898.151	-36.01
898.322	25.43
898.492	-15.53
898.662	-21.67
898.832	-50.35
899.003	0.85
899.173	-25.77
899.343	-3.24
899.513	70.48
