Data from USB4F104151__137__10-25-52-102.txt Node

Date: Wed Mar 12 10:25:52 EDT 2025
User: louis
Spectrometer: USB4F10415
Trigger mode: 4
Integration Time (sec): 3.000000E-2
Scans to average: 1
Electric dark correction enabled: true
Nonlinearity correction enabled: false
Boxcar width: 0
XAxis mode: Wavelengths
Number of Pixels in Spectrum: 3648
>>>>>Begin Spectral Data<<<<<
178.204	-92.84
178.424	-92.84
178.644	-92.84
178.864	-158.38
179.084	-33.45
179.304	-0.68
179.524	13.65
179.744	34.13
179.964	19.8
180.184	-15.02
180.404	13.65
180.624	54.61
180.844	-12.97
181.064	-41.64
181.283	-21.16
181.503	-27.31
181.723	-17.07
181.943	36.18
182.163	152.91
182.383	107.86
182.602	83.28
182.822	19.8
183.042	62.8
183.262	-27.31
183.482	-17.07
183.701	46.42
183.921	17.75
184.141	-27.31
184.361	-2.73
184.58	66.9
184.8	-29.35
185.02	-35.5
185.239	58.71
185.459	60.76
185.679	66.9
185.898	97.62
186.118	73.04
186.338	7.51
186.557	66.9
186.777	13.65
186.997	71
187.216	71
187.436	118.1
187.655	40.28
187.875	103.76
188.095	-0.68
188.314	46.42
188.534	46.42
188.753	85.33
188.973	85.33
189.192	66.9
189.412	34.13
189.631	79.19
189.851	75.09
190.07	154.96
190.29	11.61
190.509	15.7
190.729	62.8
190.948	19.8
191.168	120.15
191.387	114
191.607	3.41
191.826	-27.31
192.045	7.51
192.265	-2.73
192.484	27.99
192.704	-64.17
192.923	-12.97
193.142	101.72
193.362	46.42
193.581	75.09
193.8	-15.02
194.02	60.76
194.239	21.84
194.458	-17.07
194.678	68.95
194.897	1.37
195.116	77.14
195.335	17.75
195.555	101.72
195.774	3.41
195.993	103.76
196.212	5.46
196.432	62.8
196.651	81.24
196.87	36.18
197.089	103.76
197.308	25.94
197.528	66.9
197.747	-21.16
197.966	-19.11
198.185	58.71
198.404	34.13
198.623	54.61
198.842	81.24
199.062	75.09
199.281	91.48
199.5	7.51
199.719	-19.11
199.938	30.04
200.157	77.14
200.376	83.28
200.595	46.42
200.814	34.13
201.033	27.99
201.252	56.66
201.471	68.95
201.69	68.95
201.909	19.8
202.128	25.94
202.347	-29.35
202.566	54.61
202.785	77.14
203.004	9.56
203.223	50.52
203.442	34.13
203.661	30.04
203.879	11.61
204.098	27.99
204.317	52.56
204.536	34.13
204.755	13.65
204.974	32.08
205.193	60.76
205.411	138.58
205.63	64.85
205.849	21.84
206.068	54.61
206.287	58.71
206.505	114
206.724	71
206.943	34.13
207.162	58.71
207.381	64.85
207.599	58.71
207.818	17.75
208.037	9.56
208.255	38.23
208.474	30.04
208.693	85.33
208.911	13.65
209.13	91.48
209.349	89.43
209.567	66.9
209.786	5.46
210.005	124.24
210.223	64.85
210.442	-21.16
210.661	-19.11
210.879	21.84
211.098	-2.73
211.316	32.08
211.535	11.61
211.753	17.75
211.972	79.19
212.191	19.8
212.409	36.18
212.628	60.76
212.846	-21.16
213.065	5.46
213.283	46.42
213.502	95.57
213.72	83.28
213.938	62.8
214.157	23.89
214.375	34.13
214.594	83.28
214.812	48.47
215.031	73.04
215.249	103.76
215.467	62.8
215.686	64.85
215.904	13.65
216.122	54.61
216.341	62.8
216.559	-6.83
216.778	27.99
216.996	40.28
217.214	91.48
217.432	5.46
217.651	9.56
217.869	5.46
218.087	58.71
218.306	5.46
218.524	-15.02
218.742	52.56
218.96	73.04
219.179	25.94
219.397	-35.5
219.615	79.19
219.833	25.94
220.051	1.37
220.27	54.61
220.488	97.62
220.706	21.84
220.924	17.75
221.142	-15.02
221.36	111.96
221.578	54.61
221.796	30.04
222.015	101.72
222.233	-23.21
222.451	87.38
222.669	5.46
222.887	30.04
223.105	-15.02
223.323	-0.68
223.541	-31.4
223.759	58.71
223.977	-12.97
224.195	73.04
224.413	25.94
224.631	66.9
224.849	25.94
225.067	101.72
225.285	1.37
225.503	58.71
225.721	30.04
225.939	42.32
226.157	42.32
226.375	99.67
226.592	11.61
226.81	17.75
227.028	87.38
227.246	56.66
227.464	-55.98
227.682	79.19
227.9	-37.55
228.117	62.8
228.335	25.94
228.553	13.65
228.771	-31.4
228.989	56.66
229.206	23.89
229.424	42.32
229.642	46.42
229.86	34.13
230.077	11.61
230.295	34.13
230.513	-53.93
230.731	13.65
230.948	173.39
231.166	66.9
231.384	3.41
231.601	-8.87
231.819	111.96
232.037	34.13
232.254	-19.11
232.472	30.04
232.689	66.9
232.907	40.28
233.125	42.32
233.342	99.67
233.56	38.23
233.777	-12.97
233.995	58.71
234.213	34.13
234.43	60.76
234.648	66.9
234.865	42.32
235.083	62.8
235.3	79.19
235.518	46.42
235.735	75.09
235.953	77.14
236.17	19.8
236.388	25.94
236.605	30.04
236.822	40.28
237.04	50.52
237.257	50.52
237.475	-29.35
237.692	21.84
237.909	25.94
238.127	99.67
238.344	-4.78
238.562	91.48
238.779	95.57
238.996	-8.87
239.214	93.52
239.431	21.84
239.648	62.8
239.865	7.51
240.083	83.28
240.3	34.13
240.517	87.38
240.735	54.61
240.952	103.76
241.169	54.61
241.386	54.61
241.603	58.71
241.821	83.28
242.038	83.28
242.255	83.28
242.472	87.38
242.689	81.24
242.907	81.24
243.124	9.56
243.341	46.42
243.558	38.23
243.775	95.57
243.992	52.56
244.209	30.04
244.426	101.72
244.643	52.56
244.86	60.76
245.078	38.23
245.295	83.28
245.512	15.7
245.729	23.89
245.946	116.05
246.163	7.51
246.38	32.08
246.597	-23.21
246.814	60.76
247.031	38.23
247.248	15.7
247.464	91.48
247.681	71
247.898	91.48
248.115	32.08
248.332	46.42
248.549	-29.35
248.766	5.46
248.983	34.13
249.2	64.85
249.417	83.28
249.633	116.05
249.85	60.76
250.067	77.14
250.284	15.7
250.501	46.42
250.717	13.65
250.934	25.94
251.151	-21.16
251.368	42.32
251.585	15.7
251.801	36.18
252.018	56.66
252.235	34.13
252.451	34.13
252.668	56.66
252.885	34.13
253.102	30.04
253.318	-98.99
253.535	40.28
253.752	30.04
253.968	-35.5
254.185	-12.97
254.401	-43.69
254.618	66.9
254.835	73.04
255.051	130.39
255.268	46.42
255.484	50.52
255.701	75.09
255.917	7.51
256.134	11.61
256.351	44.37
256.567	-2.73
256.784	56.66
257	36.18
257.217	89.43
257.433	77.14
257.65	30.04
257.866	60.76
258.082	-15.02
258.299	46.42
258.515	64.85
258.732	50.52
258.948	97.62
259.165	79.19
259.381	7.51
259.597	-27.31
259.814	66.9
260.03	21.84
260.246	77.14
260.463	134.48
260.679	62.8
260.895	-60.07
261.112	44.37
261.328	1.37
261.544	-2.73
261.761	79.19
261.977	-19.11
262.193	23.89
262.409	50.52
262.626	46.42
262.842	5.46
263.058	-23.21
263.274	148.82
263.49	42.32
263.707	46.42
263.923	50.52
264.139	36.18
264.355	3.41
264.571	87.38
264.787	52.56
265.004	19.8
265.22	58.71
265.436	19.8
265.652	-31.4
265.868	54.61
266.084	13.65
266.3	46.42
266.516	27.99
266.732	42.32
266.948	83.28
267.164	42.32
267.38	40.28
267.596	-23.21
267.812	62.8
268.028	79.19
268.244	-43.69
268.46	60.76
268.676	-53.93
268.892	75.09
269.108	-10.92
269.324	1.37
269.54	50.52
269.756	62.8
269.972	9.56
270.188	62.8
270.403	1.37
270.619	54.61
270.835	30.04
271.051	75.09
271.267	-35.5
271.483	40.28
271.698	5.46
271.914	75.09
272.13	13.65
272.346	48.47
272.562	42.32
272.777	89.43
272.993	54.61
273.209	71
273.425	36.18
273.64	25.94
273.856	23.89
274.072	42.32
274.287	44.37
274.503	79.19
274.719	103.76
274.934	81.24
275.15	38.23
275.366	-2.73
275.581	27.99
275.797	71
276.012	44.37
276.228	60.76
276.444	-23.21
276.659	81.24
276.875	66.9
277.09	-6.83
277.306	36.18
277.521	91.48
277.737	21.84
277.952	-2.73
278.168	54.61
278.383	27.99
278.599	116.05
278.814	-2.73
279.03	79.19
279.245	60.76
279.461	40.28
279.676	46.42
279.892	-2.73
280.107	46.42
280.322	-45.74
280.538	32.08
280.753	46.42
280.969	46.42
281.184	91.48
281.399	73.04
281.615	62.8
281.83	21.84
282.045	-2.73
282.26	50.52
282.476	19.8
282.691	-0.68
282.906	83.28
283.122	-2.73
283.337	87.38
283.552	-17.07
283.767	54.61
283.983	21.84
284.198	-27.31
284.413	56.66
284.628	46.42
284.843	62.8
285.058	62.8
285.274	44.37
285.489	109.91
285.704	73.04
285.919	60.76
286.134	13.65
286.349	32.08
286.564	1.37
286.779	95.57
286.995	-0.68
287.21	46.42
287.425	54.61
287.64	36.18
287.855	34.13
288.07	38.23
288.285	48.47
288.5	44.37
288.715	81.24
288.93	9.56
289.145	15.7
289.36	134.48
289.575	40.28
289.79	68.95
290.004	-27.31
290.219	19.8
290.434	83.28
290.649	-8.87
290.864	93.52
291.079	46.42
291.294	50.52
291.509	73.04
291.724	21.84
291.938	48.47
292.153	19.8
292.368	62.8
292.583	66.9
292.798	44.37
293.012	81.24
293.227	1.37
293.442	52.56
293.657	114
293.871	93.52
294.086	46.42
294.301	77.14
294.516	124.24
294.73	30.04
294.945	-21.16
295.16	75.09
295.374	38.23
295.589	95.57
295.804	3.41
296.018	58.71
296.233	40.28
296.447	107.86
296.662	73.04
296.877	36.18
297.091	17.75
297.306	89.43
297.52	54.61
297.735	79.19
297.949	7.51
298.164	21.84
298.378	-19.11
298.593	21.84
298.807	38.23
299.022	27.99
299.236	66.9
299.451	32.08
299.665	-0.68
299.88	13.65
300.094	60.76
300.309	34.13
300.523	44.37
300.737	52.56
300.952	77.14
301.166	-2.73
301.381	5.46
301.595	50.52
301.809	-66.22
302.024	13.65
302.238	44.37
302.452	54.61
302.667	19.8
302.881	-17.07
303.095	3.41
303.309	103.76
303.524	62.8
303.738	-0.68
303.952	21.84
304.166	30.04
304.381	7.51
304.595	103.76
304.809	11.61
305.023	64.85
305.237	-19.11
305.452	42.32
305.666	109.91
305.88	5.46
306.094	38.23
306.308	30.04
306.522	30.04
306.736	85.33
306.95	15.7
307.164	30.04
307.379	-47.79
307.593	25.94
307.807	50.52
308.021	-4.78
308.235	148.82
308.449	-35.5
308.663	109.91
308.877	101.72
309.091	15.7
309.305	42.32
309.519	38.23
309.733	17.75
309.947	-6.83
310.161	83.28
310.374	44.37
310.588	93.52
310.802	52.56
311.016	44.37
311.23	81.24
311.444	40.28
311.658	23.89
311.872	58.71
312.085	25.94
312.299	60.76
312.513	-6.83
312.727	101.72
312.941	46.42
313.154	30.04
313.368	34.13
313.582	27.99
313.796	19.8
314.009	23.89
314.223	97.62
314.437	79.19
314.651	-45.74
314.864	46.42
315.078	-17.07
315.292	-37.55
315.505	38.23
315.719	23.89
315.933	52.56
316.146	44.37
316.36	21.84
316.573	116.05
316.787	38.23
317.001	42.32
317.214	46.42
317.428	17.75
317.641	5.46
317.855	64.85
318.068	50.52
318.282	5.46
318.495	66.9
318.709	71
318.922	21.84
319.136	60.76
319.349	81.24
319.563	21.84
319.776	87.38
319.99	52.56
320.203	93.52
320.417	52.56
320.63	32.08
320.843	-17.07
321.057	79.19
321.27	64.85
321.483	19.8
321.697	19.8
321.91	66.9
322.124	50.52
322.337	-10.92
322.55	17.75
322.763	-27.31
322.977	38.23
323.19	87.38
323.403	42.32
323.617	93.52
323.83	60.76
324.043	-29.35
324.256	56.66
324.469	60.76
324.683	-8.87
324.896	36.18
325.109	42.32
325.322	11.61
325.535	50.52
325.748	30.04
325.962	95.57
326.175	-6.83
326.388	87.38
326.601	109.91
326.814	15.7
327.027	1.37
327.24	40.28
327.453	17.75
327.666	99.67
327.879	5.46
328.092	62.8
328.305	21.84
328.518	38.23
328.731	38.23
328.944	54.61
329.157	5.46
329.37	3.41
329.583	97.62
329.796	23.89
330.009	30.04
330.222	124.24
330.435	46.42
330.648	122.2
330.861	44.37
331.073	38.23
331.286	60.76
331.499	30.04
331.712	32.08
331.925	38.23
332.138	-12.97
332.35	32.08
332.563	97.62
332.776	3.41
332.989	54.61
333.202	23.89
333.414	66.9
333.627	11.61
333.84	56.66
334.053	27.99
334.265	62.8
334.478	19.8
334.691	1.37
334.903	9.56
335.116	60.76
335.329	1.37
335.541	50.52
335.754	40.28
335.966	15.7
336.179	34.13
336.392	13.65
336.604	38.23
336.817	81.24
337.029	9.56
337.242	-4.78
337.454	83.28
337.667	50.52
337.88	91.48
338.092	19.8
338.305	40.28
338.517	79.19
338.729	-8.87
338.942	134.48
339.154	85.33
339.367	17.75
339.579	71
339.792	77.14
340.004	71
340.217	68.95
340.429	54.61
340.641	23.89
340.854	75.09
341.066	38.23
341.278	60.76
341.491	13.65
341.703	97.62
341.915	38.23
342.128	71
342.34	-25.26
342.552	89.43
342.764	-53.93
342.977	48.47
343.189	130.39
343.401	40.28
343.613	-17.07
343.826	93.52
344.038	-19.11
344.25	77.14
344.462	3.41
344.674	13.65
344.886	-6.83
345.099	-2.73
345.311	91.48
345.523	73.04
345.735	-8.87
345.947	17.75
346.159	27.99
346.371	-8.87
346.583	77.14
346.795	163.15
347.007	46.42
347.219	-12.97
347.431	87.38
347.643	116.05
347.855	79.19
348.067	38.23
348.279	19.8
348.491	48.47
348.703	50.52
348.915	34.13
349.127	30.04
349.339	21.84
349.551	60.76
349.763	107.86
349.975	91.48
350.187	120.15
350.399	17.75
350.61	66.9
350.822	103.76
351.034	-15.02
351.246	54.61
351.458	42.32
351.669	54.61
351.881	64.85
352.093	99.67
352.305	85.33
352.517	58.71
352.728	124.24
352.94	1.37
353.152	19.8
353.363	-4.78
353.575	124.24
353.787	54.61
353.999	48.47
354.21	99.67
354.422	3.41
354.633	105.81
354.845	75.09
355.057	-27.31
355.268	77.14
355.48	-27.31
355.692	21.84
355.903	97.62
356.115	122.2
356.326	-39.59
356.538	79.19
356.749	60.76
356.961	-12.97
357.172	75.09
357.384	7.51
357.595	95.57
357.807	17.75
358.018	64.85
358.23	56.66
358.441	114
358.653	34.13
358.864	75.09
359.075	48.47
359.287	-15.02
359.498	38.23
359.709	66.9
359.921	95.57
360.132	44.37
360.344	62.8
360.555	-23.21
360.766	75.09
360.977	25.94
361.189	71
361.4	30.04
361.611	101.72
361.823	-8.87
362.034	30.04
362.245	42.32
362.456	68.95
362.667	54.61
362.879	38.23
363.09	87.38
363.301	54.61
363.512	-53.93
363.723	17.75
363.935	-8.87
364.146	56.66
364.357	42.32
364.568	48.47
364.779	21.84
364.99	27.99
365.201	52.56
365.412	44.37
365.623	9.56
365.834	42.32
366.045	44.37
366.256	62.8
366.467	32.08
366.678	19.8
366.889	71
367.1	34.13
367.311	36.18
367.522	62.8
367.733	60.76
367.944	-6.83
368.155	118.1
368.366	13.65
368.577	36.18
368.788	68.95
368.999	62.8
369.209	66.9
369.42	128.34
369.631	154.96
369.842	71
370.053	73.04
370.264	62.8
370.474	27.99
370.685	23.89
370.896	62.8
371.107	103.76
371.317	40.28
371.528	7.51
371.739	11.61
371.95	17.75
372.16	-2.73
372.371	25.94
372.582	101.72
372.792	54.61
373.003	34.13
373.214	-2.73
373.424	173.39
373.635	54.61
373.846	68.95
374.056	42.32
374.267	99.67
374.477	-0.68
374.688	27.99
374.898	81.24
375.109	62.8
375.319	30.04
375.53	50.52
375.74	81.24
375.951	17.75
376.161	111.96
376.372	58.71
376.582	19.8
376.793	-4.78
377.003	7.51
377.214	54.61
377.424	138.58
377.635	-37.55
377.845	71
378.055	140.63
378.266	54.61
378.476	21.84
378.686	50.52
378.897	64.85
379.107	66.9
379.317	73.04
379.528	58.71
379.738	77.14
379.948	27.99
380.158	62.8
380.369	68.95
380.579	54.61
380.789	25.94
380.999	68.95
381.21	34.13
381.42	56.66
381.63	87.38
381.84	87.38
382.05	73.04
382.261	95.57
382.471	83.28
382.681	81.24
382.891	116.05
383.101	7.51
383.311	58.71
383.521	-8.87
383.731	36.18
383.941	56.66
384.151	9.56
384.361	62.8
384.571	64.85
384.781	130.39
384.991	89.43
385.201	134.48
385.411	71
385.621	93.52
385.831	109.91
386.041	66.9
386.251	21.84
386.461	77.14
386.671	19.8
386.881	116.05
387.091	46.42
387.301	71
387.511	46.42
387.72	111.96
387.93	25.94
388.14	3.41
388.35	93.52
388.56	40.28
388.769	91.48
388.979	71
389.189	44.37
389.399	107.86
389.609	60.76
389.818	120.15
390.028	34.13
390.238	54.61
390.447	-4.78
390.657	173.39
390.867	58.71
391.076	13.65
391.286	71
391.496	34.13
391.705	40.28
391.915	52.56
392.125	111.96
392.334	54.61
392.544	150.87
392.753	95.57
392.963	71
393.172	42.32
393.382	15.7
393.591	116.05
393.801	58.71
394.01	157.01
394.22	83.28
394.429	75.09
394.639	103.76
394.848	77.14
395.058	185.68
395.267	109.91
395.477	52.56
395.686	52.56
395.895	165.2
396.105	54.61
396.314	71
396.524	111.96
396.733	126.29
396.942	152.91
397.152	83.28
397.361	56.66
397.57	79.19
397.78	7.51
397.989	99.67
398.198	169.3
398.407	79.19
398.617	87.38
398.826	46.42
399.035	111.96
399.244	95.57
399.453	111.96
399.663	134.48
399.872	71
400.081	99.67
400.29	118.1
400.499	-51.88
400.708	111.96
400.917	54.61
401.127	111.96
401.336	169.3
401.545	290.13
401.754	206.16
401.963	95.57
402.172	66.9
402.381	93.52
402.59	107.86
402.799	109.91
403.008	161.11
403.217	118.1
403.426	124.24
403.635	56.66
403.844	132.44
404.053	1.37
404.262	62.8
404.471	212.31
404.68	128.34
404.888	116.05
405.097	62.8
405.306	120.15
405.515	122.2
405.724	204.11
405.933	138.58
406.142	230.74
406.35	138.58
406.559	79.19
406.768	79.19
406.977	240.98
407.185	230.74
407.394	247.12
407.603	177.49
407.812	181.59
408.02	269.65
408.229	214.35
408.438	306.51
408.646	177.49
408.855	208.21
409.064	312.66
409.272	212.31
409.481	271.7
409.69	177.49
409.898	230.74
410.107	234.83
410.315	273.75
410.524	267.6
410.733	251.22
410.941	228.69
411.15	337.23
411.358	306.51
411.567	324.94
411.775	324.94
411.984	296.27
412.192	413.01
412.401	335.18
412.609	363.86
412.818	468.3
413.026	357.71
413.234	435.53
413.443	443.73
413.651	402.77
413.86	503.12
414.068	546.12
414.276	542.03
414.485	552.27
414.693	533.84
414.901	714.06
415.11	652.62
415.318	574.8
415.526	609.61
415.734	562.51
415.943	687.43
416.151	673.1
416.359	707.91
416.567	744.78
416.776	767.31
416.984	781.64
417.192	841.03
417.4	828.74
417.608	757.07
417.817	765.26
418.025	898.38
418.233	949.57
418.441	890.18
418.649	957.77
418.857	1027.4
419.065	1195.33
419.273	1166.66
419.481	1131.84
419.689	1164.61
419.897	1193.28
420.105	1183.04
420.313	1373.5
420.521	1363.26
420.729	1355.07
420.937	1443.14
421.145	1443.14
421.353	1436.99
421.561	1600.83
421.769	1619.26
421.977	1633.6
422.185	1672.51
422.393	1807.67
422.601	1848.63
422.809	1828.15
423.017	1879.35
423.224	1942.84
423.432	2041.14
423.64	2080.05
423.848	2137.4
424.056	2209.08
424.263	2424.11
424.471	2393.39
424.679	2362.67
424.887	2467.12
425.094	2587.95
425.302	2655.53
425.51	2710.83
425.718	2907.43
425.925	2886.95
426.133	3036.45
426.341	3007.78
426.548	3169.57
426.756	3179.81
426.964	3194.15
427.171	3468.58
427.379	3587.36
427.586	3618.08
427.794	3671.33
428.001	3935.51
428.209	4023.58
428.417	4031.77
428.624	4363.54
428.832	4312.34
429.039	4304.15
429.247	4238.61
429.454	4658.45
429.662	4916.49
429.869	4615.44
430.076	4941.07
430.284	4898.06
430.491	5045.51
430.699	5463.3
430.906	5315.84
431.114	5481.73
431.321	5481.73
431.528	5715.2
431.736	6008.06
431.943	6331.64
432.15	6192.37
432.358	6077.69
432.565	6536.43
432.772	6587.63
432.979	6900.97
433.187	6993.13
433.394	7036.14
433.601	7292.13
433.808	7486.69
434.016	7519.46
434.223	7806.17
434.43	8156.38
434.637	7961.82
434.844	8477.91
435.052	8834.25
435.259	8787.15
435.466	8815.82
435.673	8738
435.88	9331.91
436.087	9618.63
436.294	9880.77
436.501	9503.94
436.708	9776.32
436.915	9761.98
437.122	10327.22
437.329	10339.51
437.537	10808.5
437.743	10955.95
437.95	10876.08
438.157	11431.08
438.364	11822.24
438.571	11682.98
438.778	11756.71
438.985	13196.43
439.192	12450.97
439.399	13087.89
439.606	12549.27
439.813	13259.91
440.02	13905.03
440.227	13591.69
440.433	13759.62
440.64	13986.94
440.847	14226.56
441.054	14177.41
441.261	15215.73
441.467	15154.29
441.674	15627.37
441.881	16018.53
442.088	16057.44
442.294	15680.61
442.501	16370.78
442.708	16442.46
442.914	17292.37
443.121	17867.84
443.328	17570.89
443.534	18467.9
443.741	17847.36
443.948	17947.72
444.154	19156.02
444.361	18979.89
444.568	19153.97
444.774	19166.26
444.981	19280.94
445.187	19647.53
445.394	20796.44
445.6	20542.49
445.807	22469.63
446.013	21433.36
446.22	21840.9
446.426	22676.48
446.633	22963.19
446.839	23604.21
447.046	22676.48
447.252	24019.94
447.459	23903.21
447.665	23829.48
447.871	24841.18
448.078	25787.34
448.284	24521.7
448.491	25412.56
448.697	26549.18
448.903	26698.69
449.11	27175.86
449.316	26215.37
449.522	26817.47
449.728	27773.87
449.935	27470.77
450.141	27567.02
450.347	28427.17
450.553	27331.51
450.76	27648.94
450.966	28535.71
451.172	28384.16
451.378	28707.74
451.584	28375.97
451.791	29002.65
451.997	28859.29
452.203	29414.29
452.409	29041.56
452.615	29365.14
452.821	27874.22
453.027	27804.59
453.233	29483.92
453.44	27894.7
453.646	28201.89
453.852	28400.55
454.058	29094.81
454.264	27804.59
454.47	28388.26
454.676	27941.8
454.882	28777.37
455.088	26373.06
455.294	26606.53
455.5	26952.63
455.705	27433.91
455.911	26172.36
456.117	25617.36
456.323	25437.14
456.529	23802.86
456.735	25019.35
456.941	24226.79
457.147	23942.12
457.352	23110.64
457.558	22739.96
457.764	22619.13
457.97	22590.46
458.176	21830.66
458.381	22000.65
458.587	21019.67
458.793	20915.22
458.999	19616.81
459.204	21046.29
459.41	20812.82
459.616	19428.4
459.821	19182.64
460.027	19147.83
460.233	18871.35
460.438	17833.03
460.644	18121.79
460.85	17331.28
461.055	16911.44
461.261	16938.07
461.466	15715.43
461.672	15598.7
461.878	16471.13
462.083	15447.15
462.289	14969.97
462.494	15029.36
462.7	14343.29
462.905	13831.3
463.111	14488.7
463.316	14197.88
463.522	14029.95
463.727	14150.78
463.932	14142.59
464.138	13921.41
464.343	14013.57
464.549	13427.85
464.754	14199.93
464.959	14060.67
465.165	13874.31
465.37	13300.87
465.575	12979.34
465.781	13272.2
465.986	13728.9
466.191	13044.88
466.397	12952.72
466.602	12278.94
466.807	12590.23
467.012	12530.84
467.218	12661.91
467.423	12481.69
467.628	12582.04
467.833	13079.69
468.038	12416.15
468.244	12072.09
468.449	12618.9
468.654	12203.16
468.859	12235.93
469.064	11949.22
469.269	11578.53
469.474	11693.22
469.679	12119.2
469.885	11424.93
470.09	11635.88
470.295	11768.99
470.5	11410.6
470.705	11519.14
470.91	11205.8
471.115	11001.01
471.32	11349.16
471.525	11185.32
471.73	11109.55
471.935	10945.71
472.139	10556.6
472.344	10603.7
472.549	10312.89
472.754	10173.63
472.959	10011.84
473.164	9921.73
473.369	9813.18
473.574	10222.78
473.778	10122.43
473.983	9856.19
474.188	9960.64
474.393	9594.05
474.598	9731.26
474.802	9454.79
475.007	9501.89
475.212	9381.06
475.417	9100.49
475.621	8981.71
475.826	9041.1
476.031	9096.39
476.235	8934.6
476.44	9061.58
476.645	8742.1
476.849	8873.17
477.054	8768.72
477.259	8500.44
477.463	8496.34
477.668	8387.8
477.872	8387.8
478.077	8309.97
478.282	8215.77
478.486	8013.02
478.691	7943.39
478.895	8090.84
479.1	8021.21
479.304	7918.81
479.509	7884
479.713	7861.47
479.918	7668.96
480.122	7574.75
480.326	7777.5
480.531	7709.92
480.735	7541.99
480.94	7564.51
481.144	7820.51
481.348	7580.9
481.553	7498.98
481.757	7392.48
481.961	7408.87
482.166	7595.23
482.37	7335.14
482.574	7349.48
482.778	7380.2
482.983	7488.74
483.187	7531.75
483.391	7292.13
483.595	7435.49
483.8	7341.29
484.004	7605.47
484.208	7668.96
484.412	7433.44
484.616	7490.79
484.821	7474.4
485.025	7255.27
485.229	7546.08
485.433	7478.5
485.637	7521.51
485.841	7400.68
486.045	7341.29
486.249	7408.87
486.453	7271.65
486.657	7363.81
486.861	7527.65
487.065	7355.62
487.269	7476.45
487.473	7329
487.677	7568.61
487.881	7449.83
488.085	7265.51
488.289	7652.58
488.493	7386.34
488.697	7376.1
488.901	7460.07
489.105	7433.44
489.309	7505.12
489.512	7810.27
489.716	7652.58
489.92	7656.67
490.124	7564.51
490.328	7587.04
490.531	7394.53
490.735	7750.88
490.939	7720.16
491.143	7681.25
491.346	7636.19
491.55	7888.09
491.754	7728.35
491.958	7757.02
492.161	7771.36
492.365	7910.62
492.569	7785.69
492.772	8010.97
492.976	8094.94
493.18	8035.55
493.383	8219.86
493.587	8269.02
493.79	8307.93
493.994	8217.82
494.197	8367.32
494.401	8361.17
494.605	8359.13
494.808	8518.87
495.012	8764.62
495.215	8447.19
495.419	8688.85
495.622	8531.16
495.825	8770.77
496.029	8850.64
496.232	8905.93
496.436	8922.32
496.639	9307.34
496.843	9141.45
497.046	9254.09
497.249	9370.82
497.453	9499.84
497.656	9610.43
497.859	9452.74
498.063	9698.5
498.266	9913.53
498.469	9956.54
498.673	10028.22
498.876	10046.65
499.079	10319.03
499.282	10218.68
499.485	10654.9
499.689	10564.79
499.892	10599.6
500.095	10730.67
500.298	11031.73
500.501	11039.92
500.705	11287.72
500.908	11267.24
501.111	11357.35
501.314	11390.12
501.517	11711.65
501.72	11740.32
501.923	11898.02
502.126	12051.61
502.329	12260.51
502.532	12072.09
502.735	12405.91
502.938	12541.08
503.141	12573.85
503.344	12815.51
503.547	13010.06
503.75	13384.84
503.953	13221
504.156	13509.77
504.359	13503.62
504.562	13638.79
504.765	14101.63
504.968	14003.33
505.17	14320.76
505.373	14216.32
505.576	14533.75
505.779	14769.27
505.982	14924.91
506.185	15080.56
506.387	15191.15
506.59	15232.11
506.793	15565.93
506.996	15297.64
507.198	15922.27
507.401	15807.59
507.604	15987.81
507.807	16383.07
508.009	16319.58
508.212	16628.82
508.415	16561.24
508.617	16850
508.82	17181.78
509.022	17062.99
509.225	17249.36
509.428	17742.92
509.63	17964.1
509.833	17949.76
510.035	18342.97
510.238	18248.77
510.44	18582.59
510.643	19022.9
510.845	19137.59
511.048	18928.69
511.25	19321.9
511.453	19440.68
511.655	20390.94
511.858	19760.17
512.06	19932.2
512.262	20438.05
512.465	20192.29
512.667	20849.69
512.87	21025.81
513.072	20759.58
513.274	21068.82
513.477	21369.87
513.679	21767.18
513.881	21771.27
514.084	22156.29
514.286	22096.9
514.488	22418.43
514.69	23311.35
514.893	22989.81
515.095	22795.26
515.297	23546.86
515.499	23466.99
515.701	24028.13
515.904	24110.05
516.106	24490.98
516.308	24470.5
516.51	24601.57
516.712	24998.87
516.914	24972.25
517.116	25670.61
517.318	25760.72
517.52	25854.92
517.722	25865.16
517.925	26135.49
518.127	26782.65
518.329	26633.15
518.531	26346.44
518.733	27102.14
518.935	27218.87
519.136	27319.22
519.338	28089.26
519.54	28208.04
519.742	28132.26
519.944	28339.11
520.146	28869.53
520.348	28816.29
520.55	29311.89
520.752	29322.13
520.954	29907.85
521.155	29531.03
521.357	29997.96
521.559	30323.59
521.761	30667.65
521.963	30851.97
522.164	30892.93
522.366	30952.32
522.568	31226.74
522.77	31542.13
522.971	31929.2
523.173	32019.31
523.375	32023.4
523.576	31923.05
523.778	32377.7
523.98	32377.7
524.181	32992.09
524.383	32920.41
524.584	33250.14
524.786	33168.22
524.988	33346.39
525.189	33778.51
525.391	34079.57
525.592	33966.93
525.794	34337.61
525.995	33811.28
526.197	34687.81
526.398	34454.34
526.6	34966.34
526.801	34790.21
527.003	34726.72
527.204	35361.59
527.406	35603.25
527.607	35173.18
527.808	35644.21
528.01	34941.76
528.211	35164.99
528.412	36389.67
528.614	35937.07
528.815	36174.64
529.016	36469.54
529.218	36119.34
529.419	36018.99
529.62	36234.03
529.822	36281.13
530.023	36186.93
530.224	36152.11
530.425	36430.63
530.626	36297.52
530.828	36305.71
531.029	37348.12
531.23	36789.03
531.431	36514.6
531.632	36676.39
531.833	36875.04
532.035	36911.91
532.236	36850.47
532.437	37622.55
532.638	37266.2
532.839	37108.51
533.04	37184.29
533.241	36713.25
533.442	37757.72
533.643	37430.04
533.844	37051.17
534.045	37061.41
534.246	36698.92
534.447	37456.67
534.648	37477.15
534.849	37417.75
535.05	37333.79
535.251	37692.18
535.451	37225.25
535.652	37264.16
535.853	37718.81
536.054	37702.42
536.255	37626.65
536.456	37393.18
536.657	37698.33
536.857	37436.19
537.058	37522.2
537.259	37923.6
537.46	37540.63
537.66	37255.96
537.861	37600.02
538.062	37415.71
538.263	37354.27
538.463	37722.9
538.664	37727
538.865	38103.82
539.065	37733.14
539.266	37229.34
539.466	37946.13
539.667	37192.48
539.868	37589.78
540.068	37815.06
540.269	37380.89
540.469	37931.79
540.67	37217.05
540.87	37096.22
541.071	37178.14
541.271	37759.77
541.472	37419.8
541.672	37446.43
541.873	37425.95
542.073	37032.74
542.274	37843.73
542.474	37305.12
542.675	37049.12
542.875	37901.07
543.075	37366.56
543.276	37317.4
543.476	37788.44
543.676	37600.02
543.877	37929.75
544.077	37088.03
544.277	37585.69
544.478	37151.52
544.678	37745.43
544.878	37237.53
545.078	37049.12
545.279	37149.47
545.479	37518.1
545.679	37141.28
545.879	37356.32
546.079	37036.83
546.28	37501.72
546.48	36893.47
546.68	37135.13
546.88	37237.53
547.08	37204.77
547.28	37301.02
547.48	36938.53
547.68	37206.81
547.88	36692.77
548.081	37249.82
548.281	37303.07
548.481	36997.92
548.681	37737.24
548.881	36983.58
549.081	37075.74
549.28	37104.42
549.48	37321.5
549.68	36965.15
549.88	37444.38
550.08	36911.91
550.28	36836.13
550.48	37161.76
550.68	37227.29
550.88	36725.54
551.08	37145.37
551.279	36956.96
551.479	36608.81
551.679	36903.71
551.879	36973.35
552.079	37184.29
552.278	36764.45
552.478	36872.99
552.678	36961.06
552.878	37104.42
553.077	36756.26
553.277	36125.49
553.477	36926.24
553.676	36807.46
553.876	37085.98
554.076	36211.5
554.275	36459.31
554.475	36182.83
554.674	36705.06
554.874	36633.38
555.074	36705.06
555.273	37014.3
555.473	36989.73
555.672	36455.21
555.872	36688.68
556.071	36598.57
556.271	36553.51
556.47	36625.19
556.67	36191.02
556.869	36334.38
557.068	36561.7
557.268	36123.44
557.467	36123.44
557.667	36461.35
557.866	36256.56
558.065	35869.49
558.265	36029.23
558.464	36131.63
558.663	36682.53
558.863	35732.28
559.062	36641.57
559.261	36105.01
559.461	36330.28
559.66	35863.35
559.859	35922.74
560.058	35742.52
560.258	36068.14
560.457	35578.68
560.656	35601.21
560.855	35826.48
561.054	35732.28
561.253	35502.9
561.453	35308.35
561.652	35398.46
561.851	35560.25
562.05	34976.58
562.249	35263.29
562.448	35496.76
562.647	35349.31
562.846	35142.46
563.045	35302.2
563.244	34855.75
563.443	35447.61
563.642	35130.17
563.841	34872.13
564.04	34513.73
564.239	35138.37
564.438	34497.35
564.637	34777.92
564.836	34773.83
565.035	34341.71
565.234	34642.76
565.432	34681.67
565.631	34147.15
565.83	34706.24
566.029	34175.82
566.228	34218.83
566.427	34220.88
566.625	33858.38
566.824	33827.67
567.023	33985.36
567.222	33196.89
567.42	34085.71
567.619	33819.47
567.818	34083.66
568.016	33624.92
568.215	33837.9
568.414	33424.22
568.612	33438.55
568.811	33233.75
569.01	33327.96
569.208	33051.49
569.407	33141.6
569.605	32764.77
569.804	33192.79
570.002	32750.43
570.201	32815.97
570.4	32856.93
570.598	32459.62
570.797	32449.38
570.995	32668.51
571.193	32013.16
571.392	32750.43
571.59	32062.32
571.789	32426.85
571.987	32191.34
572.186	32023.4
572.384	31863.66
572.582	32168.81
572.781	32086.89
572.979	31791.98
573.177	31495.03
573.376	31853.42
573.574	31466.36
573.772	31869.81
573.971	31441.78
574.169	31142.78
574.367	31081.34
574.565	31472.5
574.763	31214.46
574.962	31417.21
575.16	31177.59
575.358	30933.89
575.556	30788.48
575.754	31198.07
575.952	30565.25
576.151	30854.01
576.349	30163.85
576.547	30546.82
576.745	30743.42
576.943	30604.16
577.141	30454.66
577.339	30245.77
577.537	30206.86
577.735	30118.79
577.933	29787.02
578.131	29797.26
578.329	29832.08
578.527	29518.74
578.725	29711.25
578.923	29717.39
579.121	29725.58
579.319	29543.31
579.516	29688.72
579.714	29686.67
579.912	29438.87
580.11	29160.34
580.308	29035.42
580.506	29434.77
580.704	28640.16
580.901	29207.45
581.099	28982.17
581.297	28644.26
581.495	28674.98
581.692	28777.37
581.89	28513.19
582.088	28732.32
582.285	28402.6
582.483	28613.54
582.681	28527.52
582.878	28156.84
583.076	27990.95
583.274	28361.64
583.471	28001.19
583.669	28027.82
583.866	28005.29
584.064	28027.82
584.262	27515.83
584.459	28052.39
584.657	27657.14
584.854	27618.22
585.052	27202.49
585.249	27663.28
585.447	27542.45
585.644	27429.81
585.841	27206.58
586.039	27597.74
586.236	26909.63
586.434	26917.82
586.631	27319.22
586.828	26895.29
587.026	27225.01
587.223	26999.74
587.42	26846.14
587.618	26442.69
587.815	26411.97
588.012	26536.9
588.21	26362.82
588.407	26721.21
588.604	26190.79
588.801	26051.53
588.999	26039.24
589.196	26076.1
589.393	26053.58
589.59	25977.8
589.787	25975.75
589.984	25586.64
590.182	25949.13
590.379	25566.16
590.576	25461.71
590.773	25377.75
590.97	25088.98
591.167	25467.86
591.364	24777.69
591.561	25474
591.758	24781.79
591.955	24886.23
592.152	25316.31
592.349	25015.26
592.546	25115.61
592.743	24990.68
592.94	24607.71
593.137	24785.88
593.334	24904.67
593.531	24407.01
593.727	24607.71
593.924	24323.04
594.121	24249.32
594.318	24538.08
594.515	23895.02
594.712	24212.45
594.908	23798.76
595.105	23962.6
595.302	23809
595.499	23849.96
595.696	23966.7
595.892	23731.18
596.089	23878.63
596.286	23786.47
596.482	23573.49
596.679	23532.53
596.876	23501.81
597.072	23413.74
597.269	23557.1
597.466	23127.03
597.662	23108.6
597.859	23174.13
598.055	23198.71
598.252	22907.9
598.448	22606.84
598.645	22776.83
598.841	22498.3
599.038	22666.24
599.234	22498.3
599.431	22569.98
599.627	22533.12
599.824	22660.09
600.02	22344.7
600.217	22514.69
600.413	22516.73
600.609	22180.87
600.806	22068.23
601.002	21971.97
601.198	21988.36
601.395	21918.73
601.591	21615.63
601.787	21838.86
601.984	21621.77
602.18	22244.35
602.376	21664.78
602.572	21541.9
602.769	21580.81
602.965	21031.96
603.161	21103.64
603.357	21257.23
603.553	21019.67
603.75	21212.18
603.946	21087.25
604.142	21294.1
604.338	20816.92
604.534	21054.48
604.73	20300.83
604.926	20657.18
605.122	20837.4
605.318	20759.58
605.514	20431.9
605.71	20605.98
605.906	20284.45
606.102	20442.14
606.298	20378.65
606.494	20278.3
606.69	20388.89
606.886	20442.14
607.082	19936.29
607.278	20235.3
607.474	19915.81
607.67	19946.53
607.866	19700.78
608.062	20065.32
608.257	19719.21
608.453	19903.53
608.649	19985.44
608.845	19635.24
609.041	19586.09
609.236	19532.84
609.432	19475.5
609.628	19575.85
609.824	19354.67
610.019	19543.08
610.215	19473.45
610.411	19448.88
610.606	19450.92
610.802	19153.97
610.998	19559.47
611.193	19131.44
611.389	19106.87
611.584	19125.3
611.78	18936.88
611.976	19012.66
612.171	19205.17
612.367	19082.29
612.562	18842.68
612.758	18598.97
612.953	18691.13
613.149	19070
613.344	18617.4
613.539	19174.45
613.735	18721.85
613.93	18754.62
614.126	18601.02
614.321	18746.42
614.517	18676.79
614.712	18439.23
614.907	18029.63
615.103	18588.73
615.298	18558.01
615.493	18461.76
615.688	18031.68
615.884	18359.36
616.079	18220.1
616.274	18461.76
616.47	18281.53
616.665	18361.41
616.86	18195.52
617.055	18043.97
617.25	17890.37
617.445	17964.1
617.641	17673.29
617.836	17873.99
618.031	17624.14
618.226	17876.04
618.421	17658.95
618.616	17906.76
618.811	17216.59
619.006	17806.41
619.201	17269.84
619.396	17697.86
619.591	17214.54
619.786	17388.62
619.981	17134.67
620.176	17466.44
620.371	17101.9
620.566	17089.62
620.761	17169.49
620.956	16729.17
621.151	16702.55
621.346	16821.33
621.541	16616.54
621.735	16743.51
621.93	16311.39
622.125	16538.71
622.32	16245.85
622.515	16254.05
622.709	16053.34
622.904	16184.41
623.099	16002.15
623.294	16104.54
623.488	15916.13
623.683	15807.59
623.878	15619.18
624.072	15647.85
624.267	15561.83
624.462	15434.86
624.656	15230.06
624.851	15479.91
625.046	15178.86
625.24	14967.92
625.435	15209.58
625.629	14898.29
625.824	14775.41
626.018	14742.64
626.213	14371.96
626.407	14548.09
626.602	14357.63
626.796	14478.46
626.991	14597.24
627.185	14546.04
627.38	14017.66
627.574	14275.71
627.768	14021.76
627.963	13958.27
628.157	13839.49
628.352	13814.91
628.546	13585.54
628.74	13917.31
628.935	13472.9
629.129	13704.32
629.323	13601.93
629.517	13376.65
629.712	13317.26
629.906	13565.06
630.1	13104.27
630.294	13132.94
630.489	13046.93
630.683	13225.1
630.877	12741.78
631.071	12854.42
631.265	12795.03
631.459	12719.25
631.653	12690.58
631.848	12565.65
632.042	12709.01
632.236	12410.01
632.43	12317.85
632.624	12289.18
632.818	12131.48
633.012	12342.42
633.206	12444.82
633.4	12258.46
633.594	12051.61
633.788	12264.6
633.982	12072.09
634.176	11771.04
634.369	11820.19
634.563	11695.27
634.757	11631.78
634.951	11760.8
635.145	11594.92
635.339	11414.7
635.533	11263.15
635.726	11703.46
635.92	11490.47
636.114	11308.2
636.308	11087.02
636.501	11162.8
636.695	11099.31
636.889	11127.98
637.083	10964.14
637.276	10980.53
637.47	10693.81
637.664	10704.05
637.857	10808.5
638.051	10886.32
638.244	10704.05
638.438	10482.87
638.632	10589.36
638.825	10390.71
639.019	10423.48
639.212	10329.27
639.406	10353.85
639.599	10280.12
639.793	10138.81
639.986	10093.76
640.18	10212.54
640.373	9942.21
640.567	9884.86
640.76	9886.91
640.954	10155.19
641.147	9792.7
641.34	9780.42
641.534	9827.52
641.727	9649.35
641.92	9628.87
642.114	9491.65
642.307	9508.04
642.5	9481.41
642.694	9225.42
642.887	9303.24
643.08	9452.74
643.273	9313.48
643.467	9331.91
643.66	9053.39
643.853	8944.84
644.046	8877.26
644.239	9032.91
644.432	8893.65
644.626	8840.4
644.819	8805.58
645.012	8955.08
645.205	8656.08
645.398	8641.75
645.591	8803.53
645.784	8623.31
645.977	8406.23
646.17	8400.09
646.363	8426.71
646.556	8275.16
646.749	8379.61
646.942	8328.41
647.135	8307.93
647.328	8170.71
647.521	8246.49
647.714	8113.37
647.907	8148.18
648.099	8051.93
648.292	8099.03
648.485	8090.84
648.678	7912.67
648.871	8049.88
649.064	7943.39
649.256	7963.87
649.449	7922.91
649.642	7787.74
649.835	7593.19
650.027	7664.86
650.22	7750.88
650.413	7615.71
650.605	7513.31
650.798	7539.94
650.991	7476.45
651.183	7572.71
651.376	7208.17
651.568	7390.44
651.761	7347.43
651.954	7310.57
652.146	7097.58
652.339	7226.6
652.531	7177.45
652.724	7005.42
652.916	6952.17
653.109	6857.96
653.301	6995.18
653.494	7154.92
653.686	6737.13
653.879	6929.64
654.071	6835.44
654.263	6784.24
654.456	6798.57
654.648	6900.97
654.84	6567.15
655.033	6712.56
655.225	6577.39
655.417	6698.22
655.61	6575.34
655.802	6552.82
655.994	6739.18
656.186	6538.48
656.379	6501.62
656.571	6284.53
656.763	6421.75
656.955	6466.8
657.148	6423.8
657.34	6329.59
657.532	6184.18
657.724	6223.09
657.916	6235.38
658.108	6151.42
658.3	6223.09
658.492	6182.13
658.684	6085.88
658.876	6063.35
659.068	6016.25
659.26	5975.29
659.452	5750.01
659.644	5788.92
659.836	5713.15
660.028	5844.22
660.22	5676.29
660.412	5819.64
660.604	5620.99
660.796	5747.97
660.988	5797.12
661.18	5666.05
661.372	5551.36
661.563	5637.38
661.755	5573.89
661.947	5649.66
662.139	5606.66
662.331	5534.98
662.522	5348.61
662.714	5481.73
662.906	5483.78
663.097	5367.04
663.289	5444.87
663.481	5287.17
663.673	5213.45
663.864	5276.93
664.056	5291.27
664.247	5125.38
664.439	5293.32
664.631	5219.59
664.822	4975.88
665.014	5010.7
665.205	5195.01
665.397	5018.89
665.588	5119.24
665.78	5082.38
665.971	5070.09
666.163	4912.39
666.354	5006.6
666.546	4992.27
666.737	4961.55
666.929	4832.52
667.12	4855.05
667.311	4896.01
667.503	4896.01
667.694	4869.39
667.885	4814.09
668.077	4902.15
668.268	4646.16
668.459	4783.37
668.651	4588.82
668.842	4662.54
669.033	4695.31
669.224	4668.69
669.416	4648.21
669.607	4521.23
669.798	4646.16
669.989	4625.68
670.18	4592.91
670.371	4543.76
670.563	4420.88
670.754	4515.09
670.945	4478.22
671.136	4398.35
671.327	4377.87
671.518	4584.72
671.709	4500.75
671.9	4465.94
672.091	4345.11
672.282	4406.55
672.473	4211.99
672.664	4400.4
672.855	4379.92
673.046	4349.2
673.237	4455.7
673.428	4306.2
673.619	4218.13
673.809	4195.61
674	4207.89
674.191	4291.86
674.382	4168.98
674.573	4216.08
674.764	4125.97
674.954	4230.42
675.145	4119.83
675.336	4107.54
675.527	4166.93
675.717	4248.85
675.908	4089.11
676.099	4019.48
676.289	4052.25
676.48	4035.86
676.671	3978.52
676.861	4173.08
677.052	4060.44
677.243	4085.01
677.433	4037.91
677.624	4001.05
677.814	3925.27
678.005	4003.1
678.195	4044.06
678.386	3968.28
678.576	3867.93
678.767	3810.59
678.957	3818.78
679.148	3947.8
679.338	4025.62
679.529	3996.95
679.719	3759.39
679.909	3960.09
680.1	3810.59
680.29	3790.11
680.481	3845.4
680.671	3818.78
680.861	4017.43
681.052	3824.92
681.242	3730.72
681.432	3994.9
681.622	3632.41
681.813	3904.79
682.003	3874.07
682.193	3798.3
682.383	3601.69
682.573	3769.63
682.764	3743
682.954	3730.72
683.144	3706.14
683.334	3683.61
683.524	3710.24
683.714	3697.95
683.904	3648.8
684.094	3745.05
684.284	3773.72
684.474	3734.81
684.664	3788.06
684.854	3755.29
685.044	3609.89
685.234	3577.12
685.424	3675.42
685.614	3677.47
685.804	3562.78
685.994	3507.49
686.184	3433.76
686.374	3573.02
686.564	3462.43
686.753	3517.73
686.943	3425.57
687.133	3437.86
687.323	3556.64
687.513	3497.25
687.702	3478.82
687.892	3331.36
688.082	3607.84
688.272	3495.2
688.461	3552.54
688.651	3562.78
688.841	3405.09
689.03	3304.74
689.22	3269.92
689.41	3302.69
689.599	3321.12
689.789	3294.5
689.979	3274.02
690.168	3298.59
690.358	3302.69
690.547	3159.33
690.737	3247.4
690.926	3190.05
691.116	3116.33
691.305	3278.12
691.495	3142.95
691.684	3198.24
691.874	3216.68
692.063	3159.33
692.252	3212.58
692.442	3233.06
692.631	3042.6
692.82	3149.09
693.01	3058.98
693.199	3099.94
693.388	2954.54
693.578	2970.92
693.767	3015.98
693.956	3015.98
694.146	2938.15
694.335	3132.71
694.524	3015.98
694.713	2983.21
694.902	3034.41
695.092	3048.74
695.281	2972.97
695.47	2995.5
695.659	3026.22
695.848	2934.06
696.037	2962.73
696.226	2895.15
696.415	3001.64
696.604	3032.36
696.793	2936.1
696.982	2917.67
697.171	2805.03
697.36	2766.12
697.549	2929.96
697.738	2751.79
697.927	2860.33
698.116	2833.71
698.305	2776.36
698.494	2831.66
698.683	2821.42
698.872	2905.38
699.061	2862.38
699.25	2866.47
699.438	2673.96
699.627	2809.13
699.816	2843.95
700.005	2725.16
700.193	2800.94
700.382	2731.31
700.571	2690.35
700.76	2700.59
700.948	2651.44
701.137	2686.25
701.326	2774.31
701.514	2639.15
701.703	2913.58
701.892	2690.35
702.08	2659.63
702.269	2727.21
702.457	2716.97
702.646	2778.41
702.834	2645.29
703.023	2680.11
703.212	2618.67
703.4	2741.55
703.589	2551.09
703.777	2762.03
703.965	2651.44
704.154	2673.96
704.342	2721.07
704.531	2575.66
704.719	2573.61
704.907	2622.77
705.096	2657.58
705.284	2577.71
705.472	2719.02
705.661	2569.52
705.849	2532.65
706.037	2633.01
706.226	2745.64
706.414	2643.24
706.602	2600.24
706.79	2673.96
706.979	2575.66
707.167	2686.25
707.355	2581.81
707.543	2520.37
707.731	2590
707.919	2469.17
708.107	2647.34
708.296	2573.61
708.484	2495.79
708.672	2561.33
708.86	2463.02
709.048	2659.63
709.236	2497.84
709.424	2499.89
709.612	2516.27
709.8	2532.65
709.988	2549.04
710.176	2458.93
710.364	2473.26
710.551	2426.16
710.739	2471.22
710.927	2430.26
711.115	2489.65
711.303	2602.29
711.491	2436.4
711.679	2422.06
711.866	2354.48
712.054	2487.6
712.242	2452.78
712.43	2372.91
712.617	2549.04
712.805	2610.48
712.993	2417.97
713.181	2432.3
713.368	2452.78
713.556	2506.03
713.744	2413.87
713.931	2475.31
714.119	2499.89
714.306	2395.44
714.494	2417.97
714.682	2510.13
714.869	2446.64
715.057	2426.16
715.244	2356.53
715.432	2336.05
715.619	2485.55
715.807	2456.88
715.994	2440.5
716.182	2290.99
716.369	2389.3
716.556	2415.92
716.744	2331.95
716.931	2270.51
717.119	2346.29
717.306	2290.99
717.493	2268.47
717.681	2299.19
717.868	2290.99
718.055	2340.15
718.242	2256.18
718.43	2456.88
718.617	2331.95
718.804	2272.56
718.991	2307.38
719.179	2370.87
719.366	2225.46
719.553	2399.54
719.74	2368.82
719.927	2286.9
720.114	2297.14
720.301	2254.13
720.488	2297.14
720.676	2207.03
720.863	2207.03
721.05	2172.21
721.237	2250.03
721.424	2229.56
721.611	2372.91
721.798	2069.81
721.985	2217.27
722.172	2200.88
722.358	2100.53
722.545	2219.32
722.732	2256.18
722.919	2272.56
723.106	2141.49
723.293	2149.68
723.48	2080.05
723.667	2190.64
723.853	2233.65
724.04	2266.42
724.227	2168.12
724.414	2247.99
724.6	2192.69
724.787	2256.18
724.974	2278.71
725.161	2192.69
725.347	2104.63
725.534	2155.83
725.72	2131.25
725.907	2135.35
726.094	2094.39
726.28	2114.87
726.467	2078.01
726.653	2028.85
726.84	2239.8
727.027	2196.79
727.213	2000.18
727.4	2078.01
727.586	2082.1
727.773	2118.97
727.959	2116.92
728.145	2030.9
728.332	2041.14
728.518	2071.86
728.705	2221.36
728.891	2082.1
729.077	2041.14
729.264	2078.01
729.45	1967.42
729.636	2127.16
729.823	2071.86
730.009	2049.33
730.195	1994.04
730.382	1946.94
730.568	2024.76
730.754	2024.76
730.94	2078.01
731.126	2053.43
731.313	1932.6
731.499	1963.32
731.685	1977.66
731.871	1912.12
732.057	1938.74
732.243	1985.85
732.429	2041.14
732.615	1971.51
732.801	1981.75
732.987	1967.42
733.173	1985.85
733.359	1893.69
733.545	1914.17
733.731	1846.59
733.917	1971.51
734.103	2030.9
734.289	1914.17
734.475	1889.59
734.661	1924.41
734.847	1967.42
735.033	1899.83
735.219	1985.85
735.404	1844.54
735.59	1953.08
735.776	1852.73
735.962	1891.64
736.148	1899.83
736.333	1895.74
736.519	1887.54
736.705	1801.53
736.89	1873.21
737.076	1918.26
737.262	1885.5
737.447	1846.59
737.633	1846.59
737.819	1844.54
738.004	1819.96
738.19	1807.67
738.375	1850.68
738.561	1971.51
738.747	1797.43
738.932	1727.8
739.118	1824.06
739.303	1754.43
739.489	1828.15
739.674	1791.29
739.859	1703.23
740.045	1711.42
740.23	1668.41
740.416	1754.43
740.601	1649.98
740.786	1774.91
740.972	1619.26
741.157	1789.24
741.342	1635.64
741.528	1701.18
741.713	1682.75
741.898	1631.55
742.084	1666.36
742.269	1733.95
742.454	1666.36
742.639	1729.85
742.824	1625.4
743.01	1623.36
743.195	1711.42
743.38	1570.11
743.565	1615.16
743.75	1658.17
743.935	1537.34
744.12	1557.82
744.305	1504.57
744.49	1535.29
744.675	1490.24
744.86	1594.68
745.045	1592.64
745.23	1520.96
745.415	1520.96
745.6	1590.59
745.785	1480
745.97	1490.24
746.155	1615.16
746.34	1496.38
746.525	1480
746.71	1469.76
746.895	1430.85
747.079	1471.81
747.264	1480
747.449	1455.42
747.634	1469.76
747.819	1447.23
748.003	1436.99
748.188	1455.42
748.373	1451.33
748.557	1381.7
748.742	1443.14
748.927	1404.22
749.111	1365.31
749.296	1246.53
749.481	1346.88
749.665	1416.51
749.85	1353.02
750.034	1310.02
750.219	1381.7
750.404	1238.34
750.588	1314.11
750.773	1228.1
750.957	1262.91
751.141	1340.74
751.326	1258.82
751.51	1230.15
751.695	1224
751.879	1209.67
752.064	1201.47
752.248	1316.16
752.432	1174.85
752.617	1144.13
752.801	1181
752.985	1082.69
753.17	1105.22
753.354	1256.77
753.538	1070.4
753.722	1256.77
753.907	1199.43
754.091	1140.04
754.275	1185.09
754.459	1150.28
754.643	1109.32
754.828	1144.13
755.012	1125.7
755.196	1025.35
755.38	1011.01
755.564	1029.45
755.748	1076.55
755.932	1043.78
756.116	1129.8
756.3	1142.08
756.484	1066.31
756.668	1127.75
756.852	908.62
757.036	994.63
757.22	994.63
757.404	965.96
757.588	927.05
757.772	1011.01
757.956	898.38
758.14	941.38
758.323	861.51
758.507	1045.83
758.691	1000.77
758.875	1004.87
759.059	1064.26
759.242	888.14
759.426	970.05
759.61	939.33
759.794	906.57
759.977	879.94
760.161	996.68
760.345	935.24
760.528	785.74
760.712	863.56
760.895	838.98
761.079	918.86
761.263	935.24
761.446	849.22
761.63	890.18
761.813	935.24
761.997	836.94
762.18	802.12
762.364	918.86
762.547	849.22
762.731	773.45
762.914	814.41
763.098	841.03
763.281	855.37
763.464	798.03
763.648	773.45
763.831	785.74
764.015	705.87
764.198	775.5
764.381	783.69
764.564	841.03
764.748	781.64
764.931	787.79
765.114	865.61
765.297	773.45
765.481	748.87
765.664	689.48
765.847	804.17
766.03	871.75
766.213	820.55
766.397	773.45
766.58	873.8
766.763	705.87
766.946	828.74
767.129	755.02
767.312	750.92
767.495	726.35
767.678	677.19
767.861	699.72
768.044	816.46
768.227	765.26
768.41	714.06
768.593	730.44
768.776	738.63
768.959	726.35
769.142	738.63
769.324	701.77
769.507	701.77
769.69	685.39
769.873	701.77
770.056	759.11
770.239	691.53
770.421	722.25
770.604	693.58
770.787	574.8
770.97	648.52
771.152	609.61
771.335	626
771.518	693.58
771.7	720.2
771.883	705.87
772.066	695.63
772.248	728.39
772.431	675.15
772.613	560.46
772.796	615.76
772.978	609.61
773.161	546.12
773.343	646.48
773.526	603.47
773.708	636.24
773.891	560.46
774.073	595.28
774.256	599.37
774.438	578.89
774.621	574.8
774.803	603.47
774.985	636.24
775.168	521.55
775.35	587.08
775.532	587.08
775.715	523.6
775.897	621.9
776.079	537.93
776.261	496.97
776.444	537.93
776.626	552.27
776.808	488.78
776.99	548.17
777.173	537.93
777.355	566.6
777.537	490.83
777.719	593.23
777.901	496.97
778.083	480.59
778.265	462.16
778.447	486.73
778.629	509.26
778.811	490.83
778.993	496.97
779.175	496.97
779.357	490.83
779.539	468.3
779.721	499.02
779.903	478.54
780.085	480.59
780.267	501.07
780.449	458.06
780.631	413.01
780.812	517.45
780.994	486.73
781.176	466.25
781.358	492.88
781.54	372.05
781.721	488.78
781.903	425.29
782.085	443.73
782.267	435.53
782.448	423.25
782.63	519.5
782.812	427.34
782.993	476.49
783.175	404.82
783.357	437.58
783.538	447.82
783.72	386.38
783.901	365.9
784.083	413.01
784.264	415.05
784.446	361.81
784.627	396.62
784.809	249.17
784.99	329.04
785.172	329.04
785.353	390.48
785.535	357.71
785.716	296.27
785.897	341.33
786.079	396.62
786.26	316.75
786.441	370
786.623	365.9
786.804	306.51
786.985	296.27
787.167	374.1
787.348	257.36
787.529	367.95
787.71	361.81
787.891	365.9
788.073	290.13
788.254	261.46
788.435	359.76
788.616	281.94
788.797	283.98
788.978	304.46
789.159	273.75
789.34	322.9
789.522	290.13
789.703	331.09
789.884	247.12
790.065	290.13
790.246	341.33
790.427	296.27
790.607	308.56
790.788	331.09
790.969	277.84
791.15	376.14
791.331	271.7
791.512	329.04
791.693	267.6
791.874	277.84
792.054	243.03
792.235	208.21
792.416	273.75
792.597	267.6
792.778	263.51
792.958	310.61
793.139	296.27
793.32	240.98
793.5	290.13
793.681	206.16
793.862	230.74
794.042	316.75
794.223	232.79
794.404	247.12
794.584	226.64
794.765	218.45
794.945	279.89
795.126	226.64
795.306	300.37
795.487	214.35
795.667	202.07
795.848	183.63
796.028	167.25
796.209	193.87
796.389	214.35
796.57	189.78
796.75	259.41
796.93	240.98
797.111	185.68
797.291	187.73
797.471	224.59
797.652	200.02
797.832	216.4
798.012	247.12
798.192	191.83
798.373	216.4
798.553	238.93
798.733	253.27
798.913	144.72
799.093	185.68
799.274	175.44
799.454	222.55
799.634	243.03
799.814	167.25
799.994	148.82
800.174	263.51
800.354	212.31
800.534	171.35
800.714	202.07
800.894	126.29
801.074	253.27
801.254	144.72
801.434	214.35
801.614	220.5
801.794	169.3
801.974	748.87
802.154	240.98
802.334	142.68
802.514	154.96
802.693	247.12
802.873	132.44
803.053	161.11
803.233	157.01
803.413	206.16
803.592	208.21
803.772	202.07
803.952	163.15
804.131	185.68
804.311	230.74
804.491	191.83
804.67	189.78
804.85	154.96
805.03	224.59
805.209	195.92
805.389	181.59
805.568	77.14
805.748	134.48
805.928	185.68
806.107	202.07
806.287	165.2
806.466	175.44
806.646	189.78
806.825	144.72
807.004	183.63
807.184	177.49
807.363	214.35
807.543	122.2
807.722	157.01
807.901	165.2
808.081	163.15
808.26	95.57
808.439	95.57
808.619	212.31
808.798	148.82
808.977	126.29
809.156	220.5
809.336	173.39
809.515	222.55
809.694	95.57
809.873	161.11
810.052	124.24
810.231	171.35
810.411	167.25
810.59	197.97
810.769	185.68
810.948	197.97
811.127	97.62
811.306	56.66
811.485	167.25
811.664	218.45
811.843	95.57
812.022	150.87
812.201	193.87
812.38	136.53
812.559	148.82
812.737	116.05
812.916	120.15
813.095	124.24
813.274	136.53
813.453	171.35
813.632	116.05
813.811	146.77
813.989	77.14
814.168	167.25
814.347	116.05
814.526	177.49
814.704	134.48
814.883	140.63
815.062	124.24
815.24	204.11
815.419	97.62
815.598	167.25
815.776	5.46
815.955	103.76
816.133	79.19
816.312	122.2
816.49	120.15
816.669	142.68
816.847	75.09
817.026	189.78
817.204	50.52
817.383	140.63
817.561	169.3
817.74	116.05
817.918	132.44
818.097	19.8
818.275	81.24
818.453	169.3
818.632	85.33
818.81	103.76
818.988	138.58
819.167	75.09
819.345	87.38
819.523	154.96
819.701	75.09
819.879	73.04
820.058	44.37
820.236	48.47
820.414	130.39
820.592	75.09
820.77	105.81
820.948	118.1
821.127	60.76
821.305	103.76
821.483	111.96
821.661	154.96
821.839	152.91
822.017	52.56
822.195	60.76
822.373	136.53
822.551	116.05
822.729	93.52
822.907	111.96
823.085	111.96
823.262	116.05
823.44	48.47
823.618	71
823.796	157.01
823.974	42.32
824.152	36.18
824.329	87.38
824.507	126.29
824.685	54.61
824.863	50.52
825.04	161.11
825.218	99.67
825.396	140.63
825.574	44.37
825.751	95.57
825.929	165.2
826.107	107.86
826.284	152.91
826.462	64.85
826.639	68.95
826.817	95.57
826.994	83.28
827.172	68.95
827.349	187.73
827.527	17.75
827.704	77.14
827.882	161.11
828.059	191.83
828.237	95.57
828.414	130.39
828.591	54.61
828.769	56.66
828.946	71
829.124	66.9
829.301	91.48
829.478	62.8
829.655	34.13
829.833	73.04
830.01	77.14
830.187	83.28
830.364	93.52
830.542	60.76
830.719	79.19
830.896	103.76
831.073	97.62
831.25	167.25
831.427	95.57
831.604	56.66
831.782	21.84
831.959	38.23
832.136	73.04
832.313	66.9
832.49	38.23
832.667	103.76
832.844	118.1
833.021	140.63
833.198	-2.73
833.374	30.04
833.551	19.8
833.728	81.24
833.905	71
834.082	-8.87
834.259	66.9
834.436	21.84
834.612	-4.78
834.789	62.8
834.966	15.7
835.143	122.2
835.319	17.75
835.496	85.33
835.673	60.76
835.85	91.48
836.026	134.48
836.203	91.48
836.38	60.76
836.556	64.85
836.733	83.28
836.909	34.13
837.086	-4.78
837.262	89.43
837.439	79.19
837.616	42.32
837.792	46.42
837.968	134.48
838.145	77.14
838.321	107.86
838.498	48.47
838.674	109.91
838.851	62.8
839.027	68.95
839.203	97.62
839.38	50.52
839.556	5.46
839.732	91.48
839.909	64.85
840.085	62.8
840.261	38.23
840.437	21.84
840.614	38.23
840.79	128.34
840.966	83.28
841.142	54.61
841.318	60.76
841.494	64.85
841.671	93.52
841.847	17.75
842.023	5.46
842.199	99.67
842.375	142.68
842.551	-21.16
842.727	83.28
842.903	95.57
843.079	23.89
843.255	52.56
843.431	36.18
843.607	89.43
843.783	56.66
843.959	7.51
844.134	30.04
844.31	91.48
844.486	19.8
844.662	68.95
844.838	30.04
845.013	73.04
845.189	36.18
845.365	171.35
845.541	56.66
845.716	66.9
845.892	136.53
846.068	87.38
846.244	34.13
846.419	-10.92
846.595	54.61
846.77	3.41
846.946	77.14
847.122	-35.5
847.297	5.46
847.473	68.95
847.648	124.24
847.824	93.52
847.999	79.19
848.175	62.8
848.35	21.84
848.526	-17.07
848.701	48.47
848.876	15.7
849.052	48.47
849.227	71
849.403	48.47
849.578	77.14
849.753	5.46
849.929	97.62
850.104	-58.03
850.279	56.66
850.454	120.15
850.63	46.42
850.805	-19.11
850.98	27.99
851.155	21.84
851.33	38.23
851.505	32.08
851.681	-19.11
851.856	58.71
852.031	5.46
852.206	79.19
852.381	44.37
852.556	32.08
852.731	7.51
852.906	54.61
853.081	1.37
853.256	75.09
853.431	-51.88
853.606	13.65
853.781	17.75
853.956	-58.03
854.131	21.84
854.305	13.65
854.48	1.37
854.655	46.42
854.83	-47.79
855.005	9.56
855.18	-23.21
855.354	13.65
855.529	56.66
855.704	7.51
855.879	116.05
856.053	9.56
856.228	68.95
856.403	-60.07
856.577	68.95
856.752	-12.97
856.926	-15.02
857.101	44.37
857.276	32.08
857.45	95.57
857.625	62.8
857.799	21.84
857.974	64.85
858.148	27.99
858.323	138.58
858.497	-43.69
858.672	-4.78
858.846	46.42
859.02	116.05
859.195	40.28
859.369	-15.02
859.543	66.9
859.718	-33.45
859.892	13.65
860.066	87.38
860.241	21.84
860.415	68.95
860.589	-19.11
860.763	19.8
860.938	-31.4
861.112	13.65
861.286	52.56
861.46	1.37
861.634	30.04
861.808	56.66
861.982	-6.83
862.157	30.04
862.331	19.8
862.505	-4.78
862.679	-2.73
862.853	-23.21
863.027	-47.79
863.201	13.65
863.375	87.38
863.549	83.28
863.722	3.41
863.896	5.46
864.07	7.51
864.244	46.42
864.418	-2.73
864.592	9.56
864.766	34.13
864.939	23.89
865.113	-6.83
865.287	111.96
865.461	64.85
865.634	-12.97
865.808	-47.79
865.982	52.56
866.156	25.94
866.329	-6.83
866.503	7.51
866.676	1.37
866.85	13.65
867.024	46.42
867.197	30.04
867.371	52.56
867.544	-2.73
867.718	13.65
867.891	40.28
868.065	-10.92
868.238	89.43
868.412	38.23
868.585	-51.88
868.759	-6.83
868.932	21.84
869.105	-0.68
869.279	25.94
869.452	13.65
869.625	83.28
869.799	40.28
869.972	23.89
870.145	-0.68
870.319	71
870.492	38.23
870.665	30.04
870.838	25.94
871.011	21.84
871.185	5.46
871.358	5.46
871.531	58.71
871.704	13.65
871.877	11.61
872.05	54.61
872.223	-6.83
872.396	21.84
872.569	3.41
872.742	-17.07
872.915	111.96
873.088	36.18
873.261	-17.07
873.434	87.38
873.607	34.13
873.78	13.65
873.953	38.23
874.126	62.8
874.299	91.48
874.471	-39.59
874.644	-19.11
874.817	81.24
874.99	68.95
875.163	-6.83
875.335	-6.83
875.508	34.13
875.681	73.04
875.853	-12.97
876.026	79.19
876.199	21.84
876.371	50.52
876.544	71
876.717	-37.55
876.889	25.94
877.062	120.15
877.234	44.37
877.407	1.37
877.579	40.28
877.752	34.13
877.924	62.8
878.097	3.41
878.269	-55.98
878.442	124.24
878.614	-2.73
878.786	-31.4
878.959	60.76
879.131	58.71
879.303	46.42
879.476	-35.5
879.648	85.33
879.82	-19.11
879.993	-21.16
880.165	30.04
880.337	-6.83
880.509	-15.02
880.681	34.13
880.854	71
881.026	-49.83
881.198	118.1
881.37	-6.83
881.542	114
881.714	13.65
881.886	46.42
882.058	-17.07
882.23	1.37
882.402	-31.4
882.574	23.89
882.746	42.32
882.918	60.76
883.09	60.76
883.262	30.04
883.434	36.18
883.606	-2.73
883.778	30.04
883.95	103.76
884.122	60.76
884.293	68.95
884.465	-35.5
884.637	-29.35
884.809	23.89
884.98	21.84
885.152	46.42
885.324	62.8
885.496	-55.98
885.667	9.56
885.839	68.95
886.011	79.19
886.182	34.13
886.354	40.28
886.525	17.75
886.697	30.04
886.869	34.13
887.04	-19.11
887.212	5.46
887.383	9.56
887.555	34.13
887.726	13.65
887.897	-31.4
888.069	-19.11
888.24	56.66
888.412	83.28
888.583	1.37
888.754	56.66
888.926	-19.11
889.097	-8.87
889.268	7.51
889.44	38.23
889.611	25.94
889.782	21.84
889.953	21.84
890.125	34.13
890.296	-19.11
890.467	30.04
890.638	36.18
890.809	36.18
890.98	-10.92
891.151	50.52
891.323	42.32
891.494	-45.74
891.665	1.37
891.836	21.84
892.007	42.32
892.178	13.65
892.349	34.13
892.52	68.95
892.691	25.94
892.862	77.14
893.032	13.65
893.203	13.65
893.374	1.37
893.545	23.89
893.716	-68.27
893.887	91.48
894.057	9.56
894.228	75.09
894.399	-21.16
894.57	34.13
894.74	-43.69
894.911	17.75
895.082	42.32
895.253	7.51
895.423	1.37
895.594	-29.35
895.764	46.42
895.935	7.51
896.106	58.71
896.276	21.84
896.447	32.08
896.617	-10.92
896.788	-6.83
896.958	-35.5
897.129	-10.92
897.299	-2.73
897.47	60.76
897.64	9.56
897.81	-2.73
897.981	44.37
898.151	-51.88
898.322	-55.98
898.492	13.65
898.662	17.75
898.832	-15.02
899.003	36.18
899.173	77.14
899.343	34.13
899.513	-55.98
