Data from USB4F104151__27__10-21-38-698.txt Node

Date: Wed Mar 12 10:21:38 EDT 2025
User: louis
Spectrometer: USB4F10415
Trigger mode: 4
Integration Time (sec): 3.000000E-2
Scans to average: 1
Electric dark correction enabled: true
Nonlinearity correction enabled: false
Boxcar width: 0
XAxis mode: Wavelengths
Number of Pixels in Spectrum: 3648
>>>>>Begin Spectral Data<<<<<
178.204	-100.52
178.424	-100.52
178.644	-100.52
178.864	-98.47
179.084	-69.8
179.304	-26.79
179.524	10.07
179.744	-22.7
179.964	24.4
180.184	-41.13
180.404	34.64
180.624	28.5
180.844	-4.27
181.064	8.02
181.283	12.12
181.503	1.88
181.723	-24.75
181.943	-32.94
182.163	36.69
182.383	-16.55
182.602	20.31
182.822	87.89
183.042	26.45
183.262	-4.27
183.482	16.21
183.701	1.88
183.921	40.79
184.141	-12.46
184.361	8.02
184.58	-4.27
184.8	16.21
185.02	98.13
185.239	-32.94
185.459	-45.23
185.679	28.5
185.898	-20.65
186.118	104.28
186.338	28.5
186.557	-8.36
186.777	-0.17
186.997	12.12
187.216	42.84
187.436	61.27
187.655	-12.46
187.875	30.55
188.095	-20.65
188.314	-0.17
188.534	28.5
188.753	5.97
188.973	-6.31
189.192	53.08
189.412	20.31
189.631	71.51
189.851	-8.36
190.07	102.23
190.29	22.36
190.509	30.55
190.729	10.07
190.948	65.36
191.168	59.22
191.387	44.88
191.607	-45.23
191.826	77.65
192.045	-20.65
192.265	91.99
192.484	53.08
192.704	59.22
192.923	-49.32
193.142	36.69
193.362	-14.51
193.581	79.7
193.8	36.69
194.02	24.4
194.239	-0.17
194.458	32.6
194.678	36.69
194.897	28.5
195.116	48.98
195.335	44.88
195.555	-8.36
195.774	12.12
195.993	-6.31
196.212	18.26
196.432	12.12
196.651	-2.22
196.87	36.69
197.089	94.04
197.308	83.8
197.528	75.6
197.747	-16.55
197.966	5.97
198.185	71.51
198.404	-10.41
198.623	34.64
198.842	1.88
199.062	98.13
199.281	71.51
199.5	36.69
199.719	38.74
199.938	53.08
200.157	30.55
200.376	53.08
200.595	48.98
200.814	-4.27
201.033	-16.55
201.252	38.74
201.471	-26.79
201.69	94.04
201.909	40.79
202.128	-2.22
202.347	28.5
202.566	-8.36
202.785	20.31
203.004	-12.46
203.223	87.89
203.442	-4.27
203.661	26.45
203.879	12.12
204.098	-4.27
204.317	1.88
204.536	38.74
204.755	38.74
204.974	16.21
205.193	-24.75
205.411	104.28
205.63	36.69
205.849	3.93
206.068	42.84
206.287	59.22
206.505	120.66
206.724	-53.42
206.943	38.74
207.162	-30.89
207.381	36.69
207.599	61.27
207.818	-8.36
208.037	-37.03
208.255	16.21
208.474	10.07
208.693	18.26
208.911	-0.17
209.13	32.6
209.349	8.02
209.567	10.07
209.786	-53.42
210.005	81.75
210.223	12.12
210.442	10.07
210.661	3.93
210.879	-10.41
211.098	10.07
211.316	1.88
211.535	57.17
211.753	32.6
211.972	-4.27
212.191	55.12
212.409	65.36
212.628	20.31
212.846	-26.79
213.065	67.41
213.283	32.6
213.502	-14.51
213.72	8.02
213.938	75.6
214.157	-6.31
214.375	8.02
214.594	-14.51
214.812	108.37
215.031	8.02
215.249	-2.22
215.467	-22.7
215.686	-53.42
215.904	34.64
216.122	-55.47
216.341	28.5
216.559	59.22
216.778	44.88
216.996	100.18
217.214	-4.27
217.432	34.64
217.651	40.79
217.869	-63.66
218.087	40.79
218.306	85.84
218.524	-8.36
218.742	40.79
218.96	65.36
219.179	18.26
219.397	44.88
219.615	36.69
219.833	16.21
220.051	16.21
220.27	67.41
220.488	-34.99
220.706	73.56
220.924	1.88
221.142	-18.6
221.36	-28.84
221.578	46.93
221.796	32.6
222.015	10.07
222.233	71.51
222.451	57.17
222.669	57.17
222.887	44.88
223.105	61.27
223.323	12.12
223.541	30.55
223.759	-34.99
223.977	44.88
224.195	48.98
224.413	81.75
224.631	77.65
224.849	36.69
225.067	73.56
225.285	-65.71
225.503	42.84
225.721	14.17
225.939	22.36
226.157	12.12
226.375	122.71
226.592	26.45
226.81	10.07
227.028	71.51
227.246	-4.27
227.464	61.27
227.682	10.07
227.9	98.13
228.117	18.26
228.335	-24.75
228.553	44.88
228.771	36.69
228.989	16.21
229.206	81.75
229.424	73.56
229.642	-28.84
229.86	20.31
230.077	55.12
230.295	20.31
230.513	24.4
230.731	130.9
230.948	81.75
231.166	116.56
231.384	1.88
231.601	157.52
231.819	3.93
232.037	-14.51
232.254	3.93
232.472	24.4
232.689	-12.46
232.907	77.65
233.125	26.45
233.342	-6.31
233.56	42.84
233.777	34.64
233.995	44.88
234.213	67.41
234.43	61.27
234.648	16.21
234.865	26.45
235.083	71.51
235.3	-34.99
235.518	-8.36
235.735	122.71
235.953	61.27
236.17	59.22
236.388	8.02
236.605	57.17
236.822	38.74
237.04	3.93
237.257	-20.65
237.475	-55.47
237.692	32.6
237.909	59.22
238.127	-2.22
238.344	65.36
238.562	26.45
238.779	-14.51
238.996	32.6
239.214	1.88
239.431	12.12
239.648	16.21
239.865	-24.75
240.083	155.47
240.3	12.12
240.517	38.74
240.735	73.56
240.952	24.4
241.169	118.61
241.386	85.84
241.603	36.69
241.821	-51.37
242.038	85.84
242.255	89.94
242.472	-45.23
242.689	100.18
242.907	69.46
243.124	106.32
243.341	42.84
243.558	-8.36
243.775	-14.51
243.992	-53.42
244.209	26.45
244.426	48.98
244.643	-32.94
244.86	-45.23
245.078	38.74
245.295	8.02
245.512	46.93
245.729	20.31
245.946	-12.46
246.163	69.46
246.38	42.84
246.597	89.94
246.814	44.88
247.031	-4.27
247.248	14.17
247.464	-20.65
247.681	71.51
247.898	46.93
248.115	48.98
248.332	73.56
248.549	61.27
248.766	38.74
248.983	73.56
249.2	61.27
249.417	32.6
249.633	20.31
249.85	1.88
250.067	22.36
250.284	53.08
250.501	3.93
250.717	108.37
250.934	24.4
251.151	44.88
251.368	-4.27
251.585	48.98
251.801	-4.27
252.018	-67.75
252.235	-0.17
252.451	51.03
252.668	3.93
252.885	8.02
253.102	46.93
253.318	32.6
253.535	28.5
253.752	-20.65
253.968	24.4
254.185	-41.13
254.401	38.74
254.618	10.07
254.835	38.74
255.051	73.56
255.268	24.4
255.484	-12.46
255.701	20.31
255.917	53.08
256.134	-39.08
256.351	-10.41
256.567	-10.41
256.784	26.45
257	-43.18
257.217	-14.51
257.433	87.89
257.65	73.56
257.866	8.02
258.082	3.93
258.299	20.31
258.515	34.64
258.732	44.88
258.948	38.74
259.165	34.64
259.381	28.5
259.597	30.55
259.814	44.88
260.03	36.69
260.246	28.5
260.463	106.32
260.679	59.22
260.895	20.31
261.112	59.22
261.328	-4.27
261.544	-37.03
261.761	147.28
261.977	3.93
262.193	-0.17
262.409	46.93
262.626	89.94
262.842	-24.75
263.058	12.12
263.274	-20.65
263.49	65.36
263.707	12.12
263.923	42.84
264.139	5.97
264.355	26.45
264.571	73.56
264.787	61.27
265.004	8.02
265.22	20.31
265.436	30.55
265.652	-4.27
265.868	12.12
266.084	81.75
266.3	51.03
266.516	63.32
266.732	10.07
266.948	36.69
267.164	-28.84
267.38	42.84
267.596	75.6
267.812	128.85
268.028	61.27
268.244	18.26
268.46	44.88
268.676	-47.27
268.892	44.88
269.108	51.03
269.324	-14.51
269.54	-2.22
269.756	79.7
269.972	34.64
270.188	-22.7
270.403	3.93
270.619	28.5
270.835	114.52
271.051	46.93
271.267	83.8
271.483	-18.6
271.698	12.12
271.914	28.5
272.13	-4.27
272.346	77.65
272.562	36.69
272.777	44.88
272.993	36.69
273.209	22.36
273.425	-10.41
273.64	26.45
273.856	44.88
274.072	-4.27
274.287	51.03
274.503	46.93
274.719	83.8
274.934	61.27
275.15	-22.7
275.366	89.94
275.581	-22.7
275.797	20.31
276.012	1.88
276.228	32.6
276.444	-73.9
276.659	57.17
276.875	-0.17
277.09	16.21
277.306	18.26
277.521	16.21
277.737	44.88
277.952	12.12
278.168	8.02
278.383	30.55
278.599	-4.27
278.814	26.45
279.03	32.6
279.245	102.23
279.461	28.5
279.676	-20.65
279.892	34.64
280.107	-2.22
280.322	-45.23
280.538	40.79
280.753	36.69
280.969	36.69
281.184	38.74
281.399	67.41
281.615	26.45
281.83	-0.17
282.045	-4.27
282.26	-55.47
282.476	44.88
282.691	81.75
282.906	-41.13
283.122	30.55
283.337	-2.22
283.552	-14.51
283.767	51.03
283.983	94.04
284.198	28.5
284.413	59.22
284.628	-39.08
284.843	14.17
285.058	100.18
285.274	-4.27
285.489	1.88
285.704	24.4
285.919	51.03
286.134	110.42
286.349	-53.42
286.564	61.27
286.779	48.98
286.995	-12.46
287.21	-8.36
287.425	34.64
287.64	20.31
287.855	26.45
288.07	-61.61
288.285	94.04
288.5	44.88
288.715	104.28
288.93	5.97
289.145	3.93
289.36	36.69
289.575	69.46
289.79	28.5
290.004	-32.94
290.219	63.32
290.434	22.36
290.649	26.45
290.864	44.88
291.079	61.27
291.294	40.79
291.509	53.08
291.724	32.6
291.938	16.21
292.153	98.13
292.368	65.36
292.583	26.45
292.798	91.99
293.012	-16.55
293.227	36.69
293.442	63.32
293.657	-0.17
293.871	96.08
294.086	10.07
294.301	-14.51
294.516	42.84
294.73	67.41
294.945	10.07
295.16	106.32
295.374	61.27
295.589	51.03
295.804	38.74
296.018	3.93
296.233	59.22
296.447	5.97
296.662	38.74
296.877	108.37
297.091	44.88
297.306	94.04
297.52	61.27
297.735	51.03
297.949	12.12
298.164	3.93
298.378	132.95
298.593	75.6
298.807	1.88
299.022	32.6
299.236	135
299.451	57.17
299.665	69.46
299.88	108.37
300.094	67.41
300.309	-26.79
300.523	59.22
300.737	34.64
300.952	53.08
301.166	79.7
301.381	73.56
301.595	65.36
301.809	102.23
302.024	42.84
302.238	28.5
302.452	61.27
302.667	30.55
302.881	83.8
303.095	81.75
303.309	40.79
303.524	32.6
303.738	81.75
303.952	36.69
304.166	24.4
304.381	-24.75
304.595	167.76
304.809	-37.03
305.023	32.6
305.237	51.03
305.452	59.22
305.666	34.64
305.88	51.03
306.094	12.12
306.308	59.22
306.522	77.65
306.736	44.88
306.95	-16.55
307.164	3.93
307.379	28.5
307.593	59.22
307.807	83.8
308.021	116.56
308.235	44.88
308.449	10.07
308.663	-14.51
308.877	40.79
309.091	40.79
309.305	46.93
309.519	-86.19
309.733	100.18
309.947	12.12
310.161	14.17
310.374	20.31
310.588	69.46
310.802	12.12
311.016	46.93
311.23	53.08
311.444	-10.41
311.658	18.26
311.872	55.12
312.085	87.89
312.299	85.84
312.513	94.04
312.727	67.41
312.941	22.36
313.154	116.56
313.368	53.08
313.582	18.26
313.796	26.45
314.009	20.31
314.223	143.19
314.437	87.89
314.651	-32.94
314.864	-12.46
315.078	22.36
315.292	24.4
315.505	10.07
315.719	-0.17
315.933	-4.27
316.146	-16.55
316.36	55.12
316.573	139.09
316.787	46.93
317.001	-18.6
317.214	65.36
317.428	36.69
317.641	10.07
317.855	-10.41
318.068	44.88
318.282	5.97
318.495	48.98
318.709	63.32
318.922	18.26
319.136	61.27
319.349	51.03
319.563	44.88
319.776	34.64
319.99	-32.94
320.203	-4.27
320.417	36.69
320.63	48.98
320.843	87.89
321.057	51.03
321.27	85.84
321.483	8.02
321.697	28.5
321.91	53.08
322.124	12.12
322.337	83.8
322.55	20.31
322.763	83.8
322.977	-8.36
323.19	20.31
323.403	96.08
323.617	38.74
323.83	53.08
324.043	87.89
324.256	51.03
324.469	-73.9
324.683	44.88
324.896	26.45
325.109	-0.17
325.322	-37.03
325.535	16.21
325.748	73.56
325.962	81.75
326.175	12.12
326.388	85.84
326.601	18.26
326.814	79.7
327.027	116.56
327.24	126.8
327.453	-24.75
327.666	108.37
327.879	30.55
328.092	-24.75
328.305	51.03
328.518	28.5
328.731	16.21
328.944	63.32
329.157	1.88
329.37	59.22
329.583	36.69
329.796	28.5
330.009	51.03
330.222	65.36
330.435	1.88
330.648	57.17
330.861	69.46
331.073	83.8
331.286	69.46
331.499	85.84
331.712	69.46
331.925	-49.32
332.138	69.46
332.35	38.74
332.563	44.88
332.776	53.08
332.989	8.02
333.202	79.7
333.414	55.12
333.627	8.02
333.84	-20.65
334.053	34.64
334.265	44.88
334.478	36.69
334.691	85.84
334.903	51.03
335.116	73.56
335.329	5.97
335.541	65.36
335.754	61.27
335.966	61.27
336.179	3.93
336.392	44.88
336.604	77.65
336.817	57.17
337.029	-16.55
337.242	57.17
337.454	-6.31
337.667	-6.31
337.88	116.56
338.092	65.36
338.305	51.03
338.517	-12.46
338.729	-4.27
338.942	34.64
339.154	91.99
339.367	-28.84
339.579	42.84
339.792	3.93
340.004	-10.41
340.217	61.27
340.429	48.98
340.641	59.22
340.854	46.93
341.066	24.4
341.278	16.21
341.491	94.04
341.703	63.32
341.915	-6.31
342.128	12.12
342.34	59.22
342.552	57.17
342.764	71.51
342.977	100.18
343.189	55.12
343.401	81.75
343.613	-2.22
343.826	81.75
344.038	57.17
344.25	42.84
344.462	-8.36
344.674	67.41
344.886	46.93
345.099	51.03
345.311	94.04
345.523	106.32
345.735	12.12
345.947	14.17
346.159	79.7
346.371	24.4
346.583	48.98
346.795	83.8
347.007	3.93
347.219	-0.17
347.431	40.79
347.643	87.89
347.855	28.5
348.067	20.31
348.279	79.7
348.491	120.66
348.703	61.27
348.915	18.26
349.127	-28.84
349.339	24.4
349.551	10.07
349.763	-6.31
349.975	59.22
350.187	151.38
350.399	28.5
350.61	108.37
350.822	63.32
351.034	28.5
351.246	-20.65
351.458	104.28
351.669	20.31
351.881	53.08
352.093	69.46
352.305	16.21
352.517	112.47
352.728	-0.17
352.94	75.6
353.152	-16.55
353.363	24.4
353.575	8.02
353.787	108.37
353.999	91.99
354.21	67.41
354.422	-8.36
354.633	-4.27
354.845	40.79
355.057	14.17
355.268	34.64
355.48	36.69
355.692	-49.32
355.903	28.5
356.115	10.07
356.326	57.17
356.538	32.6
356.749	44.88
356.961	44.88
357.172	91.99
357.384	28.5
357.595	89.94
357.807	59.22
358.018	14.17
358.23	1.88
358.441	63.32
358.653	44.88
358.864	20.31
359.075	-24.75
359.287	34.64
359.498	75.6
359.709	91.99
359.921	34.64
360.132	130.9
360.344	36.69
360.555	32.6
360.766	30.55
360.977	38.74
361.189	51.03
361.4	3.93
361.611	69.46
361.823	1.88
362.034	10.07
362.245	34.64
362.456	12.12
362.667	48.98
362.879	-0.17
363.09	24.4
363.301	44.88
363.512	32.6
363.723	42.84
363.935	53.08
364.146	83.8
364.357	42.84
364.568	59.22
364.779	55.12
364.99	63.32
365.201	24.4
365.412	118.61
365.623	-6.31
365.834	42.84
366.045	128.85
366.256	57.17
366.467	34.64
366.678	71.51
366.889	32.6
367.1	61.27
367.311	48.98
367.522	79.7
367.733	42.84
367.944	26.45
368.155	40.79
368.366	143.19
368.577	-2.22
368.788	98.13
368.999	63.32
369.209	73.56
369.42	96.08
369.631	159.57
369.842	112.47
370.053	-0.17
370.264	53.08
370.474	44.88
370.685	69.46
370.896	63.32
371.107	61.27
371.317	100.18
371.528	48.98
371.739	116.56
371.95	3.93
372.16	59.22
372.371	132.95
372.582	-2.22
372.792	26.45
373.003	51.03
373.214	77.65
373.424	73.56
373.635	3.93
373.846	75.6
374.056	48.98
374.267	69.46
374.477	59.22
374.688	110.42
374.898	1.88
375.109	98.13
375.319	81.75
375.53	106.32
375.74	55.12
375.951	32.6
376.161	67.41
376.372	57.17
376.582	12.12
376.793	44.88
377.003	-16.55
377.214	34.64
377.424	-30.89
377.635	26.45
377.845	28.5
378.055	26.45
378.266	75.6
378.476	81.75
378.686	24.4
378.897	44.88
379.107	100.18
379.317	53.08
379.528	69.46
379.738	36.69
379.948	51.03
380.158	96.08
380.369	67.41
380.579	22.36
380.789	34.64
380.999	46.93
381.21	53.08
381.42	98.13
381.63	79.7
381.84	63.32
382.05	61.27
382.261	96.08
382.471	69.46
382.681	126.8
382.891	102.23
383.101	46.93
383.311	91.99
383.521	32.6
383.731	75.6
383.941	71.51
384.151	100.18
384.361	30.55
384.571	83.8
384.781	46.93
384.991	83.8
385.201	180.05
385.411	89.94
385.621	79.7
385.831	59.22
386.041	65.36
386.251	124.76
386.461	77.65
386.671	8.02
386.881	85.84
387.091	22.36
387.301	135
387.511	51.03
387.72	59.22
387.93	94.04
388.14	73.56
388.35	38.74
388.56	81.75
388.769	73.56
388.979	48.98
389.189	30.55
389.399	26.45
389.609	26.45
389.818	71.51
390.028	81.75
390.238	20.31
390.447	118.61
390.657	124.76
390.867	94.04
391.076	36.69
391.286	83.8
391.496	77.65
391.705	124.76
391.915	145.24
392.125	36.69
392.334	42.84
392.544	59.22
392.753	98.13
392.963	98.13
393.172	57.17
393.382	57.17
393.591	122.71
393.801	63.32
394.01	44.88
394.22	135
394.429	87.89
394.639	83.8
394.848	116.56
395.058	81.75
395.267	102.23
395.477	110.42
395.686	118.61
395.895	69.46
396.105	171.86
396.314	102.23
396.524	69.46
396.733	118.61
396.942	63.32
397.152	147.28
397.361	112.47
397.57	36.69
397.78	124.76
397.989	81.75
398.198	106.32
398.407	16.21
398.617	98.13
398.826	110.42
399.035	141.14
399.244	180.05
399.453	110.42
399.663	44.88
399.872	171.86
400.081	69.46
400.29	126.8
400.499	79.7
400.708	81.75
400.917	75.6
401.127	83.8
401.336	126.8
401.545	167.76
401.754	69.46
401.963	63.32
402.172	110.42
402.381	126.8
402.59	94.04
402.799	114.52
403.008	48.98
403.217	116.56
403.426	137.04
403.635	63.32
403.844	165.71
404.053	122.71
404.262	135
404.471	173.91
404.68	200.53
404.888	171.86
405.097	202.58
405.306	137.04
405.515	151.38
405.724	126.8
405.933	204.63
406.142	239.44
406.35	198.48
406.559	116.56
406.768	159.57
406.977	192.34
407.185	214.87
407.394	192.34
407.603	114.52
407.812	302.93
408.02	255.83
408.229	184.15
408.438	218.96
408.646	153.43
408.855	259.92
409.064	294.74
409.272	245.59
409.481	282.45
409.69	272.21
409.898	233.3
410.107	333.65
410.315	282.45
410.524	294.74
410.733	382.8
410.941	354.13
411.15	393.04
411.358	401.23
411.567	390.99
411.775	450.38
411.984	384.85
412.192	462.67
412.401	464.72
412.609	489.29
412.818	534.35
413.026	470.86
413.234	491.34
413.443	552.78
413.651	507.73
413.86	552.78
414.068	565.07
414.276	606.03
414.485	587.6
414.693	694.09
414.901	716.62
415.11	679.75
415.318	702.28
415.526	735.05
415.734	751.43
415.943	749.39
416.151	933.7
416.359	868.17
416.567	857.93
416.776	976.71
416.984	915.27
417.192	1009.48
417.4	1015.62
417.608	896.84
417.817	1083.2
418.025	1093.44
418.233	1183.56
418.441	1120.07
418.649	1183.56
418.857	1247.04
419.065	1345.34
419.273	1257.28
419.481	1390.4
419.689	1425.22
419.897	1484.61
420.105	1507.13
420.313	1546.05
420.521	1636.16
420.729	1662.78
420.937	1756.99
421.145	1703.74
421.353	1910.58
421.561	1935.16
421.769	1974.07
421.977	2062.13
422.185	2045.75
422.393	2287.41
422.601	2158.39
422.809	2273.07
423.017	2342.71
423.224	2406.19
423.432	2395.95
423.64	2545.45
423.848	2760.49
424.056	2598.7
424.263	2885.42
424.471	2752.3
424.679	2875.18
424.887	3215.14
425.094	3237.67
425.302	3284.77
425.51	3319.59
425.718	3276.58
425.925	3395.36
426.133	3405.6
426.341	3706.65
426.548	4040.47
426.756	3948.31
426.964	3931.93
427.171	4214.55
427.379	4466.45
427.586	4452.11
427.794	4497.17
428.001	4943.63
428.209	5029.64
428.417	4949.77
428.624	5213.96
428.832	5332.74
429.039	5197.57
429.247	5209.86
429.454	5459.71
429.662	6102.78
429.869	5707.52
430.076	6100.73
430.284	5820.16
430.491	6188.79
430.699	6565.62
430.906	6627.06
431.114	6532.85
431.321	6790.89
431.528	7010.03
431.736	7438.05
431.943	7685.86
432.15	7479.01
432.358	7847.65
432.565	8048.35
432.772	7829.21
432.979	8294.1
433.187	8546
433.394	8429.27
433.601	9148.11
433.808	9070.28
434.016	9082.57
434.223	9471.68
434.43	9963.2
434.637	9920.19
434.844	10589.88
435.052	10710.71
435.259	10477.24
435.466	10677.94
435.673	10510
435.88	11394.73
436.087	11941.54
436.294	11830.94
436.501	11673.25
436.708	11994.78
436.915	12236.44
437.122	12756.63
437.329	12684.95
437.537	13012.62
437.743	13315.72
437.95	13217.42
438.157	13739.65
438.364	14192.25
438.571	14210.68
438.778	14509.69
438.985	15912.55
439.192	15187.57
439.399	15656.55
439.606	15339.12
439.813	16225.89
440.02	17245.77
440.227	16774.74
440.433	16856.66
440.64	17370.7
440.847	17352.27
441.054	17598.02
441.261	18581.05
441.467	18400.83
441.674	18855.48
441.881	19459.63
442.088	19353.13
442.294	19246.64
442.501	19678.76
442.708	19961.38
442.914	20862.49
443.121	21976.58
443.328	21249.55
443.534	22957.56
443.741	22011.4
443.948	21558.8
444.154	23440.88
444.361	23223.79
444.568	23604.72
444.774	23318
444.981	23754.22
445.187	24384.99
445.394	25599.44
445.6	24974.81
445.807	27207.09
446.013	26238.4
446.22	26826.17
446.426	27739.57
446.633	27872.68
446.839	28681.63
447.046	27764.14
447.252	29040.03
447.459	28964.25
447.665	28765.6
447.871	30401.93
448.078	31440.25
448.284	29824.4
448.491	30535.04
448.697	32048.49
448.903	32841.06
449.11	32540
449.316	32003.44
449.522	33035.61
449.728	33008.99
449.935	33674.58
450.141	33439.06
450.347	34121.04
450.553	33500.5
450.76	33789.27
450.966	34655.56
451.172	34182.48
451.378	35241.28
451.584	34346.31
451.791	35124.54
451.997	34846.02
452.203	35425.59
452.409	35059.01
452.615	35435.83
452.821	33707.35
453.027	33424.73
453.233	35394.87
453.44	33776.98
453.646	34475.34
453.852	34340.17
454.058	34651.46
454.264	34182.48
454.47	34395.46
454.676	33428.82
454.882	34745.67
455.088	31677.81
455.294	32161.13
455.5	32486.76
455.705	32740.71
455.911	31616.37
456.117	30891.39
456.323	30090.63
456.529	29037.98
456.735	30143.88
456.941	29146.52
457.147	28814.75
457.352	27989.42
457.558	27215.29
457.764	27733.42
457.97	27352.5
458.176	26443.2
458.381	26492.35
458.587	25105.88
458.793	25370.07
458.999	23772.65
459.204	25511.38
459.41	24923.61
459.616	23223.79
459.821	23123.44
460.027	23086.58
460.233	22568.44
460.438	21380.62
460.644	21831.18
460.85	20618.78
461.055	20375.07
461.261	20606.49
461.466	18982.45
461.672	18142.78
461.878	19498.54
462.083	18415.16
462.289	18093.63
462.494	17768.01
462.7	17163.86
462.905	16698.97
463.111	17215.05
463.316	17149.52
463.522	16899.67
463.727	17020.5
463.932	16907.86
464.138	16846.42
464.343	16957.01
464.549	16281.18
464.754	16741.97
464.959	16850.52
465.165	16543.32
465.37	16012.9
465.575	15433.32
465.781	16262.75
465.986	16186.97
466.191	15461.99
466.397	15226.48
466.602	14591.61
466.807	15146.61
467.012	14958.19
467.218	15103.6
467.423	14847.6
467.628	15050.35
467.833	15482.47
468.038	15085.17
468.244	14333.56
468.449	14966.38
468.654	14478.97
468.859	14616.18
469.064	14532.22
469.269	13850.24
469.474	14198.4
469.679	14196.35
469.885	13823.62
470.09	13993.6
470.295	14081.66
470.5	13471.37
470.705	13696.64
470.91	13315.72
471.115	13227.66
471.32	13164.17
471.525	13342.35
471.73	13108.88
471.935	13016.72
472.139	12478.1
472.344	12867.22
472.549	12549.78
472.754	12521.11
472.959	12205.72
473.164	11908.77
473.369	11804.32
473.574	12175
473.778	12088.99
473.983	12119.71
474.188	11964.06
474.393	11452.07
474.598	11370.15
474.802	11372.2
475.007	11228.84
475.212	11376.3
475.417	10827.44
475.621	11124.4
475.826	10796.72
476.031	10665.65
476.235	10432.18
476.44	10591.92
476.645	10356.41
476.849	10542.77
477.054	10333.88
477.259	10141.37
477.463	10215.1
477.668	9924.29
477.872	10084.03
478.077	9762.5
478.282	9574.08
478.486	9744.06
478.691	9739.97
478.895	9578.18
479.1	9721.54
479.304	9602.75
479.509	9197.26
479.713	9412.29
479.918	9203.4
480.122	8965.84
480.326	9334.47
480.531	9141.96
480.735	8971.98
480.94	9041.61
481.144	9119.43
481.348	8713.94
481.553	8982.22
481.757	8724.18
481.961	9127.63
482.166	9137.87
482.37	8971.98
482.574	8722.13
482.778	8881.87
482.983	8969.93
483.187	8974.03
483.391	8982.22
483.595	8871.63
483.8	8842.96
484.004	8994.51
484.208	8990.41
484.412	8912.59
484.616	8875.73
484.821	9012.94
485.025	8836.81
485.229	8859.34
485.433	8756.94
485.637	9049.8
485.841	8718.03
486.045	8748.75
486.249	8951.5
486.453	8636.11
486.657	8802
486.861	8832.72
487.065	8496.85
487.269	8982.22
487.473	8746.7
487.677	8668.88
487.881	8879.82
488.085	8781.52
488.289	8752.85
488.493	8998.6
488.697	8906.45
488.901	8951.5
489.105	8996.56
489.309	9062.09
489.512	9031.37
489.716	9076.43
489.92	8863.44
490.124	9074.38
490.328	9232.07
490.531	9078.47
490.735	9119.43
490.939	9152.2
491.143	9072.33
491.346	9332.42
491.55	9230.02
491.754	9162.44
491.958	9193.16
492.161	9260.74
492.365	9404.1
492.569	9539.27
492.772	9445.06
492.976	9463.49
493.18	9606.85
493.383	9643.71
493.587	9727.68
493.79	9744.06
493.994	9715.39
494.197	9934.53
494.401	10020.54
494.605	9961.15
494.808	9860.8
495.012	10196.67
495.215	10198.71
495.419	10260.15
495.622	10223.29
495.825	10362.55
496.029	10573.49
496.232	10634.93
496.436	10604.21
496.639	10841.78
496.843	10899.12
497.046	11036.33
497.249	11153.07
497.453	11163.31
497.656	11296.42
497.859	11251.37
498.063	11415.21
498.266	11738.79
498.469	11806.37
498.673	11783.84
498.876	12000.93
499.079	12107.42
499.282	12115.61
499.485	12256.92
499.689	12445.34
499.892	12584.6
500.095	12627.6
500.298	13000.33
500.501	12998.29
500.705	13364.87
500.908	13362.83
501.111	13348.49
501.314	13696.64
501.517	13665.92
501.72	14024.32
501.923	13971.07
502.126	14440.06
502.329	14458.49
502.532	14698.1
502.735	14732.92
502.938	15105.65
503.141	15040.11
503.344	15386.22
503.547	15033.97
503.75	15545.96
503.953	15984.23
504.156	15916.64
504.359	16051.81
504.562	16281.18
504.765	16576.09
504.968	16533.08
505.17	16899.67
505.373	17167.95
505.576	17344.08
505.779	17315.41
505.982	17409.61
506.185	17964.61
506.387	17817.16
506.59	18017.86
506.793	18583.1
506.996	18409.02
507.198	18894.39
507.401	18886.2
507.604	18990.64
507.807	19357.23
508.009	19711.53
508.212	19744.3
508.415	20092.45
508.617	20299.3
508.82	20356.64
509.022	20571.68
509.225	20880.92
509.428	20686.36
509.63	20782.62
509.833	21358.1
510.035	22017.54
510.238	21718.54
510.44	22191.62
510.643	22308.35
510.845	22701.56
511.048	22416.9
511.25	22771.19
511.453	23115.25
511.655	23809.51
511.858	23444.98
512.06	24147.43
512.262	23823.85
512.465	24307.17
512.667	24249.83
512.87	24702.43
513.072	24624.61
513.274	25347.54
513.477	25738.7
513.679	25712.08
513.881	26201.54
514.084	26576.32
514.286	26539.46
514.488	26910.14
514.69	27340.21
514.893	27473.33
515.095	27526.58
515.297	27614.64
515.499	27751.85
515.701	28050.86
515.904	28603.81
516.106	28878.24
516.308	29193.62
516.51	29474.2
516.712	29146.52
516.914	29922.7
517.116	30311.81
517.318	30137.74
517.52	30553.48
517.722	30616.96
517.925	31085.95
518.127	31665.52
518.329	31860.08
518.531	31645.04
518.733	32611.68
518.935	32761.19
519.136	32679.27
519.338	33203.55
519.54	33510.74
519.742	33955.15
519.944	34018.64
520.146	34745.67
520.348	34563.4
520.55	34633.03
520.752	34870.59
520.954	35767.6
521.155	35446.07
521.357	36287.79
521.559	36205.87
521.761	36896.03
521.963	36707.62
522.164	36801.83
522.366	37483.8
522.568	37627.16
522.77	37768.47
522.971	38425.87
523.173	38509.83
523.375	38309.13
523.576	38569.22
523.778	38716.68
523.98	39800.05
524.181	39318.78
524.383	39404.8
524.584	40314.09
524.786	39986.42
524.988	40410.35
525.189	41051.36
525.391	40731.88
525.592	41100.51
525.794	41338.08
525.995	41485.53
526.197	41569.5
526.398	41714.9
526.6	41936.09
526.801	41798.87
527.003	42366.16
527.204	42609.87
527.406	42675.4
527.607	42896.58
527.808	43154.63
528.01	42345.68
528.211	43304.13
528.412	43754.68
528.614	43596.99
528.815	43734.2
529.016	44217.52
529.218	43646.14
529.419	43883.7
529.62	44033.21
529.822	44156.08
530.023	44362.93
530.224	44414.13
530.425	44833.96
530.626	43955.38
530.828	44182.71
531.029	45237.41
531.23	44782.76
531.431	44702.89
531.632	44821.67
531.833	45022.37
532.035	45153.44
532.236	45229.22
532.437	45329.57
532.638	45128.87
532.839	45452.45
533.04	45208.74
533.241	45298.85
533.442	45827.23
533.643	45810.84
533.844	45470.88
534.045	45737.12
534.246	45415.58
534.447	45837.47
534.648	45604
534.849	45620.38
535.05	45554.85
535.251	45655.2
535.451	45765.79
535.652	46333.07
535.853	45978.78
536.054	46310.55
536.255	46126.23
536.456	45886.62
536.657	46310.55
536.857	45792.41
537.058	46034.07
537.259	46197.91
537.46	45655.2
537.66	46036.12
537.861	45917.34
538.062	45876.38
538.263	46486.67
538.463	46120.09
538.664	46177.43
538.865	45839.51
539.065	46546.06
539.266	45726.88
539.466	46179.48
539.667	45675.68
539.868	46578.83
540.068	45800.6
540.269	45759.64
540.469	46154.9
540.67	45388.96
540.87	45946.01
541.071	45829.27
541.271	45931.67
541.472	45986.97
541.672	46036.12
541.873	45657.24
542.073	45835.42
542.274	46642.32
542.474	45950.1
542.675	45165.73
542.875	45841.56
543.075	45859.99
543.276	45784.22
543.476	46142.61
543.676	45915.29
543.877	46052.5
544.077	45921.43
544.277	45659.29
544.478	45446.3
544.678	45790.36
544.878	46023.83
545.078	45847.71
545.279	45692.06
545.479	45565.09
545.679	45454.5
545.879	45812.89
546.079	45659.29
546.28	45735.07
546.48	45184.16
546.68	46175.38
546.88	45692.06
547.08	45626.53
547.28	45663.39
547.48	45366.43
547.68	45667.48
547.88	45030.57
548.081	45464.74
548.281	45513.89
548.481	45511.84
548.681	45614.24
548.881	45565.09
549.081	45409.44
549.28	45315.23
549.48	45937.82
549.68	45649.05
549.88	46199.96
550.08	45472.93
550.28	45288.61
550.48	45470.88
550.68	45753.5
550.88	45104.29
551.08	45452.45
551.279	45771.93
551.479	45132.96
551.679	45663.39
551.879	45380.77
552.079	45407.39
552.278	45159.59
552.478	45495.46
552.678	45601.95
552.878	45081.77
553.077	44942.5
553.277	44962.98
553.477	45757.6
553.676	45106.34
553.876	44860.58
554.076	44709.04
554.275	44885.16
554.475	44446.9
554.674	44879.02
554.874	44969.13
555.074	44903.59
555.273	44582.06
555.473	45440.16
555.672	44616.88
555.872	44856.49
556.071	44770.47
556.271	45159.59
556.47	44201.14
556.67	44219.57
556.869	44123.32
557.068	44782.76
557.268	44002.49
557.467	44627.12
557.667	43996.34
557.866	44448.94
558.065	43992.25
558.265	43979.96
558.464	43488.45
558.663	44051.64
558.863	43478.21
559.062	44352.69
559.261	43390.14
559.461	44471.47
559.66	43470.01
559.859	43533.5
560.058	43332.8
560.258	43558.08
560.457	42984.65
560.656	43564.22
560.855	42849.48
561.054	43644.09
561.253	42505.42
561.453	43070.66
561.652	42923.21
561.851	43347.14
562.05	42640.59
562.249	42198.23
562.448	42818.76
562.647	42702.03
562.846	42163.41
563.045	42693.83
563.244	42034.39
563.443	42353.87
563.642	41915.61
563.841	42192.08
564.04	41811.16
564.239	42222.8
564.438	41473.24
564.637	41637.08
564.836	41215.2
565.035	41219.3
565.234	41413.85
565.432	41112.8
565.631	40854.76
565.83	41182.43
566.029	40723.69
566.228	40938.72
566.427	40680.68
566.625	40590.57
566.824	40293.61
567.023	41094.37
567.222	40049.91
567.42	40899.81
567.619	40195.31
567.818	40113.39
568.016	39734.52
568.215	40004.85
568.414	39941.36
568.612	40226.03
568.811	39683.32
569.01	39390.46
569.208	38884.61
569.407	39714.04
569.605	39083.26
569.804	39654.65
570.002	39025.92
570.201	39324.93
570.4	38763.78
570.598	38894.85
570.797	38368.52
570.995	38511.88
571.193	38368.52
571.392	38532.36
571.59	38165.77
571.789	37956.88
571.987	37750.04
572.186	38262.03
572.384	37557.53
572.582	38069.52
572.781	38012.18
572.979	37387.55
573.177	37377.31
573.376	37520.66
573.574	37010.72
573.772	37295.39
573.971	36658.47
574.169	36508.97
574.367	36273.45
574.565	36967.71
574.763	36574.5
574.962	36285.74
575.16	36320.56
575.358	36238.64
575.556	36058.42
575.754	36158.77
575.952	36080.94
576.151	36169.01
576.349	35499.32
576.547	35530.04
576.745	35880.24
576.943	35509.56
577.141	34895.17
577.339	35329.34
577.537	35138.88
577.735	35145.02
577.933	34727.24
578.131	34897.22
578.329	34649.41
578.527	34463.05
578.725	34542.92
578.923	34854.21
579.121	34422.09
579.319	34018.64
579.516	34243.91
579.714	34305.35
579.912	34133.32
580.11	33953.1
580.308	33928.53
580.506	33942.86
580.704	33715.54
580.901	33883.47
581.099	33727.83
581.297	33205.59
581.495	33541.46
581.692	33205.59
581.89	32910.69
582.088	33109.34
582.285	33062.24
582.483	32752.99
582.681	32851.3
582.878	32961.89
583.076	32206.19
583.274	32875.87
583.471	32269.67
583.669	32144.75
583.866	32322.92
584.064	32036.2
584.262	31649.14
584.459	32218.47
584.657	32040.3
584.854	32064.88
585.052	31180.15
585.249	31563.12
585.447	31718.77
585.644	31169.91
585.841	31331.7
586.039	31294.84
586.236	31073.66
586.434	31053.18
586.631	30852.48
586.828	30942.59
587.026	30848.38
587.223	30877.05
587.42	30594.43
587.618	30461.32
587.815	29975.95
588.012	30297.48
588.21	30184.84
588.407	30272.9
588.604	29963.66
588.801	30152.07
588.999	29830.54
589.196	29689.23
589.393	29683.09
589.59	29728.14
589.787	29226.39
589.984	29279.64
590.182	28628.38
590.379	29420.95
590.576	28933.53
590.773	29035.93
590.97	28939.68
591.167	29113.75
591.364	28958.11
591.561	28495.27
591.758	28470.69
591.955	28566.95
592.152	28734.88
592.349	28362.15
592.546	28364.2
592.743	28192.17
592.94	27958.7
593.137	27938.22
593.334	28358.05
593.531	27719.09
593.727	27784.62
593.924	27723.18
594.121	27497.91
594.318	27792.81
594.515	27274.68
594.712	27528.63
594.908	27170.23
595.105	27215.29
595.302	27061.69
595.499	27116.98
595.696	26846.65
595.892	26908.09
596.089	26766.78
596.286	27182.52
596.482	26297.8
596.679	26691.01
596.876	26658.24
597.072	26465.73
597.269	26158.53
597.466	26090.95
597.662	26228.17
597.859	26115.53
598.055	26197.45
598.252	25896.39
598.448	25619.92
598.645	25454.03
598.841	25707.98
599.038	25781.71
599.234	26031.56
599.431	25574.86
599.627	25286.1
599.824	25257.43
600.02	25402.83
600.217	25144.79
600.413	25155.03
600.609	24983
600.806	24896.99
601.002	25075.16
601.198	24589.79
601.395	24835.55
601.591	24419.81
601.787	24577.5
601.984	24270.31
602.18	24810.97
602.376	24264.16
602.572	23983.59
602.769	24149.48
602.965	24022.5
603.161	23969.26
603.357	23731.69
603.553	23811.56
603.75	23981.54
603.946	23733.74
604.142	23758.31
604.338	23221.75
604.534	23660.01
604.73	23145.97
604.926	23328.24
605.122	23352.82
605.318	23088.63
605.514	23139.83
605.71	22978.04
605.906	23162.36
606.102	23035.38
606.298	22717.95
606.494	22941.18
606.69	22902.26
606.886	22830.58
607.082	22355.46
607.278	22402.56
607.474	22535.68
607.67	22361.6
607.866	22111.75
608.062	22322.69
608.257	22240.77
608.453	22273.54
608.649	22007.3
608.845	22023.69
609.041	22306.3
609.236	22175.23
609.432	21698.06
609.628	21743.11
609.824	21827.08
610.019	21794.31
610.215	21765.64
610.411	21900.81
610.606	21388.81
610.802	21579.28
610.998	21872.14
611.193	21583.37
611.389	21386.77
611.584	21319.18
611.78	21313.04
611.976	21364.24
612.171	21046.8
612.367	21132.82
612.562	21255.7
612.758	20790.81
612.953	20839.96
613.149	21204.5
613.344	20758.04
613.539	21155.35
613.735	21005.84
613.93	21073.43
614.126	20825.62
614.321	20940.31
614.517	20606.49
614.712	20430.37
614.907	20430.37
615.103	20682.27
615.298	20469.28
615.493	20827.67
615.688	20170.27
615.884	20561.44
616.079	20112.93
616.274	20450.85
616.47	20393.5
616.665	20454.94
616.86	20041.25
617.055	20194.85
617.25	20041.25
617.445	20346.4
617.641	19760.68
617.836	19953.19
618.031	19723.82
618.226	19875.37
618.421	19721.77
618.616	19562.03
618.811	19406.38
619.006	19844.65
619.201	19371.57
619.396	19539.5
619.591	19338.8
619.786	19357.23
619.981	18902.58
620.176	19136.05
620.371	18759.22
620.566	18949.68
620.761	18984.5
620.956	19177.01
621.151	18619.96
621.346	18683.45
621.541	18239.04
621.735	18763.32
621.93	18341.44
622.125	18122.3
622.32	18046.53
622.515	18060.87
622.709	17712.71
622.904	18107.97
623.099	17847.88
623.294	17837.64
623.488	17540.68
623.683	17391.18
623.878	17319.5
624.072	17643.08
624.267	17083.98
624.462	17159.76
624.656	17184.34
624.851	16948.82
625.046	16864.85
625.24	16815.7
625.435	16639.58
625.629	16875.09
625.824	16361.05
626.018	16639.58
626.213	16242.27
626.407	16578.14
626.602	15959.65
626.796	16229.98
626.991	16064.1
627.185	15851.11
627.38	15859.3
627.574	15849.06
627.768	15539.82
627.963	15464.04
628.157	15365.74
628.352	15412.84
628.546	15289.96
628.74	15224.43
628.935	14978.67
629.129	15089.26
629.323	14845.55
629.517	14935.67
629.712	14651
629.906	14810.74
630.1	14534.26
630.294	14337.66
630.489	14491.26
630.683	14458.49
630.877	14274.17
631.071	13958.78
631.265	14212.73
631.459	14210.68
631.653	14188.16
631.848	14069.37
632.042	13766.28
632.236	13835.91
632.43	13639.3
632.624	13586.05
632.818	13520.52
633.012	13303.43
633.206	13723.27
633.4	13432.46
633.594	13354.63
633.788	13188.75
633.982	13164.17
634.176	13248.14
634.369	13205.13
634.563	12959.38
634.757	12799.63
634.951	12791.44
635.145	12736.15
635.339	12687
635.533	12633.75
635.726	12672.66
635.92	12332.7
636.114	12564.12
636.308	12371.61
636.501	12349.08
636.695	12381.85
636.889	12070.56
637.083	12199.58
637.276	11765.41
637.47	12048.03
637.664	11863.71
637.857	11714.21
638.051	11638.44
638.244	11714.21
638.438	11800.23
638.632	11585.19
638.825	11384.49
639.019	11284.14
639.212	11194.03
639.406	11153.07
639.599	11038.38
639.793	11302.57
639.986	11126.44
640.18	11191.98
640.373	10919.6
640.567	10735.28
640.76	10669.75
640.954	10659.51
641.147	10749.62
641.34	10403.51
641.534	10667.7
641.727	10647.22
641.92	10514.1
642.114	10403.51
642.307	10450.61
642.5	10233.53
642.694	10237.63
642.887	10182.33
643.08	10266.3
643.273	10059.45
643.467	10086.08
643.66	10000.06
643.853	10102.46
644.046	9926.33
644.239	9782.98
644.432	9780.93
644.626	9707.2
644.819	9676.48
645.012	9453.25
645.205	9420.49
645.398	9395.91
645.591	9375.43
645.784	9344.71
645.977	9125.58
646.17	9373.38
646.363	9105.1
646.556	9068.23
646.749	9012.94
646.942	9223.88
647.135	9121.48
647.328	9088.71
647.521	8781.52
647.714	8867.53
647.907	8734.42
648.099	8711.89
648.292	8875.73
648.485	8638.16
648.678	8654.55
648.871	8523.48
649.064	8431.32
649.256	8431.32
649.449	8343.25
649.642	8453.84
649.835	8285.91
650.027	8199.9
650.22	8222.42
650.413	8195.8
650.605	8234.71
650.798	8261.34
650.991	8038.11
651.183	8107.74
651.376	8091.35
651.568	7966.43
651.761	7870.17
651.954	7937.76
652.146	7864.03
652.339	7847.65
652.531	7773.92
652.724	7632.61
652.916	7567.07
653.109	7474.92
653.301	7562.98
653.494	7622.37
653.686	7429.86
653.879	7540.45
654.071	7235.3
654.263	7421.67
654.456	7403.24
654.648	7519.97
654.84	7311.08
655.033	7210.73
655.225	7380.71
655.417	7237.35
655.61	7085.8
655.802	7089.9
655.994	7034.6
656.186	7048.94
656.379	7106.28
656.571	6936.3
656.763	6819.57
656.955	6831.85
657.148	6631.15
657.34	6663.92
657.532	6866.67
657.724	6737.65
657.916	6799.09
658.108	6694.64
658.3	6629.1
658.492	6704.88
658.684	6528.75
658.876	6545.14
659.068	6598.38
659.26	6573.81
659.452	6575.86
659.644	6598.38
659.836	6442.74
660.028	6328.05
660.22	6133.5
660.412	6231.8
660.604	6272.76
660.796	6039.29
660.988	6237.94
661.18	6106.87
661.372	6086.39
661.563	6070.01
661.755	6121.21
661.947	5922.55
662.139	6090.49
662.331	6000.38
662.522	6010.62
662.714	5967.61
662.906	5828.35
663.097	5973.75
663.289	5881.6
663.481	5750.53
663.673	5975.8
663.864	5623.55
664.056	5525.25
664.247	5705.47
664.439	5680.89
664.631	5574.4
664.822	5662.46
665.014	5558.02
665.205	5646.08
665.397	5680.89
665.588	5547.78
665.78	5545.73
665.971	5555.97
666.163	5498.63
666.354	5490.43
666.546	5443.33
666.737	5508.87
666.929	5271.3
667.12	5433.09
667.311	5357.32
667.503	5244.68
667.694	5365.51
667.885	5242.63
668.077	5250.82
668.268	5146.37
668.459	5293.83
668.651	5238.53
668.842	5205.77
669.033	5039.88
669.224	5154.57
669.416	5209.86
669.607	5111.56
669.798	4933.39
669.989	4939.53
670.18	5039.88
670.371	5003.02
670.563	5072.65
670.754	4917
670.945	4972.3
671.136	5033.74
671.327	4900.62
671.518	4976.39
671.709	4835.08
671.9	4898.57
672.091	4890.38
672.282	4833.04
672.473	4816.65
672.664	4910.86
672.855	4787.98
673.046	4937.48
673.237	4851.47
673.428	4777.74
673.619	4865.8
673.809	4699.92
674	4749.07
674.191	4794.12
674.382	4661.01
674.573	4661.01
674.764	4658.96
674.954	4876.04
675.145	4808.46
675.336	4767.5
675.527	4622.09
675.717	4783.88
675.908	4667.15
676.099	4710.16
676.289	4744.97
676.48	4593.42
676.671	4618
676.861	4642.57
677.052	4548.37
677.243	4663.05
677.433	4566.8
677.624	4656.91
677.814	4611.85
678.005	4579.09
678.195	4445.97
678.386	4570.9
678.576	4593.42
678.767	4603.66
678.957	4562.7
679.148	4661.01
679.338	4626.19
679.529	4595.47
679.719	4495.12
679.909	4667.15
680.1	4556.56
680.29	4519.7
680.481	4529.94
680.671	4624.14
680.861	4550.42
681.052	4546.32
681.242	4409.11
681.432	4609.81
681.622	4450.07
681.813	4505.36
682.003	4501.26
682.193	4554.51
682.383	4548.37
682.573	4493.07
682.764	4493.07
682.954	4443.92
683.144	4511.5
683.334	4474.64
683.524	4405.01
683.714	4554.51
683.904	4368.15
684.094	4570.9
684.284	4626.19
684.474	4542.22
684.664	4378.39
684.854	4577.04
685.044	4470.55
685.234	4452.11
685.424	4384.53
685.614	4347.67
685.804	4415.25
685.994	4345.62
686.184	4292.37
686.374	4280.08
686.564	4173.59
686.753	4206.36
686.943	4343.57
687.133	4218.64
687.323	4173.59
687.513	4386.58
687.702	4187.93
687.892	4114.2
688.082	4208.41
688.272	4329.24
688.461	4183.83
688.651	4179.73
688.841	4063
689.03	4181.78
689.22	4083.48
689.41	4124.44
689.599	4222.74
689.789	4050.71
689.979	4124.44
690.168	4124.44
690.358	4071.19
690.547	4007.7
690.737	4046.62
690.926	3972.89
691.116	3952.41
691.305	3960.6
691.495	3860.25
691.684	3886.87
691.874	3874.59
692.063	3804.96
692.252	3874.59
692.442	3956.5
692.631	3850.01
692.82	3860.25
693.01	3745.56
693.199	3850.01
693.388	3702.56
693.578	3772.19
693.767	3821.34
693.956	3780.38
694.146	3753.76
694.335	3845.91
694.524	3712.8
694.713	3682.08
694.902	3790.62
695.092	3700.51
695.281	3766.04
695.47	3604.25
695.659	3706.65
695.848	3614.49
696.037	3776.28
696.226	3802.91
696.415	3667.74
696.604	3821.34
696.793	3714.84
696.982	3686.17
697.171	3794.72
697.36	3706.65
697.549	3632.93
697.738	3591.97
697.927	3622.69
698.116	3704.6
698.305	3501.86
698.494	3706.65
698.683	3747.61
698.872	3686.17
699.061	3651.36
699.25	3727.13
699.438	3563.29
699.627	3505.95
699.816	3583.77
700.005	3512.1
700.193	3667.74
700.382	3594.01
700.571	3542.82
700.76	3571.49
700.948	3682.08
701.137	3622.69
701.326	3587.87
701.514	3577.63
701.703	3690.27
701.892	3559.2
702.08	3641.12
702.269	3579.68
702.457	3520.29
702.646	3755.8
702.834	3522.34
703.023	3452.7
703.212	3739.42
703.4	3510.05
703.589	3477.28
703.777	3604.25
703.965	3510.05
704.154	3512.1
704.342	3575.58
704.531	3454.75
704.719	3565.34
704.907	3518.24
705.096	3649.31
705.284	3548.96
705.472	3622.69
705.661	3563.29
705.849	3448.61
706.037	3604.25
706.226	3565.34
706.414	3534.62
706.602	3399.46
706.79	3565.34
706.979	3440.42
707.167	3589.92
707.355	3469.09
707.543	3534.62
707.731	3649.31
707.919	3561.25
708.107	3522.34
708.296	3510.05
708.484	3497.76
708.672	3567.39
708.86	3600.16
709.048	3481.38
709.236	3538.72
709.424	3579.68
709.612	3551.01
709.8	3479.33
709.988	3651.36
710.176	3553.06
710.364	3553.06
710.551	3710.75
710.739	3643.17
710.927	3598.11
711.115	3540.77
711.303	3569.44
711.491	3471.14
711.679	3467.04
711.866	3585.82
712.054	3579.68
712.242	3594.01
712.43	3649.31
712.617	3510.05
712.805	3526.43
712.993	3446.56
713.181	3610.4
713.368	3591.97
713.556	3645.21
713.744	3469.09
713.931	3542.82
714.119	3567.39
714.306	3667.74
714.494	3591.97
714.682	3706.65
714.869	3522.34
715.057	3643.17
715.244	3499.81
715.432	3620.64
715.619	3665.69
715.807	3661.6
715.994	3542.82
716.182	3579.68
716.369	3675.93
716.556	3600.16
716.744	3612.45
716.931	3596.06
717.119	3643.17
717.306	3598.11
717.493	3630.88
717.681	3667.74
717.868	3598.11
718.055	3559.2
718.242	3577.63
718.43	3530.53
718.617	3641.12
718.804	3516.19
718.991	3622.69
719.179	3473.18
719.366	3596.06
719.553	3622.69
719.74	3481.38
719.927	3430.18
720.114	3491.62
720.301	3563.29
720.488	3514.14
720.676	3542.82
720.863	3630.88
721.05	3565.34
721.237	3532.58
721.424	3563.29
721.611	3546.91
721.798	3501.86
721.985	3612.45
722.172	3399.46
722.358	3489.57
722.545	3739.42
722.732	3477.28
722.919	3518.24
723.106	3520.29
723.293	3604.25
723.48	3481.38
723.667	3561.25
723.853	3479.33
724.04	3555.1
724.227	3557.15
724.414	3559.2
724.6	3360.55
724.787	3479.33
724.974	3364.64
725.161	3628.83
725.347	3421.99
725.534	3632.93
725.72	3424.03
725.907	3473.18
726.094	3450.66
726.28	3413.79
726.467	3491.62
726.653	3485.47
726.84	3473.18
727.027	3526.43
727.213	3403.55
727.4	3538.72
727.586	3452.7
727.773	3501.86
727.959	3372.83
728.145	3557.15
728.332	3424.03
728.518	3344.16
728.705	3460.9
728.891	3493.66
729.077	3258.15
729.264	3536.67
729.45	3311.39
729.636	3499.81
729.823	3335.97
730.009	3288.87
730.195	3536.67
730.382	3417.89
730.568	3276.58
730.754	3491.62
730.94	3389.22
731.126	3278.63
731.313	3346.21
731.499	3211.04
731.685	3424.03
731.871	3464.99
732.057	3360.55
732.243	3297.06
732.429	3411.75
732.615	3286.82
732.801	3272.48
732.987	3211.04
733.173	3378.98
733.359	3450.66
733.545	3333.92
733.731	3258.15
733.917	3325.73
734.103	3297.06
734.289	3315.49
734.475	3413.79
734.661	3231.52
734.847	3325.73
735.033	3198.76
735.219	3317.54
735.404	3256.1
735.59	3260.2
735.776	3284.77
735.962	3411.75
736.148	3358.5
736.333	3352.35
736.519	3206.95
736.705	3165.99
736.89	3149.61
737.076	3252
737.262	3206.95
737.447	3182.37
737.633	3112.74
737.819	3223.33
738.004	3114.79
738.19	3247.91
738.375	3223.33
738.561	3206.95
738.747	3223.33
738.932	3018.54
739.118	3313.44
739.303	3264.29
739.489	3055.4
739.674	3014.44
739.859	3186.47
740.045	3165.99
740.23	3057.45
740.416	3092.26
740.601	3047.21
740.786	3186.47
740.972	2989.86
741.157	2993.96
741.342	2971.43
741.528	3084.07
741.713	2979.62
741.898	2918.18
742.084	3014.44
742.269	2963.24
742.454	2938.66
742.639	2944.81
742.824	2967.34
743.01	2981.67
743.195	2957.1
743.38	2879.27
743.565	2881.32
743.75	2871.08
743.935	2862.89
744.12	2985.77
744.305	2838.31
744.49	2942.76
744.675	2834.22
744.86	2811.69
745.045	2797.35
745.23	2826.03
745.415	2785.07
745.6	2838.31
745.785	2662.19
745.97	2752.3
746.155	2658.09
746.34	2729.77
746.525	2705.2
746.71	2692.91
746.895	2604.85
747.079	2625.33
747.264	2705.2
747.449	2742.06
747.634	2623.28
747.819	2580.27
748.003	2387.76
748.188	2410.29
748.373	2484.02
748.557	2658.09
748.742	2475.82
748.927	2469.68
749.111	2412.34
749.296	2512.69
749.481	2543.41
749.665	2475.82
749.85	2436.91
750.034	2328.37
750.219	2273.07
750.404	2230.07
750.588	2187.06
750.773	2287.41
750.957	2207.54
751.141	2318.13
751.326	2332.47
751.51	2201.4
751.695	2279.22
751.879	2223.92
752.064	2164.53
752.248	2103.09
752.432	2158.39
752.617	2187.06
752.801	2158.39
752.985	2090.81
753.17	2082.61
753.354	2092.85
753.538	2006.84
753.722	2000.69
753.907	1838.91
754.091	2023.22
754.275	1963.83
754.459	1933.11
754.643	1955.64
754.828	1982.26
755.012	1969.98
755.196	1933.11
755.38	1906.49
755.564	1900.34
755.748	1851.19
755.932	1820.47
756.116	1845.05
756.3	1877.82
756.484	1838.91
756.668	1875.77
756.852	1765.18
757.036	1781.56
757.22	1863.48
757.404	1765.18
757.588	1738.55
757.772	1707.84
757.956	1687.36
758.14	1662.78
758.323	1642.3
758.507	1738.55
758.691	1607.48
758.875	1687.36
759.059	1617.72
759.242	1597.24
759.426	1720.12
759.61	1668.92
759.794	1646.4
759.977	1627.96
760.161	1646.4
760.345	1605.44
760.528	1607.48
760.712	1619.77
760.895	1476.41
761.079	1470.27
761.263	1548.09
761.446	1472.32
761.63	1525.57
761.813	1470.27
761.997	1412.93
762.18	1525.57
762.364	1378.11
762.547	1394.5
762.731	1509.18
762.914	1470.27
763.098	1482.56
763.281	1546.05
763.464	1388.35
763.648	1380.16
763.831	1470.27
764.015	1343.3
764.198	1507.13
764.381	1460.03
764.564	1331.01
764.748	1392.45
764.931	1361.73
765.114	1328.96
765.297	1341.25
765.481	1429.31
765.664	1343.3
765.847	1320.77
766.03	1339.2
766.213	1281.86
766.397	1345.34
766.58	1230.66
766.763	1414.98
766.946	1277.76
767.129	1199.94
767.312	1263.43
767.495	1191.75
767.678	1265.47
767.861	1242.95
768.044	1179.46
768.227	1253.19
768.41	1206.08
768.593	1281.86
768.776	1171.27
768.959	1064.77
769.142	1201.99
769.324	1175.36
769.507	1206.08
769.69	1193.8
769.873	1150.79
770.056	1187.65
770.239	1220.42
770.421	1208.13
770.604	1126.21
770.787	1165.12
770.97	1140.55
771.152	1077.06
771.335	1085.25
771.518	1099.59
771.7	1109.83
771.883	1249.09
772.066	970.57
772.248	1091.4
772.431	1142.6
772.613	1083.2
772.796	1064.77
772.978	1027.91
773.161	1027.91
773.343	993.09
773.526	982.85
773.708	915.27
773.891	945.99
774.073	1044.29
774.256	982.85
774.438	1025.86
774.621	1034.05
774.803	925.51
774.985	941.89
775.168	968.52
775.35	950.09
775.532	1048.39
775.715	909.13
775.897	970.57
776.079	933.7
776.261	976.71
776.444	886.6
776.626	923.46
776.808	921.42
776.99	997.19
777.173	870.22
777.355	864.07
777.537	814.92
777.719	900.94
777.901	882.5
778.083	837.45
778.265	954.18
778.447	819.02
778.629	790.35
778.811	823.11
778.993	790.35
779.175	812.87
779.357	794.44
779.539	743.24
779.721	816.97
779.903	790.35
780.085	810.82
780.267	730.95
780.449	728.91
780.631	735.05
780.812	769.87
780.994	757.58
781.176	741.19
781.358	622.41
781.54	730.95
781.721	636.75
781.903	706.38
782.085	743.24
782.267	683.85
782.448	696.14
782.63	757.58
782.812	657.23
782.993	694.09
783.175	683.85
783.357	714.57
783.538	649.04
783.72	636.75
783.901	702.28
784.083	692.04
784.264	624.46
784.446	603.98
784.627	599.88
784.809	552.78
784.99	683.85
785.172	589.64
785.353	618.32
785.535	581.45
785.716	581.45
785.897	528.21
786.079	616.27
786.26	538.45
786.441	542.54
786.623	515.92
786.804	614.22
786.985	579.4
787.167	548.68
787.348	548.68
787.529	466.77
787.71	526.16
787.891	565.07
788.073	528.21
788.254	577.36
788.435	520.01
788.616	526.16
788.797	458.57
788.978	556.88
789.159	487.25
789.34	450.38
789.522	495.44
789.703	556.88
789.884	466.77
790.065	481.1
790.246	552.78
790.427	536.4
790.607	477.01
790.788	591.69
790.969	464.72
791.15	489.29
791.331	462.67
791.512	501.58
791.693	434
791.874	497.49
792.054	452.43
792.235	419.66
792.416	446.29
792.597	446.29
792.778	464.72
792.958	454.48
793.139	477.01
793.32	436.05
793.5	409.42
793.681	483.15
793.862	425.81
794.042	419.66
794.223	370.51
794.404	487.25
794.584	388.94
794.765	434
794.945	427.85
795.126	413.52
795.306	386.9
795.487	352.08
795.667	442.19
795.848	380.75
796.028	343.89
796.209	393.04
796.389	390.99
796.57	401.23
796.75	341.84
796.93	403.28
797.111	356.18
797.291	411.47
797.471	370.51
797.652	350.03
797.832	425.81
798.012	397.14
798.192	345.94
798.373	362.32
798.553	347.98
798.733	304.98
798.913	347.98
799.093	347.98
799.274	370.51
799.454	290.64
799.634	319.31
799.814	323.41
799.994	380.75
800.174	270.16
800.354	290.64
800.534	354.13
800.714	231.25
800.894	319.31
801.074	278.35
801.254	319.31
801.434	343.89
801.614	307.02
801.794	233.3
801.974	831.3
802.154	296.78
802.334	366.42
802.514	331.6
802.693	350.03
802.873	255.83
803.053	347.98
803.233	302.93
803.413	325.46
803.592	307.02
803.772	290.64
803.952	304.98
804.131	296.78
804.311	239.44
804.491	298.83
804.67	302.93
804.85	229.2
805.03	298.83
805.209	319.31
805.389	204.63
805.568	274.26
805.748	247.63
805.928	200.53
806.107	233.3
806.287	292.69
806.466	180.05
806.646	278.35
806.825	268.11
807.004	286.54
807.184	364.37
807.363	270.16
807.543	225.11
807.722	192.34
807.901	241.49
808.081	184.15
808.26	182.1
808.439	245.59
808.619	282.45
808.798	196.43
808.977	255.83
809.156	270.16
809.336	214.87
809.515	208.72
809.694	225.11
809.873	216.91
810.052	253.78
810.231	231.25
810.411	253.78
810.59	272.21
810.769	192.34
810.948	290.64
811.127	237.39
811.306	143.19
811.485	237.39
811.664	200.53
811.843	237.39
812.022	239.44
812.201	155.47
812.38	237.39
812.559	186.19
812.737	245.59
812.916	204.63
813.095	225.11
813.274	245.59
813.453	202.58
813.632	208.72
813.811	249.68
813.989	184.15
814.168	274.26
814.347	114.52
814.526	149.33
814.704	290.64
814.883	261.97
815.062	227.15
815.24	155.47
815.419	147.28
815.598	266.07
815.776	126.8
815.955	208.72
816.133	241.49
816.312	329.55
816.49	194.39
816.669	208.72
816.847	184.15
817.026	173.91
817.204	233.3
817.383	143.19
817.561	149.33
817.74	190.29
817.918	221.01
818.097	227.15
818.275	206.67
818.453	184.15
818.632	218.96
818.81	196.43
818.988	178
819.167	110.42
819.345	212.82
819.523	151.38
819.701	128.85
819.879	171.86
820.058	130.9
820.236	110.42
820.414	159.57
820.592	137.04
820.77	151.38
820.948	196.43
821.127	137.04
821.305	186.19
821.483	180.05
821.661	163.67
821.839	149.33
822.017	161.62
822.195	159.57
822.373	165.71
822.551	130.9
822.729	237.39
822.907	147.28
823.085	180.05
823.262	110.42
823.44	145.24
823.618	175.95
823.796	149.33
823.974	114.52
824.152	104.28
824.329	102.23
824.507	102.23
824.685	167.76
824.863	96.08
825.04	167.76
825.218	87.89
825.396	130.9
825.574	145.24
825.751	126.8
825.929	130.9
826.107	124.76
826.284	94.04
826.462	118.61
826.639	139.09
826.817	102.23
826.994	12.12
827.172	67.41
827.349	200.53
827.527	102.23
827.704	163.67
827.882	141.14
828.059	96.08
828.237	132.95
828.414	96.08
828.591	34.64
828.769	165.71
828.946	118.61
829.124	118.61
829.301	180.05
829.478	116.56
829.655	114.52
829.833	143.19
830.01	98.13
830.187	94.04
830.364	83.8
830.542	75.6
830.719	159.57
830.896	153.43
831.073	16.21
831.25	122.71
831.427	102.23
831.604	126.8
831.782	128.85
831.959	102.23
832.136	65.36
832.313	153.43
832.49	102.23
832.667	44.88
832.844	91.99
833.021	139.09
833.198	55.12
833.374	124.76
833.551	132.95
833.728	102.23
833.905	118.61
834.082	30.55
834.259	116.56
834.436	149.33
834.612	-12.46
834.789	48.98
834.966	73.56
835.143	110.42
835.319	57.17
835.496	100.18
835.673	108.37
835.85	112.47
836.026	110.42
836.203	130.9
836.38	67.41
836.556	89.94
836.733	67.41
836.909	69.46
837.086	114.52
837.262	-8.36
837.439	151.38
837.616	104.28
837.792	122.71
837.968	53.08
838.145	24.4
838.321	91.99
838.498	126.8
838.674	163.67
838.851	139.09
839.027	57.17
839.203	91.99
839.38	124.76
839.556	51.03
839.732	108.37
839.909	102.23
840.085	106.32
840.261	63.32
840.437	98.13
840.614	44.88
840.79	77.65
840.966	46.93
841.142	106.32
841.318	89.94
841.494	98.13
841.671	98.13
841.847	67.41
842.023	20.31
842.199	32.6
842.375	108.37
842.551	38.74
842.727	-4.27
842.903	98.13
843.079	65.36
843.255	79.7
843.431	124.76
843.607	22.36
843.783	-2.22
843.959	104.28
844.134	44.88
844.31	135
844.486	59.22
844.662	28.5
844.838	30.55
845.013	-4.27
845.189	126.8
845.365	77.65
845.541	94.04
845.716	28.5
845.892	69.46
846.068	44.88
846.244	-2.22
846.419	44.88
846.595	-20.65
846.77	77.65
846.946	87.89
847.122	18.26
847.297	40.79
847.473	63.32
847.648	73.56
847.824	32.6
847.999	14.17
848.175	22.36
848.35	102.23
848.526	38.74
848.701	40.79
848.876	104.28
849.052	139.09
849.227	24.4
849.403	34.64
849.578	38.74
849.753	57.17
849.929	73.56
850.104	14.17
850.279	57.17
850.454	51.03
850.63	32.6
850.805	59.22
850.98	32.6
851.155	10.07
851.33	22.36
851.505	-34.99
851.681	89.94
851.856	79.7
852.031	30.55
852.206	102.23
852.381	-39.08
852.556	59.22
852.731	28.5
852.906	1.88
853.081	36.69
853.256	110.42
853.431	91.99
853.606	-4.27
853.781	18.26
853.956	20.31
854.131	10.07
854.305	102.23
854.48	-14.51
854.655	-16.55
854.83	75.6
855.005	20.31
855.18	71.51
855.354	-45.23
855.529	110.42
855.704	53.08
855.879	28.5
856.053	-22.7
856.228	110.42
856.403	16.21
856.577	57.17
856.752	44.88
856.926	22.36
857.101	34.64
857.276	12.12
857.45	-6.31
857.625	63.32
857.799	75.6
857.974	-61.61
858.148	-0.17
858.323	34.64
858.497	-4.27
858.672	63.32
858.846	-47.27
859.02	110.42
859.195	-26.79
859.369	1.88
859.543	26.45
859.718	16.21
859.892	44.88
860.066	108.37
860.241	108.37
860.415	53.08
860.589	44.88
860.763	24.4
860.938	75.6
861.112	55.12
861.286	3.93
861.46	5.97
861.634	12.12
861.808	46.93
861.982	38.74
862.157	30.55
862.331	-2.22
862.505	10.07
862.679	-34.99
862.853	79.7
863.027	-18.6
863.201	122.71
863.375	-20.65
863.549	81.75
863.722	65.36
863.896	128.85
864.07	12.12
864.244	-8.36
864.418	114.52
864.592	3.93
864.766	32.6
864.939	77.65
865.113	-2.22
865.287	65.36
865.461	55.12
865.634	-24.75
865.808	1.88
865.982	32.6
866.156	57.17
866.329	-4.27
866.503	65.36
866.676	61.27
866.85	-24.75
867.024	87.89
867.197	-43.18
867.371	53.08
867.544	3.93
867.718	10.07
867.891	-14.51
868.065	20.31
868.238	24.4
868.412	1.88
868.585	26.45
868.759	-0.17
868.932	-20.65
869.105	-20.65
869.279	40.79
869.452	8.02
869.625	69.46
869.799	38.74
869.972	16.21
870.145	75.6
870.319	-0.17
870.492	-16.55
870.665	26.45
870.838	36.69
871.011	-4.27
871.185	-14.51
871.358	30.55
871.531	38.74
871.704	-10.41
871.877	59.22
872.05	57.17
872.223	73.56
872.396	-8.36
872.569	51.03
872.742	57.17
872.915	40.79
873.088	16.21
873.261	48.98
873.434	69.46
873.607	32.6
873.78	-4.27
873.953	-18.6
874.126	22.36
874.299	16.21
874.471	-39.08
874.644	24.4
874.817	28.5
874.99	106.32
875.163	8.02
875.335	69.46
875.508	-28.84
875.681	44.88
875.853	73.56
876.026	-12.46
876.199	24.4
876.371	-22.7
876.544	-16.55
876.717	14.17
876.889	-71.85
877.062	28.5
877.234	-6.31
877.407	20.31
877.579	-67.75
877.752	18.26
877.924	36.69
878.097	91.99
878.269	67.41
878.442	61.27
878.614	30.55
878.786	71.51
878.959	34.64
879.131	-20.65
879.303	-10.41
879.476	24.4
879.648	20.31
879.82	-4.27
879.993	-61.61
880.165	98.13
880.337	18.26
880.509	8.02
880.681	-12.46
880.854	26.45
881.026	-14.51
881.198	106.32
881.37	-63.66
881.542	28.5
881.714	10.07
881.886	12.12
882.058	20.31
882.23	16.21
882.402	-4.27
882.574	-6.31
882.746	116.56
882.918	26.45
883.09	20.31
883.262	-2.22
883.434	-8.36
883.606	20.31
883.778	12.12
883.95	91.99
884.122	-53.42
884.293	48.98
884.465	3.93
884.637	18.26
884.809	12.12
884.98	46.93
885.152	-12.46
885.324	69.46
885.496	40.79
885.667	24.4
885.839	20.31
886.011	77.65
886.182	30.55
886.354	122.71
886.525	51.03
886.697	40.79
886.869	-53.42
887.04	-14.51
887.212	12.12
887.383	48.98
887.555	24.4
887.726	-39.08
887.897	42.84
888.069	-61.61
888.24	-14.51
888.412	-14.51
888.583	108.37
888.754	61.27
888.926	-24.75
889.097	-32.94
889.268	-12.46
889.44	24.4
889.611	20.31
889.782	5.97
889.953	-37.03
890.125	44.88
890.296	10.07
890.467	-24.75
890.638	40.79
890.809	-30.89
890.98	-49.32
891.151	16.21
891.323	10.07
891.494	63.32
891.665	16.21
891.836	-47.27
892.007	22.36
892.178	14.17
892.349	12.12
892.52	5.97
892.691	-37.03
892.862	-8.36
893.032	-41.13
893.203	-6.31
893.374	-32.94
893.545	-6.31
893.716	32.6
893.887	67.41
894.057	42.84
894.228	77.65
894.399	26.45
894.57	8.02
894.74	67.41
894.911	3.93
895.082	18.26
895.253	-14.51
895.423	40.79
895.594	75.6
895.764	16.21
895.935	-26.79
896.106	63.32
896.276	32.6
896.447	34.64
896.617	40.79
896.788	40.79
896.958	34.64
897.129	20.31
897.299	-24.75
897.47	94.04
897.64	30.55
897.81	-41.13
897.981	63.32
898.151	-4.27
898.322	24.4
898.492	26.45
898.662	20.31
898.832	18.26
899.003	42.84
899.173	61.27
899.343	5.97
899.513	-43.18
