Data from USB4F104151__147__10-26-38-424.txt Node

Date: Wed Mar 12 10:26:38 EDT 2025
User: louis
Spectrometer: USB4F10415
Trigger mode: 4
Integration Time (sec): 3.000000E-2
Scans to average: 1
Electric dark correction enabled: true
Nonlinearity correction enabled: false
Boxcar width: 0
XAxis mode: Wavelengths
Number of Pixels in Spectrum: 3648
>>>>>Begin Spectral Data<<<<<
178.204	-104.11
178.424	-104.11
178.644	-104.11
178.864	-132.78
179.084	-91.82
179.304	-13.99
179.524	-9.9
179.744	24.92
179.964	47.44
180.184	-40.62
180.404	31.06
180.624	-54.95
180.844	-9.9
181.064	-1.71
181.283	-50.86
181.503	110.93
181.723	-32.43
181.943	-34.47
182.163	59.73
182.383	43.35
182.602	141.65
182.822	47.44
183.042	-26.28
183.262	53.59
183.482	37.2
183.701	86.36
183.921	39.25
184.141	-11.95
184.361	39.25
184.58	-20.14
184.8	53.59
185.02	51.54
185.239	88.4
185.459	82.26
185.679	24.92
185.898	4.44
186.118	100.69
186.338	35.16
186.557	135.51
186.777	14.68
186.997	14.68
187.216	135.51
187.436	57.68
187.655	61.78
187.875	82.26
188.095	18.77
188.314	76.12
188.534	125.27
188.753	55.64
188.973	67.92
189.192	59.73
189.412	57.68
189.631	61.78
189.851	31.06
190.07	8.53
190.29	80.21
190.509	49.49
190.729	18.77
190.948	82.26
191.168	190.8
191.387	6.49
191.607	-71.34
191.826	31.06
192.045	-16.04
192.265	-83.63
192.484	8.53
192.704	-9.9
192.923	6.49
193.142	96.6
193.362	72.02
193.581	39.25
193.8	43.35
194.02	51.54
194.239	26.96
194.458	-42.67
194.678	110.93
194.897	-11.95
195.116	39.25
195.335	33.11
195.555	86.36
195.774	80.21
195.993	29.01
196.212	4.44
196.432	4.44
196.651	59.73
196.87	12.63
197.089	55.64
197.308	14.68
197.528	39.25
197.747	-18.09
197.966	31.06
198.185	31.06
198.404	35.16
198.623	-5.8
198.842	-42.67
199.062	37.2
199.281	31.06
199.5	74.07
199.719	-30.38
199.938	-3.75
200.157	49.49
200.376	78.16
200.595	55.64
200.814	-20.14
201.033	-24.23
201.252	-9.9
201.471	6.49
201.69	74.07
201.909	41.3
202.128	31.06
202.347	-5.8
202.566	31.06
202.785	-5.8
203.004	-26.28
203.223	102.74
203.442	-11.95
203.661	8.53
203.879	10.58
204.098	88.4
204.317	-9.9
204.536	137.56
204.755	-3.75
204.974	53.59
205.193	18.77
205.411	90.45
205.63	26.96
205.849	98.64
206.068	-3.75
206.287	-22.19
206.505	-5.8
206.724	72.02
206.943	-9.9
207.162	29.01
207.381	55.64
207.599	-5.8
207.818	69.97
208.037	-40.62
208.255	51.54
208.474	20.82
208.693	-3.75
208.911	92.5
209.13	-20.14
209.349	90.45
209.567	-3.75
209.786	90.45
210.005	121.17
210.223	63.83
210.442	-59.05
210.661	12.63
210.879	4.44
211.098	35.16
211.316	49.49
211.535	76.12
211.753	47.44
211.972	10.58
212.191	67.92
212.409	-28.33
212.628	29.01
212.846	2.39
213.065	92.5
213.283	80.21
213.502	18.77
213.72	2.39
213.938	49.49
214.157	0.34
214.375	-9.9
214.594	-48.81
214.812	53.59
215.031	31.06
215.249	-46.76
215.467	12.63
215.686	-52.91
215.904	108.88
216.122	-38.57
216.341	55.64
216.559	57.68
216.778	6.49
216.996	-63.15
217.214	26.96
217.432	14.68
217.651	-13.99
217.869	112.98
218.087	39.25
218.306	-9.9
218.524	53.59
218.742	39.25
218.96	67.92
219.179	-9.9
219.397	37.2
219.615	108.88
219.833	112.98
220.051	-1.71
220.27	112.98
220.488	43.35
220.706	39.25
220.924	35.16
221.142	8.53
221.36	-1.71
221.578	55.64
221.796	26.96
222.015	72.02
222.233	84.31
222.451	96.6
222.669	-30.38
222.887	47.44
223.105	53.59
223.323	31.06
223.541	4.44
223.759	61.78
223.977	20.82
224.195	16.73
224.413	16.73
224.631	63.83
224.849	45.4
225.067	108.88
225.285	63.83
225.503	76.12
225.721	-13.99
225.939	86.36
226.157	37.2
226.375	53.59
226.592	47.44
226.81	33.11
227.028	39.25
227.246	80.21
227.464	10.58
227.682	74.07
227.9	26.96
228.117	59.73
228.335	61.78
228.553	12.63
228.771	-13.99
228.989	-22.19
229.206	8.53
229.424	24.92
229.642	31.06
229.86	22.87
230.077	16.73
230.295	117.08
230.513	16.73
230.731	76.12
230.948	22.87
231.166	67.92
231.384	-65.19
231.601	-38.57
231.819	90.45
232.037	45.4
232.254	37.2
232.472	43.35
232.689	43.35
232.907	41.3
233.125	35.16
233.342	14.68
233.56	-5.8
233.777	82.26
233.995	29.01
234.213	26.96
234.43	24.92
234.648	12.63
234.865	29.01
235.083	33.11
235.3	55.64
235.518	41.3
235.735	53.59
235.953	72.02
236.17	59.73
236.388	12.63
236.605	59.73
236.822	55.64
237.04	6.49
237.257	57.68
237.475	45.4
237.692	12.63
237.909	61.78
238.127	16.73
238.344	26.96
238.562	41.3
238.779	-1.71
238.996	53.59
239.214	24.92
239.431	115.03
239.648	-38.57
239.865	45.4
240.083	45.4
240.3	24.92
240.517	45.4
240.735	-26.28
240.952	59.73
241.169	117.08
241.386	20.82
241.603	74.07
241.821	-57
242.038	43.35
242.255	31.06
242.472	-9.9
242.689	86.36
242.907	35.16
243.124	31.06
243.341	-18.09
243.558	-11.95
243.775	-57
243.992	47.44
244.209	100.69
244.426	12.63
244.643	26.96
244.86	29.01
245.078	45.4
245.295	31.06
245.512	72.02
245.729	-1.71
245.946	-20.14
246.163	72.02
246.38	29.01
246.597	35.16
246.814	18.77
247.031	-1.71
247.248	59.73
247.464	96.6
247.681	31.06
247.898	31.06
248.115	31.06
248.332	37.2
248.549	4.44
248.766	39.25
248.983	90.45
249.2	92.5
249.417	18.77
249.633	-13.99
249.85	80.21
250.067	43.35
250.284	-1.71
250.501	39.25
250.717	57.68
250.934	57.68
251.151	-5.8
251.368	112.98
251.585	92.5
251.801	29.01
252.018	-3.75
252.235	86.36
252.451	-48.81
252.668	88.4
252.885	117.08
253.102	100.69
253.318	-5.8
253.535	76.12
253.752	47.44
253.968	31.06
254.185	29.01
254.401	-1.71
254.618	57.68
254.835	78.16
255.051	76.12
255.268	-22.19
255.484	72.02
255.701	-13.99
255.917	80.21
256.134	10.58
256.351	24.92
256.567	-59.05
256.784	37.2
257	-11.95
257.217	65.88
257.433	53.59
257.65	110.93
257.866	141.65
258.082	8.53
258.299	37.2
258.515	-1.71
258.732	63.83
258.948	35.16
259.165	29.01
259.381	78.16
259.597	-11.95
259.814	-13.99
260.03	98.64
260.246	39.25
260.463	16.73
260.679	29.01
260.895	55.64
261.112	65.88
261.328	51.54
261.544	61.78
261.761	121.17
261.977	47.44
262.193	-46.76
262.409	72.02
262.626	63.83
262.842	26.96
263.058	31.06
263.274	74.07
263.49	84.31
263.707	-3.75
263.923	92.5
264.139	22.87
264.355	65.88
264.571	51.54
264.787	-1.71
265.004	-18.09
265.22	43.35
265.436	33.11
265.652	4.44
265.868	90.45
266.084	-3.75
266.3	63.83
266.516	-20.14
266.732	6.49
266.948	10.58
267.164	74.07
267.38	94.55
267.596	55.64
267.812	168.27
268.028	76.12
268.244	-5.8
268.46	33.11
268.676	22.87
268.892	39.25
269.108	-9.9
269.324	0.34
269.54	6.49
269.756	86.36
269.972	-20.14
270.188	65.88
270.403	47.44
270.619	35.16
270.835	53.59
271.051	-61.1
271.267	-34.47
271.483	47.44
271.698	-5.8
271.914	-52.91
272.13	20.82
272.346	35.16
272.562	45.4
272.777	78.16
272.993	45.4
273.209	-26.28
273.425	37.2
273.64	67.92
273.856	61.78
274.072	82.26
274.287	41.3
274.503	39.25
274.719	55.64
274.934	76.12
275.15	29.01
275.366	49.49
275.581	14.68
275.797	-34.47
276.012	43.35
276.228	104.79
276.444	4.44
276.659	49.49
276.875	31.06
277.09	31.06
277.306	29.01
277.521	47.44
277.737	24.92
277.952	57.68
278.168	47.44
278.383	26.96
278.599	67.92
278.814	57.68
279.03	98.64
279.245	37.2
279.461	22.87
279.676	35.16
279.892	26.96
280.107	12.63
280.322	-26.28
280.538	31.06
280.753	-26.28
280.969	45.4
281.184	53.59
281.399	33.11
281.615	-9.9
281.83	92.5
282.045	14.68
282.26	47.44
282.476	4.44
282.691	-1.71
282.906	55.64
283.122	-50.86
283.337	39.25
283.552	51.54
283.767	12.63
283.983	2.39
284.198	14.68
284.413	-9.9
284.628	10.58
284.843	-9.9
285.058	76.12
285.274	16.73
285.489	35.16
285.704	98.64
285.919	18.77
286.134	67.92
286.349	26.96
286.564	-18.09
286.779	-9.9
286.995	-13.99
287.21	-32.43
287.425	-9.9
287.64	-3.75
287.855	26.96
288.07	-36.52
288.285	133.46
288.5	29.01
288.715	35.16
288.93	63.83
289.145	33.11
289.36	35.16
289.575	61.78
289.79	49.49
290.004	110.93
290.219	65.88
290.434	45.4
290.649	39.25
290.864	-54.95
291.079	-67.24
291.294	-20.14
291.509	35.16
291.724	45.4
291.938	-5.8
292.153	90.45
292.368	12.63
292.583	20.82
292.798	92.5
293.012	45.4
293.227	-42.67
293.442	12.63
293.657	88.4
293.871	20.82
294.086	-9.9
294.301	84.31
294.516	8.53
294.73	20.82
294.945	51.54
295.16	67.92
295.374	31.06
295.589	117.08
295.804	14.68
296.018	59.73
296.233	47.44
296.447	80.21
296.662	16.73
296.877	119.12
297.091	26.96
297.306	57.68
297.52	10.58
297.735	53.59
297.949	49.49
298.164	35.16
298.378	-22.19
298.593	10.58
298.807	57.68
299.022	35.16
299.236	47.44
299.451	4.44
299.665	35.16
299.88	6.49
300.094	31.06
300.309	125.27
300.523	129.36
300.737	88.4
300.952	61.78
301.166	92.5
301.381	72.02
301.595	35.16
301.809	49.49
302.024	39.25
302.238	41.3
302.452	92.5
302.667	31.06
302.881	92.5
303.095	80.21
303.309	84.31
303.524	22.87
303.738	121.17
303.952	24.92
304.166	123.22
304.381	47.44
304.595	69.97
304.809	51.54
305.023	-5.8
305.237	35.16
305.452	51.54
305.666	49.49
305.88	33.11
306.094	31.06
306.308	94.55
306.522	96.6
306.736	55.64
306.95	47.44
307.164	45.4
307.379	37.2
307.593	147.8
307.807	72.02
308.021	76.12
308.235	-7.85
308.449	-5.8
308.663	0.34
308.877	63.83
309.091	59.73
309.305	41.3
309.519	-69.29
309.733	31.06
309.947	16.73
310.161	98.64
310.374	20.82
310.588	24.92
310.802	2.39
311.016	61.78
311.23	102.74
311.444	35.16
311.658	57.68
311.872	51.54
312.085	20.82
312.299	45.4
312.513	162.13
312.727	112.98
312.941	39.25
313.154	59.73
313.368	84.31
313.582	29.01
313.796	59.73
314.009	86.36
314.223	69.97
314.437	35.16
314.651	-11.95
314.864	55.64
315.078	-16.04
315.292	41.3
315.505	96.6
315.719	72.02
315.933	-16.04
316.146	35.16
316.36	53.59
316.573	78.16
316.787	39.25
317.001	74.07
317.214	-3.75
317.428	65.88
317.641	49.49
317.855	43.35
318.068	61.78
318.282	20.82
318.495	72.02
318.709	47.44
318.922	51.54
319.136	121.17
319.349	-5.8
319.563	88.4
319.776	-22.19
319.99	10.58
320.203	74.07
320.417	26.96
320.63	72.02
320.843	63.83
321.057	82.26
321.27	14.68
321.483	41.3
321.697	59.73
321.91	102.74
322.124	98.64
322.337	-26.28
322.55	22.87
322.763	-1.71
322.977	35.16
323.19	18.77
323.403	84.31
323.617	-7.85
323.83	49.49
324.043	-26.28
324.256	88.4
324.469	69.97
324.683	67.92
324.896	49.49
325.109	33.11
325.322	43.35
325.535	72.02
325.748	72.02
325.962	24.92
326.175	49.49
326.388	0.34
326.601	149.84
326.814	51.54
327.027	47.44
327.24	117.08
327.453	0.34
327.666	-38.57
327.879	92.5
328.092	37.2
328.305	102.74
328.518	-5.8
328.731	24.92
328.944	24.92
329.157	86.36
329.37	-9.9
329.583	74.07
329.796	-24.23
330.009	-22.19
330.222	-7.85
330.435	41.3
330.648	125.27
330.861	29.01
331.073	26.96
331.286	61.78
331.499	37.2
331.712	-5.8
331.925	31.06
332.138	76.12
332.35	51.54
332.563	76.12
332.776	119.12
332.989	-28.33
333.202	33.11
333.414	61.78
333.627	53.59
333.84	-5.8
334.053	57.68
334.265	47.44
334.478	20.82
334.691	14.68
334.903	78.16
335.116	45.4
335.329	45.4
335.541	119.12
335.754	22.87
335.966	10.58
336.179	72.02
336.392	-9.9
336.604	16.73
336.817	76.12
337.029	20.82
337.242	65.88
337.454	53.59
337.667	125.27
337.88	31.06
338.092	80.21
338.305	78.16
338.517	2.39
338.729	-3.75
338.942	10.58
339.154	37.2
339.367	29.01
339.579	84.31
339.792	6.49
340.004	43.35
340.217	-30.38
340.429	86.36
340.641	8.53
340.854	88.4
341.066	80.21
341.278	59.73
341.491	26.96
341.703	24.92
341.915	67.92
342.128	47.44
342.34	53.59
342.552	24.92
342.764	33.11
342.977	49.49
343.189	80.21
343.401	67.92
343.613	69.97
343.826	47.44
344.038	57.68
344.25	74.07
344.462	18.77
344.674	33.11
344.886	43.35
345.099	80.21
345.311	61.78
345.523	43.35
345.735	26.96
345.947	76.12
346.159	61.78
346.371	112.98
346.583	20.82
346.795	78.16
347.007	45.4
347.219	69.97
347.431	-34.47
347.643	43.35
347.855	35.16
348.067	88.4
348.279	31.06
348.491	41.3
348.703	39.25
348.915	59.73
349.127	-7.85
349.339	49.49
349.551	53.59
349.763	108.88
349.975	112.98
350.187	86.36
350.399	88.4
350.61	18.77
350.822	14.68
351.034	94.55
351.246	37.2
351.458	16.73
351.669	4.44
351.881	33.11
352.093	108.88
352.305	55.64
352.517	74.07
352.728	-13.99
352.94	14.68
353.152	4.44
353.363	59.73
353.575	76.12
353.787	88.4
353.999	31.06
354.21	133.46
354.422	65.88
354.633	53.59
354.845	26.96
355.057	80.21
355.268	-18.09
355.48	67.92
355.692	104.79
355.903	-11.95
356.115	37.2
356.326	39.25
356.538	162.13
356.749	112.98
356.961	94.55
357.172	22.87
357.384	39.25
357.595	112.98
357.807	43.35
358.018	59.73
358.23	129.36
358.441	72.02
358.653	-11.95
358.864	31.06
359.075	102.74
359.287	12.63
359.498	26.96
359.709	63.83
359.921	72.02
360.132	94.55
360.344	8.53
360.555	20.82
360.766	61.78
360.977	18.77
361.189	129.36
361.4	88.4
361.611	92.5
361.823	96.6
362.034	78.16
362.245	-5.8
362.456	26.96
362.667	90.45
362.879	72.02
363.09	96.6
363.301	45.4
363.512	26.96
363.723	-22.19
363.935	10.58
364.146	57.68
364.357	20.82
364.568	51.54
364.779	18.77
364.99	43.35
365.201	88.4
365.412	92.5
365.623	-1.71
365.834	117.08
366.045	-24.23
366.256	31.06
366.467	22.87
366.678	61.78
366.889	29.01
367.1	26.96
367.311	16.73
367.522	10.58
367.733	39.25
367.944	100.69
368.155	53.59
368.366	63.83
368.577	88.4
368.788	22.87
368.999	2.39
369.209	92.5
369.42	76.12
369.631	67.92
369.842	102.74
370.053	88.4
370.264	61.78
370.474	26.96
370.685	59.73
370.896	82.26
371.107	53.59
371.317	43.35
371.528	31.06
371.739	14.68
371.95	90.45
372.16	80.21
372.371	24.92
372.582	55.64
372.792	57.68
373.003	119.12
373.214	57.68
373.424	86.36
373.635	26.96
373.846	106.84
374.056	86.36
374.267	43.35
374.477	39.25
374.688	14.68
374.898	47.44
375.109	63.83
375.319	-32.43
375.53	55.64
375.74	29.01
375.951	92.5
376.161	108.88
376.372	100.69
376.582	90.45
376.793	59.73
377.003	14.68
377.214	88.4
377.424	117.08
377.635	125.27
377.845	106.84
378.055	92.5
378.266	37.2
378.476	104.79
378.686	76.12
378.897	61.78
379.107	10.58
379.317	26.96
379.528	57.68
379.738	31.06
379.948	6.49
380.158	106.84
380.369	16.73
380.579	37.2
380.789	53.59
380.999	41.3
381.21	59.73
381.42	125.27
381.63	-26.28
381.84	53.59
382.05	90.45
382.261	90.45
382.471	129.36
382.681	6.49
382.891	104.79
383.101	112.98
383.311	39.25
383.521	69.97
383.731	47.44
383.941	63.83
384.151	72.02
384.361	39.25
384.571	41.3
384.781	-20.14
384.991	108.88
385.201	72.02
385.411	88.4
385.621	47.44
385.831	49.49
386.041	57.68
386.251	74.07
386.461	72.02
386.671	18.77
386.881	78.16
387.091	61.78
387.301	49.49
387.511	104.79
387.72	129.36
387.93	135.51
388.14	26.96
388.35	59.73
388.56	47.44
388.769	67.92
388.979	80.21
389.189	2.39
389.399	47.44
389.609	88.4
389.818	80.21
390.028	78.16
390.238	137.56
390.447	26.96
390.657	80.21
390.867	84.31
391.076	10.58
391.286	55.64
391.496	174.42
391.705	108.88
391.915	76.12
392.125	78.16
392.334	74.07
392.544	84.31
392.753	92.5
392.963	47.44
393.172	65.88
393.382	155.99
393.591	84.31
393.801	86.36
394.01	69.97
394.22	63.83
394.429	39.25
394.639	135.51
394.848	115.03
395.058	141.65
395.267	37.2
395.477	145.75
395.686	14.68
395.895	155.99
396.105	141.65
396.314	110.93
396.524	155.99
396.733	100.69
396.942	129.36
397.152	96.6
397.361	135.51
397.57	112.98
397.78	86.36
397.989	86.36
398.198	129.36
398.407	86.36
398.617	135.51
398.826	112.98
399.035	119.12
399.244	172.37
399.453	100.69
399.663	133.46
399.872	147.8
400.081	139.6
400.29	137.56
400.499	123.22
400.708	149.84
400.917	192.85
401.127	112.98
401.336	39.25
401.545	190.8
401.754	213.33
401.963	174.42
402.172	145.75
402.381	96.6
402.59	211.28
402.799	104.79
403.008	112.98
403.217	96.6
403.426	104.79
403.635	139.6
403.844	158.03
404.053	129.36
404.262	170.32
404.471	196.95
404.68	194.9
404.888	158.03
405.097	174.42
405.306	233.81
405.515	153.94
405.724	174.42
405.933	190.8
406.142	194.9
406.35	235.86
406.559	223.57
406.768	186.71
406.977	186.71
407.185	180.56
407.394	147.8
407.603	201.04
407.812	289.1
408.02	250.19
408.229	231.76
408.438	270.67
408.646	221.52
408.855	289.1
409.064	258.39
409.272	256.34
409.481	309.58
409.69	301.39
409.898	305.49
410.107	272.72
410.315	350.54
410.524	330.06
410.733	395.6
410.941	434.51
411.15	418.13
411.358	395.6
411.567	446.8
411.775	428.37
411.984	504.14
412.192	483.66
412.401	485.71
412.609	547.15
412.818	518.48
413.026	508.24
413.234	645.45
413.443	575.82
413.651	588.11
413.86	610.64
414.068	563.53
414.276	651.6
414.485	774.47
414.693	792.91
414.901	815.43
415.11	692.55
415.318	866.63
415.526	868.68
415.734	811.34
415.943	885.06
416.151	983.37
416.359	1016.13
416.567	977.22
416.776	1061.19
416.984	1075.52
417.192	1036.61
417.4	1030.47
417.608	1136.96
417.817	1141.06
418.025	1147.2
418.233	1306.95
418.441	1225.03
418.649	1337.66
418.857	1358.14
419.065	1405.25
419.273	1370.43
419.481	1454.4
419.689	1620.28
419.897	1640.76
420.105	1673.53
420.313	1702.2
420.521	1671.48
420.729	1833.27
420.937	1767.74
421.145	1978.68
421.353	1988.92
421.561	2183.48
421.769	2232.63
421.977	2281.78
422.185	2163
422.393	2457.9
422.601	2580.78
422.809	2582.83
423.017	2552.11
423.224	2568.49
423.432	2744.62
423.64	2736.43
423.848	3057.96
424.056	2871.59
424.263	3088.68
424.471	3037.48
424.679	3197.22
424.887	3477.79
425.094	3389.73
425.302	3510.56
425.51	3602.72
425.718	3825.95
425.925	3842.33
426.133	3916.06
426.341	4040.98
426.548	4151.57
426.756	4243.73
426.964	4342.04
427.171	4616.46
427.379	4817.16
427.586	4741.39
427.794	4870.41
428.001	5099.78
428.209	5349.64
428.417	5292.29
428.624	5646.59
428.832	5722.37
429.039	5538.05
429.247	5445.89
429.454	6299.89
429.662	6652.14
429.869	6224.12
430.076	6793.45
430.284	6430.96
430.491	6713.58
430.699	7018.73
430.906	7131.37
431.114	7160.04
431.321	7387.36
431.528	7598.31
431.736	8046.81
431.943	8341.72
432.15	8186.07
432.358	8292.57
432.565	8603.86
432.772	8718.54
432.979	9263.3
433.187	9277.64
433.394	9279.69
433.601	10045.63
433.808	10041.53
434.016	9904.32
434.223	10262.71
434.43	11055.28
434.637	10748.08
434.844	11376.81
435.052	11688.1
435.259	11282.6
435.466	11798.69
435.673	11487.4
435.88	12220.57
436.087	12898.45
436.294	12894.35
436.501	12671.12
436.708	12812.43
436.915	13416.58
437.122	13836.42
437.329	13598.85
437.537	14424.19
437.743	14536.82
437.95	14538.87
438.157	15261.8
438.364	16009.31
438.571	15814.76
438.778	15749.22
438.985	17107.02
439.192	16275.55
439.399	17010.77
439.606	16695.38
439.813	17365.07
440.02	18569.27
440.227	18040.9
440.433	18083.91
440.64	18665.53
440.847	18520.12
441.054	18913.33
441.261	20359.2
441.467	19900.45
441.674	20449.31
441.881	21266.45
442.088	21110.8
442.294	20635.67
442.501	21536.78
442.708	22036.49
442.914	22722.55
443.121	23570.41
443.328	22951.93
443.534	24637.41
443.741	24172.52
443.948	23865.32
444.154	25395.15
444.361	25106.39
444.568	25634.77
444.774	25372.63
444.981	25778.12
445.187	26304.45
445.394	27137.98
445.6	27115.45
445.807	29724.56
446.013	28409.76
446.22	28991.39
446.426	29886.35
446.633	30177.16
446.839	30807.94
447.046	29908.88
447.252	31592.31
447.459	31561.59
447.665	31539.06
447.871	33140.57
448.078	34025.29
448.284	32350.06
448.491	33345.37
448.697	34586.44
448.903	35219.26
449.11	35487.54
449.316	34719.56
449.522	35430.2
449.728	36384.55
449.935	36663.08
450.141	36568.87
450.347	37097.25
450.553	35946.29
450.76	36620.07
450.966	37416.73
451.172	37183.26
451.378	38031.12
451.584	37625.62
451.791	38670.09
451.997	38014.74
452.203	38844.16
452.409	38467.34
452.615	38678.28
452.821	36859.68
453.027	36468.52
453.233	38661.9
453.44	36407.08
453.646	37371.68
453.852	37283.61
454.058	37953.3
454.264	37201.69
454.47	37465.88
454.676	36859.68
454.882	37742.36
455.088	34332.49
455.294	34907.97
455.5	35186.49
455.705	35903.28
455.911	34365.26
456.117	33752.91
456.323	33298.27
456.529	31207.29
456.735	32796.51
456.941	32038.76
457.147	31680.37
457.352	30517.12
457.558	30105.48
457.764	30031.76
457.97	29441.94
458.176	29116.31
458.381	28716.96
458.587	27561.9
458.793	27426.74
458.999	25620.43
459.204	27936.68
459.41	27137.98
459.616	25059.29
459.821	25427.92
460.027	25366.48
460.233	24704.99
460.438	23504.88
460.644	23912.42
460.85	22573.05
461.055	22599.68
461.261	22605.82
461.466	20666.39
461.672	20002.85
461.878	21563.4
462.083	20086.82
462.289	19783.72
462.494	19374.13
462.7	18679.86
462.905	18057.28
463.111	18704.44
463.316	18882.61
463.522	18581.56
463.727	18468.92
463.932	18391.1
464.138	18403.39
464.343	18237.5
464.549	17872.96
464.754	18442.3
464.959	18587.71
465.165	17956.93
465.37	17340.49
465.575	17086.54
465.781	17674.31
465.986	17457.23
466.191	17033.3
466.397	16912.47
466.602	16017.5
466.807	16560.22
467.012	16459.87
467.218	16513.11
467.423	16351.32
467.628	16556.12
467.833	17012.82
468.038	16423
468.244	15933.54
468.449	16492.63
468.654	15894.63
468.859	15966.31
469.064	15773.8
469.269	15407.21
469.474	15517.8
469.679	15634.53
469.885	15069.3
470.09	15380.59
470.295	15161.45
470.5	15026.29
470.705	14778.48
470.91	14508.15
471.115	14639.22
471.32	14801.01
471.525	14542.97
471.73	14379.13
471.935	14342.27
472.139	13512.84
472.344	13803.65
472.549	13789.31
472.754	13824.13
472.959	13267.08
473.164	13029.52
473.369	12929.17
473.574	13586.57
473.778	13105.29
473.983	13197.45
474.188	12906.64
474.393	12388.5
474.598	12421.27
474.802	12365.98
475.007	12198.04
475.212	12159.13
475.417	11919.52
475.621	11767.97
475.826	11974.81
476.031	11602.08
476.235	11616.42
476.44	11610.28
476.645	11298.98
476.849	11585.7
477.054	11276.46
477.259	11143.34
477.463	11194.54
477.668	10815.66
477.872	11104.43
478.077	10610.87
478.282	10479.8
478.486	10660.02
478.691	10414.26
478.895	10473.65
479.1	10469.56
479.304	10410.17
479.509	10082.49
479.713	10369.21
479.918	10129.59
480.122	9816.26
480.326	10088.64
480.531	10023.1
480.735	9924.8
480.94	9935.04
481.144	10186.94
481.348	9580.74
481.553	9885.89
481.757	9668.8
481.961	9654.47
482.166	10008.76
482.37	9814.21
482.574	9511.11
482.778	9711.81
482.983	9824.45
483.187	9752.77
483.391	9844.93
483.595	9582.79
483.8	9595.07
484.004	9730.24
484.208	9763.01
484.412	9722.05
484.616	9552.07
484.821	9808.06
485.025	9609.41
485.229	9617.6
485.433	9621.7
485.637	9687.23
485.841	9564.36
486.045	9558.21
486.249	9474.24
486.453	9644.23
486.657	9595.07
486.861	9689.28
487.065	9412.81
487.269	9566.4
487.473	9447.62
487.677	9898.17
487.881	9666.75
488.085	9699.52
488.289	9769.15
488.493	9636.03
488.697	9828.54
488.901	9875.65
489.105	9646.27
489.309	9816.26
489.512	9842.88
489.716	9820.35
489.92	9859.26
490.124	9754.82
490.328	10008.76
490.531	10051.77
490.735	9902.27
490.939	9861.31
491.143	9853.12
491.346	10090.68
491.55	10139.83
491.754	9881.79
491.958	10264.76
492.161	10150.07
492.365	10256.57
492.569	10098.88
492.772	10074.3
492.976	10186.94
493.18	10293.43
493.383	10799.28
493.587	10432.69
493.79	10483.89
493.994	10477.75
494.197	10709.17
494.401	10752.18
494.605	10758.32
494.808	10883.25
495.012	11075.76
495.215	10950.83
495.419	11079.85
495.622	11253.93
495.825	11350.18
496.029	11272.36
496.232	11436.2
496.436	11612.32
496.639	11903.14
496.843	11630.76
497.046	11983.01
497.249	12187.8
497.453	12032.16
497.656	12347.54
497.859	12163.23
498.063	12531.86
498.266	12972.18
498.469	12812.43
498.673	12767.38
498.876	12822.67
499.079	13019.28
499.282	13004.94
499.485	13654.15
499.689	13553.8
499.892	13758.6
500.095	13846.66
500.298	14061.69
500.501	13832.32
500.705	14456.95
500.908	14518.39
501.111	14436.47
501.314	14809.2
501.517	15032.43
501.72	15003.76
501.923	14964.85
502.126	15360.11
502.329	15798.37
502.532	15456.36
502.735	15822.95
502.938	16142.43
503.141	16189.53
503.344	16500.83
503.547	16273.5
503.75	16746.58
503.953	17449.04
504.156	16969.81
504.359	17092.69
504.562	17358.92
504.765	17766.47
504.968	17694.79
505.17	18354.24
505.373	18016.32
505.576	18624.57
505.779	18522.17
505.982	18790.45
506.185	19165.23
506.387	19597.35
506.59	19425.32
506.793	19996.71
506.996	19636.27
507.198	20498.46
507.401	20181.03
507.604	20574.24
507.807	20992.02
508.009	20893.72
508.212	20987.93
508.415	21385.23
508.617	21688.33
508.82	21637.13
509.022	21573.64
509.225	22286.34
509.428	22284.29
509.63	22716.41
509.833	22722.55
510.035	23408.62
510.238	23328.75
510.44	23558.13
510.643	23785.45
510.845	24391.65
511.048	24139.75
511.25	24676.32
511.453	24586.21
511.655	25472.98
511.858	25049.05
512.06	25202.64
512.262	25774.03
512.465	25700.3
512.667	25970.63
512.87	26470.34
513.072	26544.06
513.274	26920.89
513.477	27133.88
513.679	27135.93
513.881	27725.74
514.084	28008.36
514.286	27922.35
514.488	28075.94
514.69	28942.24
514.893	28768.16
515.095	29104.03
515.297	29462.42
515.499	29638.55
515.701	29990.8
515.904	30322.57
516.106	30437.25
516.308	30758.78
516.51	31215.48
516.712	31209.34
516.914	31338.36
517.116	32284.52
517.318	32348.01
517.52	31897.45
517.722	32423.78
517.925	33072.99
518.127	33402.71
518.329	33900.37
518.531	33564.5
518.733	34447.18
518.935	34594.63
519.136	34828.1
519.338	35163.96
519.54	35350.33
519.742	35743.54
519.944	35465.02
520.146	35974.96
520.348	36749.09
520.55	36828.96
520.752	36947.75
520.954	37379.87
521.155	37445.4
521.357	37709.59
521.559	38059.79
521.761	38414.09
521.963	38532.87
522.164	38821.64
522.366	38903.56
522.568	39321.34
522.77	39509.75
522.971	40113.91
523.173	40038.13
523.375	40165.1
523.576	40439.53
523.778	40470.25
523.98	41172.71
524.181	41653.98
524.383	41510.62
524.584	42131.15
524.786	42073.81
524.988	42032.85
525.189	42442.45
525.391	42567.37
525.592	42970.82
525.794	42886.85
525.995	43312.83
526.197	43292.35
526.398	43527.87
526.6	43650.75
526.801	43851.45
527.003	43787.96
527.204	44009.14
527.406	44172.98
527.607	44506.8
527.808	44981.93
528.01	44392.11
528.211	44396.21
528.412	45233.83
528.614	45502.11
528.815	45522.59
529.016	45891.23
529.218	45217.44
529.419	45932.18
529.62	45698.72
529.822	45610.65
530.023	45670.04
530.224	46214.8
530.425	46134.93
530.626	46214.8
530.828	45997.72
531.029	47025.8
531.23	46343.83
531.431	46524.05
531.632	46823.05
531.833	46784.14
532.035	47066.76
532.236	47085.19
532.437	46923.4
532.638	47111.81
532.839	47296.13
533.04	47113.86
533.241	46706.32
533.442	47662.72
533.643	47289.99
533.844	47378.05
534.045	47455.87
534.246	46880.39
534.447	47416.96
534.648	47359.62
534.849	47679.1
535.05	47390.34
535.251	47505.02
535.451	47451.78
535.652	47212.16
535.853	47386.24
536.054	47593.09
536.255	48242.29
536.456	47193.73
536.657	48334.45
536.857	47836.8
537.058	47783.55
537.259	48158.33
537.46	47826.56
537.66	47513.22
537.861	47464.07
538.062	47664.77
538.263	47890.04
538.463	47605.37
538.664	47675.01
538.865	47840.89
539.065	48180.85
539.266	47373.95
539.466	48367.22
539.667	47384.19
539.868	48031.35
540.068	47457.92
540.269	47091.33
540.469	47652.48
540.67	47738.49
540.87	48060.02
541.071	47597.18
541.271	47865.47
541.472	47728.25
541.672	47459.97
541.873	47308.42
542.073	47490.69
542.274	48080.5
542.474	47459.97
542.675	47244.93
542.875	47816.32
543.075	47709.82
543.276	47232.64
543.476	48010.87
543.676	47218.31
543.877	47996.54
544.077	47543.94
544.277	47500.93
544.478	47550.08
544.678	47697.53
544.878	47255.17
545.078	47885.95
545.279	47199.88
545.479	47496.83
545.679	47867.51
545.879	47664.77
546.079	47363.71
546.28	47212.16
546.48	47613.57
546.68	47859.32
546.88	47629.95
547.08	47529.6
547.28	47040.14
547.48	46900.87
547.68	47365.76
547.88	46888.59
548.081	47816.32
548.281	47511.17
548.481	47025.8
548.681	47789.69
548.881	47226.5
549.081	47677.05
549.28	46806.67
549.48	47267.46
549.68	46927.5
549.88	47844.99
550.08	47285.89
550.28	47066.76
550.48	47203.97
550.68	47382.15
550.88	46927.5
551.08	47634.05
551.279	47425.15
551.479	47095.43
551.679	47439.49
551.879	47099.53
552.079	47429.25
552.278	46997.13
552.478	47251.08
552.678	47025.8
552.878	47244.93
553.077	46778
553.277	46870.15
553.477	47013.51
553.676	46780.04
553.876	46759.56
554.076	46839.43
554.275	46737.04
554.475	46603.92
554.674	46935.69
554.874	46931.59
555.074	46759.56
555.273	46614.16
555.473	46585.49
555.672	46313.11
555.872	46827.15
556.071	46714.51
556.271	46861.96
556.47	46290.58
556.67	46042.77
556.869	46104.21
557.068	46284.44
557.268	46139.03
557.467	46112.41
557.667	46104.21
557.866	46315.15
558.065	45878.94
558.265	45778.59
558.464	45465.25
558.663	46223
558.863	45385.38
559.062	46040.73
559.261	45358.75
559.461	45790.87
559.66	44920.49
559.859	45711
560.058	45405.86
560.258	45323.94
560.457	45041.32
560.656	45530.78
560.855	44844.71
561.054	45344.42
561.253	44388.02
561.453	44949.16
561.652	44961.45
561.851	44859.05
562.05	44951.21
562.249	44072.63
562.448	44668.59
562.647	44781.23
562.846	44578.48
563.045	44295.86
563.244	44144.31
563.443	44719.79
563.642	43663.04
563.841	43947.7
564.04	43910.84
564.239	44406.45
564.438	43540.16
564.637	43957.94
564.836	43660.99
565.035	43167.43
565.234	43218.63
565.432	43476.67
565.631	43261.63
565.83	43321.02
566.029	42862.28
566.228	42872.52
566.427	42835.66
566.625	42696.39
566.824	42538.7
567.023	43095.75
567.222	42002.13
567.42	42675.91
567.619	42311.38
567.818	42141.39
568.016	42176.21
568.215	42292.94
568.414	42000.08
568.612	42632.91
568.811	41535.2
569.01	41778.9
569.208	40955.62
569.407	41553.63
569.605	41098.98
569.804	41518.81
570.002	41035.49
570.201	40998.63
570.4	40926.95
570.598	40359.66
570.797	40302.32
570.995	40767.21
571.193	40312.56
571.392	40527.59
571.59	40081.14
571.789	40011.51
571.987	40101.62
572.186	40259.31
572.384	39755.51
572.582	40345.33
572.781	40034.03
572.979	39051.01
573.177	39538.43
573.376	39929.59
573.574	39460.6
573.772	39237.37
573.971	39005.95
574.169	38840.07
574.367	39063.3
574.565	38856.45
574.763	38553.35
574.962	38647.56
575.16	38121.23
575.358	38444.81
575.556	38022.93
575.754	38485.77
575.952	37607.19
576.151	38307.6
576.349	37644.05
576.547	37738.26
576.745	37535.51
576.943	37955.35
577.141	37564.18
577.339	37785.36
577.537	37461.79
577.735	37697.3
577.933	37062.43
578.131	37185.31
578.329	37089.06
578.527	36679.46
578.725	36851.49
578.923	37230.37
579.121	36486.95
579.319	36222.76
579.516	37201.69
579.714	36362.03
579.912	36175.66
580.11	36007.73
580.308	36079.41
580.506	35993.39
580.704	35553.08
580.901	35696.44
581.099	36069.17
581.297	35450.68
581.495	35577.65
581.692	35581.75
581.89	35077.95
582.088	35610.42
582.285	35262.27
582.483	35651.38
582.681	35176.25
582.878	34991.94
583.076	34719.56
583.274	34891.58
583.471	34666.31
583.669	34625.35
583.866	34047.82
584.064	34795.33
584.262	34035.53
584.459	34496.33
584.657	34187.08
584.854	34043.73
585.052	33996.62
585.249	34092.88
585.447	34090.83
585.644	33382.23
585.841	33369.94
586.039	33761.11
586.236	33318.74
586.434	33509.21
586.631	33089.37
586.828	33269.59
587.026	33109.85
587.223	32948.06
587.42	32743.27
587.618	32841.57
587.815	32206.7
588.012	32235.37
588.21	32675.68
588.407	32816.99
588.604	32008.04
588.801	32178.03
588.999	32036.72
589.196	31995.76
589.393	32161.64
589.59	31686.51
589.787	31760.24
589.984	31690.61
590.182	31422.33
590.379	31575.92
590.576	31252.34
590.773	31639.41
590.97	31000.44
591.167	31418.23
591.364	30846.85
591.561	30943.1
591.758	30861.18
591.955	30791.55
592.152	30955.39
592.349	30541.7
592.546	30973.82
592.743	30713.73
592.94	30277.51
593.137	30300.04
593.334	30621.57
593.531	29937.55
593.727	29706.13
593.924	30029.71
594.121	30019.47
594.318	29915.02
594.515	29695.89
594.712	29738.9
594.908	29249.43
595.105	29659.02
595.302	29271.96
595.499	29638.55
595.696	29415.32
595.892	28903.32
596.089	28962.72
596.286	29157.27
596.482	28817.31
596.679	28737.44
596.876	29159.32
597.072	28569.51
597.269	28733.34
597.466	28147.62
597.662	28727.2
597.859	28348.32
598.055	28231.59
598.252	28290.98
598.448	28186.54
598.645	27926.44
598.841	27848.62
599.038	27725.74
599.234	28082.09
599.431	27557.81
599.627	27729.84
599.824	27281.33
600.02	27252.66
600.217	27621.3
600.413	27074.49
600.609	27074.49
600.806	26853.31
601.002	27142.07
601.198	27013.05
601.395	26742.72
601.591	26601.41
601.787	26929.08
601.984	26546.11
602.18	26910.65
602.376	26175.43
602.572	26208.2
602.769	26298.31
602.965	26243.01
603.161	25972.68
603.357	26204.1
603.553	25796.56
603.75	25817.04
603.946	25665.49
604.142	25880.52
604.338	25475.02
604.534	25825.23
604.73	25204.69
604.926	25272.28
605.122	25331.67
605.318	25212.88
605.514	25112.53
605.71	25192.4
605.906	24969.18
606.102	24989.66
606.298	25384.91
606.494	24915.93
606.69	25071.57
606.886	24780.76
607.082	24653.79
607.278	24905.69
607.474	24477.66
607.67	24532.96
607.866	24184.8
608.062	24440.8
608.257	24434.66
608.453	24231.91
608.649	24453.09
608.845	24012.77
609.041	23926.76
609.236	24268.77
609.432	24127.46
609.628	23910.38
609.824	23611.37
610.019	23289.84
610.215	23638
610.411	23670.76
610.606	23494.64
610.802	23859.18
610.998	23459.82
611.193	23511.02
611.389	23478.26
611.584	23455.73
611.78	23265.27
611.976	23091.19
612.171	23619.56
612.367	22960.12
612.562	23078.9
612.758	22697.98
612.953	22861.82
613.149	23185.4
613.344	22816.76
613.539	23148.53
613.735	22816.76
613.93	22898.68
614.126	22581.24
614.321	22947.83
614.517	22767.61
614.712	22251.52
614.907	22368.26
615.103	22618.11
615.298	22216.71
615.493	22945.78
615.688	22153.22
615.884	22820.86
616.079	22253.57
616.274	22380.54
616.47	22159.36
616.665	22212.61
616.86	22200.32
617.055	21772.3
617.25	21901.32
617.445	22067.2
617.641	21585.93
617.836	21764.11
618.031	21573.64
618.226	21839.88
618.421	21583.88
618.616	21469.2
618.811	21383.18
619.006	21725.19
619.201	21104.66
619.396	21362.7
619.591	20738.07
619.786	21280.78
619.981	20801.56
620.176	21051.41
620.371	20641.82
620.566	20779.03
620.761	20871.19
620.956	20819.99
621.151	20389.92
621.346	20342.81
621.541	20205.6
621.735	20221.98
621.93	19775.53
622.125	19830.82
622.32	19589.16
622.515	19925.03
622.709	19714.09
622.904	19871.78
623.099	19726.38
623.294	19595.31
623.488	18960.44
623.683	19388.46
623.878	18929.72
624.072	19253.3
624.267	19148.85
624.462	19103.79
624.656	18761.78
624.851	18604.09
625.046	18726.97
625.24	18649.14
625.435	18159.68
625.629	18180.16
625.824	18470.97
626.018	18233.41
626.213	17901.64
626.407	17975.36
626.602	17635.4
626.796	17731.65
626.991	17489.99
627.185	17580.11
627.38	17180.75
627.574	17379.4
627.768	17272.91
627.963	17100.88
628.157	17182.8
628.352	16926.8
628.546	16808.02
628.74	16939.09
628.935	16584.79
629.129	16533.59
629.323	16369.76
629.517	16445.53
629.712	16461.91
629.906	16044.13
630.1	16015.46
630.294	15956.07
630.489	16054.37
630.683	16177.25
630.877	15429.74
631.071	15538.28
631.265	15845.48
631.459	15519.85
631.653	15409.26
631.848	15501.42
632.042	15100.01
632.236	15159.41
632.43	15200.37
632.624	15169.65
632.818	14948.47
633.012	14809.2
633.206	14921.84
633.4	14999.66
633.594	14702.71
633.788	14551.16
633.982	14532.73
634.176	14571.64
634.369	14438.52
634.563	14037.12
634.757	13887.62
634.951	14293.12
635.145	14190.72
635.339	14225.53
635.533	13981.82
635.726	13836.42
635.92	13858.95
636.114	13805.7
636.308	13441.16
636.501	13639.81
636.695	13482.12
636.889	13561.99
637.083	13439.11
637.276	13181.07
637.47	13185.16
637.664	13129.87
637.857	12980.37
638.051	13176.97
638.244	12898.45
638.438	12847.25
638.632	12804.24
638.825	12920.98
639.019	12544.15
639.212	12591.25
639.406	12495
639.599	12492.95
639.793	12419.22
639.986	12396.7
640.18	12222.62
640.373	12269.72
640.567	11999.39
640.76	11983.01
640.954	11925.66
641.147	11546.79
641.34	11862.18
641.534	11993.25
641.727	11688.1
641.92	11663.52
642.114	11708.58
642.307	11389.1
642.5	11372.71
642.694	11460.77
642.887	11188.39
643.08	11514.02
643.273	11092.14
643.467	11196.59
643.66	11051.18
643.853	10965.17
644.046	10791.09
644.239	10952.88
644.432	10756.27
644.626	10696.88
644.819	10733.75
645.012	10768.56
645.205	10672.31
645.398	10596.53
645.591	10393.78
645.784	10502.33
645.977	10285.24
646.17	10336.44
646.363	10346.68
646.556	10078.4
646.749	10086.59
646.942	9976
647.135	10082.49
647.328	9783.49
647.521	9820.35
647.714	9720
647.907	9824.45
648.099	9504.96
648.292	9691.33
648.485	9789.63
648.678	9478.34
648.871	9488.58
649.064	9470.15
649.256	9425.09
649.449	9380.04
649.642	9107.66
649.835	9431.24
650.027	9300.17
650.22	9191.63
650.413	9232.58
650.605	9095.37
650.798	9038.03
650.991	9052.36
651.183	9072.84
651.376	9001.16
651.568	8906.96
651.761	8593.62
651.954	8911.05
652.146	8718.54
652.339	8773.84
652.531	8679.63
652.724	8554.71
652.916	8456.4
653.109	8542.42
653.301	8407.25
653.494	8444.12
653.686	8427.73
653.879	8493.27
654.071	8351.96
654.263	8024.28
654.456	8132.83
654.648	8067.29
654.84	7852.25
655.033	7989.47
655.225	7979.23
655.417	7956.7
655.61	7934.17
655.802	8016.09
655.994	7878.88
656.186	7887.07
656.379	7799.01
656.571	7743.71
656.763	7626.98
656.955	7764.19
657.148	7514.34
657.34	7532.77
657.532	7497.95
657.724	7602.4
657.916	7618.79
658.108	7379.17
658.3	7403.75
658.492	7276.77
658.684	7233.77
658.876	7303.4
659.068	7276.77
659.26	7225.58
659.452	7198.95
659.644	7112.94
659.836	7067.88
660.028	7123.18
660.22	6871.28
660.412	6985.96
660.604	6895.85
660.796	6992.11
660.988	6717.68
661.18	6695.15
661.372	6631.66
661.563	6734.06
661.755	6613.23
661.947	6596.85
662.139	6643.95
662.331	6787.31
662.522	6410.48
662.714	6498.55
662.906	6371.57
663.097	6531.31
663.289	6248.69
663.481	6459.63
663.673	6246.65
663.864	6357.24
664.056	6316.28
664.247	6320.37
664.439	6148.34
664.631	6224.12
664.822	6232.31
665.014	6179.06
665.205	6258.93
665.397	6217.97
665.588	6076.66
665.78	5898.49
665.971	6119.67
666.163	6066.42
666.354	6000.89
666.546	5931.26
666.737	5792
666.929	5923.07
667.12	5863.68
667.311	5873.92
667.503	5777.66
667.694	5902.59
667.885	5650.69
668.077	5814.52
668.268	5648.64
668.459	5703.93
668.651	5601.54
668.842	5527.81
669.033	5474.56
669.224	5554.43
669.416	5544.19
669.607	5519.62
669.798	5527.81
669.989	5589.25
670.18	5363.97
670.371	5433.6
670.563	5462.27
670.754	5302.53
670.945	5269.76
671.136	5454.08
671.327	5296.39
671.518	5343.49
671.709	5345.54
671.9	5441.79
672.091	5259.53
672.282	5015.82
672.473	5198.09
672.664	5271.81
672.855	5071.11
673.046	5208.33
673.237	5183.75
673.428	5075.21
673.619	5171.46
673.809	5101.83
674	5005.58
674.191	5130.5
674.382	5005.58
674.573	5036.3
674.764	4864.27
674.954	5083.4
675.145	5015.82
675.336	4913.42
675.527	4884.75
675.717	4835.6
675.908	4970.76
676.099	4897.03
676.289	4856.08
676.48	4823.31
676.671	4925.71
676.861	4858.12
677.052	4804.88
677.243	4851.98
677.433	4825.36
677.624	4794.64
677.814	4712.72
678.005	4802.83
678.195	4796.68
678.386	4747.53
678.576	4595.98
678.767	4616.46
678.957	4714.77
679.148	4729.1
679.338	4671.76
679.529	4770.06
679.719	4659.47
679.909	4622.61
680.1	4675.85
680.29	4706.57
680.481	4694.29
680.671	4739.34
680.861	4638.99
681.052	4774.16
681.242	4444.43
681.432	4704.53
681.622	4552.98
681.813	4663.57
682.003	4483.34
682.193	4671.76
682.383	4389.14
682.573	4641.04
682.764	4589.84
682.954	4645.13
683.144	4614.41
683.334	4561.17
683.524	4489.49
683.714	4618.51
683.904	4421.91
684.094	4544.78
684.284	4555.02
684.474	4436.24
684.664	4421.91
684.854	4407.57
685.044	4499.73
685.234	4432.15
685.424	4356.37
685.614	4419.86
685.804	4395.28
685.994	4444.43
686.184	4344.08
686.374	4354.32
686.564	4325.65
686.753	4358.42
686.943	4118.81
687.133	4387.09
687.323	4124.95
687.513	4303.12
687.702	4243.73
687.892	4243.73
688.082	4456.72
688.272	4288.79
688.461	4159.77
688.651	4260.12
688.841	4065.56
689.03	4135.19
689.22	4151.57
689.41	3989.78
689.599	4061.46
689.789	4051.22
689.979	4065.56
690.168	4165.91
690.358	3889.43
690.547	3995.93
690.737	4004.12
690.926	4159.77
691.116	4018.46
691.305	4081.94
691.495	3936.54
691.684	3827.99
691.874	3914.01
692.063	3971.35
692.252	3977.5
692.442	3920.15
692.631	3850.52
692.82	3946.78
693.01	3754.27
693.199	3696.92
693.388	3744.03
693.578	3803.42
693.767	3715.36
693.956	3688.73
694.146	3842.33
694.335	3721.5
694.524	3672.35
694.713	3860.76
694.902	3856.67
695.092	3770.65
695.281	3631.39
695.47	3754.27
695.659	3668.25
695.848	3449.12
696.037	3635.49
696.226	3715.36
696.415	3670.3
696.604	3631.39
696.793	3561.76
696.982	3694.88
697.171	3764.51
697.36	3707.16
697.549	3766.56
697.738	3586.33
697.927	3635.49
698.116	3653.92
698.305	3477.79
698.494	3576.09
698.683	3539.23
698.872	3713.31
699.061	3471.65
699.25	3539.23
699.438	3477.79
699.627	3504.42
699.816	3594.53
700.005	3422.5
700.193	3629.34
700.382	3662.11
700.571	3668.25
700.76	3533.09
700.948	3725.6
701.137	3430.69
701.326	3504.42
701.514	3553.57
701.703	3442.98
701.892	3631.39
702.08	3590.43
702.269	3721.5
702.457	3500.32
702.646	3582.24
702.834	3447.07
703.023	3488.03
703.212	3537.18
703.4	3436.83
703.589	3608.86
703.777	3373.35
703.965	3502.37
704.154	3463.46
704.342	3447.07
704.531	3475.74
704.719	3498.27
704.907	3535.14
705.096	3399.97
705.284	3385.63
705.472	3535.14
705.661	3365.15
705.849	3481.89
706.037	3512.61
706.226	3395.87
706.414	3488.03
706.602	3535.14
706.79	3436.83
706.979	3526.94
707.167	3430.69
707.355	3389.73
707.543	3457.31
707.731	3475.74
707.919	3496.22
708.107	3445.02
708.296	3535.14
708.484	3539.23
708.672	3496.22
708.86	3389.73
709.048	3483.94
709.236	3490.08
709.424	3397.92
709.612	3438.88
709.8	3451.17
709.988	3512.61
710.176	3242.28
710.364	3682.59
710.551	3436.83
710.739	3385.63
710.927	3447.07
711.115	3414.31
711.303	3494.18
711.491	3381.54
711.679	3318.05
711.866	3299.62
712.054	3496.22
712.242	3361.06
712.43	3533.09
712.617	3488.03
712.805	3535.14
712.993	3463.46
713.181	3500.32
713.368	3496.22
713.556	3391.78
713.744	3367.2
713.931	3504.42
714.119	3461.41
714.306	3596.57
714.494	3455.26
714.682	3537.18
714.869	3479.84
715.057	3453.22
715.244	3324.19
715.432	3528.99
715.619	3399.97
715.807	3408.16
715.994	3428.64
716.182	3445.02
716.369	3488.03
716.556	3547.42
716.744	3453.22
716.931	3428.64
717.119	3471.65
717.306	3615.01
717.493	3512.61
717.681	3445.02
717.868	3498.27
718.055	3447.07
718.242	3453.22
718.43	3469.6
718.617	3342.63
718.804	3418.4
718.991	3475.74
719.179	3485.98
719.366	3483.94
719.553	3391.78
719.74	3488.03
719.927	3320.1
720.114	3449.12
720.301	3430.69
720.488	3391.78
720.676	3293.48
720.863	3514.66
721.05	3436.83
721.237	3402.02
721.424	3402.02
721.611	3369.25
721.798	3289.38
721.985	3438.88
722.172	3365.15
722.358	3344.67
722.545	3387.68
722.732	3371.3
722.919	3383.59
723.106	3326.24
723.293	3307.81
723.48	3354.91
723.667	3346.72
723.853	3375.39
724.04	3266.85
724.227	3207.46
724.414	3397.92
724.6	3299.62
724.787	3381.54
724.974	3342.63
725.161	3213.6
725.347	3234.08
725.534	3447.07
725.72	3397.92
725.907	3262.76
726.094	3266.85
726.28	3365.15
726.467	3225.89
726.653	3234.08
726.84	3383.59
727.027	3391.78
727.213	3363.11
727.4	3369.25
727.586	3268.9
727.773	3330.34
727.959	3295.52
728.145	3410.21
728.332	3408.16
728.518	3287.33
728.705	3363.11
728.891	3336.48
729.077	3348.77
729.264	3232.04
729.45	3356.96
729.636	3252.52
729.823	3307.81
730.009	3275.04
730.195	3262.76
730.382	3256.61
730.568	3287.33
730.754	3252.52
730.94	3307.81
731.126	3223.84
731.313	3158.31
731.499	3303.71
731.685	3248.42
731.871	3252.52
732.057	3264.8
732.243	3248.42
732.429	3242.28
732.615	3324.19
732.801	3234.08
732.987	3113.25
733.173	3209.51
733.359	3299.62
733.545	3197.22
733.731	3291.43
733.917	3209.51
734.103	3135.78
734.289	3291.43
734.475	3330.34
734.661	3182.88
734.847	3174.69
735.033	3131.69
735.219	3246.37
735.404	3141.93
735.59	3105.06
735.776	3123.49
735.962	3154.21
736.148	3197.22
736.333	3199.27
736.519	3119.4
736.705	3098.92
736.89	3092.77
737.076	3068.2
737.262	3035.43
737.447	3174.69
737.633	3017
737.819	3154.21
738.004	3029.29
738.19	3090.73
738.375	3029.29
738.561	2984.23
738.747	3035.43
738.932	2973.99
739.118	3123.49
739.303	2986.28
739.489	2918.7
739.674	3033.38
739.859	2984.23
740.045	2998.57
740.23	2943.27
740.416	2894.12
740.601	2959.66
740.786	3060.01
740.972	2832.68
741.157	2908.46
741.342	2847.02
741.528	2943.27
741.713	2859.31
741.898	2853.16
742.084	2804.01
742.269	2881.83
742.454	2928.94
742.639	2840.87
742.824	2810.15
743.01	2789.67
743.195	2791.72
743.38	2660.65
743.565	2634.03
743.75	2738.48
743.935	2830.63
744.12	2726.19
744.305	2693.42
744.49	2695.47
744.675	2654.51
744.86	2677.04
745.045	2486.58
745.23	2668.84
745.415	2658.6
745.6	2668.84
745.785	2578.73
745.97	2564.4
746.155	2601.26
746.34	2683.18
746.525	2607.41
746.71	2535.73
746.895	2492.72
747.079	2453.81
747.264	2556.21
747.449	2418.99
747.634	2494.77
747.819	2572.59
748.003	2394.42
748.188	2394.42
748.373	2371.89
748.557	2363.7
748.742	2304.31
748.927	2289.97
749.111	2306.35
749.296	2226.48
749.481	2226.48
749.665	2244.92
749.85	2214.2
750.034	2292.02
750.219	2203.96
750.404	2150.71
750.588	2232.63
750.773	2185.52
750.957	2158.9
751.141	2021.69
751.326	2165.04
751.51	2050.36
751.695	2140.47
751.879	1993.01
752.064	2062.65
752.248	2046.26
752.432	2097.46
752.617	1984.82
752.801	1990.97
752.985	1988.92
753.17	1945.91
753.354	1997.11
753.538	1984.82
753.722	1917.24
753.907	1952.06
754.091	1927.48
754.275	1947.96
754.459	1777.98
754.643	2015.54
754.828	1896.76
755.012	1861.94
755.196	1745.21
755.38	1837.37
755.564	1913.14
755.748	1798.46
755.932	1749.31
756.116	1829.18
756.3	1767.74
756.484	1714.49
756.668	1755.45
756.852	1745.21
757.036	1675.58
757.22	1648.96
757.404	1700.16
757.588	1612.09
757.772	1691.96
757.956	1675.58
758.14	1646.91
758.323	1708.35
758.507	1620.28
758.691	1513.79
758.875	1651
759.059	1575.23
759.242	1665.34
759.426	1532.22
759.61	1499.45
759.794	1509.69
759.977	1550.65
760.161	1628.48
760.345	1573.18
760.528	1491.26
760.712	1429.82
760.895	1472.83
761.079	1413.44
761.263	1505.6
761.446	1395.01
761.63	1435.97
761.813	1511.74
761.997	1411.39
762.18	1587.52
762.364	1411.39
762.547	1386.82
762.731	1392.96
762.914	1390.91
763.098	1399.1
763.281	1292.61
763.464	1411.39
763.648	1317.19
763.831	1286.47
764.015	1448.26
764.198	1349.95
764.381	1421.63
764.564	1347.9
764.748	1349.95
764.931	1292.61
765.114	1323.33
765.297	1296.71
765.481	1366.34
765.664	1302.85
765.847	1308.99
766.03	1251.65
766.213	1356.1
766.397	1315.14
766.58	1235.27
766.763	1284.42
766.946	1227.07
767.129	1296.71
767.312	1243.46
767.495	1210.69
767.678	1239.36
767.861	1280.32
768.044	1249.6
768.227	1300.8
768.41	1274.18
768.593	1198.4
768.776	1214.79
768.959	1175.88
769.142	1083.72
769.324	1216.83
769.507	1177.92
769.69	1093.96
769.873	1005.89
770.056	1155.4
770.239	1192.26
770.421	1141.06
770.604	1104.2
770.787	1190.21
770.97	1079.62
771.152	1190.21
771.335	1100.1
771.518	1042.76
771.7	1108.29
771.883	1061.19
772.066	1091.91
772.248	1020.23
772.431	1093.96
772.613	1014.09
772.796	1116.48
772.978	1050.95
773.161	1114.44
773.343	1046.85
773.526	995.65
773.708	885.06
773.891	993.61
774.073	1003.85
774.256	1014.09
774.438	1036.61
774.621	960.84
774.803	1100.1
774.985	973.13
775.168	1020.23
775.35	870.73
775.532	954.69
775.715	885.06
775.897	905.54
776.079	913.74
776.261	983.37
776.444	936.26
776.626	942.41
776.808	901.45
776.99	854.34
777.173	874.82
777.355	909.64
777.537	850.25
777.719	868.68
777.901	827.72
778.083	805.19
778.265	768.33
778.447	846.15
778.629	760.14
778.811	731.47
778.993	749.9
779.175	815.43
779.357	776.52
779.539	829.77
779.721	696.65
779.903	788.81
780.085	813.38
780.267	727.37
780.449	715.08
780.631	725.32
780.812	842.06
780.994	809.29
781.176	772.43
781.358	747.85
781.54	780.62
781.721	663.88
781.903	694.6
782.085	778.57
782.267	702.79
782.448	670.03
782.63	682.31
782.812	751.95
782.993	710.99
783.175	743.75
783.357	698.7
783.538	588.11
783.72	624.97
783.901	594.25
784.083	608.59
784.264	614.73
784.446	538.96
784.627	530.77
784.809	629.07
784.99	641.36
785.172	645.45
785.353	571.72
785.535	631.12
785.716	592.2
785.897	579.92
786.079	575.82
786.26	612.68
786.441	528.72
786.623	532.81
786.804	590.16
786.985	493.9
787.167	618.83
787.348	563.53
787.529	581.96
787.71	690.51
787.891	520.53
788.073	557.39
788.254	594.25
788.435	524.62
788.616	612.68
788.797	553.29
788.978	514.38
789.159	424.27
789.34	508.24
789.522	491.85
789.703	500.05
789.884	506.19
790.065	452.94
790.246	602.44
790.427	446.8
790.607	606.54
790.788	508.24
790.969	514.38
791.15	493.9
791.331	457.04
791.512	411.98
791.693	352.59
791.874	446.8
792.054	395.6
792.235	479.57
792.416	432.46
792.597	430.41
792.778	457.04
792.958	461.13
793.139	401.74
793.32	381.26
793.5	452.94
793.681	391.5
793.862	436.56
794.042	407.89
794.223	477.52
794.404	399.7
794.584	340.3
794.765	446.8
794.945	452.94
795.126	391.5
795.306	414.03
795.487	395.6
795.667	399.7
795.848	350.54
796.028	407.89
796.209	381.26
796.389	379.22
796.57	356.69
796.75	387.41
796.93	332.11
797.111	373.07
797.291	375.12
797.471	319.82
797.652	317.78
797.832	375.12
798.012	416.08
798.192	432.46
798.373	348.5
798.553	315.73
798.733	338.26
798.913	334.16
799.093	371.02
799.274	303.44
799.454	377.17
799.634	360.78
799.814	356.69
799.994	330.06
800.174	276.82
800.354	350.54
800.534	227.67
800.714	381.26
800.894	317.78
801.074	291.15
801.254	287.06
801.434	315.73
801.614	358.74
801.794	342.35
801.974	833.86
802.154	252.24
802.334	332.11
802.514	307.54
802.693	409.94
802.873	268.63
803.053	303.44
803.233	289.1
803.413	319.82
803.592	348.5
803.772	305.49
803.952	293.2
804.131	272.72
804.311	325.97
804.491	285.01
804.67	293.2
804.85	229.71
805.03	293.2
805.209	198.99
805.389	141.65
805.568	248.15
805.748	258.39
805.928	303.44
806.107	287.06
806.287	250.19
806.466	276.82
806.646	242
806.825	307.54
807.004	244.05
807.184	307.54
807.363	250.19
807.543	328.02
807.722	264.53
807.901	229.71
808.081	299.34
808.26	248.15
808.439	338.26
808.619	237.91
808.798	272.72
808.977	201.04
809.156	252.24
809.336	184.66
809.515	252.24
809.694	260.43
809.873	268.63
810.052	172.37
810.231	237.91
810.411	237.91
810.59	297.3
810.769	172.37
810.948	178.51
811.127	190.8
811.306	219.47
811.485	213.33
811.664	194.9
811.843	252.24
812.022	280.91
812.201	260.43
812.38	135.51
812.559	227.67
812.737	262.48
812.916	88.4
813.095	190.8
813.274	176.47
813.453	309.58
813.632	198.99
813.811	145.75
813.989	225.62
814.168	207.19
814.347	182.61
814.526	215.38
814.704	227.67
814.883	282.96
815.062	158.03
815.24	170.32
815.419	166.23
815.598	270.67
815.776	170.32
815.955	151.89
816.133	133.46
816.312	170.32
816.49	141.65
816.669	233.81
816.847	170.32
817.026	219.47
817.204	192.85
817.383	137.56
817.561	127.32
817.74	155.99
817.918	147.8
818.097	170.32
818.275	149.84
818.453	155.99
818.632	153.94
818.81	133.46
818.988	135.51
819.167	125.27
819.345	192.85
819.523	129.36
819.701	162.13
819.879	133.46
820.058	153.94
820.236	96.6
820.414	211.28
820.592	209.23
820.77	170.32
820.948	176.47
821.127	170.32
821.305	184.66
821.483	65.88
821.661	233.81
821.839	162.13
822.017	149.84
822.195	184.66
822.373	186.71
822.551	151.89
822.729	153.94
822.907	90.45
823.085	198.99
823.262	219.47
823.44	133.46
823.618	168.27
823.796	149.84
823.974	88.4
824.152	108.88
824.329	151.89
824.507	205.14
824.685	239.95
824.863	160.08
825.04	137.56
825.218	135.51
825.396	145.75
825.574	125.27
825.751	194.9
825.929	108.88
826.107	176.47
826.284	186.71
826.462	125.27
826.639	100.69
826.817	72.02
826.994	100.69
827.172	94.55
827.349	121.17
827.527	88.4
827.704	98.64
827.882	121.17
828.059	137.56
828.237	80.21
828.414	176.47
828.591	76.12
828.769	166.23
828.946	67.92
829.124	155.99
829.301	106.84
829.478	155.99
829.655	168.27
829.833	135.51
830.01	102.74
830.187	158.03
830.364	80.21
830.542	49.49
830.719	239.95
830.896	121.17
831.073	131.41
831.25	110.93
831.427	80.21
831.604	108.88
831.782	102.74
831.959	162.13
832.136	176.47
832.313	88.4
832.49	98.64
832.667	170.32
832.844	33.11
833.021	137.56
833.198	74.07
833.374	104.79
833.551	33.11
833.728	51.54
833.905	129.36
834.082	59.73
834.259	61.78
834.436	147.8
834.612	-40.62
834.789	127.32
834.966	96.6
835.143	123.22
835.319	74.07
835.496	39.25
835.673	123.22
835.85	211.28
836.026	51.54
836.203	119.12
836.38	31.06
836.556	69.97
836.733	69.97
836.909	137.56
837.086	84.31
837.262	162.13
837.439	26.96
837.616	80.21
837.792	55.64
837.968	49.49
838.145	102.74
838.321	51.54
838.498	110.93
838.674	88.4
838.851	96.6
839.027	78.16
839.203	0.34
839.38	29.01
839.556	82.26
839.732	84.31
839.909	72.02
840.085	78.16
840.261	22.87
840.437	88.4
840.614	74.07
840.79	158.03
840.966	55.64
841.142	104.79
841.318	96.6
841.494	117.08
841.671	18.77
841.847	76.12
842.023	-9.9
842.199	76.12
842.375	92.5
842.551	2.39
842.727	78.16
842.903	16.73
843.079	24.92
843.255	106.84
843.431	55.64
843.607	98.64
843.783	-30.38
843.959	112.98
844.134	35.16
844.31	119.12
844.486	59.73
844.662	-13.99
844.838	-9.9
845.013	67.92
845.189	100.69
845.365	74.07
845.541	100.69
845.716	29.01
845.892	80.21
846.068	2.39
846.244	45.4
846.419	106.84
846.595	61.78
846.77	55.64
846.946	127.32
847.122	35.16
847.297	92.5
847.473	121.17
847.648	43.35
847.824	69.97
847.999	-44.71
848.175	63.83
848.35	59.73
848.526	133.46
848.701	29.01
848.876	76.12
849.052	110.93
849.227	-63.15
849.403	51.54
849.578	84.31
849.753	67.92
849.929	137.56
850.104	90.45
850.279	59.73
850.454	45.4
850.63	49.49
850.805	72.02
850.98	53.59
851.155	18.77
851.33	131.41
851.505	49.49
851.681	41.3
851.856	-16.04
852.031	100.69
852.206	84.31
852.381	76.12
852.556	72.02
852.731	59.73
852.906	47.44
853.081	6.49
853.256	84.31
853.431	4.44
853.606	92.5
853.781	72.02
853.956	-26.28
854.131	26.96
854.305	78.16
854.48	8.53
854.655	67.92
854.83	-13.99
855.005	31.06
855.18	67.92
855.354	-9.9
855.529	18.77
855.704	-11.95
855.879	10.58
856.053	22.87
856.228	22.87
856.403	-5.8
856.577	20.82
856.752	96.6
856.926	45.4
857.101	86.36
857.276	29.01
857.45	33.11
857.625	74.07
857.799	82.26
857.974	43.35
858.148	59.73
858.323	39.25
858.497	-5.8
858.672	20.82
858.846	26.96
859.02	92.5
859.195	-18.09
859.369	39.25
859.543	104.79
859.718	65.88
859.892	76.12
860.066	100.69
860.241	51.54
860.415	-11.95
860.589	37.2
860.763	90.45
860.938	29.01
861.112	49.49
861.286	69.97
861.46	33.11
861.634	69.97
861.808	100.69
861.982	33.11
862.157	65.88
862.331	-28.33
862.505	-9.9
862.679	-22.19
862.853	-11.95
863.027	-5.8
863.201	90.45
863.375	6.49
863.549	33.11
863.722	10.58
863.896	26.96
864.07	-1.71
864.244	22.87
864.418	45.4
864.592	57.68
864.766	-30.38
864.939	82.26
865.113	59.73
865.287	67.92
865.461	20.82
865.634	31.06
865.808	-46.76
865.982	61.78
866.156	4.44
866.329	-11.95
866.503	104.79
866.676	86.36
866.85	72.02
867.024	20.82
867.197	31.06
867.371	35.16
867.544	53.59
867.718	22.87
867.891	45.4
868.065	-22.19
868.238	6.49
868.412	-20.14
868.585	4.44
868.759	-11.95
868.932	-30.38
869.105	-18.09
869.279	20.82
869.452	16.73
869.625	22.87
869.799	43.35
869.972	4.44
870.145	-24.23
870.319	2.39
870.492	45.4
870.665	-18.09
870.838	10.58
871.011	-18.09
871.185	14.68
871.358	63.83
871.531	26.96
871.704	-7.85
871.877	43.35
872.05	47.44
872.223	6.49
872.396	12.63
872.569	110.93
872.742	-108.2
872.915	37.2
873.088	-9.9
873.261	14.68
873.434	22.87
873.607	96.6
873.78	65.88
873.953	-71.34
874.126	33.11
874.299	10.58
874.471	76.12
874.644	-1.71
874.817	78.16
874.99	65.88
875.163	-1.71
875.335	-18.09
875.508	39.25
875.681	18.77
875.853	69.97
876.026	-18.09
876.199	47.44
876.371	55.64
876.544	39.25
876.717	-28.33
876.889	45.4
877.062	67.92
877.234	-26.28
877.407	-3.75
877.579	-18.09
877.752	4.44
877.924	67.92
878.097	84.31
878.269	24.92
878.442	76.12
878.614	24.92
878.786	14.68
878.959	43.35
879.131	31.06
879.303	37.2
879.476	10.58
879.648	69.97
879.82	-1.71
879.993	-34.47
880.165	10.58
880.337	-34.47
880.509	39.25
880.681	76.12
880.854	29.01
881.026	4.44
881.198	106.84
881.37	-79.53
881.542	96.6
881.714	-3.75
881.886	-13.99
882.058	39.25
882.23	2.39
882.402	-42.67
882.574	22.87
882.746	-5.8
882.918	78.16
883.09	-7.85
883.262	-38.57
883.434	26.96
883.606	39.25
883.778	2.39
883.95	86.36
884.122	2.39
884.293	29.01
884.465	14.68
884.637	74.07
884.809	31.06
884.98	65.88
885.152	31.06
885.324	29.01
885.496	8.53
885.667	16.73
885.839	2.39
886.011	61.78
886.182	-34.47
886.354	-26.28
886.525	31.06
886.697	37.2
886.869	78.16
887.04	-3.75
887.212	-16.04
887.383	92.5
887.555	49.49
887.726	104.79
887.897	47.44
888.069	-26.28
888.24	35.16
888.412	69.97
888.583	4.44
888.754	18.77
888.926	0.34
889.097	20.82
889.268	0.34
889.44	108.88
889.611	-61.1
889.782	-9.9
889.953	33.11
890.125	-13.99
890.296	-65.19
890.467	90.45
890.638	29.01
890.809	94.55
890.98	-69.29
891.151	47.44
891.323	18.77
891.494	59.73
891.665	-9.9
891.836	2.39
892.007	-24.23
892.178	33.11
892.349	-13.99
892.52	45.4
892.691	-11.95
892.862	-3.75
893.032	-16.04
893.203	-40.62
893.374	35.16
893.545	31.06
893.716	12.63
893.887	18.77
894.057	47.44
894.228	35.16
894.399	29.01
894.57	14.68
894.74	22.87
894.911	90.45
895.082	-1.71
895.253	6.49
895.423	47.44
895.594	-26.28
895.764	8.53
895.935	47.44
896.106	-65.19
896.276	-9.9
896.447	-38.57
896.617	-3.75
896.788	-11.95
896.958	78.16
897.129	-5.8
897.299	-59.05
897.47	121.17
897.64	47.44
897.81	2.39
897.981	-5.8
898.151	-16.04
898.322	43.35
898.492	-22.19
898.662	8.53
898.832	-16.04
899.003	8.53
899.173	-3.75
899.343	-32.43
899.513	-13.99
