Data from USB4F104151__51__10-23-41-894.txt Node

Date: Wed Mar 12 10:23:41 EDT 2025
User: louis
Spectrometer: USB4F10415
Trigger mode: 4
Integration Time (sec): 3.000000E-2
Scans to average: 1
Electric dark correction enabled: true
Nonlinearity correction enabled: false
Boxcar width: 0
XAxis mode: Wavelengths
Number of Pixels in Spectrum: 3648
>>>>>Begin Spectral Data<<<<<
178.204	-151.55
178.424	-151.55
178.644	-151.55
178.864	-110.59
179.084	-51.2
179.304	-20.48
179.524	-26.62
179.744	-6.14
179.964	-8.19
180.184	-10.24
180.404	49.15
180.624	32.77
180.844	-71.68
181.064	-24.58
181.283	2.05
181.503	53.25
181.723	30.72
181.943	-30.72
182.163	49.15
182.383	-20.48
182.602	83.97
182.822	83.97
183.042	-10.24
183.262	36.86
183.482	30.72
183.701	61.44
183.921	24.58
184.141	90.11
184.361	53.25
184.58	-49.15
184.8	92.16
185.02	79.87
185.239	83.97
185.459	53.25
185.679	100.35
185.898	40.96
186.118	47.1
186.338	57.34
186.557	73.73
186.777	40.96
186.997	75.77
187.216	43.01
187.436	12.29
187.655	12.29
187.875	-6.14
188.095	10.24
188.314	61.44
188.534	59.39
188.753	-6.14
188.973	28.67
189.192	65.53
189.412	-0
189.631	67.58
189.851	-22.53
190.07	65.53
190.29	18.43
190.509	-36.86
190.729	83.97
190.948	16.38
191.168	206.84
191.387	53.25
191.607	10.24
191.826	-0
192.045	20.48
192.265	110.59
192.484	43.01
192.704	4.1
192.923	34.82
193.142	110.59
193.362	14.34
193.581	102.4
193.8	36.86
194.02	32.77
194.239	45.06
194.458	100.35
194.678	-4.1
194.897	55.3
195.116	32.77
195.335	-6.14
195.555	63.49
195.774	36.86
195.993	83.97
196.212	53.25
196.432	4.1
196.651	24.58
196.87	-16.38
197.089	34.82
197.308	2.05
197.528	-16.38
197.747	59.39
197.966	28.67
198.185	96.25
198.404	-0
198.623	77.82
198.842	73.73
199.062	77.82
199.281	73.73
199.5	67.58
199.719	43.01
199.938	51.2
200.157	110.59
200.376	-22.53
200.595	73.73
200.814	2.05
201.033	61.44
201.252	67.58
201.471	55.3
201.69	92.16
201.909	63.49
202.128	-12.29
202.347	24.58
202.566	24.58
202.785	-0
203.004	20.48
203.223	47.1
203.442	24.58
203.661	65.53
203.879	53.25
204.098	20.48
204.317	-49.15
204.536	79.87
204.755	26.62
204.974	18.43
205.193	110.59
205.411	139.26
205.63	47.1
205.849	6.14
206.068	53.25
206.287	4.1
206.505	14.34
206.724	86.01
206.943	-2.05
207.162	-26.62
207.381	-10.24
207.599	71.68
207.818	57.34
208.037	40.96
208.255	43.01
208.474	57.34
208.693	14.34
208.911	12.29
209.13	49.15
209.349	51.2
209.567	92.16
209.786	26.62
210.005	-14.34
210.223	36.86
210.442	36.86
210.661	159.74
210.879	6.14
211.098	61.44
211.316	40.96
211.535	75.77
211.753	67.58
211.972	73.73
212.191	16.38
212.409	18.43
212.628	12.29
212.846	-28.67
213.065	67.58
213.283	2.05
213.502	20.48
213.72	34.82
213.938	59.39
214.157	8.19
214.375	6.14
214.594	2.05
214.812	-24.58
215.031	-24.58
215.249	-8.19
215.467	40.96
215.686	104.45
215.904	12.29
216.122	16.38
216.341	200.7
216.559	98.3
216.778	81.92
216.996	55.3
217.214	71.68
217.432	114.69
217.651	-12.29
217.869	-0
218.087	22.53
218.306	53.25
218.524	26.62
218.742	26.62
218.96	38.91
219.179	10.24
219.397	20.48
219.615	51.2
219.833	24.58
220.051	81.92
220.27	34.82
220.488	120.83
220.706	114.69
220.924	32.77
221.142	12.29
221.36	28.67
221.578	2.05
221.796	53.25
222.015	40.96
222.233	-24.58
222.451	40.96
222.669	28.67
222.887	90.11
223.105	-8.19
223.323	77.82
223.541	-18.43
223.759	40.96
223.977	10.24
224.195	36.86
224.413	61.44
224.631	75.77
224.849	86.01
225.067	75.77
225.285	-49.15
225.503	81.92
225.721	4.1
225.939	36.86
226.157	88.06
226.375	120.83
226.592	-40.96
226.81	-18.43
227.028	61.44
227.246	135.17
227.464	24.58
227.682	53.25
227.9	83.97
228.117	69.63
228.335	28.67
228.553	22.53
228.771	40.96
228.989	90.11
229.206	18.43
229.424	18.43
229.642	22.53
229.86	-28.67
230.077	43.01
230.295	98.3
230.513	49.15
230.731	81.92
230.948	77.82
231.166	94.21
231.384	22.53
231.601	47.1
231.819	75.77
232.037	45.06
232.254	59.39
232.472	6.14
232.689	4.1
232.907	106.49
233.125	81.92
233.342	116.73
233.56	43.01
233.777	65.53
233.995	45.06
234.213	28.67
234.43	38.91
234.648	-34.82
234.865	34.82
235.083	57.34
235.3	18.43
235.518	61.44
235.735	100.35
235.953	151.55
236.17	69.63
236.388	53.25
236.605	12.29
236.822	40.96
237.04	2.05
237.257	26.62
237.475	83.97
237.692	10.24
237.909	18.43
238.127	24.58
238.344	106.49
238.562	118.78
238.779	-8.19
238.996	40.96
239.214	40.96
239.431	77.82
239.648	-10.24
239.865	10.24
240.083	49.15
240.3	71.68
240.517	8.19
240.735	81.92
240.952	26.62
241.169	83.97
241.386	69.63
241.603	-22.53
241.821	-14.34
242.038	4.1
242.255	43.01
242.472	51.2
242.689	43.01
242.907	65.53
243.124	45.06
243.341	55.3
243.558	59.39
243.775	-32.77
243.992	57.34
244.209	75.77
244.426	47.1
244.643	96.25
244.86	-18.43
245.078	51.2
245.295	96.25
245.512	36.86
245.729	24.58
245.946	81.92
246.163	26.62
246.38	22.53
246.597	24.58
246.814	67.58
247.031	57.34
247.248	-14.34
247.464	88.06
247.681	-36.86
247.898	118.78
248.115	86.01
248.332	69.63
248.549	59.39
248.766	30.72
248.983	26.62
249.2	20.48
249.417	63.49
249.633	14.34
249.85	116.73
250.067	12.29
250.284	100.35
250.501	61.44
250.717	88.06
250.934	61.44
251.151	8.19
251.368	4.1
251.585	-14.34
251.801	-18.43
252.018	28.67
252.235	67.58
252.451	22.53
252.668	-4.1
252.885	26.62
253.102	86.01
253.318	81.92
253.535	24.58
253.752	28.67
253.968	53.25
254.185	36.86
254.401	4.1
254.618	47.1
254.835	-6.14
255.051	79.87
255.268	22.53
255.484	12.29
255.701	28.67
255.917	18.43
256.134	32.77
256.351	-14.34
256.567	-14.34
256.784	26.62
257	36.86
257.217	40.96
257.433	45.06
257.65	28.67
257.866	-14.34
258.082	55.3
258.299	2.05
258.515	20.48
258.732	73.73
258.948	38.91
259.165	34.82
259.381	110.59
259.597	65.53
259.814	-4.1
260.03	32.77
260.246	53.25
260.463	-4.1
260.679	45.06
260.895	24.58
261.112	81.92
261.328	-6.14
261.544	77.82
261.761	118.78
261.977	32.77
262.193	100.35
262.409	-57.34
262.626	122.88
262.842	94.21
263.058	30.72
263.274	73.73
263.49	24.58
263.707	12.29
263.923	94.21
264.139	2.05
264.355	92.16
264.571	96.25
264.787	110.59
265.004	79.87
265.22	-20.48
265.436	-12.29
265.652	12.29
265.868	69.63
266.084	-22.53
266.3	61.44
266.516	61.44
266.732	18.43
266.948	65.53
267.164	-22.53
267.38	122.88
267.596	40.96
267.812	67.58
268.028	102.4
268.244	36.86
268.46	114.69
268.676	14.34
268.892	98.3
269.108	34.82
269.324	-28.67
269.54	-2.05
269.756	49.15
269.972	45.06
270.188	118.78
270.403	40.96
270.619	45.06
270.835	36.86
271.051	-4.1
271.267	40.96
271.483	49.15
271.698	55.3
271.914	61.44
272.13	120.83
272.346	57.34
272.562	8.19
272.777	90.11
272.993	124.93
273.209	24.58
273.425	61.44
273.64	59.39
273.856	63.49
274.072	49.15
274.287	47.1
274.503	28.67
274.719	106.49
274.934	-6.14
275.15	61.44
275.366	106.49
275.581	49.15
275.797	36.86
276.012	36.86
276.228	32.77
276.444	96.25
276.659	129.02
276.875	24.58
277.09	24.58
277.306	20.48
277.521	98.3
277.737	22.53
277.952	40.96
278.168	61.44
278.383	-32.77
278.599	24.58
278.814	51.2
279.03	-18.43
279.245	131.07
279.461	36.86
279.676	-28.67
279.892	18.43
280.107	106.49
280.322	4.1
280.538	16.38
280.753	-8.19
280.969	69.63
281.184	49.15
281.399	131.07
281.615	-22.53
281.83	26.62
282.045	26.62
282.26	40.96
282.476	4.1
282.691	98.3
282.906	24.58
283.122	108.54
283.337	32.77
283.552	59.39
283.767	53.25
283.983	73.73
284.198	61.44
284.413	57.34
284.628	-28.67
284.843	30.72
285.058	47.1
285.274	-4.1
285.489	8.19
285.704	86.01
285.919	102.4
286.134	24.58
286.349	32.77
286.564	32.77
286.779	43.01
286.995	75.77
287.21	49.15
287.425	61.44
287.64	38.91
287.855	22.53
288.07	-14.34
288.285	83.97
288.5	30.72
288.715	-6.14
288.93	34.82
289.145	61.44
289.36	71.68
289.575	77.82
289.79	38.91
290.004	12.29
290.219	32.77
290.434	69.63
290.649	69.63
290.864	16.38
291.079	71.68
291.294	102.4
291.509	90.11
291.724	40.96
291.938	36.86
292.153	77.82
292.368	53.25
292.583	65.53
292.798	51.2
293.012	94.21
293.227	61.44
293.442	34.82
293.657	-26.62
293.871	104.45
294.086	-14.34
294.301	81.92
294.516	69.63
294.73	81.92
294.945	32.77
295.16	83.97
295.374	100.35
295.589	67.58
295.804	-24.58
296.018	-24.58
296.233	139.26
296.447	169.98
296.662	26.62
296.877	73.73
297.091	53.25
297.306	126.97
297.52	-12.29
297.735	28.67
297.949	43.01
298.164	22.53
298.378	-63.49
298.593	-8.19
298.807	49.15
299.022	83.97
299.236	2.05
299.451	75.77
299.665	20.48
299.88	81.92
300.094	57.34
300.309	79.87
300.523	100.35
300.737	36.86
300.952	53.25
301.166	137.21
301.381	26.62
301.595	65.53
301.809	63.49
302.024	-14.34
302.238	18.43
302.452	55.3
302.667	16.38
302.881	40.96
303.095	36.86
303.309	73.73
303.524	30.72
303.738	47.1
303.952	20.48
304.166	36.86
304.381	-88.06
304.595	98.3
304.809	-2.05
305.023	2.05
305.237	45.06
305.452	67.58
305.666	69.63
305.88	65.53
306.094	-10.24
306.308	65.53
306.522	73.73
306.736	120.83
306.95	16.38
307.164	32.77
307.379	-6.14
307.593	131.07
307.807	45.06
308.021	4.1
308.235	53.25
308.449	86.01
308.663	2.05
308.877	110.59
309.091	92.16
309.305	34.82
309.519	36.86
309.733	96.25
309.947	-4.1
310.161	112.64
310.374	98.3
310.588	45.06
310.802	-45.06
311.016	55.3
311.23	61.44
311.444	34.82
311.658	38.91
311.872	71.68
312.085	51.2
312.299	57.34
312.513	108.54
312.727	61.44
312.941	32.77
313.154	8.19
313.368	8.19
313.582	86.01
313.796	90.11
314.009	2.05
314.223	30.72
314.437	-51.2
314.651	98.3
314.864	2.05
315.078	-94.21
315.292	-43.01
315.505	10.24
315.719	92.16
315.933	102.4
316.146	67.58
316.36	-28.67
316.573	69.63
316.787	126.97
317.001	32.77
317.214	45.06
317.428	-0
317.641	55.3
317.855	16.38
318.068	-10.24
318.282	71.68
318.495	110.59
318.709	108.54
318.922	45.06
319.136	139.26
319.349	98.3
319.563	12.29
319.776	73.73
319.99	71.68
320.203	55.3
320.417	81.92
320.63	90.11
320.843	94.21
321.057	61.44
321.27	57.34
321.483	67.58
321.697	-8.19
321.91	-12.29
322.124	4.1
322.337	-4.1
322.55	75.77
322.763	49.15
322.977	45.06
323.19	67.58
323.403	65.53
323.617	120.83
323.83	30.72
324.043	71.68
324.256	120.83
324.469	96.25
324.683	43.01
324.896	-38.91
325.109	-20.48
325.322	86.01
325.535	83.97
325.748	133.12
325.962	-10.24
326.175	47.1
326.388	6.14
326.601	28.67
326.814	34.82
327.027	100.35
327.24	65.53
327.453	28.67
327.666	69.63
327.879	131.07
328.092	124.93
328.305	20.48
328.518	116.73
328.731	12.29
328.944	88.06
329.157	30.72
329.37	18.43
329.583	110.59
329.796	53.25
330.009	86.01
330.222	122.88
330.435	53.25
330.648	69.63
330.861	133.12
331.073	-2.05
331.286	61.44
331.499	73.73
331.712	112.64
331.925	26.62
332.138	92.16
332.35	8.19
332.563	24.58
332.776	94.21
332.989	59.39
333.202	18.43
333.414	59.39
333.627	59.39
333.84	59.39
334.053	-6.14
334.265	18.43
334.478	55.3
334.691	18.43
334.903	59.39
335.116	12.29
335.329	14.34
335.541	112.64
335.754	34.82
335.966	14.34
336.179	69.63
336.392	104.45
336.604	77.82
336.817	94.21
337.029	12.29
337.242	61.44
337.454	135.17
337.667	86.01
337.88	73.73
338.092	69.63
338.305	69.63
338.517	36.86
338.729	77.82
338.942	40.96
339.154	4.1
339.367	69.63
339.579	61.44
339.792	-4.1
340.004	118.78
340.217	61.44
340.429	81.92
340.641	55.3
340.854	-0
341.066	92.16
341.278	63.49
341.491	110.59
341.703	98.3
341.915	75.77
342.128	135.17
342.34	-12.29
342.552	51.2
342.764	61.44
342.977	36.86
343.189	36.86
343.401	83.97
343.613	-12.29
343.826	100.35
344.038	10.24
344.25	65.53
344.462	90.11
344.674	61.44
344.886	45.06
345.099	16.38
345.311	118.78
345.523	81.92
345.735	34.82
345.947	86.01
346.159	26.62
346.371	116.73
346.583	-20.48
346.795	100.35
347.007	36.86
347.219	94.21
347.431	4.1
347.643	110.59
347.855	32.77
348.067	114.69
348.279	94.21
348.491	83.97
348.703	110.59
348.915	57.34
349.127	16.38
349.339	51.2
349.551	-4.1
349.763	151.55
349.975	-0
350.187	65.53
350.399	102.4
350.61	75.77
350.822	24.58
351.034	114.69
351.246	67.58
351.458	102.4
351.669	24.58
351.881	30.72
352.093	98.3
352.305	124.93
352.517	116.73
352.728	81.92
352.94	-10.24
353.152	49.15
353.363	126.97
353.575	96.25
353.787	90.11
353.999	77.82
354.21	114.69
354.422	75.77
354.633	94.21
354.845	81.92
355.057	16.38
355.268	10.24
355.48	129.02
355.692	67.58
355.903	34.82
356.115	73.73
356.326	10.24
356.538	38.91
356.749	75.77
356.961	96.25
357.172	-36.86
357.384	51.2
357.595	219.13
357.807	12.29
358.018	79.87
358.23	65.53
358.441	88.06
358.653	75.77
358.864	55.3
359.075	57.34
359.287	79.87
359.498	110.59
359.709	-36.86
359.921	57.34
360.132	61.44
360.344	32.77
360.555	77.82
360.766	51.2
360.977	61.44
361.189	126.97
361.4	14.34
361.611	57.34
361.823	149.5
362.034	122.88
362.245	57.34
362.456	118.78
362.667	-38.91
362.879	59.39
363.09	81.92
363.301	114.69
363.512	18.43
363.723	71.68
363.935	28.67
364.146	100.35
364.357	-20.48
364.568	47.1
364.779	-4.1
364.99	8.19
365.201	69.63
365.412	124.93
365.623	30.72
365.834	20.48
366.045	43.01
366.256	49.15
366.467	108.54
366.678	143.36
366.889	36.86
367.1	67.58
367.311	63.49
367.522	59.39
367.733	92.16
367.944	47.1
368.155	12.29
368.366	83.97
368.577	83.97
368.788	57.34
368.999	53.25
369.209	8.19
369.42	204.8
369.631	120.83
369.842	47.1
370.053	81.92
370.264	71.68
370.474	49.15
370.685	81.92
370.896	38.91
371.107	90.11
371.317	51.2
371.528	45.06
371.739	141.31
371.95	45.06
372.16	69.63
372.371	94.21
372.582	73.73
372.792	40.96
373.003	4.1
373.214	116.73
373.424	94.21
373.635	73.73
373.846	40.96
374.056	57.34
374.267	63.49
374.477	55.3
374.688	77.82
374.898	67.58
375.109	30.72
375.319	118.78
375.53	98.3
375.74	12.29
375.951	47.1
376.161	96.25
376.372	61.44
376.582	81.92
376.793	96.25
377.003	24.58
377.214	49.15
377.424	90.11
377.635	71.68
377.845	51.2
378.055	63.49
378.266	69.63
378.476	4.1
378.686	69.63
378.897	88.06
379.107	63.49
379.317	81.92
379.528	38.91
379.738	55.3
379.948	22.53
380.158	135.17
380.369	61.44
380.579	83.97
380.789	79.87
380.999	100.35
381.21	53.25
381.42	102.4
381.63	61.44
381.84	149.5
382.05	38.91
382.261	16.38
382.471	86.01
382.681	75.77
382.891	63.49
383.101	114.69
383.311	67.58
383.521	83.97
383.731	143.36
383.941	112.64
384.151	139.26
384.361	118.78
384.571	36.86
384.781	47.1
384.991	122.88
385.201	110.59
385.411	151.55
385.621	47.1
385.831	116.73
386.041	86.01
386.251	151.55
386.461	94.21
386.671	57.34
386.881	28.67
387.091	73.73
387.301	110.59
387.511	131.07
387.72	71.68
387.93	73.73
388.14	-8.19
388.35	69.63
388.56	98.3
388.769	143.36
388.979	112.64
389.189	90.11
389.399	83.97
389.609	2.05
389.818	65.53
390.028	73.73
390.238	102.4
390.447	98.3
390.657	94.21
390.867	61.44
391.076	69.63
391.286	114.69
391.496	43.01
391.705	118.78
391.915	81.92
392.125	94.21
392.334	83.97
392.544	114.69
392.753	159.74
392.963	98.3
393.172	75.77
393.382	14.34
393.591	141.31
393.801	112.64
394.01	122.88
394.22	149.5
394.429	110.59
394.639	83.97
394.848	116.73
395.058	110.59
395.267	131.07
395.477	114.69
395.686	92.16
395.895	174.08
396.105	204.8
396.314	129.02
396.524	120.83
396.733	61.44
396.942	145.41
397.152	131.07
397.361	112.64
397.57	135.17
397.78	163.84
397.989	102.4
398.198	137.21
398.407	92.16
398.617	131.07
398.826	94.21
399.035	135.17
399.244	139.26
399.453	57.34
399.663	153.6
399.872	219.13
400.081	129.02
400.29	94.21
400.499	110.59
400.708	192.51
400.917	110.59
401.127	167.93
401.336	174.08
401.545	137.21
401.754	153.6
401.963	90.11
402.172	118.78
402.381	77.82
402.59	135.17
402.799	176.13
403.008	221.18
403.217	172.03
403.426	159.74
403.635	135.17
403.844	118.78
404.053	184.32
404.262	135.17
404.471	243.71
404.68	188.41
404.888	182.27
405.097	120.83
405.306	210.94
405.515	180.22
405.724	284.67
405.933	221.18
406.142	237.56
406.35	229.37
406.559	290.81
406.768	204.8
406.977	282.62
407.185	296.96
407.394	192.51
407.603	212.99
407.812	249.85
408.02	385.02
408.229	221.18
408.438	282.62
408.646	311.29
408.855	260.09
409.064	331.77
409.272	395.26
409.481	290.81
409.69	274.43
409.898	321.53
410.107	356.35
410.315	372.73
410.524	419.83
410.733	458.74
410.941	413.69
411.15	452.6
411.358	385.02
411.567	509.94
411.775	458.74
411.984	501.75
412.192	487.42
412.401	573.43
412.609	579.58
412.818	561.14
413.026	575.48
413.234	583.67
413.443	659.45
413.651	702.45
413.86	624.63
414.068	765.94
414.276	671.73
414.485	743.41
414.693	733.17
414.901	854
415.11	790.52
415.318	802.8
415.526	802.8
415.734	823.28
415.943	966.64
416.151	942.07
416.359	1032.18
416.567	1073.14
416.776	1077.23
416.984	1064.94
417.192	1243.12
417.4	1163.25
417.608	1144.81
417.817	1228.78
418.025	1298.41
418.233	1396.71
418.441	1284.08
418.649	1531.88
418.857	1566.7
419.065	1615.85
419.273	1517.54
419.481	1550.31
419.689	1781.73
419.897	1742.82
420.105	1785.83
420.313	2029.54
420.521	1880.04
420.729	1992.67
420.937	2060.26
421.145	2068.45
421.353	2123.74
421.561	2254.81
421.769	2217.95
421.977	2412.51
422.185	2494.43
422.393	2695.13
422.601	2711.51
422.809	2680.79
423.017	2834.39
423.224	2936.79
423.432	3024.85
423.64	2854.87
423.848	3338.19
424.056	3133.39
424.263	3334.09
424.471	3352.52
424.679	3526.6
424.887	3534.79
425.094	3704.78
425.302	3798.98
425.51	3788.74
425.718	4030.4
425.925	4136.9
426.133	4280.25
426.341	4413.37
426.548	4534.2
426.756	4632.51
426.964	4679.61
427.171	5060.53
427.379	5095.35
427.586	5171.12
427.794	5418.93
428.001	5541.8
428.209	5742.5
428.417	5732.26
428.624	6104.99
428.832	5947.3
429.039	6303.65
429.247	6205.35
429.454	6750.1
429.662	7057.3
429.869	6764.44
430.076	7237.52
430.284	6944.66
430.491	7206.8
430.699	7870.34
430.906	7495.57
431.114	7837.58
431.321	7968.65
431.528	8333.18
431.736	8646.52
431.943	8904.57
432.15	8941.43
432.358	9015.16
432.565	9559.92
432.772	9367.41
432.979	9856.87
433.187	9834.35
433.394	10059.62
433.601	10841.95
433.808	10909.53
434.016	10858.33
434.223	11132.76
434.43	11822.92
434.637	11663.18
434.844	12240.71
435.052	12508.99
435.259	12513.09
435.466	12693.31
435.673	12498.75
435.88	13168.44
436.087	13997.87
436.294	13866.8
436.501	13659.95
436.708	13932.33
436.915	14499.62
437.122	14976.8
437.329	14796.57
437.537	15310.61
437.743	15513.36
437.95	15474.45
438.157	16144.14
438.364	17092.35
438.571	16756.48
438.778	16877.31
438.985	18517.73
439.192	17929.97
439.399	18335.46
439.606	18366.18
439.813	19089.12
440.02	20428.49
440.227	19709.65
440.433	19740.37
440.64	20274.89
440.847	20195.02
441.054	20618.95
441.261	21900.98
441.467	21751.48
441.674	22011.57
441.881	22660.77
442.088	22679.21
442.294	22607.53
442.501	23393.95
442.708	24014.48
442.914	24477.32
443.121	25566.84
443.328	24888.96
443.534	26680.94
443.741	26265.2
443.948	25806.45
444.154	27893.33
444.361	27182.69
444.568	27895.38
444.774	27532.89
444.981	27971.16
445.187	28560.97
445.394	29810.23
445.6	29343.3
445.807	32245.27
446.013	30731.82
446.22	31295.01
446.426	32341.52
446.633	32771.6
446.839	33816.06
447.046	32521.74
447.252	34176.5
447.459	34190.84
447.665	33687.04
447.871	35345.89
448.078	36550.1
448.284	35540.45
448.491	36388.31
448.697	37406.15
448.903	38081.98
449.11	38174.14
449.316	37557.7
449.522	38376.89
449.728	39261.61
449.935	39515.56
450.141	39724.45
450.347	40390.04
450.553	39384.49
450.76	39525.8
450.966	40627.6
451.172	39871.9
451.378	41084.3
451.584	40486.29
451.791	41493.89
451.997	41170.32
452.203	42317.18
452.409	41745.79
452.615	41430.41
452.821	39986.59
453.027	39890.34
453.233	41670.02
453.44	39736.74
453.646	40228.25
453.852	40850.83
454.058	40883.6
454.264	39353.77
454.47	40390.04
454.676	39642.53
454.882	41311.63
455.088	37561.79
455.294	38098.36
455.5	38401.46
455.705	38731.18
455.911	36992.46
456.117	36488.66
456.323	36402.64
456.529	33656.32
456.735	35565.03
456.941	34412.02
457.147	33969.66
457.352	33140.23
457.558	32552.46
457.764	32792.08
457.97	32095.77
458.176	31280.67
458.381	31401.5
458.587	30025.27
458.793	29849.14
458.999	28423.76
459.204	30268.98
459.41	29494.85
459.616	27711.07
459.821	27493.98
460.027	27727.45
460.233	26844.77
460.438	25779.83
460.644	25732.73
460.85	24686.22
461.055	24266.38
461.261	24432.27
461.466	22570.66
461.672	21753.52
461.878	23133.85
462.083	22134.45
462.289	21530.3
462.494	21518.01
462.7	20551.37
462.905	19703.51
463.111	20539.08
463.316	20692.68
463.522	20303.56
463.727	20360.91
463.932	20158.16
464.138	19515.09
464.343	20010.7
464.549	19175.13
464.754	19939.02
464.959	20025.04
465.165	19926.74
465.37	19121.88
465.575	18386.66
465.781	19060.45
465.986	19361.5
466.191	18419.43
466.397	18046.7
466.602	17426.17
466.807	18034.41
467.012	17942.25
467.218	17852.14
467.423	17635.06
467.628	17798.9
467.833	18679.52
468.038	17889.01
468.244	17368.82
468.449	17968.88
468.654	17401.59
468.859	17512.18
469.064	17204.99
469.269	16746.24
469.474	16502.53
469.679	17227.51
469.885	16490.24
470.09	16953.09
470.295	16641.79
470.5	16357.13
470.705	16060.17
470.91	16008.97
471.115	15740.69
471.32	15953.68
471.525	15838.99
471.73	15456.02
471.935	15738.64
472.139	15292.18
472.344	15109.91
472.549	14892.83
472.754	14845.73
472.959	14767.9
473.164	14126.89
473.369	14145.32
473.574	14518.05
473.778	14194.47
473.983	14362.4
474.188	14294.82
474.393	13473.59
474.598	13659.95
474.802	13645.62
475.007	13764.4
475.212	13279.03
475.417	12943.16
475.621	12973.88
475.826	13090.62
476.031	12918.59
476.235	12726.08
476.44	12904.25
476.645	12470.08
476.849	12527.42
477.054	12199.75
477.259	12109.64
477.463	12298.05
477.668	11857.74
477.872	11994.95
478.077	11917.13
478.282	11378.51
478.486	11525.97
478.691	11454.29
478.895	11464.53
479.1	11345.75
479.304	11231.06
479.509	11208.53
479.713	11566.93
479.918	10936.15
480.122	10923.87
480.326	10911.58
480.531	11030.36
480.735	10901.34
480.94	10805.08
481.144	11118.42
481.348	10590.05
481.553	10667.87
481.757	10510.18
481.961	10606.43
482.166	10727.26
482.37	10768.22
482.574	10526.56
482.778	10573.66
482.983	10950.49
483.187	10585.95
483.391	10710.88
483.595	10461.02
483.8	10409.83
484.004	10370.91
484.208	10628.96
484.412	10571.61
484.616	10375.01
484.821	10530.66
485.025	10356.58
485.229	10631.01
485.433	10452.83
485.637	10637.15
485.841	10465.12
486.045	10440.54
486.249	10639.2
486.453	10637.15
486.657	10440.54
486.861	10563.42
487.065	10430.3
487.269	10727.26
487.473	10243.94
487.677	10807.13
487.881	10616.67
488.085	10461.02
488.289	10749.79
488.493	10653.53
488.697	10596.19
488.901	10712.92
489.105	10727.26
489.309	10946.39
489.512	10727.26
489.716	10839.9
489.92	10848.09
490.124	10598.24
490.328	10887
490.531	10817.37
490.735	10958.68
490.939	10829.66
491.143	10821.47
491.346	11005.78
491.55	11126.61
491.754	11095.89
491.958	11079.51
492.161	10987.35
492.365	11126.61
492.569	11108.18
492.772	11308.88
492.976	11376.47
493.18	11269.97
493.383	11460.43
493.587	11315.03
493.79	11788.11
493.994	11630.41
494.197	11999.05
494.401	11790.16
494.605	11673.42
494.808	12054.34
495.012	12066.63
495.215	12209.99
495.419	12257.09
495.622	12078.92
495.825	12435.27
496.029	12422.98
496.232	12920.63
496.436	12625.73
496.639	12904.25
496.843	12883.77
497.046	13154.1
497.249	13279.03
497.453	13246.26
497.656	13590.32
497.859	13477.68
498.063	13745.97
498.266	13897.52
498.469	13987.63
498.673	14255.91
498.876	14276.39
499.079	14653.22
499.282	14372.64
499.485	14815.01
499.689	14659.36
499.892	14989.08
500.095	14837.53
500.298	15501.08
500.501	15202.07
500.705	15861.52
500.908	15763.22
501.111	16246.54
501.314	16189.19
501.517	16178.95
501.72	16774.91
501.923	16480
502.126	16848.64
502.329	17202.94
502.532	17149.69
502.735	17274.62
502.938	17694.45
503.141	17592.05
503.344	18110.19
503.547	18333.42
503.75	18587.36
503.953	18540.26
504.156	18767.59
504.359	18956
504.562	18890.46
504.765	19527.38
504.968	19805.91
505.17	19918.54
505.373	19701.46
505.576	20340.43
505.779	20809.41
505.982	20602.57
506.185	21081.79
506.387	21227.2
506.59	21010.11
506.793	21782.2
506.996	21651.13
507.198	22175.41
507.401	21980.85
507.604	22365.87
507.807	22775.46
508.009	22910.63
508.212	23154.33
508.415	23434.91
508.617	23699.09
508.82	23643.8
509.022	23594.65
509.225	24313.49
509.428	24716.93
509.63	24729.22
509.833	25114.24
510.035	25597.56
510.238	25286.27
510.44	25869.94
510.643	26093.17
510.845	26377.84
511.048	26189.42
511.25	26594.92
511.453	27115.11
511.655	27965.01
511.858	27229.79
512.06	27876.95
512.262	28079.7
512.465	28108.37
512.667	28749.39
512.87	28708.43
513.072	29048.39
513.274	29824.57
513.477	29720.12
513.679	29875.77
513.881	30488.11
514.084	30678.57
514.286	30834.22
514.488	30649.9
514.69	31669.79
514.893	31966.74
515.095	31925.78
515.297	32177.69
515.499	32167.45
515.701	32658.96
515.904	33314.31
516.106	33181.19
516.308	33412.61
516.51	34014.71
516.712	34139.64
516.914	34739.69
517.116	35077.61
517.318	35302.89
517.52	35397.09
517.722	35618.27
517.925	36257.24
518.127	36392.4
518.329	36593.11
518.531	36767.18
518.733	37289.41
518.935	37842.37
519.136	37877.18
519.338	37930.43
519.54	38823.34
519.742	38913.45
519.944	38903.21
520.146	39953.82
520.348	40070.56
520.55	40449.43
520.752	40506.77
520.954	40981.9
521.155	40527.25
521.357	41385.35
521.559	41399.69
521.761	42575.22
521.963	41854.34
522.164	42360.19
522.366	41977.22
522.568	42685.81
522.77	43261.29
522.971	43638.12
523.173	43390.31
523.375	44148.06
523.576	44074.34
523.778	43926.88
523.98	45153.61
524.181	44871
524.383	45096.27
524.584	45622.6
524.786	45659.46
524.988	45587.78
525.189	46286.14
525.391	46347.58
525.592	46695.74
525.794	46873.91
525.995	46789.94
526.197	47201.58
526.398	47160.62
526.6	47306.03
526.801	47691.05
527.003	48069.92
527.204	47867.17
527.406	48299.29
527.607	48178.46
527.808	48860.44
528.01	48239.9
528.211	48966.93
528.412	49466.64
528.614	49491.21
528.815	49364.24
529.016	49831.18
529.218	49220.88
529.419	49974.53
529.62	49593.61
529.822	49696.01
530.023	49777.93
530.224	50349.31
530.425	50040.07
530.626	50109.7
530.828	49743.11
531.029	50812.15
531.23	50337.02
531.431	50472.19
531.632	50873.59
531.833	50947.32
532.035	50504.96
532.236	50984.18
532.437	51098.87
532.638	50916.6
532.839	51231.99
533.04	51070.2
533.241	50808.06
533.442	51834.09
533.643	50865.4
533.844	51475.69
534.045	51672.3
534.246	50787.58
534.447	51426.54
534.648	51479.79
534.849	51918.06
535.05	51309.81
535.251	51731.69
535.451	51444.97
535.652	51897.58
535.853	51743.98
536.054	51758.31
536.255	51991.78
536.456	51395.82
536.657	52499.68
536.857	51520.75
537.058	51453.17
537.259	51854.57
537.46	51975.4
537.66	51346.67
537.861	51664.11
538.062	51412.21
538.263	52255.97
538.463	51367.15
538.664	51766.51
538.865	51766.51
539.065	52061.41
539.266	51160.31
539.466	52442.34
539.667	51385.58
539.868	52008.17
540.068	51608.81
540.269	51832.04
540.469	51631.34
540.67	51574
540.87	51799.27
541.071	51397.87
541.271	51901.67
541.472	51766.51
541.672	51688.68
541.873	51438.83
542.073	51098.87
542.274	51688.68
542.474	51588.33
542.675	51631.34
542.875	52090.09
543.075	51885.29
543.276	51365.1
543.476	52172
543.676	51526.89
543.877	51864.81
544.077	52174.05
544.277	51653.87
544.478	51340.53
544.678	51979.49
544.878	51447.02
545.078	51838.18
545.279	50902.26
545.479	51889.38
545.679	51442.93
545.879	51518.7
546.079	51369.2
546.28	51348.72
546.48	51389.68
546.68	51352.82
546.88	51604.72
547.08	51625.2
547.28	51690.73
547.48	51569.9
547.68	51766.51
547.88	50812.15
548.081	51678.44
548.281	51172.6
548.481	50818.3
548.681	51862.76
548.881	51459.31
549.081	51381.49
549.28	51082.48
549.48	51461.36
549.68	51381.49
549.88	52016.36
550.08	51406.06
550.28	51213.55
550.48	51168.5
550.68	51524.85
550.88	50842.87
551.08	50894.07
551.279	51252.47
551.479	50799.86
551.679	51272.95
551.879	51545.33
552.079	51930.34
552.278	50937.08
552.478	51078.39
552.678	51131.64
552.878	51246.32
553.077	50885.88
553.277	50494.72
553.477	51600.62
553.676	50666.75
553.876	51105.01
554.076	50955.51
554.275	50945.27
554.475	50715.9
554.674	50816.25
554.874	50980.09
555.074	50672.89
555.273	51049.72
555.473	50672.89
555.672	50271.49
555.872	50646.27
556.071	50576.64
556.271	50756.86
556.47	50541.82
556.67	49872.13
556.869	50320.64
557.068	50611.45
557.268	50318.59
557.467	50040.07
557.667	50296.06
557.866	50048.26
558.065	50162.95
558.265	49726.73
558.464	49878.28
558.663	50476.29
558.863	49341.71
559.062	50058.5
559.261	49472.78
559.461	49710.35
559.66	49288.46
559.859	49976.58
560.058	49538.32
560.258	48989.46
560.457	48973.08
560.656	49276.18
560.855	49507.6
561.054	49829.13
561.253	48749.85
561.453	49186.07
561.652	48833.81
561.851	49001.75
562.05	48919.83
562.249	48772.38
562.448	48766.23
562.647	48620.83
562.846	48743.7
563.045	48946.45
563.244	47873.32
563.443	48766.23
563.642	47906.08
563.841	48088.35
564.04	47598.89
564.239	47785.25
564.438	47574.31
564.637	47775.01
564.836	47760.68
565.035	47390
565.234	47414.57
565.432	46916.92
565.631	47115.57
565.83	47609.13
566.029	46933.3
566.228	46636.34
566.427	46777.65
566.625	46613.82
566.824	46038.34
567.023	46742.84
567.222	46146.88
567.42	46810.42
567.619	46374.2
567.818	46132.54
568.016	46204.22
568.215	46263.61
568.414	45815.11
568.612	46351.68
568.811	45864.26
569.01	46028.1
569.208	45110.61
569.407	45489.48
569.605	45040.98
569.804	46013.76
570.002	45174.09
570.201	45088.08
570.4	44772.69
570.598	44471.64
570.797	44436.83
570.995	44715.35
571.193	44162.4
571.392	44676.44
571.59	44242.27
571.789	44160.35
571.987	44004.7
572.186	43822.44
572.384	43734.37
572.582	43847.01
572.781	43793.76
572.979	43300.2
573.177	43576.68
573.376	43935.07
573.574	42861.94
573.772	43687.27
573.971	43144.56
574.169	42669.43
574.367	42792.31
574.565	42818.93
574.763	42603.89
574.962	42188.16
575.16	42274.17
575.358	42388.86
575.556	42132.86
575.754	42575.22
575.952	41751.94
576.151	42370.43
576.349	41598.34
576.547	41641.35
576.745	41672.07
576.943	41846.15
577.141	41301.39
577.339	41688.45
577.537	40881.55
577.735	41176.46
577.933	40711.57
578.131	41067.92
578.329	40670.61
578.527	39996.83
578.725	40727.95
578.923	40334.74
579.121	40037.79
579.319	40557.97
579.516	40441.24
579.714	40084.89
579.912	40113.56
580.11	40191.39
580.308	39937.44
580.506	39767.46
580.704	39400.87
580.901	39884.19
581.099	39847.33
581.297	39134.63
581.495	39202.22
581.692	39484.84
581.89	39062.96
582.088	39708.07
582.285	38995.37
582.483	38841.78
582.681	38813.1
582.878	38356.41
583.076	38262.2
583.274	38583.73
583.471	38229.43
583.669	38671.79
583.866	37985.72
584.064	38051.26
584.262	37664.19
584.459	38059.45
584.657	37508.55
584.854	37639.62
585.052	37174.73
585.249	37469.64
585.447	37488.07
585.644	36865.49
585.841	37344.71
586.039	37283.27
586.236	36822.48
586.434	36650.45
586.631	36722.13
586.828	36697.55
587.026	36918.73
587.223	36359.64
587.42	36419.03
587.618	36240.85
587.815	35499.49
588.012	35970.52
588.21	35495.39
588.407	36013.53
588.604	35702.24
588.801	35704.29
588.999	35562.98
589.196	35401.19
589.393	35223.01
589.59	35212.77
589.787	35255.78
589.984	35059.18
590.182	34747.89
590.379	34958.83
590.576	34690.54
590.773	34737.65
590.97	34258.42
591.167	34483.7
591.364	33947.13
591.561	34297.33
591.758	33975.8
591.955	34168.31
592.152	34317.81
592.349	33719.81
592.546	33895.93
592.743	33926.65
592.94	33396.23
593.137	33750.52
593.334	33695.23
593.531	33193.48
593.727	33318.4
593.924	33316.36
594.121	33058.31
594.318	33297.92
594.515	32667.15
594.712	32724.49
594.908	32689.68
595.105	32779.79
595.302	32497.17
595.499	32626.19
595.696	32458.26
595.892	31698.46
596.089	32323.09
596.286	32296.47
596.482	31976.98
596.679	31991.32
596.876	31768.09
597.072	31888.92
597.269	31847.96
597.466	31039.01
597.662	31444.51
597.859	31188.52
598.055	31587.87
598.252	31063.59
598.448	30791.21
598.645	31325.73
598.841	30778.92
599.038	30744.11
599.234	30864.94
599.431	30486.06
599.627	30195.25
599.824	30926.38
600.02	30381.62
600.217	30623.28
600.413	30156.34
600.609	30062.13
600.806	29648.44
601.002	30010.93
601.198	29617.72
601.395	29511.23
601.591	29699.64
601.787	29439.55
601.984	29398.59
602.18	29431.36
602.376	29359.68
602.572	29281.86
602.769	29357.63
602.965	29017.67
603.161	28894.79
603.357	28929.61
603.553	28741.19
603.75	28878.41
603.946	28450.38
604.142	28966.47
604.338	28188.24
604.534	28603.98
604.73	27977.3
604.926	27956.82
605.122	28235.35
605.318	27962.97
605.514	27801.18
605.71	27733.59
605.906	27469.4
606.102	27410.01
606.298	27903.57
606.494	27606.62
606.69	27336.29
606.886	27698.78
607.082	27369.05
607.278	27027.04
607.474	26912.36
607.67	27571.8
607.866	26639.98
608.062	27405.92
608.257	26574.44
608.453	26869.35
608.649	26969.7
608.845	26488.43
609.041	26674.79
609.236	26623.59
609.432	26211.95
609.628	26646.12
609.824	26334.83
610.019	26254.96
610.215	26201.71
610.411	26048.11
610.606	25771.64
610.802	26093.17
610.998	26044.02
611.193	25998.96
611.389	25775.73
611.584	26080.88
611.78	25499.26
611.976	25710.2
612.171	25837.17
612.367	25542.27
612.562	25648.76
612.758	25290.37
612.953	25462.4
613.149	25581.18
613.344	25443.96
613.539	25415.29
613.735	25435.77
613.93	25517.69
614.126	25247.36
614.321	25433.72
614.517	25261.69
614.712	25042.56
614.907	24503.95
615.103	24858.24
615.298	24729.22
615.493	25222.78
615.688	24688.26
615.884	25005.7
616.079	24358.54
616.274	24530.57
616.47	24884.87
616.665	24610.44
616.86	24407.69
617.055	24411.79
617.25	24194.7
617.445	24641.16
617.641	24182.42
617.836	24090.26
618.031	23950.99
618.226	24163.98
618.421	23789.2
618.616	24053.39
618.811	23287.45
619.006	23922.32
619.201	23400.09
619.396	23651.99
619.591	23086.75
619.786	23414.43
619.981	22904.48
620.176	23240.35
620.371	22904.48
620.566	23064.22
620.761	22671.01
620.956	23140
621.151	22304.43
621.346	22900.39
621.541	22001.33
621.735	22177.45
621.93	22066.86
622.125	22032.05
622.32	21843.63
622.515	21958.32
622.709	21653.17
622.904	21802.68
623.099	21657.27
623.294	21376.7
623.488	21311.16
623.683	21325.5
623.878	21010.11
624.072	21010.11
624.267	20750.02
624.462	20989.63
624.656	20629.19
624.851	20553.41
625.046	20399.82
625.24	20487.88
625.435	20324.04
625.629	20119.24
625.824	19951.31
626.018	20057.81
626.213	19371.74
626.407	19914.45
626.602	19420.89
626.796	19539.67
626.991	19396.31
627.185	19484.37
627.38	19556.05
627.574	18968.29
627.768	18910.94
627.963	19023.58
628.157	18931.42
628.352	18607.84
628.546	18444.01
628.74	18654.95
628.935	18607.84
629.129	18345.7
629.323	17874.67
629.517	18061.04
629.712	17993.45
629.906	17706.74
630.1	17667.83
630.294	17678.07
630.489	17401.59
630.683	17704.69
630.877	17573.62
631.071	17184.51
631.265	17415.93
631.459	17155.83
631.653	16903.93
631.848	17110.78
632.042	16656.13
632.236	16750.34
632.43	16576.26
632.624	16858.88
632.818	16592.64
633.012	16459.52
633.206	16217.86
633.4	16228.1
633.594	16076.55
633.788	16125.71
633.982	16154.38
634.176	15974.16
634.369	15818.51
634.563	15892.24
634.757	15597.33
634.951	15879.95
635.145	15496.98
635.339	15658.77
635.533	15103.77
635.726	15220.5
635.92	15077.15
636.114	15263.51
636.308	14997.28
636.501	14941.98
636.695	14913.31
636.889	14933.79
637.083	14563.11
637.276	14810.91
637.47	14450.47
637.664	14544.67
637.857	14544.67
638.051	14550.82
638.244	14534.43
638.438	14192.42
638.632	13965.1
638.825	13895.47
639.019	13961
639.212	13760.3
639.406	13967.15
639.599	13727.53
639.793	13616.94
639.986	13643.57
640.18	13426.48
640.373	13449.01
640.567	13420.34
640.76	13246.26
640.954	13195.06
641.147	12975.93
641.34	13041.46
641.534	12951.35
641.727	12957.5
641.92	12861.24
642.114	12689.21
642.307	12822.33
642.5	12457.79
642.694	12375.88
642.887	12404.55
643.08	12511.04
643.273	12388.16
643.467	12164.93
643.66	12209.99
643.853	12089.16
644.046	11884.36
644.239	12015.43
644.432	12048.2
644.626	11767.63
644.819	11650.89
645.012	11810.64
645.205	11521.87
645.398	11863.88
645.591	11710.29
645.784	11605.84
645.977	11456.34
646.17	11466.58
646.363	11290.45
646.556	11304.79
646.749	11097.94
646.942	11300.69
647.135	10960.73
647.328	11009.88
647.521	10946.39
647.714	10868.57
647.907	10755.93
648.099	10829.66
648.292	10800.99
648.485	10534.75
648.678	10518.37
648.871	10751.84
649.064	10436.45
649.256	10448.74
649.449	10399.59
649.642	10221.41
649.835	10176.36
650.027	10039.14
650.22	10098.53
650.413	10121.06
650.605	10127.21
650.798	9858.92
650.991	9830.25
651.183	9875.31
651.376	9713.52
651.568	9674.6
651.761	9650.03
651.954	9574.25
652.146	9598.83
652.339	9416.56
652.531	9498.48
652.724	9461.62
652.916	9238.39
653.109	9402.22
653.301	9400.18
653.494	9271.15
653.686	9052.02
653.879	9262.96
654.071	8955.77
654.263	9006.97
654.456	8941.43
654.648	8896.38
654.84	9099.13
655.033	8755.07
655.225	8781.69
655.417	8982.39
655.61	8703.87
655.802	8683.39
655.994	8494.97
656.186	8828.79
656.379	8564.61
656.571	8494.97
656.763	8339.33
656.955	8251.27
657.148	8329.09
657.34	8382.34
657.532	8226.69
657.724	8120.2
657.916	8284.03
658.108	8087.43
658.3	8089.48
658.492	8013.7
658.684	7976.84
658.876	7937.93
659.068	8023.94
659.26	7798.66
659.452	7782.28
659.644	7997.32
659.836	7690.12
660.028	7802.76
660.22	7659.4
660.412	7718.79
660.604	7587.72
660.796	7464.85
660.988	7583.63
661.18	7485.33
661.372	7319.44
661.563	7526.29
661.755	7425.93
661.947	7491.47
662.139	7448.46
662.331	7323.54
662.522	7235.47
662.714	7255.95
662.906	7321.49
663.097	7223.19
663.289	7090.07
663.481	7004.05
663.673	7151.51
663.864	6909.85
664.056	6864.79
664.247	6905.75
664.439	6758.3
664.631	6889.37
664.822	6834.07
665.014	6911.89
665.205	6789.02
665.397	6731.67
665.588	6680.47
665.78	6608.8
665.971	6672.28
666.163	6506.4
666.354	6606.75
666.546	6506.4
666.737	6432.67
666.929	6389.66
667.12	6426.53
667.311	6508.44
667.503	6234.02
667.694	6287.26
667.885	6293.41
668.077	6447.01
668.268	6287.26
668.459	5992.36
668.651	6311.84
668.842	6356.89
669.033	6111.14
669.224	6238.11
669.416	6160.29
669.607	6078.37
669.798	5984.16
669.989	6053.8
670.18	5975.97
670.371	6070.18
670.563	6014.88
670.754	6070.18
670.945	6018.98
671.136	5939.11
671.327	6021.03
671.518	5945.25
671.709	5812.14
671.9	5875.62
672.091	5824.42
672.282	5754.79
672.473	5765.03
672.664	5697.45
672.855	5689.26
673.046	5611.43
673.237	5584.81
673.428	5652.39
673.619	5636.01
673.809	5715.88
674	5623.72
674.191	5631.91
674.382	5480.36
674.573	5423.02
674.764	5535.66
674.954	5687.21
675.145	5519.28
675.336	5451.69
675.527	5656.49
675.717	5447.6
675.908	5525.42
676.099	5482.41
676.289	5455.79
676.48	5420.97
676.671	5287.86
676.861	5238.7
677.052	5195.7
677.243	5257.14
677.433	5402.54
677.624	5296.05
677.814	5294
678.005	5468.08
678.195	5394.35
678.386	5351.34
678.576	5212.08
678.767	5318.57
678.957	5207.98
679.148	5273.52
679.338	5273.52
679.529	5212.08
679.719	5126.07
679.909	5181.36
680.1	5291.95
680.29	5179.31
680.481	5162.93
680.671	5173.17
680.861	5074.87
681.052	5083.06
681.242	4992.95
681.432	5103.54
681.622	4966.32
681.813	5095.35
682.003	5060.53
682.193	4943.8
682.383	5011.38
682.573	5048.24
682.764	5046.19
682.954	5144.5
683.144	4980.66
683.334	5056.43
683.524	5052.34
683.714	5142.45
683.904	5054.39
684.094	5140.4
684.284	4945.84
684.474	4849.59
684.664	4941.75
684.854	4794.29
685.044	4966.32
685.234	4788.15
685.424	4898.74
685.614	4808.63
685.804	4835.25
685.994	4765.62
686.184	4988.85
686.374	4808.63
686.564	4747.19
686.753	4732.86
686.943	4616.12
687.133	4730.81
687.323	4755.38
687.513	4679.61
687.702	4794.29
687.892	4698.04
688.082	4632.51
688.272	4794.29
688.461	4583.35
688.651	4624.31
688.841	4472.76
689.03	4685.75
689.22	4534.2
689.41	4546.49
689.599	4480.96
689.789	4540.35
689.979	4440
690.168	4605.88
690.358	4435.9
690.547	4419.52
690.737	4331.45
690.926	4478.91
691.116	4186.05
691.305	4440
691.495	4290.49
691.684	4280.25
691.874	4429.76
692.063	4306.88
692.252	4407.23
692.442	4280.25
692.631	4198.34
692.82	4335.55
693.01	4177.86
693.199	4235.2
693.388	4177.86
693.578	4253.63
693.767	4104.13
693.956	4122.56
694.146	4149.18
694.335	4079.55
694.524	4175.81
694.713	4261.82
694.902	4106.18
695.092	4057.03
695.281	4112.32
695.47	4044.74
695.659	4116.42
695.848	3993.54
696.037	4007.87
696.226	4200.38
696.415	4050.88
696.604	4095.94
696.793	4130.75
696.982	4095.94
697.171	4108.23
697.36	3950.53
697.549	3885
697.738	3764.17
697.927	4052.93
698.116	3944.39
698.305	3864.52
698.494	3966.92
698.683	3786.69
698.872	4061.12
699.061	3915.72
699.25	3770.31
699.438	3866.56
699.627	3950.53
699.816	3911.62
700.005	3868.61
700.193	3858.37
700.382	3772.36
700.571	3813.32
700.76	3956.68
700.948	3852.23
701.137	3846.09
701.326	3913.67
701.514	3827.65
701.703	3798.98
701.892	3794.89
702.08	3882.95
702.269	3753.93
702.457	3753.93
702.646	3743.69
702.834	3792.84
703.023	3788.74
703.212	3798.98
703.4	3809.22
703.589	3811.27
703.777	3788.74
703.965	3755.97
704.154	3811.27
704.342	3723.21
704.531	3715.02
704.719	3737.54
704.907	3815.37
705.096	3698.63
705.284	3659.72
705.472	3637.19
705.661	3731.4
705.849	3762.12
706.037	3772.36
706.226	3688.39
706.414	3690.44
706.602	3715.02
706.79	3891.14
706.979	3796.93
707.167	3796.93
707.355	3676.1
707.543	3696.58
707.731	3805.13
707.919	3641.29
708.107	3702.73
708.296	3782.6
708.484	3641.29
708.672	3772.36
708.86	3647.43
709.048	3661.77
709.236	3657.67
709.424	3833.8
709.612	3747.78
709.8	3633.1
709.988	3678.15
710.176	3784.65
710.364	3696.58
710.551	3768.26
710.739	3786.69
710.927	3770.31
711.115	3770.31
711.303	3594.19
711.491	3676.1
711.679	3608.52
711.866	3782.6
712.054	3680.2
712.242	3608.52
712.43	3764.17
712.617	3579.85
712.805	3647.43
712.993	3745.73
713.181	3717.06
713.368	3651.53
713.556	3573.71
713.744	3626.95
713.931	3755.97
714.119	3727.3
714.306	3694.54
714.494	3600.33
714.682	3547.08
714.869	3567.56
715.057	3669.96
715.244	3618.76
715.432	3762.12
715.619	3610.57
715.807	3635.14
715.994	3618.76
716.182	3639.24
716.369	3694.54
716.556	3469.26
716.744	3682.25
716.931	3573.71
717.119	3655.62
717.306	3563.47
717.493	3540.94
717.681	3600.33
717.868	3753.93
718.055	3588.04
718.242	3641.29
718.43	3614.66
718.617	3620.81
718.804	3612.62
718.991	3545.03
719.179	3708.87
719.366	3524.55
719.553	3598.28
719.74	3612.62
719.927	3620.81
720.114	3672.01
720.301	3508.17
720.488	3536.84
720.676	3545.03
720.863	3551.18
721.05	3508.17
721.237	3559.37
721.424	3538.89
721.611	3555.27
721.798	3493.83
721.985	3446.73
722.172	3528.65
722.358	3444.68
722.545	3465.16
722.732	3545.03
722.919	3633.1
723.106	3432.4
723.293	3448.78
723.48	3551.18
723.667	3575.75
723.853	3373
724.04	3475.4
724.227	3452.88
724.414	3465.16
724.6	3387.34
724.787	3553.23
724.974	3557.32
725.161	3286.99
725.347	3440.59
725.534	3600.33
725.72	3629
725.907	3403.72
726.094	3491.79
726.28	3385.29
726.467	3282.89
726.653	3342.28
726.84	3538.89
727.027	3456.97
727.213	3358.67
727.4	3303.37
727.586	3418.06
727.773	3272.65
727.959	3518.41
728.145	3489.74
728.332	3336.14
728.518	3506.12
728.705	3489.74
728.891	3284.94
729.077	3299.28
729.264	3379.15
729.45	3297.23
729.636	3411.92
729.823	3289.04
730.009	3407.82
730.195	3366.86
730.382	3373
730.568	3235.79
730.754	3385.29
730.94	3315.66
731.126	3346.38
731.313	3254.22
731.499	3385.29
731.685	3293.13
731.871	3172.3
732.057	3325.9
732.243	3338.19
732.429	3153.87
732.615	3344.33
732.801	3452.88
732.987	3213.26
733.173	3237.84
733.359	3239.89
733.545	3268.56
733.731	3235.79
733.917	3323.85
734.103	3229.65
734.289	3229.65
734.475	3237.84
734.661	3334.09
734.847	3139.54
735.033	3194.83
735.219	3149.78
735.404	3108.82
735.59	3225.55
735.776	3192.78
735.962	3196.88
736.148	3231.69
736.333	3243.98
736.519	3229.65
736.705	3176.4
736.89	3104.72
737.076	3182.54
737.262	3076.05
737.447	3102.67
737.633	3164.11
737.819	3033.04
738.004	3026.9
738.19	2959.31
738.375	3147.73
738.561	3004.37
738.747	3125.2
738.932	3002.32
739.118	3137.49
739.303	3045.33
739.489	3094.48
739.674	2957.27
739.859	2955.22
740.045	3143.63
740.23	2969.55
740.416	2928.6
740.601	3002.32
740.786	2914.26
740.972	2961.36
741.157	2904.02
741.342	2924.5
741.528	3030.99
741.713	2936.79
741.898	2934.74
742.084	2793.43
742.269	2877.4
742.454	2912.21
742.639	2867.16
742.824	2775
743.01	2975.7
743.195	2766.81
743.38	2863.06
743.565	2734.04
743.75	2772.95
743.935	2883.54
744.12	2772.95
744.305	2699.22
744.49	2750.42
744.675	2711.51
744.86	2519
745.045	2607.06
745.23	2695.13
745.415	2584.54
745.6	2742.23
745.785	2627.54
745.97	2637.78
746.155	2543.58
746.34	2633.69
746.525	2645.98
746.71	2654.17
746.895	2492.38
747.079	2543.58
747.264	2443.23
747.449	2482.14
747.634	2527.19
747.819	2506.71
748.003	2385.88
748.188	2478.04
748.373	2449.37
748.557	2455.51
748.742	2371.55
748.927	2265.05
749.111	2402.27
749.296	2346.97
749.481	2306.01
749.665	2379.74
749.85	2256.86
750.034	2349.02
750.219	2224.09
750.404	2224.09
750.588	2324.44
750.773	2256.86
750.957	2224.09
751.141	2222.05
751.326	2254.81
751.51	2142.18
751.695	2097.12
751.879	2033.63
752.064	2158.56
752.248	2150.37
752.432	2047.97
752.617	2058.21
752.801	2045.92
752.985	2093.02
753.17	2107.36
753.354	2045.92
753.538	2011.11
753.722	2039.78
753.907	2029.54
754.091	1986.53
754.275	1968.1
754.459	1933.28
754.643	1839.08
754.828	1871.84
755.012	1966.05
755.196	1791.97
755.38	1761.25
755.564	1802.21
755.748	1757.16
755.932	1777.64
756.116	1751.01
756.3	1689.57
756.484	1685.48
756.668	1822.69
756.852	1736.68
757.036	1798.12
757.22	1693.67
757.404	1675.24
757.588	1708.01
757.772	1626.09
757.956	1652.71
758.14	1689.57
758.323	1675.24
758.507	1712.1
758.691	1615.85
758.875	1578.98
759.059	1519.59
759.242	1740.77
759.426	1572.84
759.61	1638.37
759.794	1535.98
759.977	1673.19
760.161	1613.8
760.345	1466.35
760.528	1511.4
760.712	1478.63
760.895	1476.59
761.079	1581.03
761.263	1439.72
761.446	1462.25
761.63	1495.02
761.813	1454.06
761.997	1599.46
762.18	1421.29
762.364	1433.58
762.547	1394.67
762.731	1445.87
762.914	1380.33
763.098	1429.48
763.281	1353.71
763.464	1421.29
763.648	1333.23
763.831	1427.43
764.015	1388.52
764.198	1298.41
764.381	1329.13
764.564	1308.65
764.748	1316.84
764.931	1384.43
765.114	1318.89
765.297	1267.69
765.481	1388.52
765.664	1325.04
765.847	1329.13
766.03	1478.63
766.213	1228.78
766.397	1277.93
766.58	1279.98
766.763	1409
766.946	1339.37
767.129	1284.08
767.312	1294.32
767.495	1220.59
767.678	1175.53
767.861	1292.27
768.044	1224.69
768.227	1204.21
768.41	1265.64
768.593	1189.87
768.776	1132.53
768.959	1187.82
769.142	1261.55
769.324	1148.91
769.507	1220.59
769.69	1189.87
769.873	1101.81
770.056	1220.59
770.239	1085.42
770.421	1273.84
770.604	1132.53
770.787	1267.69
770.97	1214.45
771.152	1107.95
771.335	1148.91
771.518	1103.86
771.7	1081.33
771.883	1138.67
772.066	1116.14
772.248	1105.9
772.431	1093.62
772.613	1230.83
772.796	1066.99
772.978	962.55
773.161	1099.76
773.343	952.31
773.526	1011.7
773.708	987.12
773.891	1019.89
774.073	962.55
774.256	872.43
774.438	1044.46
774.621	1028.08
774.803	1036.27
774.985	931.83
775.168	978.93
775.35	929.78
775.532	907.25
775.715	894.96
775.897	985.07
776.079	942.07
776.261	1003.5
776.444	944.11
776.626	966.64
776.808	917.49
776.99	839.67
777.173	854
777.355	956.4
777.537	878.58
777.719	796.66
777.901	831.48
778.083	837.62
778.265	724.98
778.447	829.43
778.629	800.76
778.811	815.09
778.993	851.95
779.175	800.76
779.357	786.42
779.539	817.14
779.721	823.28
779.903	823.28
780.085	718.84
780.267	716.79
780.449	804.85
780.631	761.84
780.812	798.71
780.994	735.22
781.176	763.89
781.358	741.36
781.54	673.78
781.721	737.27
781.903	729.08
782.085	757.75
782.267	712.69
782.448	681.97
782.63	671.73
782.812	733.17
782.993	714.74
783.175	741.36
783.357	731.12
783.538	675.83
783.72	595.96
783.901	577.53
784.083	692.21
784.264	671.73
784.446	634.87
784.627	575.48
784.809	589.81
784.99	612.34
785.172	622.58
785.353	536.57
785.535	659.45
785.716	622.58
785.897	509.94
786.079	581.62
786.26	575.48
786.441	593.91
786.623	618.49
786.804	569.34
786.985	663.54
787.167	587.77
787.348	575.48
787.529	552.95
787.71	636.92
787.891	540.66
788.073	509.94
788.254	544.76
788.435	518.14
788.616	497.66
788.797	423.93
788.978	524.28
789.159	520.18
789.34	446.46
789.522	524.28
789.703	552.95
789.884	522.23
790.065	497.66
790.246	491.51
790.427	477.18
790.607	509.94
790.788	540.66
790.969	454.65
791.15	448.51
791.331	473.08
791.512	442.36
791.693	477.18
791.874	464.89
792.054	485.37
792.235	589.81
792.416	376.83
792.597	368.63
792.778	430.07
792.958	397.31
793.139	428.03
793.32	450.55
793.5	372.73
793.681	471.03
793.862	462.84
794.042	350.2
794.223	364.54
794.404	466.94
794.584	329.72
794.765	331.77
794.945	434.17
795.126	352.25
795.306	415.74
795.487	364.54
795.667	456.7
795.848	344.06
796.028	397.31
796.209	460.79
796.389	475.13
796.57	344.06
796.75	348.15
796.93	370.68
797.111	292.86
797.291	327.67
797.471	413.69
797.652	395.26
797.832	299
798.012	385.02
798.192	262.14
798.373	301.05
798.553	395.26
798.733	346.11
798.913	299
799.093	358.39
799.274	354.3
799.454	382.97
799.634	346.11
799.814	387.07
799.994	315.39
800.174	366.59
800.354	362.49
800.534	309.24
800.714	286.72
800.894	352.25
801.074	231.42
801.254	303.1
801.434	346.11
801.614	335.87
801.794	266.24
801.974	821.24
802.154	282.62
802.334	229.37
802.514	329.72
802.693	395.26
802.873	305.15
803.053	327.67
803.233	296.96
803.413	286.72
803.592	342.01
803.772	266.24
803.952	292.86
804.131	270.33
804.311	278.52
804.491	258.04
804.67	212.99
804.85	262.14
805.03	290.81
805.209	315.39
805.389	292.86
805.568	253.95
805.748	215.04
805.928	286.72
806.107	204.8
806.287	266.24
806.466	331.77
806.646	237.56
806.825	256
807.004	317.44
807.184	317.44
807.363	305.15
807.543	272.38
807.722	245.76
807.901	290.81
808.081	360.44
808.26	225.28
808.439	296.96
808.619	215.04
808.798	192.51
808.977	237.56
809.156	305.15
809.336	196.6
809.515	217.08
809.694	266.24
809.873	270.33
810.052	206.84
810.231	237.56
810.411	268.28
810.59	172.03
810.769	196.6
810.948	249.85
811.127	194.56
811.306	204.8
811.485	221.18
811.664	331.77
811.843	294.91
812.022	155.65
812.201	204.8
812.38	307.2
812.559	237.56
812.737	157.69
812.916	206.84
813.095	155.65
813.274	178.17
813.453	225.28
813.632	217.08
813.811	182.27
813.989	163.84
814.168	208.89
814.347	206.84
814.526	208.89
814.704	311.29
814.883	233.47
815.062	241.66
815.24	217.08
815.419	188.41
815.598	284.67
815.776	122.88
815.955	225.28
816.133	176.13
816.312	126.97
816.49	212.99
816.669	217.08
816.847	131.07
817.026	223.23
817.204	147.45
817.383	178.17
817.561	182.27
817.74	184.32
817.918	241.66
818.097	188.41
818.275	118.78
818.453	212.99
818.632	264.19
818.81	206.84
818.988	116.73
819.167	217.08
819.345	204.8
819.523	161.79
819.701	120.83
819.879	212.99
820.058	258.04
820.236	169.98
820.414	204.8
820.592	133.12
820.77	206.84
820.948	135.17
821.127	192.51
821.305	159.74
821.483	165.89
821.661	165.89
821.839	108.54
822.017	169.98
822.195	180.22
822.373	212.99
822.551	137.21
822.729	153.6
822.907	172.03
823.085	212.99
823.262	110.59
823.44	116.73
823.618	159.74
823.796	151.55
823.974	110.59
824.152	147.45
824.329	178.17
824.507	227.32
824.685	116.73
824.863	118.78
825.04	124.93
825.218	192.51
825.396	159.74
825.574	143.36
825.751	139.26
825.929	86.01
826.107	86.01
826.284	159.74
826.462	143.36
826.639	172.03
826.817	116.73
826.994	151.55
827.172	77.82
827.349	116.73
827.527	100.35
827.704	155.65
827.882	217.08
828.059	143.36
828.237	135.17
828.414	176.13
828.591	40.96
828.769	151.55
828.946	106.49
829.124	133.12
829.301	167.93
829.478	86.01
829.655	204.8
829.833	81.92
830.01	102.4
830.187	102.4
830.364	77.82
830.542	169.98
830.719	147.45
830.896	51.2
831.073	120.83
831.25	161.79
831.427	86.01
831.604	147.45
831.782	57.34
831.959	172.03
832.136	137.21
832.313	102.4
832.49	131.07
832.667	110.59
832.844	155.65
833.021	81.92
833.198	110.59
833.374	147.45
833.551	118.78
833.728	122.88
833.905	110.59
834.082	81.92
834.259	69.63
834.436	243.71
834.612	90.11
834.789	81.92
834.966	137.21
835.143	112.64
835.319	77.82
835.496	106.49
835.673	120.83
835.85	139.26
836.026	110.59
836.203	83.97
836.38	67.58
836.556	59.39
836.733	81.92
836.909	122.88
837.086	104.45
837.262	69.63
837.439	28.67
837.616	73.73
837.792	47.1
837.968	81.92
838.145	36.86
838.321	106.49
838.498	24.58
838.674	129.02
838.851	57.34
839.027	81.92
839.203	192.51
839.38	69.63
839.556	73.73
839.732	69.63
839.909	143.36
840.085	86.01
840.261	69.63
840.437	112.64
840.614	53.25
840.79	98.3
840.966	135.17
841.142	139.26
841.318	61.44
841.494	69.63
841.671	131.07
841.847	69.63
842.023	36.86
842.199	165.89
842.375	147.45
842.551	69.63
842.727	83.97
842.903	118.78
843.079	-16.38
843.255	116.73
843.431	131.07
843.607	94.21
843.783	12.29
843.959	32.77
844.134	2.05
844.31	47.1
844.486	61.44
844.662	81.92
844.838	49.15
845.013	4.1
845.189	96.25
845.365	94.21
845.541	53.25
845.716	98.3
845.892	47.1
846.068	2.05
846.244	90.11
846.419	90.11
846.595	14.34
846.77	18.43
846.946	112.64
847.122	45.06
847.297	94.21
847.473	106.49
847.648	4.1
847.824	135.17
847.999	-22.53
848.175	-8.19
848.35	-2.05
848.526	49.15
848.701	122.88
848.876	16.38
849.052	20.48
849.227	24.58
849.403	57.34
849.578	20.48
849.753	83.97
849.929	40.96
850.104	18.43
850.279	63.49
850.454	122.88
850.63	57.34
850.805	36.86
850.98	51.2
851.155	-22.53
851.33	53.25
851.505	40.96
851.681	139.26
851.856	24.58
852.031	69.63
852.206	96.25
852.381	32.77
852.556	118.78
852.731	65.53
852.906	71.68
853.081	49.15
853.256	108.54
853.431	51.2
853.606	69.63
853.781	86.01
853.956	83.97
854.131	100.35
854.305	90.11
854.48	43.01
854.655	26.62
854.83	77.82
855.005	57.34
855.18	-2.05
855.354	43.01
855.529	63.49
855.704	4.1
855.879	96.25
856.053	24.58
856.228	12.29
856.403	28.67
856.577	69.63
856.752	20.48
856.926	51.2
857.101	20.48
857.276	-83.97
857.45	10.24
857.625	43.01
857.799	53.25
857.974	6.14
858.148	38.91
858.323	61.44
858.497	-6.14
858.672	30.72
858.846	47.1
859.02	67.58
859.195	-32.77
859.369	53.25
859.543	26.62
859.718	47.1
859.892	20.48
860.066	73.73
860.241	16.38
860.415	6.14
860.589	90.11
860.763	-8.19
860.938	4.1
861.112	18.43
861.286	32.77
861.46	90.11
861.634	26.62
861.808	116.73
861.982	32.77
862.157	79.87
862.331	-8.19
862.505	26.62
862.679	14.34
862.853	34.82
863.027	57.34
863.201	98.3
863.375	67.58
863.549	24.58
863.722	-4.1
863.896	75.77
864.07	112.64
864.244	116.73
864.418	83.97
864.592	40.96
864.766	10.24
864.939	75.77
865.113	45.06
865.287	118.78
865.461	30.72
865.634	55.3
865.808	14.34
865.982	22.53
866.156	-26.62
866.329	8.19
866.503	16.38
866.676	61.44
866.85	-4.1
867.024	47.1
867.197	59.39
867.371	102.4
867.544	16.38
867.718	16.38
867.891	14.34
868.065	-20.48
868.238	-28.67
868.412	110.59
868.585	-45.06
868.759	-38.91
868.932	73.73
869.105	4.1
869.279	-51.2
869.452	-14.34
869.625	36.86
869.799	-43.01
869.972	28.67
870.145	-2.05
870.319	8.19
870.492	12.29
870.665	24.58
870.838	40.96
871.011	18.43
871.185	14.34
871.358	-57.34
871.531	67.58
871.704	-0
871.877	81.92
872.05	-4.1
872.223	10.24
872.396	45.06
872.569	61.44
872.742	36.86
872.915	137.21
873.088	2.05
873.261	12.29
873.434	83.97
873.607	24.58
873.78	-6.14
873.953	24.58
874.126	83.97
874.299	-8.19
874.471	2.05
874.644	69.63
874.817	53.25
874.99	45.06
875.163	-45.06
875.335	45.06
875.508	57.34
875.681	65.53
875.853	-63.49
876.026	2.05
876.199	2.05
876.371	90.11
876.544	-22.53
876.717	34.82
876.889	2.05
877.062	53.25
877.234	-12.29
877.407	2.05
877.579	-43.01
877.752	32.77
877.924	102.4
878.097	53.25
878.269	83.97
878.442	61.44
878.614	-4.1
878.786	10.24
878.959	63.49
879.131	59.39
879.303	12.29
879.476	22.53
879.648	141.31
879.82	47.1
879.993	55.3
880.165	-6.14
880.337	14.34
880.509	59.39
880.681	-32.77
880.854	71.68
881.026	8.19
881.198	73.73
881.37	43.01
881.542	20.48
881.714	-38.91
881.886	108.54
882.058	67.58
882.23	94.21
882.402	-0
882.574	43.01
882.746	-4.1
882.918	69.63
883.09	45.06
883.262	45.06
883.434	-2.05
883.606	43.01
883.778	69.63
883.95	2.05
884.122	36.86
884.293	106.49
884.465	8.19
884.637	12.29
884.809	2.05
884.98	67.58
885.152	16.38
885.324	4.1
885.496	-2.05
885.667	2.05
885.839	2.05
886.011	88.06
886.182	59.39
886.354	-2.05
886.525	34.82
886.697	36.86
886.869	-34.82
887.04	2.05
887.212	-6.14
887.383	194.56
887.555	4.1
887.726	-4.1
887.897	38.91
888.069	-18.43
888.24	53.25
888.412	-51.2
888.583	-6.14
888.754	12.29
888.926	-22.53
889.097	8.19
889.268	53.25
889.44	10.24
889.611	-6.14
889.782	32.77
889.953	12.29
890.125	28.67
890.296	-28.67
890.467	40.96
890.638	36.86
890.809	61.44
890.98	53.25
891.151	90.11
891.323	65.53
891.494	59.39
891.665	26.62
891.836	22.53
892.007	-0
892.178	61.44
892.349	71.68
892.52	40.96
892.691	45.06
892.862	-22.53
893.032	-10.24
893.203	49.15
893.374	24.58
893.545	18.43
893.716	28.67
893.887	-6.14
894.057	71.68
894.228	24.58
894.399	34.82
894.57	34.82
894.74	12.29
894.911	53.25
895.082	55.3
895.253	-12.29
895.423	24.58
895.594	63.49
895.764	43.01
895.935	16.38
896.106	16.38
896.276	-36.86
896.447	-51.2
896.617	-4.1
896.788	-0
896.958	38.91
897.129	43.01
897.299	40.96
897.47	4.1
897.64	-12.29
897.81	32.77
897.981	-36.86
898.151	-18.43
898.322	75.77
898.492	-8.19
898.662	-34.82
898.832	-49.15
899.003	16.38
899.173	124.93
899.343	12.29
899.513	-20.48
