Data from USB4F104151__87__10-24-22-810.txt Node

Date: Wed Mar 12 10:24:22 EDT 2025
User: louis
Spectrometer: USB4F10415
Trigger mode: 4
Integration Time (sec): 3.000000E-2
Scans to average: 1
Electric dark correction enabled: true
Nonlinearity correction enabled: false
Boxcar width: 0
XAxis mode: Wavelengths
Number of Pixels in Spectrum: 3648
>>>>>Begin Spectral Data<<<<<
178.204	-104.28
178.424	-104.28
178.644	-104.28
178.864	-94.04
179.084	-118.61
179.304	18.6
179.524	-63.32
179.744	-44.88
179.964	57.51
180.184	-24.4
180.404	37.03
180.624	12.46
180.844	14.51
181.064	-32.6
181.283	82.09
181.503	-36.69
181.723	-20.31
181.943	-48.98
182.163	-3.93
182.383	-63.32
182.602	39.08
182.822	45.23
183.042	-8.02
183.262	47.27
183.482	8.36
183.701	-22.36
183.921	14.51
184.141	37.03
184.361	61.61
184.58	-14.17
184.8	57.51
185.02	16.55
185.239	110.76
185.459	73.9
185.679	28.84
185.898	-20.31
186.118	-30.55
186.338	-53.08
186.557	94.38
186.777	-5.97
186.997	-55.12
187.216	-3.93
187.436	39.08
187.655	2.22
187.875	53.42
188.095	-32.6
188.314	16.55
188.534	28.84
188.753	-75.6
188.973	10.41
189.192	59.56
189.412	-5.97
189.631	32.94
189.851	10.41
190.07	30.89
190.29	-38.74
190.509	22.7
190.729	2.22
190.948	39.08
191.168	116.9
191.387	49.32
191.607	-10.07
191.826	55.47
192.045	-28.5
192.265	26.79
192.484	10.41
192.704	16.55
192.923	-69.46
193.142	34.99
193.362	-20.31
193.581	55.47
193.8	-20.31
194.02	69.8
194.239	-24.4
194.458	28.84
194.678	-53.08
194.897	-20.31
195.116	-18.26
195.335	39.08
195.555	69.8
195.774	-30.55
195.993	34.99
196.212	43.18
196.432	49.32
196.651	0.17
196.87	-12.12
197.089	18.6
197.308	43.18
197.528	-1.88
197.747	-40.79
197.966	12.46
198.185	20.65
198.404	47.27
198.623	-12.12
198.842	55.47
199.062	4.27
199.281	32.94
199.5	-14.17
199.719	28.84
199.938	63.66
200.157	32.94
200.376	-20.31
200.595	37.03
200.814	41.13
201.033	51.37
201.252	26.79
201.471	-46.93
201.69	61.61
201.909	12.46
202.128	4.27
202.347	98.47
202.566	53.42
202.785	-22.36
203.004	-81.75
203.223	57.51
203.442	41.13
203.661	-18.26
203.879	65.71
204.098	102.57
204.317	-10.07
204.536	10.41
204.755	-5.97
204.974	55.47
205.193	8.36
205.411	141.48
205.63	30.89
205.849	24.75
206.068	-12.12
206.287	-34.64
206.505	14.51
206.724	24.75
206.943	-16.21
207.162	-22.36
207.381	59.56
207.599	-3.93
207.818	45.23
208.037	-3.93
208.255	47.27
208.474	55.47
208.693	61.61
208.911	24.75
209.13	34.99
209.349	55.47
209.567	-20.31
209.786	100.52
210.005	6.31
210.223	14.51
210.442	20.65
210.661	45.23
210.879	37.03
211.098	6.31
211.316	53.42
211.535	16.55
211.753	6.31
211.972	45.23
212.191	32.94
212.409	80.04
212.628	45.23
212.846	-67.41
213.065	-44.88
213.283	45.23
213.502	-3.93
213.72	77.99
213.938	0.17
214.157	37.03
214.375	51.37
214.594	32.94
214.812	57.51
215.031	-36.69
215.249	-51.03
215.467	4.27
215.686	84.14
215.904	57.51
216.122	-22.36
216.341	22.7
216.559	32.94
216.778	34.99
216.996	-1.88
217.214	-24.4
217.432	-3.93
217.651	26.79
217.869	18.6
218.087	63.66
218.306	-24.4
218.524	94.38
218.742	-67.41
218.96	-24.4
219.179	20.65
219.397	-40.79
219.615	41.13
219.833	-1.88
220.051	-12.12
220.27	8.36
220.488	-16.21
220.706	2.22
220.924	14.51
221.142	20.65
221.36	-22.36
221.578	10.41
221.796	-3.93
222.015	53.42
222.233	24.75
222.451	45.23
222.669	-24.4
222.887	47.27
223.105	45.23
223.323	4.27
223.541	-40.79
223.759	57.51
223.977	-53.08
224.195	51.37
224.413	110.76
224.631	53.42
224.849	51.37
225.067	92.33
225.285	2.22
225.503	-59.22
225.721	0.17
225.939	-22.36
226.157	55.47
226.375	49.32
226.592	41.13
226.81	-3.93
227.028	6.31
227.246	114.86
227.464	12.46
227.682	39.08
227.9	0.17
228.117	37.03
228.335	14.51
228.553	43.18
228.771	30.89
228.989	14.51
229.206	30.89
229.424	-18.26
229.642	57.51
229.86	-8.02
230.077	12.46
230.295	20.65
230.513	75.95
230.731	-5.97
230.948	67.75
231.166	-8.02
231.384	0.17
231.601	39.08
231.819	104.62
232.037	6.31
232.254	-61.27
232.472	37.03
232.689	-44.88
232.907	61.61
233.125	32.94
233.342	2.22
233.56	-3.93
233.777	92.33
233.995	-20.31
234.213	69.8
234.43	26.79
234.648	-42.84
234.865	-65.36
235.083	69.8
235.3	-12.12
235.518	57.51
235.735	45.23
235.953	45.23
236.17	0.17
236.388	53.42
236.605	20.65
236.822	65.71
237.04	37.03
237.257	16.55
237.475	-14.17
237.692	20.65
237.909	28.84
238.127	59.56
238.344	24.75
238.562	45.23
238.779	0.17
238.996	-10.07
239.214	102.57
239.431	37.03
239.648	16.55
239.865	0.17
240.083	12.46
240.3	-16.21
240.517	-77.65
240.735	28.84
240.952	86.19
241.169	-3.93
241.386	53.42
241.603	0.17
241.821	71.85
242.038	82.09
242.255	41.13
242.472	-18.26
242.689	2.22
242.907	65.71
243.124	45.23
243.341	-59.22
243.558	-77.65
243.775	26.79
243.992	12.46
244.209	28.84
244.426	96.43
244.643	10.41
244.86	12.46
245.078	-12.12
245.295	-5.97
245.512	-42.84
245.729	-36.69
245.946	4.27
246.163	10.41
246.38	28.84
246.597	-34.64
246.814	-24.4
247.031	24.75
247.248	16.55
247.464	-5.97
247.681	65.71
247.898	6.31
248.115	39.08
248.332	28.84
248.549	14.51
248.766	34.99
248.983	37.03
249.2	-18.26
249.417	-20.31
249.633	-28.5
249.85	37.03
250.067	-44.88
250.284	65.71
250.501	77.99
250.717	139.43
250.934	43.18
251.151	55.47
251.368	-18.26
251.585	-30.55
251.801	12.46
252.018	-10.07
252.235	-18.26
252.451	-28.5
252.668	-44.88
252.885	51.37
253.102	51.37
253.318	12.46
253.535	39.08
253.752	43.18
253.968	98.47
254.185	30.89
254.401	57.51
254.618	20.65
254.835	-28.5
255.051	73.9
255.268	96.43
255.484	63.66
255.701	-5.97
255.917	80.04
256.134	12.46
256.351	10.41
256.567	45.23
256.784	45.23
257	-38.74
257.217	-3.93
257.433	-10.07
257.65	20.65
257.866	37.03
258.082	-42.84
258.299	-81.75
258.515	-12.12
258.732	53.42
258.948	49.32
259.165	41.13
259.381	-40.79
259.597	45.23
259.814	-53.08
260.03	-18.26
260.246	67.75
260.463	69.8
260.679	73.9
260.895	41.13
261.112	45.23
261.328	20.65
261.544	51.37
261.761	41.13
261.977	10.41
262.193	-77.65
262.409	61.61
262.626	-32.6
262.842	2.22
263.058	-26.45
263.274	65.71
263.49	20.65
263.707	90.28
263.923	80.04
264.139	30.89
264.355	4.27
264.571	41.13
264.787	39.08
265.004	26.79
265.22	-12.12
265.436	-8.02
265.652	-22.36
265.868	30.89
266.084	-30.55
266.3	16.55
266.516	-10.07
266.732	4.27
266.948	45.23
267.164	-10.07
267.38	28.84
267.596	41.13
267.812	77.99
268.028	-30.55
268.244	14.51
268.46	88.23
268.676	65.71
268.892	10.41
269.108	39.08
269.324	65.71
269.54	116.9
269.756	24.75
269.972	20.65
270.188	16.55
270.403	63.66
270.619	-30.55
270.835	12.46
271.051	39.08
271.267	2.22
271.483	45.23
271.698	-3.93
271.914	86.19
272.13	12.46
272.346	16.55
272.562	30.89
272.777	90.28
272.993	45.23
273.209	61.61
273.425	32.94
273.64	75.95
273.856	86.19
274.072	-3.93
274.287	20.65
274.503	104.62
274.719	16.55
274.934	47.27
275.15	12.46
275.366	45.23
275.581	49.32
275.797	59.56
276.012	96.43
276.228	-12.12
276.444	-30.55
276.659	110.76
276.875	-36.69
277.09	-40.79
277.306	61.61
277.521	14.51
277.737	-44.88
277.952	86.19
278.168	73.9
278.383	16.55
278.599	37.03
278.814	51.37
279.03	118.95
279.245	71.85
279.461	43.18
279.676	32.94
279.892	65.71
280.107	-18.26
280.322	59.56
280.538	30.89
280.753	-71.51
280.969	8.36
281.184	82.09
281.399	98.47
281.615	26.79
281.83	63.66
282.045	-24.4
282.26	-24.4
282.476	12.46
282.691	45.23
282.906	63.66
283.122	26.79
283.337	51.37
283.552	49.32
283.767	12.46
283.983	20.65
284.198	24.75
284.413	34.99
284.628	-55.12
284.843	-16.21
285.058	37.03
285.274	32.94
285.489	-12.12
285.704	49.32
285.919	-30.55
286.134	8.36
286.349	45.23
286.564	59.56
286.779	77.99
286.995	-12.12
287.21	-20.31
287.425	16.55
287.64	22.7
287.855	90.28
288.07	2.22
288.285	77.99
288.5	43.18
288.715	12.46
288.93	77.99
289.145	-14.17
289.36	-8.02
289.575	-14.17
289.79	80.04
290.004	-46.93
290.219	59.56
290.434	-32.6
290.649	-44.88
290.864	16.55
291.079	0.17
291.294	98.47
291.509	39.08
291.724	45.23
291.938	57.51
292.153	61.61
292.368	57.51
292.583	-30.55
292.798	14.51
293.012	86.19
293.227	20.65
293.442	112.81
293.657	0.17
293.871	55.47
294.086	24.75
294.301	43.18
294.516	16.55
294.73	69.8
294.945	28.84
295.16	-20.31
295.374	59.56
295.589	34.99
295.804	30.89
296.018	22.7
296.233	102.57
296.447	34.99
296.662	37.03
296.877	49.32
297.091	59.56
297.306	45.23
297.52	55.47
297.735	51.37
297.949	-5.97
298.164	49.32
298.378	-5.97
298.593	28.84
298.807	10.41
299.022	-32.6
299.236	65.71
299.451	26.79
299.665	51.37
299.88	77.99
300.094	45.23
300.309	53.42
300.523	41.13
300.737	45.23
300.952	43.18
301.166	-5.97
301.381	8.36
301.595	28.84
301.809	45.23
302.024	28.84
302.238	-16.21
302.452	67.75
302.667	-40.79
302.881	116.9
303.095	41.13
303.309	61.61
303.524	16.55
303.738	32.94
303.952	10.41
304.166	45.23
304.381	32.94
304.595	-14.17
304.809	12.46
305.023	51.37
305.237	53.42
305.452	41.13
305.666	100.52
305.88	51.37
306.094	59.56
306.308	61.61
306.522	43.18
306.736	32.94
306.95	59.56
307.164	84.14
307.379	-28.5
307.593	125.1
307.807	96.43
308.021	-1.88
308.235	39.08
308.449	-5.97
308.663	-3.93
308.877	147.62
309.091	61.61
309.305	57.51
309.519	-87.89
309.733	32.94
309.947	-34.64
310.161	69.8
310.374	121
310.588	43.18
310.802	28.84
311.016	-16.21
311.23	20.65
311.444	-53.08
311.658	-14.17
311.872	49.32
312.085	12.46
312.299	67.75
312.513	-5.97
312.727	12.46
312.941	-12.12
313.154	32.94
313.368	22.7
313.582	84.14
313.796	57.51
314.009	37.03
314.223	34.99
314.437	67.75
314.651	51.37
314.864	18.6
315.078	53.42
315.292	4.27
315.505	20.65
315.719	55.47
315.933	26.79
316.146	131.24
316.36	12.46
316.573	108.71
316.787	-5.97
317.001	-26.45
317.214	-53.08
317.428	34.99
317.641	20.65
317.855	59.56
318.068	77.99
318.282	4.27
318.495	67.75
318.709	82.09
318.922	-3.93
319.136	77.99
319.349	-1.88
319.563	34.99
319.776	61.61
319.99	22.7
320.203	-10.07
320.417	4.27
320.63	16.55
320.843	30.89
321.057	10.41
321.27	-28.5
321.483	53.42
321.697	137.38
321.91	41.13
322.124	69.8
322.337	43.18
322.55	14.51
322.763	45.23
322.977	59.56
323.19	-38.74
323.403	61.61
323.617	22.7
323.83	0.17
324.043	45.23
324.256	65.71
324.469	22.7
324.683	108.71
324.896	49.32
325.109	61.61
325.322	2.22
325.535	57.51
325.748	-22.36
325.962	-32.6
326.175	43.18
326.388	41.13
326.601	90.28
326.814	53.42
327.027	82.09
327.24	94.38
327.453	24.75
327.666	14.51
327.879	37.03
328.092	47.27
328.305	53.42
328.518	-48.98
328.731	59.56
328.944	30.89
329.157	110.76
329.37	28.84
329.583	106.67
329.796	8.36
330.009	-10.07
330.222	-22.36
330.435	65.71
330.648	63.66
330.861	65.71
331.073	32.94
331.286	100.52
331.499	82.09
331.712	53.42
331.925	-3.93
332.138	8.36
332.35	0.17
332.563	37.03
332.776	-22.36
332.989	18.6
333.202	43.18
333.414	-32.6
333.627	4.27
333.84	22.7
334.053	10.41
334.265	63.66
334.478	39.08
334.691	90.28
334.903	53.42
335.116	12.46
335.329	53.42
335.541	71.85
335.754	118.95
335.966	-22.36
336.179	10.41
336.392	24.75
336.604	0.17
336.817	77.99
337.029	86.19
337.242	100.52
337.454	61.61
337.667	32.94
337.88	71.85
338.092	61.61
338.305	16.55
338.517	34.99
338.729	-22.36
338.942	118.95
339.154	-36.69
339.367	-1.88
339.579	30.89
339.792	10.41
340.004	88.23
340.217	59.56
340.429	28.84
340.641	20.65
340.854	41.13
341.066	55.47
341.278	65.71
341.491	4.27
341.703	47.27
341.915	32.94
342.128	114.86
342.34	45.23
342.552	12.46
342.764	-22.36
342.977	32.94
343.189	127.14
343.401	98.47
343.613	65.71
343.826	-10.07
344.038	-57.17
344.25	104.62
344.462	-1.88
344.674	39.08
344.886	18.6
345.099	77.99
345.311	-16.21
345.523	16.55
345.735	-10.07
345.947	65.71
346.159	-8.02
346.371	-20.31
346.583	20.65
346.795	84.14
347.007	102.57
347.219	55.47
347.431	-5.97
347.643	168.1
347.855	16.55
348.067	63.66
348.279	-18.26
348.491	-20.31
348.703	26.79
348.915	0.17
349.127	26.79
349.339	108.71
349.551	2.22
349.763	106.67
349.975	22.7
350.187	90.28
350.399	45.23
350.61	26.79
350.822	80.04
351.034	59.56
351.246	69.8
351.458	12.46
351.669	77.99
351.881	84.14
352.093	61.61
352.305	61.61
352.517	45.23
352.728	77.99
352.94	20.65
353.152	59.56
353.363	77.99
353.575	39.08
353.787	32.94
353.999	118.95
354.21	92.33
354.422	71.85
354.633	47.27
354.845	69.8
355.057	49.32
355.268	57.51
355.48	4.27
355.692	10.41
355.903	73.9
356.115	41.13
356.326	0.17
356.538	20.65
356.749	45.23
356.961	26.79
357.172	8.36
357.384	18.6
357.595	26.79
357.807	14.51
358.018	-28.5
358.23	45.23
358.441	84.14
358.653	-5.97
358.864	98.47
359.075	75.95
359.287	18.6
359.498	61.61
359.709	57.51
359.921	-5.97
360.132	-3.93
360.344	6.31
360.555	4.27
360.766	47.27
360.977	14.51
361.189	22.7
361.4	41.13
361.611	80.04
361.823	0.17
362.034	116.9
362.245	-14.17
362.456	86.19
362.667	24.75
362.879	6.31
363.09	20.65
363.301	2.22
363.512	57.51
363.723	32.94
363.935	-53.08
364.146	10.41
364.357	4.27
364.568	53.42
364.779	59.56
364.99	61.61
365.201	6.31
365.412	86.19
365.623	4.27
365.834	45.23
366.045	77.99
366.256	75.95
366.467	53.42
366.678	57.51
366.889	-16.21
367.1	86.19
367.311	22.7
367.522	67.75
367.733	26.79
367.944	45.23
368.155	98.47
368.366	45.23
368.577	147.62
368.788	94.38
368.999	-18.26
369.209	100.52
369.42	172.2
369.631	65.71
369.842	67.75
370.053	53.42
370.264	8.36
370.474	16.55
370.685	12.46
370.896	30.89
371.107	118.95
371.317	123.05
371.528	53.42
371.739	155.82
371.95	-28.5
372.16	110.76
372.371	28.84
372.582	69.8
372.792	41.13
373.003	24.75
373.214	-12.12
373.424	88.23
373.635	73.9
373.846	37.03
374.056	34.99
374.267	45.23
374.477	20.65
374.688	49.32
374.898	131.24
375.109	32.94
375.319	55.47
375.53	22.7
375.74	114.86
375.951	14.51
376.161	39.08
376.372	102.57
376.582	53.42
376.793	104.62
377.003	47.27
377.214	84.14
377.424	-8.02
377.635	41.13
377.845	-3.93
378.055	41.13
378.266	53.42
378.476	84.14
378.686	-46.93
378.897	88.23
379.107	14.51
379.317	43.18
379.528	16.55
379.738	96.43
379.948	37.03
380.158	-1.88
380.369	8.36
380.579	57.51
380.789	10.41
380.999	125.1
381.21	45.23
381.42	77.99
381.63	-22.36
381.84	75.95
382.05	51.37
382.261	47.27
382.471	102.57
382.681	32.94
382.891	59.56
383.101	4.27
383.311	65.71
383.521	65.71
383.731	98.47
383.941	41.13
384.151	45.23
384.361	69.8
384.571	43.18
384.781	41.13
384.991	77.99
385.201	100.52
385.411	67.75
385.621	55.47
385.831	-53.08
386.041	-16.21
386.251	24.75
386.461	102.57
386.671	-8.02
386.881	67.75
387.091	39.08
387.301	100.52
387.511	47.27
387.72	71.85
387.93	10.41
388.14	-8.02
388.35	131.24
388.56	59.56
388.769	55.47
388.979	102.57
389.189	63.66
389.399	133.29
389.609	75.95
389.818	47.27
390.028	26.79
390.238	77.99
390.447	55.47
390.657	67.75
390.867	63.66
391.076	-3.93
391.286	14.51
391.496	71.85
391.705	127.14
391.915	45.23
392.125	100.52
392.334	77.99
392.544	32.94
392.753	59.56
392.963	51.37
393.172	59.56
393.382	59.56
393.591	102.57
393.801	112.81
394.01	135.34
394.22	57.51
394.429	28.84
394.639	96.43
394.848	123.05
395.058	86.19
395.267	80.04
395.477	69.8
395.686	131.24
395.895	166.06
396.105	102.57
396.314	127.14
396.524	94.38
396.733	123.05
396.942	176.3
397.152	90.28
397.361	77.99
397.57	131.24
397.78	61.61
397.989	106.67
398.198	131.24
398.407	143.53
398.617	141.48
398.826	123.05
399.035	112.81
399.244	45.23
399.453	161.96
399.663	59.56
399.872	84.14
400.081	114.86
400.29	82.09
400.499	16.55
400.708	157.86
400.917	116.9
401.127	110.76
401.336	82.09
401.545	227.5
401.754	112.81
401.963	231.59
402.172	125.1
402.381	139.43
402.59	180.39
402.799	104.62
403.008	192.68
403.217	125.1
403.426	135.34
403.635	96.43
403.844	135.34
404.053	196.78
404.262	127.14
404.471	217.26
404.68	143.53
404.888	192.68
405.097	155.82
405.306	143.53
405.515	176.3
405.724	207.02
405.933	143.53
406.142	213.16
406.35	204.97
406.559	223.4
406.768	182.44
406.977	231.59
407.185	204.97
407.394	225.45
407.603	209.06
407.812	241.83
408.02	254.12
408.229	245.93
408.438	305.32
408.646	254.12
408.855	278.69
409.064	295.08
409.272	338.09
409.481	385.19
409.69	307.37
409.898	303.27
410.107	377
410.315	415.91
410.524	321.7
410.733	450.72
410.941	430.24
411.15	446.63
411.358	536.74
411.567	549.03
411.775	456.87
411.984	512.16
412.192	546.98
412.401	518.31
412.609	520.35
412.818	620.71
413.026	608.42
413.234	616.61
413.443	682.14
413.651	639.14
413.86	632.99
414.068	790.69
414.276	719.01
414.485	774.3
414.693	719.01
414.901	905.37
415.11	790.69
415.318	825.5
415.526	913.56
415.734	942.24
415.943	954.52
416.151	981.15
416.359	985.24
416.567	938.14
416.776	1155.23
416.984	1192.09
417.192	1222.81
417.4	1126.55
417.608	1181.85
417.817	1296.53
418.025	1284.25
418.233	1339.54
418.441	1288.34
418.649	1538.2
418.857	1581.2
419.065	1595.54
419.273	1515.67
419.481	1611.92
419.689	1661.07
419.897	1917.07
420.105	1769.62
420.313	1892.49
420.521	2064.52
420.729	2017.42
420.937	2101.39
421.145	2105.48
421.353	2173.07
421.561	2367.62
421.769	2248.84
421.977	2490.5
422.185	2566.28
422.393	2582.66
422.601	2912.38
422.809	2883.71
423.017	2844.8
423.224	2877.57
423.432	3049.6
423.64	3065.98
423.848	3340.41
424.056	3162.23
424.263	3479.67
424.471	3541.11
424.679	3547.25
424.887	3815.54
425.094	3825.78
425.302	3870.83
425.51	3981.42
425.718	4028.53
425.925	4186.22
426.133	4358.25
426.341	4517.99
426.548	4857.95
426.756	4816.99
426.964	4890.72
427.171	5105.76
427.379	5316.7
427.586	5218.4
427.794	5525.59
428.001	5673.04
428.209	5949.52
428.417	5924.94
428.624	6418.5
428.832	6266.96
429.039	6320.2
429.247	6260.81
429.454	6854.72
429.662	7450.68
429.869	6768.71
430.076	7467.06
430.284	7098.43
430.491	7434.3
430.699	7694.39
430.906	7604.28
431.114	7809.08
431.321	8409.13
431.528	8470.57
431.736	8933.41
431.943	9281.57
432.15	9093.15
432.358	9207.84
432.565	9666.58
432.772	9734.17
432.979	10041.36
433.187	10336.27
433.394	10401.8
433.601	11173.89
433.808	10876.93
434.016	11063.3
434.223	11612.15
434.43	12173.3
434.637	12005.36
434.844	12699.62
435.052	13113.31
435.259	12759.02
435.466	12779.5
435.673	12609.51
435.88	13692.89
436.087	14421.97
436.294	14407.63
436.501	14041.04
436.708	14469.07
436.915	14749.64
437.122	15361.98
437.329	15343.55
437.537	15904.7
437.743	16021.43
437.95	16009.14
438.157	16783.27
438.364	17608.61
438.571	17313.7
438.778	17561.5
438.985	19173.25
439.192	18204.56
439.399	18925.45
439.606	18329.49
439.813	19605.38
440.02	20713.33
440.227	20467.57
440.433	19986.3
440.64	20817.77
440.847	20565.87
441.054	21460.84
441.261	22501.2
441.467	22290.26
441.674	22703.95
441.881	23383.88
442.088	23598.91
442.294	23451.46
442.501	23891.77
442.708	24348.47
442.914	25478.95
443.121	26455.83
443.328	25911.07
443.534	27510.53
443.741	26695.44
443.948	26427.16
444.154	28161.79
444.361	27879.17
444.568	28288.76
444.774	28020.48
444.981	28645.11
445.187	29415.15
445.394	30731.99
445.6	30410.46
445.807	32724.66
446.013	31499.98
446.22	32032.45
446.426	33380.01
446.633	33785.51
446.839	34885.27
447.046	33302.19
447.252	35337.87
447.459	35444.37
447.665	35040.92
447.871	36574.84
448.078	37944.94
448.284	36048.52
448.491	37004.92
448.697	38721.12
448.903	39122.52
449.11	39595.6
449.316	38454.88
449.522	39556.69
449.728	40607.3
449.935	40697.41
450.141	40445.51
450.347	41236.02
450.553	40072.78
450.76	40472.13
450.966	41606.7
451.172	41301.56
451.378	42022.44
451.584	41211.45
451.791	42542.63
451.997	42219.05
452.203	43322.9
452.409	42915.36
452.615	42511.91
452.821	41018.94
453.027	40629.82
453.233	42898.97
453.44	40621.63
453.646	41070.14
453.852	41573.94
454.058	42024.49
454.264	40810.04
454.47	41551.41
454.676	40474.18
454.882	41768.49
455.088	38450.78
455.294	38700.64
455.5	39360.08
455.705	39679.57
455.911	38116.97
456.117	37273.2
456.323	37017.21
456.529	34997.91
456.735	36746.87
456.941	35786.38
457.147	34928.28
457.352	33822.37
457.558	33324.72
457.764	33074.87
457.97	32925.36
458.176	32118.46
458.381	31831.75
458.587	30443.23
458.793	30418.65
458.999	28376.83
459.204	31147.73
459.41	30150.37
459.616	28245.76
459.821	28108.54
460.027	28241.66
460.233	27516.68
460.438	25925.41
460.644	26638.1
460.85	25095.98
461.055	24782.64
461.261	24590.13
461.466	22650.71
461.672	22019.93
461.878	23756.61
462.083	22144.86
462.289	21938.01
462.494	21606.24
462.7	20746.09
462.905	20207.48
463.111	20991.85
463.316	21155.69
463.522	20494.19
463.727	20494.19
463.932	20469.62
464.138	20266.87
464.343	20344.69
464.549	19785.6
464.754	20500.34
464.959	20449.14
465.165	20060.02
465.37	19343.24
465.575	18685.84
465.781	19433.35
465.986	19783.55
466.191	18794.38
466.397	18427.79
466.602	17862.55
466.807	18407.31
467.012	18182.04
467.218	18321.3
467.423	17842.07
467.628	18227.09
467.833	18995.08
468.038	17997.72
468.244	17305.51
468.449	18593.68
468.654	17700.76
468.859	17489.82
469.064	17700.76
469.269	16969.64
469.474	16906.15
469.679	17407.91
469.885	16754.6
470.09	16938.92
470.295	16791.47
470.5	16506.8
470.705	16785.32
470.91	16365.49
471.115	16027.57
471.32	16199.6
471.525	16197.56
471.73	16101.3
471.935	15714.23
472.139	15433.66
472.344	15306.69
472.549	15237.06
472.754	15003.59
472.959	14659.53
473.164	14448.59
473.369	14219.22
473.574	14684.11
473.778	14870.47
473.983	14729.16
474.188	14389.2
474.393	13909.97
474.598	13840.34
474.802	13883.35
475.007	13582.3
475.212	13864.92
475.417	13307.87
475.621	13033.44
475.826	13199.33
476.031	12988.39
476.235	12732.39
476.44	12873.7
476.645	12576.75
476.849	12615.66
477.054	12521.45
477.259	12277.74
477.463	12408.81
477.668	11814.9
477.872	12152.82
478.077	12013.56
478.282	11671.54
478.486	11689.98
478.691	11554.81
478.895	11526.14
479.1	11323.39
479.304	11497.47
479.509	11075.59
479.713	11409.4
479.918	11077.63
480.122	11016.19
480.326	11044.87
480.531	10868.74
480.735	10860.55
480.94	11008
481.144	11034.63
481.348	10680.33
481.553	10536.97
481.757	10545.16
481.961	10536.97
482.166	10973.19
482.37	10749.96
482.574	10385.42
482.778	10557.45
482.983	10846.21
483.187	10508.3
483.391	10752.01
483.595	10539.02
483.8	10516.49
484.004	10665.99
484.208	10713.1
484.412	10819.59
484.616	10612.74
484.821	10921.99
485.025	10493.96
485.229	10504.2
485.433	10358.8
485.637	10635.27
485.841	10500.11
486.045	10309.65
486.249	10575.88
486.453	10522.63
486.657	10528.78
486.861	10586.12
487.065	10369.04
487.269	10639.37
487.473	10459.15
487.677	10655.75
487.881	10727.43
488.085	10457.1
488.289	10727.43
488.493	10573.83
488.697	10561.55
488.901	10702.86
489.105	10475.53
489.309	10545.16
489.512	10649.61
489.716	10592.27
489.92	10813.45
490.124	10655.75
490.328	10684.42
490.531	10633.22
490.735	10991.62
490.939	11005.95
491.143	10967.04
491.346	10835.97
491.55	10919.94
491.754	11001.86
491.958	11040.77
492.161	10956.8
492.365	11180.03
492.569	11118.59
492.772	11198.46
492.976	11200.51
493.18	11470.84
493.383	11460.6
493.587	11540.47
493.79	11499.52
493.994	11718.65
494.197	11499.52
494.401	11757.56
494.605	11874.29
494.808	12093.43
495.012	11927.54
495.215	12015.6
495.419	12398.57
495.622	12156.91
495.825	12402.67
496.029	12543.98
496.232	12681.19
496.436	12472.3
496.639	13084.64
496.843	12546.03
497.046	12894.18
497.249	13062.12
497.453	13236.19
497.656	13432.8
497.859	13535.2
498.063	13553.63
498.266	13778.9
498.469	14147.54
498.673	13938.65
498.876	14030.8
499.079	14405.58
499.282	14301.14
499.485	14641.1
499.689	14766.03
499.892	15251.39
500.095	14811.08
500.298	15331.26
500.501	14976.97
500.705	15585.21
500.908	16115.64
501.111	16009.14
501.314	15873.98
501.517	16232.37
501.72	16572.33
501.923	16439.22
502.126	16869.29
502.329	17164.2
502.532	17272.74
502.735	17196.96
502.938	17543.07
503.141	17713.05
503.344	17860.51
503.547	18018.2
503.75	18302.87
503.953	18491.28
504.156	18612.11
504.359	18843.53
504.562	19068.81
504.765	19443.59
504.968	19394.43
505.17	19818.36
505.373	19830.65
505.576	20027.26
505.779	20326.26
505.982	20615.02
506.185	20817.77
506.387	20891.5
506.59	21182.31
506.793	21501.79
506.996	21374.82
507.198	22329.17
507.401	22151
507.604	22097.75
507.807	22527.83
508.009	22660.94
508.212	22744.91
508.415	23164.75
508.617	23451.46
508.82	23611.2
509.022	23701.31
509.225	24213.31
509.428	24545.08
509.63	24618.8
509.833	24715.06
510.035	25188.14
510.238	25155.37
510.44	25675.55
510.643	26097.44
510.845	26185.5
511.048	25982.75
511.25	26601.24
511.453	26773.27
511.655	27676.42
511.858	27344.65
512.06	27287.31
512.262	27733.76
512.465	27895.55
512.667	28321.53
512.87	28401.4
513.072	28462.84
513.274	29155.05
513.477	29435.63
513.679	29710.05
513.881	30105.31
514.084	30381.79
514.286	30854.87
514.488	30541.53
514.69	31506.12
514.893	31764.17
515.095	31557.32
515.297	32110.27
515.499	32599.74
515.701	32345.79
515.904	32601.79
516.106	33052.34
516.308	33224.37
516.51	33916.58
516.712	33560.23
516.914	33910.44
517.116	34936.47
517.318	34401.95
517.52	35126.93
517.722	35040.92
517.925	35329.68
518.127	36419.2
518.329	36320.9
518.531	36476.54
518.733	36820.6
518.935	37383.79
519.136	36904.57
519.338	37715.56
519.54	37807.72
519.742	38313.57
519.944	38413.92
520.146	38667.87
520.348	39319.12
520.55	39360.08
520.752	39677.52
520.954	40375.87
521.155	39933.51
521.357	40756.8
521.559	40959.55
521.761	41756.21
521.963	41465.39
522.164	41772.59
522.366	42237.48
522.568	42507.81
522.77	42141.22
522.971	43222.55
523.173	42800.67
523.375	43580.95
523.576	43427.35
523.778	43732.5
523.98	43783.69
524.181	44670.47
524.383	44416.52
524.584	45188.6
524.786	45116.92
524.988	45039.1
525.189	45170.17
525.391	45639.15
525.592	45958.64
525.794	46167.53
525.995	45942.25
526.197	46511.59
526.398	46157.29
526.6	47056.35
526.801	46757.35
527.003	47408.6
527.204	47228.38
527.406	47427.03
527.607	47685.08
527.808	48410.06
528.01	47476.18
528.211	47857.1
528.412	48612.8
528.614	48127.44
528.815	48639.43
529.016	49270.2
529.218	48412.1
529.419	48928.19
529.62	49042.88
529.822	48862.66
530.023	49112.51
530.224	49442.23
530.425	49335.74
530.626	49135.04
530.828	48879.04
531.029	49919.41
531.23	49530.29
531.431	49757.62
531.632	49673.65
531.833	49776.05
532.035	50036.14
532.236	49812.91
532.437	50159.02
532.638	50062.77
532.839	50300.33
533.04	50226.6
533.241	49780.15
533.442	50857.38
533.643	50238.89
533.844	50267.56
534.045	50234.8
534.246	50339.24
534.447	50529.7
534.648	50533.8
534.849	50617.77
535.05	50484.65
535.251	50689.45
535.451	50279.85
535.652	51029.41
535.853	50779.56
536.054	50525.61
536.255	50623.91
536.456	49984.94
536.657	51131.81
536.857	50685.35
537.058	50787.75
537.259	50965.92
537.46	50406.83
537.66	51027.36
537.861	50818.47
538.062	50771.36
538.263	50980.26
538.463	50797.99
538.664	50881.95
538.865	51013.02
539.065	50990.5
539.266	50267.56
539.466	51314.08
539.667	50374.06
539.868	51029.41
540.068	50824.61
540.269	50980.26
540.469	51006.88
540.67	50240.94
540.87	50480.55
541.071	50619.81
541.271	50820.52
541.472	50730.4
541.672	50388.39
541.873	51017.12
542.073	50128.3
542.274	51328.41
542.474	50068.91
542.675	50224.56
542.875	51303.84
543.075	51008.93
543.276	49974.7
543.476	50967.97
543.676	50455.98
543.877	50781.6
544.077	50511.27
544.277	50861.47
544.478	50486.7
544.678	50787.75
544.878	50238.89
545.078	50455.98
545.279	50124.21
545.479	50349.48
545.679	50468.26
545.879	50652.58
546.079	50513.32
546.28	50288.04
546.48	50003.38
546.68	50488.74
546.88	50779.56
547.08	50509.22
547.28	50202.03
547.48	50030
547.68	50359.72
547.88	49986.99
548.081	50322.86
548.281	50019.76
548.481	50175.41
548.681	50163.12
548.881	50525.61
549.081	50318.76
549.28	50134.45
549.48	50490.79
549.68	50156.97
549.88	50808.23
550.08	49620.41
550.28	50357.67
550.48	50081.2
550.68	50202.03
550.88	49817.01
551.08	50015.66
551.279	50077.1
551.479	49714.61
551.679	49421.75
551.879	49927.6
552.079	50013.62
552.278	50015.66
552.478	49657.27
552.678	49610.17
552.878	50103.73
553.077	49700.28
553.277	49315.26
553.477	50269.61
553.676	49927.6
553.876	49558.97
554.076	49151.42
554.275	49608.12
554.475	48741.83
554.674	49860.02
554.874	49733.04
555.074	49628.6
555.273	49354.17
555.473	49835.44
555.672	49227.2
555.872	48903.62
556.071	49126.85
556.271	49231.29
556.47	49157.56
556.67	48862.66
556.869	49100.22
557.068	49044.93
557.268	48696.77
557.467	48635.33
557.667	48721.35
557.866	48858.56
558.065	49155.52
558.265	48698.82
558.464	48094.67
558.663	48840.13
558.863	48129.48
559.062	48928.19
559.261	47650.26
559.461	48956.86
559.66	47963.6
559.859	48227.79
560.058	47748.56
560.258	47986.13
560.457	48080.33
560.656	47982.03
560.855	47810
561.054	48115.15
561.253	47273.43
561.453	47275.48
561.652	47777.23
561.851	47871.44
562.05	47175.13
562.249	47257.05
562.448	47441.37
562.647	47396.31
562.846	47154.65
563.045	47037.92
563.244	46394.85
563.443	47418.84
563.642	46396.9
563.841	46855.65
564.04	46427.62
564.239	46769.63
564.438	46151.15
564.637	46802.4
564.836	46491.11
565.035	45897.2
565.234	45948.4
565.432	45833.71
565.631	45284.86
565.83	46149.1
566.029	45483.51
566.228	45915.63
566.427	45522.42
566.625	44887.55
566.824	44856.83
567.023	45635.06
567.222	44744.19
567.42	45209.08
567.619	44797.44
567.818	45071.87
568.016	44293.64
568.215	44750.34
568.414	44135.95
568.612	44697.09
568.811	44303.88
569.01	44434.95
569.208	43527.7
569.407	44187.14
569.605	43245.08
569.804	43929.1
570.002	43724.3
570.201	43808.27
570.4	43124.25
570.598	43171.35
570.797	42837.53
570.995	43621.91
571.193	42376.74
571.392	43308.57
571.59	43007.51
571.789	42751.52
571.987	42772
572.186	42659.36
572.384	42444.32
572.582	42669.6
572.781	42479.14
572.979	41842.22
573.177	42221.09
573.376	41989.67
573.574	41485.87
573.772	42133.03
573.971	42010.15
574.169	41594.42
574.367	41107
574.565	41688.62
574.763	41303.6
574.962	41236.02
575.16	40943.16
575.358	41084.47
575.556	40537.66
575.754	40848.96
575.952	40312.39
576.151	40926.78
576.349	40093.25
576.547	39956.04
576.745	40367.68
576.943	40564.29
577.141	40111.69
577.339	39616.08
577.537	39982.66
577.735	39452.24
577.933	39493.2
578.131	39818.83
578.329	39208.53
578.527	39104.09
578.725	39286.36
578.923	39306.83
579.121	39106.13
579.319	39069.27
579.516	39294.55
579.714	38942.3
579.912	38684.25
580.11	38532.7
580.308	38596.19
580.506	38647.39
580.704	37893.74
580.901	38420.06
581.099	38352.48
581.297	37811.82
581.495	37879.4
581.692	37975.66
581.89	37250.67
582.088	38237.8
582.285	37258.87
582.483	37770.86
582.681	37389.94
582.878	37287.54
583.076	36748.92
583.274	37363.31
583.471	36755.07
583.669	37181.04
583.866	36353.66
584.064	36589.18
584.262	36456.06
584.459	36488.83
584.657	36179.59
584.854	36460.16
585.052	35651.21
585.249	36208.26
585.447	35808.9
585.644	35731.08
585.841	35903.11
586.039	35749.51
586.236	35591.82
586.434	35509.9
586.631	35202.71
586.828	35397.26
587.026	35518.09
587.223	35294.86
587.42	34926.23
587.618	35151.51
587.815	34965.14
588.012	34520.73
588.21	34616.99
588.407	35141.27
588.604	34567.84
588.801	34102.95
588.999	34299.55
589.196	34039.46
589.393	34080.42
589.59	34004.64
589.787	33844.9
589.984	33554.09
590.182	33375.92
590.379	33695.4
590.576	33633.96
590.773	33279.66
590.97	32970.42
591.167	33361.58
591.364	32947.89
591.561	33058.48
591.758	32804.53
591.955	32863.93
592.152	33029.81
592.349	32558.78
592.546	32618.17
592.743	32532.15
592.94	31971.01
593.137	32294.59
593.334	32577.21
593.531	32009.92
593.727	32388.8
593.924	32097.98
594.121	31790.79
594.318	31864.52
594.515	31200.97
594.712	31629
594.908	31575.75
595.105	31608.52
595.302	30969.55
595.499	31528.65
595.696	31241.93
595.892	30721.75
596.089	31127.25
596.286	31248.08
596.482	30772.95
596.679	30863.06
596.876	30633.69
597.072	30490.33
597.269	30717.65
597.466	30664.41
597.662	30133.98
597.859	30195.42
598.055	30154.46
598.252	30260.96
598.448	29953.76
598.645	29841.12
598.841	29558.5
599.038	29918.95
599.234	29519.59
599.431	29318.89
599.627	29198.06
599.824	29425.39
600.02	28915.44
600.217	29427.43
600.413	28911.35
600.609	29054.7
600.806	28839.67
601.002	28761.84
601.198	28503.8
601.395	28444.41
601.591	28292.86
601.787	28319.48
601.984	28059.39
602.18	28702.45
602.376	28057.34
602.572	28268.28
602.769	28157.69
602.965	27483.91
603.161	28120.83
603.357	27956.99
603.553	27705.09
603.75	27522.82
603.946	27307.79
604.142	27500.3
604.338	27328.27
604.534	27526.92
604.73	27066.13
604.926	27315.98
605.122	27694.85
605.318	26978.06
605.514	26961.68
605.71	26951.44
605.906	26953.49
606.102	26795.79
606.298	26808.08
606.494	26765.07
606.69	26433.3
606.886	26562.33
607.082	26214.17
607.278	26842.9
607.474	26212.12
607.67	26421.02
607.866	25816.86
608.062	26251.03
608.257	26488.6
608.453	26115.87
608.649	25949.98
608.845	25534.25
609.041	25894.69
609.236	26017.57
609.432	25749.28
609.628	25589.54
609.824	25560.87
610.019	25272.11
610.215	25265.96
610.411	25458.47
610.606	25167.66
610.802	25286.44
610.998	25302.82
611.193	25347.88
611.389	24807.22
611.584	25222.95
611.78	25155.37
611.976	25087.79
612.171	25196.33
612.367	24889.13
612.562	24710.96
612.758	24463.16
612.953	24266.55
613.149	24870.7
613.344	24540.98
613.539	24856.37
613.735	24702.77
613.93	24608.56
614.126	24475.45
614.321	24688.43
614.517	24268.6
614.712	24338.23
614.907	24483.64
615.103	24035.13
615.298	24225.59
615.493	24543.03
615.688	23918.4
615.884	24260.41
616.079	24141.63
616.274	24268.6
616.47	24207.16
616.665	23957.31
616.86	23953.21
617.055	23859.01
617.25	23742.27
617.445	23637.83
617.641	23367.49
617.836	23697.22
618.031	23281.48
618.226	23519.04
618.421	23418.69
618.616	23543.62
618.811	23029.58
619.006	23334.73
619.201	22882.13
619.396	23084.87
619.591	22626.13
619.786	22814.54
619.981	22450
620.176	22853.45
620.371	22206.3
620.566	22378.33
620.761	22341.46
620.956	22603.6
621.151	21866.33
621.346	22107.99
621.541	21614.43
621.735	22177.62
621.93	21692.26
622.125	21907.29
622.32	21544.8
622.515	21702.5
622.709	21253.99
622.904	21213.03
623.099	21200.74
623.294	21167.98
623.488	20844.4
623.683	21389.16
623.878	20447.09
624.072	20817.77
624.267	20395.89
624.462	20592.5
624.656	20340.6
624.851	20051.83
625.046	20305.78
625.24	20094.84
625.435	19693.44
625.629	19967.87
625.824	19736.45
626.018	19625.86
626.213	19089.29
626.407	19308.42
626.602	19011.46
626.796	19388.29
626.991	19259.27
627.185	19029.9
627.38	18814.86
627.574	18546.58
627.768	18605.97
627.963	18565.01
628.157	18257.81
628.352	18792.33
628.546	18249.62
628.74	18726.8
628.935	18276.24
629.129	18120.6
629.323	17711
629.517	17780.64
629.712	17733.53
629.906	17737.63
630.1	17463.2
630.294	17287.07
630.489	17389.47
630.683	17528.74
630.877	17182.63
631.071	17127.33
631.265	17137.57
631.459	17153.96
631.653	16764.84
631.848	16703.4
632.042	16582.57
632.236	16621.49
632.43	16525.23
632.624	16723.88
632.818	16285.62
633.012	16146.36
633.206	16230.32
633.4	16185.27
633.594	15873.98
633.788	16052.15
633.982	15871.93
634.176	15794.11
634.369	15484.86
634.563	15716.28
634.757	15646.65
634.951	15433.66
635.145	15691.71
635.339	15368.13
635.533	15347.65
635.726	15187.91
635.92	15171.52
636.114	15062.98
636.308	14927.81
636.501	14960.58
636.695	14997.45
636.889	14792.65
637.083	14534.6
637.276	14559.18
637.47	14598.09
637.664	14452.69
637.857	14321.62
638.051	14317.52
638.244	13991.89
638.438	14141.39
638.632	14049.24
638.825	13717.47
639.019	13727.71
639.212	13625.31
639.406	13801.43
639.599	13739.99
639.793	13635.55
639.986	13514.72
640.18	13477.85
640.373	13520.86
640.567	13152.23
640.76	13109.22
640.954	12879.85
641.147	12900.33
641.34	12828.65
641.534	12931.05
641.727	13066.21
641.92	13023.2
642.114	12560.36
642.307	12732.39
642.5	12799.98
642.694	12535.79
642.887	12507.12
643.08	12593.13
643.273	12468.2
643.467	12351.47
643.66	12222.45
643.853	12267.5
644.046	12029.94
644.239	12095.47
644.432	11960.31
644.626	12072.95
644.819	11739.13
645.012	11745.27
645.205	11685.88
645.398	11571.19
645.591	11542.52
645.784	11440.12
645.977	11628.54
646.17	11347.97
646.363	11163.65
646.556	11298.81
646.749	11165.7
646.942	11177.98
647.135	11214.85
647.328	11134.98
647.521	10907.65
647.714	10926.08
647.907	11026.43
648.099	10754.05
648.292	10821.64
648.485	10569.74
648.678	10659.85
648.871	10530.83
649.064	10496.01
649.256	10608.65
649.449	10399.76
649.642	10192.91
649.835	10205.2
650.027	10293.26
650.22	10143.76
650.413	10006.55
650.605	10080.27
650.798	10049.55
650.991	9988.11
651.183	9879.57
651.376	9705.49
651.568	9715.73
651.761	9801.75
651.954	9781.27
652.146	9639.96
652.339	9754.65
652.531	9574.42
652.724	9484.31
652.916	9277.47
653.109	9422.87
653.301	9459.74
653.494	9429.02
653.686	9203.74
653.879	9386.01
654.071	9381.92
654.263	9097.25
654.456	9066.53
654.648	9199.65
654.84	8888.36
655.033	8826.92
655.225	8861.73
655.417	8763.43
655.61	8835.11
655.802	8861.73
655.994	8783.91
656.186	8857.64
656.379	8677.41
656.571	8763.43
656.763	8521.77
656.955	8493.1
657.148	8519.72
657.34	8386.6
657.532	8282.16
657.724	8319.02
657.916	8306.73
658.108	8310.83
658.3	8460.33
658.492	8353.84
658.684	8089.65
658.876	7950.39
659.068	7972.91
659.26	7856.18
659.452	7909.43
659.644	7950.39
659.836	7757.88
660.028	7962.67
660.22	7600.18
660.412	7645.24
660.604	7723.06
660.796	7819.32
660.988	7686.2
661.18	7540.79
661.372	7309.37
661.563	7667.77
661.755	7462.97
661.947	7508.02
662.139	7403.58
662.331	7379
662.522	7456.82
662.714	7434.3
662.906	7286.84
663.097	7526.46
663.289	7129.15
663.481	7266.36
663.673	6993.98
663.864	7147.58
664.056	6940.74
664.247	6981.7
664.439	7024.7
664.631	6981.7
664.822	7082.05
665.014	6893.63
665.205	6682.69
665.397	6817.86
665.588	6836.29
665.78	6787.14
665.971	6789.19
666.163	6715.46
666.354	6760.52
666.546	6768.71
666.737	6651.97
666.929	6467.66
667.12	6449.22
667.311	6666.31
667.503	6344.78
667.694	6613.06
667.885	6373.45
668.077	6361.16
668.268	6297.67
668.459	6293.58
668.651	6328.39
668.842	6219.85
669.033	6223.95
669.224	6221.9
669.416	6266.96
669.607	6144.08
669.798	6371.4
669.989	6312.01
670.18	6111.31
670.371	6105.17
670.563	6240.33
670.754	6121.55
670.945	6115.41
671.136	6078.54
671.327	5974.1
671.518	6013.01
671.709	5967.95
671.9	6121.55
672.091	5838.93
672.282	5929.04
672.473	5808.21
672.664	5963.86
672.855	5877.84
673.046	5707.86
673.237	5992.53
673.428	5879.89
673.619	5787.73
673.809	5593.17
674	5640.28
674.191	5695.57
674.382	5656.66
674.573	5625.94
674.764	5607.51
674.954	5627.99
675.145	5498.97
675.336	5445.72
675.527	5529.69
675.717	5470.3
675.908	5427.29
676.099	5558.36
676.289	5460.06
676.48	5544.02
676.671	5410.9
676.861	5423.19
677.052	5423.19
677.243	5367.9
677.433	5376.09
677.624	5410.9
677.814	5310.55
678.005	5439.58
678.195	5359.7
678.386	5271.64
678.576	5253.21
678.767	5316.7
678.957	5439.58
679.148	5347.42
679.338	5173.34
679.529	5339.23
679.719	5197.92
679.909	5357.66
680.1	5208.16
680.29	5218.4
680.481	5304.41
680.671	5183.58
680.861	5220.44
681.052	5251.16
681.242	5118.04
681.432	5136.48
681.622	5036.13
681.813	4980.83
682.003	5292.12
682.193	5093.47
682.383	5212.25
682.573	5124.19
682.764	5042.27
682.954	5263.45
683.144	5081.18
683.334	5140.57
683.524	5013.6
683.714	5152.86
683.904	4888.67
684.094	5097.56
684.284	5118.04
684.474	5085.28
684.664	5050.46
684.854	5025.89
685.044	5079.13
685.234	4995.17
685.424	4907.1
685.614	4800.61
685.804	4788.32
685.994	4905.06
686.184	4800.61
686.374	4800.61
686.564	4724.83
686.753	5032.03
686.943	4608.1
687.133	4909.15
687.323	4751.46
687.513	4753.51
687.702	4530.28
687.892	4661.35
688.082	4771.94
688.272	4657.25
688.461	4710.5
688.651	4647.01
688.841	4673.64
689.03	4507.75
689.22	4591.72
689.41	4542.57
689.599	4575.33
689.789	4546.66
689.979	4493.41
690.168	4464.74
690.358	4345.96
690.547	4395.11
690.737	4296.81
690.926	4253.8
691.116	4345.96
691.305	4309.1
691.495	4311.14
691.684	4325.48
691.874	4378.73
692.063	4350.06
692.252	4229.23
692.442	4122.73
692.631	4272.23
692.82	4157.55
693.01	4092.01
693.199	4155.5
693.388	4169.84
693.578	4286.57
693.767	4073.58
693.956	4061.29
694.146	4018.29
694.335	4108.4
694.524	4085.87
694.713	4059.24
694.902	4051.05
695.092	3981.42
695.281	4059.24
695.47	4075.63
695.659	3960.94
695.848	4083.82
696.037	4053.1
696.226	4071.53
696.415	3958.89
696.604	3909.74
696.793	3944.56
696.982	3946.61
697.171	3876.98
697.36	3932.27
697.549	3825.78
697.738	3903.6
697.927	3782.77
698.116	3741.81
698.305	3809.39
698.494	3760.24
698.683	3803.25
698.872	3956.85
699.061	3795.06
699.25	3731.57
699.438	3930.22
699.627	3838.06
699.816	3862.64
700.005	3739.76
700.193	3735.67
700.382	3754.1
700.571	3741.81
700.76	3856.5
700.948	3760.24
701.137	3821.68
701.326	3817.58
701.514	3797.1
701.703	3758.19
701.892	3788.91
702.08	3674.23
702.269	3633.27
702.457	3694.71
702.646	3844.21
702.834	3737.71
703.023	3752.05
703.212	3717.23
703.4	3678.32
703.589	3715.19
703.777	3745.91
703.965	3612.79
704.154	3623.03
704.342	3655.79
704.531	3666.03
704.719	3504.25
704.907	3541.11
705.096	3676.27
705.284	3530.87
705.472	3670.13
705.661	3586.16
705.849	3688.56
706.037	3618.93
706.226	3526.77
706.414	3514.49
706.602	3528.82
706.79	3659.89
706.979	3553.4
707.167	3596.4
707.355	3598.45
707.543	3666.03
707.731	3610.74
707.919	3553.4
708.107	3590.26
708.296	3397.75
708.484	3614.84
708.672	3604.6
708.86	3680.37
709.048	3494.01
709.236	3446.9
709.424	3510.39
709.612	3543.16
709.8	3592.31
709.988	3592.31
710.176	3555.44
710.364	3455.09
710.551	3627.12
710.739	3608.69
710.927	3469.43
711.115	3641.46
711.303	3498.1
711.491	3655.79
711.679	3557.49
711.866	3426.42
712.054	3618.93
712.242	3420.28
712.43	3555.44
712.617	3680.37
712.805	3580.02
712.993	3571.83
713.181	3373.18
713.368	3551.35
713.556	3551.35
713.744	3555.44
713.931	3487.86
714.119	3594.36
714.306	3387.51
714.494	3563.64
714.682	3559.54
714.869	3461.24
715.057	3440.76
715.244	3387.51
715.432	3551.35
715.619	3631.22
715.807	3451
715.994	3426.42
716.182	3422.33
716.369	3395.7
716.556	3496.05
716.744	3551.35
716.931	3657.84
717.119	3559.54
717.306	3371.13
717.493	3502.2
717.681	3410.04
717.868	3526.77
718.055	3580.02
718.242	3469.43
718.43	3489.91
718.617	3455.09
718.804	3389.56
718.991	3580.02
719.179	3502.2
719.366	3469.43
719.553	3510.39
719.74	3453.05
719.927	3379.32
720.114	3336.31
720.301	3453.05
720.488	3385.46
720.676	3416.18
720.863	3401.85
721.05	3496.05
721.237	3414.13
721.424	3528.82
721.611	3344.5
721.798	3526.77
721.985	3326.07
722.172	3338.36
722.358	3364.98
722.545	3434.61
722.732	3379.32
722.919	3440.76
723.106	3489.91
723.293	3326.07
723.48	3444.85
723.667	3258.49
723.853	3250.3
724.04	3301.5
724.227	3278.97
724.414	3317.88
724.6	3319.93
724.787	3451
724.974	3348.6
725.161	3182.71
725.347	3330.17
725.534	3291.26
725.72	3369.08
725.907	3330.17
726.094	3475.57
726.28	3266.68
726.467	3254.39
726.653	3256.44
726.84	3317.88
727.027	3326.07
727.213	3254.39
727.4	3264.63
727.586	3317.88
727.773	3207.29
727.959	3356.79
728.145	3268.73
728.332	3266.68
728.518	3182.71
728.705	3268.73
728.891	3149.95
729.077	3346.55
729.264	3229.82
729.45	3266.68
729.636	3229.82
729.823	3350.65
730.009	3299.45
730.195	3108.99
730.382	3432.57
730.568	3199.1
730.754	3248.25
730.94	3182.71
731.126	3303.54
731.313	3205.24
731.499	3182.71
731.685	3139.71
731.871	3172.47
732.057	3238.01
732.243	3235.96
732.429	3197.05
732.615	3141.75
732.801	3268.73
732.987	3182.71
733.173	3139.71
733.359	3256.44
733.545	3192.95
733.731	3113.08
733.917	3082.36
734.103	3297.4
734.289	3004.54
734.475	3328.12
734.661	3190.91
734.847	3147.9
735.033	3059.84
735.219	3145.85
735.404	3080.32
735.59	3160.19
735.776	3162.23
735.962	3070.08
736.148	3145.85
736.333	3154.04
736.519	3084.41
736.705	2975.87
736.89	3033.21
737.076	2988.16
737.262	2973.82
737.447	3025.02
737.633	2965.63
737.819	3174.52
738.004	3059.84
738.19	3074.17
738.375	3059.84
738.561	3035.26
738.747	2924.67
738.932	2922.62
739.118	2936.96
739.303	2920.57
739.489	3018.88
739.674	3002.49
739.859	2955.39
740.045	2793.6
740.23	2869.37
740.416	2904.19
740.601	2947.2
740.786	2766.98
740.972	2906.24
741.157	2685.06
741.342	2758.78
741.528	2820.22
741.713	2801.79
741.898	2789.5
742.084	2812.03
742.269	2744.45
742.454	2799.74
742.639	2762.88
742.824	2721.92
743.01	2801.79
743.195	2773.12
743.38	2728.07
743.565	2748.54
743.75	2771.07
743.935	2740.35
744.12	2758.78
744.305	2619.52
744.49	2582.66
744.675	2631.81
744.86	2658.43
745.045	2654.34
745.23	2637.95
745.415	2605.19
745.6	2515.08
745.785	2543.75
745.97	2599.04
746.155	2453.64
746.34	2562.18
746.525	2422.92
746.71	2535.56
746.895	2347.14
747.079	2429.06
747.264	2363.53
747.449	2482.31
747.634	2418.82
747.819	2422.92
748.003	2351.24
748.188	2234.5
748.373	2310.28
748.557	2363.53
748.742	2441.35
748.927	2334.86
749.111	2271.37
749.296	2166.92
749.481	2171.02
749.665	2166.92
749.85	2211.98
750.034	2283.66
750.219	2271.37
750.404	2138.25
750.588	2099.34
750.773	2203.79
750.957	2123.91
751.141	2048.14
751.326	2191.5
751.51	2130.06
751.695	2113.67
751.879	2123.91
752.064	2166.92
752.248	1978.51
752.432	1980.56
752.617	2046.09
752.801	2062.48
752.985	1998.99
753.17	2066.57
753.354	2039.95
753.538	1853.58
753.722	1958.03
753.907	1859.73
754.091	1808.53
754.275	1824.91
754.459	1767.57
754.643	1867.92
754.828	1835.15
755.012	1843.34
755.196	1886.35
755.38	1755.28
755.564	1767.57
755.748	1747.09
755.932	1691.79
756.116	1710.22
756.3	1792.14
756.484	1726.61
756.668	1659.03
756.852	1507.48
757.036	1675.41
757.22	1646.74
757.404	1650.83
757.588	1548.44
757.772	1562.77
757.956	1573.01
758.14	1659.03
758.323	1448.08
758.507	1620.11
758.691	1476.76
758.875	1462.42
759.059	1577.11
759.242	1556.63
759.426	1503.38
759.61	1509.52
759.794	1482.9
759.977	1415.32
760.161	1523.86
760.345	1556.63
760.528	1484.95
760.712	1474.71
760.895	1435.8
761.079	1523.86
761.263	1443.99
761.446	1511.57
761.63	1409.17
761.813	1405.08
761.997	1454.23
762.18	1380.5
762.364	1446.04
762.547	1187.99
762.731	1452.18
762.914	1319.06
763.098	1384.6
763.281	1392.79
763.464	1337.49
763.648	1380.5
763.831	1362.07
764.015	1360.02
764.198	1323.16
764.381	1380.5
764.564	1341.59
764.748	1269.91
764.931	1339.54
765.114	1179.8
765.297	1370.26
765.481	1159.32
765.664	1276.06
765.847	1290.39
766.03	1210.52
766.213	1259.67
766.397	1300.63
766.58	1339.54
766.763	1245.34
766.946	1245.34
767.129	1259.67
767.312	1116.31
767.495	1214.62
767.678	1110.17
767.861	1237.14
768.044	1204.38
768.227	1128.6
768.41	1142.94
768.593	1196.18
768.776	1138.84
768.959	1142.94
769.142	1130.65
769.324	1118.36
769.507	1155.23
769.69	1114.27
769.873	1075.35
770.056	1206.42
770.239	1157.27
770.421	1097.88
770.604	1216.66
770.787	1128.6
770.97	1040.54
771.152	1073.31
771.335	1181.85
771.518	1079.45
771.7	1097.88
771.883	1063.07
772.066	1077.4
772.248	1052.83
772.431	1077.4
772.613	979.1
772.796	1003.68
772.978	1058.97
773.161	1054.87
773.343	1067.16
773.526	966.81
773.708	972.96
773.891	864.41
774.073	1018.01
774.256	1024.16
774.438	1081.5
774.621	1056.92
774.803	925.85
774.985	880.8
775.168	919.71
775.35	856.22
775.532	962.72
775.715	860.32
775.897	911.52
776.079	856.22
776.261	745.63
776.444	813.21
776.626	872.61
776.808	880.8
776.99	845.98
777.173	823.45
777.355	884.89
777.537	868.51
777.719	905.37
777.901	911.52
778.083	854.17
778.265	770.21
778.447	954.52
778.629	807.07
778.811	845.98
778.993	829.6
779.175	858.27
779.357	802.97
779.539	708.77
779.721	684.19
779.903	800.93
780.085	753.82
780.267	753.82
780.449	659.62
780.631	712.86
780.812	714.91
780.994	784.54
781.176	719.01
781.358	706.72
781.54	626.85
781.721	716.96
781.903	688.29
782.085	659.62
782.267	667.81
782.448	626.85
782.63	592.03
782.812	704.67
782.993	735.39
783.175	725.15
783.357	528.55
783.538	682.14
783.72	592.03
783.901	618.66
784.083	641.18
784.264	628.9
784.446	637.09
784.627	540.83
784.809	497.83
784.99	573.6
785.172	567.46
785.353	544.93
785.535	651.42
785.716	536.74
785.897	518.31
786.079	538.79
786.26	594.08
786.441	530.59
786.623	483.49
786.804	540.83
786.985	553.12
787.167	520.35
787.348	536.74
787.529	551.07
787.71	409.76
787.891	475.3
788.073	450.72
788.254	508.07
788.435	528.55
788.616	409.76
788.797	389.28
788.978	430.24
789.159	463.01
789.34	471.2
789.522	430.24
789.703	391.33
789.884	487.59
790.065	463.01
790.246	442.53
790.427	481.44
790.607	485.54
790.788	489.64
790.969	477.35
791.15	438.44
791.331	391.33
791.512	497.83
791.693	426.15
791.874	452.77
792.054	444.58
792.235	383.14
792.416	356.52
792.597	364.71
792.778	417.96
792.958	465.06
793.139	463.01
793.32	446.63
793.5	381.09
793.681	403.62
793.862	370.85
794.042	395.43
794.223	331.94
794.404	381.09
794.584	284.84
794.765	432.29
794.945	370.85
795.126	399.52
795.306	327.85
795.487	327.85
795.667	397.48
795.848	356.52
796.028	348.33
796.209	370.85
796.389	370.85
796.57	389.28
796.75	278.69
796.93	446.63
797.111	290.98
797.291	377
797.471	368.81
797.652	327.85
797.832	333.99
798.012	377
798.192	301.22
798.373	319.65
798.553	315.56
798.733	370.85
798.913	252.07
799.093	383.14
799.274	360.61
799.454	348.33
799.634	303.27
799.814	297.13
799.994	417.96
800.174	370.85
800.354	284.84
800.534	274.6
800.714	262.31
800.894	217.26
801.074	280.74
801.254	268.45
801.434	409.76
801.614	278.69
801.794	336.04
801.974	757.92
802.154	311.46
802.334	266.41
802.514	235.69
802.693	336.04
802.873	299.17
803.053	284.84
803.233	276.65
803.413	358.57
803.592	286.89
803.772	239.78
803.952	307.37
804.131	221.35
804.311	237.74
804.491	245.93
804.67	256.17
804.85	229.54
805.03	286.89
805.209	358.57
805.389	213.16
805.568	270.5
805.748	260.26
805.928	258.21
806.107	262.31
806.287	204.97
806.466	223.4
806.646	178.34
806.825	219.3
807.004	202.92
807.184	303.27
807.363	264.36
807.543	198.82
807.722	209.06
807.901	168.1
808.081	264.36
808.26	192.68
808.439	295.08
808.619	207.02
808.798	254.12
808.977	159.91
809.156	190.63
809.336	217.26
809.515	235.69
809.694	221.35
809.873	161.96
810.052	184.49
810.231	254.12
810.411	192.68
810.59	198.82
810.769	272.55
810.948	233.64
811.127	225.45
811.306	233.64
811.485	192.68
811.664	235.69
811.843	116.9
812.022	215.21
812.201	159.91
812.38	241.83
812.559	131.24
812.737	180.39
812.916	200.87
813.095	139.43
813.274	268.45
813.453	147.62
813.632	151.72
813.811	147.62
813.989	141.48
814.168	176.3
814.347	170.15
814.526	184.49
814.704	147.62
814.883	241.83
815.062	219.3
815.24	176.3
815.419	178.34
815.598	233.64
815.776	157.86
815.955	147.62
816.133	84.14
816.312	145.58
816.49	200.87
816.669	180.39
816.847	194.73
817.026	135.34
817.204	135.34
817.383	170.15
817.561	143.53
817.74	153.77
817.918	245.93
818.097	114.86
818.275	172.2
818.453	186.54
818.632	237.74
818.81	155.82
818.988	98.47
819.167	157.86
819.345	143.53
819.523	92.33
819.701	157.86
819.879	180.39
820.058	145.58
820.236	188.58
820.414	207.02
820.592	129.19
820.77	96.43
820.948	157.86
821.127	65.71
821.305	161.96
821.483	112.81
821.661	153.77
821.839	118.95
822.017	118.95
822.195	137.38
822.373	127.14
822.551	137.38
822.729	161.96
822.907	112.81
823.085	67.75
823.262	204.97
823.44	168.1
823.618	86.19
823.796	121
823.974	90.28
824.152	67.75
824.329	59.56
824.507	137.38
824.685	141.48
824.863	108.71
825.04	65.71
825.218	149.67
825.396	149.67
825.574	86.19
825.751	178.34
825.929	147.62
826.107	118.95
826.284	143.53
826.462	129.19
826.639	127.14
826.817	125.1
826.994	65.71
827.172	90.28
827.349	207.02
827.527	63.66
827.704	51.37
827.882	145.58
828.059	102.57
828.237	43.18
828.414	39.08
828.591	92.33
828.769	53.42
828.946	34.99
829.124	118.95
829.301	100.52
829.478	14.51
829.655	45.23
829.833	110.76
830.01	63.66
830.187	133.29
830.364	114.86
830.542	170.15
830.719	114.86
830.896	86.19
831.073	82.09
831.25	133.29
831.427	135.34
831.604	114.86
831.782	67.75
831.959	88.23
832.136	125.1
832.313	37.03
832.49	73.9
832.667	207.02
832.844	127.14
833.021	176.3
833.198	108.71
833.374	114.86
833.551	82.09
833.728	84.14
833.905	121
834.082	114.86
834.259	77.99
834.436	180.39
834.612	47.27
834.789	88.23
834.966	73.9
835.143	157.86
835.319	-10.07
835.496	123.05
835.673	75.95
835.85	102.57
836.026	127.14
836.203	94.38
836.38	37.03
836.556	98.47
836.733	88.23
836.909	53.42
837.086	90.28
837.262	55.47
837.439	135.34
837.616	32.94
837.792	61.61
837.968	75.95
838.145	47.27
838.321	49.32
838.498	49.32
838.674	141.48
838.851	118.95
839.027	77.99
839.203	26.79
839.38	118.95
839.556	69.8
839.732	28.84
839.909	61.61
840.085	84.14
840.261	-5.97
840.437	69.8
840.614	135.34
840.79	139.43
840.966	102.57
841.142	24.75
841.318	18.6
841.494	135.34
841.671	77.99
841.847	26.79
842.023	10.41
842.199	114.86
842.375	77.99
842.551	24.75
842.727	47.27
842.903	114.86
843.079	16.55
843.255	65.71
843.431	-44.88
843.607	57.51
843.783	32.94
843.959	39.08
844.134	59.56
844.31	114.86
844.486	143.53
844.662	-36.69
844.838	16.55
845.013	37.03
845.189	43.18
845.365	61.61
845.541	47.27
845.716	12.46
845.892	-16.21
846.068	16.55
846.244	67.75
846.419	65.71
846.595	59.56
846.77	18.6
846.946	47.27
847.122	55.47
847.297	71.85
847.473	77.99
847.648	20.65
847.824	0.17
847.999	53.42
848.175	96.43
848.35	127.14
848.526	98.47
848.701	51.37
848.876	71.85
849.052	41.13
849.227	102.57
849.403	45.23
849.578	18.6
849.753	-1.88
849.929	90.28
850.104	61.61
850.279	26.79
850.454	-24.4
850.63	47.27
850.805	24.75
850.98	34.99
851.155	116.9
851.33	12.46
851.505	-20.31
851.681	57.51
851.856	-20.31
852.031	53.42
852.206	53.42
852.381	-24.4
852.556	-3.93
852.731	-38.74
852.906	30.89
853.081	49.32
853.256	57.51
853.431	-48.98
853.606	16.55
853.781	8.36
853.956	39.08
854.131	106.67
854.305	22.7
854.48	59.56
854.655	2.22
854.83	-36.69
855.005	-42.84
855.18	57.51
855.354	-3.93
855.529	26.79
855.704	-65.36
855.879	-14.17
856.053	94.38
856.228	4.27
856.403	-57.17
856.577	114.86
856.752	-32.6
856.926	-36.69
857.101	20.65
857.276	57.51
857.45	-3.93
857.625	-5.97
857.799	41.13
857.974	61.61
858.148	-8.02
858.323	-16.21
858.497	51.37
858.672	43.18
858.846	8.36
859.02	10.41
859.195	67.75
859.369	34.99
859.543	45.23
859.718	-61.27
859.892	34.99
860.066	82.09
860.241	-63.32
860.415	-16.21
860.589	-3.93
860.763	14.51
860.938	20.65
861.112	26.79
861.286	0.17
861.46	102.57
861.634	-1.88
861.808	53.42
861.982	-36.69
862.157	43.18
862.331	12.46
862.505	71.85
862.679	-14.17
862.853	61.61
863.027	-36.69
863.201	53.42
863.375	-10.07
863.549	39.08
863.722	8.36
863.896	84.14
864.07	-42.84
864.244	28.84
864.418	37.03
864.592	-16.21
864.766	-10.07
864.939	61.61
865.113	4.27
865.287	28.84
865.461	-44.88
865.634	14.51
865.808	-24.4
865.982	45.23
866.156	-42.84
866.329	14.51
866.503	-69.46
866.676	45.23
866.85	28.84
867.024	-36.69
867.197	37.03
867.371	59.56
867.544	0.17
867.718	-55.12
867.891	37.03
868.065	-1.88
868.238	-48.98
868.412	77.99
868.585	63.66
868.759	-46.93
868.932	102.57
869.105	-53.08
869.279	-8.02
869.452	10.41
869.625	20.65
869.799	6.31
869.972	-3.93
870.145	53.42
870.319	-5.97
870.492	-102.23
870.665	-12.12
870.838	-40.79
871.011	-69.46
871.185	-51.03
871.358	-22.36
871.531	-59.22
871.704	-18.26
871.877	-10.07
872.05	-16.21
872.223	14.51
872.396	43.18
872.569	-59.22
872.742	4.27
872.915	14.51
873.088	41.13
873.261	-28.5
873.434	8.36
873.607	-24.4
873.78	-20.31
873.953	-1.88
874.126	-3.93
874.299	37.03
874.471	2.22
874.644	-63.32
874.817	92.33
874.99	37.03
875.163	-40.79
875.335	-51.03
875.508	20.65
875.681	73.9
875.853	-18.26
876.026	-24.4
876.199	28.84
876.371	4.27
876.544	-28.5
876.717	116.9
876.889	12.46
877.062	92.33
877.234	-96.08
877.407	20.65
877.579	28.84
877.752	14.51
877.924	67.75
878.097	-20.31
878.269	16.55
878.442	22.7
878.614	-12.12
878.786	16.55
878.959	8.36
879.131	53.42
879.303	-77.65
879.476	8.36
879.648	20.65
879.82	8.36
879.993	-18.26
880.165	84.14
880.337	-26.45
880.509	-12.12
880.681	-16.21
880.854	-20.31
881.026	16.55
881.198	69.8
881.37	-83.8
881.542	18.6
881.714	-61.27
881.886	16.55
882.058	-28.5
882.23	53.42
882.402	18.6
882.574	6.31
882.746	16.55
882.918	45.23
883.09	-8.02
883.262	61.61
883.434	43.18
883.606	-12.12
883.778	-16.21
883.95	45.23
884.122	-55.12
884.293	-40.79
884.465	0.17
884.637	10.41
884.809	-20.31
884.98	8.36
885.152	-22.36
885.324	-30.55
885.496	-5.97
885.667	32.94
885.839	41.13
886.011	-3.93
886.182	4.27
886.354	55.47
886.525	-22.36
886.697	-1.88
886.869	-28.5
887.04	41.13
887.212	77.99
887.383	-8.02
887.555	28.84
887.726	37.03
887.897	-26.45
888.069	0.17
888.24	2.22
888.412	0.17
888.583	45.23
888.754	-40.79
888.926	-40.79
889.097	45.23
889.268	-24.4
889.44	14.51
889.611	-12.12
889.782	32.94
889.953	45.23
890.125	77.99
890.296	-10.07
890.467	14.51
890.638	-16.21
890.809	-57.17
890.98	-12.12
891.151	37.03
891.323	-3.93
891.494	-44.88
891.665	39.08
891.836	26.79
892.007	-61.27
892.178	0.17
892.349	-5.97
892.52	-30.55
892.691	-32.6
892.862	-12.12
893.032	-12.12
893.203	-30.55
893.374	22.7
893.545	34.99
893.716	-12.12
893.887	-42.84
894.057	-20.31
894.228	-10.07
894.399	-34.64
894.57	-30.55
894.74	-46.93
894.911	-24.4
895.082	-67.41
895.253	53.42
895.423	4.27
895.594	24.75
895.764	49.32
895.935	2.22
896.106	-3.93
896.276	8.36
896.447	-24.4
896.617	10.41
896.788	-57.17
896.958	0.17
897.129	24.75
897.299	-73.56
897.47	63.66
897.64	90.28
897.81	0.17
897.981	-36.69
898.151	-48.98
898.322	-20.31
898.492	26.79
898.662	22.7
898.832	30.89
899.003	28.84
899.173	30.89
899.343	-14.17
899.513	45.23
