Data from USB4F104151__260__10-39-53-819.txt Node

Date: Wed Mar 12 10:39:53 EDT 2025
User: louis
Spectrometer: USB4F10415
Trigger mode: 4
Integration Time (sec): 3.000000E-2
Scans to average: 1
Electric dark correction enabled: true
Nonlinearity correction enabled: false
Boxcar width: 0
XAxis mode: Wavelengths
Number of Pixels in Spectrum: 3648
>>>>>Begin Spectral Data<<<<<
178.204	-129.7
178.424	-129.7
178.644	-129.7
178.864	-158.38
179.084	-117.42
179.304	3.41
179.524	32.08
179.744	-21.16
179.964	25.94
180.184	-19.11
180.404	62.8
180.624	15.7
180.844	-70.31
181.064	-29.35
181.283	-21.16
181.503	13.65
181.723	7.51
181.943	-66.22
182.163	103.76
182.383	-35.5
182.602	21.85
182.822	105.81
183.042	11.61
183.262	19.8
183.482	30.04
183.701	38.23
183.921	5.46
184.141	-47.79
184.361	71
184.58	81.24
184.8	-31.4
185.02	48.47
185.239	42.32
185.459	-27.31
185.679	40.28
185.898	60.76
186.118	3.41
186.338	-35.5
186.557	38.23
186.777	42.32
186.997	-15.02
187.216	-0.68
187.436	75.09
187.655	9.56
187.875	9.56
188.095	68.95
188.314	75.09
188.534	85.33
188.753	23.89
188.973	62.8
189.192	56.66
189.412	19.8
189.631	-15.02
189.851	46.42
190.07	109.91
190.29	-41.64
190.509	27.99
190.729	21.85
190.948	66.9
191.168	126.29
191.387	58.71
191.607	81.24
191.826	64.85
192.045	54.61
192.265	50.52
192.484	52.56
192.704	25.94
192.923	-12.97
193.142	62.8
193.362	27.99
193.581	56.66
193.8	15.7
194.02	13.65
194.239	19.8
194.458	9.56
194.678	64.85
194.897	66.9
195.116	-6.83
195.335	54.61
195.555	19.8
195.774	77.14
195.993	48.47
196.212	-6.83
196.432	1.37
196.651	19.8
196.87	60.76
197.089	109.91
197.308	58.71
197.528	25.94
197.747	21.85
197.966	5.46
198.185	62.8
198.404	48.47
198.623	71
198.842	60.76
199.062	62.8
199.281	-10.92
199.5	-55.98
199.719	3.41
199.938	48.47
200.157	36.18
200.376	9.56
200.595	97.62
200.814	23.89
201.033	21.85
201.252	-0.68
201.471	105.81
201.69	42.32
201.909	32.08
202.128	83.28
202.347	44.37
202.566	-27.31
202.785	38.23
203.004	5.46
203.223	163.15
203.442	25.94
203.661	-68.27
203.879	71
204.098	-2.73
204.317	-2.73
204.536	34.13
204.755	50.52
204.974	52.56
205.193	7.51
205.411	36.18
205.63	77.14
205.849	48.47
206.068	32.08
206.287	32.08
206.505	32.08
206.724	58.71
206.943	-37.55
207.162	52.56
207.381	-21.16
207.599	1.37
207.818	99.67
208.037	19.8
208.255	60.76
208.474	3.41
208.693	62.8
208.911	46.42
209.13	3.41
209.349	-4.78
209.567	-12.97
209.786	27.99
210.005	101.72
210.223	50.52
210.442	17.75
210.661	13.65
210.879	23.89
211.098	-8.87
211.316	58.71
211.535	128.34
211.753	48.47
211.972	-8.87
212.191	-82.6
212.409	17.75
212.628	19.8
212.846	46.42
213.065	5.46
213.283	111.96
213.502	-31.4
213.72	21.85
213.938	-17.07
214.157	50.52
214.375	-6.83
214.594	42.32
214.812	32.08
215.031	-31.4
215.249	1.37
215.467	-35.5
215.686	64.85
215.904	75.09
216.122	21.85
216.341	52.56
216.559	56.66
216.778	21.85
216.996	34.13
217.214	34.13
217.432	21.85
217.651	38.23
217.869	-12.97
218.087	17.75
218.306	25.94
218.524	107.86
218.742	9.56
218.96	83.28
219.179	9.56
219.397	13.65
219.615	-23.21
219.833	85.33
220.051	34.13
220.27	62.8
220.488	-4.78
220.706	23.89
220.924	5.46
221.142	23.89
221.36	103.76
221.578	71
221.796	42.32
222.015	46.42
222.233	-84.65
222.451	27.99
222.669	5.46
222.887	42.32
223.105	-8.87
223.323	-37.55
223.541	40.28
223.759	60.76
223.977	42.32
224.195	32.08
224.413	40.28
224.631	71
224.849	44.37
225.067	101.72
225.285	5.46
225.503	62.8
225.721	-88.75
225.939	-2.73
226.157	124.24
226.375	120.15
226.592	11.61
226.81	48.47
227.028	91.48
227.246	13.65
227.464	101.72
227.682	89.43
227.9	66.9
228.117	66.9
228.335	-27.31
228.553	9.56
228.771	109.91
228.989	30.04
229.206	3.41
229.424	62.8
229.642	3.41
229.86	-17.07
230.077	15.7
230.295	68.95
230.513	52.56
230.731	38.23
230.948	91.48
231.166	136.53
231.384	-19.11
231.601	54.61
231.819	-12.97
232.037	54.61
232.254	-29.35
232.472	17.75
232.689	27.99
232.907	56.66
233.125	3.41
233.342	120.15
233.56	-37.55
233.777	30.04
233.995	32.08
234.213	89.43
234.43	11.61
234.648	-58.03
234.865	36.18
235.083	71
235.3	-19.11
235.518	54.61
235.735	60.76
235.953	95.57
236.17	-2.73
236.388	-35.5
236.605	27.99
236.822	66.9
237.04	54.61
237.257	71
237.475	5.46
237.692	30.04
237.909	77.14
238.127	19.8
238.344	-35.5
238.562	32.08
238.779	-72.36
238.996	79.19
239.214	71
239.431	50.52
239.648	44.37
239.865	13.65
240.083	19.8
240.3	42.32
240.517	34.13
240.735	64.85
240.952	89.43
241.169	64.85
241.386	44.37
241.603	-29.35
241.821	-45.74
242.038	13.65
242.255	66.9
242.472	56.66
242.689	13.65
242.907	83.28
243.124	75.09
243.341	54.61
243.558	30.04
243.775	27.99
243.992	-10.92
244.209	89.43
244.426	25.94
244.643	44.37
244.86	64.85
245.078	21.85
245.295	38.23
245.512	58.71
245.729	36.18
245.946	38.23
246.163	11.61
246.38	-2.73
246.597	27.99
246.814	-10.92
247.031	19.8
247.248	79.19
247.464	11.61
247.681	54.61
247.898	11.61
248.115	62.8
248.332	50.52
248.549	120.15
248.766	13.65
248.983	27.99
249.2	48.47
249.417	3.41
249.633	25.94
249.85	81.24
250.067	83.28
250.284	44.37
250.501	52.56
250.717	44.37
250.934	32.08
251.151	21.85
251.368	19.8
251.585	44.37
251.801	85.33
252.018	-41.64
252.235	7.51
252.451	30.04
252.668	-43.69
252.885	130.39
253.102	-2.73
253.318	15.7
253.535	25.94
253.752	17.75
253.968	11.61
254.185	42.32
254.401	13.65
254.618	-4.78
254.835	-31.4
255.051	83.28
255.268	56.66
255.484	3.41
255.701	34.13
255.917	54.61
256.134	-19.11
256.351	-6.83
256.567	27.99
256.784	23.89
257	-12.97
257.217	25.94
257.433	75.09
257.65	126.29
257.866	50.52
258.082	15.7
258.299	-29.35
258.515	101.72
258.732	-35.5
258.948	15.7
259.165	-10.92
259.381	5.46
259.597	42.32
259.814	23.89
260.03	34.13
260.246	-4.78
260.463	23.89
260.679	85.33
260.895	-2.73
261.112	91.48
261.328	30.04
261.544	-49.83
261.761	140.63
261.977	19.8
262.193	-35.5
262.409	52.56
262.626	-17.07
262.842	56.66
263.058	1.37
263.274	64.85
263.49	71
263.707	25.94
263.923	56.66
264.139	52.56
264.355	5.46
264.571	116.05
264.787	11.61
265.004	66.9
265.22	42.32
265.436	11.61
265.652	-66.22
265.868	50.52
266.084	-43.69
266.3	46.42
266.516	21.85
266.732	34.13
266.948	73.04
267.164	54.61
267.38	-21.16
267.596	44.37
267.812	83.28
268.028	103.76
268.244	-37.55
268.46	25.94
268.676	77.14
268.892	85.33
269.108	21.85
269.324	-2.73
269.54	-6.83
269.756	52.56
269.972	-25.26
270.188	-0.68
270.403	-33.45
270.619	1.37
270.835	97.62
271.051	50.52
271.267	58.71
271.483	17.75
271.698	32.08
271.914	-23.21
272.13	81.24
272.346	-6.83
272.562	77.14
272.777	-17.07
272.993	54.61
273.209	42.32
273.425	-2.73
273.64	23.89
273.856	-2.73
274.072	5.46
274.287	15.7
274.503	19.8
274.719	34.13
274.934	-72.36
275.15	-2.73
275.366	87.38
275.581	62.8
275.797	-19.11
276.012	44.37
276.228	36.18
276.444	-15.02
276.659	89.43
276.875	-60.07
277.09	42.32
277.306	7.51
277.521	17.75
277.737	71
277.952	-0.68
278.168	30.04
278.383	30.04
278.599	38.23
278.814	-6.83
279.03	68.95
279.245	71
279.461	62.8
279.676	62.8
279.892	7.51
280.107	27.99
280.322	48.47
280.538	-6.83
280.753	-39.59
280.969	50.52
281.184	19.8
281.399	62.8
281.615	27.99
281.83	116.05
282.045	3.41
282.26	50.52
282.476	5.46
282.691	122.2
282.906	-29.35
283.122	56.66
283.337	44.37
283.552	85.33
283.767	-21.16
283.983	68.95
284.198	-6.83
284.413	36.18
284.628	25.94
284.843	52.56
285.058	54.61
285.274	21.85
285.489	30.04
285.704	58.71
285.919	-19.11
286.134	30.04
286.349	-23.21
286.564	38.23
286.779	3.41
286.995	30.04
287.21	56.66
287.425	107.86
287.64	-8.87
287.855	36.18
288.07	7.51
288.285	50.52
288.5	5.46
288.715	34.13
288.93	15.7
289.145	118.1
289.36	30.04
289.575	42.32
289.79	103.76
290.004	11.61
290.219	73.04
290.434	52.56
290.649	27.99
290.864	13.65
291.079	93.52
291.294	-15.02
291.509	25.94
291.724	83.28
291.938	109.91
292.153	25.94
292.368	34.13
292.583	52.56
292.798	83.28
293.012	19.8
293.227	54.61
293.442	23.89
293.657	40.28
293.871	27.99
294.086	40.28
294.301	81.24
294.516	73.04
294.73	66.9
294.945	-4.78
295.16	9.56
295.374	5.46
295.589	68.95
295.804	-27.31
296.018	1.37
296.233	50.52
296.447	40.28
296.662	120.15
296.877	101.72
297.091	46.42
297.306	-8.87
297.52	48.47
297.735	23.89
297.949	38.23
298.164	66.9
298.378	13.65
298.593	5.46
298.807	-43.69
299.022	64.85
299.236	85.33
299.451	27.99
299.665	9.56
299.88	138.58
300.094	62.8
300.309	50.52
300.523	36.18
300.737	1.37
300.952	36.18
301.166	44.37
301.381	13.65
301.595	62.8
301.809	30.04
302.024	36.18
302.238	30.04
302.452	71
302.667	23.89
302.881	126.29
303.095	-6.83
303.309	89.43
303.524	-27.31
303.738	-53.93
303.952	5.46
304.166	99.67
304.381	-31.4
304.595	-6.83
304.809	60.76
305.023	27.99
305.237	56.66
305.452	91.48
305.666	-45.74
305.88	46.42
306.094	-8.87
306.308	25.94
306.522	11.61
306.736	75.09
306.95	62.8
307.164	7.51
307.379	-21.16
307.593	66.9
307.807	83.28
308.021	66.9
308.235	23.89
308.449	73.04
308.663	-6.83
308.877	46.42
309.091	91.48
309.305	46.42
309.519	21.85
309.733	56.66
309.947	-4.78
310.161	101.72
310.374	11.61
310.588	124.24
310.802	54.61
311.016	38.23
311.23	83.28
311.444	-4.78
311.658	60.76
311.872	42.32
312.085	83.28
312.299	52.56
312.513	21.85
312.727	83.28
312.941	19.8
313.154	5.46
313.368	56.66
313.582	54.61
313.796	48.47
314.009	23.89
314.223	48.47
314.437	52.56
314.651	109.91
314.864	27.99
315.078	62.8
315.292	-15.02
315.505	27.99
315.719	79.19
315.933	91.48
316.146	25.94
316.36	-35.5
316.573	48.47
316.787	9.56
317.001	118.1
317.214	50.52
317.428	75.09
317.641	66.9
317.855	77.14
318.068	136.53
318.282	105.81
318.495	52.56
318.709	99.67
318.922	60.76
319.136	44.37
319.349	54.61
319.563	40.28
319.776	9.56
319.99	46.42
320.203	54.61
320.417	9.56
320.63	23.89
320.843	66.9
321.057	23.89
321.27	15.7
321.483	144.72
321.697	111.96
321.91	-21.16
322.124	-19.11
322.337	30.04
322.55	-8.87
322.763	-8.87
322.977	25.94
323.19	34.13
323.403	40.28
323.617	13.65
323.83	103.76
324.043	68.95
324.256	40.28
324.469	58.71
324.683	81.24
324.896	7.51
325.109	38.23
325.322	-31.4
325.535	122.2
325.748	66.9
325.962	19.8
326.175	95.57
326.388	36.18
326.601	66.9
326.814	128.34
327.027	79.19
327.24	93.52
327.453	34.13
327.666	99.67
327.879	36.18
328.092	34.13
328.305	17.75
328.518	79.19
328.731	-2.73
328.944	103.76
329.157	42.32
329.37	21.85
329.583	101.72
329.796	111.96
330.009	27.99
330.222	89.43
330.435	17.75
330.648	75.09
330.861	66.9
331.073	73.04
331.286	62.8
331.499	38.23
331.712	3.41
331.925	23.89
332.138	118.1
332.35	77.14
332.563	36.18
332.776	103.76
332.989	-37.55
333.202	52.56
333.414	-0.68
333.627	54.61
333.84	13.65
334.053	11.61
334.265	23.89
334.478	3.41
334.691	64.85
334.903	46.42
335.116	-0.68
335.329	34.13
335.541	73.04
335.754	114
335.966	21.85
336.179	60.76
336.392	46.42
336.604	-10.92
336.817	60.76
337.029	81.24
337.242	91.48
337.454	107.86
337.667	1.37
337.88	79.19
338.092	77.14
338.305	105.81
338.517	58.71
338.729	25.94
338.942	132.44
339.154	46.42
339.367	-12.97
339.579	93.52
339.792	11.61
340.004	30.04
340.217	40.28
340.429	36.18
340.641	17.75
340.854	77.14
341.066	17.75
341.278	11.61
341.491	118.1
341.703	34.13
341.915	11.61
342.128	73.04
342.34	-35.5
342.552	25.94
342.764	128.34
342.977	64.85
343.189	-4.78
343.401	101.72
343.613	73.04
343.826	64.85
344.038	58.71
344.25	58.71
344.462	-2.73
344.674	64.85
344.886	25.94
345.099	42.32
345.311	50.52
345.523	48.47
345.735	5.46
345.947	-19.11
346.159	62.8
346.371	62.8
346.583	85.33
346.795	71
347.007	87.38
347.219	1.37
347.431	13.65
347.643	136.53
347.855	66.9
348.067	25.94
348.279	25.94
348.491	-17.07
348.703	-33.45
348.915	-6.83
349.127	75.09
349.339	27.99
349.551	62.8
349.763	66.9
349.975	30.04
350.187	105.81
350.399	97.62
350.61	142.68
350.822	71
351.034	34.13
351.246	38.23
351.458	71
351.669	107.86
351.881	71
352.093	-37.55
352.305	91.48
352.517	23.89
352.728	109.91
352.94	3.41
353.152	58.71
353.363	54.61
353.575	56.66
353.787	120.15
353.999	56.66
354.21	44.37
354.422	58.71
354.633	13.65
354.845	-15.02
355.057	83.28
355.268	-51.88
355.48	64.85
355.692	68.95
355.903	73.04
356.115	1.37
356.326	-0.68
356.538	-0.68
356.749	32.08
356.961	52.56
357.172	54.61
357.384	23.89
357.595	157.01
357.807	79.19
358.018	101.72
358.23	109.91
358.441	114
358.653	27.99
358.864	15.7
359.075	-51.88
359.287	30.04
359.498	87.38
359.709	105.81
359.921	52.56
360.132	17.75
360.344	91.48
360.555	68.95
360.766	13.65
360.977	52.56
361.189	101.72
361.4	81.24
361.611	97.62
361.823	-19.11
362.034	81.24
362.245	99.67
362.456	13.65
362.667	30.04
362.879	52.56
363.09	27.99
363.301	58.71
363.512	68.95
363.723	17.75
363.935	21.85
364.146	54.61
364.357	-12.97
364.568	66.9
364.779	-21.16
364.99	71
365.201	-8.87
365.412	105.81
365.623	36.18
365.834	30.04
366.045	107.86
366.256	83.28
366.467	17.75
366.678	120.15
366.889	21.85
367.1	9.56
367.311	103.76
367.522	54.61
367.733	114
367.944	21.85
368.155	-6.83
368.366	-2.73
368.577	75.09
368.788	36.18
368.999	97.62
369.209	83.28
369.42	99.67
369.631	77.14
369.842	122.2
370.053	32.08
370.264	75.09
370.474	58.71
370.685	52.56
370.896	85.33
371.107	91.48
371.317	-35.5
371.528	99.67
371.739	21.85
371.95	87.38
372.16	116.05
372.371	42.32
372.582	46.42
372.792	25.94
373.003	50.52
373.214	103.76
373.424	120.15
373.635	62.8
373.846	107.86
374.056	-8.87
374.267	30.04
374.477	95.57
374.688	62.8
374.898	44.37
375.109	109.91
375.319	50.52
375.53	105.81
375.74	50.52
375.951	81.24
376.161	99.67
376.372	91.48
376.582	21.85
376.793	89.43
377.003	-8.87
377.214	81.24
377.424	5.46
377.635	73.04
377.845	-0.68
378.055	71
378.266	11.61
378.476	1.37
378.686	68.95
378.897	-6.83
379.107	83.28
379.317	114
379.528	103.76
379.738	122.2
379.948	101.72
380.158	101.72
380.369	124.24
380.579	89.43
380.789	87.38
380.999	109.91
381.21	97.62
381.42	77.14
381.63	97.62
381.84	34.13
382.05	-4.78
382.261	85.33
382.471	71
382.681	1.37
382.891	169.3
383.101	46.42
383.311	11.61
383.521	52.56
383.731	83.28
383.941	62.8
384.151	75.09
384.361	87.38
384.571	81.24
384.781	34.13
384.991	95.57
385.201	34.13
385.411	93.52
385.621	11.61
385.831	54.61
386.041	91.48
386.251	132.44
386.461	64.85
386.671	5.46
386.881	1.37
387.091	81.24
387.301	23.89
387.511	58.71
387.72	23.89
387.93	25.94
388.14	79.19
388.35	64.85
388.56	62.8
388.769	73.04
388.979	79.19
389.189	23.89
389.399	36.18
389.609	85.33
389.818	99.67
390.028	25.94
390.238	58.71
390.447	38.23
390.657	42.32
390.867	3.41
391.076	50.52
391.286	64.85
391.496	87.38
391.705	167.25
391.915	120.15
392.125	48.47
392.334	58.71
392.544	73.04
392.753	85.33
392.963	19.8
393.172	91.48
393.382	105.81
393.591	68.95
393.801	15.7
394.01	142.68
394.22	103.76
394.429	111.96
394.639	105.81
394.848	107.86
395.058	85.33
395.267	58.71
395.477	93.52
395.686	77.14
395.895	161.11
396.105	228.69
396.314	175.44
396.524	71
396.733	87.38
396.942	99.67
397.152	175.44
397.361	109.91
397.57	58.71
397.78	81.24
397.989	95.57
398.198	157.01
398.407	122.2
398.617	148.82
398.826	214.35
399.035	87.38
399.244	83.28
399.453	189.78
399.663	114
399.872	204.11
400.081	124.24
400.29	93.52
400.499	132.44
400.708	183.63
400.917	140.63
401.127	136.53
401.336	128.34
401.545	179.54
401.754	165.2
401.963	130.39
402.172	157.01
402.381	128.34
402.59	75.09
402.799	146.77
403.008	228.69
403.217	208.21
403.426	128.34
403.635	154.96
403.844	173.39
404.053	142.68
404.262	150.87
404.471	152.91
404.68	191.83
404.888	183.63
405.097	165.2
405.306	197.97
405.515	189.78
405.724	157.01
405.933	173.39
406.142	230.74
406.35	271.7
406.559	236.88
406.768	247.12
406.977	283.98
407.185	277.84
407.394	212.31
407.603	193.87
407.812	283.98
408.02	308.56
408.229	316.75
408.438	290.13
408.646	255.31
408.855	304.46
409.064	341.33
409.272	324.94
409.481	456.01
409.69	351.57
409.898	320.85
410.107	404.82
410.315	499.02
410.524	408.91
410.733	402.77
410.941	402.77
411.15	398.67
411.358	535.89
411.567	539.98
411.775	476.49
411.984	546.12
412.192	591.18
412.401	613.71
412.609	705.87
412.818	683.34
413.026	666.96
413.234	685.39
413.443	660.81
413.651	744.78
413.86	730.44
414.068	900.42
414.276	812.36
414.485	808.27
414.693	912.71
414.901	955.72
415.11	1033.54
415.318	972.1
415.526	949.57
415.734	1013.06
415.943	1060.17
416.151	1068.36
416.359	1197.38
416.567	1228.1
416.776	1199.43
416.984	1312.07
417.192	1410.37
417.4	1387.84
417.608	1385.79
417.817	1457.47
418.025	1486.14
418.233	1606.97
418.441	1473.85
418.649	1662.27
418.857	1885.5
419.065	1766.71
419.273	1842.49
419.481	1858.87
419.689	2092.34
419.897	2118.97
420.105	2258.23
420.313	2123.06
420.521	2274.61
420.729	2317.62
420.937	2194.74
421.145	2471.22
421.353	2657.58
421.561	2710.83
421.769	2659.63
421.977	2845.99
422.185	2852.14
422.393	3056.93
422.601	3161.38
422.809	3020.07
423.017	3249.44
423.224	3259.68
423.432	3415.33
423.64	3501.34
423.848	3845.4
424.056	3730.72
424.263	4009.24
424.471	3992.86
424.679	4044.06
424.887	4416.79
425.094	4488.46
425.302	4594.96
425.51	4619.53
425.718	4736.27
425.925	4773.13
426.133	4955.4
426.341	5401.86
426.548	5514.5
426.756	5537.02
426.964	5551.36
427.171	5952.76
427.379	6200.57
427.586	6270.2
427.794	6481.14
428.001	6620.4
428.209	6872.3
428.417	6876.4
428.624	7466.21
428.832	7265.51
429.039	7322.85
429.247	7259.37
429.454	8291.54
429.662	8619.22
429.869	8131.8
430.076	8391.89
430.284	8271.06
430.491	8735.95
430.699	9198.79
430.906	9110.73
431.114	9297.1
431.321	9794.75
431.528	9950.4
431.736	10710.19
431.943	11027.63
432.15	10601.65
432.358	10722.48
432.565	11451.56
432.772	11297.96
432.979	11838.62
433.187	12317.85
433.394	12389.53
433.601	13180.04
433.808	13053.07
434.016	13130.89
434.223	13546.63
434.43	14535.8
434.637	14095.49
434.844	14959.73
435.052	15221.87
435.259	15361.13
435.466	15418.47
435.673	15309.93
435.88	16372.83
436.087	17032.27
436.294	17405
436.501	16622.68
436.708	17124.43
436.915	17585.22
437.122	18621.5
437.329	18551.87
437.537	19205.17
437.743	18963.51
437.95	19248.18
438.157	20071.46
438.364	20993.04
438.571	20802.58
438.778	21113.88
438.985	23075.83
439.192	22203.39
439.399	22969.33
439.606	22316.03
439.813	23223.28
440.02	24781.79
440.227	24351.71
440.433	24282.08
440.64	25162.71
440.847	24890.33
441.054	25699.28
441.261	26934.2
441.467	26805.18
441.674	27409.33
441.881	28251.05
442.088	28281.77
442.294	27933.61
442.501	28920.73
442.708	29164.44
442.914	30479.24
443.121	31695.73
443.328	31257.46
443.534	32789.34
443.741	32498.53
443.948	31816.56
444.154	34376.52
444.361	33540.95
444.568	34274.12
444.774	34163.53
444.981	34523.97
445.187	35564.34
445.394	36846.37
445.6	36678.44
445.807	39928.56
446.013	38069.01
446.22	39217.92
446.426	40325.87
446.633	40626.92
446.839	42068.69
447.046	40321.77
447.252	42777.29
447.459	42746.57
447.665	42121.94
447.871	44030.65
448.078	46242.45
448.284	43725.5
448.491	44980.9
448.697	46414.48
448.903	47475.33
449.11	47008.39
449.316	46729.87
449.522	47737.47
449.728	48421.49
449.935	48880.24
450.141	48839.28
450.347	49793.63
450.553	48030.33
450.76	49015.4
450.966	50211.42
451.172	49142.38
451.378	50365.01
451.584	49668.7
451.791	50827.85
451.997	50668.11
452.203	51345.99
452.409	51307.08
452.615	50926.16
452.821	49308.26
453.027	48507.51
453.233	50831.95
453.44	48781.93
453.646	49656.42
453.852	49404.52
454.058	50135.64
454.264	48433.78
454.47	49134.18
454.676	48339.57
454.882	49867.36
455.088	45253.28
455.294	45918.87
455.5	46611.09
455.705	47098.5
455.911	45120.16
456.117	43911.86
456.323	43424.45
456.529	41026.28
456.735	42646.22
456.941	41597.66
457.147	40887.01
457.352	39570.17
457.558	39785.21
457.764	39162.62
457.97	38535.95
458.176	37776.15
458.381	37864.21
458.587	35838.77
458.793	35687.22
458.999	33682.26
459.204	36412.2
459.41	35019.58
459.616	33014.62
459.821	32854.88
460.027	32676.71
460.233	32172.91
460.438	30327.69
460.644	31343.48
460.85	29424.53
461.055	28816.29
461.261	29049.75
461.466	26917.82
461.672	25924.55
461.878	27761.58
462.083	25807.82
462.289	25625.55
462.494	25359.31
462.7	24380.39
462.905	23878.63
463.111	24732.64
463.316	24681.44
463.522	24124.39
463.727	24421.34
463.932	24069.09
464.138	23512.05
464.343	23528.43
464.549	23194.61
464.754	23919.59
464.959	23665.64
465.165	23696.36
465.37	22535.17
465.575	22205.44
465.781	23131.12
465.986	23137.27
466.191	22273.03
466.397	21976.07
466.602	20691.99
466.807	21396.49
467.012	21670.92
467.218	21365.78
467.423	21232.66
467.628	21406.73
467.833	22520.83
468.038	21240.85
468.244	20730.9
468.449	21877.77
468.654	20943.89
468.859	20966.42
469.064	20519.96
469.269	19921.96
469.474	19868.71
469.679	20384.8
469.885	19561.51
470.09	19967.01
470.295	19831.85
470.5	19383.34
470.705	19168.3
470.91	19033.14
471.115	18895.92
471.32	19334.19
471.525	18830.39
471.73	18637.88
471.935	18521.15
472.139	17919.04
472.344	18097.22
472.549	17962.05
472.754	17742.92
472.959	17024.08
473.164	17235.02
473.369	16682.07
473.574	17312.85
473.778	17382.48
473.983	16845.91
474.188	17030.23
474.393	16407.64
474.598	16235.61
474.802	16139.36
475.007	16137.31
475.212	15905.89
475.417	15430.76
475.621	15432.81
475.826	15740.01
476.031	15166.57
476.235	14847.09
476.44	15170.67
476.645	14683.25
476.849	14888.05
477.054	14754.93
477.259	14326.91
477.463	14564.47
477.668	14230.65
477.872	14177.41
478.077	13980.8
478.282	13565.06
478.486	13739.14
478.691	13710.47
478.895	13517.96
479.1	13646.98
479.304	13417.61
479.509	12971.15
479.713	13456.52
479.918	13149.32
480.122	12878.99
480.326	13081.74
480.531	12989.58
480.735	12977.3
480.94	12881.04
481.144	13427.85
481.348	12704.92
481.553	12854.42
481.757	12313.75
481.961	12530.84
482.166	12776.59
482.37	12846.23
482.574	12323.99
482.778	12637.33
482.983	12891.28
483.187	12620.95
483.391	12536.98
483.595	12532.89
483.8	12297.37
484.004	12768.4
484.208	12709.01
484.412	12762.26
484.616	12827.79
484.821	12543.13
485.025	12317.85
485.229	12586.13
485.433	12453.02
485.637	12606.61
485.841	12522.65
486.045	12641.43
486.249	12590.23
486.453	12571.8
486.657	12661.91
486.861	12754.07
487.065	12514.45
487.269	12555.41
487.473	12401.82
487.677	12725.4
487.881	12829.84
488.085	12606.61
488.289	12532.89
488.493	12598.42
488.697	12600.47
488.901	12616.85
489.105	12745.87
489.309	12666
489.512	12559.51
489.716	12719.25
489.92	12696.72
490.124	12768.4
490.328	13098.13
490.531	13083.79
490.735	13057.17
490.939	13081.74
491.143	13030.54
491.346	13042.83
491.55	13280.39
491.754	13206.67
491.958	13100.17
492.161	13347.98
492.365	13483.14
492.569	13282.44
492.772	13456.52
492.976	13593.73
493.18	13497.48
493.383	13927.55
493.587	13845.63
493.79	14001.28
493.994	13759.62
494.197	14111.87
494.401	14124.16
494.605	13923.46
494.808	14464.12
495.012	14580.85
495.215	14480.5
495.419	14777.46
495.622	14789.75
495.825	14986.35
496.029	14879.86
496.232	15240.3
496.436	15201.39
496.639	15656.04
496.843	15416.43
497.046	15780.96
497.249	16063.58
497.453	16153.69
497.656	16202.85
497.859	16174.17
498.063	16383.07
498.266	16903.25
498.469	16544.86
498.673	16827.48
498.876	17251.41
499.079	17304.65
499.282	17368.14
499.485	17720.39
499.689	17945.67
499.892	18402.36
500.095	18283.58
500.298	18644.02
500.501	18750.52
500.705	19205.17
500.908	19514.41
501.111	19344.43
501.314	19452.97
501.517	20059.17
501.72	20104.23
501.923	19815.46
502.126	20489.24
502.329	20841.5
502.532	20749.34
502.735	20769.82
502.938	21394.45
503.141	21312.53
503.344	21832.71
503.547	21928.97
503.75	22385.66
503.953	22723.58
504.156	22809.59
504.359	23063.54
504.562	23004.15
504.765	23557.1
504.968	23604.21
505.17	23935.98
505.373	24097.77
505.576	24796.12
505.779	24566.75
505.982	24919
506.185	25392.08
506.387	25555.92
506.59	25922.51
506.793	26182.6
506.996	26262.47
507.198	27036.6
507.401	26985.4
507.604	27177.91
507.807	27892.65
508.009	27808.68
508.212	28093.35
508.415	28355.49
508.617	28652.45
508.82	28830.62
509.022	28939.16
509.225	29621.14
509.428	29690.77
509.63	30188.42
509.833	29856.65
510.035	30677.89
510.238	30638.98
510.44	30909.31
510.643	31738.74
510.845	31869.81
511.048	31542.13
511.25	32037.74
511.453	32555.88
511.655	33368.92
511.858	33176.41
512.06	33477.46
512.262	33983.31
512.465	34091.85
512.667	34417.48
512.87	34929.47
513.072	34841.41
513.274	35529.53
513.477	36313.9
513.679	36100.91
513.881	36424.49
514.084	37022.5
514.286	37147.42
514.488	37186.33
514.69	38214.41
514.893	38216.46
515.095	38292.24
515.297	39246.59
515.499	39131.9
515.701	39244.54
515.904	39768.82
516.106	40325.87
516.308	40352.49
516.51	40801
516.712	40864.49
516.914	41495.26
517.116	42058.45
517.318	41925.33
517.52	42494.67
517.722	42289.87
517.925	42803.91
518.127	43711.16
518.329	44169.91
518.531	44128.95
518.733	44649.13
518.935	44858.02
519.136	44769.96
519.338	45529.76
519.54	45701.79
519.742	46611.09
519.944	46269.08
520.146	47549.06
520.348	47518.34
520.55	47643.26
520.752	48208.5
520.954	48831.08
521.155	48554.61
521.357	49009.26
521.559	49642.08
521.761	49914.46
521.963	49719.9
522.164	50481.75
522.366	50496.08
522.568	50487.89
522.77	51245.64
522.971	52091.45
523.173	51468.87
523.375	52288.06
523.576	52333.11
523.778	52625.97
523.98	53088.81
524.181	53805.6
524.383	53240.36
524.584	53778.98
524.786	53778.98
524.988	53787.17
525.189	54450.71
525.391	55159.31
525.592	54934.03
525.794	55585.29
525.995	55507.46
526.197	55656.96
526.398	55486.98
526.6	56310.27
526.801	56089.09
527.003	56406.52
527.204	56416.76
527.406	56789.49
527.607	56701.43
527.808	57162.22
528.01	56883.7
528.211	57088.49
528.412	58235.36
528.614	57842.15
528.815	58421.72
529.016	58743.25
529.218	57917.92
529.419	57836
529.62	58221.02
529.822	58077.66
530.023	58677.72
530.224	58933.71
530.425	58614.23
530.626	58184.16
530.828	58552.79
531.029	59331.02
531.23	58794.45
531.431	59230.67
531.632	59046.35
531.833	59787.72
532.035	59042.26
532.236	59800
532.437	59779.53
532.638	59576.78
532.839	59840.96
533.04	59988.42
533.241	59140.56
533.442	60162.5
533.643	59345.36
533.844	59785.67
534.045	59990.47
534.246	59283.92
534.447	59959.75
534.648	59914.69
534.849	60135.87
535.05	59212.24
535.251	59849.16
535.451	59572.68
535.652	60262.85
535.853	59935.17
536.054	60127.68
536.255	60037.57
536.456	59492.81
536.657	60858.8
536.857	59828.68
537.058	59791.81
537.259	60119.49
537.46	59886.02
537.66	60045.76
537.861	60162.5
538.062	59771.33
538.263	60455.35
538.463	59816.39
538.664	60078.53
538.865	60062.14
539.065	60479.93
539.266	59603.4
539.466	60234.17
539.667	59539.91
539.868	60201.41
540.068	59824.58
540.269	59795.91
540.469	60527.03
540.67	59591.11
540.87	59808.2
541.071	59963.84
541.271	59863.49
541.472	60004.8
541.672	59486.67
541.873	59359.69
542.073	59210.19
542.274	60121.54
542.474	59402.7
542.675	59294.16
542.875	59738.57
543.075	59587.02
543.276	58974.67
543.476	60109.25
543.676	58970.58
543.877	59640.26
544.077	59519.43
544.277	59292.11
544.478	59177.42
544.678	59705.8
544.878	58993.11
545.078	59275.72
545.279	59365.84
545.479	58939.86
545.679	59779.53
545.879	59277.77
546.079	59619.78
546.28	59652.55
546.48	58923.47
546.68	59294.16
546.88	59609.54
547.08	59353.55
547.28	58993.11
547.48	58976.72
547.68	58878.42
547.88	58603.99
548.081	59062.74
548.281	58569.18
548.481	59083.22
548.681	59498.95
548.881	58952.15
549.081	58644.95
549.28	58636.76
549.48	58993.11
549.68	58845.65
549.88	58982.87
550.08	58663.38
550.28	58714.58
550.48	58636.76
550.68	59062.74
550.88	58857.94
551.08	58946
551.279	58907.09
551.479	58620.37
551.679	58550.74
551.879	58409.43
552.079	58974.67
552.278	58268.12
552.478	58593.75
552.678	57879.01
552.878	58739.16
553.077	58112.48
553.277	57860.58
553.477	58651.09
553.676	58325.47
553.876	58393.05
554.076	58106.33
554.275	58227.16
554.475	57657.83
554.674	58376.67
554.874	58251.74
555.074	57727.46
555.273	57844.19
555.473	57960.93
555.672	57555.43
555.872	57727.46
556.071	57565.67
556.271	57944.55
556.47	57663.97
556.67	57362.92
556.869	57592.29
557.068	57418.22
557.268	57352.68
557.467	57303.53
557.667	57268.72
557.866	57158.13
558.065	57149.93
558.265	57164.27
558.464	56746.48
558.663	57539.05
558.863	56631.8
559.062	57391.59
559.261	56938.99
559.461	57367.02
559.66	56150.52
559.859	56642.04
560.058	56330.75
560.258	56388.09
560.457	56336.89
560.656	56482.3
560.855	55847.43
561.054	55958.02
561.253	55851.52
561.453	55919.1
561.652	56107.52
561.851	55654.92
562.05	55437.83
562.249	55378.44
562.448	55908.86
562.647	55529.99
562.846	54800.91
563.045	54952.46
563.244	54487.57
563.443	55736.83
563.642	54585.88
563.841	54958.61
564.04	54721.04
564.239	55099.92
564.438	54356.5
564.637	54665.75
564.836	54782.48
565.035	53733.92
565.234	54356.5
565.432	53668.39
565.631	53826.08
565.83	54172.19
566.029	53563.94
566.228	53357.1
566.427	53391.91
566.625	52824.62
566.824	52830.77
567.023	53158.44
567.222	52376.12
567.42	53451.3
567.619	52888.11
567.818	52791.86
568.016	52689.46
568.215	52910.64
568.414	52376.12
568.612	52791.86
568.811	51782.21
569.01	52486.71
569.208	51094.09
569.407	52001.34
569.605	51489.35
569.804	51782.21
570.002	51118.67
570.201	51843.65
570.4	51069.51
570.598	51159.62
570.797	50727.5
570.995	51302.98
571.193	50174.55
571.392	50913.87
571.59	50299.48
571.789	50641.49
571.987	50309.72
572.186	50242.13
572.384	49785.44
572.582	50379.35
572.781	50092.63
572.979	49597.02
573.177	49726.05
573.376	50059.87
573.574	49218.15
573.772	49404.52
573.971	49058.41
574.169	48972.39
574.367	48908.91
574.565	49048.17
574.763	48769.65
574.962	48425.59
575.16	48249.46
575.358	48994.92
575.556	47895.16
575.754	48491.12
575.952	47880.83
576.151	48212.6
576.349	47530.62
576.547	47798.91
576.745	47688.32
576.943	47510.14
577.141	47180.42
577.339	47440.51
577.537	46981.77
577.735	47483.52
577.933	46967.43
578.131	47391.36
578.329	46523.02
578.527	46510.74
578.725	46498.45
578.923	46520.98
579.121	46236.31
579.319	46437.01
579.516	46746.25
579.714	46035.61
579.912	45605.53
580.11	45474.46
580.308	45808.28
580.506	45763.23
580.704	44681.9
580.901	45456.03
581.099	45943.45
581.297	45259.43
581.495	45230.76
581.692	44968.62
581.89	44751.53
582.088	44743.34
582.285	44374.7
582.483	44845.74
582.681	44544.69
582.878	43879.1
583.076	44042.93
583.274	44575.41
583.471	43494.08
583.669	43934.39
583.866	43526.85
584.064	43979.45
584.262	43076.29
584.459	43438.78
584.657	43168.45
584.854	43481.79
585.052	42808.01
585.249	43229.89
585.447	43254.47
585.644	42797.77
585.841	42412.75
586.039	43084.48
586.236	42390.22
586.434	42175.19
586.631	41779.93
586.828	41734.87
587.026	42269.39
587.223	41984.72
587.42	41659.1
587.618	41818.84
587.815	41599.71
588.012	41452.25
588.21	41716.44
588.407	41519.84
588.604	41261.79
588.801	41048.8
588.999	40938.21
589.196	40827.62
589.393	40942.31
589.59	40592.11
589.787	40538.86
589.984	40356.59
590.182	40184.56
590.379	40168.18
590.576	39523.07
590.773	40352.49
590.97	39809.78
591.167	40346.35
591.364	39398.14
591.561	39865.08
591.758	39115.52
591.955	39492.35
592.152	39504.63
592.349	38656.78
592.546	39072.51
592.743	38945.54
592.94	38497.03
593.137	39242.49
593.334	38753.03
593.531	38001.43
593.727	39013.12
593.924	38476.55
594.121	38435.59
594.318	38458.12
594.515	37804.82
594.712	38198.03
594.908	37645.08
595.105	37919.51
595.302	37452.57
595.499	37792.53
595.696	37231.39
595.892	37276.44
596.089	37155.61
596.286	37266.2
596.482	37149.47
596.679	37042.98
596.876	37092.13
597.072	36827.94
597.269	36743.97
597.466	36649.77
597.662	36291.37
597.859	36412.2
598.055	36250.41
598.252	36268.84
598.448	35814.19
598.645	36219.69
598.841	35560.25
599.038	35734.32
599.234	35425.08
599.431	35171.13
599.627	35154.75
599.824	35965.74
600.02	35175.23
600.217	35054.4
600.413	34751.3
600.609	34659.14
600.806	34855.75
601.002	34814.79
601.198	34511.69
601.395	34585.41
601.591	34184.01
601.787	34413.38
601.984	34298.7
602.18	34251.59
602.376	34016.08
602.572	33741.65
602.769	33839.95
602.965	33766.23
603.161	33827.67
603.357	33233.75
603.553	33735.51
603.75	33088.35
603.946	33274.71
604.142	33143.64
604.338	33022.81
604.534	33045.34
604.73	32506.73
604.926	32758.63
605.122	32631.65
605.318	32422.76
605.514	32351.08
605.71	32187.24
605.906	32328.55
606.102	32213.87
606.298	32027.5
606.494	32426.85
606.69	32168.81
606.886	32148.33
607.082	31347.58
607.278	32076.65
607.474	31300.47
607.67	31791.98
607.866	31056.76
608.062	31867.76
608.257	31071.1
608.453	31179.64
608.649	31013.76
608.845	31284.09
609.041	31292.28
609.236	31220.6
609.432	30778.24
609.628	30626.69
609.824	31120.25
610.019	30968.7
610.215	30557.06
610.411	30884.73
610.606	30501.76
610.802	30530.44
610.998	30321.54
611.193	30679.94
611.389	30139.27
611.584	30210.95
611.78	29948.81
611.976	30167.94
612.171	30290.82
612.367	30081.93
612.562	30264.2
612.758	29350.81
612.953	29610.9
613.149	29772.69
613.344	29672.34
613.539	29961.1
613.735	29594.51
613.93	29504.4
614.126	29569.94
614.321	29696.91
614.517	29434.77
614.712	29666.19
614.907	29154.2
615.103	29434.77
615.298	29094.81
615.493	29471.64
615.688	28994.46
615.884	29567.89
616.079	29000.6
616.274	29191.06
616.47	28812.19
616.665	29174.68
616.86	29016.99
617.055	28748.7
617.25	28494.75
617.445	28902.3
617.641	28246.95
617.836	28677.02
618.031	28144.55
618.226	28537.76
618.421	28134.31
618.616	28224.42
618.811	27667.38
619.006	28261.29
619.201	27610.03
619.396	27888.56
619.591	27532.21
619.786	27661.23
619.981	26973.11
620.176	27419.57
620.371	26764.22
620.566	27093.94
620.761	27030.46
620.956	26813.37
621.151	26586.05
621.346	26747.84
621.541	26096.58
621.735	26581.95
621.93	25971.66
622.125	26194.89
622.32	25736.14
622.515	25947.08
622.709	25674.7
622.904	25439.19
623.099	25527.25
623.294	25607.12
623.488	24957.91
623.683	25060.31
623.878	24857.56
624.072	24837.08
624.267	24787.93
624.462	24628.19
624.656	24249.32
624.851	24314.85
625.046	24282.08
625.24	24011.75
625.435	23809
625.629	23663.6
625.824	23620.59
626.018	23301.11
626.213	23112.69
626.407	23096.31
626.602	22707.19
626.796	23170.04
626.991	22723.58
627.185	22551.55
627.38	22389.76
627.574	22639.61
627.768	22131.72
627.963	22123.52
628.157	22150.15
628.352	21998.6
628.546	21683.21
628.74	21851.14
628.935	21683.21
629.129	21427.21
629.323	21302.29
629.517	21257.23
629.712	21242.9
629.906	21337.1
630.1	20816.92
630.294	20970.52
630.489	20509.72
630.683	20683.8
630.877	20169.76
631.071	20474.91
631.265	20327.46
631.459	20255.78
631.653	20038.69
631.848	19831.85
632.042	19579.95
632.236	19940.39
632.43	19559.47
632.624	19526.7
632.818	19553.32
633.012	19223.6
633.206	18943.03
633.4	19184.69
633.594	18814.01
633.788	18723.9
633.982	18850.87
634.176	18637.88
634.369	18459.71
634.563	18701.37
634.757	18502.72
634.951	18461.76
635.145	18304.06
635.339	18205.76
635.533	18033.73
635.726	18054.21
635.92	17261.65
636.114	17708.1
636.308	17288.27
636.501	17601.61
636.695	17288.27
636.889	17095.76
637.083	17224.78
637.276	17122.38
637.47	16925.78
637.664	17071.18
637.857	16553.05
638.051	16880.72
638.244	16720.98
638.438	16282.72
638.632	16510.04
638.825	16039.01
639.019	16176.22
639.212	15993.95
639.406	16051.3
639.599	16047.2
639.793	15938.66
639.986	15713.38
640.18	15875.17
640.373	15668.33
640.567	15285.36
640.76	15598.7
640.954	15400.04
641.147	15185.01
641.34	15074.42
641.534	14726.26
641.727	14963.83
641.92	14933.11
642.114	14566.52
642.307	14886
642.5	14673.01
642.694	14365.82
642.887	14406.78
643.08	14562.42
643.273	14429.31
643.467	14191.74
643.66	13984.9
643.853	14009.47
644.046	13864.07
644.239	13933.7
644.432	13876.35
644.626	13714.56
644.819	13595.78
645.012	13577.35
645.205	13778.05
645.398	13313.16
645.591	13300.87
645.784	13335.69
645.977	13237.39
646.17	13120.65
646.363	13188.24
646.556	13024.4
646.749	12917.9
646.942	12928.14
647.135	12706.96
647.328	12627.09
647.521	12428.44
647.714	12207.26
647.907	12561.56
648.099	12459.16
648.292	12420.25
648.485	12326.04
648.678	12170.4
648.871	12301.47
649.064	12131.48
649.256	12119.2
649.449	11887.78
649.642	11891.87
649.835	11695.27
650.027	11764.9
650.22	11709.6
650.413	11953.31
650.605	11775.14
650.798	11429.03
650.991	11173.03
651.183	11392.17
651.376	11238.57
651.568	11103.4
651.761	11238.57
651.954	11152.56
652.146	10947.76
652.339	10974.38
652.531	10984.62
652.724	10876.08
652.916	10990.77
653.109	10771.63
653.301	10605.75
653.494	10785.97
653.686	10663.09
653.879	10595.51
654.071	10581.17
654.263	10347.7
654.456	10413.24
654.648	10433.72
654.84	10325.18
655.033	10134.71
655.225	10128.57
655.417	10015.93
655.61	10382.52
655.802	10011.84
655.994	9897.15
656.186	9960.64
656.379	9788.61
656.571	9743.55
656.763	9680.07
656.955	9743.55
657.148	9565.38
657.34	9729.22
657.532	9553.09
657.724	9409.73
657.916	9481.41
658.108	9151.69
658.3	9202.89
658.492	9180.36
658.684	9080.01
658.876	9245.9
659.068	9026.76
659.26	8881.36
659.452	9077.96
659.644	9286.86
659.836	8838.35
660.028	9110.73
660.22	8686.8
660.412	8766.67
660.604	8666.32
660.796	8541.4
660.988	8486.1
661.18	8555.73
661.372	8637.65
661.563	8744.14
661.755	8543.44
661.947	8516.82
662.139	8217.82
662.331	8432.85
662.522	8148.18
662.714	8088.79
662.906	8142.04
663.097	8185.05
663.289	7961.82
663.481	8092.89
663.673	7998.68
663.864	7933.15
664.056	7871.71
664.247	7935.2
664.439	7765.21
664.631	7834.85
664.822	7771.36
665.014	7724.26
665.205	7808.22
665.397	7652.58
665.588	7730.4
665.78	7668.96
665.971	7552.23
666.163	7492.84
666.354	7372
666.546	7460.07
666.737	7210.22
666.929	7331.05
667.12	7423.2
667.311	7263.46
667.503	7345.38
667.694	7179.5
667.885	7161.06
668.077	7173.35
668.268	6917.36
668.459	7120.1
668.651	7101.67
668.842	7015.66
669.033	6943.98
669.224	6886.64
669.416	7077.1
669.607	6843.63
669.798	6743.28
669.989	6986.99
670.18	6874.35
670.371	6804.72
670.563	6786.29
670.754	6776.05
670.945	6706.41
671.136	6724.85
671.327	6794.48
671.518	6583.54
671.709	6513.91
671.9	6753.52
672.091	6763.76
672.282	6585.58
672.473	6558.96
672.664	6685.94
672.855	6462.71
673.046	6354.16
673.237	6481.14
673.428	6442.23
673.619	6384.88
673.809	6481.14
674	6255.86
674.191	6212.85
674.382	6149.37
674.573	6337.78
674.764	6249.72
674.954	6235.38
675.145	6266.1
675.336	6276.34
675.527	6173.94
675.717	6186.23
675.908	6112.5
676.099	6196.47
676.289	5997.82
676.48	6085.88
676.671	6096.12
676.861	6073.59
677.052	6059.26
677.243	5833.98
677.433	5973.24
677.624	5868.8
677.814	5940.47
678.005	6059.26
678.195	6167.8
678.386	6044.92
678.576	5981.43
678.767	5852.41
678.957	5868.8
679.148	5895.42
679.338	5780.73
679.529	5932.28
679.719	5895.42
679.909	5838.08
680.1	5913.85
680.29	5936.38
680.481	5700.86
680.671	5819.64
680.861	5672.19
681.052	5942.52
681.242	5780.73
681.432	5788.92
681.622	5709.05
681.813	5825.79
682.003	5793.02
682.193	5467.39
682.383	5735.68
682.573	5659.9
682.764	5649.66
682.954	5774.59
683.144	5565.7
683.334	5631.23
683.524	5602.56
683.714	5627.14
683.904	5543.17
684.094	5719.29
684.284	5651.71
684.474	5641.47
684.664	5635.33
684.854	5627.14
685.044	5416.19
685.234	5440.77
685.424	5551.36
685.614	5346.56
685.804	5385.48
685.994	5420.29
686.184	5434.63
686.374	5365
686.564	5326.08
686.753	5385.48
686.943	5453.06
687.133	5256.45
687.323	5283.08
687.513	5324.04
687.702	5221.64
687.892	5119.24
688.082	5205.25
688.272	5278.98
688.461	5143.81
688.651	5266.69
688.841	5184.77
689.03	5158.15
689.22	4943.11
689.41	5143.81
689.599	4977.93
689.789	5002.5
689.979	4971.79
690.168	4850.96
690.358	4986.12
690.547	4879.63
690.737	4865.29
690.926	4887.82
691.116	4791.56
691.305	4658.45
691.495	4779.28
691.684	4830.48
691.874	4879.63
692.063	4789.52
692.252	4705.55
692.442	4842.76
692.631	4709.65
692.82	4693.26
693.01	4730.13
693.199	4750.6
693.388	4597.01
693.578	4599.06
693.767	4586.77
693.956	4619.53
694.146	4422.93
694.335	4484.37
694.524	4404.5
694.713	4621.58
694.902	4427.03
695.092	4465.94
695.281	4517.14
695.47	4392.21
695.659	4357.39
695.848	4502.8
696.037	4461.84
696.226	4341.01
696.415	4359.44
696.604	4420.88
696.793	4494.61
696.982	4336.92
697.171	4379.92
697.36	4336.92
697.549	4328.72
697.738	4429.07
697.927	4242.71
698.116	4408.59
698.305	4404.5
698.494	4445.46
698.683	4318.48
698.872	4441.36
699.061	4293.91
699.25	4414.74
699.438	4371.73
699.627	4453.65
699.816	4336.92
700.005	4330.77
700.193	4431.12
700.382	4363.54
700.571	4269.33
700.76	4228.37
700.948	4414.74
701.137	4445.46
701.326	4269.33
701.514	4273.43
701.703	4211.99
701.892	4199.7
702.08	4332.82
702.269	4263.19
702.457	4123.93
702.646	4207.89
702.834	4238.61
703.023	4199.7
703.212	4269.33
703.4	4302.1
703.589	4162.84
703.777	4238.61
703.965	4222.23
704.154	4408.59
704.342	4183.32
704.531	4226.32
704.719	4130.07
704.907	4347.15
705.096	4134.17
705.284	4203.8
705.472	4222.23
705.661	4271.38
705.849	4338.96
706.037	4232.47
706.226	4269.33
706.414	4295.96
706.602	4152.6
706.79	4252.95
706.979	4263.19
707.167	4214.04
707.355	4103.45
707.543	4199.7
707.731	4146.45
707.919	4291.86
708.107	4355.35
708.296	4248.85
708.484	4330.77
708.672	4222.23
708.86	4332.82
709.048	4207.89
709.236	4154.65
709.424	4238.61
709.612	4216.08
709.8	4250.9
709.988	4273.43
710.176	4353.3
710.364	4218.13
710.551	4369.68
710.739	4195.61
710.927	4271.38
711.115	4322.58
711.303	4257.04
711.491	4068.63
711.679	4150.55
711.866	4328.72
712.054	4187.41
712.242	4238.61
712.43	4228.37
712.617	4236.56
712.805	4191.51
712.993	4347.15
713.181	4211.99
713.368	4281.62
713.556	4363.54
713.744	4095.25
713.931	4289.81
714.119	4232.47
714.306	4359.44
714.494	4187.41
714.682	4191.51
714.869	4117.78
715.057	4234.52
715.244	4134.17
715.432	4222.23
715.619	4162.84
715.807	4171.03
715.994	4222.23
716.182	4199.7
716.369	4275.48
716.556	4322.58
716.744	4074.78
716.931	4293.91
717.119	4154.65
717.306	4150.55
717.493	4269.33
717.681	4257.04
717.868	4134.17
718.055	4338.96
718.242	4187.41
718.43	4353.3
718.617	4191.51
718.804	4242.71
718.991	4175.13
719.179	4246.8
719.366	4060.44
719.553	4347.15
719.74	4222.23
719.927	4201.75
720.114	4195.61
720.301	4123.93
720.488	4158.74
720.676	4152.6
720.863	4142.36
721.05	4105.49
721.237	4142.36
721.424	4009.24
721.611	4240.66
721.798	4211.99
721.985	4019.48
722.172	4076.82
722.358	4001.05
722.545	4314.39
722.732	4064.54
722.919	4117.78
723.106	4015.38
723.293	4285.72
723.48	4019.48
723.667	4160.79
723.853	4093.21
724.04	4265.24
724.227	4062.49
724.414	4009.24
724.6	4103.45
724.787	4093.21
724.974	4156.69
725.161	4107.54
725.347	4072.73
725.534	4183.32
725.72	4111.64
725.907	4056.34
726.094	4074.78
726.28	4156.69
726.467	4080.92
726.653	4140.31
726.84	4017.43
727.027	4115.73
727.213	3996.95
727.4	4230.42
727.586	4064.54
727.773	4052.25
727.959	4056.34
728.145	4080.92
728.332	4025.62
728.518	4058.39
728.705	3943.71
728.891	3953.94
729.077	4091.16
729.264	4009.24
729.45	4039.96
729.636	4068.63
729.823	4134.17
730.009	4013.34
730.195	4029.72
730.382	4093.21
730.568	4013.34
730.754	4013.34
730.94	3880.22
731.126	3929.37
731.313	4082.97
731.499	3933.47
731.685	4042.01
731.871	4050.2
732.057	3970.33
732.243	3941.66
732.429	3845.4
732.615	3900.7
732.801	3880.22
732.987	3960.09
733.173	3769.63
733.359	3837.21
733.545	3831.07
733.731	3884.31
733.917	3904.79
734.103	3974.42
734.289	3882.27
734.475	3867.93
734.661	3919.13
734.847	3800.35
735.033	3937.56
735.219	4044.06
735.404	3796.25
735.59	3886.36
735.776	3927.32
735.962	3884.31
736.148	3839.26
736.333	3751.2
736.519	3769.63
736.705	3781.92
736.89	3843.35
737.076	3650.85
737.262	3790.11
737.447	3816.73
737.633	3859.74
737.819	3732.76
738.004	3587.36
738.19	3734.81
738.375	3642.65
738.561	3777.82
738.747	3667.23
738.932	3786.01
739.118	3726.62
739.303	3593.5
739.489	3716.38
739.674	3638.56
739.859	3609.89
740.045	3663.13
740.23	3587.36
740.416	3589.41
740.601	3570.97
740.786	3747.1
740.972	3523.87
741.157	3505.44
741.342	3568.93
741.528	3560.73
741.713	3472.67
741.898	3513.63
742.084	3532.06
742.269	3476.77
742.454	3339.55
742.639	3472.67
742.824	3515.68
743.01	3519.78
743.195	3446.05
743.38	3497.25
743.565	3478.82
743.75	3505.44
743.935	3321.12
744.12	3403.04
744.305	3335.46
744.49	3306.79
744.675	3296.55
744.86	3269.92
745.045	3284.26
745.23	3255.59
745.415	3206.44
745.6	3142.95
745.785	3163.43
745.97	3302.69
746.155	3118.37
746.34	3167.52
746.525	3009.83
746.71	3114.28
746.895	3007.78
747.079	2979.11
747.264	3040.55
747.449	2983.21
747.634	2860.33
747.819	3050.79
748.003	2897.19
748.188	2932.01
748.373	2880.81
748.557	2905.38
748.742	2862.38
748.927	2776.36
749.111	2688.3
749.296	2837.8
749.481	2829.61
749.665	2688.3
749.85	2831.66
750.034	2671.92
750.219	2833.71
750.404	2692.4
750.588	2684.2
750.773	2630.96
750.957	2704.68
751.141	2719.02
751.326	2614.57
751.51	2567.47
751.695	2641.2
751.879	2514.22
752.064	2592.05
752.248	2534.7
752.432	2544.94
752.617	2503.98
752.801	2481.46
752.985	2446.64
753.17	2501.94
753.354	2424.11
753.538	2342.19
753.722	2387.25
753.907	2377.01
754.091	2366.77
754.275	2231.6
754.459	2356.53
754.643	2213.17
754.828	2282.8
755.012	2180.4
755.196	2207.03
755.38	2213.17
755.564	2323.76
755.748	2174.26
755.932	2209.08
756.116	2204.98
756.3	2098.49
756.484	2125.11
756.668	2088.25
756.852	2061.62
757.036	2104.63
757.22	2030.9
757.404	2069.81
757.588	1998.13
757.772	2026.81
757.956	2065.72
758.14	2159.92
758.323	1922.36
758.507	1965.37
758.691	2022.71
758.875	1957.18
759.059	1873.21
759.242	1914.17
759.426	2004.28
759.61	1932.6
759.794	1918.26
759.977	1920.31
760.161	1946.94
760.345	1832.25
760.528	1776.95
760.712	1856.83
760.895	1862.97
761.079	1815.87
761.263	1822.01
761.446	1811.77
761.63	1811.77
761.813	1783.1
761.997	1699.13
762.18	1602.88
762.364	1754.43
762.547	1742.14
762.731	1729.85
762.914	1711.42
763.098	1684.8
763.281	1676.6
763.464	1768.76
763.648	1697.08
763.831	1666.36
764.015	1629.5
764.198	1699.13
764.381	1586.49
764.564	1637.69
764.748	1709.37
764.931	1676.6
765.114	1586.49
765.297	1649.98
765.481	1508.67
765.664	1631.55
765.847	1580.35
766.03	1600.83
766.213	1404.22
766.397	1486.14
766.58	1516.86
766.763	1598.78
766.946	1480
767.129	1523.01
767.312	1422.66
767.495	1432.9
767.678	1477.95
767.861	1500.48
768.044	1449.28
768.227	1492.29
768.41	1570.11
768.593	1439.04
768.776	1387.84
768.959	1545.53
769.142	1463.62
769.324	1500.48
769.507	1469.76
769.69	1363.26
769.873	1430.85
770.056	1432.9
770.239	1373.5
770.421	1424.7
770.604	1379.65
770.787	1328.45
770.97	1342.78
771.152	1316.16
771.335	1414.46
771.518	1365.31
771.7	1387.84
771.883	1426.75
772.066	1332.54
772.248	1312.07
772.431	1373.5
772.613	1342.78
772.796	1258.82
772.978	1322.31
773.161	1324.35
773.343	1185.09
773.526	1234.24
773.708	1264.96
773.891	1170.76
774.073	1258.82
774.256	1176.9
774.438	1193.28
774.621	1248.58
774.803	1242.43
774.985	1277.25
775.168	1174.85
775.35	1150.28
775.532	1178.95
775.715	1064.26
775.897	1150.28
776.079	1084.74
776.261	1162.56
776.444	1058.12
776.626	1060.17
776.808	1144.13
776.99	1099.08
777.173	1051.97
777.355	1068.36
777.537	1013.06
777.719	1033.54
777.901	1090.88
778.083	1056.07
778.265	963.91
778.447	1119.56
778.629	1008.97
778.811	990.53
778.993	996.68
779.175	1011.01
779.357	976.2
779.539	927.05
779.721	941.38
779.903	980.29
780.085	961.86
780.267	963.91
780.449	951.62
780.631	910.66
780.812	959.81
780.994	916.81
781.176	824.65
781.358	814.41
781.54	865.61
781.721	916.81
781.903	908.62
782.085	861.51
782.267	849.22
782.448	832.84
782.63	859.46
782.812	832.84
782.993	843.08
783.175	822.6
783.357	806.22
783.538	769.35
783.72	783.69
783.901	826.7
784.083	679.24
784.264	828.74
784.446	746.83
784.627	759.11
784.809	669
784.99	802.12
785.172	775.5
785.353	722.25
785.535	724.3
785.716	812.36
785.897	742.73
786.079	679.24
786.26	693.58
786.441	722.25
786.623	646.48
786.804	683.34
786.985	599.37
787.167	669
787.348	697.67
787.529	644.43
787.71	664.91
787.891	617.8
788.073	570.7
788.254	673.1
788.435	726.35
788.616	628.04
788.797	634.19
788.978	664.91
789.159	570.7
789.34	662.86
789.522	585.04
789.703	509.26
789.884	595.28
790.065	609.61
790.246	632.14
790.427	564.56
790.607	535.89
790.788	591.18
790.969	603.47
791.15	548.17
791.331	494.93
791.512	517.45
791.693	439.63
791.874	484.69
792.054	611.66
792.235	566.6
792.416	539.98
792.597	472.4
792.778	525.65
792.958	519.5
793.139	499.02
793.32	542.03
793.5	511.31
793.681	552.27
793.862	525.65
794.042	480.59
794.223	501.07
794.404	472.4
794.584	478.54
794.765	443.73
794.945	460.11
795.126	511.31
795.306	464.21
795.487	394.58
795.667	429.39
795.848	390.48
796.028	423.25
796.209	480.59
796.389	433.49
796.57	464.21
796.75	406.86
796.93	462.16
797.111	451.92
797.291	478.54
797.471	410.96
797.652	456.01
797.832	398.67
798.012	404.82
798.192	451.92
798.373	384.34
798.553	341.33
798.733	378.19
798.913	370
799.093	386.38
799.274	460.11
799.454	380.24
799.634	353.62
799.814	370
799.994	413.01
800.174	404.82
800.354	447.82
800.534	367.95
800.714	402.77
800.894	320.85
801.074	429.39
801.254	451.92
801.434	388.43
801.614	351.57
801.794	355.66
801.974	841.03
802.154	290.13
802.334	361.81
802.514	365.9
802.693	363.86
802.873	431.44
803.053	382.29
803.233	390.48
803.413	314.7
803.592	384.34
803.772	310.61
803.952	312.66
804.131	378.19
804.311	404.82
804.491	349.52
804.67	298.32
804.85	355.66
805.03	355.66
805.209	406.86
805.389	322.9
805.568	298.32
805.748	308.56
805.928	329.04
806.107	347.47
806.287	281.94
806.466	320.85
806.646	265.55
806.825	240.98
807.004	300.37
807.184	324.94
807.363	394.58
807.543	372.05
807.722	316.75
807.901	337.23
808.081	271.7
808.26	240.98
808.439	345.42
808.619	306.51
808.798	253.27
808.977	316.75
809.156	384.34
809.336	347.47
809.515	320.85
809.694	247.12
809.873	259.41
810.052	253.27
810.231	286.03
810.411	277.84
810.59	204.11
810.769	288.08
810.948	302.42
811.127	202.07
811.306	273.75
811.485	251.22
811.664	259.41
811.843	255.31
812.022	173.39
812.201	206.16
812.38	228.69
812.559	238.93
812.737	230.74
812.916	210.26
813.095	193.87
813.274	240.98
813.453	200.02
813.632	210.26
813.811	255.31
813.989	234.83
814.168	226.64
814.347	261.46
814.526	259.41
814.704	247.12
814.883	255.31
815.062	253.27
815.24	240.98
815.419	218.45
815.598	298.32
815.776	200.02
815.955	247.12
816.133	140.63
816.312	183.63
816.49	136.53
816.669	279.89
816.847	259.41
817.026	175.44
817.204	204.11
817.383	214.35
817.561	214.35
817.74	148.82
817.918	210.26
818.097	189.78
818.275	161.11
818.453	228.69
818.632	144.72
818.81	263.51
818.988	175.44
819.167	200.02
819.345	226.64
819.523	195.92
819.701	208.21
819.879	255.31
820.058	189.78
820.236	169.3
820.414	189.78
820.592	169.3
820.77	167.25
820.948	200.02
821.127	210.26
821.305	224.59
821.483	103.76
821.661	279.89
821.839	109.91
822.017	154.96
822.195	150.87
822.373	165.2
822.551	95.57
822.729	234.83
822.907	130.39
823.085	165.2
823.262	159.06
823.44	116.05
823.618	159.06
823.796	161.11
823.974	234.83
824.152	179.54
824.329	103.76
824.507	154.96
824.685	204.11
824.863	161.11
825.04	124.24
825.218	154.96
825.396	226.64
825.574	230.74
825.751	175.44
825.929	107.86
826.107	101.72
826.284	195.92
826.462	163.15
826.639	142.68
826.817	114
826.994	132.44
827.172	152.91
827.349	189.78
827.527	122.2
827.704	200.02
827.882	200.02
828.059	99.67
828.237	159.06
828.414	62.8
828.591	134.48
828.769	191.83
828.946	99.67
829.124	163.15
829.301	134.48
829.478	73.04
829.655	111.96
829.833	136.53
830.01	73.04
830.187	161.11
830.364	165.2
830.542	169.3
830.719	148.82
830.896	144.72
831.073	157.01
831.25	224.59
831.427	120.15
831.604	124.24
831.782	101.72
831.959	52.56
832.136	142.68
832.313	93.52
832.49	50.52
832.667	118.1
832.844	154.96
833.021	99.67
833.198	128.34
833.374	185.68
833.551	-2.73
833.728	144.72
833.905	111.96
834.082	83.28
834.259	142.68
834.436	109.91
834.612	109.91
834.789	150.87
834.966	114
835.143	71
835.319	197.97
835.496	157.01
835.673	109.91
835.85	148.82
836.026	50.52
836.203	109.91
836.38	144.72
836.556	107.86
836.733	97.62
836.909	175.44
837.086	148.82
837.262	120.15
837.439	97.62
837.616	93.52
837.792	128.34
837.968	97.62
838.145	77.14
838.321	73.04
838.498	91.48
838.674	148.82
838.851	111.96
839.027	157.01
839.203	91.48
839.38	68.95
839.556	40.28
839.732	95.57
839.909	66.9
840.085	50.52
840.261	85.33
840.437	150.87
840.614	46.42
840.79	191.83
840.966	177.49
841.142	148.82
841.318	64.85
841.494	128.34
841.671	13.65
841.847	30.04
842.023	46.42
842.199	136.53
842.375	99.67
842.551	1.37
842.727	71
842.903	58.71
843.079	15.7
843.255	116.05
843.431	116.05
843.607	107.86
843.783	68.95
843.959	48.47
844.134	71
844.31	71
844.486	32.08
844.662	30.04
844.838	101.72
845.013	71
845.189	66.9
845.365	34.13
845.541	97.62
845.716	111.96
845.892	13.65
846.068	66.9
846.244	64.85
846.419	32.08
846.595	60.76
846.77	25.94
846.946	120.15
847.122	89.43
847.297	66.9
847.473	103.76
847.648	42.32
847.824	81.24
847.999	15.7
848.175	9.56
848.35	79.19
848.526	154.96
848.701	1.37
848.876	161.11
849.052	146.77
849.227	116.05
849.403	56.66
849.578	71
849.753	42.32
849.929	52.56
850.104	46.42
850.279	130.39
850.454	109.91
850.63	71
850.805	130.39
850.98	56.66
851.155	3.41
851.33	11.61
851.505	34.13
851.681	34.13
851.856	44.37
852.031	36.18
852.206	62.8
852.381	17.75
852.556	54.61
852.731	122.2
852.906	34.13
853.081	52.56
853.256	105.81
853.431	97.62
853.606	46.42
853.781	38.23
853.956	27.99
854.131	-31.4
854.305	19.8
854.48	13.65
854.655	-17.07
854.83	-45.74
855.005	-12.97
855.18	68.95
855.354	25.94
855.529	-17.07
855.704	50.52
855.879	62.8
856.053	9.56
856.228	109.91
856.403	-12.97
856.577	64.85
856.752	1.37
856.926	68.95
857.101	85.33
857.276	64.85
857.45	36.18
857.625	66.9
857.799	25.94
857.974	77.14
858.148	-27.31
858.323	109.91
858.497	-41.64
858.672	21.85
858.846	9.56
859.02	-19.11
859.195	17.75
859.369	-84.65
859.543	44.37
859.718	-10.92
859.892	85.33
860.066	42.32
860.241	21.85
860.415	48.47
860.589	-23.21
860.763	3.41
860.938	21.85
861.112	111.96
861.286	19.8
861.46	15.7
861.634	34.13
861.808	101.72
861.982	21.85
862.157	71
862.331	5.46
862.505	44.37
862.679	38.23
862.853	19.8
863.027	17.75
863.201	103.76
863.375	87.38
863.549	-15.02
863.722	107.86
863.896	38.23
864.07	38.23
864.244	36.18
864.418	34.13
864.592	38.23
864.766	40.28
864.939	56.66
865.113	-43.69
865.287	118.1
865.461	-21.16
865.634	30.04
865.808	56.66
865.982	23.89
866.156	17.75
866.329	21.85
866.503	48.47
866.676	15.7
866.85	40.28
867.024	15.7
867.197	25.94
867.371	56.66
867.544	11.61
867.718	5.46
867.891	19.8
868.065	46.42
868.238	-0.68
868.412	-12.97
868.585	62.8
868.759	54.61
868.932	60.76
869.105	-6.83
869.279	-15.02
869.452	-2.73
869.625	30.04
869.799	99.67
869.972	-17.07
870.145	48.47
870.319	23.89
870.492	13.65
870.665	-12.97
870.838	27.99
871.011	-15.02
871.185	15.7
871.358	9.56
871.531	15.7
871.704	-19.11
871.877	62.8
872.05	34.13
872.223	40.28
872.396	-0.68
872.569	5.46
872.742	-31.4
872.915	79.19
873.088	11.61
873.261	7.51
873.434	64.85
873.607	71
873.78	40.28
873.953	-43.69
874.126	-21.16
874.299	13.65
874.471	9.56
874.644	13.65
874.817	30.04
874.99	38.23
875.163	-35.5
875.335	25.94
875.508	23.89
875.681	9.56
875.853	17.75
876.026	11.61
876.199	71
876.371	-4.78
876.544	-37.55
876.717	118.1
876.889	-92.84
877.062	-12.97
877.234	30.04
877.407	40.28
877.579	38.23
877.752	40.28
877.924	34.13
878.097	23.89
878.269	-23.21
878.442	30.04
878.614	19.8
878.786	44.37
878.959	52.56
879.131	60.76
879.303	-55.98
879.476	3.41
879.648	-4.78
879.82	17.75
879.993	13.65
880.165	19.8
880.337	50.52
880.509	9.56
880.681	-21.16
880.854	-25.26
881.026	30.04
881.198	122.2
881.37	-19.11
881.542	-8.87
881.714	50.52
881.886	-23.21
882.058	-21.16
882.23	5.46
882.402	109.91
882.574	-19.11
882.746	-25.26
882.918	-8.87
883.09	42.32
883.262	-0.68
883.434	50.52
883.606	-37.55
883.778	-84.65
883.95	-21.16
884.122	17.75
884.293	19.8
884.465	25.94
884.637	-33.45
884.809	-15.02
884.98	73.04
885.152	54.61
885.324	-6.83
885.496	-12.97
885.667	42.32
885.839	50.52
886.011	44.37
886.182	38.23
886.354	-55.98
886.525	9.56
886.697	-47.79
886.869	-6.83
887.04	-10.92
887.212	120.15
887.383	89.43
887.555	-33.45
887.726	-2.73
887.897	-37.55
888.069	-4.78
888.24	32.08
888.412	71
888.583	-12.97
888.754	103.76
888.926	1.37
889.097	-62.12
889.268	27.99
889.44	30.04
889.611	-96.94
889.782	-23.21
889.953	42.32
890.125	30.04
890.296	-31.4
890.467	-29.35
890.638	5.46
890.809	-62.12
890.98	-19.11
891.151	25.94
891.323	68.95
891.494	17.75
891.665	-43.69
891.836	-4.78
892.007	111.96
892.178	79.19
892.349	25.94
892.52	21.85
892.691	46.42
892.862	-27.31
893.032	-19.11
893.203	27.99
893.374	-2.73
893.545	7.51
893.716	-23.21
893.887	-4.78
894.057	58.71
894.228	-23.21
894.399	-64.17
894.57	62.8
894.74	25.94
894.911	27.99
895.082	-4.78
895.253	-23.21
895.423	27.99
895.594	50.52
895.764	3.41
895.935	7.51
896.106	17.75
896.276	-2.73
896.447	-19.11
896.617	-31.4
896.788	-39.59
896.958	42.32
897.129	-47.79
897.299	17.75
897.47	-49.83
897.64	-55.98
897.81	-39.59
897.981	-37.55
898.151	48.47
898.322	17.75
898.492	30.04
898.662	60.76
898.832	-62.12
899.003	-27.31
899.173	-12.97
899.343	1.37
899.513	-25.26
