Data from USB4F104151__162__10-27-14-631.txt Node

Date: Wed Mar 12 10:27:14 EDT 2025
User: louis
Spectrometer: USB4F10415
Trigger mode: 4
Integration Time (sec): 3.000000E-2
Scans to average: 1
Electric dark correction enabled: true
Nonlinearity correction enabled: false
Boxcar width: 0
XAxis mode: Wavelengths
Number of Pixels in Spectrum: 3648
>>>>>Begin Spectral Data<<<<<
178.204	-140.46
178.424	-140.46
178.644	-140.46
178.864	-117.93
179.084	-66.73
179.304	-5.29
179.524	-15.53
179.744	21.33
179.964	64.34
180.184	-23.72
180.404	-25.77
180.624	11.09
180.844	35.67
181.064	-33.96
181.283	-9.39
181.503	-13.48
181.723	-5.29
181.943	-27.82
182.163	-23.72
182.383	113.49
182.602	64.34
182.822	58.2
183.042	47.96
183.262	11.09
183.482	-11.43
183.701	35.67
183.921	-85.16
184.141	-9.39
184.361	21.33
184.58	-17.58
184.8	68.44
185.02	41.81
185.239	17.24
185.459	-9.39
185.679	23.38
185.898	-70.83
186.118	-5.29
186.338	43.86
186.557	7
186.777	23.38
186.997	-17.58
187.216	13.14
187.436	54.1
187.655	2.9
187.875	56.15
188.095	-29.87
188.314	29.52
188.534	43.86
188.753	-50.35
188.973	37.72
189.192	74.58
189.412	-1.19
189.631	-3.24
189.851	9.05
190.07	39.76
190.29	72.53
190.509	64.34
190.729	-42.15
190.948	107.35
191.168	72.53
191.387	95.06
191.607	-50.35
191.826	35.67
192.045	-17.58
192.265	13.14
192.484	37.72
192.704	-85.16
192.923	-58.54
193.142	-17.58
193.362	37.72
193.581	86.87
193.8	9.05
194.02	43.86
194.239	21.33
194.458	11.09
194.678	45.91
194.897	-15.53
195.116	-3.24
195.335	-105.64
195.555	50
195.774	11.09
195.993	23.38
196.212	-42.15
196.432	-33.96
196.651	0.85
196.87	-58.54
197.089	88.92
197.308	11.09
197.528	23.38
197.747	35.67
197.966	-7.34
198.185	33.62
198.404	25.43
198.623	60.24
198.842	11.09
199.062	56.15
199.281	52.05
199.5	-62.63
199.719	27.48
199.938	19.29
200.157	21.33
200.376	9.05
200.595	-25.77
200.814	-27.82
201.033	-11.43
201.252	56.15
201.471	35.67
201.69	39.76
201.909	-42.15
202.128	13.14
202.347	39.76
202.566	35.67
202.785	27.48
203.004	-58.54
203.223	43.86
203.442	-27.82
203.661	-21.67
203.879	-21.67
204.098	0.85
204.317	-19.63
204.536	-29.87
204.755	37.72
204.974	-31.91
205.193	19.29
205.411	15.19
205.63	13.14
205.849	19.29
206.068	4.95
206.287	-3.24
206.505	47.96
206.724	-50.35
206.943	31.57
207.162	-15.53
207.381	-31.91
207.599	35.67
207.818	-5.29
208.037	7
208.255	-1.19
208.474	29.52
208.693	-13.48
208.911	-17.58
209.13	-17.58
209.349	-27.82
209.567	-5.29
209.786	72.53
210.005	35.67
210.223	35.67
210.442	-40.11
210.661	21.33
210.879	0.85
211.098	-19.63
211.316	43.86
211.535	99.16
211.753	-19.63
211.972	23.38
212.191	-36.01
212.409	37.72
212.628	47.96
212.846	-11.43
213.065	-25.77
213.283	-1.19
213.502	-76.97
213.72	35.67
213.938	-1.19
214.157	11.09
214.375	-17.58
214.594	7
214.812	-7.34
215.031	-9.39
215.249	15.19
215.467	43.86
215.686	11.09
215.904	35.67
216.122	-31.91
216.341	72.53
216.559	11.09
216.778	-3.24
216.996	15.19
217.214	68.44
217.432	-40.11
217.651	-11.43
217.869	64.34
218.087	-29.87
218.306	-21.67
218.524	31.57
218.742	29.52
218.96	21.33
219.179	-56.49
219.397	70.48
219.615	35.67
219.833	25.43
220.051	-40.11
220.27	-9.39
220.488	-13.48
220.706	39.76
220.924	15.19
221.142	7
221.36	13.14
221.578	58.2
221.796	68.44
222.015	25.43
222.233	-33.96
222.451	54.1
222.669	9.05
222.887	-7.34
223.105	4.95
223.323	-29.87
223.541	-5.29
223.759	13.14
223.977	-33.96
224.195	52.05
224.413	21.33
224.631	-5.29
224.849	-13.48
225.067	82.77
225.285	45.91
225.503	52.05
225.721	21.33
225.939	11.09
226.157	47.96
226.375	60.24
226.592	0.85
226.81	2.9
227.028	25.43
227.246	58.2
227.464	-13.48
227.682	58.2
227.9	129.88
228.117	-29.87
228.335	25.43
228.553	-13.48
228.771	37.72
228.989	60.24
229.206	7
229.424	-9.39
229.642	-33.96
229.86	15.19
230.077	45.91
230.295	39.76
230.513	43.86
230.731	33.62
230.948	-36.01
231.166	41.81
231.384	-44.2
231.601	-50.35
231.819	25.43
232.037	-21.67
232.254	-11.43
232.472	52.05
232.689	-3.24
232.907	72.53
233.125	-52.39
233.342	-1.19
233.56	15.19
233.777	31.57
233.995	35.67
234.213	15.19
234.43	-40.11
234.648	39.76
234.865	2.9
235.083	15.19
235.3	27.48
235.518	23.38
235.735	19.29
235.953	-1.19
236.17	-31.91
236.388	41.81
236.605	29.52
236.822	23.38
237.04	-5.29
237.257	43.86
237.475	-25.77
237.692	76.63
237.909	-19.63
238.127	-50.35
238.344	37.72
238.562	-13.48
238.779	15.19
238.996	-60.59
239.214	-33.96
239.431	-17.58
239.648	37.72
239.865	47.96
240.083	13.14
240.3	-17.58
240.517	-13.48
240.735	7
240.952	45.91
241.169	21.33
241.386	39.76
241.603	-64.68
241.821	-68.78
242.038	27.48
242.255	39.76
242.472	-27.82
242.689	-19.63
242.907	52.05
243.124	23.38
243.341	33.62
243.558	7
243.775	-85.16
243.992	-44.2
244.209	-13.48
244.426	84.82
244.643	0.85
244.86	-25.77
245.078	-36.01
245.295	-50.35
245.512	-46.25
245.729	-19.63
245.946	-1.19
246.163	23.38
246.38	25.43
246.597	27.48
246.814	-3.24
247.031	-13.48
247.248	62.29
247.464	31.57
247.681	-29.87
247.898	-13.48
248.115	0.85
248.332	-40.11
248.549	33.62
248.766	45.91
248.983	35.67
249.2	-5.29
249.417	-1.19
249.633	21.33
249.85	23.38
250.067	50
250.284	39.76
250.501	39.76
250.717	-5.29
250.934	-91.31
251.151	21.33
251.368	-31.91
251.585	25.43
251.801	7
252.018	23.38
252.235	15.19
252.451	82.77
252.668	-9.39
252.885	-9.39
253.102	27.48
253.318	7
253.535	-38.06
253.752	-19.63
253.968	-46.25
254.185	15.19
254.401	-62.63
254.618	7
254.835	54.1
255.051	41.81
255.268	4.95
255.484	45.91
255.701	7
255.917	0.85
256.134	-42.15
256.351	13.14
256.567	-36.01
256.784	-17.58
257	-42.15
257.217	9.05
257.433	-5.29
257.65	0.85
257.866	15.19
258.082	2.9
258.299	9.05
258.515	19.29
258.732	2.9
258.948	-5.29
259.165	29.52
259.381	23.38
259.597	21.33
259.814	27.48
260.03	-3.24
260.246	35.67
260.463	43.86
260.679	47.96
260.895	58.2
261.112	47.96
261.328	-1.19
261.544	21.33
261.761	23.38
261.977	25.43
262.193	-3.24
262.409	21.33
262.626	39.76
262.842	72.53
263.058	23.38
263.274	17.24
263.49	-62.63
263.707	25.43
263.923	33.62
264.139	-38.06
264.355	-13.48
264.571	-15.53
264.787	15.19
265.004	27.48
265.22	11.09
265.436	64.34
265.652	-42.15
265.868	21.33
266.084	-19.63
266.3	-1.19
266.516	-101.55
266.732	31.57
266.948	52.05
267.164	31.57
267.38	80.72
267.596	43.86
267.812	31.57
268.028	19.29
268.244	-36.01
268.46	31.57
268.676	66.39
268.892	21.33
269.108	66.39
269.324	43.86
269.54	35.67
269.756	54.1
269.972	4.95
270.188	-1.19
270.403	13.14
270.619	43.86
270.835	41.81
271.051	-33.96
271.267	33.62
271.483	-11.43
271.698	80.72
271.914	-9.39
272.13	-36.01
272.346	47.96
272.562	-21.67
272.777	52.05
272.993	-9.39
273.209	52.05
273.425	-42.15
273.64	15.19
273.856	-1.19
274.072	-74.92
274.287	2.9
274.503	31.57
274.719	-33.96
274.934	-38.06
275.15	-85.16
275.366	70.48
275.581	-3.24
275.797	74.58
276.012	13.14
276.228	-3.24
276.444	47.96
276.659	15.19
276.875	7
277.09	33.62
277.306	-17.58
277.521	58.2
277.737	-27.82
277.952	74.58
278.168	-5.29
278.383	-5.29
278.599	-29.87
278.814	-25.77
279.03	25.43
279.245	17.24
279.461	54.1
279.676	15.19
279.892	2.9
280.107	-19.63
280.322	64.34
280.538	17.24
280.753	-42.15
280.969	2.9
281.184	54.1
281.399	62.29
281.615	45.91
281.83	-36.01
282.045	35.67
282.26	-11.43
282.476	-33.96
282.691	27.48
282.906	-1.19
283.122	21.33
283.337	-54.44
283.552	62.29
283.767	11.09
283.983	60.24
284.198	47.96
284.413	-9.39
284.628	-46.25
284.843	-29.87
285.058	52.05
285.274	-7.34
285.489	-79.02
285.704	27.48
285.919	43.86
286.134	-1.19
286.349	7
286.564	-1.19
286.779	90.96
286.995	-50.35
287.21	-19.63
287.425	-87.21
287.64	9.05
287.855	-3.24
288.07	37.72
288.285	23.38
288.5	72.53
288.715	29.52
288.93	43.86
289.145	19.29
289.36	52.05
289.575	-17.58
289.79	58.2
290.004	-36.01
290.219	13.14
290.434	31.57
290.649	-1.19
290.864	31.57
291.079	-3.24
291.294	-19.63
291.509	27.48
291.724	86.87
291.938	62.29
292.153	-52.39
292.368	-58.54
292.583	52.05
292.798	-21.67
293.012	64.34
293.227	-25.77
293.442	-25.77
293.657	35.67
293.871	-29.87
294.086	-44.2
294.301	31.57
294.516	37.72
294.73	2.9
294.945	-13.48
295.16	35.67
295.374	101.2
295.589	-27.82
295.804	-31.91
296.018	-5.29
296.233	35.67
296.447	19.29
296.662	-38.06
296.877	-9.39
297.091	-23.72
297.306	25.43
297.52	-17.58
297.735	-9.39
297.949	-70.83
298.164	-21.67
298.378	-42.15
298.593	43.86
298.807	-25.77
299.022	-17.58
299.236	-17.58
299.451	-33.96
299.665	47.96
299.88	-27.82
300.094	-9.39
300.309	-38.06
300.523	-21.67
300.737	33.62
300.952	-60.59
301.166	43.86
301.381	41.81
301.595	72.53
301.809	17.24
302.024	-1.19
302.238	54.1
302.452	37.72
302.667	-13.48
302.881	72.53
303.095	13.14
303.309	37.72
303.524	-1.19
303.738	39.76
303.952	-9.39
304.166	29.52
304.381	-46.25
304.595	58.2
304.809	43.86
305.023	-17.58
305.237	37.72
305.452	2.9
305.666	50
305.88	-33.96
306.094	90.96
306.308	68.44
306.522	-11.43
306.736	15.19
306.95	60.24
307.164	82.77
307.379	2.9
307.593	76.63
307.807	66.39
308.021	0.85
308.235	13.14
308.449	-40.11
308.663	56.15
308.877	78.68
309.091	-87.21
309.305	-36.01
309.519	-21.67
309.733	60.24
309.947	37.72
310.161	35.67
310.374	-7.34
310.588	11.09
310.802	-74.92
311.016	35.67
311.23	60.24
311.444	17.24
311.658	-21.67
311.872	33.62
312.085	11.09
312.299	43.86
312.513	21.33
312.727	-54.44
312.941	-27.82
313.154	37.72
313.368	31.57
313.582	11.09
313.796	47.96
314.009	-36.01
314.223	52.05
314.437	37.72
314.651	-19.63
314.864	9.05
315.078	9.05
315.292	-21.67
315.505	-56.49
315.719	-27.82
315.933	45.91
316.146	58.2
316.36	-62.63
316.573	29.52
316.787	66.39
317.001	-11.43
317.214	4.95
317.428	7
317.641	41.81
317.855	-17.58
318.068	47.96
318.282	52.05
318.495	29.52
318.709	76.63
318.922	-36.01
319.136	-17.58
319.349	47.96
319.563	-36.01
319.776	15.19
319.99	-50.35
320.203	-9.39
320.417	68.44
320.63	-19.63
320.843	95.06
321.057	19.29
321.27	74.58
321.483	39.76
321.697	99.16
321.91	-17.58
322.124	-21.67
322.337	-42.15
322.55	35.67
322.763	109.4
322.977	33.62
323.19	37.72
323.403	-25.77
323.617	-3.24
323.83	7
324.043	-27.82
324.256	31.57
324.469	17.24
324.683	35.67
324.896	-83.11
325.109	15.19
325.322	-50.35
325.535	31.57
325.748	52.05
325.962	-17.58
326.175	-21.67
326.388	74.58
326.601	23.38
326.814	27.48
327.027	4.95
327.24	74.58
327.453	-7.34
327.666	72.53
327.879	56.15
328.092	-17.58
328.305	7
328.518	21.33
328.731	15.19
328.944	15.19
329.157	-11.43
329.37	80.72
329.583	41.81
329.796	-13.48
330.009	-40.11
330.222	17.24
330.435	4.95
330.648	23.38
330.861	39.76
331.073	35.67
331.286	54.1
331.499	76.63
331.712	-23.72
331.925	56.15
332.138	39.76
332.35	62.29
332.563	35.67
332.776	76.63
332.989	29.52
333.202	17.24
333.414	54.1
333.627	2.9
333.84	-15.53
334.053	58.2
334.265	-7.34
334.478	17.24
334.691	31.57
334.903	47.96
335.116	9.05
335.329	39.76
335.541	74.58
335.754	54.1
335.966	-25.77
336.179	58.2
336.392	7
336.604	52.05
336.817	29.52
337.029	70.48
337.242	68.44
337.454	56.15
337.667	31.57
337.88	39.76
338.092	-17.58
338.305	21.33
338.517	4.95
338.729	-52.39
338.942	13.14
339.154	-19.63
339.367	-29.87
339.579	29.52
339.792	-25.77
340.004	31.57
340.217	-27.82
340.429	27.48
340.641	11.09
340.854	-42.15
341.066	-1.19
341.278	23.38
341.491	31.57
341.703	9.05
341.915	2.9
342.128	-60.59
342.34	-13.48
342.552	-29.87
342.764	11.09
342.977	-27.82
343.189	56.15
343.401	15.19
343.613	37.72
343.826	-13.48
344.038	-66.73
344.25	27.48
344.462	15.19
344.674	15.19
344.886	39.76
345.099	72.53
345.311	-17.58
345.523	-33.96
345.735	-56.49
345.947	15.19
346.159	35.67
346.371	0.85
346.583	9.05
346.795	50
347.007	15.19
347.219	-15.53
347.431	52.05
347.643	-5.29
347.855	-15.53
348.067	39.76
348.279	-31.91
348.491	-1.19
348.703	62.29
348.915	19.29
349.127	7
349.339	-50.35
349.551	-31.91
349.763	29.52
349.975	-50.35
350.187	2.9
350.399	-1.19
350.61	25.43
350.822	54.1
351.034	35.67
351.246	86.87
351.458	0.85
351.669	27.48
351.881	84.82
352.093	45.91
352.305	76.63
352.517	-17.58
352.728	60.24
352.94	-31.91
353.152	35.67
353.363	-40.11
353.575	64.34
353.787	62.29
353.999	43.86
354.21	2.9
354.422	-23.72
354.633	-17.58
354.845	-19.63
355.057	-62.63
355.268	-42.15
355.48	31.57
355.692	-60.59
355.903	41.81
356.115	-25.77
356.326	-13.48
356.538	58.2
356.749	-7.34
356.961	76.63
357.172	2.9
357.384	-38.06
357.595	13.14
357.807	47.96
358.018	-58.54
358.23	-42.15
358.441	68.44
358.653	4.95
358.864	-25.77
359.075	105.3
359.287	0.85
359.498	60.24
359.709	-66.73
359.921	-66.73
360.132	27.48
360.344	82.77
360.555	-21.67
360.766	37.72
360.977	9.05
361.189	64.34
361.4	-58.54
361.611	27.48
361.823	80.72
362.034	52.05
362.245	-21.67
362.456	-31.91
362.667	47.96
362.879	60.24
363.09	-31.91
363.301	21.33
363.512	-13.48
363.723	-23.72
363.935	56.15
364.146	25.43
364.357	13.14
364.568	64.34
364.779	37.72
364.99	84.82
365.201	-31.91
365.412	82.77
365.623	13.14
365.834	35.67
366.045	-5.29
366.256	13.14
366.467	-42.15
366.678	109.4
366.889	54.1
367.1	64.34
367.311	80.72
367.522	-7.34
367.733	52.05
367.944	60.24
368.155	-17.58
368.366	41.81
368.577	54.1
368.788	39.76
368.999	-31.91
369.209	-13.48
369.42	60.24
369.631	90.96
369.842	-31.91
370.053	31.57
370.264	29.52
370.474	0.85
370.685	13.14
370.896	4.95
371.107	-1.19
371.317	11.09
371.528	-21.67
371.739	58.2
371.95	47.96
372.16	19.29
372.371	-33.96
372.582	-1.19
372.792	-7.34
373.003	72.53
373.214	-13.48
373.424	72.53
373.635	19.29
373.846	19.29
374.056	-27.82
374.267	13.14
374.477	-9.39
374.688	43.86
374.898	47.96
375.109	62.29
375.319	4.95
375.53	27.48
375.74	-52.39
375.951	86.87
376.161	31.57
376.372	47.96
376.582	7
376.793	-13.48
377.003	78.68
377.214	27.48
377.424	29.52
377.635	13.14
377.845	-17.58
378.055	-25.77
378.266	-25.77
378.476	50
378.686	35.67
378.897	29.52
379.107	-3.24
379.317	99.16
379.528	-15.53
379.738	82.77
379.948	-23.72
380.158	45.91
380.369	-19.63
380.579	-40.11
380.789	23.38
380.999	-42.15
381.21	7
381.42	78.68
381.63	31.57
381.84	43.86
382.05	52.05
382.261	35.67
382.471	56.15
382.681	35.67
382.891	66.39
383.101	45.91
383.311	-44.2
383.521	19.29
383.731	56.15
383.941	-13.48
384.151	-58.54
384.361	68.44
384.571	17.24
384.781	37.72
384.991	15.19
385.201	35.67
385.411	29.52
385.621	152.4
385.831	78.68
386.041	25.43
386.251	43.86
386.461	0.85
386.671	21.33
386.881	25.43
387.091	78.68
387.301	2.9
387.511	21.33
387.72	35.67
387.93	-42.15
388.14	11.09
388.35	54.1
388.56	162.64
388.769	103.25
388.979	43.86
389.189	-25.77
389.399	-56.49
389.609	41.81
389.818	15.19
390.028	-36.01
390.238	11.09
390.447	19.29
390.657	62.29
390.867	47.96
391.076	23.38
391.286	-1.19
391.496	33.62
391.705	-29.87
391.915	15.19
392.125	58.2
392.334	60.24
392.544	-19.63
392.753	31.57
392.963	95.06
393.172	72.53
393.382	33.62
393.591	58.2
393.801	27.48
394.01	56.15
394.22	68.44
394.429	37.72
394.639	47.96
394.848	47.96
395.058	101.2
395.267	64.34
395.477	41.81
395.686	93.01
395.895	78.68
396.105	11.09
396.314	99.16
396.524	66.39
396.733	52.05
396.942	131.92
397.152	93.01
397.361	43.86
397.57	-1.19
397.78	70.48
397.989	64.34
398.198	140.12
398.407	23.38
398.617	23.38
398.826	45.91
399.035	88.92
399.244	31.57
399.453	99.16
399.663	35.67
399.872	37.72
400.081	4.95
400.29	105.3
400.499	95.06
400.708	103.25
400.917	13.14
401.127	144.21
401.336	72.53
401.545	150.36
401.754	47.96
401.963	179.03
402.172	117.59
402.381	56.15
402.59	97.11
402.799	64.34
403.008	99.16
403.217	109.4
403.426	109.4
403.635	50
403.844	64.34
404.053	105.3
404.262	154.45
404.471	123.73
404.68	123.73
404.888	103.25
405.097	144.21
405.306	133.97
405.515	72.53
405.724	119.64
405.933	160.59
406.142	160.59
406.35	154.45
406.559	154.45
406.768	146.26
406.977	187.22
407.185	138.07
407.394	172.88
407.603	156.5
407.812	189.27
408.02	191.31
408.229	191.31
408.438	146.26
408.646	127.83
408.855	183.12
409.064	242.51
409.272	242.51
409.481	262.99
409.69	256.85
409.898	148.31
410.107	166.74
410.315	226.13
410.524	226.13
410.733	318.29
410.941	269.14
411.15	310.1
411.358	324.43
411.567	418.64
411.775	328.53
411.984	332.62
412.192	473.93
412.401	375.63
412.609	414.54
412.818	432.97
413.026	412.5
413.234	344.91
413.443	439.12
413.651	424.78
413.86	506.7
414.068	504.65
414.276	633.68
414.485	498.51
414.693	551.76
414.901	566.09
415.11	586.57
415.318	637.77
415.526	676.68
415.734	668.49
415.943	656.2
416.151	729.93
416.359	645.96
416.567	645.96
416.776	711.5
416.984	869.19
417.192	891.72
417.4	842.57
417.608	813.9
417.817	930.63
418.025	957.25
418.233	1028.93
418.441	996.17
418.649	928.58
418.857	1002.31
419.065	1063.75
419.273	1094.47
419.481	1241.92
419.689	1250.11
419.897	1260.35
420.105	1321.79
420.313	1282.88
420.521	1432.38
420.729	1327.94
420.937	1467.2
421.145	1506.11
421.353	1534.78
421.561	1719.1
421.769	1669.95
421.977	1790.78
422.185	1678.14
422.393	1760.06
422.601	2077.49
422.809	1997.62
423.017	1968.95
423.224	2011.96
423.432	2227
423.64	2181.94
423.848	2460.46
424.056	2353.97
424.263	2554.67
424.471	2493.23
424.679	2450.22
424.887	2675.5
425.094	2755.37
425.302	2718.51
425.51	2837.29
425.718	3046.18
425.925	3040.04
426.133	2994.98
426.341	3267.36
426.548	3365.67
426.756	3300.13
426.964	3543.84
427.171	3545.89
427.379	3785.5
427.586	3758.88
427.794	4000.54
428.001	4184.85
428.209	4152.09
428.417	4240.15
428.624	4500.24
428.832	4524.82
429.039	4524.82
429.247	4487.95
429.454	4885.26
429.662	5278.47
429.869	4942.6
430.076	5194.5
430.284	5098.25
430.491	5405.44
430.699	5520.13
430.906	5483.27
431.114	5681.92
431.321	5927.67
431.528	6005.5
431.736	6445.81
431.943	6599.41
432.15	6505.2
432.358	6673.14
432.565	6843.12
432.772	6945.52
432.979	7187.18
433.187	7330.53
433.394	7461.6
433.601	7885.53
433.808	7760.61
434.016	7969.5
434.223	8157.91
434.43	8544.98
434.637	8504.02
434.844	9077.45
435.052	9302.73
435.259	8843.98
435.466	9089.74
435.673	9132.75
435.88	9691.84
436.087	10410.68
436.294	10207.93
436.501	10007.23
436.708	10042.04
436.915	10654.39
437.122	11055.79
437.329	10924.72
437.537	11139.76
437.743	11575.97
437.95	11379.37
438.157	12315.29
438.364	12442.26
438.571	12399.26
438.778	12434.07
438.985	13589.13
439.192	13142.67
439.399	13634.18
439.606	13263.5
439.813	13916.8
440.02	14817.91
440.227	14424.7
440.433	14379.64
440.64	14754.42
440.847	14805.62
441.054	15022.7
441.261	16018.02
441.467	16083.55
441.674	16382.56
441.881	16964.18
442.088	16591.45
442.294	16558.68
442.501	17054.29
442.708	17445.45
442.914	18149.95
443.121	18827.83
443.328	18485.82
443.534	19884.58
443.741	18883.13
443.948	18676.28
444.154	20304.42
444.361	20245.02
444.568	20156.96
444.774	20101.67
444.981	20691.48
445.187	20873.75
445.394	21725.71
445.6	21371.41
445.807	23806.44
446.013	22307.33
446.22	23020.02
446.426	24054.25
446.633	24148.45
446.839	25010.65
447.046	23828.97
447.252	24971.74
447.459	25215.44
447.665	25047.51
447.871	26415.55
448.078	27138.49
448.284	26175.94
448.491	26685.89
448.697	27767.21
448.903	28107.18
449.11	28277.16
449.316	27681.2
449.522	28117.42
449.728	28926.36
449.935	29172.12
450.141	28926.36
450.347	29651.34
450.553	28674.46
450.76	29168.02
450.966	29661.58
451.172	29747.6
451.378	30413.19
451.584	29704.59
451.791	30480.77
451.997	30478.72
452.203	30714.24
452.409	30787.97
452.615	30450.05
452.821	29563.28
453.027	29251.99
453.233	30652.8
453.44	29278.61
453.646	29637.01
453.852	29864.33
454.058	30415.24
454.264	29202.84
454.47	30050.7
454.676	29362.58
454.882	30216.58
455.088	27453.87
455.294	27632.05
455.5	28244.39
455.705	28740
455.911	27167.16
456.117	26970.55
456.323	26438.08
456.529	25070.04
456.735	26280.39
456.941	25303.51
457.147	25139.67
457.352	23984.62
457.558	23804.39
457.764	23914.98
457.97	23687.66
458.176	22557.18
458.381	22929.91
458.587	21924.36
458.793	21924.36
458.999	20685.34
459.204	21801.48
459.41	21477.9
459.616	19919.4
459.821	20163.11
460.027	20257.31
460.233	19763.75
460.438	18725.43
460.644	18891.32
460.85	18233.92
461.055	17721.93
461.261	17713.74
461.466	16374.36
461.672	16126.56
461.878	17119.82
462.083	16015.97
462.289	15813.22
462.494	15370.86
462.7	14676.6
462.905	14539.38
463.111	14838.39
463.316	14930.55
463.522	14469.75
463.727	14789.24
463.932	14428.79
464.138	14658.17
464.343	14545.53
464.549	14072.45
464.754	14469.75
464.959	14566.01
465.165	14299.77
465.37	13894.27
465.575	13466.25
465.781	13949.57
465.986	13980.29
466.191	13539.97
466.397	13449.86
466.602	12518.04
466.807	12966.54
467.012	13333.13
467.218	13146.76
467.423	12935.82
467.628	13015.69
467.833	13415.05
468.038	12921.49
468.244	12511.89
468.449	12835.47
468.654	12602.01
468.859	12575.38
469.064	12702.36
469.269	12151.45
469.474	11997.85
469.679	12120.73
469.885	11928.22
470.09	12102.3
470.295	12221.08
470.5	11653.8
470.705	11920.03
470.91	11580.07
471.115	11416.23
471.32	11553.45
471.525	11704.99
471.73	11299.5
471.935	11365.03
472.139	10869.42
472.344	10922.67
472.549	10930.86
472.754	10977.97
472.959	10435.25
473.164	10523.32
473.369	10083
473.574	10685.11
473.778	10111.68
473.983	10339
474.188	10236.6
474.393	9958.08
474.598	9908.93
474.802	9745.09
475.007	9700.03
475.212	9626.31
475.417	9521.86
475.621	9333.45
475.826	9349.83
476.031	9339.59
476.235	9081.55
476.44	9304.78
476.645	9065.16
476.849	9061.07
477.054	8919.76
477.259	8886.99
477.463	8864.46
477.668	8569.55
477.872	8815.31
478.077	8616.66
478.282	8288.98
478.486	8239.83
478.691	8368.85
478.895	8276.7
479.1	8108.76
479.304	8213.21
479.509	7930.59
479.713	8131.29
479.918	7926.49
480.122	7908.06
480.326	7957.21
480.531	7961.31
480.735	7666.4
480.94	7959.26
481.144	8141.53
481.348	7736.03
481.553	7811.81
481.757	7492.32
481.961	7600.87
482.166	7797.47
482.37	7740.13
482.574	7527.14
482.778	7500.51
482.983	7953.12
483.187	7682.78
483.391	7559.91
483.595	7523.04
483.8	7463.65
484.004	7746.27
484.208	7629.54
484.412	7658.21
484.616	7842.53
484.821	7568.1
485.025	7801.57
485.229	7623.39
485.433	7631.58
485.637	7760.61
485.841	7676.64
486.045	7512.8
486.249	7744.22
486.453	7568.1
486.657	7613.15
486.861	7647.97
487.065	7416.55
487.269	7656.16
487.473	7332.58
487.677	7645.92
487.881	7799.52
488.085	7545.57
488.289	7717.6
488.493	7523.04
488.697	7742.18
488.901	7629.54
489.105	7807.71
489.309	7774.94
489.512	7652.06
489.716	7584.48
489.92	7647.97
490.124	7480.04
490.328	7844.57
490.531	7707.36
490.735	7836.38
490.939	7875.29
491.143	7684.83
491.346	7854.81
491.55	7842.53
491.754	7748.32
491.958	8075.99
492.161	8088.28
492.365	8032.99
492.569	8057.56
492.772	8172.25
492.976	8116.95
493.18	8141.53
493.383	8205.02
493.587	8452.82
493.79	8473.3
493.994	8190.68
494.197	8407.77
494.401	8559.31
494.605	8301.27
494.808	8536.79
495.012	8698.58
495.215	8618.71
495.419	8712.91
495.622	8782.54
495.825	9089.74
496.029	9044.68
496.232	9198.28
496.436	9198.28
496.639	9433.8
496.843	9290.44
497.046	9405.13
497.249	9515.72
497.453	9669.31
497.656	9714.37
497.859	9845.44
498.063	9886.4
498.266	9861.82
498.469	9986.75
498.673	10070.72
498.876	10281.66
499.079	10492.6
499.282	10474.17
499.485	10631.86
499.689	10556.08
499.892	10916.53
500.095	10820.27
500.298	11262.63
500.501	10943.15
500.705	11520.68
500.908	11410.09
501.111	11528.87
501.314	11696.8
501.517	11811.49
501.72	11930.27
501.923	11954.85
502.126	12161.69
502.329	12505.75
502.532	12563.09
502.735	12511.89
502.938	12946.06
503.141	12964.5
503.344	13322.89
503.547	13054.61
503.75	13314.7
503.953	13511.3
504.156	13601.41
504.359	13556.36
504.562	13898.37
504.765	14058.11
504.968	14113.41
505.17	14195.32
505.373	14383.74
505.576	14695.03
505.779	14621.3
505.982	15071.86
506.185	15331.95
506.387	15290.99
506.59	15010.42
506.793	15751.78
506.996	15614.57
507.198	16001.63
507.401	15731.3
507.604	16190.05
507.807	16128.61
508.009	16472.67
508.212	16573.02
508.415	16894.55
508.617	17089.1
508.82	16949.84
509.022	17236.56
509.225	17396.3
509.428	17605.19
509.63	17693.26
509.833	17730.12
510.035	18354.75
510.238	18481.72
510.44	18494.01
510.643	18577.98
510.845	19053.11
511.048	18965.04
511.25	19401.26
511.453	19204.66
511.655	20455.97
511.858	19649.07
512.06	19946.02
512.262	20288.03
512.465	20355.61
512.667	20515.36
512.87	20847.13
513.072	20892.18
513.274	21424.65
513.477	21479.95
513.679	21584.4
513.881	21811.72
514.084	22075.91
514.286	22155.78
514.488	22305.28
514.69	22974.97
514.893	22917.62
515.095	23122.42
515.297	23366.13
515.499	23480.82
515.701	23906.79
515.904	23796.2
516.106	24383.97
516.308	23986.66
516.51	24873.43
516.712	24699.36
516.914	24981.98
517.116	25422.29
517.318	25371.09
517.52	25403.86
517.722	25743.82
517.925	26112.45
518.127	26548.67
518.329	26362.31
518.531	26474.95
518.733	27021.75
518.935	27185.59
519.136	27441.59
519.338	28043.69
519.54	27785.65
519.742	28209.57
519.944	28297.64
520.146	28803.49
520.348	28774.81
520.55	29094.3
520.752	28938.65
520.954	29550.99
521.155	29383.06
521.357	30108.04
521.559	30368.13
521.761	30697.86
521.963	30704
522.164	30591.36
522.366	30996.86
522.568	31191.42
522.77	31670.64
522.971	31949.17
523.173	31816.05
523.375	31883.63
523.576	31893.87
523.778	32088.43
523.98	32948.57
524.181	32510.31
524.383	33003.87
524.584	32856.42
524.786	33067.36
524.988	33165.66
525.189	34044.24
525.391	34160.97
525.592	34165.07
525.794	34294.09
525.995	34210.12
526.197	34246.99
526.398	34488.65
526.6	34849.09
526.801	34691.4
527.003	34859.33
527.204	34957.63
527.406	35383.61
527.607	35053.89
527.808	35649.85
528.01	35127.61
528.211	35316.03
528.412	36239.66
528.614	36251.95
528.815	36139.31
529.016	36471.08
529.218	36430.12
529.419	36403.5
529.62	36344.11
529.822	36301.1
530.023	36501.8
530.224	36929.83
530.425	36667.69
530.626	36174.13
530.828	36397.35
531.029	37224.73
531.23	36602.15
531.431	36831.52
531.632	36618.53
531.833	37142.81
532.035	36872.48
532.236	37468.44
532.437	37388.57
532.638	36962.59
532.839	37368.09
533.04	37650.71
533.241	36733.22
533.442	37949.71
533.643	37728.53
533.844	37419.29
534.045	37652.76
534.246	37372.19
534.447	37548.31
534.648	37540.12
534.849	37873.94
535.05	37239.07
535.251	37450.01
535.451	37671.19
535.652	37572.89
535.853	37597.46
536.054	37789.97
536.255	37933.33
536.456	37386.52
536.657	38304.01
536.857	37574.94
537.058	37708.05
537.259	38029.59
537.46	38220.05
537.66	37947.67
537.861	37929.23
538.062	37708.05
538.263	37882.13
538.463	37394.71
538.664	37912.85
538.865	37800.21
539.065	37777.68
539.266	37638.42
539.466	37980.43
539.667	37585.18
539.868	37880.08
540.068	37738.77
540.269	37857.56
540.469	37970.19
540.67	37763.35
540.87	37622.04
541.071	37732.63
541.271	38136.08
541.472	37792.02
541.672	37407
541.873	37251.36
542.073	37488.92
542.274	38244.62
542.474	37830.93
542.675	37331.23
542.875	38084.88
543.075	37775.64
543.276	37411.1
543.476	38041.87
543.676	37269.79
543.877	37548.31
544.077	37568.79
544.277	37497.11
544.478	37667.09
544.678	37828.88
544.878	37560.6
545.078	37615.9
545.279	37325.08
545.479	37665.05
545.679	37347.61
545.879	37527.83
546.079	37906.71
546.28	37101.86
546.48	36917.54
546.68	37646.61
546.88	37679.38
547.08	37601.56
547.28	37058.85
547.48	37419.29
547.68	37366.04
547.88	37527.83
548.081	37746.97
548.281	37863.7
548.481	37312.8
548.681	37554.46
548.881	37488.92
549.081	37611.8
549.28	37194.01
549.48	37701.91
549.68	37261.6
549.88	37585.18
550.08	37239.07
550.28	37259.55
550.48	37126.43
550.68	37464.35
550.88	37134.62
551.08	37343.52
551.279	37439.77
551.479	36972.83
551.679	37216.54
551.879	36909.35
552.079	37599.51
552.278	36956.45
552.478	37138.72
552.678	36800.8
552.878	37445.91
553.077	37390.62
553.277	37005.6
553.477	37454.11
553.676	37167.39
553.876	37222.69
554.076	36985.12
554.275	36880.67
554.475	36307.24
554.674	36888.87
554.874	37077.28
555.074	36852
555.273	37325.08
555.473	37169.44
555.672	36735.27
555.872	37120.29
556.071	36888.87
556.271	36954.4
556.47	36735.27
556.67	36331.82
556.869	36610.34
557.068	36518.18
557.268	36360.49
557.467	36116.78
557.667	36548.9
557.866	36258.09
558.065	36221.23
558.265	36294.96
558.464	35866.93
558.663	36557.1
558.863	35742
559.062	36393.26
559.261	35651.89
559.461	36251.95
559.66	35817.78
559.859	35651.89
560.058	35332.41
560.258	35731.76
560.457	35381.56
560.656	35705.14
560.855	35258.68
561.054	35717.43
561.253	35164.48
561.453	35866.93
561.652	35381.56
561.851	35461.43
562.05	35354.94
562.249	34888
562.448	35328.31
562.647	35361.08
562.846	34984.26
563.045	34984.26
563.244	34548.04
563.443	35563.83
563.642	34310.47
563.841	34777.41
564.04	34513.22
564.239	34982.21
564.438	34058.57
564.637	34279.75
564.836	34664.77
565.035	34218.32
565.234	34273.61
565.432	34160.97
565.631	34195.79
565.83	33984.85
566.029	33503.57
566.228	34214.22
566.427	33857.87
566.625	33538.39
566.824	33358.17
567.023	33462.61
567.222	32782.69
567.42	33349.98
567.619	33415.51
567.818	33210.71
568.016	32747.87
568.215	33374.55
568.414	32905.57
568.612	33132.89
568.811	32467.3
569.01	32852.32
569.208	32604.52
569.407	32979.29
569.605	32039.28
569.804	32444.77
570.002	32084.33
570.201	32522.6
570.4	32020.84
570.598	32098.67
570.797	31779.18
570.995	32014.7
571.193	31256.95
571.392	31840.62
571.59	31426.93
571.789	31570.29
571.987	31521.14
572.186	31523.19
572.384	31117.69
572.582	31539.57
572.781	31238.52
572.979	30914.94
573.177	31060.35
573.376	31162.75
573.574	30945.66
573.772	31095.16
573.971	30695.81
574.169	30654.85
574.367	30402.95
574.565	30773.63
574.763	30073.23
574.962	30333.32
575.16	30003.6
575.358	29933.96
575.556	29944.2
575.754	29864.33
575.952	29704.59
576.151	30159.24
576.349	29606.29
576.547	29905.29
576.745	29856.14
576.943	29596.05
577.141	29303.19
577.339	29534.61
577.537	29346.2
577.735	29540.75
577.933	29174.17
578.131	29084.06
578.329	28735.9
578.527	28883.36
578.725	29065.63
578.923	28832.16
579.121	28680.61
579.319	28502.43
579.516	28461.48
579.714	28529.06
579.912	28510.63
580.11	28481.95
580.308	28256.68
580.506	28285.35
580.704	27806.13
580.901	28332.45
581.099	28228.01
581.297	27804.08
581.495	27898.28
581.692	28076.46
581.89	27521.46
582.088	27933.1
582.285	27679.15
582.483	27980.2
582.681	27523.51
582.878	27263.41
583.076	27240.89
583.274	27519.41
583.471	27273.65
583.669	27210.17
583.866	27122.1
584.064	27451.83
584.262	26741.18
584.459	27118.01
584.657	26943.93
584.854	26823.1
585.052	26210.76
585.249	26380.74
585.447	26646.97
585.644	26532.29
585.841	26309.06
586.039	26628.54
586.236	26102.22
586.434	25999.82
586.631	25627.09
586.828	25823.69
587.026	26069.45
587.223	25950.67
587.42	25522.64
587.618	25534.93
587.815	25389.52
588.012	25240.02
588.21	25213.4
588.407	25532.88
588.604	25428.43
588.801	24994.26
588.999	25082.33
589.196	25252.31
589.393	25133.53
589.59	24859.1
589.787	24775.13
589.984	24852.95
590.182	24592.86
590.379	24971.74
590.576	24543.71
590.773	24629.73
590.97	24361.44
591.167	24771.04
591.364	24140.26
591.561	24656.35
591.758	24232.42
591.955	24011.24
592.152	24498.66
592.349	24105.45
592.546	23904.74
592.743	24050.15
592.94	23798.25
593.137	23679.47
593.334	23736.81
593.531	23478.77
593.727	23867.88
593.924	23609.84
594.121	23216.63
594.318	23470.58
594.515	23128.56
594.712	23511.53
594.908	22938.1
595.105	22974.97
595.302	22862.33
595.499	23030.26
595.696	22944.25
595.892	22764.03
596.089	22915.58
596.286	22602.24
596.482	22518.27
596.679	22336
596.876	22520.32
597.072	22350.34
597.269	22684.16
597.466	22362.62
597.662	21957.13
597.859	22157.83
598.055	22356.48
598.252	22116.87
598.448	21922.31
598.645	21850.63
598.841	21660.17
599.038	21770.76
599.234	22024.71
599.431	21623.31
599.627	21633.55
599.824	21961.22
600.02	21281.3
600.217	21545.48
600.413	21359.12
600.609	21305.87
600.806	20980.25
601.002	21236.24
601.198	20865.56
601.395	21033.49
601.591	21166.61
601.787	21148.18
601.984	20957.72
602.18	21119.51
602.376	20578.84
602.572	20986.39
602.769	20714.01
602.965	20492.83
603.161	20744.73
603.357	20345.37
603.553	20513.31
603.75	20363.81
603.946	19950.12
604.142	20406.81
604.338	20185.63
604.534	20195.87
604.73	19745.32
604.926	19806.76
605.122	19999.27
605.318	20054.56
605.514	19823.14
605.71	19767.85
605.906	19767.85
606.102	19587.63
606.298	19335.73
606.494	19712.55
606.69	19446.32
606.886	19599.91
607.082	18989.62
607.278	19403.31
607.474	19225.14
607.67	19509.8
607.866	18833.97
608.062	19243.57
608.257	18922.04
608.453	19259.95
608.649	19184.18
608.845	19171.89
609.041	18946.61
609.236	19044.91
609.432	18731.58
609.628	18942.52
609.824	18850.36
610.019	18770.49
610.215	18889.27
610.411	18809.4
610.606	18563.64
610.802	18657.85
610.998	18842.17
611.193	18414.14
611.389	18532.92
611.584	18567.74
611.78	18190.91
611.976	18268.73
612.171	18346.56
612.367	18307.65
612.562	18244.16
612.758	18231.87
612.953	18108.99
613.149	18037.31
613.344	17838.66
613.539	18405.95
613.735	18053.7
613.93	18092.61
614.126	17697.35
614.321	17971.78
614.517	18043.46
614.712	17721.93
614.907	17920.58
615.103	18162.24
615.298	17558.09
615.493	17953.35
615.688	17836.61
615.884	17975.88
616.079	17607.24
616.274	17590.86
616.47	17660.49
616.665	17594.95
616.86	17427.02
617.055	17566.28
617.25	17457.74
617.445	17355.34
617.641	17074.77
617.836	17160.78
618.031	17234.51
618.226	17457.74
618.421	17009.23
618.616	17156.69
618.811	16929.36
619.006	17195.6
619.201	16855.64
619.396	16990.8
619.591	16613.98
619.786	16990.8
619.981	16509.53
620.176	16620.12
620.371	16216.67
620.566	16697.94
620.761	16484.95
620.956	16243.29
621.151	16030.3
621.346	16355.93
621.541	15921.76
621.735	16169.57
621.93	15854.18
622.125	16159.33
622.32	15571.56
622.515	15888.99
622.709	15520.36
622.904	15585.9
623.099	15694.44
623.294	15704.68
623.488	15383.15
623.683	15239.79
623.878	15395.43
624.072	15164.01
624.267	15010.42
624.462	15104.62
624.656	14867.06
624.851	14955.12
625.046	14905.97
625.24	14598.77
625.435	14447.22
625.629	14733.94
625.824	14518.9
626.018	14445.18
626.213	14215.8
626.407	14465.66
626.602	14142.08
626.796	14230.14
626.991	14082.69
627.185	14264.96
627.38	13763.2
627.574	13687.43
627.768	13675.14
627.963	13400.71
628.157	13273.74
628.352	13589.13
628.546	13335.18
628.74	13349.51
628.935	13056.65
629.129	13220.49
629.323	13048.46
629.517	12995.22
629.712	13136.52
629.906	13161.1
630.1	12534.42
630.294	12903.06
630.489	12982.93
630.683	12911.25
630.877	12608.15
631.071	12358.3
631.265	12599.96
631.459	12399.26
631.653	12419.74
631.848	12259.99
632.042	12268.19
632.236	12270.23
632.43	12061.34
632.624	12190.36
632.818	11969.18
633.012	11858.59
633.206	11733.67
633.4	11766.43
633.594	11754.15
633.788	11809.44
633.982	11725.47
634.176	11750.05
634.369	11567.78
634.563	11543.21
634.757	11317.93
634.951	11358.89
635.145	11319.98
635.339	11317.93
635.533	11258.54
635.726	11139.76
635.92	10971.82
636.114	10971.82
636.308	10787.5
636.501	11197.1
636.695	10949.29
636.889	10674.87
637.083	10787.5
637.276	10629.81
637.47	10361.53
637.664	10425.01
637.857	10349.24
638.051	10326.71
638.244	10402.49
638.438	10433.21
638.632	10240.7
638.825	10214.07
639.019	10126.01
639.212	9999.04
639.406	9939.65
639.599	10001.08
639.793	9986.75
639.986	9896.64
640.18	9923.26
640.373	9829.06
640.567	9765.57
640.76	9822.91
640.954	9441.99
641.147	9673.41
641.34	9355.97
641.534	9476.8
641.727	9341.64
641.92	9226.95
642.114	9257.67
642.307	9272.01
642.5	9286.34
642.694	8989.39
642.887	9128.65
643.08	9091.79
643.273	9091.79
643.467	9091.79
643.66	8786.64
643.853	8800.98
644.046	8747.73
644.239	8839.89
644.432	8616.66
644.626	8690.38
644.819	8501.97
645.012	8661.71
645.205	8493.78
645.398	8534.74
645.591	8432.34
645.784	8391.38
645.977	8317.65
646.17	8418
646.363	8209.11
646.556	7953.12
646.749	8274.65
646.942	8272.6
647.135	8075.99
647.328	8149.72
647.521	7903.96
647.714	8069.85
647.907	7928.54
648.099	7807.71
648.292	7838.43
648.485	7817.95
648.678	7611.11
648.871	7789.28
649.064	7637.73
649.256	7729.89
649.449	7434.98
649.642	7486.18
649.835	7471.84
650.027	7414.5
650.22	7406.31
650.413	7439.08
650.605	7396.07
650.798	7142.12
650.991	7265
651.183	7189.22
651.376	7164.65
651.568	7176.94
651.761	7236.33
651.954	7109.35
652.146	6978.28
652.339	6953.71
652.531	6976.23
652.724	6898.41
652.916	6808.3
653.109	6855.4
653.301	6763.25
653.494	6945.52
653.686	6648.56
653.879	6910.7
654.071	6638.32
654.263	6572.79
654.456	6701.81
654.648	6707.95
654.84	6521.59
655.033	6724.33
655.225	6552.31
655.417	6288.12
655.61	6411
655.802	6451.95
655.994	6298.36
656.186	6425.33
656.379	6226.68
656.571	6347.51
656.763	6367.99
656.955	6218.49
657.148	6195.96
657.34	6114.04
657.532	6013.69
657.724	6132.47
657.916	5970.68
658.108	6142.71
658.3	5933.82
658.492	5960.44
658.684	5962.49
658.876	5884.67
659.068	6011.64
659.26	5862.14
659.452	5843.71
659.644	5827.32
659.836	5575.42
660.028	5878.52
660.22	5724.93
660.412	5716.73
660.604	5401.35
660.796	5487.36
660.988	5606.14
661.18	5440.26
661.372	5374.72
661.563	5473.03
661.755	5337.86
661.947	5368.58
662.139	5376.77
662.331	5403.39
662.522	5194.5
662.714	5387.01
662.906	5298.95
663.097	5264.13
663.289	5137.16
663.481	5059.34
663.673	5214.98
663.864	5120.78
664.056	5163.78
664.247	5073.67
664.439	5073.67
664.631	4961.03
664.822	4981.51
665.014	5163.78
665.205	4967.18
665.397	4856.59
665.588	4877.07
665.78	5010.18
665.971	4868.88
666.163	4920.07
666.354	4838.16
666.546	4846.35
666.737	4786.96
666.929	4700.94
667.12	4832.01
667.311	4580.11
667.503	4705.04
667.694	4905.74
667.885	4692.75
668.077	4643.6
668.268	4586.26
668.459	4688.65
668.651	4557.58
668.842	4518.67
669.033	4479.76
669.224	4459.28
669.416	4637.45
669.607	4434.71
669.798	4322.07
669.989	4576.02
670.18	4444.95
670.371	4494.1
670.563	4336.4
670.754	4451.09
670.945	4311.83
671.136	4270.87
671.327	4317.97
671.518	4264.72
671.709	4363.03
671.9	4297.49
672.091	4291.35
672.282	4266.77
672.473	4115.22
672.664	4363.03
672.855	4236.05
673.046	4201.24
673.237	4217.62
673.428	4152.09
673.619	4094.74
673.809	4102.93
674	4111.13
674.191	4066.07
674.382	4119.32
674.573	4006.68
674.764	4004.63
674.954	4076.31
675.145	4086.55
675.336	4010.78
675.527	3973.91
675.717	4053.78
675.908	3853.08
676.099	3916.57
676.289	3912.47
676.48	3922.71
676.671	3935
676.861	3986.2
677.052	3789.6
677.243	3867.42
677.433	3906.33
677.624	3906.33
677.814	3842.84
678.005	3689.25
678.195	3881.75
678.386	3922.71
678.576	3799.84
678.767	3767.07
678.957	3836.7
679.148	3840.79
679.338	3816.22
679.529	3805.98
679.719	3740.44
679.909	3824.41
680.1	3810.08
680.29	3717.92
680.481	3732.25
680.671	3736.35
680.861	3830.55
681.052	3801.88
681.242	3664.67
681.432	3810.08
681.622	3717.92
681.813	3642.14
682.003	3803.93
682.193	3578.65
682.383	3738.4
682.573	3679.01
682.764	3781.4
682.954	3537.7
683.144	3693.34
683.334	3552.03
683.524	3619.61
683.714	3691.29
683.904	3570.46
684.094	3642.14
684.284	3592.99
684.474	3537.7
684.664	3595.04
684.854	3603.23
685.044	3638.05
685.234	3486.5
685.424	3656.48
685.614	3603.23
685.804	3617.57
685.994	3549.98
686.184	3445.54
686.374	3545.89
686.564	3349.28
686.753	3349.28
686.943	3386.15
687.133	3226.4
687.323	3484.45
687.513	3359.52
687.702	3345.19
687.892	3445.54
688.082	3296.04
688.272	3257.12
688.461	3380
688.651	3281.7
688.841	3336.99
689.03	3283.75
689.22	3330.85
689.41	3158.82
689.599	3207.97
689.789	3115.81
689.979	3343.14
690.168	3316.51
690.358	3156.77
690.547	3298.08
690.737	3132.2
690.926	3181.35
691.116	3119.91
691.305	3218.21
691.495	3105.57
691.684	2984.74
691.874	3089.19
692.063	3095.33
692.252	3060.52
692.442	3107.62
692.631	2884.39
692.82	3081
693.01	3052.33
693.199	3076.9
693.388	3005.22
693.578	2949.93
693.767	2919.21
693.956	2931.5
694.146	2972.46
694.335	3029.8
694.524	3015.46
694.713	2919.21
694.902	2951.98
695.092	2947.88
695.281	2911.02
695.47	3054.37
695.659	3013.42
695.848	2870.06
696.037	2800.43
696.226	2878.25
696.415	2868.01
696.604	2906.92
696.793	2849.58
696.982	2835.24
697.171	2911.02
697.36	2945.83
697.549	2765.61
697.738	2804.52
697.927	2810.67
698.116	2812.71
698.305	2771.76
698.494	2837.29
698.683	2863.91
698.872	2845.48
699.061	2749.23
699.25	2743.08
699.438	2710.32
699.627	2820.91
699.816	2816.81
700.005	2814.76
700.193	2771.76
700.382	2849.58
700.571	2802.47
700.76	2870.06
700.948	2763.56
701.137	2820.91
701.326	2857.77
701.514	2648.88
701.703	2763.56
701.892	2767.66
702.08	2773.8
702.269	2812.71
702.457	2855.72
702.646	2761.52
702.834	2657.07
703.023	2749.23
703.212	2800.43
703.4	2749.23
703.589	2706.22
703.777	2751.28
703.965	2749.23
704.154	2669.36
704.342	2751.28
704.531	2769.71
704.719	2675.5
704.907	2775.85
705.096	2730.8
705.284	2669.36
705.472	2716.46
705.661	2638.64
705.849	2718.51
706.037	2781.99
706.226	2771.76
706.414	2751.28
706.602	2738.99
706.79	2630.45
706.979	2679.6
707.167	2749.23
707.355	2591.53
707.543	2779.95
707.731	2804.52
707.919	2847.53
708.107	2738.99
708.296	2669.36
708.484	2675.5
708.672	2734.89
708.86	2683.69
709.048	2695.98
709.236	2538.29
709.424	2741.04
709.612	2769.71
709.8	2726.7
709.988	2798.38
710.176	2638.64
710.364	2708.27
710.551	2738.99
710.739	2687.79
710.927	2687.79
711.115	2655.02
711.303	2902.83
711.491	2730.8
711.679	2620.21
711.866	2671.4
712.054	2845.48
712.242	2741.04
712.43	2671.4
712.617	2763.56
712.805	2773.8
712.993	2693.93
713.181	2609.97
713.368	2767.66
713.556	2659.12
713.744	2685.74
713.931	2677.55
714.119	2738.99
714.306	2667.31
714.494	2714.41
714.682	2749.23
714.869	2677.55
715.057	2771.76
715.244	2677.55
715.432	2712.36
715.619	2646.83
715.807	2687.79
715.994	2646.83
716.182	2747.18
716.369	2741.04
716.556	2743.08
716.744	2708.27
716.931	2689.84
717.119	2716.46
717.306	2657.07
717.493	2614.06
717.681	2652.97
717.868	2698.03
718.055	2724.65
718.242	2698.03
718.43	2675.5
718.617	2788.14
718.804	2591.53
718.991	2790.19
719.179	2704.17
719.366	2687.79
719.553	2792.23
719.74	2640.69
719.927	2634.54
720.114	2667.31
720.301	2706.22
720.488	2669.36
720.676	2630.45
720.863	2732.84
721.05	2663.21
721.237	2591.53
721.424	2730.8
721.611	2730.8
721.798	2831.15
721.985	2609.97
722.172	2663.21
722.358	2655.02
722.545	2747.18
722.732	2706.22
722.919	2677.55
723.106	2712.36
723.293	2638.64
723.48	2759.47
723.667	2560.81
723.853	2575.15
724.04	2710.32
724.227	2681.64
724.414	2661.16
724.6	2566.96
724.787	2614.06
724.974	2622.25
725.161	2579.25
725.347	2597.68
725.534	2618.16
725.72	2589.49
725.907	2628.4
726.094	2632.49
726.28	2538.29
726.467	2605.87
726.653	2517.81
726.84	2657.07
727.027	2753.32
727.213	2607.92
727.4	2714.41
727.586	2599.73
727.773	2693.93
727.959	2661.16
728.145	2618.16
728.332	2544.43
728.518	2628.4
728.705	2575.15
728.891	2693.93
729.077	2650.92
729.264	2560.81
729.45	2589.49
729.636	2636.59
729.823	2575.15
730.009	2607.92
730.195	2634.54
730.382	2626.35
730.568	2607.92
730.754	2564.91
730.94	2546.48
731.126	2562.86
731.313	2657.07
731.499	2665.26
731.685	2614.06
731.871	2448.18
732.057	2640.69
732.243	2601.77
732.429	2607.92
732.615	2571.05
732.801	2538.29
732.987	2573.1
733.173	2616.11
733.359	2626.35
733.545	2702.12
733.731	2530.09
733.917	2491.18
734.103	2542.38
734.289	2536.24
734.475	2523.95
734.661	2630.45
734.847	2669.36
735.033	2556.72
735.219	2499.38
735.404	2495.28
735.59	2485.04
735.776	2558.77
735.962	2581.29
736.148	2470.7
736.333	2638.64
736.519	2392.88
736.705	2415.41
736.89	2474.8
737.076	2482.99
737.262	2407.22
737.447	2390.83
737.633	2392.88
737.819	2448.18
738.004	2392.88
738.19	2349.87
738.375	2464.56
738.561	2446.13
738.747	2321.2
738.932	2427.7
739.118	2403.12
739.303	2329.39
739.489	2364.21
739.674	2323.25
739.859	2413.36
740.045	2323.25
740.23	2337.59
740.416	2249.52
740.601	2317.11
740.786	2362.16
740.972	2251.57
741.157	2331.44
741.342	2196.28
741.528	2233.14
741.713	2257.71
741.898	2319.15
742.084	2337.59
742.269	2298.67
742.454	2294.58
742.639	2173.75
742.824	2231.09
743.01	2396.98
743.195	2241.33
743.38	2245.43
743.565	2214.71
743.75	2218.8
743.935	2120.5
744.12	2177.84
744.305	2161.46
744.49	2161.46
744.675	2042.68
744.86	2169.65
745.045	2042.68
745.23	2065.21
745.415	2235.19
745.6	2194.23
745.785	2104.12
745.97	1999.67
746.155	2065.21
746.34	2202.42
746.525	2071.35
746.71	2009.91
746.895	2026.29
747.079	2018.1
747.264	1954.62
747.449	1950.52
747.634	1989.43
747.819	2022.2
748.003	1919.8
748.188	1862.46
748.373	1780.54
748.557	1837.88
748.742	1973.05
748.927	1790.78
749.111	1923.9
749.296	1776.44
749.481	1901.37
749.665	1829.69
749.85	1831.74
750.034	1835.83
750.219	1737.53
750.404	1710.91
750.588	1848.12
750.773	1702.72
750.957	1758.01
751.141	1743.67
751.326	1717.05
751.51	1719.1
751.695	1700.67
751.879	1688.38
752.064	1624.89
752.248	1684.28
752.432	1684.28
752.617	1618.75
752.801	1600.32
752.985	1571.65
753.17	1665.85
753.354	1608.51
753.538	1659.71
753.722	1526.59
753.907	1536.83
754.091	1467.2
754.275	1475.39
754.459	1487.68
754.643	1579.84
754.828	1475.39
755.012	1495.87
755.196	1440.58
755.38	1430.34
755.564	1409.86
755.748	1399.62
755.932	1317.7
756.116	1399.62
756.3	1411.9
756.484	1334.08
756.668	1364.8
756.852	1370.94
757.036	1286.98
757.22	1336.13
757.404	1233.73
757.588	1276.74
757.772	1319.75
757.956	1272.64
758.14	1272.64
758.323	1387.33
758.507	1252.16
758.691	1237.83
758.875	1280.83
759.059	1332.03
759.242	1219.39
759.426	1321.79
759.61	1241.92
759.794	1160
759.977	1276.74
760.161	1225.54
760.345	1340.22
760.528	1184.58
760.712	1233.73
760.895	1153.86
761.079	1166.15
761.263	1162.05
761.446	1149.76
761.63	1198.92
761.813	1149.76
761.997	1094.47
762.18	1295.17
762.364	1067.85
762.547	1112.9
762.731	1108.8
762.914	1135.43
763.098	1088.32
763.281	1061.7
763.464	1112.9
763.648	1184.58
763.831	1035.08
764.015	1160
764.198	1143.62
764.381	1092.42
764.564	1049.41
764.748	1059.65
764.931	1094.47
765.114	1014.6
765.297	1012.55
765.481	996.17
765.664	1030.98
765.847	1141.57
766.03	1039.17
766.213	951.11
766.397	1084.23
766.58	932.68
766.763	1024.84
766.946	934.73
767.129	940.87
767.312	877.38
767.495	965.45
767.678	994.12
767.861	973.64
768.044	957.25
768.227	938.82
768.41	994.12
768.593	947.01
768.776	1045.32
768.959	908.1
769.142	891.72
769.324	957.25
769.507	883.53
769.69	865.1
769.873	951.11
770.056	863.05
770.239	865.1
770.421	922.44
770.604	883.53
770.787	883.53
770.97	795.47
771.152	910.15
771.335	891.72
771.518	895.82
771.7	811.85
771.883	875.34
772.066	850.76
772.248	858.95
772.431	908.1
772.613	910.15
772.796	875.34
772.978	787.27
773.161	854.86
773.343	869.19
773.526	699.21
773.708	750.41
773.891	764.75
774.073	809.8
774.256	748.36
774.438	840.52
774.621	781.13
774.803	750.41
774.985	770.89
775.168	729.93
775.35	756.55
775.532	817.99
775.715	725.83
775.897	736.07
776.079	719.69
776.261	703.31
776.444	781.13
776.626	762.7
776.808	676.68
776.99	666.44
777.173	684.87
777.355	678.73
777.537	678.73
777.719	744.27
777.901	645.96
778.083	582.48
778.265	619.34
778.447	705.35
778.629	531.28
778.811	701.26
778.993	674.64
779.175	666.44
779.357	668.49
779.539	566.09
779.721	637.77
779.903	652.11
780.085	613.2
780.267	723.79
780.449	494.41
780.631	633.68
780.812	619.34
780.994	617.29
781.176	564.04
781.358	598.86
781.54	539.47
781.721	555.85
781.903	574.28
782.085	490.32
782.267	484.17
782.448	547.66
782.63	502.61
782.812	539.47
782.993	486.22
783.175	594.76
783.357	518.99
783.538	469.84
783.72	480.08
783.901	527.18
784.083	488.27
784.264	512.85
784.446	416.59
784.627	504.65
784.809	502.61
784.99	463.69
785.172	455.5
785.353	449.36
785.535	512.85
785.716	437.07
785.897	412.5
786.079	412.5
786.26	412.5
786.441	392.02
786.623	439.12
786.804	285.52
786.985	445.26
787.167	400.21
787.348	463.69
787.529	422.73
787.71	523.09
787.891	359.25
788.073	371.54
788.254	459.6
788.435	473.93
788.616	353.1
788.797	322.38
788.978	424.78
789.159	340.82
789.34	424.78
789.522	406.35
789.703	281.43
789.884	363.34
790.065	389.97
790.246	387.92
790.427	351.06
790.607	441.17
790.788	394.06
790.969	375.63
791.15	373.58
791.331	346.96
791.512	320.34
791.693	299.86
791.874	342.86
792.054	398.16
792.235	473.93
792.416	310.1
792.597	283.47
792.778	324.43
792.958	355.15
793.139	351.06
793.32	318.29
793.5	277.33
793.681	371.54
793.862	349.01
794.042	303.95
794.223	291.66
794.404	285.52
794.584	267.09
794.765	318.29
794.945	277.33
795.126	328.53
795.306	316.24
795.487	334.67
795.667	303.95
795.848	351.06
796.028	265.04
796.209	250.71
796.389	293.71
796.57	326.48
796.75	217.94
796.93	260.95
797.111	230.23
797.291	252.75
797.471	267.09
797.652	246.61
797.832	240.47
798.012	297.81
798.192	203.6
798.373	242.51
798.553	277.33
798.733	301.9
798.913	297.81
799.093	248.66
799.274	306
799.454	228.18
799.634	375.63
799.814	226.13
799.994	318.29
800.174	260.95
800.354	236.37
800.534	258.9
800.714	271.19
800.894	238.42
801.074	146.26
801.254	242.51
801.434	211.79
801.614	172.88
801.794	240.47
801.974	803.66
802.154	148.31
802.334	308.05
802.514	187.22
802.693	254.8
802.873	160.59
803.053	232.27
803.233	250.71
803.413	138.07
803.592	246.61
803.772	191.31
803.952	174.93
804.131	127.83
804.311	228.18
804.491	312.14
804.67	236.37
804.85	168.79
805.03	285.52
805.209	174.93
805.389	244.56
805.568	183.12
805.748	179.03
805.928	248.66
806.107	281.43
806.287	195.41
806.466	211.79
806.646	170.83
806.825	179.03
807.004	201.55
807.184	240.47
807.363	242.51
807.543	162.64
807.722	219.99
807.901	242.51
808.081	213.84
808.26	138.07
808.439	193.36
808.619	123.73
808.798	150.36
808.977	148.31
809.156	154.45
809.336	166.74
809.515	144.21
809.694	127.83
809.873	131.92
810.052	224.08
810.231	152.4
810.411	181.07
810.59	197.46
810.769	154.45
810.948	209.75
811.127	215.89
811.306	219.99
811.485	146.26
811.664	252.75
811.843	152.4
812.022	113.49
812.201	121.68
812.38	176.98
812.559	121.68
812.737	146.26
812.916	131.92
813.095	97.11
813.274	156.5
813.453	117.59
813.632	101.2
813.811	189.27
813.989	131.92
814.168	187.22
814.347	119.64
814.526	86.87
814.704	179.03
814.883	138.07
815.062	88.92
815.24	195.41
815.419	80.72
815.598	164.69
815.776	103.25
815.955	88.92
816.133	107.35
816.312	142.16
816.49	133.97
816.669	136.02
816.847	101.2
817.026	99.16
817.204	115.54
817.383	150.36
817.561	43.86
817.74	136.02
817.918	115.54
818.097	160.59
818.275	129.88
818.453	103.25
818.632	150.36
818.81	68.44
818.988	140.12
819.167	113.49
819.345	56.15
819.523	86.87
819.701	56.15
819.879	146.26
820.058	43.86
820.236	136.02
820.414	88.92
820.592	101.2
820.77	101.2
820.948	166.74
821.127	70.48
821.305	78.68
821.483	119.64
821.661	123.73
821.839	33.62
822.017	29.52
822.195	144.21
822.373	101.2
822.551	170.83
822.729	-17.58
822.907	150.36
823.085	107.35
823.262	121.68
823.44	-44.2
823.618	78.68
823.796	43.86
823.974	64.34
824.152	101.2
824.329	97.11
824.507	119.64
824.685	27.48
824.863	54.1
825.04	109.4
825.218	121.68
825.396	97.11
825.574	142.16
825.751	80.72
825.929	88.92
826.107	31.57
826.284	70.48
826.462	101.2
826.639	50
826.817	68.44
826.994	88.92
827.172	95.06
827.349	125.78
827.527	101.2
827.704	107.35
827.882	70.48
828.059	133.97
828.237	97.11
828.414	111.44
828.591	43.86
828.769	138.07
828.946	11.09
829.124	146.26
829.301	54.1
829.478	-29.87
829.655	47.96
829.833	103.25
830.01	33.62
830.187	2.9
830.364	15.19
830.542	11.09
830.719	131.92
830.896	78.68
831.073	19.29
831.25	70.48
831.427	60.24
831.604	72.53
831.782	37.72
831.959	45.91
832.136	23.38
832.313	101.2
832.49	45.91
832.667	176.98
832.844	29.52
833.021	33.62
833.198	80.72
833.374	56.15
833.551	62.29
833.728	37.72
833.905	72.53
834.082	60.24
834.259	58.2
834.436	74.58
834.612	-3.24
834.789	121.68
834.966	47.96
835.143	47.96
835.319	93.01
835.496	29.52
835.673	62.29
835.85	113.49
836.026	52.05
836.203	88.92
836.38	68.44
836.556	37.72
836.733	72.53
836.909	88.92
837.086	4.95
837.262	47.96
837.439	23.38
837.616	62.29
837.792	33.62
837.968	7
838.145	56.15
838.321	90.96
838.498	47.96
838.674	74.58
838.851	45.91
839.027	37.72
839.203	95.06
839.38	23.38
839.556	39.76
839.732	131.92
839.909	27.48
840.085	80.72
840.261	19.29
840.437	72.53
840.614	35.67
840.79	113.49
840.966	170.83
841.142	-7.34
841.318	21.33
841.494	88.92
841.671	62.29
841.847	52.05
842.023	-25.77
842.199	39.76
842.375	72.53
842.551	-1.19
842.727	68.44
842.903	-3.24
843.079	25.43
843.255	80.72
843.431	56.15
843.607	121.68
843.783	23.38
843.959	23.38
844.134	-13.48
844.31	-3.24
844.486	43.86
844.662	62.29
844.838	15.19
845.013	-11.43
845.189	13.14
845.365	4.95
845.541	7
845.716	70.48
845.892	-46.25
846.068	15.19
846.244	11.09
846.419	60.24
846.595	41.81
846.77	68.44
846.946	58.2
847.122	-1.19
847.297	58.2
847.473	88.92
847.648	35.67
847.824	113.49
847.999	-15.53
848.175	-9.39
848.35	-5.29
848.526	35.67
848.701	19.29
848.876	17.24
849.052	23.38
849.227	60.24
849.403	-66.73
849.578	-5.29
849.753	27.48
849.929	39.76
850.104	-62.63
850.279	74.58
850.454	47.96
850.63	66.39
850.805	47.96
850.98	-7.34
851.155	45.91
851.33	60.24
851.505	4.95
851.681	123.73
851.856	15.19
852.031	62.29
852.206	41.81
852.381	7
852.556	68.44
852.731	35.67
852.906	45.91
853.081	9.05
853.256	25.43
853.431	58.2
853.606	13.14
853.781	-23.72
853.956	-54.44
854.131	-7.34
854.305	11.09
854.48	23.38
854.655	-72.87
854.83	-11.43
855.005	-27.82
855.18	17.24
855.354	-7.34
855.529	17.24
855.704	-62.63
855.879	29.52
856.053	-33.96
856.228	-13.48
856.403	35.67
856.577	64.34
856.752	-19.63
856.926	50
857.101	-33.96
857.276	-25.77
857.45	13.14
857.625	-27.82
857.799	-36.01
857.974	15.19
858.148	-17.58
858.323	43.86
858.497	-25.77
858.672	-52.39
858.846	58.2
859.02	52.05
859.195	-76.97
859.369	-44.2
859.543	31.57
859.718	-52.39
859.892	2.9
860.066	119.64
860.241	-21.67
860.415	56.15
860.589	4.95
860.763	2.9
860.938	-11.43
861.112	11.09
861.286	11.09
861.46	-11.43
861.634	-46.25
861.808	-3.24
861.982	60.24
862.157	-11.43
862.331	19.29
862.505	13.14
862.679	-40.11
862.853	35.67
863.027	-27.82
863.201	-19.63
863.375	60.24
863.549	43.86
863.722	17.24
863.896	23.38
864.07	-38.06
864.244	52.05
864.418	-1.19
864.592	-21.67
864.766	-29.87
864.939	23.38
865.113	-13.48
865.287	17.24
865.461	-13.48
865.634	2.9
865.808	9.05
865.982	-91.31
866.156	-50.35
866.329	-36.01
866.503	7
866.676	-33.96
866.85	82.77
867.024	-23.72
867.197	37.72
867.371	60.24
867.544	54.1
867.718	-17.58
867.891	37.72
868.065	-46.25
868.238	19.29
868.412	52.05
868.585	21.33
868.759	-25.77
868.932	-31.91
869.105	0.85
869.279	11.09
869.452	-13.48
869.625	-5.29
869.799	23.38
869.972	-46.25
870.145	-17.58
870.319	31.57
870.492	0.85
870.665	-5.29
870.838	-85.16
871.011	-64.68
871.185	76.63
871.358	-52.39
871.531	23.38
871.704	-44.2
871.877	31.57
872.05	21.33
872.223	-5.29
872.396	35.67
872.569	7
872.742	-21.67
872.915	-3.24
873.088	-5.29
873.261	27.48
873.434	-42.15
873.607	-3.24
873.78	29.52
873.953	9.05
874.126	15.19
874.299	-17.58
874.471	-33.96
874.644	-29.87
874.817	45.91
874.99	13.14
875.163	-48.3
875.335	-60.59
875.508	23.38
875.681	56.15
875.853	-13.48
876.026	15.19
876.199	9.05
876.371	7
876.544	56.15
876.717	-21.67
876.889	-58.54
877.062	23.38
877.234	45.91
877.407	86.87
877.579	-54.44
877.752	29.52
877.924	-7.34
878.097	-31.91
878.269	11.09
878.442	-50.35
878.614	7
878.786	-38.06
878.959	80.72
879.131	15.19
879.303	-42.15
879.476	-50.35
879.648	80.72
879.82	9.05
879.993	-87.21
880.165	-42.15
880.337	-9.39
880.509	-72.87
880.681	-21.67
880.854	-48.3
881.026	-58.54
881.198	88.92
881.37	-1.19
881.542	-42.15
881.714	-11.43
881.886	-13.48
882.058	0.85
882.23	-7.34
882.402	-17.58
882.574	-66.73
882.746	-11.43
882.918	-3.24
883.09	-5.29
883.262	-38.06
883.434	-66.73
883.606	-19.63
883.778	2.9
883.95	37.72
884.122	-9.39
884.293	-29.87
884.465	27.48
884.637	2.9
884.809	-44.2
884.98	-33.96
885.152	39.76
885.324	-13.48
885.496	-25.77
885.667	29.52
885.839	-48.3
886.011	86.87
886.182	15.19
886.354	9.05
886.525	31.57
886.697	4.95
886.869	-66.73
887.04	-56.49
887.212	-25.77
887.383	17.24
887.555	-29.87
887.726	35.67
887.897	-15.53
888.069	7
888.24	-27.82
888.412	23.38
888.583	-52.39
888.754	-33.96
888.926	19.29
889.097	-58.54
889.268	7
889.44	-23.72
889.611	4.95
889.782	-19.63
889.953	35.67
890.125	-48.3
890.296	-52.39
890.467	4.95
890.638	-79.02
890.809	0.85
890.98	47.96
891.151	-50.35
891.323	-23.72
891.494	-7.34
891.665	13.14
891.836	11.09
892.007	-33.96
892.178	-29.87
892.349	39.76
892.52	-17.58
892.691	45.91
892.862	-66.73
893.032	-83.11
893.203	-46.25
893.374	27.48
893.545	39.76
893.716	-52.39
893.887	9.05
894.057	-17.58
894.228	35.67
894.399	-44.2
894.57	56.15
894.74	-29.87
894.911	41.81
895.082	2.9
895.253	-29.87
895.423	-38.06
895.594	2.9
895.764	7
895.935	-9.39
896.106	25.43
896.276	-7.34
896.447	-42.15
896.617	-83.11
896.788	7
896.958	-66.73
897.129	19.29
897.299	-72.87
897.47	-27.82
897.64	2.9
897.81	-19.63
897.981	2.9
898.151	-56.49
898.322	70.48
898.492	-13.48
898.662	-7.34
898.832	21.33
899.003	-40.11
899.173	11.09
899.343	-9.39
899.513	-79.02
