Data from USB4F104151__75__10-24-09-131.txt Node

Date: Wed Mar 12 10:24:09 EDT 2025
User: louis
Spectrometer: USB4F10415
Trigger mode: 4
Integration Time (sec): 3.000000E-2
Scans to average: 1
Electric dark correction enabled: true
Nonlinearity correction enabled: false
Boxcar width: 0
XAxis mode: Wavelengths
Number of Pixels in Spectrum: 3648
>>>>>Begin Spectral Data<<<<<
178.204	-108.54
178.424	-108.54
178.644	-108.54
178.864	-118.78
179.084	6.14
179.304	6.14
179.524	-24.58
179.744	-38.91
179.964	10.24
180.184	-32.77
180.404	0
180.624	2.05
180.844	67.58
181.064	59.39
181.283	-36.86
181.503	-34.82
181.723	22.53
181.943	28.67
182.163	59.39
182.383	30.72
182.602	34.82
182.822	-18.43
183.042	22.53
183.262	26.62
183.482	96.25
183.701	45.06
183.921	4.1
184.141	59.39
184.361	61.44
184.58	14.34
184.8	12.29
185.02	55.3
185.239	57.34
185.459	16.38
185.679	28.67
185.898	-10.24
186.118	65.54
186.338	28.67
186.557	59.39
186.777	-4.1
186.997	57.34
187.216	6.14
187.436	102.4
187.655	6.14
187.875	75.77
188.095	49.15
188.314	34.82
188.534	118.78
188.753	26.62
188.973	63.49
189.192	55.3
189.412	24.58
189.631	59.39
189.851	81.92
190.07	34.82
190.29	-2.05
190.509	30.72
190.729	71.68
190.948	43.01
191.168	172.03
191.387	143.36
191.607	10.24
191.826	26.62
192.045	75.77
192.265	122.88
192.484	-6.14
192.704	83.97
192.923	6.14
193.142	112.64
193.362	0
193.581	43.01
193.8	94.21
194.02	18.43
194.239	6.14
194.458	75.77
194.678	20.48
194.897	6.14
195.116	57.34
195.335	57.34
195.555	47.1
195.774	24.58
195.993	69.63
196.212	12.29
196.432	22.53
196.651	53.25
196.87	-22.53
197.089	104.45
197.308	2.05
197.528	79.87
197.747	34.82
197.966	18.43
198.185	92.16
198.404	79.87
198.623	96.25
198.842	77.82
199.062	88.06
199.281	73.73
199.5	88.06
199.719	106.49
199.938	26.62
200.157	77.82
200.376	67.58
200.595	65.54
200.814	61.44
201.033	-73.73
201.252	40.96
201.471	73.73
201.69	67.58
201.909	55.3
202.128	86.01
202.347	61.44
202.566	-2.05
202.785	-10.24
203.004	30.72
203.223	145.41
203.442	55.3
203.661	16.38
203.879	-12.29
204.098	100.35
204.317	10.24
204.536	51.2
204.755	55.3
204.974	40.96
205.193	-34.82
205.411	75.77
205.63	65.54
205.849	-8.19
206.068	6.14
206.287	43.01
206.505	51.2
206.724	-49.15
206.943	40.96
207.162	79.87
207.381	8.19
207.599	63.49
207.818	92.16
208.037	98.3
208.255	18.43
208.474	63.49
208.693	34.82
208.911	77.82
209.13	26.62
209.349	28.67
209.567	6.14
209.786	55.3
210.005	32.77
210.223	96.25
210.442	-34.82
210.661	26.62
210.879	51.2
211.098	94.21
211.316	30.72
211.535	55.3
211.753	92.16
211.972	-4.1
212.191	38.91
212.409	77.82
212.628	30.72
212.846	47.1
213.065	77.82
213.283	112.64
213.502	32.77
213.72	24.58
213.938	69.63
214.157	63.49
214.375	67.58
214.594	18.43
214.812	26.62
215.031	-12.29
215.249	28.67
215.467	-40.96
215.686	38.91
215.904	57.34
216.122	63.49
216.341	106.49
216.559	45.06
216.778	69.63
216.996	40.96
217.214	20.48
217.432	-4.1
217.651	36.86
217.869	43.01
218.087	135.17
218.306	71.68
218.524	47.1
218.742	34.82
218.96	30.72
219.179	63.49
219.397	12.29
219.615	73.73
219.833	51.2
220.051	102.4
220.27	38.91
220.488	102.4
220.706	47.1
220.924	22.53
221.142	47.1
221.36	-55.3
221.578	6.14
221.796	59.39
222.015	-6.14
222.233	26.62
222.451	47.1
222.669	73.73
222.887	126.97
223.105	2.05
223.323	57.34
223.541	47.1
223.759	120.83
223.977	6.14
224.195	43.01
224.413	43.01
224.631	36.86
224.849	34.82
225.067	96.25
225.285	100.35
225.503	-12.29
225.721	14.34
225.939	-18.43
226.157	43.01
226.375	96.25
226.592	45.06
226.81	90.11
227.028	104.45
227.246	59.39
227.464	79.87
227.682	22.53
227.9	75.77
228.117	92.16
228.335	14.34
228.553	-6.14
228.771	59.39
228.989	40.96
229.206	26.62
229.424	-40.96
229.642	47.1
229.86	61.44
230.077	57.34
230.295	38.91
230.513	38.91
230.731	92.16
230.948	67.58
231.166	71.68
231.384	18.43
231.601	129.02
231.819	112.64
232.037	38.91
232.254	16.38
232.472	20.48
232.689	10.24
232.907	63.49
233.125	110.59
233.342	47.1
233.56	38.91
233.777	59.39
233.995	28.67
234.213	38.91
234.43	71.68
234.648	67.58
234.865	28.67
235.083	116.73
235.3	-34.82
235.518	83.97
235.735	36.86
235.953	65.54
236.17	88.06
236.388	96.25
236.605	116.73
236.822	71.68
237.04	53.25
237.257	61.44
237.475	14.34
237.692	22.53
237.909	45.06
238.127	65.54
238.344	24.58
238.562	4.1
238.779	16.38
238.996	-18.43
239.214	88.06
239.431	110.59
239.648	100.35
239.865	94.21
240.083	77.82
240.3	-28.67
240.517	67.58
240.735	75.77
240.952	30.72
241.169	40.96
241.386	40.96
241.603	69.63
241.821	-10.24
242.038	30.72
242.255	53.25
242.472	26.62
242.689	4.1
242.907	32.77
243.124	2.05
243.341	30.72
243.558	-24.58
243.775	28.67
243.992	34.82
244.209	77.82
244.426	79.87
244.643	83.97
244.86	28.67
245.078	59.39
245.295	43.01
245.512	55.3
245.729	79.87
245.946	69.63
246.163	38.91
246.38	14.34
246.597	-6.14
246.814	30.72
247.031	34.82
247.248	83.97
247.464	6.14
247.681	38.91
247.898	51.2
248.115	63.49
248.332	34.82
248.549	55.3
248.766	108.54
248.983	106.49
249.2	40.96
249.417	51.2
249.633	4.1
249.85	131.07
250.067	88.06
250.284	38.91
250.501	141.31
250.717	-14.34
250.934	14.34
251.151	116.73
251.368	-18.43
251.585	38.91
251.801	71.68
252.018	63.49
252.235	77.82
252.451	18.43
252.668	32.77
252.885	32.77
253.102	71.68
253.318	96.25
253.535	18.43
253.752	34.82
253.968	18.43
254.185	-38.91
254.401	-36.86
254.618	-14.34
254.835	-67.58
255.051	61.44
255.268	71.68
255.484	71.68
255.701	86.01
255.917	53.25
256.134	-4.1
256.351	67.58
256.567	59.39
256.784	104.45
257	53.25
257.217	38.91
257.433	75.77
257.65	88.06
257.866	86.01
258.082	-4.1
258.299	8.19
258.515	36.86
258.732	92.16
258.948	47.1
259.165	49.15
259.381	6.14
259.597	12.29
259.814	90.11
260.03	36.86
260.246	-10.24
260.463	104.45
260.679	-10.24
260.895	8.19
261.112	98.3
261.328	69.63
261.544	22.53
261.761	90.11
261.977	47.1
262.193	4.1
262.409	88.06
262.626	18.43
262.842	124.93
263.058	20.48
263.274	116.73
263.49	30.72
263.707	51.2
263.923	34.82
264.139	-14.34
264.355	81.92
264.571	45.06
264.787	100.35
265.004	141.31
265.22	22.53
265.436	51.2
265.652	-4.1
265.868	32.77
266.084	67.58
266.3	18.43
266.516	22.53
266.732	22.53
266.948	71.68
267.164	106.49
267.38	120.83
267.596	96.25
267.812	75.77
268.028	77.82
268.244	14.34
268.46	98.3
268.676	0
268.892	108.54
269.108	16.38
269.324	83.97
269.54	36.86
269.756	71.68
269.972	-28.67
270.188	-2.05
270.403	22.53
270.619	34.82
270.835	65.54
271.051	30.72
271.267	30.72
271.483	47.1
271.698	75.77
271.914	-26.62
272.13	0
272.346	-20.48
272.562	34.82
272.777	45.06
272.993	-10.24
273.209	34.82
273.425	94.21
273.64	38.91
273.856	106.49
274.072	8.19
274.287	-38.91
274.503	92.16
274.719	79.87
274.934	18.43
275.15	45.06
275.366	-8.19
275.581	-18.43
275.797	40.96
276.012	43.01
276.228	10.24
276.444	77.82
276.659	26.62
276.875	43.01
277.09	43.01
277.306	102.4
277.521	53.25
277.737	20.48
277.952	53.25
278.168	47.1
278.383	108.54
278.599	14.34
278.814	-6.14
279.03	-12.29
279.245	20.48
279.461	69.63
279.676	118.78
279.892	104.45
280.107	30.72
280.322	-14.34
280.538	10.24
280.753	55.3
280.969	55.3
281.184	36.86
281.399	43.01
281.615	57.34
281.83	32.77
282.045	57.34
282.26	71.68
282.476	22.53
282.691	86.01
282.906	61.44
283.122	40.96
283.337	49.15
283.552	-4.1
283.767	-18.43
283.983	38.91
284.198	59.39
284.413	94.21
284.628	47.1
284.843	22.53
285.058	69.63
285.274	26.62
285.489	2.05
285.704	92.16
285.919	8.19
286.134	36.86
286.349	45.06
286.564	38.91
286.779	126.97
286.995	102.4
287.21	36.86
287.425	63.49
287.64	14.34
287.855	4.1
288.07	-14.34
288.285	47.1
288.5	-22.53
288.715	20.48
288.93	120.83
289.145	83.97
289.36	-18.43
289.575	71.68
289.79	81.92
290.004	38.91
290.219	63.49
290.434	94.21
290.649	81.92
290.864	59.39
291.079	28.67
291.294	-2.05
291.509	67.58
291.724	88.06
291.938	-34.82
292.153	32.77
292.368	-2.05
292.583	-28.67
292.798	100.35
293.012	112.64
293.227	22.53
293.442	51.2
293.657	65.54
293.871	51.2
294.086	88.06
294.301	96.25
294.516	69.63
294.73	69.63
294.945	-12.29
295.16	83.97
295.374	40.96
295.589	92.16
295.804	2.05
296.018	124.93
296.233	69.63
296.447	-18.43
296.662	47.1
296.877	63.49
297.091	53.25
297.306	81.92
297.52	18.43
297.735	100.35
297.949	51.2
298.164	55.3
298.378	30.72
298.593	104.45
298.807	53.25
299.022	71.68
299.236	43.01
299.451	36.86
299.665	40.96
299.88	79.87
300.094	26.62
300.309	14.34
300.523	34.82
300.737	67.58
300.952	96.25
301.166	153.6
301.381	63.49
301.595	124.93
301.809	86.01
302.024	51.2
302.238	6.14
302.452	114.69
302.667	137.21
302.881	108.54
303.095	55.3
303.309	43.01
303.524	96.25
303.738	63.49
303.952	61.44
304.166	12.29
304.381	-28.67
304.595	90.11
304.809	10.24
305.023	38.91
305.237	77.82
305.452	75.77
305.666	-22.53
305.88	38.91
306.094	116.73
306.308	49.15
306.522	34.82
306.736	67.58
306.95	120.83
307.164	47.1
307.379	-6.14
307.593	100.35
307.807	81.92
308.021	43.01
308.235	71.68
308.449	6.14
308.663	55.3
308.877	112.64
309.091	4.1
309.305	69.63
309.519	22.53
309.733	120.83
309.947	69.63
310.161	108.54
310.374	12.29
310.588	53.25
310.802	90.11
311.016	4.1
311.23	51.2
311.444	28.67
311.658	63.49
311.872	137.21
312.085	38.91
312.299	45.06
312.513	75.77
312.727	79.87
312.941	4.1
313.154	20.48
313.368	104.45
313.582	63.49
313.796	67.58
314.009	-24.58
314.223	51.2
314.437	59.39
314.651	75.77
314.864	118.78
315.078	69.63
315.292	57.34
315.505	-16.38
315.719	45.06
315.933	86.01
316.146	38.91
316.36	79.87
316.573	38.91
316.787	53.25
317.001	32.77
317.214	55.3
317.428	98.3
317.641	24.58
317.855	0
318.068	53.25
318.282	65.54
318.495	43.01
318.709	90.11
318.922	18.43
319.136	90.11
319.349	106.49
319.563	-75.77
319.776	61.44
319.99	32.77
320.203	106.49
320.417	63.49
320.63	61.44
320.843	102.4
321.057	83.97
321.27	51.2
321.483	32.77
321.697	106.49
321.91	67.58
322.124	51.2
322.337	102.4
322.55	43.01
322.763	26.62
322.977	34.82
323.19	79.87
323.403	75.77
323.617	71.68
323.83	71.68
324.043	75.77
324.256	63.49
324.469	55.3
324.683	59.39
324.896	67.58
325.109	90.11
325.322	-36.86
325.535	71.68
325.748	47.1
325.962	55.3
326.175	-14.34
326.388	2.05
326.601	40.96
326.814	53.25
327.027	94.21
327.24	79.87
327.453	-12.29
327.666	55.3
327.879	79.87
328.092	83.97
328.305	18.43
328.518	81.92
328.731	14.34
328.944	16.38
329.157	-6.14
329.37	16.38
329.583	100.35
329.796	120.83
330.009	-16.38
330.222	38.91
330.435	79.87
330.648	61.44
330.861	-10.24
331.073	24.58
331.286	51.2
331.499	102.4
331.712	-2.05
331.925	49.15
332.138	47.1
332.35	90.11
332.563	20.48
332.776	75.77
332.989	57.34
333.202	-10.24
333.414	26.62
333.627	61.44
333.84	-18.43
334.053	90.11
334.265	45.06
334.478	73.73
334.691	18.43
334.903	2.05
335.116	77.82
335.329	86.01
335.541	69.63
335.754	18.43
335.966	38.91
336.179	77.82
336.392	88.06
336.604	88.06
336.817	63.49
337.029	18.43
337.242	65.54
337.454	83.97
337.667	77.82
337.88	53.25
338.092	77.82
338.305	55.3
338.517	43.01
338.729	86.01
338.942	129.02
339.154	34.82
339.367	45.06
339.579	73.73
339.792	32.77
340.004	10.24
340.217	106.49
340.429	81.92
340.641	38.91
340.854	30.72
341.066	51.2
341.278	141.31
341.491	63.49
341.703	114.69
341.915	-12.29
342.128	118.78
342.34	102.4
342.552	61.44
342.764	102.4
342.977	69.63
343.189	14.34
343.401	63.49
343.613	45.06
343.826	57.34
344.038	20.48
344.25	67.58
344.462	106.49
344.674	51.2
344.886	14.34
345.099	92.16
345.311	63.49
345.523	81.92
345.735	114.69
345.947	38.91
346.159	26.62
346.371	36.86
346.583	-8.19
346.795	104.45
347.007	40.96
347.219	49.15
347.431	86.01
347.643	100.35
347.855	26.62
348.067	90.11
348.279	-6.14
348.491	61.44
348.703	43.01
348.915	94.21
349.127	34.82
349.339	88.06
349.551	30.72
349.763	30.72
349.975	20.48
350.187	133.12
350.399	96.25
350.61	69.63
350.822	22.53
351.034	96.25
351.246	14.34
351.458	86.01
351.669	53.25
351.881	88.06
352.093	63.49
352.305	34.82
352.517	112.64
352.728	59.39
352.94	53.25
353.152	67.58
353.363	45.06
353.575	45.06
353.787	110.59
353.999	43.01
354.21	43.01
354.422	34.82
354.633	47.1
354.845	53.25
355.057	14.34
355.268	51.2
355.48	133.12
355.692	14.34
355.903	47.1
356.115	2.05
356.326	18.43
356.538	57.34
356.749	98.3
356.961	86.01
357.172	8.19
357.384	71.68
357.595	79.87
357.807	106.49
358.018	69.63
358.23	75.77
358.441	108.54
358.653	69.63
358.864	71.68
359.075	90.11
359.287	32.77
359.498	180.22
359.709	71.68
359.921	45.06
360.132	112.64
360.344	75.77
360.555	8.19
360.766	22.53
360.977	-20.48
361.189	59.39
361.4	57.34
361.611	65.54
361.823	0
362.034	75.77
362.245	-2.05
362.456	18.43
362.667	30.72
362.879	32.77
363.09	67.58
363.301	79.87
363.512	14.34
363.723	40.96
363.935	102.4
364.146	92.16
364.357	59.39
364.568	81.92
364.779	12.29
364.99	55.3
365.201	129.02
365.412	88.06
365.623	90.11
365.834	88.06
366.045	55.3
366.256	59.39
366.467	57.34
366.678	94.21
366.889	55.3
367.1	43.01
367.311	55.3
367.522	112.64
367.733	67.58
367.944	12.29
368.155	38.91
368.366	59.39
368.577	147.45
368.788	98.3
368.999	86.01
369.209	83.97
369.42	90.11
369.631	118.78
369.842	112.64
370.053	81.92
370.264	112.64
370.474	-4.1
370.685	61.44
370.896	88.06
371.107	14.34
371.317	100.35
371.528	38.91
371.739	108.54
371.95	100.35
372.16	88.06
372.371	22.53
372.582	57.34
372.792	141.31
373.003	30.72
373.214	108.54
373.424	24.58
373.635	83.97
373.846	43.01
374.056	67.58
374.267	57.34
374.477	75.77
374.688	36.86
374.898	81.92
375.109	77.82
375.319	28.67
375.53	112.64
375.74	86.01
375.951	43.01
376.161	61.44
376.372	100.35
376.582	43.01
376.793	118.78
377.003	30.72
377.214	100.35
377.424	133.12
377.635	110.59
377.845	2.05
378.055	65.54
378.266	96.25
378.476	100.35
378.686	26.62
378.897	114.69
379.107	51.2
379.317	51.2
379.528	43.01
379.738	77.82
379.948	100.35
380.158	49.15
380.369	40.96
380.579	55.3
380.789	73.73
380.999	30.72
381.21	47.1
381.42	153.6
381.63	36.86
381.84	36.86
382.05	75.77
382.261	118.78
382.471	59.39
382.681	38.91
382.891	159.74
383.101	102.4
383.311	24.58
383.521	38.91
383.731	106.49
383.941	47.1
384.151	63.49
384.361	22.53
384.571	69.63
384.781	129.02
384.991	155.65
385.201	149.5
385.411	110.59
385.621	73.73
385.831	69.63
386.041	-6.14
386.251	-26.62
386.461	135.17
386.671	122.88
386.881	102.4
387.091	96.25
387.301	86.01
387.511	71.68
387.72	81.92
387.93	49.15
388.14	75.77
388.35	40.96
388.56	20.48
388.769	96.25
388.979	124.93
389.189	32.77
389.399	49.15
389.609	65.54
389.818	53.25
390.028	57.34
390.238	61.44
390.447	43.01
390.657	112.64
390.867	24.58
391.076	53.25
391.286	53.25
391.496	59.39
391.705	108.54
391.915	67.58
392.125	49.15
392.334	69.63
392.544	145.41
392.753	118.78
392.963	116.73
393.172	30.72
393.382	49.15
393.591	155.65
393.801	47.1
394.01	178.17
394.22	96.25
394.429	47.1
394.639	36.86
394.848	75.77
395.058	73.73
395.267	92.16
395.477	157.69
395.686	71.68
395.895	129.02
396.105	157.69
396.314	108.54
396.524	112.64
396.733	77.82
396.942	174.08
397.152	135.17
397.361	112.64
397.57	88.06
397.78	118.78
397.989	135.17
398.198	169.98
398.407	137.21
398.617	104.45
398.826	122.88
399.035	63.49
399.244	122.88
399.453	120.83
399.663	131.07
399.872	81.92
400.081	94.21
400.29	133.12
400.499	71.68
400.708	96.25
400.917	120.83
401.127	135.17
401.336	118.78
401.545	200.7
401.754	67.58
401.963	196.61
402.172	106.49
402.381	120.83
402.59	141.31
402.799	118.78
403.008	149.5
403.217	122.88
403.426	206.84
403.635	79.87
403.844	182.27
404.053	161.79
404.262	143.36
404.471	235.52
404.68	200.7
404.888	161.79
405.097	190.46
405.306	215.04
405.515	237.56
405.724	112.64
405.933	167.93
406.142	221.18
406.35	192.51
406.559	151.55
406.768	239.61
406.977	223.23
407.185	184.32
407.394	333.82
407.603	210.94
407.812	253.95
408.02	282.62
408.229	276.48
408.438	282.62
408.646	272.38
408.855	243.71
409.064	290.81
409.272	251.9
409.481	284.67
409.69	296.96
409.898	331.77
410.107	305.15
410.315	413.69
410.524	299
410.733	301.05
410.941	423.93
411.15	370.68
411.358	397.31
411.567	378.87
411.775	425.98
411.984	403.45
412.192	468.98
412.401	471.03
412.609	548.86
412.818	446.46
413.026	511.99
413.234	544.76
413.443	634.87
413.651	628.73
413.86	620.53
414.068	665.59
414.276	743.41
414.485	679.93
414.693	694.26
414.901	694.26
415.11	651.25
415.318	684.02
415.526	772.08
415.734	761.84
415.943	841.72
416.151	892.91
416.359	847.86
416.567	972.79
416.776	927.73
416.984	960.5
417.192	1005.55
417.4	964.59
417.608	1030.13
417.817	1003.5
418.025	1126.38
418.233	1241.07
418.441	1159.15
418.649	1169.39
418.857	1322.99
419.065	1349.61
419.273	1388.52
419.481	1417.19
419.689	1472.49
419.897	1595.37
420.105	1591.27
420.313	1576.94
420.521	1634.28
420.729	1767.4
420.937	1644.52
421.145	1767.4
421.353	1863.65
421.561	2031.59
421.769	1929.19
421.977	2086.88
422.185	2191.33
422.393	2277.34
422.601	2351.07
422.809	2314.2
423.017	2471.9
423.224	2437.08
423.432	2461.66
423.64	2576.34
423.848	2731.99
424.056	2734.04
424.263	2934.74
424.471	2895.83
424.679	3002.32
424.887	3100.62
425.094	3258.32
425.302	3270.61
425.51	3364.81
425.718	3463.12
425.925	3639.24
426.133	3665.86
426.341	3774.41
426.548	3948.48
426.756	3989.44
426.964	3942.34
427.171	4335.55
427.379	4446.14
427.586	4478.91
427.794	4552.63
428.001	4753.34
428.209	5040.05
428.417	5007.28
428.624	5306.29
428.832	5296.05
429.039	5271.47
429.247	5382.06
429.454	5701.55
429.662	6090.66
429.869	5765.03
430.076	6055.84
430.284	6166.43
430.491	6098.85
430.699	6670.23
430.906	6549.4
431.114	6786.97
431.321	6862.74
431.528	7085.97
431.736	7552.91
431.943	7927.69
432.15	7640.97
432.358	7788.43
432.565	8118.15
432.772	8224.64
432.979	8400.77
433.187	8695.68
433.394	8818.55
433.601	9054.07
433.808	9328.5
434.016	9381.74
434.223	9731.95
434.43	10274.66
434.637	9867.11
434.844	10465.12
435.052	10626.91
435.259	10647.39
435.466	10737.5
435.673	10622.81
435.88	11474.77
436.087	12164.93
436.294	12089.16
436.501	11661.13
436.708	11724.62
436.915	12496.71
437.122	12746.56
437.329	12752.7
437.537	13465.39
437.743	13510.45
437.95	13442.87
438.157	14010.15
438.364	14423.84
438.571	14057.26
438.778	14378.79
438.985	15859.47
439.192	15204.12
439.399	15804.17
439.606	15265.56
439.813	16385.8
440.02	17315.58
440.227	17043.2
440.433	16649.99
440.64	17436.41
440.847	17338.1
441.054	17725.17
441.261	18630.37
441.467	18644.71
441.674	19056.35
441.881	19521.24
442.088	19697.36
442.294	19277.53
442.501	19797.71
442.708	20268.75
442.914	21315.26
443.121	21733.04
443.328	21554.87
443.534	22898.34
443.741	22216.36
443.948	21872.31
444.154	23291.55
444.361	23281.31
444.568	23660.18
444.774	23561.88
444.981	23738.01
445.187	24256.14
445.394	25665.14
445.6	24974.98
445.807	27723.35
446.013	26195.57
446.22	27004.52
446.426	27795.03
446.633	27948.63
446.839	28767.82
447.046	27598.43
447.252	29236.8
447.459	29034.05
447.665	29142.6
447.871	30297.65
448.078	31677.98
448.284	30088.76
448.491	31057.45
448.697	31905.31
448.903	32765.45
449.11	32611.85
449.316	32294.42
449.522	32679.44
449.728	33162.76
449.935	33484.29
450.141	33666.56
450.347	34467.31
450.553	33117.7
450.76	33918.46
450.966	35188.2
451.172	34231.8
451.378	35257.83
451.584	34543.09
451.791	35343.84
451.997	35296.74
452.203	35757.53
452.409	35964.38
452.615	35642.85
452.821	34280.95
453.027	33951.23
453.233	35767.77
453.44	33803.77
453.646	34270.71
453.852	34596.34
454.058	35266.02
454.264	34186.74
454.47	34821.61
454.676	33410.56
454.882	35253.73
455.088	31823.39
455.294	32341.52
455.5	32853.51
455.705	33291.78
455.911	31868.44
456.117	31073.83
456.323	30887.46
456.529	29077.06
456.735	30170.68
456.941	29451.84
457.147	29013.57
457.352	28331.6
457.558	27930.2
457.764	27895.38
457.97	27410.01
458.176	26484.33
458.381	26603.11
458.587	25480.83
458.793	25431.68
458.999	24129.17
459.204	25583.23
459.41	25546.36
459.616	23477.91
459.821	23445.15
460.027	23367.32
460.233	22957.73
460.438	21991.09
460.644	21974.7
460.85	20960.96
461.055	20981.44
461.261	20829.89
461.466	19187.42
461.672	18550.5
461.878	19816.15
462.083	18704.1
462.289	18020.08
462.494	17991.41
462.7	17645.3
462.905	16875.26
463.111	17465.08
463.316	17686.26
463.522	17186.55
463.727	17278.71
463.932	17053.44
464.138	17055.48
464.343	17010.43
464.549	16539.4
464.754	16877.31
464.959	16930.56
465.165	16684.8
465.37	16086.79
465.575	16115.47
465.781	16080.65
465.986	16660.23
466.191	15748.88
466.397	15826.7
466.602	14802.72
466.807	15208.22
467.012	15339.29
467.218	15101.72
467.423	14815.01
467.628	15367.96
467.833	15767.31
468.038	15304.47
468.244	14837.53
468.449	15556.37
468.654	14792.48
468.859	14806.81
469.064	14563.11
469.269	14094.12
469.474	14331.69
469.679	14397.22
469.885	14044.97
470.09	14268.2
470.295	13989.67
470.5	13674.29
470.705	13932.33
470.91	13547.31
471.115	13596.46
471.32	13711.15
471.525	13387.57
471.73	13186.87
471.935	13139.77
472.139	12621.63
472.344	12681.02
472.549	12724.03
472.754	12599.1
472.959	12527.42
473.164	11953.99
473.369	12160.84
473.574	12457.79
473.778	12429.12
473.983	12189.51
474.188	12113.74
474.393	11634.51
474.598	11409.23
474.802	11364.18
475.007	11517.78
475.212	11382.61
475.417	11097.94
475.621	10966.87
475.826	11022.17
476.031	11030.36
476.235	10745.69
476.44	10858.33
476.645	10612.57
476.849	10905.43
477.054	10493.79
477.259	10387.3
477.463	10452.83
477.668	10123.11
477.872	10221.41
478.077	10035.05
478.282	9820.01
478.486	9969.51
478.691	9762.67
478.895	9756.52
479.1	9697.13
479.304	9539.44
479.509	9432.94
479.713	9576.3
479.918	9281.39
480.122	9099.13
480.326	9400.18
480.531	9308.02
480.735	9252.72
480.94	9135.99
481.144	9205.62
481.348	8869.75
481.553	9226.1
481.757	8695.68
481.961	9078.65
482.166	9246.58
482.37	9082.74
482.574	8761.21
482.778	8963.96
482.983	9025.4
483.187	8986.49
483.391	9035.64
483.595	8945.53
483.8	8992.63
484.004	9039.73
484.208	9070.45
484.412	8931.19
484.616	8984.44
484.821	9054.07
485.025	8761.21
485.229	8992.63
485.433	8882.04
485.637	9019.25
485.841	8912.76
486.045	9054.07
486.249	8998.77
486.453	8861.56
486.657	8830.84
486.861	9004.92
487.065	8664.96
487.269	8853.37
487.473	8703.87
487.677	8986.49
487.881	9174.9
488.085	8984.44
488.289	9103.22
488.493	8959.86
488.697	9025.4
488.901	9086.84
489.105	9066.36
489.309	9060.21
489.512	9111.41
489.716	9054.07
489.92	9031.54
490.124	8994.68
490.328	9271.15
490.531	8994.68
490.735	9045.88
490.939	9224.05
491.143	9144.18
491.346	9240.43
491.55	9676.65
491.754	9359.22
491.958	9457.52
492.161	9277.3
492.365	9537.39
492.569	9600.88
492.772	9402.22
492.976	9688.94
493.18	9752.43
493.383	9635.69
493.587	9758.57
493.79	9977.7
493.994	9746.28
494.197	9856.87
494.401	9975.66
494.605	10043.24
494.808	9940.84
495.012	10139.49
495.215	10076.01
495.419	10442.59
495.622	10329.95
495.825	10424.16
496.029	10547.04
496.232	11081.56
496.436	10721.12
496.639	11042.65
496.843	10848.09
497.046	11099.99
497.249	11257.68
497.453	11026.26
497.656	11376.47
497.859	11233.11
498.063	11523.92
498.266	11571.02
498.469	11749.2
498.673	11593.55
498.876	12060.49
499.079	12232.52
499.282	12074.82
499.485	12351.3
499.689	12482.37
499.892	12674.88
500.095	12879.68
500.298	13086.52
500.501	12904.25
500.705	13324.08
500.908	13377.33
501.111	13551.41
501.314	13723.44
501.517	13690.67
501.72	13995.82
501.923	13817.65
502.126	14270.25
502.329	14446.37
502.532	14460.71
502.735	14507.81
502.938	14933.79
503.141	15081.24
503.344	15052.57
503.547	15238.94
503.75	15509.27
503.953	15636.24
504.156	15910.67
504.359	16121.61
504.562	16201.48
504.765	16385.8
504.968	16547.59
505.17	16922.37
505.373	16852.73
505.576	17014.52
505.779	17413.88
505.982	17551.09
506.185	17641.2
506.387	17805.04
506.59	17942.25
506.793	18507.49
506.996	18173.67
507.198	18816.74
507.401	18706.15
507.604	19175.13
507.807	19388.12
508.009	19478.23
508.212	19472.09
508.415	19830.48
508.617	19977.94
508.82	20160.2
509.022	20250.32
509.225	20512.46
509.428	20821.7
509.63	20836.03
509.833	21053.12
510.035	21683.89
510.238	21225.15
510.44	21743.28
510.643	22271.66
510.845	22245.04
511.048	22116.01
511.25	22671.01
511.453	22662.82
511.655	23516.83
511.858	23320.22
512.06	23498.39
512.262	23733.91
512.465	23422.62
512.667	24065.68
512.87	24493.71
513.072	24678.02
513.274	24991.36
513.477	25210.5
513.679	25386.62
513.881	25718.39
514.084	25949.81
514.286	25882.23
514.488	26310.25
514.69	27428.45
514.893	26924.65
515.095	27031.14
515.297	27289.18
515.499	27614.81
515.701	27825.75
515.904	28040.79
516.106	28290.64
516.308	28710.47
516.51	29224.51
516.712	28986.95
516.914	29511.23
517.116	29914.68
517.318	30154.29
517.52	29967.93
517.722	30369.33
517.925	30494.25
518.127	31061.54
518.329	31049.25
518.531	30944.81
518.733	31804.95
518.935	32144.92
519.136	32112.15
519.338	32611.85
519.54	32587.28
519.742	33234.44
519.944	33420.8
520.146	33408.51
520.348	33883.64
520.55	33869.31
520.752	34129.4
520.954	34704.88
521.155	34637.3
521.357	35065.32
521.559	35122.66
521.761	35806.69
521.963	35622.37
522.164	36031.96
522.366	36083.16
522.568	36576.72
522.77	36677.07
522.971	37316.04
523.173	37207.5
523.375	37483.97
523.576	37342.66
523.778	37647.81
523.98	38108.6
524.181	38329.78
524.383	38671.79
524.584	38956.46
524.786	38985.13
524.988	38786.48
525.189	39484.84
525.391	39796.13
525.592	39554.47
525.794	39994.78
525.995	40154.52
526.197	40258.97
526.398	40594.84
526.6	40435.1
526.801	40289.69
527.003	41434.5
527.204	41373.06
527.406	41577.86
527.607	41348.49
527.808	41573.77
528.01	41151.88
528.211	41645.44
528.412	42261.88
528.614	42046.85
528.815	42177.92
529.016	42564.98
529.218	42233.21
529.419	42794.36
529.62	42888.56
529.822	43056.5
530.023	42761.59
530.224	42933.62
530.425	43330.92
530.626	42642.81
530.828	43013.49
531.029	43646.31
531.23	43246.96
531.431	43234.67
531.632	43621.73
531.833	43699.56
532.035	43597.16
532.236	43752.8
532.437	43244.91
532.638	43517.29
532.839	43779.43
533.04	43693.41
533.241	43795.81
533.442	44514.65
533.643	44350.81
533.844	44387.67
534.045	44227.93
534.246	43926.88
534.447	44352.86
534.648	43765.09
534.849	44244.32
535.05	44051.81
535.251	44029.28
535.451	44250.46
535.652	44393.82
535.853	44551.51
536.054	44422.49
536.255	44655.96
536.456	44096.86
536.657	44903.76
536.857	44449.11
537.058	44281.18
537.259	44854.61
537.46	44377.43
537.66	44791.12
537.861	44871
538.062	44350.81
538.263	44973.39
538.463	44459.35
538.664	44385.63
538.865	44866.9
539.065	44842.32
539.266	44326.24
539.466	44793.17
539.667	44023.14
539.868	44592.47
540.068	44711.25
540.269	44594.52
540.469	44729.69
540.67	44559.7
540.87	44586.33
541.071	44426.59
541.271	44215.65
541.472	44694.87
541.672	44350.81
541.873	44328.28
542.073	43984.22
542.274	44504.41
542.474	44393.82
542.675	44031.33
542.875	44821.84
543.075	44588.38
543.276	43941.22
543.476	44694.87
543.676	44506.46
543.877	44223.84
544.077	44395.87
544.277	44170.59
544.478	44301.66
544.678	44533.08
544.878	44244.32
545.078	44500.31
545.279	43922.79
545.479	44451.16
545.679	44135.77
545.879	44369.24
546.079	44647.77
546.28	43785.57
546.48	43527.53
546.68	44375.39
546.88	44277.08
547.08	44293.47
547.28	43847.01
547.48	43674.98
547.68	43908.45
547.88	43580.78
548.081	44268.89
548.281	43998.56
548.481	44072.29
548.681	44399.96
548.881	43638.12
549.081	44244.32
549.28	43914.59
549.48	44270.94
549.68	44146.01
549.88	44555.61
550.08	43656.55
550.28	44166.49
550.48	44131.68
550.68	44625.24
550.88	43941.22
551.08	44111.2
551.279	44113.25
551.479	43900.26
551.679	43822.44
551.879	43912.55
552.079	43984.22
552.278	43580.78
552.478	43877.73
552.678	43900.26
552.878	44055.9
553.077	43830.63
553.277	43679.08
553.477	44586.33
553.676	43595.11
553.876	43668.84
554.076	43783.52
554.275	43113.84
554.475	43093.36
554.674	43650.41
554.874	43693.41
555.074	43199.85
555.273	43828.58
555.473	43609.45
555.672	43384.17
555.872	43351.4
556.071	43283.82
556.271	43867.49
556.47	43054.45
556.67	43191.66
556.869	42841.46
557.068	43165.04
557.268	43054.45
557.467	43089.26
557.667	43224.43
557.866	43066.73
558.065	43025.78
558.265	42517.88
558.464	42970.48
558.663	43302.25
558.863	42222.97
559.062	43124.08
559.261	42247.55
559.461	42876.27
559.66	42292.6
559.859	42376.57
560.058	42169.72
560.258	42542.45
560.457	41835.91
560.656	42491.26
560.855	41885.06
561.054	42050.94
561.253	41901.44
561.453	42081.66
561.652	41708.93
561.851	42124.67
562.05	41780.61
562.249	41143.69
562.448	41819.52
562.647	41315.72
562.846	41758.08
563.045	41567.62
563.244	40836.5
563.443	41452.94
563.642	40603.03
563.841	41442.7
564.04	40529.3
564.239	41037.2
564.438	40795.54
564.637	40682.9
564.836	40445.33
565.035	40416.66
565.234	40453.53
565.432	40863.12
565.631	40390.04
565.83	40467.86
566.029	39972.25
566.228	40054.17
566.427	40246.68
566.625	39263.66
566.824	39210.41
567.023	40127.9
567.222	38759.86
567.42	39771.55
567.619	39071.15
567.818	39204.27
568.016	39157.16
568.215	39603.62
568.414	38956.46
568.612	39429.54
568.811	38911.41
569.01	38882.73
569.208	38557.11
569.407	38874.54
569.605	38432.18
569.804	38829.49
570.002	37821.89
570.201	38653.36
570.4	38030.78
570.598	38206.9
570.797	37821.89
570.995	37932.48
571.193	37434.82
571.392	37979.58
571.59	37467.59
571.789	37412.29
571.987	37412.29
572.186	37281.22
572.384	37326.28
572.582	37146.06
572.781	37252.55
572.979	36656.59
573.177	36939.21
573.376	37129.67
573.574	36582.87
573.772	36898.25
573.971	36503
574.169	36290.01
574.367	36218.33
574.565	36222.42
574.763	36343.25
574.962	35825.12
575.16	35730.91
575.358	35884.51
575.556	35102.18
575.754	35741.15
575.952	35206.63
576.151	35732.96
576.349	35470.82
576.547	35169.77
576.745	35057.13
576.943	35304.93
577.141	35081.7
577.339	34946.54
577.537	34645.49
577.735	34938.35
577.933	34291.19
578.131	34782.7
578.329	34221.56
578.527	34305.52
578.725	34627.06
578.923	34541.04
579.121	34012.67
579.319	33695.23
579.516	34246.13
579.714	33949.18
579.912	33711.61
580.11	33969.66
580.308	33498.62
580.506	33498.62
580.704	33318.4
580.901	33609.22
581.099	33410.56
581.297	32994.82
581.495	33062.41
581.692	33125.89
581.89	32710.16
582.088	32939.53
582.285	32714.25
582.483	33005.06
582.681	32484.88
582.878	32515.6
583.076	31888.92
583.274	32564.75
583.471	31991.32
583.669	32128.53
583.866	32036.38
584.064	32235.03
584.262	31589.92
584.459	32132.63
584.657	31764
584.854	32144.92
585.052	31233.57
585.249	31417.89
585.447	31399.46
585.644	30940.71
585.841	31174.18
586.039	31436.32
586.236	31043.11
586.434	30989.86
586.631	30729.77
586.828	30979.62
587.026	31018.53
587.223	30938.66
587.42	30236.21
587.618	30400.05
587.815	30303.79
588.012	30283.31
588.21	30031.41
588.407	30625.32
588.604	29890.1
588.801	29830.71
588.999	29892.15
589.196	29652.54
589.393	30203.44
589.59	29552.19
589.787	29359.68
589.984	29412.93
590.182	28948.04
590.379	29242.95
590.576	29220.42
590.773	29148.74
590.97	28974.66
591.167	29025.86
591.364	28825.16
591.561	28634.7
591.758	28759.63
591.955	28429.9
592.152	28696.14
592.349	28528.2
592.546	28440.14
592.743	28417.61
592.94	28040.79
593.137	27842.14
593.334	27967.06
593.531	27989.59
593.727	27752.02
593.924	27874.9
594.121	27715.16
594.318	27942.49
594.515	27272.8
594.712	27811.42
594.908	27467.36
595.105	27381.34
595.302	27076.19
595.499	27008.61
595.696	27233.89
595.892	27266.66
596.089	27102.82
596.286	27074.15
596.482	26652.27
596.679	26732.14
596.876	26979.94
597.072	26568.3
597.269	26715.75
597.466	26304.11
597.662	26523.24
597.859	26130.03
598.055	26527.34
598.252	26070.64
598.448	26117.75
598.645	25955.96
598.841	26001.01
599.038	25466.49
599.234	25669.24
599.431	25546.36
599.627	25554.55
599.824	25505.4
600.02	25509.5
600.217	25462.4
600.413	25218.69
600.609	25208.45
600.806	24915.59
601.002	24864.39
601.198	25020.03
601.395	24731.27
601.591	24823.43
601.787	24532.62
601.984	24675.98
602.18	24800.9
602.376	24383.12
602.572	24338.06
602.769	24145.55
602.965	24116.88
603.161	24202.89
603.357	24305.29
603.553	23885.46
603.75	23957.14
603.946	23621.27
604.142	23852.69
604.338	23746.2
604.534	23615.13
604.73	23539.35
604.926	23301.79
605.122	23735.96
605.318	23352.99
605.514	23205.53
605.71	23191.2
605.906	23113.38
606.102	23006.88
606.298	23279.26
606.494	22898.34
606.69	22892.19
606.886	22978.21
607.082	22419.11
607.278	23066.27
607.474	22339.24
607.67	22492.84
607.866	22333.1
608.062	22816.42
608.257	22355.63
608.453	22582.95
608.649	22521.51
608.845	22337.2
609.041	22036.14
609.236	22253.23
609.432	22294.19
609.628	22103.73
609.824	21939.89
610.019	22032.05
610.215	21915.31
610.411	21970.61
610.606	21608.12
610.802	21978.8
610.998	21673.65
611.193	21968.56
611.389	21575.35
611.584	21458.62
611.78	21378.75
611.976	21313.21
612.171	21587.64
612.367	21405.37
612.562	21061.31
612.758	21057.21
612.953	21044.93
613.149	21255.87
613.344	20960.96
613.539	21372.6
613.735	20995.78
613.93	21153.47
614.126	20833.99
614.321	21274.3
614.517	20985.54
614.712	20879.04
614.907	20625.09
615.103	20940.48
615.298	20446.92
615.493	20872.9
615.688	20094.67
615.884	21081.79
616.079	20141.77
616.274	20453.06
616.47	20170.44
616.665	20438.73
616.86	20412.1
617.055	20428.49
617.25	20188.88
617.445	20475.59
617.641	19881.68
617.836	20031.18
618.031	19885.78
618.226	20102.86
618.421	19609.3
618.616	20109.01
618.811	19781.33
619.006	19752.66
619.201	19341.02
619.396	19674.84
619.591	19214.04
619.786	19488.47
619.981	19029.73
620.176	19521.24
620.371	19138.27
620.566	19173.08
620.761	19058.4
620.956	19291.87
621.151	18566.88
621.346	19175.13
621.541	18628.32
621.735	18818.78
621.93	18255.59
622.125	18497.25
622.32	18202.35
622.515	18267.88
622.709	18095.85
622.904	18013.93
623.099	18034.41
623.294	17932.01
623.488	18020.08
623.683	17913.58
623.878	17551.09
624.072	17344.25
624.267	17618.68
624.462	17454.84
624.656	17149.69
624.851	17059.58
625.046	17137.4
625.24	16977.66
625.435	16723.71
625.629	16897.79
625.824	16643.84
626.018	16621.31
626.213	16340.74
626.407	16596.74
626.602	16209.67
626.796	16150.28
626.991	16312.07
627.185	16113.42
627.38	15974.16
627.574	15873.81
627.768	15992.59
627.963	15476.5
628.157	15716.11
628.352	15707.92
628.546	15308.57
628.74	15353.62
628.935	15288.09
629.129	15331.09
629.323	15118.11
629.517	15003.42
629.712	14878.49
629.906	14921.5
630.1	14751.52
630.294	14587.68
630.489	14673.7
630.683	14616.35
630.877	14243.62
631.071	14473
631.265	14491.43
631.459	14069.55
631.653	14116.65
631.848	14389.03
632.042	14126.89
632.236	14233.38
632.43	13983.53
632.624	13840.17
632.818	13743.92
633.012	13639.47
633.206	13408.05
633.4	13649.71
633.594	13373.24
633.788	13467.44
633.982	13274.93
634.176	13279.03
634.369	13281.08
634.563	13121.34
634.757	12918.59
634.951	13123.38
635.145	13000.51
635.339	13104.95
635.533	12670.78
635.726	12695.36
635.92	12668.73
636.114	12511.04
636.308	12513.09
636.501	12394.31
636.695	12371.78
636.889	12326.72
637.083	12285.76
637.276	11882.31
637.47	12009.29
637.664	12134.21
637.857	12263.24
638.051	12033.86
638.244	11698
638.438	11851.6
638.632	11859.79
638.825	11501.39
639.019	11509.58
639.212	11503.44
639.406	11521.87
639.599	11485.01
639.793	11321.17
639.986	11106.13
640.18	11177.81
640.373	11241.3
640.567	11034.46
640.76	10999.64
640.954	10766.17
641.147	10860.38
641.34	10678.11
641.534	10940.25
641.727	10717.02
641.92	10721.12
642.114	10329.95
642.307	10489.7
642.5	10426.21
642.694	10450.78
642.887	10329.95
643.08	10291.04
643.273	10278.76
643.467	10223.46
643.66	10147.69
643.853	10225.51
644.046	9989.99
644.239	10098.53
644.432	9625.45
644.626	9791.34
644.819	9799.53
645.012	9707.37
645.205	9832.3
645.398	9654.12
645.591	9445.23
645.784	9637.74
645.977	9123.7
646.17	9488.24
646.363	9473.9
646.556	9195.38
646.749	9406.32
646.942	9215.86
647.135	9181.04
647.328	9160.56
647.521	9041.78
647.714	8814.46
647.907	9082.74
648.099	8732.54
648.292	8984.44
648.485	8900.47
648.678	8617.85
648.871	8546.17
649.064	8857.46
649.256	8771.45
649.449	8724.35
649.642	8634.24
649.835	8507.26
650.027	8316.8
650.22	8341.38
650.413	8357.76
650.605	8257.41
650.798	8384.38
650.991	8148.87
651.183	8157.06
651.376	8206.21
651.568	8185.73
651.761	8019.85
651.954	8052.61
652.146	7847.82
652.339	7929.74
652.531	7870.34
652.724	7804.81
652.916	7690.12
653.109	7901.06
653.301	7700.36
653.494	7686.03
653.686	7604.11
653.879	7452.56
654.071	7581.58
654.263	7483.28
654.456	7548.81
654.648	7462.8
654.84	7165.84
655.033	7526.29
655.225	7344.02
655.417	7348.11
655.61	7255.95
655.802	7284.62
655.994	7231.38
656.186	7380.88
656.379	6999.96
656.571	7204.75
656.763	7026.58
656.955	6971.29
657.148	7014.29
657.34	6985.62
657.532	6797.21
657.724	6741.91
657.916	6842.26
658.108	6832.02
658.3	6739.87
658.492	6758.3
658.684	6584.22
658.876	6752.15
659.068	6551.45
659.26	6395.81
659.452	6500.25
659.644	6465.44
659.836	6457.25
660.028	6412.19
660.22	6148
660.412	6334.37
660.604	6344.61
660.796	6379.42
660.988	6391.71
661.18	6176.67
661.372	6240.16
661.563	6305.7
661.755	6135.71
661.947	6240.16
662.139	6021.03
662.331	5980.07
662.522	6031.27
662.714	5988.26
662.906	6082.47
663.097	5832.61
663.289	5799.85
663.481	5963.68
663.673	5822.38
663.864	5722.02
664.056	5812.14
664.247	5728.17
664.439	5715.88
664.631	5687.21
664.822	5816.23
665.014	5654.44
665.205	5578.67
665.397	5541.8
665.588	5590.95
665.78	5717.93
665.971	5588.91
666.163	5529.52
666.354	5578.67
666.546	5453.74
666.737	5386.16
666.929	5418.93
667.12	5314.48
667.311	5343.15
667.503	5408.69
667.694	5373.87
667.885	5324.72
668.077	5371.82
668.268	5216.18
668.459	5304.24
668.651	5173.17
668.842	5126.07
669.033	5058.48
669.224	5197.74
669.416	5158.83
669.607	5105.59
669.798	5199.79
669.989	5035.96
670.18	5169.07
670.371	4968.37
670.563	5011.38
670.754	5085.11
670.945	5031.86
671.136	4896.69
671.327	4984.76
671.518	4872.12
671.709	4921.27
671.9	4966.32
672.091	4939.7
672.282	4820.92
672.473	4745.14
672.664	4708.28
672.855	4837.3
673.046	4726.71
673.237	4843.45
673.428	4784.06
673.619	4798.39
673.809	4741.05
674	4597.69
674.191	4722.62
674.382	4650.94
674.573	4792.25
674.764	4650.94
674.954	4640.7
675.145	4587.45
675.336	4716.47
675.527	4683.7
675.717	4677.56
675.908	4540.35
676.099	4585.4
676.289	4771.77
676.48	4585.4
676.671	4452.28
676.861	4747.19
677.052	4517.82
677.243	4376.51
677.433	4427.71
677.624	4468.67
677.814	4485.05
678.005	4538.3
678.195	4552.63
678.386	4460.48
678.576	4417.47
678.767	4390.85
678.957	4437.95
679.148	4476.86
679.338	4579.26
679.529	4345.79
679.719	4440
679.909	4440
680.1	4450.24
680.29	4573.11
680.481	4497.34
680.671	4464.57
680.861	4351.93
681.052	4396.99
681.242	4429.76
681.432	4423.61
681.622	4476.86
681.813	4270.01
682.003	4358.08
682.193	4331.45
682.383	4423.61
682.573	4358.08
682.764	4560.83
682.954	4448.19
683.144	4321.21
683.334	4325.31
683.524	4263.87
683.714	4163.52
683.904	4216.77
684.094	4323.26
684.284	4345.79
684.474	4351.93
684.664	4319.17
684.854	4327.36
685.044	4292.54
685.234	4261.82
685.424	4220.86
685.614	4188.1
685.804	4112.32
685.994	4263.87
686.184	4216.77
686.374	4286.4
686.564	4116.42
686.753	4239.3
686.943	4173.76
687.133	4016.07
687.323	4073.41
687.513	4124.61
687.702	4059.07
687.892	4038.59
688.082	4038.59
688.272	3993.54
688.461	3962.82
688.651	3923.91
688.841	4134.85
689.03	4005.83
689.22	3977.16
689.41	3950.53
689.599	4032.45
689.789	3944.39
689.979	3839.94
690.168	3930.05
690.358	3917.76
690.547	3813.32
690.737	3917.76
690.926	3776.45
691.116	3762.12
691.305	3907.52
691.495	3897.28
691.684	3676.1
691.874	3745.73
692.063	3686.34
692.252	3706.82
692.442	3846.09
692.631	3643.34
692.82	3663.82
693.01	3594.19
693.199	3616.71
693.388	3575.75
693.578	3678.15
693.767	3542.99
693.956	3614.66
694.146	3592.14
694.335	3557.32
694.524	3643.34
694.713	3536.84
694.902	3659.72
695.092	3542.99
695.281	3485.64
695.47	3499.98
695.659	3469.26
695.848	3528.65
696.037	3479.5
696.226	3504.07
696.415	3358.67
696.604	3639.24
696.793	3485.64
696.982	3483.59
697.171	3592.14
697.36	3440.59
697.549	3428.3
697.738	3547.08
697.927	3473.35
698.116	3385.29
698.305	3506.12
698.494	3499.98
698.683	3536.84
698.872	3459.02
699.061	3493.83
699.25	3332.05
699.438	3391.44
699.627	3241.93
699.816	3389.39
700.005	3366.86
700.193	3278.8
700.382	3420.11
700.571	3332.05
700.76	3317.71
700.948	3286.99
701.137	3364.81
701.326	3366.86
701.514	3399.63
701.703	3413.96
701.892	3286.99
702.08	3381.2
702.269	3446.73
702.457	3323.85
702.646	3377.1
702.834	3321.81
703.023	3231.69
703.212	3440.59
703.4	3323.85
703.589	3362.76
703.777	3489.74
703.965	3268.56
704.154	3233.74
704.342	3330
704.531	3297.23
704.719	3106.77
704.907	3299.28
705.096	3035.09
705.284	3391.44
705.472	3366.86
705.661	3274.7
705.849	3289.04
706.037	3348.43
706.226	3190.74
706.414	3286.99
706.602	3309.52
706.79	3385.29
706.979	3225.55
707.167	3190.74
707.355	3313.61
707.543	3311.57
707.731	3319.76
707.919	3342.28
708.107	3258.32
708.296	3381.2
708.484	3311.57
708.672	3258.32
708.86	3330
709.048	3243.98
709.236	3397.58
709.424	3362.76
709.612	3395.53
709.8	3200.98
709.988	3356.62
710.176	3350.48
710.364	3282.89
710.551	3297.23
710.739	3182.54
710.927	3297.23
711.115	3203.02
711.303	3430.35
711.491	3286.99
711.679	3174.35
711.866	3289.04
712.054	3235.79
712.242	3272.65
712.43	3358.67
712.617	3217.36
712.805	3409.87
712.993	3377.1
713.181	3278.8
713.368	3373
713.556	3321.81
713.744	3291.09
713.931	3299.28
714.119	3278.8
714.306	3172.3
714.494	3284.94
714.682	3387.34
714.869	3268.56
715.057	3317.71
715.244	3373
715.432	3430.35
715.619	3297.23
715.807	3307.47
715.994	3297.23
716.182	3323.85
716.369	3344.33
716.556	3176.4
716.744	3190.74
716.931	3317.71
717.119	3303.37
717.306	3395.53
717.493	3186.64
717.681	3286.99
717.868	3168.21
718.055	3360.72
718.242	3143.63
718.43	3315.66
718.617	3313.61
718.804	3293.13
718.991	3274.7
719.179	3266.51
719.366	3229.65
719.553	3309.52
719.74	3223.5
719.927	3299.28
720.114	3235.79
720.301	3272.65
720.488	3280.85
720.676	3219.41
720.863	3196.88
721.05	3344.33
721.237	3278.8
721.424	3385.29
721.611	3196.88
721.798	3282.89
721.985	3315.66
722.172	3170.26
722.358	3227.6
722.545	3270.61
722.732	3243.98
722.919	3260.37
723.106	3274.7
723.293	3071.95
723.48	3235.79
723.667	3033.04
723.853	3227.6
724.04	3264.46
724.227	3330
724.414	3235.79
724.6	3088.34
724.787	3184.59
724.974	3160.02
725.161	3360.72
725.347	3084.24
725.534	3094.48
725.72	3123.15
725.907	3254.22
726.094	3274.7
726.28	3153.87
726.467	3194.83
726.653	3262.41
726.84	3035.09
727.027	3233.74
727.213	3086.29
727.4	3104.72
727.586	3184.59
727.773	3170.26
727.959	3160.02
728.145	3119.06
728.332	3190.74
728.518	3186.64
728.705	3090.38
728.891	3131.34
729.077	3147.73
729.264	3039.19
729.45	3252.17
729.636	3254.22
729.823	3100.62
730.009	3176.4
730.195	3149.78
730.382	3045.33
730.568	3237.84
730.754	3151.82
730.94	3012.56
731.126	3041.23
731.313	3057.62
731.499	3123.15
731.685	3114.96
731.871	3094.48
732.057	3114.96
732.243	3018.71
732.429	2994.13
732.615	3028.95
732.801	3094.48
732.987	2938.84
733.173	3151.82
733.359	3082.19
733.545	2869.2
733.731	3026.9
733.917	3030.99
734.103	3033.04
734.289	2930.64
734.475	2996.18
734.661	3047.38
734.847	2955.22
735.033	3008.47
735.219	3008.47
735.404	2914.26
735.59	2992.08
735.776	2942.93
735.962	2934.74
736.148	3035.09
736.333	2953.17
736.519	2871.25
736.705	3012.56
736.89	2963.41
737.076	3049.43
737.262	2865.11
737.447	3002.32
737.633	3016.66
737.819	2834.39
738.004	2985.94
738.19	2838.48
738.375	2893.78
738.561	2930.64
738.747	2951.12
738.932	2916.31
739.118	2856.92
739.303	2897.88
739.489	2856.92
739.674	2832.34
739.859	2834.39
740.045	2858.96
740.23	2783.19
740.416	2756.57
740.601	2727.89
740.786	2680.79
740.972	2734.04
741.157	2815.96
741.342	2813.91
741.528	2844.63
741.713	2748.37
741.898	2799.57
742.084	2764.76
742.269	2777.05
742.454	2609.11
742.639	2635.74
742.824	2635.74
743.01	2625.5
743.195	2619.35
743.38	2699.22
743.565	2553.82
743.75	2717.65
743.935	2562.01
744.12	2633.69
744.305	2527.19
744.49	2525.15
744.675	2516.95
744.86	2445.27
745.045	2504.67
745.23	2533.34
745.415	2568.15
745.6	2504.67
745.785	2496.47
745.97	2457.56
746.155	2455.51
746.34	2539.48
746.525	2437.08
746.71	2510.81
746.895	2285.53
747.079	2303.96
747.264	2324.44
747.449	2351.07
747.634	2412.51
747.819	2322.4
748.003	2217.95
748.188	2283.49
748.373	2365.4
748.557	2306.01
748.742	2295.77
748.927	2224.09
749.111	2301.92
749.296	2299.87
749.481	2297.82
749.665	2205.66
749.85	2158.56
750.034	2125.79
750.219	2193.37
750.404	2201.57
750.588	2097.12
750.773	2002.91
750.957	2103.26
751.141	2060.26
751.326	2156.51
751.51	1968.1
751.695	1994.72
751.879	2060.26
752.064	2013.15
752.248	1966.05
752.432	1970.15
752.617	2054.11
752.801	1964
752.985	1947.62
753.17	1884.13
753.354	1927.14
753.538	1828.84
753.722	1785.83
753.907	1824.74
754.091	1857.51
754.275	1769.45
754.459	1914.85
754.643	1779.68
754.828	1859.56
755.012	1775.59
755.196	1718.25
755.38	1720.29
755.564	1642.47
755.748	1636.33
755.932	1763.3
756.116	1689.57
756.3	1609.7
756.484	1603.56
756.668	1626.09
756.852	1636.33
757.036	1642.47
757.22	1628.14
757.404	1619.94
757.588	1568.74
757.772	1521.64
757.956	1566.7
758.14	1568.74
758.323	1435.63
758.507	1589.22
758.691	1488.87
758.875	1587.18
759.059	1480.68
759.242	1513.45
759.426	1470.44
759.61	1406.95
759.794	1462.25
759.977	1331.18
760.161	1460.2
760.345	1552.36
760.528	1505.26
760.712	1421.29
760.895	1423.34
761.079	1406.95
761.263	1366
761.446	1337.32
761.63	1200.11
761.813	1347.56
761.997	1409
762.18	1454.06
762.364	1361.9
762.547	1290.22
762.731	1327.08
762.914	1251.31
763.098	1290.22
763.281	1325.04
763.464	1222.64
763.648	1261.55
763.831	1386.47
764.015	1222.64
764.198	1359.85
764.381	1269.74
764.564	1292.27
764.748	1243.12
764.931	1282.03
765.114	1259.5
765.297	1322.99
765.481	1206.25
765.664	1198.06
765.847	1222.64
766.03	1306.6
766.213	1216.49
766.397	1253.36
766.58	1206.25
766.763	1196.01
766.946	1148.91
767.129	1116.14
767.312	1198.06
767.495	1132.53
767.678	1239.02
767.861	1157.1
768.044	1120.24
768.227	1146.86
768.41	1193.97
768.593	1218.54
768.776	1144.81
768.959	1105.9
769.142	1130.48
769.324	1099.76
769.507	1134.57
769.69	1069.04
769.873	1091.57
770.056	1142.77
770.239	1089.52
770.421	1157.1
770.604	1083.38
770.787	1046.51
770.97	1056.75
771.152	1062.9
771.335	1048.56
771.518	1021.94
771.7	1015.79
771.883	1128.43
772.066	1073.14
772.248	1048.56
772.431	1097.71
772.613	915.44
772.796	999.41
772.978	1089.52
773.161	995.31
773.343	985.07
773.526	983.03
773.708	976.88
773.891	845.81
774.073	933.87
774.256	931.83
774.438	989.17
774.621	968.69
774.803	976.88
774.985	886.77
775.168	974.83
775.35	952.31
775.532	976.88
775.715	907.25
775.897	808.95
776.079	872.43
776.261	917.49
776.444	872.43
776.626	854
776.808	796.66
776.99	772.08
777.173	851.95
777.355	813.04
777.537	788.47
777.719	729.08
777.901	864.24
778.083	849.91
778.265	806.9
778.447	804.85
778.629	757.75
778.811	739.32
778.993	788.47
779.175	786.42
779.357	794.61
779.539	677.88
779.721	767.99
779.903	747.51
780.085	735.22
780.267	774.13
780.449	724.98
780.631	798.71
780.812	718.84
780.994	694.26
781.176	690.17
781.358	694.26
781.54	710.65
781.721	669.69
781.903	614.39
782.085	690.17
782.267	624.63
782.448	608.25
782.63	686.07
782.812	706.55
782.993	712.69
783.175	681.97
783.357	628.73
783.538	651.25
783.72	579.58
783.901	583.67
784.083	681.97
784.264	536.57
784.446	563.19
784.627	526.33
784.809	542.71
784.99	534.52
785.172	561.14
785.353	526.33
785.535	610.29
785.716	526.33
785.897	561.14
786.079	563.19
786.26	544.76
786.441	655.35
786.623	501.75
786.804	475.13
786.985	552.95
787.167	598.01
787.348	600.05
787.529	522.23
787.71	557.05
787.891	479.22
788.073	438.27
788.254	497.66
788.435	544.76
788.616	616.44
788.797	448.51
788.978	520.18
789.159	448.51
789.34	481.27
789.522	520.18
789.703	389.11
789.884	522.23
790.065	516.09
790.246	532.47
790.427	399.35
790.607	452.6
790.788	466.94
790.969	385.02
791.15	393.21
791.331	432.12
791.512	399.35
791.693	409.59
791.874	438.27
792.054	417.79
792.235	419.83
792.416	405.5
792.597	444.41
792.778	370.68
792.958	348.15
793.139	344.06
793.32	393.21
793.5	415.74
793.681	456.7
793.862	366.59
794.042	397.31
794.223	399.35
794.404	323.58
794.584	290.81
794.765	360.44
794.945	415.74
795.126	411.64
795.306	370.68
795.487	362.49
795.667	305.15
795.848	346.11
796.028	311.29
796.209	405.5
796.389	311.29
796.57	425.98
796.75	339.96
796.93	309.24
797.111	307.2
797.291	321.53
797.471	364.54
797.652	339.96
797.832	296.96
798.012	370.68
798.192	366.59
798.373	325.63
798.553	299
798.733	344.06
798.913	344.06
799.093	253.95
799.274	417.79
799.454	305.15
799.634	307.2
799.814	399.35
799.994	325.63
800.174	374.78
800.354	258.04
800.534	307.2
800.714	294.91
800.894	327.68
801.074	307.2
801.254	329.72
801.434	327.68
801.614	286.72
801.794	331.77
801.974	827.38
802.154	219.13
802.334	344.06
802.514	280.57
802.693	284.67
802.873	323.58
803.053	335.87
803.233	280.57
803.413	333.82
803.592	292.86
803.772	290.81
803.952	323.58
804.131	247.8
804.311	325.63
804.491	339.96
804.67	253.95
804.85	235.52
805.03	284.67
805.209	172.03
805.389	219.13
805.568	210.94
805.748	270.33
805.928	256
806.107	260.09
806.287	333.82
806.466	280.57
806.646	276.48
806.825	251.9
807.004	186.37
807.184	225.28
807.363	313.34
807.543	223.23
807.722	251.9
807.901	268.28
808.081	249.85
808.26	157.69
808.439	235.52
808.619	194.56
808.798	194.56
808.977	243.71
809.156	294.91
809.336	163.84
809.515	253.95
809.694	280.57
809.873	274.43
810.052	262.14
810.231	249.85
810.411	204.8
810.59	278.52
810.769	192.51
810.948	184.32
811.127	182.27
811.306	141.31
811.485	253.95
811.664	219.13
811.843	231.42
812.022	194.56
812.201	221.18
812.38	270.33
812.559	198.65
812.737	225.28
812.916	126.97
813.095	200.7
813.274	229.37
813.453	251.9
813.632	129.02
813.811	217.08
813.989	223.23
814.168	233.47
814.347	188.41
814.526	184.32
814.704	219.13
814.883	247.8
815.062	145.41
815.24	129.02
815.419	178.17
815.598	229.37
815.776	153.6
815.955	210.94
816.133	178.17
816.312	157.69
816.49	145.41
816.669	206.84
816.847	200.7
817.026	219.13
817.204	137.21
817.383	210.94
817.561	102.4
817.74	243.71
817.918	229.37
818.097	137.21
818.275	108.54
818.453	184.32
818.632	188.41
818.81	186.37
818.988	221.18
819.167	161.79
819.345	165.89
819.523	137.21
819.701	233.47
819.879	215.04
820.058	116.73
820.236	169.98
820.414	106.49
820.592	149.5
820.77	106.49
820.948	114.69
821.127	258.04
821.305	198.65
821.483	141.31
821.661	210.94
821.839	100.35
822.017	69.63
822.195	176.13
822.373	104.45
822.551	219.13
822.729	247.8
822.907	161.79
823.085	182.27
823.262	120.83
823.44	100.35
823.618	96.25
823.796	190.46
823.974	47.1
824.152	120.83
824.329	90.11
824.507	159.74
824.685	169.98
824.863	129.02
825.04	165.89
825.218	184.32
825.396	165.89
825.574	94.21
825.751	172.03
825.929	180.22
826.107	133.12
826.284	200.7
826.462	129.02
826.639	106.49
826.817	147.45
826.994	94.21
827.172	100.35
827.349	157.69
827.527	135.17
827.704	116.73
827.882	151.55
828.059	122.88
828.237	77.82
828.414	188.41
828.591	69.63
828.769	190.46
828.946	79.87
829.124	215.04
829.301	45.06
829.478	110.59
829.655	100.35
829.833	131.07
830.01	129.02
830.187	129.02
830.364	116.73
830.542	116.73
830.719	184.32
830.896	112.64
831.073	45.06
831.25	71.68
831.427	143.36
831.604	55.3
831.782	114.69
831.959	124.93
832.136	163.84
832.313	47.1
832.49	14.34
832.667	145.41
832.844	98.3
833.021	153.6
833.198	200.7
833.374	106.49
833.551	135.17
833.728	122.88
833.905	75.77
834.082	57.34
834.259	112.64
834.436	118.78
834.612	75.77
834.789	81.92
834.966	63.49
835.143	51.2
835.319	49.15
835.496	163.84
835.673	206.84
835.85	147.45
836.026	83.97
836.203	141.31
836.38	100.35
836.556	98.3
836.733	28.67
836.909	102.4
837.086	106.49
837.262	36.86
837.439	71.68
837.616	110.59
837.792	20.48
837.968	55.3
838.145	32.77
838.321	102.4
838.498	145.41
838.674	204.8
838.851	90.11
839.027	169.98
839.203	88.06
839.38	88.06
839.556	0
839.732	133.12
839.909	32.77
840.085	96.25
840.261	51.2
840.437	180.22
840.614	81.92
840.79	59.39
840.966	133.12
841.142	122.88
841.318	96.25
841.494	100.35
841.671	81.92
841.847	169.98
842.023	124.93
842.199	86.01
842.375	163.84
842.551	47.1
842.727	83.97
842.903	81.92
843.079	53.25
843.255	157.69
843.431	88.06
843.607	59.39
843.783	40.96
843.959	79.87
844.134	53.25
844.31	24.58
844.486	88.06
844.662	53.25
844.838	139.26
845.013	108.54
845.189	63.49
845.365	79.87
845.541	104.45
845.716	63.49
845.892	110.59
846.068	63.49
846.244	43.01
846.419	133.12
846.595	71.68
846.77	75.77
846.946	57.34
847.122	36.86
847.297	61.44
847.473	112.64
847.648	2.05
847.824	92.16
847.999	18.43
848.175	92.16
848.35	34.82
848.526	94.21
848.701	71.68
848.876	92.16
849.052	129.02
849.227	79.87
849.403	47.1
849.578	61.44
849.753	40.96
849.929	153.6
850.104	10.24
850.279	108.54
850.454	108.54
850.63	118.78
850.805	-10.24
850.98	55.3
851.155	38.91
851.33	79.87
851.505	20.48
851.681	120.83
851.856	24.58
852.031	10.24
852.206	69.63
852.381	20.48
852.556	36.86
852.731	110.59
852.906	63.49
853.081	65.54
853.256	120.83
853.431	26.62
853.606	77.82
853.781	45.06
853.956	10.24
854.131	61.44
854.305	18.43
854.48	81.92
854.655	51.2
854.83	34.82
855.005	47.1
855.18	92.16
855.354	69.63
855.529	100.35
855.704	20.48
855.879	69.63
856.053	69.63
856.228	79.87
856.403	47.1
856.577	51.2
856.752	-16.38
856.926	79.87
857.101	45.06
857.276	73.73
857.45	79.87
857.625	71.68
857.799	30.72
857.974	10.24
858.148	-10.24
858.323	43.01
858.497	83.97
858.672	-16.38
858.846	-20.48
859.02	83.97
859.195	2.05
859.369	71.68
859.543	49.15
859.718	40.96
859.892	12.29
860.066	69.63
860.241	20.48
860.415	18.43
860.589	67.58
860.763	-4.1
860.938	18.43
861.112	120.83
861.286	75.77
861.46	86.01
861.634	30.72
861.808	112.64
861.982	86.01
862.157	0
862.331	10.24
862.505	55.3
862.679	-6.14
862.853	96.25
863.027	26.62
863.201	73.73
863.375	36.86
863.549	14.34
863.722	20.48
863.896	120.83
864.07	18.43
864.244	92.16
864.418	61.44
864.592	61.44
864.766	69.63
864.939	53.25
865.113	26.62
865.287	4.1
865.461	26.62
865.634	26.62
865.808	34.82
865.982	6.14
866.156	49.15
866.329	10.24
866.503	16.38
866.676	-2.05
866.85	10.24
867.024	53.25
867.197	38.91
867.371	-8.19
867.544	75.77
867.718	6.14
867.891	104.45
868.065	81.92
868.238	108.54
868.412	59.39
868.585	22.53
868.759	38.91
868.932	6.14
869.105	12.29
869.279	65.54
869.452	4.1
869.625	51.2
869.799	96.25
869.972	51.2
870.145	34.82
870.319	71.68
870.492	61.44
870.665	30.72
870.838	47.1
871.011	-18.43
871.185	-24.58
871.358	10.24
871.531	104.45
871.704	55.3
871.877	10.24
872.05	71.68
872.223	45.06
872.396	45.06
872.569	57.34
872.742	-34.82
872.915	59.39
873.088	6.14
873.261	-22.53
873.434	106.49
873.607	28.67
873.78	34.82
873.953	-10.24
874.126	49.15
874.299	38.91
874.471	14.34
874.644	47.1
874.817	79.87
874.99	106.49
875.163	6.14
875.335	67.58
875.508	26.62
875.681	63.49
875.853	-18.43
876.026	77.82
876.199	-4.1
876.371	51.2
876.544	10.24
876.717	77.82
876.889	-55.3
877.062	83.97
877.234	73.73
877.407	-4.1
877.579	10.24
877.752	0
877.924	-2.05
878.097	88.06
878.269	2.05
878.442	-4.1
878.614	-2.05
878.786	51.2
878.959	22.53
879.131	49.15
879.303	-34.82
879.476	34.82
879.648	67.58
879.82	-4.1
879.993	14.34
880.165	-20.48
880.337	-57.34
880.509	102.4
880.681	-63.49
880.854	43.01
881.026	67.58
881.198	92.16
881.37	-59.39
881.542	10.24
881.714	6.14
881.886	-51.2
882.058	43.01
882.23	24.58
882.402	98.3
882.574	63.49
882.746	73.73
882.918	61.44
883.09	-6.14
883.262	34.82
883.434	30.72
883.606	-28.67
883.778	18.43
883.95	38.91
884.122	16.38
884.293	71.68
884.465	55.3
884.637	92.16
884.809	61.44
884.98	18.43
885.152	6.14
885.324	86.01
885.496	30.72
885.667	-26.62
885.839	28.67
886.011	55.3
886.182	28.67
886.354	36.86
886.525	32.77
886.697	53.25
886.869	-18.43
887.04	30.72
887.212	22.53
887.383	34.82
887.555	38.91
887.726	10.24
887.897	-4.1
888.069	43.01
888.24	6.14
888.412	43.01
888.583	18.43
888.754	-38.91
888.926	-53.25
889.097	88.06
889.268	-6.14
889.44	55.3
889.611	-22.53
889.782	-6.14
889.953	-30.72
890.125	-10.24
890.296	-36.86
890.467	49.15
890.638	43.01
890.809	-2.05
890.98	-6.14
891.151	55.3
891.323	57.34
891.494	55.3
891.665	-22.53
891.836	10.24
892.007	45.06
892.178	-38.91
892.349	-47.1
892.52	-16.38
892.691	-14.34
892.862	-12.29
893.032	4.1
893.203	-18.43
893.374	14.34
893.545	40.96
893.716	-2.05
893.887	102.4
894.057	-16.38
894.228	8.19
894.399	-4.1
894.57	30.72
894.74	51.2
894.911	61.44
895.082	-14.34
895.253	14.34
895.423	-2.05
895.594	51.2
895.764	63.49
895.935	-14.34
896.106	34.82
896.276	-26.62
896.447	73.73
896.617	10.24
896.788	-6.14
896.958	43.01
897.129	-8.19
897.299	10.24
897.47	102.4
897.64	116.73
897.81	-8.19
897.981	26.62
898.151	-18.43
898.322	59.39
898.492	45.06
898.662	8.19
898.832	-6.14
899.003	63.49
899.173	30.72
899.343	51.2
899.513	8.19
