Data from USB4F104151__82__10-24-16-570.txt Node

Date: Wed Mar 12 10:24:16 EDT 2025
User: louis
Spectrometer: USB4F10415
Trigger mode: 4
Integration Time (sec): 3.000000E-2
Scans to average: 1
Electric dark correction enabled: true
Nonlinearity correction enabled: false
Boxcar width: 0
XAxis mode: Wavelengths
Number of Pixels in Spectrum: 3648
>>>>>Begin Spectral Data<<<<<
178.204	-76.63
178.424	-76.63
178.644	-76.63
178.864	-119.64
179.084	-84.82
179.304	29.87
179.524	-0.85
179.744	21.67
179.964	7.34
180.184	-13.14
180.404	33.96
180.624	-13.14
180.844	-37.72
181.064	13.48
181.283	29.87
181.503	-39.76
181.723	-31.57
181.943	-15.19
182.163	64.68
182.383	-15.19
182.602	107.69
182.822	109.74
183.042	-7
183.262	21.67
183.482	60.59
183.701	64.68
183.921	9.39
184.141	-15.19
184.361	29.87
184.58	54.44
184.8	31.91
185.02	-43.86
185.239	93.35
185.459	48.3
185.679	83.11
185.898	3.24
186.118	87.21
186.338	-15.19
186.557	76.97
186.777	64.68
186.997	66.73
187.216	-9.05
187.436	79.02
187.655	99.5
187.875	95.4
188.095	-27.48
188.314	-0.85
188.534	46.25
188.753	117.93
188.973	89.26
189.192	91.31
189.412	48.3
189.631	27.82
189.851	89.26
190.07	97.45
190.29	76.97
190.509	48.3
190.729	40.11
190.948	23.72
191.168	134.31
191.387	74.92
191.607	-9.05
191.826	87.21
192.045	97.45
192.265	156.84
192.484	-4.95
192.704	46.25
192.923	3.24
193.142	119.98
193.362	36.01
193.581	38.06
193.8	21.67
194.02	105.64
194.239	31.91
194.458	60.59
194.678	15.53
194.897	-4.95
195.116	68.78
195.335	109.74
195.555	25.77
195.774	44.2
195.993	38.06
196.212	17.58
196.432	-82.77
196.651	27.82
196.87	-11.09
197.089	46.25
197.308	50.35
197.528	64.68
197.747	1.19
197.966	76.97
198.185	74.92
198.404	126.12
198.623	105.64
198.842	89.26
199.062	29.87
199.281	79.02
199.5	13.48
199.719	31.91
199.938	85.16
200.157	36.01
200.376	105.64
200.595	64.68
200.814	93.35
201.033	15.53
201.252	105.64
201.471	50.35
201.69	-33.62
201.909	93.35
202.128	56.49
202.347	50.35
202.566	-19.29
202.785	60.59
203.004	29.87
203.223	87.21
203.442	42.15
203.661	81.07
203.879	-2.9
204.098	142.5
204.317	-17.24
204.536	105.64
204.755	5.29
204.974	33.96
205.193	50.35
205.411	113.83
205.63	115.88
205.849	66.73
206.068	46.25
206.287	-27.48
206.505	54.44
206.724	19.63
206.943	60.59
207.162	56.49
207.381	15.53
207.599	27.82
207.818	-23.38
208.037	3.24
208.255	54.44
208.474	36.01
208.693	119.98
208.911	85.16
209.13	103.59
209.349	87.21
209.567	138.41
209.786	122.02
210.005	97.45
210.223	19.63
210.442	-21.33
210.661	9.39
210.879	103.59
211.098	-2.9
211.316	21.67
211.535	171.18
211.753	48.3
211.972	113.83
212.191	103.59
212.409	50.35
212.628	64.68
212.846	11.43
213.065	89.26
213.283	126.12
213.502	44.2
213.72	72.87
213.938	91.31
214.157	27.82
214.375	33.96
214.594	-19.29
214.812	36.01
215.031	40.11
215.249	46.25
215.467	5.29
215.686	42.15
215.904	76.97
216.122	15.53
216.341	40.11
216.559	46.25
216.778	119.98
216.996	81.07
217.214	68.78
217.432	52.39
217.651	-21.33
217.869	85.16
218.087	29.87
218.306	162.98
218.524	50.35
218.742	-11.09
218.96	19.63
219.179	52.39
219.397	56.49
219.615	83.11
219.833	93.35
220.051	11.43
220.27	60.59
220.488	13.48
220.706	21.67
220.924	70.83
221.142	-9.05
221.36	42.15
221.578	48.3
221.796	95.4
222.015	79.02
222.233	62.63
222.451	72.87
222.669	19.63
222.887	27.82
223.105	52.39
223.323	103.59
223.541	-9.05
223.759	76.97
223.977	56.49
224.195	142.5
224.413	9.39
224.631	72.87
224.849	23.72
225.067	122.02
225.285	64.68
225.503	44.2
225.721	48.3
225.939	-21.33
226.157	128.17
226.375	76.97
226.592	54.44
226.81	62.63
227.028	81.07
227.246	89.26
227.464	46.25
227.682	122.02
227.9	42.15
228.117	48.3
228.335	21.67
228.553	93.35
228.771	50.35
228.989	74.92
229.206	56.49
229.424	79.02
229.642	-0.85
229.86	48.3
230.077	79.02
230.295	81.07
230.513	72.87
230.731	111.78
230.948	103.59
231.166	126.12
231.384	1.19
231.601	44.2
231.819	31.91
232.037	48.3
232.254	-33.62
232.472	64.68
232.689	144.55
232.907	146.6
233.125	52.39
233.342	68.78
233.56	-25.43
233.777	72.87
233.995	56.49
234.213	81.07
234.43	48.3
234.648	-35.67
234.865	38.06
235.083	-7
235.3	83.11
235.518	68.78
235.735	99.5
235.953	-4.95
236.17	38.06
236.388	83.11
236.605	68.78
236.822	33.96
237.04	64.68
237.257	13.48
237.475	27.82
237.692	52.39
237.909	-29.52
238.127	-2.9
238.344	15.53
238.562	74.92
238.779	27.82
238.996	-0.85
239.214	1.19
239.431	87.21
239.648	44.2
239.865	48.3
240.083	93.35
240.3	54.44
240.517	85.16
240.735	89.26
240.952	93.35
241.169	15.53
241.386	46.25
241.603	95.4
241.821	60.59
242.038	85.16
242.255	25.77
242.472	105.64
242.689	31.91
242.907	42.15
243.124	60.59
243.341	93.35
243.558	25.77
243.775	7.34
243.992	7.34
244.209	64.68
244.426	95.4
244.643	64.68
244.86	-13.14
245.078	72.87
245.295	83.11
245.512	62.63
245.729	60.59
245.946	38.06
246.163	29.87
246.38	97.45
246.597	44.2
246.814	36.01
247.031	17.58
247.248	46.25
247.464	93.35
247.681	54.44
247.898	60.59
248.115	91.31
248.332	17.58
248.549	81.07
248.766	23.72
248.983	52.39
249.2	7.34
249.417	46.25
249.633	91.31
249.85	52.39
250.067	66.73
250.284	23.72
250.501	-13.14
250.717	101.55
250.934	40.11
251.151	15.53
251.368	52.39
251.585	89.26
251.801	48.3
252.018	74.92
252.235	7.34
252.451	-25.43
252.668	44.2
252.885	60.59
253.102	72.87
253.318	74.92
253.535	-2.9
253.752	42.15
253.968	103.59
254.185	109.74
254.401	117.93
254.618	66.73
254.835	101.55
255.051	11.43
255.268	44.2
255.484	50.35
255.701	31.91
255.917	60.59
256.134	31.91
256.351	79.02
256.567	62.63
256.784	54.44
257	15.53
257.217	109.74
257.433	83.11
257.65	126.12
257.866	64.68
258.082	15.53
258.299	95.4
258.515	136.36
258.732	58.54
258.948	7.34
259.165	36.01
259.381	-0.85
259.597	103.59
259.814	40.11
260.03	15.53
260.246	21.67
260.463	7.34
260.679	7.34
260.895	48.3
261.112	44.2
261.328	31.91
261.544	36.01
261.761	-0.85
261.977	5.29
262.193	48.3
262.409	-0.85
262.626	91.31
262.842	44.2
263.058	115.88
263.274	99.5
263.49	64.68
263.707	117.93
263.923	-2.9
264.139	54.44
264.355	85.16
264.571	13.48
264.787	-15.19
265.004	40.11
265.22	19.63
265.436	33.96
265.652	38.06
265.868	36.01
266.084	21.67
266.3	81.07
266.516	29.87
266.732	79.02
266.948	72.87
267.164	-2.9
267.38	38.06
267.596	89.26
267.812	154.79
268.028	91.31
268.244	21.67
268.46	46.25
268.676	81.07
268.892	52.39
269.108	105.64
269.324	27.82
269.54	-9.05
269.756	70.83
269.972	-68.44
270.188	70.83
270.403	-33.62
270.619	56.49
270.835	40.11
271.051	115.88
271.267	31.91
271.483	54.44
271.698	66.73
271.914	70.83
272.13	48.3
272.346	25.77
272.562	5.29
272.777	-35.67
272.993	113.83
273.209	52.39
273.425	70.83
273.64	46.25
273.856	48.3
274.072	29.87
274.287	72.87
274.503	52.39
274.719	11.43
274.934	19.63
275.15	40.11
275.366	13.48
275.581	-9.05
275.797	19.63
276.012	15.53
276.228	87.21
276.444	-2.9
276.659	142.5
276.875	40.11
277.09	76.97
277.306	29.87
277.521	101.55
277.737	11.43
277.952	87.21
278.168	23.72
278.383	44.2
278.599	72.87
278.814	54.44
279.03	72.87
279.245	97.45
279.461	31.91
279.676	13.48
279.892	93.35
280.107	-13.14
280.322	11.43
280.538	54.44
280.753	7.34
280.969	105.64
281.184	-2.9
281.399	48.3
281.615	74.92
281.83	-15.19
282.045	50.35
282.26	-15.19
282.476	101.55
282.691	81.07
282.906	85.16
283.122	83.11
283.337	60.59
283.552	83.11
283.767	19.63
283.983	97.45
284.198	87.21
284.413	93.35
284.628	5.29
284.843	21.67
285.058	15.53
285.274	56.49
285.489	23.72
285.704	52.39
285.919	-25.43
286.134	23.72
286.349	62.63
286.564	-13.14
286.779	89.26
286.995	54.44
287.21	54.44
287.425	99.5
287.64	101.55
287.855	48.3
288.07	56.49
288.285	81.07
288.5	99.5
288.715	85.16
288.93	-11.09
289.145	42.15
289.36	44.2
289.575	-27.48
289.79	130.22
290.004	48.3
290.219	42.15
290.434	91.31
290.649	50.35
290.864	29.87
291.079	-0.85
291.294	74.92
291.509	56.49
291.724	62.63
291.938	-7
292.153	72.87
292.368	15.53
292.583	97.45
292.798	44.2
293.012	79.02
293.227	11.43
293.442	105.64
293.657	83.11
293.871	109.74
294.086	81.07
294.301	85.16
294.516	-27.48
294.73	70.83
294.945	64.68
295.16	60.59
295.374	91.31
295.589	44.2
295.804	27.82
296.018	101.55
296.233	74.92
296.447	76.97
296.662	99.5
296.877	85.16
297.091	5.29
297.306	48.3
297.52	111.78
297.735	107.69
297.949	21.67
298.164	36.01
298.378	85.16
298.593	64.68
298.807	13.48
299.022	19.63
299.236	93.35
299.451	-7
299.665	50.35
299.88	76.97
300.094	101.55
300.309	58.54
300.523	64.68
300.737	58.54
300.952	60.59
301.166	130.22
301.381	99.5
301.595	38.06
301.809	60.59
302.024	-13.14
302.238	23.72
302.452	31.91
302.667	89.26
302.881	197.8
303.095	56.49
303.309	21.67
303.524	72.87
303.738	64.68
303.952	13.48
304.166	38.06
304.381	40.11
304.595	95.4
304.809	44.2
305.023	40.11
305.237	-13.14
305.452	44.2
305.666	109.74
305.88	156.84
306.094	48.3
306.308	76.97
306.522	87.21
306.736	-39.76
306.95	23.72
307.164	64.68
307.379	25.77
307.593	31.91
307.807	-19.29
308.021	64.68
308.235	-0.85
308.449	44.2
308.663	64.68
308.877	27.82
309.091	81.07
309.305	40.11
309.519	29.87
309.733	109.74
309.947	-23.38
310.161	46.25
310.374	93.35
310.588	134.31
310.802	64.68
311.016	54.44
311.23	48.3
311.444	44.2
311.658	72.87
311.872	40.11
312.085	144.55
312.299	122.02
312.513	64.68
312.727	158.89
312.941	68.78
313.154	124.07
313.368	29.87
313.582	130.22
313.796	138.41
314.009	23.72
314.223	15.53
314.437	93.35
314.651	76.97
314.864	7.34
315.078	124.07
315.292	91.31
315.505	3.24
315.719	68.78
315.933	56.49
316.146	101.55
316.36	58.54
316.573	97.45
316.787	124.07
317.001	74.92
317.214	5.29
317.428	66.73
317.641	44.2
317.855	101.55
318.068	23.72
318.282	91.31
318.495	146.6
318.709	60.59
318.922	60.59
319.136	107.69
319.349	19.63
319.563	52.39
319.776	-15.19
319.99	33.96
320.203	105.64
320.417	23.72
320.63	31.91
320.843	124.07
321.057	21.67
321.27	74.92
321.483	40.11
321.697	27.82
321.91	93.35
322.124	42.15
322.337	81.07
322.55	134.31
322.763	76.97
322.977	48.3
323.19	109.74
323.403	72.87
323.617	36.01
323.83	74.92
324.043	128.17
324.256	15.53
324.469	29.87
324.683	21.67
324.896	64.68
325.109	27.82
325.322	72.87
325.535	46.25
325.748	89.26
325.962	68.78
326.175	124.07
326.388	113.83
326.601	89.26
326.814	117.93
327.027	101.55
327.24	122.02
327.453	-23.38
327.666	85.16
327.879	109.74
328.092	64.68
328.305	76.97
328.518	42.15
328.731	-37.72
328.944	87.21
329.157	81.07
329.37	81.07
329.583	150.7
329.796	93.35
330.009	111.78
330.222	99.5
330.435	85.16
330.648	44.2
330.861	107.69
331.073	111.78
331.286	54.44
331.499	58.54
331.712	29.87
331.925	58.54
332.138	58.54
332.35	97.45
332.563	79.02
332.776	126.12
332.989	-7
333.202	99.5
333.414	27.82
333.627	54.44
333.84	83.11
334.053	79.02
334.265	56.49
334.478	48.3
334.691	36.01
334.903	64.68
335.116	60.59
335.329	-23.38
335.541	40.11
335.754	97.45
335.966	-7
336.179	70.83
336.392	79.02
336.604	17.58
336.817	76.97
337.029	44.2
337.242	54.44
337.454	122.02
337.667	48.3
337.88	7.34
338.092	23.72
338.305	42.15
338.517	58.54
338.729	83.11
338.942	130.22
339.154	107.69
339.367	68.78
339.579	160.94
339.792	31.91
340.004	27.82
340.217	62.63
340.429	-11.09
340.641	-58.2
340.854	36.01
341.066	66.73
341.278	89.26
341.491	54.44
341.703	17.58
341.915	3.24
342.128	113.83
342.34	105.64
342.552	31.91
342.764	15.53
342.977	17.58
343.189	81.07
343.401	33.96
343.613	-17.24
343.826	54.44
344.038	56.49
344.25	81.07
344.462	56.49
344.674	68.78
344.886	31.91
345.099	23.72
345.311	68.78
345.523	54.44
345.735	-43.86
345.947	62.63
346.159	60.59
346.371	48.3
346.583	81.07
346.795	101.55
347.007	-2.9
347.219	36.01
347.431	-17.24
347.643	74.92
347.855	31.91
348.067	58.54
348.279	40.11
348.491	25.77
348.703	81.07
348.915	52.39
349.127	7.34
349.339	101.55
349.551	87.21
349.763	23.72
349.975	81.07
350.187	66.73
350.399	99.5
350.61	38.06
350.822	-37.72
351.034	23.72
351.246	40.11
351.458	74.92
351.669	46.25
351.881	142.5
352.093	52.39
352.305	99.5
352.517	83.11
352.728	101.55
352.94	66.73
353.152	101.55
353.363	72.87
353.575	42.15
353.787	138.41
353.999	66.73
354.21	56.49
354.422	72.87
354.633	5.29
354.845	68.78
355.057	64.68
355.268	142.5
355.48	109.74
355.692	64.68
355.903	66.73
356.115	11.43
356.326	25.77
356.538	105.64
356.749	105.64
356.961	66.73
357.172	11.43
357.384	48.3
357.595	144.55
357.807	-4.95
358.018	97.45
358.23	-4.95
358.441	113.83
358.653	167.08
358.864	48.3
359.075	64.68
359.287	93.35
359.498	81.07
359.709	115.88
359.921	56.49
360.132	79.02
360.344	97.45
360.555	97.45
360.766	79.02
360.977	5.29
361.189	109.74
361.4	3.24
361.611	119.98
361.823	50.35
362.034	113.83
362.245	76.97
362.456	23.72
362.667	68.78
362.879	-4.95
363.09	109.74
363.301	113.83
363.512	36.01
363.723	11.43
363.935	81.07
364.146	60.59
364.357	89.26
364.568	56.49
364.779	-0.85
364.99	97.45
365.201	-0.85
365.412	138.41
365.623	-4.95
365.834	105.64
366.045	38.06
366.256	52.39
366.467	72.87
366.678	111.78
366.889	44.2
367.1	72.87
367.311	95.4
367.522	74.92
367.733	17.58
367.944	56.49
368.155	23.72
368.366	111.78
368.577	111.78
368.788	87.21
368.999	56.49
369.209	117.93
369.42	142.5
369.631	52.39
369.842	54.44
370.053	136.36
370.264	138.41
370.474	5.29
370.685	119.98
370.896	126.12
371.107	103.59
371.317	44.2
371.528	93.35
371.739	138.41
371.95	126.12
372.16	89.26
372.371	23.72
372.582	23.72
372.792	60.59
373.003	113.83
373.214	89.26
373.424	40.11
373.635	38.06
373.846	111.78
374.056	111.78
374.267	119.98
374.477	105.64
374.688	70.83
374.898	48.3
375.109	42.15
375.319	109.74
375.53	111.78
375.74	81.07
375.951	56.49
376.161	46.25
376.372	136.36
376.582	23.72
376.793	56.49
377.003	50.35
377.214	68.78
377.424	109.74
377.635	68.78
377.845	29.87
378.055	99.5
378.266	-27.48
378.476	54.44
378.686	81.07
378.897	40.11
379.107	103.59
379.317	50.35
379.528	31.91
379.738	72.87
379.948	-17.24
380.158	79.02
380.369	79.02
380.579	97.45
380.789	76.97
380.999	48.3
381.21	74.92
381.42	185.51
381.63	105.64
381.84	66.73
382.05	33.96
382.261	117.93
382.471	36.01
382.681	50.35
382.891	68.78
383.101	93.35
383.311	72.87
383.521	15.53
383.731	93.35
383.941	79.02
384.151	72.87
384.361	62.63
384.571	119.98
384.781	111.78
384.991	138.41
385.201	154.79
385.411	76.97
385.621	46.25
385.831	52.39
386.041	99.5
386.251	97.45
386.461	126.12
386.671	85.16
386.881	105.64
387.091	56.49
387.301	169.13
387.511	17.58
387.72	97.45
387.93	87.21
388.14	167.08
388.35	64.68
388.56	109.74
388.769	152.74
388.979	105.64
389.189	79.02
389.399	101.55
389.609	52.39
389.818	74.92
390.028	89.26
390.238	91.31
390.447	136.36
390.657	138.41
390.867	101.55
391.076	56.49
391.286	7.34
391.496	97.45
391.705	72.87
391.915	132.26
392.125	97.45
392.334	122.02
392.544	103.59
392.753	132.26
392.963	87.21
393.172	154.79
393.382	58.54
393.591	87.21
393.801	44.2
394.01	76.97
394.22	113.83
394.429	44.2
394.639	33.96
394.848	97.45
395.058	70.83
395.267	109.74
395.477	105.64
395.686	60.59
395.895	142.5
396.105	179.37
396.314	66.73
396.524	132.26
396.733	68.78
396.942	113.83
397.152	85.16
397.361	167.08
397.57	154.79
397.78	154.79
397.989	93.35
398.198	238.76
398.407	128.17
398.617	64.68
398.826	91.31
399.035	140.46
399.244	122.02
399.453	150.7
399.663	64.68
399.872	158.89
400.081	128.17
400.29	162.98
400.499	130.22
400.708	201.9
400.917	154.79
401.127	249
401.336	105.64
401.545	162.98
401.754	212.14
401.963	148.65
402.172	136.36
402.381	142.5
402.59	93.35
402.799	201.9
403.008	203.94
403.217	148.65
403.426	130.22
403.635	105.64
403.844	146.6
404.053	167.08
404.262	158.89
404.471	189.61
404.68	150.7
404.888	109.74
405.097	199.85
405.306	140.46
405.515	171.18
405.724	136.36
405.933	158.89
406.142	289.96
406.35	185.51
406.559	208.04
406.768	271.53
406.977	289.96
407.185	251.05
407.394	259.24
407.603	220.33
407.812	201.9
408.02	289.96
408.229	253.09
408.438	214.18
408.646	277.67
408.855	269.48
409.064	322.73
409.272	318.63
409.481	294.05
409.69	380.07
409.898	320.68
410.107	441.51
410.315	384.16
410.524	300.2
410.733	439.46
410.941	289.96
411.15	468.13
411.358	412.84
411.567	457.89
411.775	421.03
411.984	511.14
412.192	548
412.401	474.28
412.609	519.33
412.818	611.49
413.026	674.98
413.234	603.3
413.443	576.67
413.651	619.68
413.86	619.68
414.068	634.02
414.276	629.92
414.485	699.55
414.693	781.47
414.901	812.19
415.11	797.85
415.318	748.7
415.526	801.95
415.734	859.29
415.943	867.49
416.151	967.84
416.359	935.07
416.567	998.56
416.776	947.36
416.984	1088.67
417.192	1088.67
417.4	1096.86
417.608	1176.73
417.817	1182.87
418.025	1264.79
418.233	1305.75
418.441	1238.17
418.649	1389.72
418.857	1547.41
419.065	1473.68
419.273	1375.38
419.481	1539.22
419.689	1668.24
419.897	1608.85
420.105	1692.82
420.313	1852.56
420.521	1793.17
420.729	2014.35
420.937	1899.66
421.145	1932.43
421.353	2006.16
421.561	2198.67
421.769	2186.38
421.977	2229.38
422.185	2309.26
422.393	2430.09
422.601	2464.9
422.809	2546.82
423.017	2421.89
423.224	2571.4
423.432	2786.43
423.64	2745.47
423.848	3052.67
424.056	3024
424.263	3169.4
424.471	3259.51
424.679	3339.38
424.887	3325.05
425.094	3628.15
425.302	3648.63
425.51	3566.71
425.718	3861.62
425.925	3896.43
426.133	3966.06
426.341	4123.76
426.548	4400.23
426.756	4330.6
426.964	4420.71
427.171	4729.95
427.379	4750.43
427.586	4856.93
427.794	4977.76
428.001	5168.22
428.209	5604.44
428.417	5395.54
428.624	5594.2
428.832	5782.61
429.039	5768.27
429.247	5823.57
429.454	6214.73
429.662	6624.33
429.869	6132.81
430.076	6626.37
430.284	6429.77
430.491	6741.06
430.699	7242.81
430.906	7164.99
431.114	7189.56
431.321	7631.93
431.528	7740.47
431.736	8090.67
431.943	8633.38
432.15	8309.8
432.358	8367.15
432.565	8840.23
432.772	8668.2
432.979	9167.9
433.187	9296.92
433.394	9249.82
433.601	10021.91
433.808	10060.82
434.016	10050.58
434.223	10408.97
434.43	11224.06
434.637	10904.58
434.844	11453.44
435.052	11811.83
435.259	11873.27
435.466	11867.13
435.673	11611.13
435.88	12270.58
436.087	13159.39
436.294	13110.24
436.501	12723.18
436.708	12848.1
436.915	13566.94
437.122	13947.86
437.329	13851.61
437.537	14351.31
437.743	14566.35
437.95	14533.58
438.157	15487.93
438.364	15799.23
438.571	15719.35
438.778	16133.04
438.985	17132.45
439.192	16745.39
439.399	17144.74
439.606	16819.11
439.813	17828.76
440.02	18846.6
440.227	18690.96
440.433	18197.4
440.64	19014.54
440.847	18658.19
441.054	19219.33
441.261	20736.88
441.467	20312.95
441.674	20661.1
441.881	21166.95
442.088	21474.15
442.294	21179.24
442.501	21492.58
442.708	22348.63
442.914	22903.63
443.121	24189.75
443.328	23403.33
443.534	25051.95
443.741	24449.85
443.948	23941.95
444.154	25854.75
444.361	25441.06
444.568	25768.74
444.774	25717.54
444.981	26125.08
445.187	26778.39
445.394	27714.31
445.6	27380.49
445.807	29915.87
446.013	28715.76
446.22	29186.8
446.426	30249.69
446.633	31134.42
446.839	31531.72
447.046	30608.09
447.252	31992.51
447.459	32375.48
447.665	31955.65
447.871	33153.71
448.078	34478.75
448.284	33000.12
448.491	33503.92
448.697	35222.16
448.903	35613.32
449.11	35578.51
449.316	35490.45
449.522	35955.33
449.728	36815.48
449.935	37233.27
450.141	36840.06
450.347	37671.53
450.553	36117.12
450.76	36936.31
450.966	38091.37
451.172	37579.37
451.378	38451.81
451.584	37517.93
451.791	38832.73
451.997	38601.31
452.203	38990.42
452.409	38756.96
452.615	39182.93
452.821	37524.08
453.027	37192.31
453.233	39103.06
453.44	37141.11
453.646	37751.4
453.852	37823.08
454.058	38724.19
454.264	37214.83
454.47	37730.92
454.676	37278.32
454.882	37888.62
455.088	34681.5
455.294	35304.08
455.5	36090.5
455.705	36506.24
455.911	34828.95
456.117	34300.58
456.323	33692.33
456.529	32074.43
456.735	33118.9
456.941	32375.48
457.147	31716.04
457.352	31048.4
457.558	30485.21
457.764	30606.04
457.97	30063.33
458.176	29074.16
458.381	29274.86
458.587	28123.9
458.793	27888.39
458.999	26678.04
459.204	28187.39
459.41	27847.43
459.616	25928.48
459.821	25948.96
460.027	25723.68
460.233	24978.22
460.438	23874.37
460.644	24048.44
460.85	23198.54
461.055	22874.96
461.261	22487.89
461.466	21148.52
461.672	20523.89
461.878	21902.17
462.083	20501.36
462.289	19989.37
462.494	20050.81
462.7	18914.19
462.905	18387.86
463.111	18998.15
463.316	19024.78
463.522	18897.8
463.727	18609.04
463.932	18731.92
464.138	18506.64
464.343	18547.6
464.549	18092.95
464.754	18985.86
464.959	18525.07
465.165	18418.58
465.37	17503.14
465.575	17302.43
465.781	17873.82
465.986	17918.87
466.191	17597.34
466.397	16939.94
466.602	16333.75
466.807	16829.35
467.012	16831.4
467.218	16688.04
467.423	16298.93
467.628	16731.05
467.833	17445.79
468.038	16505.77
468.244	16104.37
468.449	16704.43
468.654	16174
468.859	16165.81
469.064	15887.29
469.269	15616.96
469.474	15399.87
469.679	15930.3
469.885	15348.67
470.09	15559.61
470.295	15500.22
470.5	15266.75
470.705	15285.19
470.91	14871.5
471.115	14701.51
471.32	15080.39
471.525	14803.91
471.73	14490.57
471.935	14463.95
472.139	14029.78
472.344	13935.57
472.549	13970.39
472.754	13898.71
472.959	13724.63
473.164	13083.62
473.369	13138.91
473.574	13390.81
473.778	13409.25
473.983	13188.07
474.188	13040.61
474.393	12768.23
474.598	12538.86
474.802	12641.26
475.007	12516.33
475.212	12606.44
475.417	12065.78
475.621	12133.36
475.826	11977.72
476.031	11817.97
476.235	11854.84
476.44	11910.13
476.645	11721.72
476.849	11527.16
477.054	11488.25
477.259	11148.29
477.463	11443.2
477.668	11095.04
477.872	11123.71
478.077	11080.71
478.282	10488.84
478.486	10875.91
478.691	10642.44
478.895	10806.28
479.1	10626.06
479.304	10540.04
479.509	10316.81
479.713	10468.36
479.918	10148.88
480.122	9991.19
480.326	10048.53
480.531	10292.24
480.735	10026
480.94	9952.27
481.144	10273.81
481.348	9765.91
481.553	9950.23
481.757	9544.73
481.961	9929.75
482.166	10079.25
482.37	9870.36
482.574	9710.61
482.778	9774.1
482.983	9751.57
483.187	9751.57
483.391	10001.43
483.595	9714.71
483.8	9677.85
484.004	9862.16
484.208	9810.96
484.412	9645.08
484.616	9767.96
484.821	9714.71
485.025	9651.22
485.229	9950.23
485.433	9774.1
485.637	9939.99
485.841	9860.12
486.045	9628.7
486.249	9597.98
486.453	9622.55
486.657	9757.72
486.861	9741.33
487.065	9489.43
487.269	9702.42
487.473	9630.74
487.677	9731.09
487.881	9790.49
488.085	9636.89
488.289	9808.92
488.493	9667.61
488.697	9753.62
488.901	9808.92
489.105	9964.56
489.309	9743.38
489.512	9888.79
489.716	9968.66
489.92	9669.66
490.124	9753.62
490.328	9819.16
490.531	10021.91
490.735	9987.09
490.939	9976.85
491.143	10142.74
491.346	9948.18
491.55	10200.08
491.754	10212.37
491.958	10261.52
492.161	10089.49
492.365	10218.51
492.569	10161.17
492.772	10165.26
492.976	10404.88
493.18	10482.7
493.383	10607.62
493.587	10531.85
493.79	10673.16
493.994	10546.19
494.197	10611.72
494.401	10714.12
494.605	10765.32
494.808	10892.29
495.012	11168.77
495.215	11066.37
495.419	11262.97
495.622	11111.43
495.825	11500.54
496.029	11406.33
496.232	11568.12
496.436	11475.96
496.639	11996.15
496.843	11736.06
497.046	11996.15
497.249	12299.25
497.453	12223.47
497.656	12323.82
497.859	12391.41
498.063	12211.18
498.266	12483.56
498.469	12680.17
498.673	12774.38
498.876	13030.37
499.079	13214.69
499.282	12958.69
499.485	13296.61
499.689	13581.28
499.892	13786.07
500.095	13614.04
500.298	14064.6
500.501	13949.91
500.705	14232.53
500.908	14652.36
501.111	14603.21
501.314	14689.23
501.517	14906.31
501.72	15176.64
501.923	15084.48
502.126	15246.27
502.329	15436.74
502.532	15543.23
502.735	15764.41
502.938	16077.75
503.141	16169.91
503.344	16499.63
503.547	16456.62
503.75	16485.3
503.953	17085.35
504.156	17101.73
504.359	17281.95
504.562	17525.66
504.765	17709.98
504.968	17839
505.17	18193.3
505.373	18031.51
505.576	18586.51
505.779	18754.44
505.982	18688.91
506.185	18889.61
506.387	19118.98
506.59	19362.69
506.793	19647.36
506.996	19512.19
507.198	20030.33
507.401	20228.98
507.604	20243.32
507.807	20644.72
508.009	21058.41
508.212	21384.04
508.415	21144.42
508.617	21349.22
508.82	21537.63
509.022	21269.35
509.225	22119.26
509.428	22264.66
509.63	22702.93
509.833	22555.47
510.035	22907.73
510.238	22958.92
510.44	23223.11
510.643	23739.2
510.845	24062.78
511.048	23597.89
511.25	24081.21
511.453	24402.74
511.655	25344.81
511.858	24806.19
512.06	25375.53
512.262	25484.07
512.465	25428.77
512.667	26030.88
512.87	26387.22
513.072	26198.81
513.274	26458.9
513.477	26831.63
513.679	26817.3
513.881	27441.93
514.084	27675.4
514.286	27656.96
514.488	28295.93
514.69	28742.39
514.893	28803.83
515.095	28803.83
515.297	29127.41
515.499	29270.76
515.701	29514.47
515.904	30044.9
516.106	30092
516.308	30450.39
516.51	30816.98
516.712	30692.05
516.914	31046.35
517.116	31642.31
517.318	31716.04
517.52	31890.12
517.722	32101.06
517.925	32350.91
518.127	32916.15
518.329	33127.09
518.531	33102.51
518.733	33737.38
518.935	34085.54
519.136	34122.4
519.338	34732.7
519.54	34808.47
519.742	34906.77
519.944	35097.24
520.146	35558.03
520.348	35629.71
520.55	35941
520.752	36459.13
520.954	36850.3
521.155	36299.39
521.357	37266.03
521.559	37360.24
521.761	37780.07
521.963	37923.43
522.164	38107.75
522.366	38398.56
522.568	38646.36
522.77	38695.52
522.971	39570
523.173	39705.16
523.375	39766.6
523.576	39483.98
523.778	39748.17
523.98	40327.75
524.181	40802.88
524.383	40456.77
524.584	41130.55
524.786	40706.62
524.988	41058.87
525.189	42089
525.391	41720.37
525.592	41693.74
525.794	42134.06
525.995	41959.98
526.197	42514.98
526.398	42209.83
526.6	42740.25
526.801	43207.19
527.003	42797.6
527.204	43350.55
527.406	43485.72
527.607	43653.65
527.808	43940.36
528.01	43416.08
528.211	43766.29
528.412	44651.01
528.614	44442.12
528.815	44335.62
529.016	44548.61
529.218	44704.26
529.419	45017.6
529.62	44945.92
529.822	44831.23
530.023	45046.27
530.224	45011.45
530.425	44960.25
530.626	44954.11
530.828	45044.22
531.029	46316.01
531.23	45314.55
531.431	45646.32
531.632	45601.27
531.833	45691.38
532.035	45830.64
532.236	46025.2
532.437	46182.89
532.638	45697.52
532.839	46402.02
533.04	46344.68
533.241	45863.41
533.442	46805.47
533.643	46336.49
533.844	46424.55
534.045	46397.93
534.246	45654.51
534.447	46494.18
534.648	46289.38
534.849	46156.27
535.05	46049.77
535.251	46299.62
535.451	46686.69
535.652	47012.32
535.853	46678.5
536.054	46567.91
536.255	46885.34
536.456	46383.59
536.657	47370.71
536.857	46662.11
537.058	46434.79
537.259	47016.41
537.46	46938.59
537.66	46881.25
537.861	46899.68
538.062	46473.7
538.263	47198.68
538.463	46471.65
538.664	46469.61
538.865	46723.55
539.065	47124.96
539.266	46125.55
539.466	46920.16
539.667	46359.02
539.868	47395.29
540.068	46756.32
540.269	46862.82
540.469	46907.87
540.67	46141.93
540.87	46412.26
541.071	46672.35
541.271	46631.4
541.472	46846.43
541.672	46658.02
541.873	46608.87
542.073	46324.2
542.274	46891.49
542.474	46541.28
542.675	46645.73
542.875	47030.75
543.075	46569.96
543.276	46367.21
543.476	47018.46
543.676	46254.57
543.877	46760.42
544.077	46490.09
544.277	46508.52
544.478	46610.92
544.678	46514.66
544.878	46588.39
545.078	46744.03
545.279	46027.24
545.479	46336.49
545.679	46549.48
545.879	46735.84
546.079	46440.93
546.28	46322.15
546.48	46287.34
546.68	46508.52
546.88	46727.65
547.08	46393.83
547.28	46682.59
547.48	46098.92
547.68	46641.63
547.88	46408.17
548.081	46780.9
548.281	46520.8
548.481	46180.84
548.681	46789.09
548.881	46465.51
549.081	46199.27
549.28	46000.62
549.48	46705.12
549.68	46025.2
549.88	46799.33
550.08	46563.81
550.28	46756.32
550.48	46391.78
550.68	46422.5
550.88	46381.54
551.08	46420.45
551.279	46475.75
551.479	45822.45
551.679	46236.14
551.879	46039.53
552.079	46371.3
552.278	46291.43
552.478	46363.11
552.678	46184.94
552.878	46440.93
553.077	46117.35
553.277	45529.59
553.477	46549.48
553.676	46006.76
553.876	45844.98
554.076	45910.51
554.275	46076.4
554.475	45629.94
554.674	45869.55
554.874	46221.8
555.074	45773.3
555.273	46449.13
555.473	45869.55
555.672	45631.99
555.872	45691.38
556.071	46148.07
556.271	45550.07
556.47	45924.85
556.67	45476.34
556.869	45562.36
557.068	45666.8
557.268	45732.34
557.467	45658.61
557.667	45177.34
557.866	45515.25
558.065	45072.89
558.265	44812.8
558.464	44839.42
558.663	45044.22
558.863	44569.09
559.062	45711.86
559.261	44122.63
559.461	45412.85
559.66	44298.76
559.859	45029.88
560.058	44868.09
560.258	44958.2
560.457	44360.2
560.656	45015.55
560.855	44222.98
561.054	44632.58
561.253	43993.61
561.453	44372.49
561.652	44419.59
561.851	44442.12
562.05	43950.6
562.249	43817.49
562.448	44442.12
562.647	43887.12
562.846	43825.68
563.045	43565.59
563.244	43473.43
563.443	43786.77
563.642	43180.57
563.841	43608.59
564.04	43246.1
564.239	43745.81
564.438	42836.51
564.637	43366.93
564.836	43440.66
565.035	42719.77
565.234	42641.95
565.432	42508.83
565.631	42600.99
565.83	42582.56
566.029	42238.5
566.228	42986.01
566.427	42068.52
566.625	41873.96
566.824	41898.54
567.023	42316.32
567.222	41429.55
567.42	42271.27
567.619	41753.13
567.818	41620.02
568.016	42019.37
568.215	41783.85
568.414	41275.96
568.612	41550.38
568.811	41189.94
569.01	41099.83
569.208	40661.57
569.407	41011.77
569.605	40606.27
569.804	40698.43
570.002	40321.6
570.201	40643.13
570.4	39993.93
570.598	39961.16
570.797	39832.14
570.995	40514.11
571.193	39682.64
571.392	40268.36
571.59	39545.42
571.789	39600.72
571.987	39496.27
572.186	39320.15
572.384	39047.77
572.582	39617.1
572.781	39244.37
572.979	38609.5
573.177	38969.94
573.376	39535.18
573.574	38783.58
573.772	39101.01
573.971	38615.65
574.169	38492.77
574.367	38447.71
574.565	38408.8
574.763	38193.76
574.962	37980.78
575.16	37726.83
575.358	38105.7
575.556	37741.16
575.754	38466.14
575.952	37775.98
576.151	38070.89
576.349	37239.41
576.547	37098.1
576.745	37419.63
576.943	37399.15
577.141	37419.63
577.339	37331.57
577.537	36956.79
577.735	36983.41
577.933	36661.88
578.131	36735.61
578.329	36678.27
578.527	36287.1
578.725	35998.34
578.923	36553.34
579.121	36362.88
579.319	36326.02
579.516	36254.34
579.714	36297.34
579.912	35734.15
580.11	35429.01
580.308	35822.22
580.506	35603.08
580.704	35025.56
580.901	35570.32
581.099	35672.71
581.297	35386
581.495	35144.34
581.692	35398.29
581.89	35080.85
582.088	34640.54
582.285	34847.38
582.483	35103.38
582.681	34658.97
582.878	34693.79
583.076	34247.33
583.274	34667.16
583.471	33850.02
583.669	34083.49
583.866	33645.23
584.064	33929.89
584.262	33510.06
584.459	33923.75
584.657	33901.22
584.854	33845.93
585.052	33186.48
585.249	33493.68
585.447	33360.56
585.644	33198.77
585.841	33239.73
586.039	33407.66
586.236	32875.19
586.434	32791.22
586.631	32807.61
586.828	32647.86
587.026	32617.14
587.223	32582.33
587.42	32217.79
587.618	32324.29
587.815	32172.74
588.012	31908.55
588.21	31802.05
588.407	32256.7
588.604	31578.82
588.801	31498.95
588.999	31890.12
589.196	31630.02
589.393	31570.63
589.59	31314.64
589.787	31261.39
589.984	31107.79
590.182	30941.91
590.379	30976.72
590.576	30943.95
590.773	31171.28
590.97	30700.25
591.167	30599.9
591.364	30282.46
591.561	30610.14
591.758	30499.55
591.955	30413.53
592.152	30579.42
592.349	30368.48
592.546	29942.5
592.743	30354.14
592.94	29399.79
593.137	29850.34
593.334	29872.87
593.531	29356.78
593.727	29666.02
593.924	29299.44
594.121	29330.16
594.318	29805.28
594.515	29002.48
594.712	29246.19
594.908	29141.74
595.105	29301.48
595.302	28717.81
595.499	29094.64
595.696	28828.4
595.892	28472.06
596.089	28734.2
596.286	28738.29
596.482	28578.55
596.679	28099.33
596.876	28279.55
597.072	27996.93
597.269	28171
597.466	27943.68
597.662	27632.39
597.859	27843.33
598.055	27800.32
598.252	27425.54
598.448	27611.91
598.645	27400.97
598.841	27149.07
599.038	27568.9
599.234	27235.08
599.431	26811.15
599.627	26905.36
599.824	27093.77
600.02	26839.83
600.217	26546.97
600.413	26563.35
600.609	26649.36
600.806	26284.83
601.002	26999.57
601.198	25944.86
601.395	26266.39
601.591	26080.03
601.787	26180.38
601.984	26039.07
602.18	26159.9
602.376	25844.51
602.572	25578.28
602.769	25586.47
602.965	25856.8
603.161	25453.35
603.357	25613.09
603.553	25166.63
603.75	25539.36
603.946	25330.47
604.142	25133.87
604.338	24861.49
604.534	24914.73
604.73	24781.62
604.926	24865.58
605.122	24695.6
605.318	24410.93
605.514	24621.87
605.71	24265.53
605.906	24650.55
606.102	24517.43
606.298	24320.82
606.494	24419.13
606.69	24204.09
606.886	24001.34
607.082	23839.55
607.278	24011.58
607.474	23675.71
607.67	24085.31
607.866	23407.43
608.062	24120.12
608.257	23409.48
608.453	23380.81
608.649	23659.33
608.845	23544.64
609.041	23327.56
609.236	23515.97
609.432	23368.52
609.628	23198.54
609.824	23235.4
610.019	23251.78
610.215	23106.38
610.411	23307.08
610.606	23001.93
610.802	23358.28
610.998	22758.22
611.193	23120.71
611.389	22774.61
611.584	22766.42
611.78	22659.92
611.976	22805.33
612.171	22606.67
612.367	22506.32
612.562	22698.83
612.758	22422.36
612.953	22276.95
613.149	22405.97
613.344	22332.25
613.539	22377.3
613.735	22287.19
613.93	22215.51
614.126	22180.7
614.321	22287.19
614.517	22014.81
614.712	22174.55
614.907	21873.5
615.103	22115.16
615.298	21764.96
615.493	22131.54
615.688	21279.59
615.884	21756.77
616.079	21685.09
616.274	21566.31
616.47	21558.11
616.665	21576.55
616.86	21529.44
617.055	21314.41
617.25	21492.58
617.445	21181.29
617.641	20992.87
617.836	20992.87
618.031	20962.15
618.226	21197.67
618.421	21060.46
618.616	21203.82
618.811	20757.36
619.006	21062.51
619.201	20433.78
619.396	20771.69
619.591	20233.08
619.786	20900.72
619.981	20202.36
620.176	20405.11
620.371	19962.75
620.566	20171.64
620.761	20026.23
620.956	20138.87
621.151	19835.77
621.346	19667.84
621.541	19454.85
621.735	19764.09
621.93	19235.72
622.125	19569.54
622.32	19020.68
622.515	19016.58
622.709	19239.81
622.904	19241.86
623.099	18983.82
623.294	18961.29
623.488	18496.4
623.683	18897.8
623.878	18488.21
624.072	18629.52
624.267	18572.18
624.462	18391.95
624.656	18125.72
624.851	18404.24
625.046	17836.95
625.24	17525.66
625.435	17677.21
625.629	17834.91
625.824	17609.63
626.018	17695.64
626.213	17122.21
626.407	17482.66
626.602	17114.02
626.796	17103.78
626.991	17003.43
627.185	17286.05
627.38	16954.28
627.574	16925.61
627.768	16430
627.963	16800.68
628.157	16452.53
628.352	16507.82
628.546	16077.75
628.74	16438.19
628.935	16137.14
629.129	16147.38
629.323	15827.9
629.517	15911.86
629.712	15688.64
629.906	15635.39
630.1	15516.61
630.294	15629.24
630.489	15379.39
630.683	15397.82
630.877	15262.66
631.071	15295.43
631.265	15326.14
631.459	15084.48
631.653	14881.74
631.848	14715.85
632.042	14674.89
632.236	14582.73
632.43	14511.05
632.624	14951.37
632.818	14506.96
633.012	14296.02
633.206	14373.84
633.4	14461.9
633.594	14240.72
633.788	14263.25
633.982	14273.49
634.176	13933.53
634.369	13986.77
634.563	13906.9
634.757	13689.82
634.951	13837.27
635.145	13691.87
635.339	13771.74
635.533	13421.53
635.726	13272.03
635.92	13353.95
636.114	13110.24
636.308	13239.26
636.501	13044.71
636.695	13429.73
636.889	13134.82
637.083	13071.33
637.276	12813.29
637.47	12817.38
637.664	12702.7
637.857	12516.33
638.051	12432.36
638.244	12493.8
638.438	12534.76
638.632	12387.31
638.825	12348.4
639.019	12571.63
639.212	12129.27
639.406	12145.65
639.599	11955.19
639.793	12039.15
639.986	11850.74
640.18	11729.91
640.373	11695.1
640.567	11697.14
640.76	11760.63
640.954	11619.32
641.147	11521.02
641.34	11430.91
641.534	11451.39
641.727	11328.51
641.92	11430.91
642.114	11277.31
642.307	11236.35
642.5	11107.33
642.694	10972.16
642.887	10951.68
643.08	10863.62
643.273	11006.98
643.467	10730.5
643.66	10785.8
643.853	10591.24
644.046	10556.43
644.239	10716.17
644.432	10540.04
644.626	10494.99
644.819	10329.1
645.012	10370.06
645.205	10261.52
645.398	10304.53
645.591	10255.37
645.784	10292.24
645.977	10026
646.17	10152.98
646.363	9942.03
646.556	9853.97
646.749	9960.47
646.942	9944.08
647.135	9636.89
647.328	9595.93
647.521	9663.51
647.714	9393.18
647.907	9686.04
648.099	9335.84
648.292	9583.64
648.485	9444.38
648.678	9278.49
648.871	9251.87
649.064	9198.62
649.256	9366.56
649.449	9104.42
649.642	9020.45
649.835	9096.22
650.027	9053.22
650.22	8940.58
650.413	9090.08
650.605	8903.71
650.798	9028.64
650.991	8721.45
651.183	8614.95
651.376	8617
651.568	8680.49
651.761	8631.33
651.954	8764.45
652.146	8381.48
652.339	8500.26
652.531	8383.53
652.724	8385.58
652.916	8215.6
653.109	8274.99
653.301	8135.73
653.494	8236.08
653.686	8213.55
653.879	8277.04
654.071	8150.06
654.263	8143.92
654.456	8139.82
654.648	7947.31
654.84	7898.16
655.033	7912.5
655.225	7711.8
655.417	7713.84
655.61	7883.83
655.802	7789.62
655.994	7734.32
656.186	7760.95
656.379	7613.49
656.571	7517.24
656.763	7564.34
656.955	7552.06
657.148	7539.77
657.34	7545.91
657.532	7218.24
657.724	7326.78
657.916	7455.8
658.108	7406.65
658.3	7310.4
658.492	7310.4
658.684	7156.8
658.876	7117.89
659.068	7027.78
659.26	7183.42
659.452	6863.94
659.644	7011.39
659.836	6880.32
660.028	6868.03
660.22	6890.56
660.412	6659.14
660.604	6741.06
660.796	6612.04
660.988	6679.62
661.18	6745.16
661.372	6818.88
661.563	6710.34
661.755	6724.68
661.947	6712.39
662.139	6646.85
662.331	6548.55
662.522	6446.15
662.714	6542.41
662.906	6384.71
663.097	6446.15
663.289	6188.11
663.481	6136.91
663.673	6351.95
663.864	6302.79
664.056	6306.89
664.247	6358.09
664.439	6118.48
664.631	6229.07
664.822	6020.17
665.014	5977.17
665.205	6108.24
665.397	5989.46
665.588	6018.13
665.78	5903.44
665.971	5901.39
666.163	6005.84
666.354	5930.06
666.546	6024.27
666.737	5794.9
666.929	5811.28
667.12	5858.39
667.311	5866.58
667.503	5846.1
667.694	5692.5
667.885	5751.89
668.077	5721.17
668.268	5545.05
668.459	5715.03
668.651	5639.25
668.842	5606.49
669.033	5565.53
669.224	5467.22
669.416	5680.21
669.607	5526.61
669.798	5549.14
669.989	5631.06
670.18	5313.63
670.371	5586.01
670.563	5461.08
670.754	5430.36
670.945	5411.93
671.136	5399.64
671.327	5389.4
671.518	5411.93
671.709	5522.52
671.9	5291.1
672.091	5231.71
672.282	5362.78
672.473	5299.29
672.664	5151.84
672.855	5229.66
673.046	5170.27
673.237	5141.6
673.428	5104.73
673.619	5270.62
673.809	5241.95
674	5188.7
674.191	5153.88
674.382	5008.48
674.573	5028.96
674.764	4914.27
674.954	5211.23
675.145	4988
675.336	5024.86
675.527	4977.76
675.717	5082.21
675.908	4811.87
676.099	5020.77
676.289	4940.9
676.48	4977.76
676.671	4897.89
676.861	4906.08
677.052	4854.88
677.243	4838.5
677.433	5002.33
677.624	5092.44
677.814	4740.19
678.005	4815.97
678.195	4842.59
678.386	4932.7
678.576	4914.27
678.767	4869.22
678.957	4813.92
679.148	5094.49
679.338	4754.53
679.529	4953.18
679.719	4836.45
679.909	4893.79
680.1	4787.3
680.29	4764.77
680.481	4713.57
680.671	4797.54
680.861	4783.2
681.052	4811.87
681.242	4949.09
681.432	4906.08
681.622	4729.95
681.813	4791.39
682.003	4691.04
682.193	4641.89
682.383	4791.39
682.573	4691.04
682.764	4738.15
682.954	4668.52
683.144	4756.58
683.334	4824.16
683.524	4650.08
683.714	4727.91
683.904	4732
684.094	4807.78
684.284	4553.83
684.474	4547.69
684.664	4600.93
684.854	4654.18
685.044	4609.12
685.234	4490.34
685.424	4496.49
685.614	4463.72
685.804	4580.45
685.994	4373.61
686.184	4559.97
686.374	4357.22
686.564	4398.18
686.753	4629.6
686.943	4422.76
687.133	4439.14
687.323	4545.64
687.513	4516.97
687.702	4416.62
687.892	4353.13
688.082	4330.6
688.272	4297.83
688.461	4342.89
688.651	4570.21
688.841	4455.53
689.03	4332.65
689.22	4244.59
689.41	4281.45
689.599	4385.9
689.789	4226.15
689.979	4164.72
690.168	4236.39
690.358	4054.12
690.547	4019.31
690.737	4205.67
690.926	4152.43
691.116	4072.56
691.305	4144.24
691.495	4084.84
691.684	3976.3
691.874	4058.22
692.063	4211.82
692.252	3957.87
692.442	3972.21
692.631	3820.66
692.82	3994.73
693.01	3867.76
693.199	4123.76
693.388	3980.4
693.578	3865.71
693.767	3812.46
693.956	3906.67
694.146	3765.36
694.335	3851.38
694.524	3834.99
694.713	3910.77
694.902	3783.79
695.092	3861.62
695.281	3732.59
695.47	3773.55
695.659	3714.16
695.848	3644.53
696.037	3767.41
696.226	3791.98
696.415	3767.41
696.604	3808.37
696.793	3683.44
696.982	3718.26
697.171	3802.22
697.36	3800.18
697.549	3734.64
697.738	3769.46
697.927	3529.84
698.116	3781.74
698.305	3650.67
698.494	3685.49
698.683	3705.97
698.872	3683.44
699.061	3714.16
699.25	3816.56
699.438	3636.34
699.627	3574.9
699.816	3611.76
700.005	3589.24
700.193	3669.11
700.382	3605.62
700.571	3622
700.76	3718.26
700.948	3648.63
701.137	3515.51
701.326	3656.82
701.514	3587.19
701.703	3677.3
701.892	3687.54
702.08	3540.08
702.269	3574.9
702.457	3513.46
702.646	3634.29
702.834	3535.99
703.023	3579
703.212	3550.32
703.4	3554.42
703.589	3478.65
703.777	3402.87
703.965	3515.51
704.154	3634.29
704.342	3509.37
704.531	3628.15
704.719	3441.78
704.907	3693.68
705.096	3470.45
705.284	3570.8
705.472	3490.93
705.661	3519.6
705.849	3579
706.037	3611.76
706.226	3460.21
706.414	3445.88
706.602	3546.23
706.79	3460.21
706.979	3546.23
707.167	3509.37
707.355	3386.49
707.543	3497.08
707.731	3562.61
707.919	3503.22
708.107	3609.72
708.296	3634.29
708.484	3576.95
708.672	3492.98
708.86	3613.81
709.048	3708.02
709.236	3658.87
709.424	3542.13
709.612	3564.66
709.8	3490.93
709.988	3554.42
710.176	3591.28
710.364	3685.49
710.551	3533.94
710.739	3519.6
710.927	3472.5
711.115	3595.38
711.303	3499.13
711.491	3681.39
711.679	3603.57
711.866	3607.67
712.054	3464.31
712.242	3593.33
712.43	3579
712.617	3574.9
712.805	3441.78
712.993	3521.65
713.181	3472.5
713.368	3546.23
713.556	3548.28
713.744	3411.06
713.931	3644.53
714.119	3585.14
714.306	3658.87
714.494	3486.84
714.682	3492.98
714.869	3529.84
715.057	3617.91
715.244	3458.17
715.432	3476.6
715.619	3499.13
715.807	3622
715.994	3460.21
716.182	3540.08
716.369	3517.56
716.556	3513.46
716.744	3464.31
716.931	3437.69
717.119	3535.99
717.306	3503.22
717.493	3552.37
717.681	3619.96
717.868	3599.48
718.055	3492.98
718.242	3550.32
718.43	3550.32
718.617	3607.67
718.804	3421.3
718.991	3599.48
719.179	3484.79
719.366	3595.38
719.553	3562.61
719.74	3550.32
719.927	3572.85
720.114	3527.8
720.301	3406.97
720.488	3550.32
720.676	3517.56
720.863	3435.64
721.05	3552.37
721.237	3406.97
721.424	3564.66
721.611	3673.2
721.798	3554.42
721.985	3374.2
722.172	3355.77
722.358	3505.27
722.545	3462.26
722.732	3370.1
722.919	3488.89
723.106	3492.98
723.293	3642.48
723.48	3517.56
723.667	3431.54
723.853	3531.89
724.04	3415.16
724.227	3439.73
724.414	3409.01
724.6	3439.73
724.787	3480.69
724.974	3370.1
725.161	3513.46
725.347	3263.61
725.534	3515.51
725.72	3431.54
725.907	3456.12
726.094	3433.59
726.28	3542.13
726.467	3339.38
726.653	3517.56
726.84	3675.25
727.027	3486.84
727.213	3282.04
727.4	3437.69
727.586	3392.63
727.773	3454.07
727.959	3515.51
728.145	3386.49
728.332	3472.5
728.518	3497.08
728.705	3492.98
728.891	3488.89
729.077	3443.83
729.264	3396.73
729.45	3292.28
729.636	3396.73
729.823	3374.2
730.009	3300.47
730.195	3466.36
730.382	3398.77
730.568	3378.3
730.754	3243.13
730.94	3331.19
731.126	3466.36
731.313	3411.06
731.499	3366.01
731.685	3249.27
731.871	3351.67
732.057	3327.1
732.243	3351.67
732.429	3271.8
732.615	3282.04
732.801	3255.42
732.987	3404.92
733.173	3253.37
733.359	3222.65
733.545	3320.95
733.731	3304.57
733.917	3429.49
734.103	3230.84
734.289	3331.19
734.475	3087.48
734.661	3359.86
734.847	3263.61
735.033	3286.14
735.219	3306.62
735.404	3267.7
735.59	3181.69
735.776	3267.7
735.962	3243.13
736.148	3357.82
736.333	3222.65
736.519	3290.23
736.705	3273.85
736.89	3136.63
737.076	3247.23
737.262	3105.92
737.447	3103.87
737.633	3239.03
737.819	3150.97
738.004	3241.08
738.19	3204.22
738.375	3157.11
738.561	3118.2
738.747	3101.82
738.932	3173.5
739.118	3187.83
739.303	3136.63
739.489	3181.69
739.674	2983.04
739.859	3036.28
740.045	3046.52
740.23	3003.52
740.416	3087.48
740.601	3112.06
740.786	3011.71
740.972	3124.35
741.157	3118.2
741.342	2976.89
741.528	2919.55
741.713	3087.48
741.898	3136.63
742.084	2956.41
742.269	2911.36
742.454	2985.09
742.639	2862.21
742.824	2937.98
743.01	2888.83
743.195	2872.45
743.38	2829.44
743.565	2892.93
743.75	2763.9
743.935	2860.16
744.12	2899.07
744.305	2768
744.49	2727.04
744.675	2784.38
744.86	2755.71
745.045	2653.31
745.23	2772.1
745.415	2712.71
745.6	2735.23
745.785	2669.7
745.97	2759.81
746.155	2720.9
746.34	2784.38
746.525	2612.35
746.71	2616.45
746.895	2628.74
747.079	2653.31
747.264	2585.73
747.449	2567.3
747.634	2595.97
747.819	2641.03
748.003	2546.82
748.188	2514.05
748.373	2600.07
748.557	2491.52
748.742	2460.81
748.927	2573.44
749.111	2366.6
749.296	2225.29
749.481	2356.36
749.665	2274.44
749.85	2329.74
750.034	2407.56
750.219	2202.76
750.404	2184.33
750.588	2317.45
750.773	2153.61
750.957	2159.75
751.141	2251.91
751.326	2208.9
751.51	2264.2
751.695	2237.58
751.879	2299.02
752.064	2167.95
752.248	2114.7
752.432	2247.82
752.617	2186.38
752.801	2106.51
752.985	2061.45
753.17	2024.59
753.354	2051.21
753.538	2059.4
753.722	2010.25
753.907	2034.83
754.091	1973.39
754.275	2022.54
754.459	2014.35
754.643	1864.85
754.828	1969.29
755.012	2008.2
755.196	1862.8
755.38	1924.24
755.564	1858.7
755.748	1776.78
755.932	1887.37
756.116	1819.79
756.3	1911.95
756.484	1805.46
756.668	1852.56
756.852	1827.98
757.036	1830.03
757.22	1756.3
757.404	1744.02
757.588	1733.78
757.772	1758.35
757.956	1674.39
758.14	1713.3
758.323	1590.42
758.507	1756.3
758.691	1664.15
758.875	1561.75
759.059	1701.01
759.242	1649.81
759.426	1674.39
759.61	1641.62
759.794	1592.47
759.977	1588.37
760.161	1645.71
760.345	1635.47
760.528	1608.85
760.712	1531.03
760.895	1586.32
761.079	1467.54
761.263	1483.92
761.446	1539.22
761.63	1522.84
761.813	1543.32
761.997	1445.01
762.18	1531.03
762.364	1514.64
762.547	1516.69
762.731	1518.74
762.914	1371.29
763.098	1473.68
763.281	1471.64
763.464	1432.72
763.648	1356.95
763.831	1416.34
764.015	1397.91
764.198	1453.2
764.381	1430.68
764.564	1363.09
764.748	1303.7
764.931	1381.53
765.114	1305.75
765.297	1336.47
765.481	1338.52
765.664	1326.23
765.847	1356.95
766.03	1315.99
766.213	1297.56
766.397	1381.53
766.58	1309.85
766.763	1367.19
766.946	1291.41
767.129	1348.76
767.312	1344.66
767.495	1334.42
767.678	1189.02
767.861	1287.32
768.044	1244.31
768.227	1186.97
768.41	1256.6
768.593	1336.47
768.776	1260.7
768.959	1291.41
769.142	1184.92
769.324	1195.16
769.507	1199.26
769.69	1307.8
769.873	1137.82
770.056	1262.74
770.239	1152.15
770.421	1272.98
770.604	1195.16
770.787	1141.91
770.97	1240.22
771.152	1219.74
771.335	1133.72
771.518	1090.71
771.7	1131.67
771.883	1096.86
772.066	1178.78
772.248	1172.63
772.431	1090.71
772.613	1068.19
772.796	998.56
772.978	1150.11
773.161	1113.24
773.343	1088.67
773.526	1066.14
773.708	992.41
773.891	1086.62
774.073	1016.99
774.256	951.45
774.438	1012.89
774.621	924.83
774.803	1000.6
774.985	1012.89
775.168	1041.56
775.35	900.25
775.532	1027.23
775.715	1045.66
775.897	945.31
776.079	959.64
776.261	1041.56
776.444	875.68
776.626	900.25
776.808	959.64
776.99	920.73
777.173	892.06
777.355	902.3
777.537	840.86
777.719	896.16
777.901	902.3
778.083	769.18
778.265	793.76
778.447	847.01
778.629	756.9
778.811	877.73
778.993	779.42
779.175	865.44
779.357	763.04
779.539	732.32
779.721	900.25
779.903	801.95
780.085	836.77
780.267	683.17
780.449	769.18
780.631	758.94
780.812	885.92
780.994	717.98
781.176	703.65
781.358	638.11
781.54	717.98
781.721	695.46
781.903	814.24
782.085	736.42
782.267	683.17
782.448	748.7
782.63	715.94
782.812	674.98
782.993	693.41
783.175	711.84
783.357	666.78
783.538	730.27
783.72	642.21
783.901	627.87
784.083	650.4
784.264	742.56
784.446	644.26
784.627	605.35
784.809	660.64
784.99	568.48
785.172	523.43
785.353	666.78
785.535	634.02
785.716	601.25
785.897	701.6
786.079	656.54
786.26	664.74
786.441	595.11
786.623	521.38
786.804	564.39
786.985	607.39
787.167	584.87
787.348	605.35
787.529	566.43
787.71	599.2
787.891	621.73
788.073	601.25
788.254	531.62
788.435	554.15
788.616	437.41
788.797	470.18
788.978	568.48
789.159	537.76
789.34	552.1
789.522	545.95
789.703	588.96
789.884	486.56
790.065	502.95
790.246	502.95
790.427	552.1
790.607	509.09
790.788	466.08
790.969	461.99
791.15	513.19
791.331	339.11
791.512	449.7
791.693	363.69
791.874	515.23
792.054	468.13
792.235	404.64
792.416	554.15
792.597	455.84
792.778	455.84
792.958	494.76
793.139	441.51
793.32	478.37
793.5	449.7
793.681	482.47
793.862	509.09
794.042	375.97
794.223	412.84
794.404	396.45
794.584	369.83
794.765	394.4
794.945	513.19
795.126	418.98
795.306	421.03
795.487	384.16
795.667	433.32
795.848	437.41
796.028	425.12
796.209	390.31
796.389	404.64
796.57	363.69
796.75	343.21
796.93	341.16
797.111	380.07
797.291	369.83
797.471	361.64
797.652	437.41
797.832	318.63
798.012	343.21
798.192	353.45
798.373	367.78
798.553	457.89
798.733	373.92
798.913	341.16
799.093	306.34
799.274	367.78
799.454	421.03
799.634	337.06
799.814	380.07
799.994	330.92
800.174	378.02
800.354	418.98
800.534	277.67
800.714	416.93
800.894	347.3
801.074	306.34
801.254	312.49
801.434	398.5
801.614	332.97
801.794	277.67
801.974	824.48
802.154	341.16
802.334	365.73
802.514	335.01
802.693	285.86
802.873	283.81
803.053	289.96
803.233	273.57
803.413	353.45
803.592	332.97
803.772	355.49
803.952	273.57
804.131	285.86
804.311	326.82
804.491	273.57
804.67	345.25
804.85	310.44
805.03	318.63
805.209	390.31
805.389	263.33
805.568	246.95
805.748	236.71
805.928	251.05
806.107	300.2
806.287	267.43
806.466	255.14
806.646	238.76
806.825	302.25
807.004	210.09
807.184	257.19
807.363	328.87
807.543	191.66
807.722	236.71
807.901	410.79
808.081	345.25
808.26	214.18
808.439	263.33
808.619	246.95
808.798	240.81
808.977	285.86
809.156	279.72
809.336	281.77
809.515	216.23
809.694	212.14
809.873	316.58
810.052	240.81
810.231	298.15
810.411	285.86
810.59	314.53
810.769	177.32
810.948	230.57
811.127	244.9
811.306	214.18
811.485	181.42
811.664	191.66
811.843	261.29
812.022	294.05
812.201	191.66
812.38	210.09
812.559	199.85
812.737	171.18
812.916	277.67
813.095	165.03
813.274	226.47
813.453	244.9
813.632	228.52
813.811	267.43
813.989	236.71
814.168	197.8
814.347	187.56
814.526	263.33
814.704	214.18
814.883	185.51
815.062	111.78
815.24	203.94
815.419	175.27
815.598	201.9
815.776	146.6
815.955	296.1
816.133	175.27
816.312	244.9
816.49	218.28
816.669	136.36
816.847	265.38
817.026	251.05
817.204	203.94
817.383	156.84
817.561	195.75
817.74	197.8
817.918	195.75
818.097	220.33
818.275	119.98
818.453	146.6
818.632	197.8
818.81	119.98
818.988	185.51
819.167	195.75
819.345	216.23
819.523	177.32
819.701	167.08
819.879	187.56
820.058	185.51
820.236	195.75
820.414	132.26
820.592	167.08
820.77	162.98
820.948	255.14
821.127	158.89
821.305	148.65
821.483	101.55
821.661	273.57
821.839	167.08
822.017	138.41
822.195	122.02
822.373	193.7
822.551	162.98
822.729	232.62
822.907	226.47
823.085	154.79
823.262	130.22
823.44	148.65
823.618	122.02
823.796	142.5
823.974	158.89
824.152	128.17
824.329	185.51
824.507	154.79
824.685	72.87
824.863	171.18
825.04	183.46
825.218	175.27
825.396	95.4
825.574	181.42
825.751	142.5
825.929	107.69
826.107	119.98
826.284	169.13
826.462	128.17
826.639	124.07
826.817	167.08
826.994	187.56
827.172	142.5
827.349	158.89
827.527	105.64
827.704	183.46
827.882	154.79
828.059	128.17
828.237	154.79
828.414	79.02
828.591	64.68
828.769	97.45
828.946	130.22
829.124	91.31
829.301	89.26
829.478	154.79
829.655	93.35
829.833	72.87
830.01	146.6
830.187	140.46
830.364	130.22
830.542	146.6
830.719	177.32
830.896	146.6
831.073	93.35
831.25	66.73
831.427	136.36
831.604	140.46
831.782	101.55
831.959	191.66
832.136	152.74
832.313	175.27
832.49	97.45
832.667	76.97
832.844	150.7
833.021	138.41
833.198	89.26
833.374	187.56
833.551	148.65
833.728	154.79
833.905	62.63
834.082	52.39
834.259	48.3
834.436	230.57
834.612	130.22
834.789	154.79
834.966	113.83
835.143	105.64
835.319	81.07
835.496	169.13
835.673	154.79
835.85	89.26
836.026	93.35
836.203	99.5
836.38	122.02
836.556	83.11
836.733	27.82
836.909	148.65
837.086	140.46
837.262	46.25
837.439	101.55
837.616	70.83
837.792	132.26
837.968	101.55
838.145	1.19
838.321	122.02
838.498	109.74
838.674	99.5
838.851	113.83
839.027	136.36
839.203	95.4
839.38	97.45
839.556	138.41
839.732	105.64
839.909	31.91
840.085	97.45
840.261	60.59
840.437	56.49
840.614	52.39
840.79	99.5
840.966	56.49
841.142	27.82
841.318	93.35
841.494	70.83
841.671	87.21
841.847	99.5
842.023	21.67
842.199	97.45
842.375	210.09
842.551	81.07
842.727	15.53
842.903	132.26
843.079	11.43
843.255	85.16
843.431	101.55
843.607	109.74
843.783	44.2
843.959	83.11
844.134	27.82
844.31	115.88
844.486	48.3
844.662	21.67
844.838	79.02
845.013	130.22
845.189	70.83
845.365	107.69
845.541	81.07
845.716	72.87
845.892	158.89
846.068	60.59
846.244	-0.85
846.419	113.83
846.595	66.73
846.77	126.12
846.946	21.67
847.122	60.59
847.297	126.12
847.473	109.74
847.648	9.39
847.824	74.92
847.999	25.77
848.175	50.35
848.35	60.59
848.526	81.07
848.701	83.11
848.876	70.83
849.052	29.87
849.227	54.44
849.403	27.82
849.578	124.07
849.753	40.11
849.929	50.35
850.104	42.15
850.279	64.68
850.454	56.49
850.63	21.67
850.805	36.01
850.98	89.26
851.155	60.59
851.33	19.63
851.505	72.87
851.681	95.4
851.856	89.26
852.031	42.15
852.206	42.15
852.381	81.07
852.556	48.3
852.731	44.2
852.906	93.35
853.081	91.31
853.256	128.17
853.431	38.06
853.606	101.55
853.781	-13.14
853.956	-50
854.131	76.97
854.305	62.63
854.48	56.49
854.655	-33.62
854.83	11.43
855.005	56.49
855.18	60.59
855.354	-4.95
855.529	87.21
855.704	7.34
855.879	31.91
856.053	70.83
856.228	44.2
856.403	60.59
856.577	124.07
856.752	5.29
856.926	19.63
857.101	38.06
857.276	50.35
857.45	101.55
857.625	5.29
857.799	81.07
857.974	27.82
858.148	17.58
858.323	54.44
858.497	-9.05
858.672	40.11
858.846	48.3
859.02	25.77
859.195	21.67
859.369	46.25
859.543	70.83
859.718	60.59
859.892	68.78
860.066	99.5
860.241	44.2
860.415	72.87
860.589	-0.85
860.763	83.11
860.938	-0.85
861.112	79.02
861.286	54.44
861.46	130.22
861.634	56.49
861.808	-0.85
861.982	68.78
862.157	-29.52
862.331	46.25
862.505	54.44
862.679	7.34
862.853	44.2
863.027	46.25
863.201	68.78
863.375	1.19
863.549	25.77
863.722	56.49
863.896	50.35
864.07	64.68
864.244	74.92
864.418	25.77
864.592	76.97
864.766	-4.95
864.939	62.63
865.113	19.63
865.287	128.17
865.461	5.29
865.634	72.87
865.808	115.88
865.982	52.39
866.156	38.06
866.329	-31.57
866.503	81.07
866.676	40.11
866.85	23.72
867.024	-11.09
867.197	109.74
867.371	130.22
867.544	64.68
867.718	-19.29
867.891	134.31
868.065	-27.48
868.238	-7
868.412	91.31
868.585	79.02
868.759	40.11
868.932	-13.14
869.105	-9.05
869.279	64.68
869.452	-84.82
869.625	56.49
869.799	5.29
869.972	-17.24
870.145	-4.95
870.319	42.15
870.492	54.44
870.665	-23.38
870.838	70.83
871.011	42.15
871.185	29.87
871.358	-37.72
871.531	97.45
871.704	19.63
871.877	3.24
872.05	15.53
872.223	23.72
872.396	44.2
872.569	29.87
872.742	15.53
872.915	54.44
873.088	-41.81
873.261	38.06
873.434	50.35
873.607	40.11
873.78	-15.19
873.953	-39.76
874.126	54.44
874.299	87.21
874.471	68.78
874.644	60.59
874.817	29.87
874.99	115.88
875.163	15.53
875.335	3.24
875.508	103.59
875.681	15.53
875.853	74.92
876.026	1.19
876.199	3.24
876.371	50.35
876.544	36.01
876.717	56.49
876.889	31.91
877.062	89.26
877.234	11.43
877.407	13.48
877.579	-68.44
877.752	-21.33
877.924	29.87
878.097	42.15
878.269	9.39
878.442	17.58
878.614	105.64
878.786	21.67
878.959	64.68
879.131	23.72
879.303	83.11
879.476	81.07
879.648	70.83
879.82	64.68
879.993	81.07
880.165	68.78
880.337	-41.81
880.509	79.02
880.681	54.44
880.854	38.06
881.026	-27.48
881.198	93.35
881.37	31.91
881.542	56.49
881.714	23.72
881.886	-9.05
882.058	-0.85
882.23	62.63
882.402	103.59
882.574	-19.29
882.746	48.3
882.918	103.59
883.09	-33.62
883.262	3.24
883.434	44.2
883.606	-45.91
883.778	60.59
883.95	64.68
884.122	5.29
884.293	58.54
884.465	89.26
884.637	21.67
884.809	48.3
884.98	-15.19
885.152	-17.24
885.324	48.3
885.496	31.91
885.667	7.34
885.839	36.01
886.011	27.82
886.182	-33.62
886.354	23.72
886.525	-19.29
886.697	40.11
886.869	-37.72
887.04	15.53
887.212	36.01
887.383	17.58
887.555	-15.19
887.726	-9.05
887.897	42.15
888.069	31.91
888.24	91.31
888.412	-19.29
888.583	-11.09
888.754	-19.29
888.926	5.29
889.097	-39.76
889.268	-4.95
889.44	-9.05
889.611	-41.81
889.782	7.34
889.953	1.19
890.125	58.54
890.296	17.58
890.467	-2.9
890.638	25.77
890.809	-0.85
890.98	48.3
891.151	7.34
891.323	64.68
891.494	33.96
891.665	46.25
891.836	-37.72
892.007	36.01
892.178	1.19
892.349	-21.33
892.52	5.29
892.691	1.19
892.862	21.67
893.032	29.87
893.203	11.43
893.374	-4.95
893.545	89.26
893.716	-7
893.887	87.21
894.057	40.11
894.228	111.78
894.399	13.48
894.57	154.79
894.74	66.73
894.911	52.39
895.082	-7
895.253	46.25
895.423	-33.62
895.594	21.67
895.764	19.63
895.935	54.44
896.106	-29.52
896.276	36.01
896.447	50.35
896.617	-66.39
896.788	-90.96
896.958	31.91
897.129	81.07
897.299	-25.43
897.47	23.72
897.64	31.91
897.81	5.29
897.981	52.39
898.151	36.01
898.322	-31.57
898.492	46.25
898.662	83.11
898.832	15.53
899.003	-17.24
899.173	27.82
899.343	113.83
899.513	11.43
