Data from USB4F104151__143__10-26-27-596.txt Node

Date: Wed Mar 12 10:26:27 EDT 2025
User: louis
Spectrometer: USB4F10415
Trigger mode: 4
Integration Time (sec): 3.000000E-2
Scans to average: 1
Electric dark correction enabled: true
Nonlinearity correction enabled: false
Boxcar width: 0
XAxis mode: Wavelengths
Number of Pixels in Spectrum: 3648
>>>>>Begin Spectral Data<<<<<
178.204	-125.78
178.424	-125.78
178.644	-125.78
178.864	-133.97
179.084	-111.44
179.304	33.96
179.524	-90.96
179.744	-25.43
179.964	56.49
180.184	-54.1
180.404	-4.95
180.624	33.96
180.844	124.07
181.064	-35.67
181.283	1.19
181.503	-41.81
181.723	3.24
181.943	-19.29
182.163	50.35
182.383	23.72
182.602	134.31
182.822	97.45
183.042	29.87
183.262	-23.38
183.482	46.25
183.701	-52.05
183.921	-39.76
184.141	-21.33
184.361	-11.09
184.58	7.34
184.8	9.39
185.02	-31.57
185.239	40.11
185.459	31.91
185.679	83.11
185.898	-19.29
186.118	42.15
186.338	-4.95
186.557	-21.33
186.777	31.91
186.997	81.07
187.216	-15.19
187.436	115.88
187.655	25.77
187.875	33.96
188.095	79.02
188.314	25.77
188.534	9.39
188.753	31.91
188.973	11.43
189.192	36.01
189.412	142.5
189.631	48.3
189.851	33.96
190.07	42.15
190.29	15.53
190.509	-2.9
190.729	105.64
190.948	44.2
191.168	97.45
191.387	54.44
191.607	66.73
191.826	44.2
192.045	79.02
192.265	13.48
192.484	-2.9
192.704	11.43
192.923	42.15
193.142	66.73
193.362	56.49
193.581	54.44
193.8	54.44
194.02	-15.19
194.239	33.96
194.458	21.67
194.678	42.15
194.897	33.96
195.116	17.58
195.335	19.63
195.555	52.39
195.774	3.24
195.993	-9.05
196.212	52.39
196.432	64.68
196.651	3.24
196.87	-62.29
197.089	113.83
197.308	74.92
197.528	91.31
197.747	-23.38
197.966	85.16
198.185	46.25
198.404	68.78
198.623	72.87
198.842	52.39
199.062	113.83
199.281	62.63
199.5	-45.91
199.719	58.54
199.938	21.67
200.157	66.73
200.376	50.35
200.595	5.29
200.814	64.68
201.033	76.97
201.252	70.83
201.471	-0.85
201.69	107.69
201.909	54.44
202.128	-7
202.347	-11.09
202.566	17.58
202.785	9.39
203.004	-2.9
203.223	56.49
203.442	105.64
203.661	46.25
203.879	9.39
204.098	76.97
204.317	68.78
204.536	58.54
204.755	17.58
204.974	-7
205.193	50.35
205.411	89.26
205.63	-33.62
205.849	38.06
206.068	50.35
206.287	-13.14
206.505	29.87
206.724	56.49
206.943	5.29
207.162	7.34
207.381	48.3
207.599	-56.15
207.818	83.11
208.037	62.63
208.255	42.15
208.474	-0.85
208.693	25.77
208.911	-13.14
209.13	25.77
209.349	72.87
209.567	70.83
209.786	25.77
210.005	27.82
210.223	-2.9
210.442	27.82
210.661	3.24
210.879	56.49
211.098	54.44
211.316	58.54
211.535	103.59
211.753	25.77
211.972	54.44
212.191	56.49
212.409	-19.29
212.628	46.25
212.846	36.01
213.065	99.5
213.283	58.54
213.502	72.87
213.72	111.78
213.938	-23.38
214.157	-33.62
214.375	-25.43
214.594	-7
214.812	23.72
215.031	5.29
215.249	40.11
215.467	-17.24
215.686	1.19
215.904	15.53
216.122	42.15
216.341	87.21
216.559	62.63
216.778	9.39
216.996	91.31
217.214	56.49
217.432	25.77
217.651	19.63
217.869	42.15
218.087	21.67
218.306	40.11
218.524	87.21
218.742	52.39
218.96	-47.96
219.179	74.92
219.397	87.21
219.615	62.63
219.833	-9.05
220.051	46.25
220.27	66.73
220.488	25.77
220.706	91.31
220.924	50.35
221.142	38.06
221.36	42.15
221.578	-2.9
221.796	23.72
222.015	9.39
222.233	25.77
222.451	74.92
222.669	9.39
222.887	1.19
223.105	3.24
223.323	5.29
223.541	64.68
223.759	79.02
223.977	36.01
224.195	27.82
224.413	58.54
224.631	21.67
224.849	-15.19
225.067	56.49
225.285	-31.57
225.503	-64.34
225.721	-11.09
225.939	5.29
226.157	119.98
226.375	89.26
226.592	-37.72
226.81	68.78
227.028	58.54
227.246	60.59
227.464	21.67
227.682	95.4
227.9	42.15
228.117	31.91
228.335	-0.85
228.553	-0.85
228.771	-4.95
228.989	7.34
229.206	5.29
229.424	36.01
229.642	46.25
229.86	48.3
230.077	13.48
230.295	52.39
230.513	1.19
230.731	36.01
230.948	115.88
231.166	119.98
231.384	17.58
231.601	-4.95
231.819	7.34
232.037	-47.96
232.254	-9.05
232.472	50.35
232.689	13.48
232.907	33.96
233.125	72.87
233.342	40.11
233.56	50.35
233.777	15.53
233.995	62.63
234.213	25.77
234.43	66.73
234.648	23.72
234.865	44.2
235.083	17.58
235.3	56.49
235.518	-15.19
235.735	140.46
235.953	79.02
236.17	-9.05
236.388	-31.57
236.605	70.83
236.822	74.92
237.04	83.11
237.257	21.67
237.475	99.5
237.692	50.35
237.909	-15.19
238.127	27.82
238.344	38.06
238.562	3.24
238.779	-4.95
238.996	-23.38
239.214	13.48
239.431	72.87
239.648	-7
239.865	36.01
240.083	89.26
240.3	-35.67
240.517	79.02
240.735	19.63
240.952	79.02
241.169	105.64
241.386	64.68
241.603	-9.05
241.821	-11.09
242.038	76.97
242.255	62.63
242.472	13.48
242.689	9.39
242.907	70.83
243.124	7.34
243.341	95.4
243.558	29.87
243.775	19.63
243.992	-17.24
244.209	66.73
244.426	79.02
244.643	70.83
244.86	66.73
245.078	42.15
245.295	25.77
245.512	27.82
245.729	7.34
245.946	17.58
246.163	105.64
246.38	-15.19
246.597	-31.57
246.814	25.77
247.031	17.58
247.248	9.39
247.464	72.87
247.681	36.01
247.898	46.25
248.115	58.54
248.332	25.77
248.549	66.73
248.766	60.59
248.983	38.06
249.2	-19.29
249.417	52.39
249.633	42.15
249.85	9.39
250.067	33.96
250.284	76.97
250.501	-0.85
250.717	27.82
250.934	7.34
251.151	97.45
251.368	33.96
251.585	74.92
251.801	89.26
252.018	70.83
252.235	42.15
252.451	7.34
252.668	83.11
252.885	70.83
253.102	33.96
253.318	44.2
253.535	15.53
253.752	7.34
253.968	19.63
254.185	-9.05
254.401	1.19
254.618	-37.72
254.835	-31.57
255.051	115.88
255.268	101.55
255.484	99.5
255.701	44.2
255.917	9.39
256.134	-72.53
256.351	7.34
256.567	36.01
256.784	74.92
257	1.19
257.217	54.44
257.433	7.34
257.65	72.87
257.866	-58.2
258.082	33.96
258.299	66.73
258.515	62.63
258.732	103.59
258.948	40.11
259.165	38.06
259.381	62.63
259.597	19.63
259.814	15.53
260.03	19.63
260.246	48.3
260.463	9.39
260.679	124.07
260.895	44.2
261.112	85.16
261.328	150.7
261.544	-29.52
261.761	83.11
261.977	25.77
262.193	-13.14
262.409	44.2
262.626	36.01
262.842	148.65
263.058	-13.14
263.274	40.11
263.49	46.25
263.707	107.69
263.923	56.49
264.139	42.15
264.355	52.39
264.571	83.11
264.787	38.06
265.004	5.29
265.22	79.02
265.436	-9.05
265.652	-7
265.868	31.91
266.084	-17.24
266.3	58.54
266.516	-23.38
266.732	-17.24
266.948	103.59
267.164	58.54
267.38	42.15
267.596	79.02
267.812	56.49
268.028	48.3
268.244	-23.38
268.46	38.06
268.676	66.73
268.892	-4.95
269.108	91.31
269.324	1.19
269.54	25.77
269.756	97.45
269.972	9.39
270.188	17.58
270.403	15.53
270.619	54.44
270.835	19.63
271.051	5.29
271.267	50.35
271.483	-39.76
271.698	17.58
271.914	-47.96
272.13	-7
272.346	25.77
272.562	17.58
272.777	107.69
272.993	87.21
273.209	46.25
273.425	46.25
273.64	31.91
273.856	70.83
274.072	50.35
274.287	33.96
274.503	33.96
274.719	25.77
274.934	87.21
275.15	38.06
275.366	62.63
275.581	52.39
275.797	17.58
276.012	70.83
276.228	48.3
276.444	-7
276.659	21.67
276.875	9.39
277.09	46.25
277.306	42.15
277.521	56.49
277.737	50.35
277.952	74.92
278.168	29.87
278.383	11.43
278.599	-19.29
278.814	138.41
279.03	-9.05
279.245	81.07
279.461	40.11
279.676	122.02
279.892	52.39
280.107	66.73
280.322	58.54
280.538	36.01
280.753	-15.19
280.969	54.44
281.184	-19.29
281.399	105.64
281.615	40.11
281.83	40.11
282.045	29.87
282.26	38.06
282.476	89.26
282.691	1.19
282.906	56.49
283.122	42.15
283.337	-33.62
283.552	40.11
283.767	83.11
283.983	119.98
284.198	42.15
284.413	74.92
284.628	-7
284.843	31.91
285.058	42.15
285.274	15.53
285.489	-11.09
285.704	36.01
285.919	-0.85
286.134	36.01
286.349	17.58
286.564	62.63
286.779	87.21
286.995	89.26
287.21	76.97
287.425	38.06
287.64	21.67
287.855	48.3
288.07	38.06
288.285	70.83
288.5	91.31
288.715	122.02
288.93	19.63
289.145	62.63
289.36	105.64
289.575	42.15
289.79	48.3
290.004	52.39
290.219	97.45
290.434	38.06
290.649	15.53
290.864	-9.05
291.079	99.5
291.294	-52.05
291.509	-47.96
291.724	1.19
291.938	42.15
292.153	29.87
292.368	11.43
292.583	58.54
292.798	132.26
293.012	17.58
293.227	72.87
293.442	52.39
293.657	97.45
293.871	107.69
294.086	50.35
294.301	40.11
294.516	48.3
294.73	83.11
294.945	-23.38
295.16	5.29
295.374	76.97
295.589	27.82
295.804	-9.05
296.018	50.35
296.233	124.07
296.447	-11.09
296.662	-47.96
296.877	42.15
297.091	83.11
297.306	29.87
297.52	62.63
297.735	87.21
297.949	-37.72
298.164	48.3
298.378	44.2
298.593	-25.43
298.807	42.15
299.022	17.58
299.236	79.02
299.451	-21.33
299.665	-15.19
299.88	-4.95
300.094	52.39
300.309	83.11
300.523	76.97
300.737	33.96
300.952	11.43
301.166	62.63
301.381	5.29
301.595	23.72
301.809	36.01
302.024	72.87
302.238	-15.19
302.452	44.2
302.667	29.87
302.881	13.48
303.095	89.26
303.309	79.02
303.524	7.34
303.738	19.63
303.952	21.67
304.166	44.2
304.381	15.53
304.595	136.36
304.809	103.59
305.023	66.73
305.237	-25.43
305.452	36.01
305.666	72.87
305.88	83.11
306.094	-39.76
306.308	40.11
306.522	62.63
306.736	48.3
306.95	46.25
307.164	91.31
307.379	9.39
307.593	48.3
307.807	60.59
308.021	21.67
308.235	85.16
308.449	15.53
308.663	15.53
308.877	107.69
309.091	-0.85
309.305	42.15
309.519	33.96
309.733	60.59
309.947	-4.95
310.161	62.63
310.374	66.73
310.588	46.25
310.802	3.24
311.016	48.3
311.23	36.01
311.444	50.35
311.658	48.3
311.872	91.31
312.085	83.11
312.299	148.65
312.513	25.77
312.727	191.66
312.941	-41.81
313.154	115.88
313.368	5.29
313.582	95.4
313.796	23.72
314.009	56.49
314.223	79.02
314.437	-41.81
314.651	13.48
314.864	21.67
315.078	62.63
315.292	21.67
315.505	36.01
315.719	9.39
315.933	13.48
316.146	58.54
316.36	48.3
316.573	124.07
316.787	72.87
317.001	29.87
317.214	13.48
317.428	42.15
317.641	54.44
317.855	60.59
318.068	64.68
318.282	60.59
318.495	46.25
318.709	62.63
318.922	54.44
319.136	58.54
319.349	19.63
319.563	40.11
319.776	56.49
319.99	27.82
320.203	74.92
320.417	27.82
320.63	15.53
320.843	101.55
321.057	119.98
321.27	-23.38
321.483	27.82
321.697	113.83
321.91	115.88
322.124	58.54
322.337	138.41
322.55	-15.19
322.763	31.91
322.977	33.96
323.19	74.92
323.403	52.39
323.617	21.67
323.83	79.02
324.043	93.35
324.256	85.16
324.469	-27.48
324.683	25.77
324.896	40.11
325.109	99.5
325.322	64.68
325.535	58.54
325.748	23.72
325.962	89.26
326.175	-17.24
326.388	-2.9
326.601	52.39
326.814	13.48
327.027	122.02
327.24	124.07
327.453	83.11
327.666	23.72
327.879	122.02
328.092	74.92
328.305	13.48
328.518	36.01
328.731	33.96
328.944	36.01
329.157	52.39
329.37	19.63
329.583	38.06
329.796	146.6
330.009	11.43
330.222	-25.43
330.435	9.39
330.648	23.72
330.861	66.73
331.073	21.67
331.286	66.73
331.499	79.02
331.712	97.45
331.925	48.3
332.138	36.01
332.35	76.97
332.563	99.5
332.776	89.26
332.989	58.54
333.202	9.39
333.414	48.3
333.627	91.31
333.84	11.43
334.053	52.39
334.265	13.48
334.478	70.83
334.691	29.87
334.903	74.92
335.116	81.07
335.329	54.44
335.541	54.44
335.754	107.69
335.966	11.43
336.179	95.4
336.392	11.43
336.604	19.63
336.817	50.35
337.029	60.59
337.242	107.69
337.454	83.11
337.667	11.43
337.88	29.87
338.092	72.87
338.305	36.01
338.517	72.87
338.729	111.78
338.942	103.59
339.154	64.68
339.367	70.83
339.579	83.11
339.792	103.59
340.004	95.4
340.217	25.77
340.429	173.22
340.641	42.15
340.854	-56.15
341.066	-4.95
341.278	46.25
341.491	62.63
341.703	42.15
341.915	-11.09
342.128	56.49
342.34	79.02
342.552	99.5
342.764	7.34
342.977	33.96
343.189	140.46
343.401	60.59
343.613	15.53
343.826	58.54
344.038	46.25
344.25	19.63
344.462	-11.09
344.674	-35.67
344.886	5.29
345.099	19.63
345.311	40.11
345.523	33.96
345.735	52.39
345.947	27.82
346.159	33.96
346.371	101.55
346.583	-33.62
346.795	99.5
347.007	83.11
347.219	58.54
347.431	25.77
347.643	42.15
347.855	-54.1
348.067	76.97
348.279	-15.19
348.491	124.07
348.703	64.68
348.915	95.4
349.127	27.82
349.339	21.67
349.551	68.78
349.763	58.54
349.975	66.73
350.187	89.26
350.399	62.63
350.61	115.88
350.822	-7
351.034	105.64
351.246	21.67
351.458	5.29
351.669	50.35
351.881	85.16
352.093	58.54
352.305	105.64
352.517	25.77
352.728	101.55
352.94	91.31
353.152	105.64
353.363	-31.57
353.575	5.29
353.787	81.07
353.999	21.67
354.21	56.49
354.422	40.11
354.633	31.91
354.845	68.78
355.057	29.87
355.268	46.25
355.48	89.26
355.692	46.25
355.903	83.11
356.115	52.39
356.326	-17.24
356.538	11.43
356.749	-7
356.961	74.92
357.172	-45.91
357.384	113.83
357.595	138.41
357.807	36.01
358.018	40.11
358.23	87.21
358.441	62.63
358.653	31.91
358.864	76.97
359.075	42.15
359.287	113.83
359.498	160.94
359.709	48.3
359.921	72.87
360.132	89.26
360.344	-9.05
360.555	46.25
360.766	68.78
360.977	42.15
361.189	74.92
361.4	25.77
361.611	70.83
361.823	138.41
362.034	64.68
362.245	46.25
362.456	27.82
362.667	40.11
362.879	7.34
363.09	23.72
363.301	72.87
363.512	5.29
363.723	44.2
363.935	36.01
364.146	87.21
364.357	40.11
364.568	40.11
364.779	74.92
364.99	99.5
365.201	52.39
365.412	21.67
365.623	36.01
365.834	85.16
366.045	50.35
366.256	-35.67
366.467	91.31
366.678	52.39
366.889	122.02
367.1	1.19
367.311	74.92
367.522	-15.19
367.733	-9.05
367.944	74.92
368.155	64.68
368.366	105.64
368.577	-7
368.788	66.73
368.999	25.77
369.209	50.35
369.42	-31.57
369.631	81.07
369.842	117.93
370.053	-29.52
370.264	42.15
370.474	97.45
370.685	25.77
370.896	89.26
371.107	107.69
371.317	101.55
371.528	74.92
371.739	165.03
371.95	15.53
372.16	33.96
372.371	-0.85
372.582	29.87
372.792	50.35
373.003	38.06
373.214	29.87
373.424	97.45
373.635	74.92
373.846	83.11
374.056	56.49
374.267	60.59
374.477	38.06
374.688	99.5
374.898	25.77
375.109	124.07
375.319	7.34
375.53	5.29
375.74	76.97
375.951	31.91
376.161	50.35
376.372	148.65
376.582	70.83
376.793	42.15
377.003	64.68
377.214	62.63
377.424	38.06
377.635	119.98
377.845	56.49
378.055	79.02
378.266	62.63
378.476	74.92
378.686	29.87
378.897	13.48
379.107	167.08
379.317	23.72
379.528	17.58
379.738	60.59
379.948	58.54
380.158	56.49
380.369	48.3
380.579	15.53
380.789	-2.9
380.999	173.22
381.21	48.3
381.42	113.83
381.63	-15.19
381.84	-2.9
382.05	31.91
382.261	119.98
382.471	54.44
382.681	19.63
382.891	154.79
383.101	109.74
383.311	72.87
383.521	38.06
383.731	56.49
383.941	79.02
384.151	17.58
384.361	56.49
384.571	44.2
384.781	103.59
384.991	56.49
385.201	115.88
385.411	107.69
385.621	52.39
385.831	111.78
386.041	50.35
386.251	64.68
386.461	136.36
386.671	46.25
386.881	54.44
387.091	136.36
387.301	150.7
387.511	132.26
387.72	62.63
387.93	64.68
388.14	27.82
388.35	146.6
388.56	13.48
388.769	76.97
388.979	15.53
389.189	7.34
389.399	122.02
389.609	38.06
389.818	93.35
390.028	44.2
390.238	93.35
390.447	56.49
390.657	76.97
390.867	66.73
391.076	81.07
391.286	136.36
391.496	142.5
391.705	7.34
391.915	113.83
392.125	83.11
392.334	144.55
392.544	122.02
392.753	107.69
392.963	21.67
393.172	33.96
393.382	66.73
393.591	142.5
393.801	56.49
394.01	136.36
394.22	64.68
394.429	58.54
394.639	33.96
394.848	72.87
395.058	132.26
395.267	103.59
395.477	81.07
395.686	81.07
395.895	122.02
396.105	136.36
396.314	152.74
396.524	124.07
396.733	122.02
396.942	138.41
397.152	138.41
397.361	107.69
397.57	79.02
397.78	89.26
397.989	91.31
398.198	199.85
398.407	91.31
398.617	140.46
398.826	54.44
399.035	128.17
399.244	115.88
399.453	195.75
399.663	91.31
399.872	152.74
400.081	91.31
400.29	173.22
400.499	107.69
400.708	140.46
400.917	74.92
401.127	89.26
401.336	91.31
401.545	130.22
401.754	101.55
401.963	148.65
402.172	119.98
402.381	91.31
402.59	64.68
402.799	132.26
403.008	132.26
403.217	148.65
403.426	197.8
403.635	171.18
403.844	111.78
404.053	138.41
404.262	113.83
404.471	187.56
404.68	99.5
404.888	156.84
405.097	216.23
405.306	134.31
405.515	208.04
405.724	208.04
405.933	138.41
406.142	197.8
406.35	201.9
406.559	261.29
406.768	246.95
406.977	246.95
407.185	265.38
407.394	308.39
407.603	234.66
407.812	228.52
408.02	242.85
408.229	236.71
408.438	156.84
408.646	177.32
408.855	263.33
409.064	324.77
409.272	244.9
409.481	365.73
409.69	271.53
409.898	318.63
410.107	285.86
410.315	269.48
410.524	328.87
410.733	328.87
410.941	365.73
411.15	353.45
411.358	390.31
411.567	449.7
411.775	418.98
411.984	449.7
412.192	406.69
412.401	449.7
412.609	545.95
412.818	504.99
413.026	429.22
413.234	566.43
413.443	533.67
413.651	533.67
413.86	564.39
414.068	627.87
414.276	705.7
414.485	672.93
414.693	681.12
414.901	734.37
415.11	701.6
415.318	713.89
415.526	769.18
415.734	820.38
415.943	812.19
416.151	918.68
416.359	863.39
416.567	978.08
416.776	984.22
416.984	941.21
417.192	1019.04
417.4	943.26
417.608	1033.37
417.817	1090.71
418.025	1074.33
418.233	1180.82
418.441	1215.64
418.649	1207.45
418.857	1367.19
419.065	1340.57
419.273	1301.65
419.481	1438.87
419.689	1467.54
419.897	1551.51
420.105	1551.51
420.313	1545.36
420.521	1735.82
420.729	1594.51
420.937	1705.1
421.145	1791.12
421.353	1793.17
421.561	1954.96
421.769	2069.64
421.977	2094.22
422.185	2104.46
422.393	2303.11
422.601	2342.02
422.809	2196.62
423.017	2348.17
423.224	2450.57
423.432	2530.44
423.64	2567.3
423.848	2806.91
424.056	2716.8
424.263	2874.49
424.471	2917.5
424.679	3105.92
424.887	3210.36
425.094	3167.35
425.302	3314.81
425.51	3376.25
425.718	3548.28
425.925	3480.69
426.133	3560.56
426.341	3826.8
426.548	3970.16
426.756	4029.55
426.964	4097.13
427.171	4459.62
427.379	4385.9
427.586	4439.14
427.794	4629.6
428.001	4936.8
428.209	5084.25
428.417	5112.92
428.624	5323.87
428.832	5309.53
429.039	5215.32
429.247	5287
429.454	5872.72
429.662	6276.17
429.869	5946.45
430.076	6249.55
430.284	6249.55
430.491	6272.07
430.699	6784.07
430.906	6546.5
431.114	6800.45
431.321	6976.58
431.528	6966.34
431.736	7513.14
431.943	7996.46
432.15	7808.05
432.358	7695.41
432.565	8035.38
432.772	8170.54
432.979	8662.05
433.187	8621.1
433.394	8823.84
433.601	9557.02
433.808	9411.61
434.016	9337.88
434.223	9720.85
434.43	10175.5
434.637	10212.37
434.844	10777.61
435.052	11232.26
435.259	10877.96
435.466	10820.61
435.673	10869.76
435.88	11693.05
436.087	12065.78
436.294	12250.1
436.501	11951.09
436.708	12035.06
436.915	12766.18
437.122	13183.97
437.329	13241.31
437.537	13749.21
437.743	13833.18
437.95	13712.35
438.157	14238.67
438.364	14875.59
438.571	14683.08
438.778	14965.7
438.985	16229.3
439.192	15487.93
439.399	15975.35
439.606	15831.99
439.813	16520.11
440.02	17673.12
440.227	17109.93
440.433	17210.28
440.64	17650.59
440.847	17693.6
441.054	17965.98
441.261	19305.35
441.467	18766.73
441.674	19432.32
441.881	20149.11
442.088	19925.88
442.294	19827.58
442.501	20210.55
442.708	20718.45
442.914	21535.59
443.121	22428.5
443.328	22000.47
443.534	23573.31
443.741	22670.16
443.948	22547.28
444.154	24265.53
444.361	23968.57
444.568	24382.26
444.774	24120.12
444.981	24189.75
445.187	24855.34
445.394	26043.17
445.6	25801.5
445.807	28191.48
446.013	26766.1
446.22	27538.18
446.426	28351.23
446.633	28926.71
446.839	29393.64
447.046	28662.52
447.252	29930.21
447.459	29995.74
447.665	29844.2
447.871	31179.47
448.078	32567.99
448.284	31013.59
448.491	31816.39
448.697	33286.83
448.903	33483.44
449.11	33665.7
449.316	32934.58
449.522	33700.52
449.728	34464.41
449.935	34728.6
450.141	34650.78
450.347	35646.09
450.553	34112.16
450.76	34601.63
450.966	35893.89
451.172	35566.22
451.378	36254.34
451.584	35869.32
451.791	36377.22
451.997	36059.78
452.203	37026.42
452.409	36647.55
452.615	36805.24
452.821	35293.84
453.027	35025.56
453.233	37038.71
453.44	34986.64
453.646	35506.83
453.852	35781.26
454.058	36330.11
454.264	35084.95
454.47	35627.66
454.676	34687.64
454.882	35607.18
455.088	32586.43
455.294	33422
455.5	33737.38
455.705	34091.68
455.911	32678.58
456.117	32101.06
456.323	31564.49
456.529	29907.68
456.735	31113.94
456.941	30540.5
457.147	30042.85
457.352	29235.95
457.558	28850.93
457.764	28613.37
457.97	28101.37
458.176	27697.92
458.381	27626.25
458.587	26196.76
458.793	25893.66
458.999	24632.11
459.204	26456.85
459.41	26143.52
459.616	23933.76
459.821	24343.35
460.027	23987
460.233	23561.03
460.438	22371.16
460.644	22827.85
460.85	21724
461.055	21410.66
461.261	21265.25
461.466	19649.41
461.672	18975.63
461.878	20693.87
462.083	19063.69
462.289	18856.84
462.494	18611.09
462.7	17879.96
462.905	17423.26
463.111	18076.57
463.316	18060.18
463.522	17863.58
463.727	17767.32
463.932	17474.46
464.138	17527.71
464.343	17347.49
464.549	16970.66
464.754	17621.92
464.959	17589.15
465.165	17279.91
465.37	16538.54
465.575	16044.98
465.781	16780.2
465.986	16995.24
466.191	16237.49
466.397	15979.45
466.602	15184.83
466.807	15739.83
467.012	15449.02
467.218	15969.21
467.423	15633.34
467.628	15563.71
467.833	16231.35
468.038	15799.23
468.244	15248.32
468.449	15870.9
468.654	15287.23
468.859	15363.01
469.064	15107.01
469.269	14744.52
469.474	14586.83
469.679	14758.86
469.885	14595.02
470.09	14668.75
470.295	14527.44
470.5	14054.36
470.705	14541.77
470.91	14042.07
471.115	13900.76
471.32	14072.79
471.525	14029.78
471.73	13575.13
471.935	13763.54
472.139	13202.4
472.344	13394.91
472.549	13239.26
472.754	13011.94
472.959	12714.98
473.164	12420.08
473.369	12307.44
473.574	12915.69
473.778	12710.89
473.983	12665.83
474.188	12616.68
474.393	12035.06
474.598	12018.68
474.802	11871.22
475.007	11777.01
475.212	11791.35
475.417	11273.21
475.621	11236.35
475.826	11492.35
476.031	11301.89
476.235	10959.88
476.44	11127.81
476.645	10806.28
476.849	10746.89
477.054	11101.19
477.259	10640.39
477.463	10642.44
477.668	10601.48
477.872	10585.1
478.077	10423.31
478.282	10003.47
478.486	10138.64
478.691	10114.06
478.895	10150.93
479.1	10048.53
479.304	10157.07
479.509	9792.53
479.713	9939.99
479.918	9663.51
480.122	9514.01
480.326	9589.78
480.531	9649.18
480.735	9577.5
480.94	9298.97
481.144	9974.8
481.348	9458.71
481.553	9534.49
481.757	9307.16
481.961	9219.1
482.166	9487.39
482.37	9366.56
482.574	9141.28
482.778	9307.16
482.983	9546.78
483.187	9335.84
483.391	9210.91
483.595	9253.92
483.8	8971.3
484.004	9260.06
484.208	9475.1
484.412	9387.04
484.616	9243.68
484.821	9272.35
485.025	9169.95
485.229	9092.13
485.433	9176.09
485.637	9333.79
485.841	9425.95
486.045	9319.45
486.249	9180.19
486.453	9249.82
486.657	9260.06
486.861	9294.88
487.065	9147.42
487.269	9323.55
487.473	9159.71
487.677	9241.63
487.881	9274.4
488.085	9403.42
488.289	9544.73
488.493	9405.47
488.697	9419.8
488.901	9397.28
489.105	9294.88
489.309	9360.41
489.512	9520.15
489.716	9360.41
489.92	9341.98
490.124	9456.67
490.328	9671.7
490.531	9434.14
490.735	9509.91
490.939	9532.44
491.143	9583.64
491.346	9520.15
491.55	9657.37
491.754	9765.91
491.958	9810.96
492.161	9731.09
492.365	9870.36
492.569	9868.31
492.772	9741.33
492.976	10140.69
493.18	9989.14
493.383	10302.48
493.587	10208.27
493.79	10322.96
493.994	10372.11
494.197	10286.09
494.401	10474.51
494.605	10488.84
494.808	10656.78
495.012	10550.28
495.215	10667.02
495.419	10816.52
495.622	10787.85
495.825	10929.16
496.029	10814.47
496.232	11033.6
496.436	11092.99
496.639	11457.53
496.843	11271.17
497.046	11707.38
497.249	11547.64
497.453	11713.53
497.656	11936.76
497.859	11772.92
498.063	12135.41
498.266	12192.75
498.469	12202.99
498.673	12518.38
498.876	12612.59
499.079	12733.42
499.282	12686.31
499.485	13149.15
499.689	13059.04
499.892	13214.69
500.095	13120.48
500.298	13589.47
500.501	13568.99
500.705	13900.76
500.908	14246.87
501.111	14146.51
501.314	14535.63
501.517	14578.64
501.72	14343.12
501.923	14642.12
502.126	15023.05
502.329	15014.85
502.532	15219.65
502.735	15334.34
502.938	15485.89
503.141	15764.41
503.344	15911.86
503.547	16022.45
503.75	16169.91
503.953	16534.45
504.156	16749.48
504.359	16851.88
504.562	16847.79
504.765	17357.73
504.968	17505.18
505.17	17660.83
505.373	17589.15
505.576	18189.21
505.779	18103.19
505.982	18103.19
506.185	18346.9
506.387	18490.26
506.59	18744.2
506.793	19030.92
506.996	19272.58
507.198	19831.68
507.401	19598.21
507.604	19841.92
507.807	20296.56
508.009	20233.08
508.212	20507.51
508.415	20818.8
508.617	21091.18
508.82	21068.65
509.022	21029.74
509.225	21445.48
509.428	21893.98
509.63	22147.93
509.833	22152.02
510.035	22721.36
510.238	22618.96
510.44	22948.68
510.643	23225.16
510.845	23499.59
511.048	23378.76
511.25	23903.04
511.453	23835.45
511.655	24771.38
511.858	24300.34
512.06	24859.44
512.262	24970.03
512.465	25043.76
512.667	25615.14
512.87	25475.88
513.072	25600.8
513.274	26170.14
513.477	26481.43
513.679	26620.69
513.881	26995.47
514.084	27210.51
514.286	27224.84
514.488	27501.32
514.69	28242.68
514.893	28402.43
515.095	28109.57
515.297	28777.2
515.499	28670.71
515.701	28979.95
515.904	29491.94
516.106	29764.32
516.308	29991.65
516.51	30223.07
516.712	30352.09
516.914	30726.87
517.116	31007.44
517.318	31453.9
517.52	31341.26
517.722	31455.95
517.925	32185.02
518.127	32426.68
518.329	32662.2
518.531	32490.17
518.733	33288.88
518.935	33385.13
519.136	33276.59
519.338	34030.24
519.54	34030.24
519.742	34642.59
519.944	34663.07
520.146	35179.15
520.348	35269.26
520.55	35502.73
520.752	35355.28
520.954	36590.2
521.155	36041.35
521.357	36661.88
521.559	36618.88
521.761	37501.55
521.963	37243.51
522.164	37642.86
522.366	38023.78
522.568	38416.99
522.77	38197.86
522.971	38996.57
523.173	38576.73
523.375	38826.59
523.576	38994.52
523.778	38939.22
523.98	39504.46
524.181	40174.15
524.383	40086.09
524.584	40686.14
524.786	40069.7
524.988	40380.99
525.189	40753.72
525.391	41216.57
525.592	41306.68
525.794	41312.82
525.995	41712.17
526.197	41777.71
526.398	41787.95
526.6	41900.59
526.801	42091.05
527.003	42600.99
527.204	42510.88
527.406	43223.58
527.607	42854.94
527.808	43256.34
528.01	42623.52
528.211	42912.28
528.412	44067.34
528.614	43608.59
528.815	43373.08
529.016	44014.09
529.218	43448.85
529.419	43694.61
529.62	44399.11
529.822	44083.72
530.023	44182.02
530.224	44069.39
530.425	44315.14
530.626	43837.97
530.828	44108.3
531.029	45287.93
531.23	44739.07
531.431	44536.32
531.632	44755.46
531.833	45050.36
532.035	44581.38
532.236	45033.98
532.437	45126.14
532.638	44751.36
532.839	45091.32
533.04	45468.15
533.241	44663.3
533.442	45406.71
533.643	45490.68
533.844	44960.25
534.045	45378.04
534.246	45396.47
534.447	45347.32
534.648	45113.85
534.849	45511.16
535.05	45361.65
535.251	45271.54
535.451	45388.28
535.652	45550.07
535.853	45398.52
536.054	45554.16
536.255	45644.27
536.456	45236.73
536.657	46166.51
536.857	45625.84
537.058	45173.24
537.259	46062.06
537.46	45664.75
537.66	45304.31
537.861	45746.67
538.062	45470.2
538.263	45746.67
538.463	45433.33
538.664	45255.16
538.865	45533.68
539.065	45736.43
539.266	45070.84
539.466	45939.18
539.667	45179.39
539.868	45693.43
540.068	45582.84
540.269	45304.31
540.469	46049.77
540.67	45294.07
540.87	45781.49
541.071	45337.08
541.271	45410.81
541.472	45498.87
541.672	45115.9
541.873	45412.85
542.073	44743.17
542.274	45652.47
542.474	45214.2
542.675	45072.89
542.875	45974
543.075	45636.08
543.276	45167.1
543.476	45806.06
543.676	45197.82
543.877	45656.56
544.077	45754.86
544.277	45459.96
544.478	45390.33
544.678	45046.27
544.878	45439.48
545.078	45543.92
545.279	44954.11
545.479	45335.03
545.679	45609.46
545.879	44894.72
546.079	45261.3
546.28	45160.95
546.48	44995.07
546.68	45525.49
546.88	45099.51
547.08	45459.96
547.28	45038.08
547.48	44855.81
547.68	45353.46
547.88	45054.46
548.081	45287.93
548.281	44972.54
548.481	44804.61
548.681	45566.45
548.881	44960.25
549.081	45208.06
549.28	44706.3
549.48	45156.86
549.68	45341.17
549.88	45402.61
550.08	45005.31
550.28	45199.86
550.48	44986.88
550.68	45378.04
550.88	45312.5
551.08	44739.07
551.279	45044.22
551.479	44542.47
551.679	45181.43
551.879	45351.41
552.079	45320.7
552.278	45160.95
552.478	45103.61
552.678	45191.67
552.878	45466.1
553.077	44718.59
553.277	44734.98
553.477	44974.59
553.676	44691.97
553.876	44861.95
554.076	44937.72
554.275	44648.96
554.475	44438.02
554.674	44876.29
554.874	44644.87
555.074	44372.49
555.273	44673.54
555.473	44620.29
555.672	44073.48
555.872	44489.22
556.071	44804.61
556.271	44737.02
556.47	44220.94
556.67	44335.62
556.869	44411.4
557.068	44395.01
557.268	44053
557.467	44124.68
557.667	44153.35
557.866	44149.26
558.065	43760.14
558.265	43741.71
558.464	43653.65
558.663	44087.82
558.863	43690.51
559.062	44173.83
559.261	43438.61
559.461	44188.17
559.66	43377.17
559.859	43887.12
560.058	43282.97
560.258	43895.31
560.457	43649.55
560.656	43807.25
560.855	43106.84
561.054	43608.59
561.253	42895.9
561.453	42867.23
561.652	43356.69
561.851	43973.13
562.05	43041.31
562.249	42875.42
562.448	43446.8
562.647	42707.49
562.846	42680.86
563.045	43031.07
563.244	42263.08
563.443	43149.85
563.642	42347.04
563.841	42521.12
564.04	42652.19
564.239	42928.67
564.438	41638.45
564.637	42132.01
564.836	42613.28
565.035	41769.52
565.234	42052.14
565.432	41497.14
565.631	41646.64
565.83	42228.26
566.029	41665.07
566.228	41953.83
566.427	41228.85
566.625	41032.25
566.824	40714.81
567.023	41490.99
567.222	40501.82
567.42	40979
567.619	41335.35
567.818	41292.34
568.016	40684.09
568.215	41351.73
568.414	40831.55
568.612	41302.58
568.811	40311.36
569.01	40899.13
569.208	39692.88
569.407	40723.01
569.605	39969.35
569.804	40094.28
570.002	40145.48
570.201	40397.38
570.4	39815.76
570.598	39813.71
570.797	39148.12
570.995	39842.38
571.193	39062.1
571.392	39817.8
571.59	39377.49
571.789	39606.86
571.987	39293.52
572.186	39293.52
572.384	39107.16
572.582	38949.46
572.781	39074.39
572.979	38871.64
573.177	38767.2
573.376	38840.92
573.574	38750.81
573.772	38656.6
573.971	38472.29
574.169	38163.04
574.367	38144.61
574.565	38197.86
574.763	38046.31
574.962	37927.53
575.16	37595.76
575.358	37675.63
575.556	37255.79
575.754	38070.89
575.952	37194.36
576.151	37571.18
576.349	37112.44
576.547	37501.55
576.745	36827.77
576.943	37368.43
577.141	37280.37
577.339	36993.65
577.537	36704.89
577.735	36504.19
577.933	36850.3
578.131	36938.36
578.329	36457.09
578.527	35926.66
578.725	36285.06
578.923	36518.53
579.121	36221.57
579.319	35840.65
579.516	35953.29
579.714	35932.81
579.912	35736.2
580.11	35480.21
580.308	35539.6
580.506	35607.18
580.704	35187.35
580.901	35607.18
581.099	35549.84
581.297	34787.99
581.495	34755.22
581.692	35162.77
581.89	34677.4
582.088	35230.35
582.285	34142.88
582.483	35140.24
582.681	34841.24
582.878	34333.34
583.076	34484.89
583.274	34577.05
583.471	33604.27
583.669	34323.1
583.866	33960.61
584.064	33874.6
584.262	33708.71
584.459	33946.28
584.657	33297.07
584.854	33911.46
585.052	33364.65
585.249	33473.2
585.447	33239.73
585.644	33163.95
585.841	33307.31
586.039	33452.72
586.236	32991.92
586.434	32944.82
586.631	32789.17
586.828	32877.24
587.026	32639.67
587.223	32965.3
587.42	32758.45
587.618	32619.19
587.815	32037.57
588.012	31957.7
588.21	31978.18
588.407	32426.68
588.604	31853.25
588.801	31761.09
588.999	31791.81
589.196	31679.18
589.393	31793.86
589.59	31687.37
589.787	31361.74
589.984	31515.34
590.182	31204.05
590.379	31333.07
590.576	30771.93
590.773	31212.24
590.97	31148.75
591.167	31032.02
591.364	30757.59
591.561	30903
591.758	30513.88
591.955	30798.55
592.152	30542.55
592.349	30231.26
592.546	30560.98
592.743	30391
592.94	29700.84
593.137	30110.43
593.334	29866.72
593.531	29612.77
593.727	29737.7
593.924	30030.56
594.121	29328.11
594.318	29862.63
594.515	29090.54
594.712	29352.68
594.908	29106.93
595.105	29424.36
595.302	28893.94
595.499	29127.41
595.696	28748.53
595.892	28799.73
596.089	28898.03
596.286	28818.16
596.482	28465.91
596.679	28453.62
596.876	28367.61
597.072	28553.97
597.269	28480.25
597.466	28101.37
597.662	28062.46
597.859	28232.44
598.055	28271.36
598.252	27626.25
598.448	27824.9
598.645	27915.01
598.841	27353.87
599.038	27841.28
599.234	27540.23
599.431	27388.68
599.627	27474.7
599.824	27452.17
600.02	27079.44
600.217	27255.56
600.413	26942.22
600.609	26956.56
600.806	26897.17
601.002	27140.88
601.198	26694.42
601.395	26594.07
601.591	26495.77
601.787	26731.28
601.984	26413.85
602.18	26526.49
602.376	26360.6
602.572	26127.13
602.769	26475.29
602.965	25989.92
603.161	26067.74
603.357	25815.84
603.553	25805.6
603.75	25996.06
603.946	25817.89
604.142	25785.12
604.338	25180.97
604.534	25684.77
604.73	25350.95
604.926	25314.09
605.122	25471.78
605.318	24976.17
605.514	24888.11
605.71	24879.92
605.906	24677.17
606.102	24976.17
606.298	25002.8
606.494	24683.31
606.69	24585.01
606.886	24580.92
607.082	24306.49
607.278	24683.31
607.474	24380.21
607.67	24478.52
607.866	23835.45
608.062	24525.62
608.257	24081.21
608.453	24206.14
608.649	24173.37
608.845	23851.84
609.041	24064.83
609.236	24034.11
609.432	23958.33
609.628	23819.07
609.824	23737.15
610.019	23769.92
610.215	23487.3
610.411	23808.83
610.606	23505.73
610.802	23524.16
610.998	23649.09
611.193	23814.98
611.389	23231.3
611.584	23288.65
611.78	23079.75
611.976	23458.63
612.171	23561.03
612.367	23284.55
612.562	23042.89
612.758	22932.3
612.953	22768.46
613.149	23124.81
613.344	22786.89
613.539	23290.7
613.735	22946.64
613.93	22969.16
614.126	22936.4
614.321	23032.65
614.517	22598.48
614.712	22788.94
614.907	22545.23
615.103	22772.56
615.298	22307.67
615.493	22899.53
615.688	22168.41
615.884	23022.41
616.079	22088.54
616.274	22491.99
616.47	22225.75
616.665	22336.34
616.86	22008.67
617.055	21865.31
617.25	21877.6
617.445	22061.91
617.641	21719.9
617.836	21949.28
618.031	21715.81
618.226	21861.21
618.421	21674.85
618.616	21764.96
618.811	21418.85
619.006	21893.98
619.201	21033.83
619.396	21244.77
619.591	21224.29
619.786	21420.9
619.981	20839.28
620.176	21156.71
620.371	20710.25
620.566	21087.08
620.761	20855.66
620.956	20763.5
621.151	20437.87
621.346	20382.58
621.541	20181.88
621.735	20628.34
621.93	19911.55
622.125	20253.56
622.32	19944.31
622.515	20134.78
622.709	19682.17
622.904	20052.86
623.099	19522.43
623.294	19839.87
623.488	19317.64
623.683	19434.37
623.878	19137.41
624.072	19231.62
624.267	19278.72
624.462	19131.27
624.656	18682.77
624.851	18774.92
625.046	18416.53
625.24	18580.37
625.435	18264.98
625.629	18645.9
625.824	18453.39
626.018	18506.64
626.213	17943.45
626.407	18082.71
626.602	17922.97
626.796	17732.51
626.991	17376.16
627.185	17804.19
627.38	17511.33
627.574	17433.5
627.768	17339.3
627.963	17236.9
628.157	17124.26
628.352	17255.33
628.546	17087.4
628.74	16939.94
628.935	16855.98
629.129	17052.58
629.323	16417.71
629.517	16454.58
629.712	16595.89
629.906	16495.53
630.1	16012.21
630.294	15948.73
630.489	16221.11
630.683	16513.97
630.877	15924.15
631.071	15899.58
631.265	16163.76
631.459	16020.41
631.653	15715.26
631.848	15543.23
632.042	15467.45
632.236	15528.89
632.43	15147.97
632.624	15401.92
632.818	15248.32
633.012	15029.19
633.206	15104.96
633.4	14826.44
633.594	14916.55
633.788	14799.82
633.982	14728.14
634.176	14818.25
634.369	14537.68
634.563	14582.73
634.757	14572.49
634.951	14523.34
635.145	14326.74
635.339	14492.62
635.533	14214.1
635.726	14001.11
635.92	14134.23
636.114	13794.26
636.308	13976.53
636.501	13767.64
636.695	13804.5
636.889	13605.85
637.083	13831.13
637.276	13417.44
637.47	13333.47
637.664	13362.14
637.857	13411.29
638.051	13435.87
638.244	13233.12
638.438	12936.17
638.632	12876.77
638.825	12993.51
639.019	12915.69
639.212	12811.24
639.406	12985.32
639.599	12700.65
639.793	12602.35
639.986	12483.56
640.18	12678.12
640.373	12418.03
640.567	12446.7
640.76	12565.48
640.954	12194.8
641.147	12006.39
641.34	12084.21
641.534	11944.95
641.727	12057.59
641.92	11971.57
642.114	11693.05
642.307	11910.13
642.5	11670.52
642.694	11621.37
642.887	11576.31
643.08	11783.16
643.273	11277.31
643.467	11445.24
643.66	11338.75
643.853	11314.17
644.046	11140.1
644.239	11181.06
644.432	11154.43
644.626	11035.65
644.819	11047.94
645.012	10986.5
645.205	10802.18
645.398	10857.48
645.591	10701.83
645.784	10669.06
645.977	10507.27
646.17	10578.95
646.363	10378.25
646.556	10464.27
646.749	10585.1
646.942	10513.42
647.135	10150.93
647.328	10187.79
647.521	10257.42
647.714	9999.38
647.907	10206.22
648.099	10036.24
648.292	10030.1
648.485	9931.8
648.678	9817.11
648.871	9731.09
649.064	9796.63
649.256	9968.66
649.449	9720.85
649.642	9634.84
649.835	9485.34
650.027	9423.9
650.22	9374.75
650.413	9530.39
650.605	9315.36
650.798	9550.87
650.991	9153.57
651.183	9182.24
651.376	8975.39
651.568	9122.85
651.761	9131.04
651.954	9038.88
652.146	9096.22
652.339	9083.94
652.531	8889.38
652.724	8903.71
652.916	8703.01
653.109	8813.6
653.301	8866.85
653.494	8811.56
653.686	8610.86
653.879	8774.69
654.071	8451.11
654.263	8586.28
654.456	8418.35
654.648	8381.48
654.84	8236.08
655.033	8240.17
655.225	8383.53
655.417	8164.4
655.61	8401.96
655.802	8092.72
655.994	8113.2
656.186	8338.48
656.379	7980.08
656.571	8168.49
656.763	7867.44
656.955	7887.92
657.148	7996.46
657.34	7932.98
657.532	7840.82
657.724	7709.75
657.916	7736.37
658.108	7627.83
658.3	7722.04
658.492	7662.65
658.684	7447.61
658.876	7627.83
659.068	7453.75
659.26	7468.09
659.452	7482.42
659.644	7502.9
659.836	7568.44
660.028	7488.57
660.22	7238.72
660.412	7289.92
660.604	7226.43
660.796	7038.02
660.988	7181.37
661.18	7050.3
661.372	6974.53
661.563	7189.56
661.755	7001.15
661.947	6790.21
662.139	6888.51
662.331	6921.28
662.522	6759.49
662.714	6835.27
662.906	6769.73
663.097	6573.13
663.289	6591.56
663.481	6550.6
663.673	6419.53
663.864	6716.48
664.056	6616.13
664.247	6603.85
664.439	6452.3
664.631	6472.78
664.822	6470.73
665.014	6435.91
665.205	6474.82
665.397	6276.17
665.588	6308.94
665.78	6362.19
665.971	6294.6
666.163	6323.27
666.354	6112.33
666.546	6102.09
666.737	6091.85
666.929	6243.4
667.12	6130.77
667.311	5848.15
667.503	6061.13
667.694	5911.63
667.885	5991.5
668.077	6024.27
668.268	5837.91
668.459	5960.78
668.651	5891.15
668.842	5821.52
669.033	5663.83
669.224	5932.11
669.416	5653.59
669.607	5770.32
669.798	5751.89
669.989	5715.03
670.18	5706.84
670.371	5700.69
670.563	5549.14
670.754	5499.99
670.945	5502.04
671.136	5485.65
671.327	5786.71
671.518	5454.94
671.709	5454.94
671.9	5448.79
672.091	5551.19
672.282	5420.12
672.473	5389.4
672.664	5422.17
672.855	5309.53
673.046	5297.24
673.237	5465.18
673.428	5293.15
673.619	5358.68
673.809	5235.8
674	5252.19
674.191	5209.18
674.382	5112.92
674.573	5198.94
674.764	5164.12
674.954	5340.25
675.145	5098.59
675.336	4996.19
675.527	5024.86
675.717	5119.07
675.908	5008.48
676.099	5035.1
676.289	5031.01
676.48	4893.79
676.671	5047.39
676.861	5026.91
677.052	4805.73
677.243	4944.99
677.433	4914.27
677.624	5106.78
677.814	4822.11
678.005	4977.76
678.195	4988
678.386	4850.78
678.576	4879.46
678.767	4906.08
678.957	4793.44
679.148	4877.41
679.338	4748.39
679.529	4813.92
679.719	4744.29
679.909	4660.32
680.1	4559.97
680.29	4709.47
680.481	4809.83
680.671	4717.67
680.861	4645.99
681.052	4744.29
681.242	4605.03
681.432	4676.71
681.622	4574.31
681.813	4764.77
682.003	4592.74
682.193	4643.94
682.383	4633.7
682.573	4555.88
682.764	4586.6
682.954	4664.42
683.144	4574.31
683.334	4406.38
683.524	4623.46
683.714	4592.74
683.904	4430.95
684.094	4629.6
684.284	4605.03
684.474	4547.69
684.664	4385.9
684.854	4328.55
685.044	4439.14
685.234	4553.83
685.424	4457.57
685.614	4451.43
685.804	4498.53
685.994	4324.46
686.184	4318.31
686.374	4224.11
686.564	4281.45
686.753	4250.73
686.943	4156.52
687.133	4383.85
687.323	4140.14
687.513	4217.96
687.702	4244.59
687.892	4146.28
688.082	4275.31
688.272	4129.9
688.461	4127.85
688.651	4158.57
688.841	4203.63
689.03	4095.08
689.22	4037.74
689.41	4238.44
689.599	4007.02
689.789	3984.49
689.979	4027.5
690.168	4056.17
690.358	3937.39
690.547	3886.19
690.737	3826.8
690.926	3916.91
691.116	3779.7
691.305	3886.19
691.495	3982.45
691.684	3800.18
691.874	3847.28
692.063	3802.22
692.252	3918.96
692.442	3798.13
692.631	3755.12
692.82	3695.73
693.01	3744.88
693.199	3564.66
693.388	3599.48
693.578	3699.83
693.767	3765.36
693.956	3605.62
694.146	3662.96
694.335	3540.08
694.524	3609.72
694.713	3597.43
694.902	3554.42
695.092	3667.06
695.281	3574.9
695.47	3630.2
695.659	3628.15
695.848	3589.24
696.037	3550.32
696.226	3566.71
696.415	3394.68
696.604	3556.47
696.793	3482.74
696.982	3595.38
697.171	3372.15
697.36	3468.41
697.549	3366.01
697.738	3323
697.927	3624.05
698.116	3376.25
698.305	3423.35
698.494	3372.15
698.683	3552.37
698.872	3544.18
699.061	3417.21
699.25	3388.53
699.438	3394.68
699.627	3304.57
699.816	3390.58
700.005	3458.17
700.193	3275.9
700.382	3325.05
700.571	3269.75
700.76	3249.27
700.948	3259.51
701.137	3310.71
701.326	3304.57
701.514	3363.96
701.703	3292.28
701.892	3335.29
702.08	3294.33
702.269	3314.81
702.457	3243.13
702.646	3081.34
702.834	3261.56
703.023	3224.7
703.212	3286.14
703.4	3275.9
703.589	3333.24
703.777	3142.78
703.965	3167.35
704.154	3263.61
704.342	3087.48
704.531	3153.02
704.719	3175.55
704.907	3161.21
705.096	2956.41
705.284	3110.01
705.472	3163.26
705.661	3236.99
705.849	3202.17
706.037	3056.76
706.226	3062.91
706.414	3069.05
706.602	2991.23
706.79	3126.39
706.979	3173.5
707.167	3130.49
707.355	3052.67
707.543	3212.41
707.731	3271.8
707.919	3038.33
708.107	3208.31
708.296	2999.42
708.484	3026.04
708.672	2890.88
708.86	3087.48
709.048	3071.1
709.236	2970.75
709.424	2974.85
709.612	3030.14
709.8	3030.14
709.988	3003.52
710.176	2831.49
710.364	2966.65
710.551	3054.72
710.739	3011.71
710.927	2980.99
711.115	3081.34
711.303	2962.56
711.491	2870.4
711.679	2876.54
711.866	2892.93
712.054	2929.79
712.242	2872.45
712.43	3013.76
712.617	2931.84
712.805	3001.47
712.993	2888.83
713.181	2905.21
713.368	2872.45
713.556	2952.32
713.744	2698.37
713.931	2913.41
714.119	2897.02
714.306	2817.15
714.494	2933.89
714.682	2972.8
714.869	2868.35
715.057	2868.35
715.244	2921.6
715.432	2948.22
715.619	2716.8
715.807	2917.5
715.994	2788.48
716.182	2794.62
716.369	2948.22
716.556	2825.34
716.744	2831.49
716.931	2878.59
717.119	2802.82
717.306	2849.92
717.493	2800.77
717.681	2843.78
717.868	2831.49
718.055	2847.87
718.242	2837.63
718.43	2868.35
718.617	2735.23
718.804	2792.58
718.991	2815.1
719.179	2733.18
719.366	2800.77
719.553	2759.81
719.74	2731.14
719.927	2694.27
720.114	2675.84
720.301	2600.07
720.488	2636.93
720.676	2667.65
720.863	2878.59
721.05	2757.76
721.237	2665.6
721.424	2761.86
721.611	2512
721.798	2548.87
721.985	2589.83
722.172	2602.11
722.358	2622.59
722.545	2753.66
722.732	2657.41
722.919	2618.5
723.106	2552.96
723.293	2477.19
723.48	2565.25
723.667	2649.22
723.853	2516.1
724.04	2585.73
724.227	2624.64
724.414	2587.78
724.6	2638.98
724.787	2571.4
724.974	2507.91
725.161	2462.85
725.347	2499.72
725.534	2499.72
725.72	2552.96
725.907	2544.77
726.094	2555.01
726.28	2552.96
726.467	2497.67
726.653	2532.48
726.84	2552.96
727.027	2520.2
727.213	2483.33
727.4	2509.96
727.586	2497.67
727.773	2432.13
727.959	2397.32
728.145	2528.39
728.332	2462.85
728.518	2483.33
728.705	2540.68
728.891	2352.26
729.077	2471.04
729.264	2458.76
729.45	2477.19
729.636	2448.52
729.823	2473.09
730.009	2317.45
730.195	2385.03
730.382	2344.07
730.568	2382.98
730.754	2350.21
730.94	2339.97
731.126	2448.52
731.313	2389.13
731.499	2260.1
731.685	2419.85
731.871	2292.87
732.057	2415.75
732.243	2401.41
732.429	2440.33
732.615	2385.03
732.801	2309.26
732.987	2219.14
733.173	2335.88
733.359	2249.86
733.545	2325.64
733.731	2237.58
733.917	2407.56
734.103	2362.5
734.289	2213
734.475	2387.08
734.661	2393.22
734.847	2292.87
735.033	2321.54
735.219	2262.15
735.404	2251.91
735.59	2217.1
735.776	2174.09
735.962	2313.35
736.148	2235.53
736.333	2299.02
736.519	2155.66
736.705	2301.06
736.89	2323.59
737.076	2190.47
737.262	2122.89
737.447	2294.92
737.633	2188.43
737.819	2178.19
738.004	2167.95
738.19	2122.89
738.375	2112.65
738.561	2149.51
738.747	2194.57
738.932	2038.92
739.118	2000.01
739.303	2059.4
739.489	2186.38
739.674	2073.74
739.859	2057.36
740.045	2075.79
740.23	2124.94
740.416	2043.02
740.601	2020.49
740.786	2012.3
740.972	1938.57
741.157	1989.77
741.342	2014.35
741.528	1932.43
741.713	1969.29
741.898	2002.06
742.084	2047.12
742.269	1967.24
742.454	2004.11
742.639	1987.72
742.824	1963.15
743.01	1907.85
743.195	1944.72
743.38	1907.85
743.565	1944.72
743.75	2006.16
743.935	1924.24
744.12	1948.81
744.305	1850.51
744.49	1844.37
744.675	1842.32
744.86	1840.27
745.045	1807.5
745.23	1776.78
745.415	1928.33
745.6	1819.79
745.785	1778.83
745.97	1821.84
746.155	1688.72
746.34	1842.32
746.525	1692.82
746.71	1676.43
746.895	1666.19
747.079	1787.02
747.264	1692.82
747.449	1735.82
747.634	1637.52
747.819	1889.42
748.003	1545.36
748.188	1682.58
748.373	1713.3
748.557	1676.43
748.742	1717.39
748.927	1602.71
749.111	1600.66
749.296	1598.61
749.481	1549.46
749.665	1619.09
749.85	1559.7
750.034	1637.52
750.219	1537.17
750.404	1539.22
750.588	1526.93
750.773	1490.07
750.957	1506.45
751.141	1461.4
751.326	1520.79
751.51	1492.12
751.695	1526.93
751.879	1504.4
752.064	1471.64
752.248	1459.35
752.432	1459.35
752.617	1547.41
752.801	1457.3
752.985	1375.38
753.17	1348.76
753.354	1418.39
753.538	1402.01
753.722	1352.85
753.907	1389.72
754.091	1373.33
754.275	1344.66
754.459	1352.85
754.643	1248.41
754.828	1383.57
755.012	1311.89
755.196	1332.37
755.38	1320.09
755.564	1236.12
755.748	1180.82
755.932	1291.41
756.116	1164.44
756.3	1219.74
756.484	1199.26
756.668	1270.94
756.852	1172.63
757.036	1236.12
757.22	1180.82
757.404	1152.15
757.588	1033.37
757.772	1164.44
757.956	1105.05
758.14	1146.01
758.323	1131.67
758.507	1180.82
758.691	1143.96
758.875	1107.1
759.059	1170.58
759.242	1123.48
759.426	1096.86
759.61	1012.89
759.794	1047.71
759.977	1117.34
760.161	1111.19
760.345	1047.71
760.528	1146.01
760.712	1002.65
760.895	1004.7
761.079	1039.51
761.263	1051.8
761.446	869.53
761.63	1035.42
761.813	1080.47
761.997	1016.99
762.18	986.27
762.364	1039.51
762.547	996.51
762.731	920.73
762.914	996.51
763.098	900.25
763.281	984.22
763.464	994.46
763.648	875.68
763.831	908.44
764.015	918.68
764.198	1023.13
764.381	953.5
764.564	930.97
764.748	1000.6
764.931	885.92
765.114	887.97
765.297	926.88
765.481	873.63
765.664	914.59
765.847	857.25
766.03	861.34
766.213	904.35
766.397	904.35
766.58	812.19
766.763	871.58
766.946	887.97
767.129	828.57
767.312	853.15
767.495	873.63
767.678	939.16
767.861	832.67
768.044	842.91
768.227	881.82
768.41	877.73
768.593	926.88
768.776	869.53
768.959	902.3
769.142	861.34
769.324	834.72
769.507	920.73
769.69	783.52
769.873	865.44
770.056	836.77
770.239	818.33
770.421	894.11
770.604	812.19
770.787	804
770.97	818.33
771.152	742.56
771.335	734.37
771.518	746.66
771.7	826.53
771.883	752.8
772.066	775.33
772.248	795.81
772.431	728.22
772.613	797.85
772.796	713.89
772.978	734.37
773.161	732.32
773.343	740.51
773.526	705.7
773.708	634.02
773.891	742.56
774.073	726.18
774.256	668.83
774.438	646.3
774.621	697.5
774.803	730.27
774.985	666.78
775.168	670.88
775.35	666.78
775.532	670.88
775.715	648.35
775.897	658.59
776.079	695.46
776.261	656.54
776.444	613.54
776.626	584.87
776.808	644.26
776.99	654.5
777.173	701.6
777.355	631.97
777.537	574.63
777.719	597.15
777.901	584.87
778.083	648.35
778.265	623.78
778.447	607.39
778.629	664.74
778.811	539.81
778.993	619.68
779.175	566.43
779.357	627.87
779.539	591.01
779.721	533.67
779.903	564.39
780.085	511.14
780.267	601.25
780.449	521.38
780.631	584.87
780.812	578.72
780.994	484.52
781.176	476.32
781.358	486.56
781.54	476.32
781.721	478.37
781.903	593.06
782.085	582.82
782.267	533.67
782.448	464.04
782.63	554.15
782.812	486.56
782.993	488.61
783.175	466.08
783.357	472.23
783.538	502.95
783.72	427.17
783.901	410.79
784.083	507.04
784.264	414.88
784.446	373.92
784.627	466.08
784.809	461.99
784.99	525.47
785.172	461.99
785.353	435.36
785.535	492.71
785.716	361.64
785.897	476.32
786.079	402.6
786.26	414.88
786.441	451.75
786.623	400.55
786.804	345.25
786.985	343.21
787.167	365.73
787.348	353.45
787.529	363.69
787.71	459.94
787.891	431.27
788.073	355.49
788.254	400.55
788.435	468.13
788.616	355.49
788.797	386.21
788.978	402.6
789.159	289.96
789.34	324.77
789.522	335.01
789.703	316.58
789.884	455.84
790.065	306.34
790.246	357.54
790.427	326.82
790.607	380.07
790.788	375.97
790.969	320.68
791.15	365.73
791.331	283.81
791.512	312.49
791.693	337.06
791.874	328.87
792.054	369.83
792.235	375.97
792.416	394.4
792.597	253.09
792.778	232.62
792.958	414.88
793.139	320.68
793.32	396.45
793.5	279.72
793.681	347.3
793.862	279.72
794.042	353.45
794.223	255.14
794.404	308.39
794.584	261.29
794.765	203.94
794.945	238.76
795.126	238.76
795.306	310.44
795.487	318.63
795.667	242.85
795.848	259.24
796.028	285.86
796.209	306.34
796.389	310.44
796.57	238.76
796.75	246.95
796.93	322.73
797.111	316.58
797.291	224.42
797.471	312.49
797.652	238.76
797.832	222.38
798.012	269.48
798.192	246.95
798.373	263.33
798.553	251.05
798.733	224.42
798.913	208.04
799.093	300.2
799.274	230.57
799.454	249
799.634	335.01
799.814	271.53
799.994	173.22
800.174	273.57
800.354	285.86
800.534	222.38
800.714	199.85
800.894	294.05
801.074	189.61
801.254	212.14
801.434	201.9
801.614	275.62
801.794	236.71
801.974	707.74
802.154	203.94
802.334	208.04
802.514	230.57
802.693	218.28
802.873	181.42
803.053	259.24
803.233	197.8
803.413	175.27
803.592	193.7
803.772	175.27
803.952	236.71
804.131	197.8
804.311	255.14
804.491	148.65
804.67	189.61
804.85	148.65
805.03	179.37
805.209	197.8
805.389	205.99
805.568	162.98
805.748	197.8
805.928	216.23
806.107	177.32
806.287	187.56
806.466	253.09
806.646	167.08
806.825	124.07
807.004	230.57
807.184	169.13
807.363	228.52
807.543	191.66
807.722	224.42
807.901	173.22
808.081	162.98
808.26	66.73
808.439	203.94
808.619	150.7
808.798	169.13
808.977	261.29
809.156	136.36
809.336	242.85
809.515	105.64
809.694	111.78
809.873	113.83
810.052	191.66
810.231	181.42
810.411	181.42
810.59	201.9
810.769	228.52
810.948	232.62
811.127	128.17
811.306	160.94
811.485	85.16
811.664	281.77
811.843	201.9
812.022	156.84
812.201	214.18
812.38	173.22
812.559	171.18
812.737	199.85
812.916	95.4
813.095	126.12
813.274	140.46
813.453	218.28
813.632	179.37
813.811	193.7
813.989	136.36
814.168	152.74
814.347	138.41
814.526	156.84
814.704	201.9
814.883	150.7
815.062	87.21
815.24	132.26
815.419	50.35
815.598	122.02
815.776	138.41
815.955	165.03
816.133	103.59
816.312	138.41
816.49	124.07
816.669	146.6
816.847	181.42
817.026	150.7
817.204	99.5
817.383	177.32
817.561	89.26
817.74	152.74
817.918	81.07
818.097	197.8
818.275	42.15
818.453	169.13
818.632	122.02
818.81	187.56
818.988	162.98
819.167	105.64
819.345	144.55
819.523	76.97
819.701	95.4
819.879	122.02
820.058	111.78
820.236	50.35
820.414	111.78
820.592	93.35
820.77	99.5
820.948	83.11
821.127	83.11
821.305	99.5
821.483	138.41
821.661	179.37
821.839	124.07
822.017	111.78
822.195	95.4
822.373	146.6
822.551	130.22
822.729	122.02
822.907	79.02
823.085	79.02
823.262	83.11
823.44	169.13
823.618	160.94
823.796	113.83
823.974	95.4
824.152	117.93
824.329	115.88
824.507	113.83
824.685	117.93
824.863	122.02
825.04	91.31
825.218	115.88
825.396	87.21
825.574	146.6
825.751	72.87
825.929	85.16
826.107	91.31
826.284	62.63
826.462	50.35
826.639	70.83
826.817	95.4
826.994	158.89
827.172	105.64
827.349	210.09
827.527	124.07
827.704	132.26
827.882	136.36
828.059	107.69
828.237	79.02
828.414	165.03
828.591	38.06
828.769	119.98
828.946	150.7
829.124	117.93
829.301	148.65
829.478	31.91
829.655	105.64
829.833	175.27
830.01	91.31
830.187	56.49
830.364	72.87
830.542	111.78
830.719	58.54
830.896	68.78
831.073	136.36
831.25	107.69
831.427	62.63
831.604	193.7
831.782	25.77
831.959	89.26
832.136	95.4
832.313	156.84
832.49	56.49
832.667	79.02
832.844	62.63
833.021	115.88
833.198	99.5
833.374	-7
833.551	152.74
833.728	91.31
833.905	124.07
834.082	40.11
834.259	72.87
834.436	62.63
834.612	58.54
834.789	79.02
834.966	79.02
835.143	70.83
835.319	17.58
835.496	138.41
835.673	64.68
835.85	56.49
836.026	95.4
836.203	64.68
836.38	91.31
836.556	50.35
836.733	91.31
836.909	76.97
837.086	23.72
837.262	3.24
837.439	115.88
837.616	107.69
837.792	76.97
837.968	74.92
838.145	-11.09
838.321	70.83
838.498	60.59
838.674	50.35
838.851	93.35
839.027	74.92
839.203	-0.85
839.38	93.35
839.556	97.45
839.732	85.16
839.909	33.96
840.085	126.12
840.261	72.87
840.437	50.35
840.614	23.72
840.79	89.26
840.966	52.39
841.142	109.74
841.318	99.5
841.494	33.96
841.671	70.83
841.847	31.91
842.023	113.83
842.199	54.44
842.375	27.82
842.551	62.63
842.727	64.68
842.903	105.64
843.079	66.73
843.255	117.93
843.431	58.54
843.607	52.39
843.783	13.48
843.959	115.88
844.134	97.45
844.31	148.65
844.486	36.01
844.662	-2.9
844.838	-9.05
845.013	64.68
845.189	105.64
845.365	38.06
845.541	97.45
845.716	107.69
845.892	60.59
846.068	54.44
846.244	13.48
846.419	72.87
846.595	58.54
846.77	64.68
846.946	74.92
847.122	70.83
847.297	48.3
847.473	52.39
847.648	25.77
847.824	56.49
847.999	-27.48
848.175	64.68
848.35	44.2
848.526	93.35
848.701	81.07
848.876	122.02
849.052	107.69
849.227	23.72
849.403	46.25
849.578	111.78
849.753	142.5
849.929	66.73
850.104	99.5
850.279	29.87
850.454	50.35
850.63	23.72
850.805	89.26
850.98	95.4
851.155	50.35
851.33	105.64
851.505	17.58
851.681	44.2
851.856	60.59
852.031	66.73
852.206	79.02
852.381	-25.43
852.556	-17.24
852.731	29.87
852.906	31.91
853.081	5.29
853.256	21.67
853.431	9.39
853.606	17.58
853.781	21.67
853.956	-25.43
854.131	5.29
854.305	-0.85
854.48	-41.81
854.655	-19.29
854.83	42.15
855.005	101.55
855.18	46.25
855.354	31.91
855.529	46.25
855.704	81.07
855.879	56.49
856.053	25.77
856.228	-7
856.403	3.24
856.577	50.35
856.752	-31.57
856.926	15.53
857.101	-9.05
857.276	-25.43
857.45	74.92
857.625	5.29
857.799	38.06
857.974	-17.24
858.148	-17.24
858.323	44.2
858.497	27.82
858.672	-45.91
858.846	40.11
859.02	56.49
859.195	66.73
859.369	40.11
859.543	72.87
859.718	60.59
859.892	31.91
860.066	42.15
860.241	17.58
860.415	-0.85
860.589	1.19
860.763	15.53
860.938	31.91
861.112	27.82
861.286	13.48
861.46	42.15
861.634	56.49
861.808	85.16
861.982	-23.38
862.157	25.77
862.331	36.01
862.505	-45.91
862.679	83.11
862.853	1.19
863.027	17.58
863.201	9.39
863.375	29.87
863.549	85.16
863.722	50.35
863.896	27.82
864.07	-13.14
864.244	-7
864.418	89.26
864.592	95.4
864.766	-50
864.939	103.59
865.113	36.01
865.287	79.02
865.461	7.34
865.634	44.2
865.808	-25.43
865.982	-7
866.156	-13.14
866.329	-37.72
866.503	23.72
866.676	46.25
866.85	-7
867.024	48.3
867.197	95.4
867.371	1.19
867.544	25.77
867.718	7.34
867.891	25.77
868.065	-19.29
868.238	52.39
868.412	76.97
868.585	-11.09
868.759	-35.67
868.932	-15.19
869.105	85.16
869.279	46.25
869.452	-17.24
869.625	50.35
869.799	56.49
869.972	-47.96
870.145	33.96
870.319	17.58
870.492	-31.57
870.665	33.96
870.838	29.87
871.011	29.87
871.185	74.92
871.358	-88.92
871.531	5.29
871.704	15.53
871.877	-19.29
872.05	9.39
872.223	33.96
872.396	-17.24
872.569	13.48
872.742	31.91
872.915	93.35
873.088	5.29
873.261	-19.29
873.434	9.39
873.607	-13.14
873.78	-56.15
873.953	-0.85
874.126	23.72
874.299	-2.9
874.471	25.77
874.644	13.48
874.817	83.11
874.99	91.31
875.163	38.06
875.335	40.11
875.508	7.34
875.681	46.25
875.853	-19.29
876.026	-31.57
876.199	89.26
876.371	17.58
876.544	19.63
876.717	56.49
876.889	9.39
877.062	-33.62
877.234	-0.85
877.407	-13.14
877.579	66.73
877.752	-4.95
877.924	119.98
878.097	70.83
878.269	9.39
878.442	17.58
878.614	-27.48
878.786	-21.33
878.959	5.29
879.131	68.78
879.303	-11.09
879.476	15.53
879.648	42.15
879.82	27.82
879.993	40.11
880.165	-19.29
880.337	-27.48
880.509	-60.24
880.681	1.19
880.854	3.24
881.026	56.49
881.198	33.96
881.37	25.77
881.542	21.67
881.714	21.67
881.886	-11.09
882.058	70.83
882.23	-19.29
882.402	-7
882.574	23.72
882.746	-0.85
882.918	40.11
883.09	27.82
883.262	44.2
883.434	68.78
883.606	60.59
883.778	25.77
883.95	79.02
884.122	-0.85
884.293	33.96
884.465	9.39
884.637	19.63
884.809	-9.05
884.98	87.21
885.152	50.35
885.324	23.72
885.496	58.54
885.667	31.91
885.839	42.15
886.011	46.25
886.182	66.73
886.354	128.17
886.525	9.39
886.697	70.83
886.869	-43.86
887.04	-15.19
887.212	-11.09
887.383	97.45
887.555	-19.29
887.726	15.53
887.897	-66.39
888.069	66.73
888.24	17.58
888.412	62.63
888.583	-11.09
888.754	-35.67
888.926	107.69
889.097	3.24
889.268	13.48
889.44	9.39
889.611	-25.43
889.782	64.68
889.953	-7
890.125	-0.85
890.296	27.82
890.467	-15.19
890.638	13.48
890.809	46.25
890.98	-4.95
891.151	85.16
891.323	72.87
891.494	25.77
891.665	-35.67
891.836	31.91
892.007	5.29
892.178	27.82
892.349	64.68
892.52	-27.48
892.691	48.3
892.862	23.72
893.032	-58.2
893.203	-4.95
893.374	9.39
893.545	105.64
893.716	-15.19
893.887	58.54
894.057	54.44
894.228	-43.86
894.399	-60.24
894.57	38.06
894.74	31.91
894.911	1.19
895.082	25.77
895.253	-47.96
895.423	-9.05
895.594	13.48
895.764	79.02
895.935	-29.52
896.106	52.39
896.276	76.97
896.447	19.63
896.617	-2.9
896.788	-23.38
896.958	21.67
897.129	-11.09
897.299	27.82
897.47	33.96
897.64	31.91
897.81	-62.29
897.981	-25.43
898.151	-74.58
898.322	29.87
898.492	50.35
898.662	42.15
898.832	-7
899.003	-15.19
899.173	95.4
899.343	-4.95
899.513	-25.43
