Data from USB4F104151__95__10-24-31-359.txt Node

Date: Wed Mar 12 10:24:31 EDT 2025
User: louis
Spectrometer: USB4F10415
Trigger mode: 4
Integration Time (sec): 3.000000E-2
Scans to average: 1
Electric dark correction enabled: true
Nonlinearity correction enabled: false
Boxcar width: 0
XAxis mode: Wavelengths
Number of Pixels in Spectrum: 3648
>>>>>Begin Spectral Data<<<<<
178.204	-106.15
178.424	-106.15
178.644	-106.15
178.864	-112.3
179.084	-81.58
179.304	-61.1
179.524	43.35
179.744	-30.38
179.964	35.16
180.184	-40.62
180.404	26.96
180.624	-30.38
180.844	16.73
181.064	-7.85
181.283	16.73
181.503	2.39
181.723	29.01
181.943	61.78
182.163	102.74
182.383	18.77
182.602	55.64
182.822	31.06
183.042	125.27
183.262	2.39
183.482	72.02
183.701	51.54
183.921	59.73
184.141	10.58
184.361	63.83
184.58	69.97
184.8	33.11
185.02	53.59
185.239	72.02
185.459	86.36
185.679	112.98
185.898	45.4
186.118	129.36
186.338	119.12
186.557	86.36
186.777	-32.43
186.997	26.96
187.216	47.44
187.436	164.18
187.655	80.21
187.875	84.31
188.095	49.49
188.314	82.26
188.534	82.26
188.753	135.51
188.973	115.03
189.192	94.55
189.412	53.59
189.631	112.98
189.851	18.77
190.07	98.64
190.29	-44.71
190.509	65.88
190.729	39.25
190.948	51.54
191.168	84.31
191.387	84.31
191.607	4.44
191.826	98.64
192.045	16.73
192.265	57.68
192.484	123.22
192.704	26.96
192.923	22.87
193.142	65.88
193.362	12.63
193.581	90.45
193.8	61.78
194.02	78.16
194.239	74.07
194.458	20.82
194.678	37.2
194.897	100.69
195.116	131.41
195.335	8.53
195.555	139.6
195.774	100.69
195.993	37.2
196.212	65.88
196.432	78.16
196.651	90.45
196.87	78.16
197.089	92.5
197.308	84.31
197.528	115.03
197.747	16.73
197.966	127.32
198.185	12.63
198.404	31.06
198.623	43.35
198.842	86.36
199.062	29.01
199.281	59.73
199.5	74.07
199.719	53.59
199.938	82.26
200.157	125.27
200.376	29.01
200.595	31.06
200.814	129.36
201.033	20.82
201.252	69.97
201.471	98.64
201.69	82.26
201.909	76.12
202.128	69.97
202.347	-9.9
202.566	61.78
202.785	67.92
203.004	20.82
203.223	170.32
203.442	-9.9
203.661	47.44
203.879	-26.28
204.098	55.64
204.317	24.92
204.536	80.21
204.755	41.3
204.974	76.12
205.193	119.12
205.411	104.79
205.63	67.92
205.849	49.49
206.068	61.78
206.287	80.21
206.505	74.07
206.724	6.49
206.943	69.97
207.162	35.16
207.381	72.02
207.599	35.16
207.818	31.06
208.037	94.55
208.255	74.07
208.474	149.84
208.693	51.54
208.911	65.88
209.13	74.07
209.349	24.92
209.567	24.92
209.786	65.88
210.005	106.84
210.223	49.49
210.442	104.79
210.661	33.11
210.879	18.77
211.098	49.49
211.316	37.2
211.535	94.55
211.753	4.44
211.972	59.73
212.191	72.02
212.409	49.49
212.628	-20.14
212.846	49.49
213.065	94.55
213.283	82.26
213.502	61.78
213.72	-3.75
213.938	80.21
214.157	49.49
214.375	53.59
214.594	82.26
214.812	-3.75
215.031	-5.8
215.249	74.07
215.467	110.93
215.686	53.59
215.904	69.97
216.122	57.68
216.341	84.31
216.559	57.68
216.778	80.21
216.996	84.31
217.214	41.3
217.432	47.44
217.651	24.92
217.869	53.59
218.087	6.49
218.306	61.78
218.524	106.84
218.742	12.63
218.96	-1.71
219.179	4.44
219.397	39.25
219.615	82.26
219.833	80.21
220.051	53.59
220.27	98.64
220.488	45.4
220.706	127.32
220.924	29.01
221.142	24.92
221.36	53.59
221.578	90.45
221.796	86.36
222.015	69.97
222.233	86.36
222.451	135.51
222.669	49.49
222.887	192.85
223.105	49.49
223.323	67.92
223.541	-3.75
223.759	123.22
223.977	47.44
224.195	137.56
224.413	88.4
224.631	22.87
224.849	76.12
225.067	55.64
225.285	104.79
225.503	39.25
225.721	20.82
225.939	55.64
226.157	24.92
226.375	98.64
226.592	51.54
226.81	55.64
227.028	31.06
227.246	35.16
227.464	86.36
227.682	115.03
227.9	135.51
228.117	43.35
228.335	98.64
228.553	88.4
228.771	92.5
228.989	96.6
229.206	92.5
229.424	55.64
229.642	84.31
229.86	57.68
230.077	98.64
230.295	63.83
230.513	131.41
230.731	61.78
230.948	170.32
231.166	80.21
231.384	55.64
231.601	115.03
231.819	178.51
232.037	76.12
232.254	-28.33
232.472	86.36
232.689	37.2
232.907	141.65
233.125	74.07
233.342	86.36
233.56	59.73
233.777	24.92
233.995	-28.33
234.213	49.49
234.43	88.4
234.648	53.59
234.865	-20.14
235.083	41.3
235.3	16.73
235.518	115.03
235.735	133.46
235.953	100.69
236.17	26.96
236.388	53.59
236.605	121.17
236.822	108.88
237.04	78.16
237.257	33.11
237.475	82.26
237.692	160.08
237.909	31.06
238.127	86.36
238.344	55.64
238.562	45.4
238.779	18.77
238.996	33.11
239.214	127.32
239.431	98.64
239.648	80.21
239.865	22.87
240.083	102.74
240.3	78.16
240.517	121.17
240.735	123.22
240.952	61.78
241.169	127.32
241.386	131.41
241.603	133.46
241.821	29.01
242.038	84.31
242.255	57.68
242.472	12.63
242.689	76.12
242.907	110.93
243.124	18.77
243.341	37.2
243.558	41.3
243.775	53.59
243.992	33.11
244.209	61.78
244.426	76.12
244.643	72.02
244.86	-32.43
245.078	115.03
245.295	41.3
245.512	57.68
245.729	74.07
245.946	96.6
246.163	112.98
246.38	14.68
246.597	57.68
246.814	45.4
247.031	59.73
247.248	45.4
247.464	74.07
247.681	84.31
247.898	90.45
248.115	133.46
248.332	29.01
248.549	74.07
248.766	110.93
248.983	47.44
249.2	35.16
249.417	98.64
249.633	-40.62
249.85	76.12
250.067	29.01
250.284	106.84
250.501	55.64
250.717	108.88
250.934	69.97
251.151	84.31
251.368	-16.04
251.585	80.21
251.801	22.87
252.018	29.01
252.235	55.64
252.451	12.63
252.668	86.36
252.885	82.26
253.102	72.02
253.318	53.59
253.535	53.59
253.752	22.87
253.968	69.97
254.185	65.88
254.401	2.39
254.618	106.84
254.835	-3.75
255.051	123.22
255.268	51.54
255.484	22.87
255.701	65.88
255.917	88.4
256.134	98.64
256.351	82.26
256.567	10.58
256.784	51.54
257	35.16
257.217	74.07
257.433	69.97
257.65	145.75
257.866	98.64
258.082	35.16
258.299	49.49
258.515	14.68
258.732	-77.48
258.948	104.79
259.165	72.02
259.381	20.82
259.597	117.08
259.814	69.97
260.03	98.64
260.246	88.4
260.463	49.49
260.679	100.69
260.895	33.11
261.112	127.32
261.328	29.01
261.544	-22.19
261.761	117.08
261.977	74.07
262.193	129.36
262.409	45.4
262.626	72.02
262.842	37.2
263.058	92.5
263.274	20.82
263.49	45.4
263.707	117.08
263.923	78.16
264.139	4.44
264.355	129.36
264.571	98.64
264.787	65.88
265.004	94.55
265.22	65.88
265.436	-7.85
265.652	143.7
265.868	112.98
266.084	35.16
266.3	69.97
266.516	102.74
266.732	57.68
266.948	63.83
267.164	8.53
267.38	63.83
267.596	49.49
267.812	129.36
268.028	59.73
268.244	86.36
268.46	57.68
268.676	41.3
268.892	18.77
269.108	43.35
269.324	67.92
269.54	92.5
269.756	127.32
269.972	33.11
270.188	102.74
270.403	-1.71
270.619	20.82
270.835	86.36
271.051	12.63
271.267	35.16
271.483	47.44
271.698	82.26
271.914	96.6
272.13	74.07
272.346	63.83
272.562	135.51
272.777	74.07
272.993	51.54
273.209	43.35
273.425	86.36
273.64	51.54
273.856	74.07
274.072	55.64
274.287	82.26
274.503	133.46
274.719	67.92
274.934	106.84
275.15	6.49
275.366	67.92
275.581	108.88
275.797	74.07
276.012	18.77
276.228	37.2
276.444	49.49
276.659	112.98
276.875	6.49
277.09	0.34
277.306	76.12
277.521	133.46
277.737	67.92
277.952	104.79
278.168	119.12
278.383	80.21
278.599	123.22
278.814	141.65
279.03	76.12
279.245	45.4
279.461	33.11
279.676	74.07
279.892	53.59
280.107	-16.04
280.322	63.83
280.538	47.44
280.753	76.12
280.969	-30.38
281.184	80.21
281.399	102.74
281.615	90.45
281.83	35.16
282.045	67.92
282.26	22.87
282.476	29.01
282.691	45.4
282.906	63.83
283.122	80.21
283.337	53.59
283.552	117.08
283.767	76.12
283.983	78.16
284.198	43.35
284.413	88.4
284.628	35.16
284.843	31.06
285.058	82.26
285.274	94.55
285.489	65.88
285.704	92.5
285.919	74.07
286.134	80.21
286.349	123.22
286.564	24.92
286.779	90.45
286.995	108.88
287.21	51.54
287.425	65.88
287.64	59.73
287.855	78.16
288.07	45.4
288.285	18.77
288.5	67.92
288.715	129.36
288.93	12.63
289.145	61.78
289.36	22.87
289.575	47.44
289.79	158.03
290.004	29.01
290.219	88.4
290.434	61.78
290.649	82.26
290.864	35.16
291.079	2.39
291.294	86.36
291.509	117.08
291.724	6.49
291.938	43.35
292.153	69.97
292.368	61.78
292.583	-3.75
292.798	57.68
293.012	125.27
293.227	133.46
293.442	35.16
293.657	65.88
293.871	92.5
294.086	63.83
294.301	-9.9
294.516	100.69
294.73	74.07
294.945	-20.14
295.16	47.44
295.374	53.59
295.589	145.75
295.804	47.44
296.018	55.64
296.233	78.16
296.447	98.64
296.662	33.11
296.877	119.12
297.091	88.4
297.306	72.02
297.52	65.88
297.735	82.26
297.949	41.3
298.164	117.08
298.378	72.02
298.593	69.97
298.807	65.88
299.022	20.82
299.236	39.25
299.451	53.59
299.665	47.44
299.88	55.64
300.094	10.58
300.309	69.97
300.523	123.22
300.737	51.54
300.952	115.03
301.166	80.21
301.381	67.92
301.595	57.68
301.809	63.83
302.024	37.2
302.238	37.2
302.452	131.41
302.667	98.64
302.881	82.26
303.095	61.78
303.309	65.88
303.524	45.4
303.738	82.26
303.952	78.16
304.166	84.31
304.381	-9.9
304.595	45.4
304.809	45.4
305.023	67.92
305.237	94.55
305.452	80.21
305.666	78.16
305.88	141.65
306.094	14.68
306.308	43.35
306.522	133.46
306.736	123.22
306.95	51.54
307.164	67.92
307.379	65.88
307.593	45.4
307.807	92.5
308.021	67.92
308.235	135.51
308.449	41.3
308.663	67.92
308.877	127.32
309.091	63.83
309.305	37.2
309.519	90.45
309.733	41.3
309.947	-28.33
310.161	65.88
310.374	96.6
310.588	74.07
310.802	110.93
311.016	18.77
311.23	94.55
311.444	80.21
311.658	98.64
311.872	88.4
312.085	88.4
312.299	29.01
312.513	84.31
312.727	139.6
312.941	67.92
313.154	69.97
313.368	26.96
313.582	117.08
313.796	57.68
314.009	37.2
314.223	24.92
314.437	72.02
314.651	94.55
314.864	94.55
315.078	88.4
315.292	78.16
315.505	57.68
315.719	117.08
315.933	94.55
316.146	53.59
316.36	80.21
316.573	49.49
316.787	98.64
317.001	35.16
317.214	78.16
317.428	94.55
317.641	67.92
317.855	26.96
318.068	100.69
318.282	78.16
318.495	98.64
318.709	0.34
318.922	26.96
319.136	151.89
319.349	74.07
319.563	139.6
319.776	72.02
319.99	76.12
320.203	86.36
320.417	61.78
320.63	100.69
320.843	76.12
321.057	106.84
321.27	84.31
321.483	76.12
321.697	180.56
321.91	69.97
322.124	74.07
322.337	96.6
322.55	29.01
322.763	53.59
322.977	82.26
323.19	43.35
323.403	51.54
323.617	98.64
323.83	135.51
324.043	10.58
324.256	100.69
324.469	88.4
324.683	123.22
324.896	102.74
325.109	178.51
325.322	84.31
325.535	119.12
325.748	49.49
325.962	84.31
326.175	78.16
326.388	51.54
326.601	92.5
326.814	86.36
327.027	35.16
327.24	53.59
327.453	61.78
327.666	47.44
327.879	104.79
328.092	76.12
328.305	131.41
328.518	119.12
328.731	108.88
328.944	16.73
329.157	16.73
329.37	-3.75
329.583	133.46
329.796	127.32
330.009	0.34
330.222	110.93
330.435	102.74
330.648	74.07
330.861	86.36
331.073	59.73
331.286	129.36
331.499	162.13
331.712	22.87
331.925	86.36
332.138	35.16
332.35	69.97
332.563	49.49
332.776	184.66
332.989	53.59
333.202	51.54
333.414	69.97
333.627	100.69
333.84	57.68
334.053	6.49
334.265	12.63
334.478	106.84
334.691	61.78
334.903	108.88
335.116	98.64
335.329	123.22
335.541	53.59
335.754	88.4
335.966	98.64
336.179	8.53
336.392	29.01
336.604	37.2
336.817	88.4
337.029	104.79
337.242	88.4
337.454	69.97
337.667	51.54
337.88	139.6
338.092	100.69
338.305	35.16
338.517	69.97
338.729	127.32
338.942	37.2
339.154	-28.33
339.367	47.44
339.579	69.97
339.792	4.44
340.004	57.68
340.217	57.68
340.429	139.6
340.641	37.2
340.854	94.55
341.066	53.59
341.278	192.85
341.491	49.49
341.703	92.5
341.915	-5.8
342.128	125.27
342.34	164.18
342.552	-30.38
342.764	6.49
342.977	135.51
343.189	80.21
343.401	119.12
343.613	110.93
343.826	6.49
344.038	59.73
344.25	98.64
344.462	125.27
344.674	178.51
344.886	108.88
345.099	55.64
345.311	65.88
345.523	100.69
345.735	61.78
345.947	47.44
346.159	4.44
346.371	131.41
346.583	117.08
346.795	135.51
347.007	49.49
347.219	43.35
347.431	94.55
347.643	153.94
347.855	51.54
348.067	133.46
348.279	92.5
348.491	57.68
348.703	76.12
348.915	115.03
349.127	78.16
349.339	94.55
349.551	110.93
349.763	94.55
349.975	45.4
350.187	8.53
350.399	94.55
350.61	162.13
350.822	121.17
351.034	51.54
351.246	35.16
351.458	121.17
351.669	78.16
351.881	160.08
352.093	82.26
352.305	55.64
352.517	86.36
352.728	86.36
352.94	47.44
353.152	35.16
353.363	4.44
353.575	104.79
353.787	72.02
353.999	90.45
354.21	100.69
354.422	61.78
354.633	117.08
354.845	74.07
355.057	117.08
355.268	74.07
355.48	74.07
355.692	31.06
355.903	133.46
356.115	100.69
356.326	-28.33
356.538	147.8
356.749	84.31
356.961	153.94
357.172	100.69
357.384	88.4
357.595	29.01
357.807	100.69
358.018	164.18
358.23	121.17
358.441	127.32
358.653	96.6
358.864	6.49
359.075	67.92
359.287	94.55
359.498	127.32
359.709	123.22
359.921	49.49
360.132	149.84
360.344	86.36
360.555	33.11
360.766	53.59
360.977	69.97
361.189	112.98
361.4	102.74
361.611	57.68
361.823	84.31
362.034	84.31
362.245	55.64
362.456	117.08
362.667	100.69
362.879	94.55
363.09	78.16
363.301	88.4
363.512	69.97
363.723	119.12
363.935	117.08
364.146	84.31
364.357	82.26
364.568	127.32
364.779	102.74
364.99	121.17
365.201	59.73
365.412	205.14
365.623	-7.85
365.834	88.4
366.045	72.02
366.256	74.07
366.467	74.07
366.678	151.89
366.889	115.03
367.1	37.2
367.311	125.27
367.522	33.11
367.733	94.55
367.944	123.22
368.155	84.31
368.366	147.8
368.577	112.98
368.788	69.97
368.999	69.97
369.209	127.32
369.42	45.4
369.631	160.08
369.842	76.12
370.053	80.21
370.264	72.02
370.474	0.34
370.685	92.5
370.896	78.16
371.107	137.56
371.317	100.69
371.528	10.58
371.739	65.88
371.95	110.93
372.16	74.07
372.371	51.54
372.582	76.12
372.792	153.94
373.003	188.75
373.214	51.54
373.424	131.41
373.635	143.7
373.846	96.6
374.056	158.03
374.267	100.69
374.477	86.36
374.688	45.4
374.898	6.49
375.109	37.2
375.319	121.17
375.53	108.88
375.74	127.32
375.951	98.64
376.161	53.59
376.372	112.98
376.582	33.11
376.793	117.08
377.003	49.49
377.214	147.8
377.424	49.49
377.635	123.22
377.845	90.45
378.055	137.56
378.266	-7.85
378.476	37.2
378.686	61.78
378.897	168.27
379.107	117.08
379.317	59.73
379.528	110.93
379.738	69.97
379.948	51.54
380.158	88.4
380.369	69.97
380.579	119.12
380.789	110.93
380.999	82.26
381.21	59.73
381.42	184.66
381.63	61.78
381.84	153.94
382.05	147.8
382.261	190.8
382.471	78.16
382.681	57.68
382.891	108.88
383.101	100.69
383.311	69.97
383.521	2.39
383.731	155.99
383.941	41.3
384.151	135.51
384.361	139.6
384.571	74.07
384.781	84.31
384.991	201.04
385.201	96.6
385.411	110.93
385.621	104.79
385.831	61.78
386.041	143.7
386.251	88.4
386.461	39.25
386.671	41.3
386.881	131.41
387.091	78.16
387.301	151.89
387.511	123.22
387.72	104.79
387.93	104.79
388.14	147.8
388.35	76.12
388.56	139.6
388.769	145.75
388.979	98.64
389.189	94.55
389.399	16.73
389.609	84.31
389.818	106.84
390.028	123.22
390.238	78.16
390.447	108.88
390.657	102.74
390.867	74.07
391.076	112.98
391.286	92.5
391.496	94.55
391.705	78.16
391.915	137.56
392.125	160.08
392.334	143.7
392.544	106.84
392.753	96.6
392.963	108.88
393.172	135.51
393.382	96.6
393.591	213.33
393.801	67.92
394.01	100.69
394.22	125.27
394.429	198.99
394.639	8.53
394.848	196.95
395.058	129.36
395.267	65.88
395.477	176.47
395.686	225.62
395.895	151.89
396.105	176.47
396.314	180.56
396.524	143.7
396.733	100.69
396.942	115.03
397.152	180.56
397.361	147.8
397.57	149.84
397.78	131.41
397.989	121.17
398.198	166.23
398.407	174.42
398.617	84.31
398.826	184.66
399.035	172.37
399.244	242
399.453	164.18
399.663	61.78
399.872	223.57
400.081	127.32
400.29	115.03
400.499	86.36
400.708	213.33
400.917	88.4
401.127	61.78
401.336	207.19
401.545	178.51
401.754	215.38
401.963	235.86
402.172	119.12
402.381	141.65
402.59	205.14
402.799	180.56
403.008	198.99
403.217	182.61
403.426	237.91
403.635	194.9
403.844	121.17
404.053	151.89
404.262	145.75
404.471	155.99
404.68	227.67
404.888	198.99
405.097	192.85
405.306	246.1
405.515	229.71
405.724	217.43
405.933	233.81
406.142	244.05
406.35	248.15
406.559	270.67
406.768	209.23
406.977	252.24
407.185	305.49
407.394	219.47
407.603	229.71
407.812	293.2
408.02	291.15
408.229	276.82
408.438	244.05
408.646	311.63
408.855	299.34
409.064	274.77
409.272	362.83
409.481	438.61
409.69	319.82
409.898	303.44
410.107	436.56
410.315	377.17
410.524	405.84
410.733	502.09
410.941	444.75
411.15	467.28
411.358	541.01
411.567	477.52
411.775	469.33
411.984	514.38
412.192	612.68
412.401	586.06
412.609	641.36
412.818	577.87
413.026	657.74
413.234	614.73
413.443	655.69
413.651	674.12
413.86	694.6
414.068	723.27
414.276	717.13
414.485	819.53
414.693	792.91
414.901	827.72
415.11	850.25
415.318	893.26
415.526	954.69
415.734	932.17
415.943	921.93
416.151	966.98
416.359	1034.57
416.567	1046.85
416.776	1069.38
416.984	1132.87
417.192	1184.07
417.4	1241.41
417.608	1159.49
417.817	1272.13
418.025	1376.58
418.233	1401.15
418.441	1413.44
418.649	1460.54
418.857	1507.65
419.065	1540.41
419.273	1542.46
419.481	1605.95
419.689	1722.68
419.897	1771.83
420.105	1802.55
420.313	1802.55
420.521	1915.19
420.729	1933.62
420.937	2119.99
421.145	2158.9
421.353	2158.9
421.561	2322.74
421.769	2390.32
421.977	2545.97
422.185	2466.1
422.393	2511.15
422.601	2804.01
422.809	2699.56
423.017	2758.96
423.224	2887.98
423.432	3019.05
423.64	2941.22
423.848	3221.8
424.056	3053.86
424.263	3348.77
424.471	3422.5
424.679	3404.07
424.887	3750.17
425.094	3764.51
425.302	3883.29
425.51	3965.21
425.718	4176.15
425.925	4204.82
426.133	4262.16
426.341	4466.96
426.548	4710.67
426.756	4714.77
426.964	4737.29
427.171	4958.47
427.379	5091.59
427.586	5298.44
427.794	5214.47
428.001	5447.94
428.209	5933.31
428.417	5638.4
428.624	6215.93
428.832	6242.55
429.039	6119.67
429.247	6134.01
429.454	6693.1
429.662	7311.59
429.869	6619.38
430.076	7135.46
430.284	7096.55
430.491	7373.03
430.699	7874.78
430.906	7608.55
431.114	7946.46
431.321	8306.9
431.528	8128.73
431.736	8687.82
431.943	9410.76
432.15	8888.53
432.358	8992.97
432.565	9377.99
432.772	9453.77
432.979	9916.61
433.187	10139.83
433.394	10117.31
433.601	10772.66
433.808	10801.33
434.016	10809.52
434.223	11200.68
434.43	11913.38
434.637	11636.9
434.844	12431.51
435.052	12626.07
435.259	12716.18
435.466	12603.54
435.673	12640.4
435.88	13496.46
436.087	14143.61
436.294	13895.81
436.501	13760.64
436.708	13983.87
436.915	14411.9
437.122	15147.12
437.329	15007.86
437.537	15679.59
437.743	15831.14
437.95	15571.05
438.157	16353.37
438.364	17131.6
438.571	17129.55
438.778	17043.54
438.985	18436.16
439.192	17754.18
439.399	18468.92
439.606	17948.74
439.813	19241.01
440.02	20113.44
440.227	19701.8
440.433	19845.16
440.64	20498.46
440.847	20031.52
441.054	20588.57
441.261	21970.95
441.467	21948.42
441.674	22249.47
441.881	23005.17
442.088	22913.02
442.294	22827
442.501	23343.09
442.708	23726.06
442.914	24727.52
443.121	25825.23
443.328	25012.18
443.534	26900.41
443.741	25806.8
443.948	25472.98
444.154	27817.9
444.361	27254.71
444.568	27463.6
444.774	27776.94
444.981	27742.13
445.187	28667.81
445.394	29921.16
445.6	29431.7
445.807	32315.24
446.013	31020.92
446.22	30945.15
446.426	32442.21
446.633	32608.1
446.839	33501.01
447.046	32307.05
447.252	34297.67
447.459	34195.28
447.665	34002.77
447.871	35647.29
448.078	37035.81
448.284	35174.2
448.491	36138.8
448.697	37494.55
448.903	37961.49
449.11	38172.43
449.316	37533.46
449.522	38287.12
449.728	39223.04
449.935	39294.72
450.141	39788.28
450.347	40232.69
450.553	38983.43
450.76	39433.98
450.966	40826.6
451.172	40177.39
451.378	41051.87
451.584	40486.64
451.791	41588.44
451.997	41285.34
452.203	42022.61
452.409	41445.08
452.615	41557.72
452.821	39925.49
453.027	39675.64
453.233	41524.96
453.44	39663.35
453.646	40126.19
453.852	40707.82
454.058	40965.86
454.264	39624.44
454.47	40429.29
454.676	39599.87
454.882	40568.55
455.088	37320.48
455.294	37879.57
455.5	38344.46
455.705	38422.28
455.911	37269.28
456.117	36392.75
456.323	35776.31
456.529	33703.76
456.735	35411.77
456.941	34789.19
457.147	34074.45
457.352	33056.6
457.558	32388.97
457.764	32608.1
457.97	31797.1
458.176	30932.86
458.381	31459.19
458.587	29607.83
458.793	29636.5
458.999	27944.87
459.204	30435.2
459.41	29421.46
459.616	27545.52
459.821	27629.49
460.027	27557.81
460.233	26611.65
460.438	25454.54
460.644	25427.92
460.85	24690.65
461.055	23861.23
461.261	24000.49
461.466	22200.32
461.672	21612.56
461.878	23564.27
462.083	21649.42
462.289	21192.72
462.494	21190.67
462.7	19925.03
462.905	19515.44
463.111	20221.98
463.316	20547.61
463.522	20160.55
463.727	19843.11
463.932	20178.98
464.138	19943.46
464.343	19714.09
464.549	19154.99
464.754	20072.48
464.959	19525.68
465.165	19671.08
465.37	19005.49
465.575	18212.93
465.781	19050.55
465.986	19159.09
466.191	18358.33
466.397	18010.18
466.602	17193.04
466.807	18044.99
467.012	17840.2
467.218	17664.07
467.423	17494.09
467.628	17559.63
467.833	18194.5
468.038	17719.37
468.244	17246.29
468.449	18012.23
468.654	17459.27
468.859	17004.63
469.064	17043.54
469.269	16369.76
469.474	16519.26
469.679	16930.9
469.885	16289.88
470.09	16539.74
470.295	16322.65
470.5	15890.53
470.705	16154.72
470.91	15779.94
471.115	15554.66
471.32	15734.89
471.525	15642.73
471.73	15437.93
471.935	15657.06
472.139	14665.85
472.344	14858.35
472.549	14796.92
472.754	14604.41
472.959	14379.13
473.164	14018.69
473.369	14094.46
473.574	14561.4
473.778	14037.12
473.983	14096.51
474.188	14172.29
474.393	13271.18
474.598	13506.7
474.802	13502.6
475.007	13240.46
475.212	13496.46
475.417	12773.52
475.621	12869.78
475.826	12869.78
476.031	12275.87
476.235	12454.04
476.44	12546.2
476.645	12400.79
476.849	12279.96
477.054	12226.71
477.259	12230.81
477.463	11755.68
477.668	11763.87
477.872	11722.91
478.077	11507.88
478.282	11391.14
478.486	11301.03
478.691	11172.01
478.895	11264.17
479.1	11116.72
479.304	11182.25
479.509	10592.44
479.713	11073.71
479.918	10795.18
480.122	10680.5
480.326	10750.13
480.531	10893.49
480.735	10733.75
480.94	10578.1
481.144	10961.07
481.348	10338.49
481.553	10574
481.757	10158.27
481.961	10606.77
482.166	10524.85
482.37	10451.13
482.574	10289.34
482.778	10135.74
482.983	10481.85
483.187	10455.22
483.391	10502.33
483.595	10354.87
483.8	10225.85
484.004	10332.34
484.208	10320.06
484.412	10168.51
484.616	10199.23
484.821	10481.85
485.025	10166.46
485.229	10266.81
485.433	10066.11
485.637	10551.48
485.841	10227.9
486.045	10123.45
486.249	10387.64
486.453	10119.35
486.657	10205.37
486.861	10399.93
487.065	10102.97
487.269	10221.75
487.473	10207.42
487.677	10307.77
487.881	10586.29
488.085	10334.39
488.289	10444.98
488.493	10299.58
488.697	10576.05
488.901	10412.21
489.105	10283.19
489.309	10313.91
489.512	10318.01
489.716	10580.15
489.92	10461.37
490.124	10283.19
490.328	10688.69
490.531	10549.43
490.735	10627.25
490.939	10557.62
491.143	10696.88
491.346	10576.05
491.55	10870.96
491.754	10762.42
491.958	10985.65
492.161	10930.35
492.365	11200.68
492.569	10633.4
492.772	10809.52
492.976	11159.72
493.18	11276.46
493.383	11133.1
493.587	11180.2
493.79	11292.84
493.994	11108.52
494.197	11421.86
494.401	11505.83
494.605	11387.05
494.808	11712.67
495.012	11518.12
495.215	11665.57
495.419	11774.11
495.622	12069.02
495.825	12003.49
496.029	12073.12
496.232	12413.08
496.436	12374.17
496.639	12583.06
496.843	12296.35
497.046	12808.34
497.249	12798.1
497.453	13090.96
497.656	13107.34
497.859	13033.61
498.063	13342.86
498.266	13691.01
498.469	13291.66
498.673	13576.33
498.876	13664.39
499.079	14035.07
499.282	13879.43
499.485	14174.33
499.689	14151.81
499.892	14479.48
500.095	14577.78
500.298	15059.06
500.501	14895.22
500.705	15396.97
500.908	15267.95
501.111	15755.36
501.314	15763.56
501.517	15917.15
501.72	16005.22
501.923	16091.23
502.126	16517.21
502.329	16705.62
502.532	16560.22
502.735	16703.57
502.938	17162.32
503.141	17129.55
503.344	17700.94
503.547	17578.06
503.75	17899.59
503.953	17832.01
504.156	18114.62
504.359	18217.02
504.562	18714.68
504.765	18774.07
504.968	18780.21
505.17	19144.75
505.373	19146.8
505.576	19714.09
505.779	19849.25
505.982	20013.09
506.185	20252.7
506.387	20314.14
506.59	20523.04
506.793	21078.04
506.996	20742.17
507.198	21762.06
507.401	21223.44
507.604	21600.27
507.807	22034.44
508.009	22118.4
508.212	22093.83
508.415	22564.86
508.617	22857.72
508.82	23070.71
509.022	23072.76
509.225	23506.93
509.428	23914.47
509.63	23687.15
509.833	23842.79
510.035	24725.47
510.238	24434.66
510.44	24895.45
510.643	25288.66
510.845	25343.95
511.048	25151.45
511.25	25997.26
511.453	26228.68
511.655	26884.03
511.858	26361.8
512.06	26712
512.262	27086.78
512.465	27418.55
512.667	27459.51
512.87	27883.44
513.072	28100.52
513.274	28467.11
513.477	28665.76
513.679	28964.76
513.881	29231
514.084	29579.15
514.286	29347.73
514.488	29775.76
514.69	30482.31
514.893	30766.98
515.095	30506.88
515.297	31068.03
515.499	31205.24
515.701	31649.65
515.904	32173.93
516.106	32120.68
516.308	32630.63
516.51	32880.48
516.712	32882.53
516.914	33466.2
517.116	33957.71
517.318	34115.4
517.52	34119.5
517.722	34484.04
517.925	34740.04
518.127	35403.58
518.329	35489.59
518.531	35335.99
518.733	36265.77
518.935	36362.03
519.136	36454.19
519.338	37074.72
519.54	37054.24
519.742	37644.05
519.944	37603.1
520.146	38170.38
520.348	38569.74
520.55	38557.45
520.752	38907.65
520.954	39583.48
521.155	39212.8
521.357	39567.1
521.559	40031.99
521.761	40535.79
521.963	40683.24
522.164	41228
522.366	41522.91
522.568	41293.54
522.77	41846.49
522.971	42458.83
523.173	42002.13
523.375	42338
523.576	42430.16
523.778	42389.2
523.98	43091.65
524.181	43845.3
524.383	43779.77
524.584	43792.06
524.786	43912.89
524.988	44005.05
525.189	44422.83
525.391	45080.23
525.592	45037.22
525.794	45405.86
525.995	45117.09
526.197	45528.73
526.398	45412
526.6	46276.24
526.801	45856.41
527.003	46423.7
527.204	46499.47
527.406	46573.2
527.607	46909.07
527.808	46843.53
528.01	46532.24
528.211	46913.16
528.412	47967.87
528.614	47681.15
528.815	47648.38
529.016	47949.43
529.218	47519.36
529.419	48332.4
529.62	48039.54
529.822	48039.54
530.023	48096.89
530.224	48445.04
530.425	48266.87
530.626	48404.08
530.828	47931
531.029	49325.67
531.23	48658.03
531.431	48506.48
531.632	48948.84
531.833	49079.91
532.035	48871.02
532.236	49401.44
532.437	49380.96
532.638	49178.21
532.839	49378.92
533.04	49290.85
533.241	48887.4
533.442	50370.13
533.643	49364.58
533.844	49118.82
534.045	49634.91
534.246	49299.05
534.447	49735.26
534.648	49573.47
534.849	49555.04
535.05	48952.94
535.251	49976.92
535.451	49354.34
535.652	49993.31
535.853	49643.1
536.054	49426.02
536.255	49518.18
536.456	49151.59
536.657	50142.81
536.857	49274.47
537.058	49436.26
537.259	49888.86
537.46	49788.51
537.66	49589.86
537.861	50157.14
538.062	49350.24
538.263	50124.38
538.463	49624.67
538.664	49940.06
538.865	49858.14
539.065	49821.28
539.266	49481.31
539.466	49895
539.667	49307.24
539.868	50146.9
540.068	49886.81
540.269	50083.42
540.469	50374.23
540.67	49446.5
540.87	49790.56
541.071	49686.11
541.271	49948.25
541.472	49624.67
541.672	49645.15
541.873	49596
542.073	49124.97
542.274	50122.33
542.474	49788.51
542.675	49452.64
542.875	49903.2
543.075	49886.81
543.276	49288.81
543.476	49657.44
543.676	49342.05
543.877	49743.45
544.077	49585.76
544.277	49471.07
544.478	49591.9
544.678	49747.55
544.878	49358.44
545.078	50138.71
545.279	49024.62
545.479	49700.45
545.679	49974.87
545.879	49462.88
546.079	49415.78
546.28	49651.3
546.48	49034.86
546.68	49796.7
546.88	49507.94
547.08	49870.43
547.28	49370.72
547.48	48643.7
547.68	49473.12
547.88	49159.78
548.081	49374.82
548.281	49346.15
548.481	49215.08
548.681	49536.61
548.881	49088.1
549.081	49409.64
549.28	48926.31
549.48	49475.17
549.68	48801.39
549.88	49477.22
550.08	48778.86
550.28	49094.25
550.48	48739.95
550.68	49434.21
550.88	48785
551.08	48842.35
551.279	49133.16
551.479	48608.88
551.679	48760.43
551.879	48610.93
552.079	49471.07
552.278	48813.68
552.478	48922.22
552.678	48969.32
552.878	49090.15
553.077	48928.36
553.277	48604.78
553.477	49116.78
553.676	48578.16
553.876	48948.84
554.076	48782.96
554.275	48580.21
554.475	48238.2
554.674	48703.09
554.874	48576.11
555.074	48387.7
555.273	48625.26
555.473	48936.55
555.672	48164.47
555.872	47765.12
556.071	48399.99
556.271	48877.16
556.47	48135.8
556.67	48072.31
556.869	47769.21
557.068	48133.75
557.268	47672.96
557.467	47758.97
557.667	47791.74
557.866	47527.55
558.065	47390.34
558.265	47720.06
558.464	47285.89
558.663	47597.18
558.863	46919.31
559.062	47670.91
559.261	47392.39
559.461	47404.67
559.66	46962.31
559.859	47464.07
560.058	46618.25
560.258	47023.75
560.457	46470.8
560.656	46771.85
560.855	46581.39
561.054	47019.66
561.253	46380.69
561.453	46775.95
561.652	46743.18
561.851	46790.28
562.05	45973.14
562.249	45803.16
562.448	46102.17
562.647	45733.53
562.846	45815.45
563.045	46175.89
563.244	45416.1
563.443	46163.6
563.642	45039.27
563.841	45385.38
564.04	45213.35
564.239	45741.72
564.438	44818.09
564.637	45446.82
564.836	45102.76
565.035	45106.85
565.234	44801.71
565.432	44844.71
565.631	44402.35
565.83	44496.56
566.029	44476.08
566.228	44332.72
566.427	44007.09
566.625	44017.33
566.824	43673.27
567.023	44322.48
567.222	43460.29
567.42	43923.13
567.619	43368.13
567.818	43452.09
568.016	43355.84
568.215	43468.48
568.414	42970.82
568.612	43579.07
568.811	42989.25
569.01	43103.94
569.208	42225.36
569.407	43384.51
569.605	42571.47
569.804	42843.85
570.002	42518.22
570.201	42456.78
570.4	42245.84
570.598	42110.67
570.797	41928.41
570.995	41895.64
571.193	41719.51
571.392	42153.68
571.59	41283.3
571.789	41314.01
571.987	41271.01
572.186	41287.39
572.384	40990.44
572.582	41639.64
572.781	41195.23
572.979	40586.99
573.177	40892.13
573.376	40779.5
573.574	40341.23
573.772	40460.01
573.971	40283.89
574.169	39743.22
574.367	39950.07
574.565	40400.62
574.763	39659.26
574.962	39681.78
575.16	39474.94
575.358	39843.57
575.556	39202.56
575.754	39796.47
575.952	38725.38
576.151	39380.73
576.349	38704.9
576.547	38786.82
576.745	38786.82
576.943	38680.33
577.141	38661.9
577.339	38670.09
577.537	38424.33
577.735	38010.64
577.933	38164.24
578.131	38336.27
578.329	37902.1
578.527	38000.4
578.725	37926.67
578.923	37680.92
579.121	37719.83
579.319	37621.53
579.516	37492.51
579.714	37697.3
579.912	37426.97
580.11	37132.06
580.308	37250.84
580.506	37091.1
580.704	36738.85
580.901	36788
581.099	36468.52
581.297	36378.41
581.495	36419.37
581.692	36749.09
581.89	36218.67
582.088	36589.35
582.285	36151.09
582.483	36136.75
582.681	36149.04
582.878	35950.38
583.076	35528.5
583.274	35919.67
583.471	35606.33
583.669	35649.33
583.866	35116.86
584.064	35493.69
584.262	35075.9
584.459	35215.16
584.657	34838.34
584.854	35282.75
585.052	34002.77
585.249	34907.97
585.447	34961.22
585.644	34498.37
585.841	34193.23
586.039	34658.12
586.236	33824.59
586.434	33734.48
586.631	33396.57
586.828	33818.45
587.026	33951.57
587.223	33478.49
587.42	33234.78
587.618	33544.02
587.815	33328.98
588.012	33404.76
588.21	33150.81
588.407	33496.92
588.604	33283.93
588.801	32997.21
588.999	32702.31
589.196	32792.42
589.393	32702.31
589.59	32630.63
589.787	32552.8
589.984	32405.35
590.182	31819.63
590.379	32225.13
590.576	32268.14
590.773	32061.29
590.97	31827.82
591.167	32051.05
591.364	31256.44
591.561	31776.62
591.758	31500.15
591.955	31184.76
592.152	31395.7
592.349	30836.61
592.546	31094.65
592.743	31119.23
592.94	30818.18
593.137	30777.22
593.334	31108.99
593.531	30496.64
593.727	30615.43
593.924	30545.8
594.121	30091.15
594.318	30611.33
594.515	30132.11
594.712	30650.24
594.908	30039.95
595.105	30564.23
595.302	30111.63
595.499	29763.47
595.696	29611.92
595.892	29577.11
596.089	29792.14
596.286	29740.94
596.482	29568.91
596.679	29390.74
596.876	29419.41
597.072	28952.48
597.269	29054.87
597.466	29095.83
597.662	28739.49
597.859	28927.9
598.055	28899.23
598.252	28731.29
598.448	28413.86
598.645	28508.07
598.841	28352.42
599.038	28088.23
599.234	28207.01
599.431	28389.28
599.627	27920.3
599.824	28000.17
600.02	27778.99
600.217	27981.74
600.413	27760.56
600.609	27695.02
600.806	27477.94
601.002	27273.14
601.198	27230.13
601.395	27133.88
601.591	27316.15
601.787	27035.58
601.984	26998.71
602.18	27447.22
602.376	26814.4
602.572	26542.02
602.769	26996.67
602.965	26331.08
603.161	26695.61
603.357	26388.42
603.553	26335.17
603.75	26363.84
603.946	26226.63
604.142	26324.93
604.338	26066.89
604.534	26118.09
604.73	25616.33
604.926	25814.99
605.122	25905.1
605.318	25401.3
605.514	25518.03
605.71	25434.07
605.906	25532.37
606.102	25278.42
606.298	25243.6
606.494	25216.98
606.69	25356.24
606.886	25159.64
607.082	24809.43
607.278	25114.58
607.474	24614.88
607.67	25003.99
607.866	24602.59
608.062	24897.5
608.257	24539.1
608.453	24635.36
608.649	24418.27
608.845	24324.07
609.041	24428.51
609.236	24238.05
609.432	24352.74
609.628	24162.28
609.824	24162.28
610.019	23908.33
610.215	23941.1
610.411	24080.36
610.606	23717.87
610.802	24051.69
610.998	23975.91
611.193	23994.34
611.389	23379.95
611.584	23779.31
611.78	23422.96
611.976	23867.37
612.171	23740.4
612.367	23490.54
612.562	23351.28
612.758	23099.38
612.953	23154.68
613.149	23662.57
613.344	23015.41
613.539	23681
613.735	22839.29
613.93	23269.36
614.126	22720.51
614.321	23195.64
614.517	23183.35
614.712	22921.21
614.907	22874.1
615.103	23015.41
615.298	22804.47
615.493	22790.14
615.688	22573.05
615.884	23154.68
616.079	22317.06
616.274	22503.42
616.47	22335.49
616.665	22657.02
616.86	22233.09
617.055	22063.11
617.25	21923.85
617.445	22499.33
617.641	21616.65
617.836	22157.32
618.031	21604.36
618.226	22003.72
618.421	21784.58
618.616	22220.8
618.811	21745.67
619.006	21944.33
619.201	21489.68
619.396	21690.38
619.591	21157.91
619.786	21479.44
619.981	20928.53
620.176	21278.74
620.371	21032.98
620.566	21047.32
620.761	20951.06
620.956	21014.55
621.151	20500.51
621.346	20551.71
621.541	20541.47
621.735	20699.16
621.93	20226.08
622.125	19996.71
622.32	19990.56
622.515	20250.66
622.709	20023.33
622.904	19597.35
623.099	19793.96
623.294	20011.04
623.488	19544.11
623.683	19636.27
623.878	19331.12
624.072	19367.98
624.267	19169.33
624.462	18782.26
624.656	18667.58
624.851	18878.52
625.046	18792.5
625.24	18681.91
625.435	18528.31
625.629	18335.81
625.824	18571.32
626.018	18393.15
626.213	18155.58
626.407	18188.35
626.602	17844.29
626.796	17954.88
626.991	17956.93
627.185	17733.7
627.38	18028.61
627.574	17809.48
627.768	17573.96
627.963	17262.67
628.157	17334.35
628.352	17561.67
628.546	17061.97
628.74	17250.38
628.935	16789.59
629.129	16918.61
629.323	16468.06
629.517	16660.57
629.712	16410.71
629.906	16283.74
630.1	16250.97
630.294	16347.23
630.489	16269.41
630.683	16142.43
630.877	15886.43
631.071	15960.16
631.265	15941.73
631.459	15698.02
631.653	15650.92
631.848	15745.13
632.042	15575.14
632.236	15530.09
632.43	15442.03
632.624	15435.88
632.818	15081.58
633.012	15067.25
633.206	15044.72
633.4	14968.94
633.594	14813.3
633.788	14663.8
633.982	15171.69
634.176	14739.57
634.369	14448.76
634.563	14565.5
634.757	14395.51
634.951	14368.89
635.145	14327.93
635.339	14459
635.533	14278.78
635.726	14166.14
635.92	13824.13
636.114	14119.04
636.308	13834.37
636.501	13770.88
636.695	13807.75
636.889	13783.17
637.083	13488.26
637.276	13297.8
637.47	13545.61
637.664	13295.75
637.857	13551.75
638.051	13115.53
638.244	12966.03
638.438	13121.68
638.632	12970.13
638.825	13054.09
639.019	12839.06
639.212	12853.39
639.406	12873.87
639.599	12710.04
639.793	12654.74
639.986	12546.2
640.18	12365.98
640.373	12427.42
640.567	12458.14
640.76	12482.71
640.954	12159.13
641.147	11964.57
641.34	11950.24
641.534	12101.79
641.727	11978.91
641.92	11923.62
642.114	11841.7
642.307	11647.14
642.5	11628.71
642.694	11434.15
642.887	11468.97
643.08	11364.52
643.273	11348.14
643.467	11301.03
643.66	11014.32
643.853	11145.39
644.046	11038.89
644.239	10956.97
644.432	10952.88
644.626	10911.92
644.819	11145.39
645.012	10711.22
645.205	11026.61
645.398	10842.29
645.591	10576.05
645.784	10846.38
645.977	10492.09
646.17	10467.51
646.363	10481.85
646.556	10262.71
646.749	10408.12
646.942	10406.07
647.135	10311.86
647.328	10068.16
647.521	10010.81
647.714	10053.82
647.907	9986.24
648.099	10119.35
648.292	9787.58
648.485	9679.04
648.678	9941.18
648.871	9541.83
649.064	9736.38
649.256	9846.98
649.449	9597.12
649.642	9769.15
649.835	9519.3
650.027	9437.38
650.22	9396.42
650.413	9199.82
650.605	9275.59
650.798	9410.76
650.991	8978.64
651.183	9265.35
651.376	9083.08
651.568	9113.8
651.761	9109.71
651.954	8949.96
652.146	8982.73
652.339	8841.42
652.531	8812.75
652.724	8612.05
652.916	8544.47
653.109	8634.58
653.301	8630.48
653.494	8579.28
653.686	8407.25
653.879	8519.89
654.071	8241.37
654.263	8497.36
654.456	8370.39
654.648	8450.26
654.84	8128.73
655.033	8204.5
655.225	8085.72
655.417	8093.91
655.61	8243.42
655.802	8069.34
655.994	7909.6
656.186	7936.22
656.379	8042.71
656.571	7891.16
656.763	7839.97
656.955	7772.38
657.148	7885.02
657.34	7835.87
657.532	7563.49
657.724	7852.25
657.916	7686.37
658.108	7604.45
658.3	7430.37
658.492	7737.57
658.684	7391.46
658.876	7360.74
659.068	7373.03
659.26	7508.19
659.452	7309.54
659.644	7422.18
659.836	7209.19
660.028	7268.58
660.22	7182.57
660.412	7012.59
660.604	7074.03
660.796	6899.95
660.988	7168.23
661.18	6975.72
661.372	7006.44
661.563	7170.28
661.755	6936.81
661.947	6926.57
662.139	6809.84
662.331	6807.79
662.522	6588.66
662.714	6555.89
662.906	6506.74
663.097	6719.73
663.289	6600.94
663.481	6510.83
663.673	6648.05
663.864	6484.21
664.056	6328.56
664.247	6437.11
664.439	6359.28
664.631	6424.82
664.822	6291.7
665.014	6344.95
665.205	6306.04
665.397	6287.61
665.588	6105.34
665.78	6115.58
665.971	6320.37
666.163	6101.24
666.354	6025.47
666.546	5931.26
666.737	6072.57
666.929	6078.71
667.12	5998.84
667.311	5976.31
667.503	5882.11
667.694	5933.31
667.885	6025.47
668.077	5888.25
668.268	5904.64
668.459	5867.77
668.651	5796.09
668.842	5822.72
669.033	5800.19
669.224	5703.93
669.416	5800.19
669.607	5658.88
669.798	5730.56
669.989	5755.13
670.18	5583.1
670.371	5533.95
670.563	5644.54
670.754	5646.59
670.945	5421.31
671.136	5742.85
671.327	5470.47
671.518	5552.38
671.709	5482.75
671.9	5484.8
672.091	5490.95
672.282	5335.3
672.473	5349.64
672.664	5425.41
672.855	5372.16
673.046	5302.53
673.237	5382.4
673.428	5447.94
673.619	5200.13
673.809	5273.86
674	5355.78
674.191	5206.28
674.382	5153.03
674.573	5280
674.764	5103.88
674.954	5214.47
675.145	5220.61
675.336	5224.71
675.527	5263.62
675.717	5153.03
675.908	5038.34
676.099	5052.68
676.289	4968.71
676.48	5032.2
676.671	4985.1
676.861	5177.61
677.052	5011.72
677.243	5046.54
677.433	4903.18
677.624	4909.32
677.814	4995.34
678.005	4917.51
678.195	4954.38
678.386	4784.4
678.576	4968.71
678.767	4958.47
678.957	4880.65
679.148	5026.06
679.338	4921.61
679.529	4929.8
679.719	4919.56
679.909	4952.33
680.1	4874.51
680.29	4897.03
680.481	4845.84
680.671	4862.22
680.861	4815.12
681.052	4919.56
681.242	4966.67
681.432	4806.92
681.622	4694.29
681.813	4788.49
682.003	4817.16
682.193	4765.96
682.383	4866.32
682.573	4788.49
682.764	4727.05
682.954	4765.96
683.144	4710.67
683.334	4804.88
683.524	4802.83
683.714	4722.96
683.904	4761.87
684.094	4659.47
684.284	4778.25
684.474	4716.81
684.664	4626.7
684.854	4636.94
685.044	4688.14
685.234	4624.65
685.424	4626.7
685.614	4604.18
685.804	4790.54
685.994	4620.56
686.184	4587.79
686.374	4538.64
686.564	4507.92
686.753	4575.5
686.943	4403.47
687.133	4600.08
687.323	4411.67
687.513	4444.43
687.702	4411.67
687.892	4362.51
688.082	4362.51
688.272	4360.47
688.461	4221.2
688.651	4489.49
688.841	4337.94
689.03	4477.2
689.22	4346.13
689.41	4315.41
689.599	4249.88
689.789	4395.28
689.979	4276.5
690.168	4303.12
690.358	4112.66
690.547	4213.01
690.737	4219.16
690.926	4180.25
691.116	4098.33
691.305	4176.15
691.495	4024.6
691.684	4051.22
691.874	4192.53
692.063	4018.46
692.252	4075.8
692.442	3961.11
692.631	3887.39
692.82	3993.88
693.01	3805.47
693.199	3961.11
693.388	3887.39
693.578	3932.44
693.767	4014.36
693.956	3928.35
694.146	3920.15
694.335	3846.43
694.524	3809.56
694.713	3952.92
694.902	3903.77
695.092	3815.71
695.281	3819.8
695.47	3942.68
695.659	3782.94
695.848	3897.63
696.037	3797.28
696.226	3887.39
696.415	3780.89
696.604	3860.76
696.793	3772.7
696.982	3756.32
697.171	3899.67
697.36	3678.49
697.549	3666.21
697.738	3676.45
697.927	3711.26
698.116	3760.41
698.305	3664.16
698.494	3705.12
698.683	3725.6
698.872	3707.16
699.061	3690.78
699.25	3703.07
699.438	3795.23
699.627	3711.26
699.816	3684.64
700.005	3705.12
700.193	3617.05
700.382	3703.07
700.571	3561.76
700.76	3721.5
700.948	3834.14
701.137	3678.49
701.326	3617.05
701.514	3592.48
701.703	3576.09
701.892	3555.62
702.08	3715.36
702.269	3608.86
702.457	3584.29
702.646	3600.67
702.834	3508.51
703.023	3694.88
703.212	3555.62
703.4	3698.97
703.589	3533.09
703.777	3639.58
703.965	3619.1
704.154	3621.15
704.342	3488.03
704.531	3557.66
704.719	3608.86
704.907	3643.68
705.096	3459.36
705.284	3582.24
705.472	3551.52
705.661	3672.35
705.849	3459.36
706.037	3574.05
706.226	3522.85
706.414	3660.06
706.602	3612.96
706.79	3559.71
706.979	3500.32
707.167	3483.94
707.355	3565.85
707.543	3535.14
707.731	3655.97
707.919	3576.09
708.107	3612.96
708.296	3565.85
708.484	3590.43
708.672	3563.81
708.86	3512.61
709.048	3518.75
709.236	3615.01
709.424	3651.87
709.612	3512.61
709.8	3557.66
709.988	3514.66
710.176	3451.17
710.364	3438.88
710.551	3680.54
710.739	3574.05
710.927	3584.29
711.115	3535.14
711.303	3555.62
711.491	3610.91
711.679	3469.6
711.866	3506.46
712.054	3653.92
712.242	3469.6
712.43	3703.07
712.617	3449.12
712.805	3526.94
712.993	3539.23
713.181	3447.07
713.368	3524.9
713.556	3606.81
713.744	3442.98
713.931	3623.2
714.119	3653.92
714.306	3645.73
714.494	3572
714.682	3483.94
714.869	3528.99
715.057	3682.59
715.244	3473.7
715.432	3549.47
715.619	3449.12
715.807	3576.09
715.994	3504.42
716.182	3629.34
716.369	3686.69
716.556	3569.95
716.744	3481.89
716.931	3547.42
717.119	3539.23
717.306	3612.96
717.493	3598.62
717.681	3637.53
717.868	3461.41
718.055	3606.81
718.242	3451.17
718.43	3479.84
718.617	3445.02
718.804	3584.29
718.991	3356.96
719.179	3572
719.366	3379.49
719.553	3596.57
719.74	3473.7
719.927	3547.42
720.114	3473.7
720.301	3504.42
720.488	3473.7
720.676	3606.81
720.863	3592.48
721.05	3539.23
721.237	3438.88
721.424	3598.62
721.611	3549.47
721.798	3440.93
721.985	3348.77
722.172	3496.22
722.358	3469.6
722.545	3475.74
722.732	3436.83
722.919	3510.56
723.106	3451.17
723.293	3438.88
723.48	3404.07
723.667	3447.07
723.853	3416.35
724.04	3434.78
724.227	3510.56
724.414	3406.11
724.6	3369.25
724.787	3485.98
724.974	3252.52
725.161	3309.86
725.347	3399.97
725.534	3412.26
725.72	3406.11
725.907	3463.46
726.094	3461.41
726.28	3531.04
726.467	3375.39
726.653	3391.78
726.84	3422.5
727.027	3467.55
727.213	3299.62
727.4	3410.21
727.586	3354.91
727.773	3356.96
727.959	3367.2
728.145	3244.32
728.332	3361.06
728.518	3399.97
728.705	3418.4
728.891	3316
729.077	3277.09
729.264	3338.53
729.45	3395.87
729.636	3393.83
729.823	3297.57
730.009	3342.63
730.195	3297.57
730.382	3336.48
730.568	3318.05
730.754	3268.9
730.94	3354.91
731.126	3473.7
731.313	3361.06
731.499	3359.01
731.685	3303.71
731.871	3281.19
732.057	3445.02
732.243	3385.63
732.429	3328.29
732.615	3172.64
732.801	3313.95
732.987	3227.94
733.173	3240.23
733.359	3248.42
733.545	3174.69
733.731	3377.44
733.917	3193.12
734.103	3330.34
734.289	3221.8
734.475	3129.64
734.661	3424.55
734.847	3289.38
735.033	3332.39
735.219	3340.58
735.404	3324.19
735.59	3285.28
735.776	3166.5
735.962	3186.98
736.148	3156.26
736.333	3186.98
736.519	3076.39
736.705	3289.38
736.89	2982.18
737.076	3182.88
737.262	3041.57
737.447	3049.77
737.633	2908.46
737.819	3225.89
738.004	3131.69
738.19	3166.5
738.375	3019.05
738.561	3094.82
738.747	3055.91
738.932	3082.53
739.118	3094.82
739.303	3105.06
739.489	3105.06
739.674	2898.22
739.859	2947.37
740.045	3035.43
740.23	2967.85
740.416	3103.01
740.601	3006.76
740.786	3053.86
740.972	2943.27
741.157	2930.98
741.342	2857.26
741.528	2922.79
741.713	2918.7
741.898	2904.36
742.084	2959.66
742.269	2883.88
742.454	2941.22
742.639	2926.89
742.824	2849.07
743.01	2795.82
743.195	2863.4
743.38	2799.91
743.565	2836.78
743.75	2797.87
743.935	2785.58
744.12	2804.01
744.305	2840.87
744.49	2662.7
744.675	2672.94
744.86	2707.76
745.045	2699.56
745.23	2527.53
745.415	2621.74
745.6	2642.22
745.785	2611.5
745.97	2609.45
746.155	2533.68
746.34	2554.16
746.525	2496.82
746.71	2666.8
746.895	2621.74
747.079	2672.94
747.264	2496.82
747.449	2550.06
747.634	2421.04
747.819	2457.9
748.003	2330.93
748.188	2378.03
748.373	2390.32
748.557	2455.86
748.742	2318.64
748.927	2400.56
749.111	2412.85
749.296	2275.63
749.481	2427.18
749.665	2341.17
749.85	2246.96
750.034	2312.5
750.219	2238.77
750.404	2253.11
750.588	2175.28
750.773	2265.39
750.957	2150.71
751.141	2257.2
751.326	2201.91
751.51	2076.98
751.695	2189.62
751.879	2208.05
752.064	2171.19
752.248	2150.71
752.432	2130.23
752.617	2087.22
752.801	2033.97
752.985	2105.65
753.17	2036.02
753.354	2011.45
753.538	2033.97
753.722	2001.21
753.907	2060.6
754.091	1947.96
754.275	1913.14
754.459	1904.95
754.643	1919.29
754.828	1925.43
755.012	1874.23
755.196	1773.88
755.38	1945.91
755.564	1765.69
755.748	1829.18
755.932	1894.71
756.116	1769.79
756.3	1728.83
756.484	1792.31
756.668	1696.06
756.852	1808.7
757.036	1689.92
757.22	1601.85
757.404	1728.83
757.588	1640.76
757.772	1765.69
757.956	1655.1
758.14	1583.42
758.323	1661.24
758.507	1634.62
758.691	1646.91
758.875	1591.61
759.059	1620.28
759.242	1605.95
759.426	1657.15
759.61	1573.18
759.794	1526.08
759.977	1642.81
760.161	1556.8
760.345	1511.74
760.528	1585.47
760.712	1530.17
760.895	1554.75
761.079	1438.02
761.263	1538.37
761.446	1521.98
761.63	1554.75
761.813	1546.56
761.997	1425.73
762.18	1438.02
762.364	1458.5
762.547	1325.38
762.731	1292.61
762.914	1403.2
763.098	1343.81
763.281	1487.17
763.464	1352
763.648	1442.11
763.831	1390.91
764.015	1292.61
764.198	1470.78
764.381	1409.34
764.564	1360.19
764.748	1329.47
764.931	1343.81
765.114	1343.81
765.297	1349.95
765.481	1356.1
765.664	1337.66
765.847	1325.38
766.03	1374.53
766.213	1282.37
766.397	1360.19
766.58	1286.47
766.763	1237.31
766.946	1259.84
767.129	1319.23
767.312	1190.21
767.495	1241.41
767.678	1225.03
767.861	1268.03
768.044	1233.22
768.227	1151.3
768.41	1255.75
768.593	1237.31
768.776	1161.54
768.959	1220.93
769.142	1245.51
769.324	1200.45
769.507	1167.68
769.69	1177.92
769.873	1186.12
770.056	1272.13
770.239	1141.06
770.421	1270.08
770.604	1155.4
770.787	1118.53
770.97	1053
771.152	1083.72
771.335	1227.07
771.518	1157.44
771.7	1100.1
771.883	1167.68
772.066	1073.48
772.248	1057.09
772.431	1081.67
772.613	1147.2
772.796	969.03
772.978	1077.57
773.161	1145.16
773.343	1096
773.526	1012.04
773.708	1046.85
773.891	993.61
774.073	1044.81
774.256	1100.1
774.438	1036.61
774.621	952.65
774.803	897.35
774.985	962.89
775.168	1003.85
775.35	930.12
775.532	983.37
775.715	964.93
775.897	966.98
776.079	940.36
776.261	932.17
776.444	870.73
776.626	909.64
776.808	909.64
776.99	895.3
777.173	964.93
777.355	919.88
777.537	862.54
777.719	907.59
777.901	854.34
778.083	885.06
778.265	887.11
778.447	840.01
778.629	837.96
778.811	885.06
778.993	727.37
779.175	772.43
779.357	909.64
779.539	782.67
779.721	786.76
779.903	786.76
780.085	829.77
780.267	837.96
780.449	700.75
780.631	780.62
780.812	780.62
780.994	774.47
781.176	665.93
781.358	749.9
781.54	676.17
781.721	731.47
781.903	749.9
782.085	645.45
782.267	713.03
782.448	737.61
782.63	702.79
782.812	659.79
782.993	700.75
783.175	725.32
783.357	629.07
783.538	647.5
783.72	639.31
783.901	620.88
784.083	667.98
784.264	692.55
784.446	641.36
784.627	627.02
784.809	670.03
784.99	618.83
785.172	629.07
785.353	651.6
785.535	608.59
785.716	670.03
785.897	569.68
786.079	635.21
786.26	618.83
786.441	577.87
786.623	577.87
786.804	606.54
786.985	498
787.167	598.35
787.348	563.53
787.529	532.81
787.71	530.77
787.891	489.81
788.073	577.87
788.254	584.01
788.435	463.18
788.616	524.62
788.797	563.53
788.978	536.91
789.159	561.48
789.34	469.33
789.522	512.33
789.703	495.95
789.884	487.76
790.065	469.33
790.246	520.53
790.427	504.14
790.607	590.16
790.788	504.14
790.969	397.65
791.15	426.32
791.331	450.89
791.512	389.46
791.693	434.51
791.874	450.89
792.054	514.38
792.235	483.66
792.416	457.04
792.597	387.41
792.778	454.99
792.958	491.85
793.139	389.46
793.32	434.51
793.5	420.17
793.681	452.94
793.862	407.89
794.042	454.99
794.223	403.79
794.404	395.6
794.584	426.32
794.765	362.83
794.945	454.99
795.126	493.9
795.306	461.13
795.487	426.32
795.667	422.22
795.848	401.74
796.028	362.83
796.209	450.89
796.389	434.51
796.57	371.02
796.75	434.51
796.93	442.7
797.111	356.69
797.291	342.35
797.471	383.31
797.652	336.21
797.832	383.31
798.012	387.41
798.192	362.83
798.373	373.07
798.553	391.5
798.733	397.65
798.913	385.36
799.093	352.59
799.274	385.36
799.454	393.55
799.634	446.8
799.814	401.74
799.994	373.07
800.174	371.02
800.354	397.65
800.534	381.26
800.714	399.7
800.894	305.49
801.074	338.26
801.254	334.16
801.434	368.98
801.614	328.02
801.794	352.59
801.974	799.05
802.154	338.26
802.334	342.35
802.514	325.97
802.693	332.11
802.873	338.26
803.053	270.67
803.233	323.92
803.413	352.59
803.592	305.49
803.772	295.25
803.952	266.58
804.131	272.72
804.311	377.17
804.491	321.87
804.67	213.33
804.85	319.82
805.03	344.4
805.209	348.5
805.389	258.39
805.568	244.05
805.748	244.05
805.928	307.54
806.107	287.06
806.287	276.82
806.466	272.72
806.646	299.34
806.825	237.91
807.004	309.58
807.184	225.62
807.363	289.1
807.543	274.77
807.722	250.19
807.901	295.25
808.081	313.68
808.26	229.71
808.439	299.34
808.619	213.33
808.798	344.4
808.977	307.54
809.156	231.76
809.336	250.19
809.515	371.02
809.694	149.84
809.873	223.57
810.052	344.4
810.231	278.87
810.411	354.64
810.59	315.73
810.769	250.19
810.948	254.29
811.127	209.23
811.306	178.51
811.485	242
811.664	309.58
811.843	260.43
812.022	313.68
812.201	280.91
812.38	276.82
812.559	266.58
812.737	246.1
812.916	198.99
813.095	172.37
813.274	246.1
813.453	303.44
813.632	184.66
813.811	262.48
813.989	217.43
814.168	233.81
814.347	184.66
814.526	190.8
814.704	264.53
814.883	217.43
815.062	223.57
815.24	182.61
815.419	207.19
815.598	198.99
815.776	246.1
815.955	266.58
816.133	201.04
816.312	231.76
816.49	170.32
816.669	155.99
816.847	162.13
817.026	229.71
817.204	231.76
817.383	215.38
817.561	225.62
817.74	207.19
817.918	266.58
818.097	231.76
818.275	176.47
818.453	203.09
818.632	119.12
818.81	170.32
818.988	190.8
819.167	201.04
819.345	190.8
819.523	141.65
819.701	215.38
819.879	227.67
820.058	227.67
820.236	190.8
820.414	217.43
820.592	207.19
820.77	180.56
820.948	270.67
821.127	115.03
821.305	244.05
821.483	201.04
821.661	190.8
821.839	237.91
822.017	158.03
822.195	170.32
822.373	209.23
822.551	125.27
822.729	194.9
822.907	174.42
823.085	196.95
823.262	155.99
823.44	164.18
823.618	143.7
823.796	147.8
823.974	59.73
824.152	147.8
824.329	213.33
824.507	182.61
824.685	182.61
824.863	223.57
825.04	162.13
825.218	186.71
825.396	139.6
825.574	158.03
825.751	221.52
825.929	207.19
826.107	162.13
826.284	145.75
826.462	110.93
826.639	149.84
826.817	133.46
826.994	90.45
827.172	139.6
827.349	127.32
827.527	151.89
827.704	186.71
827.882	182.61
828.059	180.56
828.237	176.47
828.414	201.04
828.591	141.65
828.769	223.57
828.946	76.12
829.124	123.22
829.301	151.89
829.478	196.95
829.655	147.8
829.833	139.6
830.01	135.51
830.187	190.8
830.364	57.68
830.542	102.74
830.719	198.99
830.896	192.85
831.073	108.88
831.25	158.03
831.427	158.03
831.604	90.45
831.782	57.68
831.959	190.8
832.136	166.23
832.313	168.27
832.49	149.84
832.667	139.6
832.844	102.74
833.021	139.6
833.198	143.7
833.374	133.46
833.551	213.33
833.728	182.61
833.905	133.46
834.082	115.03
834.259	94.55
834.436	186.71
834.612	67.92
834.789	205.14
834.966	82.26
835.143	88.4
835.319	108.88
835.496	86.36
835.673	84.31
835.85	151.89
836.026	106.84
836.203	135.51
836.38	160.08
836.556	84.31
836.733	61.78
836.909	123.22
837.086	141.65
837.262	80.21
837.439	131.41
837.616	125.27
837.792	55.64
837.968	110.93
838.145	80.21
838.321	129.36
838.498	123.22
838.674	194.9
838.851	123.22
839.027	102.74
839.203	-3.75
839.38	158.03
839.556	72.02
839.732	115.03
839.909	106.84
840.085	119.12
840.261	86.36
840.437	61.78
840.614	90.45
840.79	72.02
840.966	121.17
841.142	129.36
841.318	121.17
841.494	121.17
841.671	104.79
841.847	125.27
842.023	18.77
842.199	61.78
842.375	82.26
842.551	80.21
842.727	78.16
842.903	153.94
843.079	94.55
843.255	151.89
843.431	147.8
843.607	100.69
843.783	47.44
843.959	12.63
844.134	149.84
844.31	135.51
844.486	100.69
844.662	61.78
844.838	112.98
845.013	121.17
845.189	110.93
845.365	78.16
845.541	92.5
845.716	12.63
845.892	168.27
846.068	53.59
846.244	35.16
846.419	115.03
846.595	29.01
846.77	12.63
846.946	84.31
847.122	117.08
847.297	86.36
847.473	78.16
847.648	57.68
847.824	125.27
847.999	108.88
848.175	129.36
848.35	98.64
848.526	155.99
848.701	96.6
848.876	39.25
849.052	115.03
849.227	151.89
849.403	65.88
849.578	92.5
849.753	45.4
849.929	117.08
850.104	35.16
850.279	172.37
850.454	104.79
850.63	82.26
850.805	57.68
850.98	110.93
851.155	74.07
851.33	108.88
851.505	53.59
851.681	80.21
851.856	4.44
852.031	49.49
852.206	133.46
852.381	76.12
852.556	141.65
852.731	106.84
852.906	84.31
853.081	65.88
853.256	86.36
853.431	131.41
853.606	94.55
853.781	84.31
853.956	31.06
854.131	98.64
854.305	-1.71
854.48	119.12
854.655	53.59
854.83	24.92
855.005	78.16
855.18	139.6
855.354	78.16
855.529	121.17
855.704	-11.95
855.879	127.32
856.053	20.82
856.228	61.78
856.403	49.49
856.577	67.92
856.752	14.68
856.926	43.35
857.101	35.16
857.276	33.11
857.45	86.36
857.625	121.17
857.799	35.16
857.974	84.31
858.148	14.68
858.323	117.08
858.497	14.68
858.672	59.73
858.846	41.3
859.02	121.17
859.195	55.64
859.369	69.97
859.543	53.59
859.718	117.08
859.892	10.58
860.066	53.59
860.241	110.93
860.415	10.58
860.589	24.92
860.763	117.08
860.938	94.55
861.112	47.44
861.286	69.97
861.46	90.45
861.634	67.92
861.808	72.02
861.982	29.01
862.157	69.97
862.331	-3.75
862.505	94.55
862.679	39.25
862.853	131.41
863.027	18.77
863.201	59.73
863.375	106.84
863.549	31.06
863.722	127.32
863.896	108.88
864.07	4.44
864.244	45.4
864.418	78.16
864.592	127.32
864.766	0.34
864.939	41.3
865.113	20.82
865.287	49.49
865.461	26.96
865.634	72.02
865.808	94.55
865.982	78.16
866.156	10.58
866.329	51.54
866.503	26.96
866.676	96.6
866.85	-18.09
867.024	82.26
867.197	90.45
867.371	94.55
867.544	51.54
867.718	-3.75
867.891	102.74
868.065	74.07
868.238	14.68
868.412	76.12
868.585	86.36
868.759	61.78
868.932	74.07
869.105	24.92
869.279	61.78
869.452	-13.99
869.625	43.35
869.799	115.03
869.972	51.54
870.145	8.53
870.319	67.92
870.492	57.68
870.665	100.69
870.838	49.49
871.011	-30.38
871.185	12.63
871.358	-9.9
871.531	57.68
871.704	-9.9
871.877	43.35
872.05	12.63
872.223	8.53
872.396	76.12
872.569	108.88
872.742	59.73
872.915	45.4
873.088	-38.57
873.261	82.26
873.434	72.02
873.607	37.2
873.78	106.84
873.953	-1.71
874.126	131.41
874.299	49.49
874.471	49.49
874.644	0.34
874.817	59.73
874.99	106.84
875.163	10.58
875.335	67.92
875.508	2.39
875.681	104.79
875.853	49.49
876.026	16.73
876.199	51.54
876.371	57.68
876.544	29.01
876.717	61.78
876.889	47.44
877.062	8.53
877.234	98.64
877.407	53.59
877.579	16.73
877.752	74.07
877.924	45.4
878.097	90.45
878.269	69.97
878.442	35.16
878.614	35.16
878.786	57.68
878.959	86.36
879.131	37.2
879.303	24.92
879.476	37.2
879.648	53.59
879.82	92.5
879.993	4.44
880.165	63.83
880.337	29.01
880.509	51.54
880.681	61.78
880.854	14.68
881.026	41.3
881.198	135.51
881.37	49.49
881.542	24.92
881.714	65.88
881.886	65.88
882.058	74.07
882.23	84.31
882.402	57.68
882.574	47.44
882.746	74.07
882.918	131.41
883.09	41.3
883.262	2.39
883.434	69.97
883.606	-3.75
883.778	35.16
883.95	18.77
884.122	84.31
884.293	6.49
884.465	12.63
884.637	72.02
884.809	6.49
884.98	24.92
885.152	78.16
885.324	57.68
885.496	41.3
885.667	69.97
885.839	69.97
886.011	59.73
886.182	26.96
886.354	61.78
886.525	115.03
886.697	-11.95
886.869	41.3
887.04	108.88
887.212	106.84
887.383	112.98
887.555	35.16
887.726	90.45
887.897	65.88
888.069	29.01
888.24	63.83
888.412	12.63
888.583	12.63
888.754	53.59
888.926	63.83
889.097	47.44
889.268	-28.33
889.44	-7.85
889.611	45.4
889.782	53.59
889.953	53.59
890.125	106.84
890.296	-11.95
890.467	8.53
890.638	-16.04
890.809	45.4
890.98	-30.38
891.151	53.59
891.323	117.08
891.494	112.98
891.665	26.96
891.836	82.26
892.007	51.54
892.178	125.27
892.349	76.12
892.52	-28.33
892.691	49.49
892.862	90.45
893.032	24.92
893.203	45.4
893.374	39.25
893.545	12.63
893.716	8.53
893.887	20.82
894.057	53.59
894.228	49.49
894.399	18.77
894.57	86.36
894.74	59.73
894.911	4.44
895.082	86.36
895.253	29.01
895.423	33.11
895.594	29.01
895.764	63.83
895.935	20.82
896.106	20.82
896.276	69.97
896.447	57.68
896.617	14.68
896.788	-30.38
896.958	10.58
897.129	-5.8
897.299	4.44
897.47	10.58
897.64	61.78
897.81	4.44
897.981	90.45
898.151	26.96
898.322	20.82
898.492	51.54
898.662	31.06
898.832	-7.85
899.003	-3.75
899.173	12.63
899.343	69.97
899.513	-20.14
