Data from USB4F104151__300__11-03-21-683.txt Node

Date: Wed Mar 12 11:03:21 EDT 2025
User: louis
Spectrometer: USB4F10415
Trigger mode: 4
Integration Time (sec): 2.000000E-2
Scans to average: 1
Electric dark correction enabled: true
Nonlinearity correction enabled: false
Boxcar width: 0
XAxis mode: Wavelengths
Number of Pixels in Spectrum: 3648
>>>>>Begin Spectral Data<<<<<
178.204	-55.81
178.424	-55.81
178.644	-55.81
178.864	-47.62
179.084	-90.62
179.304	-80.38
179.524	19.97
179.744	-8.7
179.964	62.98
180.184	13.82
180.404	-33.28
180.624	34.3
180.844	-4.61
181.064	15.87
181.283	-18.94
181.503	-86.53
181.723	85.5
181.943	52.74
182.163	128.51
182.383	3.58
182.602	103.93
182.822	3.58
183.042	22.02
183.262	7.68
183.482	3.58
183.701	-6.66
183.921	52.74
184.141	-31.23
184.361	19.97
184.58	48.64
184.8	-25.09
185.02	1.54
185.239	116.22
185.459	50.69
185.679	5.63
185.898	69.12
186.118	69.12
186.338	-41.47
186.557	91.65
186.777	-31.23
186.997	26.11
187.216	38.4
187.436	26.11
187.655	69.12
187.875	69.12
188.095	65.02
188.314	54.78
188.534	42.5
188.753	-2.56
188.973	50.69
189.192	75.26
189.412	19.97
189.631	5.63
189.851	17.92
190.07	38.4
190.29	-25.09
190.509	30.21
190.729	42.5
190.948	-51.71
191.168	30.21
191.387	5.63
191.607	42.5
191.826	30.21
192.045	30.21
192.265	28.16
192.484	15.87
192.704	-10.75
192.923	-39.42
193.142	69.12
193.362	67.07
193.581	60.93
193.8	9.73
194.02	71.17
194.239	79.36
194.458	46.59
194.678	-10.75
194.897	105.98
195.116	44.54
195.335	-10.75
195.555	122.37
195.774	9.73
195.993	40.45
196.212	5.63
196.432	85.5
196.651	-8.7
196.87	24.06
197.089	124.41
197.308	30.21
197.528	36.35
197.747	-23.04
197.966	30.21
198.185	79.36
198.404	73.21
198.623	-14.85
198.842	81.41
199.062	58.88
199.281	34.3
199.5	65.02
199.719	52.74
199.938	50.69
200.157	13.82
200.376	67.07
200.595	83.45
200.814	50.69
201.033	-4.61
201.252	87.55
201.471	87.55
201.69	58.88
201.909	75.26
202.128	-27.14
202.347	56.83
202.566	42.5
202.785	62.98
203.004	24.06
203.223	32.26
203.442	62.98
203.661	1.54
203.879	9.73
204.098	75.26
204.317	5.63
204.536	46.59
204.755	3.58
204.974	30.21
205.193	-39.42
205.411	34.3
205.63	67.07
205.849	-2.56
206.068	144.89
206.287	28.16
206.505	79.36
206.724	38.4
206.943	1.54
207.162	24.06
207.381	26.11
207.599	34.3
207.818	50.69
208.037	75.26
208.255	-0.51
208.474	60.93
208.693	148.99
208.911	22.02
209.13	26.11
209.349	77.31
209.567	60.93
209.786	56.83
210.005	65.02
210.223	67.07
210.442	-4.61
210.661	36.35
210.879	87.55
211.098	-14.85
211.316	-4.61
211.535	99.84
211.753	48.64
211.972	65.02
212.191	36.35
212.409	3.58
212.628	40.45
212.846	38.4
213.065	9.73
213.283	91.65
213.502	38.4
213.72	-2.56
213.938	36.35
214.157	24.06
214.375	11.78
214.594	-47.62
214.812	56.83
215.031	67.07
215.249	-23.04
215.467	-37.38
215.686	-12.8
215.904	34.3
216.122	-18.94
216.341	9.73
216.559	9.73
216.778	38.4
216.996	13.82
217.214	42.5
217.432	22.02
217.651	36.35
217.869	26.11
218.087	101.89
218.306	46.59
218.524	95.74
218.742	3.58
218.96	44.54
219.179	11.78
219.397	105.98
219.615	34.3
219.833	40.45
220.051	54.78
220.27	50.69
220.488	19.97
220.706	62.98
220.924	83.45
221.142	7.68
221.36	65.02
221.578	26.11
221.796	-55.81
222.015	-14.85
222.233	69.12
222.451	17.92
222.669	-25.09
222.887	93.69
223.105	15.87
223.323	-23.04
223.541	34.3
223.759	38.4
223.977	36.35
224.195	67.07
224.413	-35.33
224.631	38.4
224.849	71.17
225.067	69.12
225.285	50.69
225.503	42.5
225.721	-45.57
225.939	-6.66
226.157	42.5
226.375	81.41
226.592	9.73
226.81	7.68
227.028	-4.61
227.246	65.02
227.464	-2.56
227.682	40.45
227.9	-4.61
228.117	11.78
228.335	69.12
228.553	30.21
228.771	-37.38
228.989	73.21
229.206	71.17
229.424	103.93
229.642	5.63
229.86	-23.04
230.077	132.61
230.295	1.54
230.513	50.69
230.731	65.02
230.948	114.17
231.166	87.55
231.384	48.64
231.601	85.5
231.819	32.26
232.037	67.07
232.254	19.97
232.472	9.73
232.689	7.68
232.907	85.5
233.125	-20.99
233.342	-10.75
233.56	-4.61
233.777	13.82
233.995	34.3
234.213	11.78
234.43	108.03
234.648	146.94
234.865	65.02
235.083	9.73
235.3	32.26
235.518	34.3
235.735	108.03
235.953	52.74
236.17	-6.66
236.388	30.21
236.605	65.02
236.822	79.36
237.04	15.87
237.257	65.02
237.475	3.58
237.692	42.5
237.909	67.07
238.127	26.11
238.344	28.16
238.562	38.4
238.779	-59.9
238.996	-0.51
239.214	30.21
239.431	3.58
239.648	34.3
239.865	89.6
240.083	124.41
240.3	65.02
240.517	54.78
240.735	153.09
240.952	24.06
241.169	13.82
241.386	48.64
241.603	42.5
241.821	17.92
242.038	77.31
242.255	32.26
242.472	40.45
242.689	17.92
242.907	5.63
243.124	-23.04
243.341	-2.56
243.558	60.93
243.775	-35.33
243.992	46.59
244.209	9.73
244.426	44.54
244.643	44.54
244.86	-6.66
245.078	36.35
245.295	-6.66
245.512	101.89
245.729	65.02
245.946	81.41
246.163	19.97
246.38	-14.85
246.597	46.59
246.814	5.63
247.031	69.12
247.248	32.26
247.464	56.83
247.681	1.54
247.898	62.98
248.115	17.92
248.332	-39.42
248.549	62.98
248.766	54.78
248.983	114.17
249.2	34.3
249.417	34.3
249.633	-4.61
249.85	81.41
250.067	26.11
250.284	99.84
250.501	19.97
250.717	62.98
250.934	-25.09
251.151	5.63
251.368	50.69
251.585	42.5
251.801	17.92
252.018	-20.99
252.235	112.13
252.451	15.87
252.668	54.78
252.885	75.26
253.102	79.36
253.318	13.82
253.535	36.35
253.752	24.06
253.968	13.82
254.185	-64
254.401	-12.8
254.618	13.82
254.835	-59.9
255.051	58.88
255.268	26.11
255.484	103.93
255.701	44.54
255.917	19.97
256.134	-18.94
256.351	132.61
256.567	32.26
256.784	19.97
257	-18.94
257.217	85.5
257.433	62.98
257.65	73.21
257.866	91.65
258.082	42.5
258.299	40.45
258.515	89.6
258.732	24.06
258.948	11.78
259.165	-0.51
259.381	48.64
259.597	34.3
259.814	60.93
260.03	17.92
260.246	22.02
260.463	52.74
260.679	46.59
260.895	122.37
261.112	42.5
261.328	13.82
261.544	3.58
261.761	73.21
261.977	65.02
262.193	50.69
262.409	50.69
262.626	54.78
262.842	136.7
263.058	1.54
263.274	73.21
263.49	60.93
263.707	112.13
263.923	75.26
264.139	52.74
264.355	97.79
264.571	50.69
264.787	40.45
265.004	91.65
265.22	116.22
265.436	-23.04
265.652	5.63
265.868	42.5
266.084	-25.09
266.3	65.02
266.516	-53.76
266.732	69.12
266.948	91.65
267.164	46.59
267.38	75.26
267.596	38.4
267.812	99.84
268.028	73.21
268.244	26.11
268.46	28.16
268.676	-0.51
268.892	126.46
269.108	-10.75
269.324	44.54
269.54	81.41
269.756	54.78
269.972	81.41
270.188	58.88
270.403	13.82
270.619	48.64
270.835	103.93
271.051	26.11
271.267	-12.8
271.483	81.41
271.698	42.5
271.914	28.16
272.13	75.26
272.346	19.97
272.562	56.83
272.777	42.5
272.993	-6.66
273.209	56.83
273.425	52.74
273.64	-14.85
273.856	91.65
274.072	-18.94
274.287	3.58
274.503	5.63
274.719	19.97
274.934	-23.04
275.15	26.11
275.366	-6.66
275.581	1.54
275.797	40.45
276.012	44.54
276.228	32.26
276.444	91.65
276.659	-29.18
276.875	9.73
277.09	28.16
277.306	30.21
277.521	36.35
277.737	50.69
277.952	36.35
278.168	-27.14
278.383	7.68
278.599	9.73
278.814	71.17
279.03	81.41
279.245	65.02
279.461	34.3
279.676	85.5
279.892	-8.7
280.107	79.36
280.322	-37.38
280.538	58.88
280.753	81.41
280.969	75.26
281.184	-41.47
281.399	58.88
281.615	58.88
281.83	62.98
282.045	24.06
282.26	28.16
282.476	-10.75
282.691	52.74
282.906	73.21
283.122	-29.18
283.337	38.4
283.552	71.17
283.767	-14.85
283.983	42.5
284.198	58.88
284.413	75.26
284.628	11.78
284.843	93.69
285.058	5.63
285.274	103.93
285.489	24.06
285.704	30.21
285.919	9.73
286.134	17.92
286.349	-14.85
286.564	73.21
286.779	103.93
286.995	81.41
287.21	17.92
287.425	101.89
287.64	24.06
287.855	48.64
288.07	52.74
288.285	116.22
288.5	15.87
288.715	24.06
288.93	-20.99
289.145	-18.94
289.36	48.64
289.575	58.88
289.79	50.69
290.004	32.26
290.219	108.03
290.434	-39.42
290.649	3.58
290.864	24.06
291.079	71.17
291.294	65.02
291.509	28.16
291.724	22.02
291.938	42.5
292.153	34.3
292.368	-20.99
292.583	24.06
292.798	38.4
293.012	40.45
293.227	1.54
293.442	5.63
293.657	36.35
293.871	108.03
294.086	22.02
294.301	93.69
294.516	5.63
294.73	73.21
294.945	-27.14
295.16	108.03
295.374	26.11
295.589	32.26
295.804	15.87
296.018	-18.94
296.233	99.84
296.447	28.16
296.662	26.11
296.877	65.02
297.091	-6.66
297.306	54.78
297.52	65.02
297.735	46.59
297.949	24.06
298.164	60.93
298.378	52.74
298.593	24.06
298.807	-2.56
299.022	93.69
299.236	93.69
299.451	48.64
299.665	48.64
299.88	13.82
300.094	69.12
300.309	-6.66
300.523	108.03
300.737	-16.9
300.952	11.78
301.166	75.26
301.381	24.06
301.595	99.84
301.809	42.5
302.024	13.82
302.238	24.06
302.452	67.07
302.667	26.11
302.881	5.63
303.095	7.68
303.309	62.98
303.524	81.41
303.738	136.7
303.952	11.78
304.166	50.69
304.381	-37.38
304.595	93.69
304.809	22.02
305.023	62.98
305.237	-29.18
305.452	71.17
305.666	101.89
305.88	19.97
306.094	58.88
306.308	56.83
306.522	48.64
306.736	79.36
306.95	34.3
307.164	132.61
307.379	48.64
307.593	75.26
307.807	146.94
308.021	30.21
308.235	11.78
308.449	-27.14
308.663	-0.51
308.877	77.31
309.091	30.21
309.305	93.69
309.519	34.3
309.733	-0.51
309.947	24.06
310.161	69.12
310.374	75.26
310.588	95.74
310.802	-27.14
311.016	67.07
311.23	-4.61
311.444	-8.7
311.658	32.26
311.872	22.02
312.085	-45.57
312.299	62.98
312.513	36.35
312.727	67.07
312.941	46.59
313.154	22.02
313.368	13.82
313.582	71.17
313.796	42.5
314.009	30.21
314.223	44.54
314.437	83.45
314.651	118.27
314.864	34.3
315.078	-4.61
315.292	24.06
315.505	52.74
315.719	3.58
315.933	48.64
316.146	11.78
316.36	-4.61
316.573	140.8
316.787	50.69
317.001	28.16
317.214	36.35
317.428	30.21
317.641	28.16
317.855	17.92
318.068	22.02
318.282	56.83
318.495	-2.56
318.709	19.97
318.922	-4.61
319.136	38.4
319.349	28.16
319.563	52.74
319.776	75.26
319.99	1.54
320.203	17.92
320.417	54.78
320.63	40.45
320.843	130.56
321.057	103.93
321.27	5.63
321.483	1.54
321.697	9.73
321.91	50.69
322.124	71.17
322.337	103.93
322.55	9.73
322.763	79.36
322.977	7.68
323.19	79.36
323.403	103.93
323.617	124.41
323.83	148.99
324.043	54.78
324.256	122.37
324.469	58.88
324.683	71.17
324.896	62.98
325.109	17.92
325.322	13.82
325.535	110.08
325.748	46.59
325.962	54.78
326.175	7.68
326.388	65.02
326.601	44.54
326.814	128.51
327.027	17.92
327.24	71.17
327.453	26.11
327.666	1.54
327.879	22.02
328.092	120.32
328.305	56.83
328.518	-0.51
328.731	85.5
328.944	19.97
329.157	97.79
329.37	36.35
329.583	73.21
329.796	112.13
330.009	26.11
330.222	116.22
330.435	58.88
330.648	56.83
330.861	93.69
331.073	65.02
331.286	71.17
331.499	34.3
331.712	-10.75
331.925	15.87
332.138	5.63
332.35	50.69
332.563	81.41
332.776	83.45
332.989	5.63
333.202	42.5
333.414	73.21
333.627	50.69
333.84	103.93
334.053	103.93
334.265	32.26
334.478	42.5
334.691	95.74
334.903	54.78
335.116	50.69
335.329	32.26
335.541	79.36
335.754	60.93
335.966	-2.56
336.179	34.3
336.392	81.41
336.604	89.6
336.817	87.55
337.029	75.26
337.242	67.07
337.454	93.69
337.667	69.12
337.88	75.26
338.092	24.06
338.305	157.18
338.517	120.32
338.729	60.93
338.942	103.93
339.154	91.65
339.367	17.92
339.579	48.64
339.792	22.02
340.004	17.92
340.217	-2.56
340.429	44.54
340.641	28.16
340.854	7.68
341.066	54.78
341.278	75.26
341.491	108.03
341.703	7.68
341.915	28.16
342.128	124.41
342.34	73.21
342.552	69.12
342.764	62.98
342.977	-4.61
343.189	151.04
343.401	79.36
343.613	-41.47
343.826	11.78
344.038	67.07
344.25	67.07
344.462	24.06
344.674	34.3
344.886	17.92
345.099	11.78
345.311	62.98
345.523	22.02
345.735	42.5
345.947	13.82
346.159	36.35
346.371	-12.8
346.583	24.06
346.795	99.84
347.007	30.21
347.219	54.78
347.431	13.82
347.643	79.36
347.855	56.83
348.067	54.78
348.279	-20.99
348.491	9.73
348.703	54.78
348.915	-18.94
349.127	54.78
349.339	118.27
349.551	-10.75
349.763	85.5
349.975	122.37
350.187	89.6
350.399	85.5
350.61	-12.8
350.822	81.41
351.034	22.02
351.246	48.64
351.458	54.78
351.669	36.35
351.881	-16.9
352.093	67.07
352.305	71.17
352.517	65.02
352.728	60.93
352.94	7.68
353.152	40.45
353.363	42.5
353.575	62.98
353.787	97.79
353.999	67.07
354.21	54.78
354.422	-8.7
354.633	83.45
354.845	56.83
355.057	65.02
355.268	71.17
355.48	24.06
355.692	13.82
355.903	97.79
356.115	69.12
356.326	24.06
356.538	134.65
356.749	81.41
356.961	42.5
357.172	50.69
357.384	30.21
357.595	34.3
357.807	48.64
358.018	36.35
358.23	44.54
358.441	97.79
358.653	3.58
358.864	103.93
359.075	75.26
359.287	15.87
359.498	75.26
359.709	77.31
359.921	122.37
360.132	9.73
360.344	52.74
360.555	24.06
360.766	110.08
360.977	26.11
361.189	32.26
361.4	75.26
361.611	65.02
361.823	24.06
362.034	122.37
362.245	1.54
362.456	58.88
362.667	34.3
362.879	48.64
363.09	85.5
363.301	108.03
363.512	46.59
363.723	71.17
363.935	26.11
364.146	56.83
364.357	93.69
364.568	26.11
364.779	85.5
364.99	103.93
365.201	-12.8
365.412	52.74
365.623	13.82
365.834	65.02
366.045	28.16
366.256	73.21
366.467	120.32
366.678	-2.56
366.889	95.74
367.1	62.98
367.311	93.69
367.522	32.26
367.733	48.64
367.944	77.31
368.155	112.13
368.366	112.13
368.577	30.21
368.788	95.74
368.999	87.55
369.209	19.97
369.42	114.17
369.631	130.56
369.842	60.93
370.053	54.78
370.264	32.26
370.474	83.45
370.685	79.36
370.896	28.16
371.107	81.41
371.317	52.74
371.528	52.74
371.739	50.69
371.95	48.64
372.16	103.93
372.371	97.79
372.582	-20.99
372.792	75.26
373.003	103.93
373.214	67.07
373.424	60.93
373.635	46.59
373.846	-0.51
374.056	65.02
374.267	101.89
374.477	60.93
374.688	40.45
374.898	5.63
375.109	32.26
375.319	75.26
375.53	134.65
375.74	65.02
375.951	58.88
376.161	58.88
376.372	65.02
376.582	15.87
376.793	75.26
377.003	83.45
377.214	42.5
377.424	79.36
377.635	71.17
377.845	134.65
378.055	126.46
378.266	75.26
378.476	108.03
378.686	179.71
378.897	13.82
379.107	128.51
379.317	69.12
379.528	-0.51
379.738	93.69
379.948	71.17
380.158	44.54
380.369	58.88
380.579	54.78
380.789	-6.66
380.999	81.41
381.21	101.89
381.42	77.31
381.63	-23.04
381.84	52.74
382.05	120.32
382.261	95.74
382.471	46.59
382.681	71.17
382.891	54.78
383.101	79.36
383.311	-6.66
383.521	42.5
383.731	122.37
383.941	56.83
384.151	22.02
384.361	58.88
384.571	54.78
384.781	120.32
384.991	48.64
385.201	69.12
385.411	99.84
385.621	58.88
385.831	42.5
386.041	81.41
386.251	73.21
386.461	60.93
386.671	67.07
386.881	3.58
387.091	75.26
387.301	97.79
387.511	-8.7
387.72	126.46
387.93	81.41
388.14	65.02
388.35	77.31
388.56	101.89
388.769	89.6
388.979	116.22
389.189	11.78
389.399	124.41
389.609	108.03
389.818	91.65
390.028	99.84
390.238	79.36
390.447	30.21
390.657	69.12
390.867	-2.56
391.076	24.06
391.286	105.98
391.496	79.36
391.705	15.87
391.915	50.69
392.125	75.26
392.334	112.13
392.544	112.13
392.753	95.74
392.963	38.4
393.172	60.93
393.382	60.93
393.591	81.41
393.801	122.37
394.01	200.19
394.22	17.92
394.429	103.93
394.639	75.26
394.848	79.36
395.058	132.61
395.267	142.85
395.477	103.93
395.686	183.81
395.895	124.41
396.105	62.98
396.314	79.36
396.524	136.7
396.733	19.97
396.942	132.61
397.152	75.26
397.361	91.65
397.57	54.78
397.78	153.09
397.989	81.41
398.198	181.76
398.407	79.36
398.617	58.88
398.826	179.71
399.035	50.69
399.244	140.8
399.453	151.04
399.663	189.95
399.872	157.18
400.081	159.23
400.29	122.37
400.499	148.99
400.708	146.94
400.917	99.84
401.127	120.32
401.336	103.93
401.545	173.57
401.754	114.17
401.963	116.22
402.172	153.09
402.381	77.31
402.59	105.98
402.799	163.33
403.008	114.17
403.217	126.46
403.426	97.79
403.635	89.6
403.844	95.74
404.053	142.85
404.262	196.09
404.471	177.66
404.68	142.85
404.888	116.22
405.097	136.7
405.306	181.76
405.515	146.94
405.724	194.05
405.933	151.04
406.142	257.53
406.35	177.66
406.559	177.66
406.768	165.37
406.977	173.57
407.185	243.2
407.394	235
407.603	185.85
407.812	220.67
408.02	263.68
408.229	224.76
408.438	255.48
408.646	255.48
408.855	222.72
409.064	282.11
409.272	275.96
409.481	364.03
409.69	347.64
409.898	286.2
410.107	341.5
410.315	396.79
410.524	374.27
410.733	415.23
410.941	325.12
411.15	306.68
411.358	398.84
411.567	460.28
411.775	378.36
411.984	353.79
412.192	462.33
412.401	429.56
412.609	452.09
412.818	468.47
413.026	468.47
413.234	431.61
413.443	484.86
413.651	613.88
413.86	622.07
414.068	601.59
414.276	617.97
414.485	531.96
414.693	669.17
414.901	720.37
415.11	671.22
415.318	665.08
415.526	749.04
415.734	849.4
415.943	853.49
416.151	898.55
416.359	843.25
416.567	787.96
416.776	923.12
416.984	994.8
417.192	1060.34
417.4	1058.29
417.608	998.9
417.817	1082.86
418.025	1017.33
418.233	1148.4
418.441	1160.69
418.649	1281.52
418.857	1336.81
419.065	1277.42
419.273	1392.11
419.481	1295.85
419.689	1435.11
419.897	1512.94
420.105	1541.61
420.313	1574.38
420.521	1650.15
420.729	1705.45
420.937	1744.36
421.145	1781.22
421.353	1752.55
421.561	1875.43
421.769	1910.24
421.977	2047.46
422.185	2016.74
422.393	2235.87
422.601	2225.63
422.809	2305.5
423.017	2356.7
423.224	2360.8
423.432	2549.21
423.64	2481.63
423.848	2878.93
424.056	2676.18
424.263	2794.97
424.471	2950.61
424.679	2897.36
424.887	3077.59
425.094	3196.37
425.302	3153.36
425.51	3276.24
425.718	3409.36
425.925	3476.94
426.133	3562.95
426.341	3790.28
426.548	3866.05
426.756	3954.12
426.964	3958.21
427.171	4287.93
427.379	4373.95
427.586	4513.21
427.794	4572.6
428.001	4877.75
428.209	4783.54
428.417	4847.03
428.624	5123.51
428.832	5348.78
429.039	5332.4
429.247	5455.28
429.454	5772.71
429.662	6202.79
429.869	5588.39
430.076	6188.45
430.284	5950.89
430.491	6247.84
430.699	6628.76
430.906	6596
431.114	6636.95
431.321	6958.49
431.528	6923.67
431.736	7568.78
431.943	7863.69
432.15	7509.39
432.358	7675.27
432.565	8197.51
432.772	8052.1
432.979	8717.69
433.187	8807.8
433.394	8758.65
433.601	9346.42
433.808	9416.05
434.016	9358.71
434.223	9678.19
434.43	10497.38
434.637	10177.89
434.844	10802.52
435.052	11005.27
435.259	10767.71
435.466	10876.25
435.673	10706.27
435.88	11564.37
436.087	12191.05
436.294	12342.6
436.501	11842.89
436.708	12141.89
436.915	12725.57
437.122	12999.99
437.329	13124.92
437.537	13579.57
437.743	13737.26
437.95	13464.88
438.157	14378.28
438.364	14787.87
438.571	14581.03
438.778	15002.91
438.985	16229.64
439.192	15514.9
439.399	16215.3
439.606	16014.6
439.813	16606.47
440.02	17896.69
440.227	17243.38
440.433	17057.02
440.64	17970.41
440.847	17732.85
441.054	17896.69
441.261	19530.97
441.467	18951.39
441.674	19592.41
441.881	20233.42
442.088	20184.27
442.294	20014.29
442.501	20456.65
442.708	20683.97
442.914	21849.27
443.121	22697.13
443.328	22205.61
443.534	23657.62
443.741	22901.92
443.948	22353.07
444.154	24376.46
444.361	24048.79
444.568	24167.57
444.774	24226.96
444.981	24697.99
445.187	25328.77
445.394	26252.4
445.6	26018.93
445.807	28574.8
446.013	27194.47
446.22	27524.19
446.426	28806.22
446.633	29447.23
446.839	29987.89
447.046	28902.47
447.252	30493.74
447.459	30608.43
447.665	30356.53
447.871	31706.14
448.078	32992.26
448.284	31452.19
448.491	32025.62
448.697	33537.02
448.903	34026.49
449.11	34114.55
449.316	33592.32
449.522	34010.11
449.728	34745.33
449.935	35285.99
450.141	35257.32
450.347	36105.18
450.553	35058.67
450.76	34923.5
450.966	36256.73
451.172	35900.38
451.378	36768.72
451.584	36197.34
451.791	36879.31
451.997	36651.98
452.203	37190.6
452.409	37045.19
452.615	37067.72
452.821	35429.35
453.027	35253.22
453.233	36744.14
453.44	35603.42
453.646	35939.29
453.852	36254.68
454.058	36660.18
454.264	35159.02
454.47	35750.88
454.676	34814.96
454.882	35924.96
455.088	32975.88
455.294	33674.24
455.5	33756.16
455.705	34022.39
455.911	32844.81
456.117	32261.14
456.323	31937.56
456.529	30104.63
456.735	31259.68
456.941	30071.86
457.147	29770.81
457.352	28922.95
457.558	28767.31
457.764	28499.02
457.97	27993.17
458.176	27348.06
458.381	27554.91
458.587	26367.09
458.793	26117.23
458.999	24704.14
459.204	26764.39
459.41	26025.07
459.616	24229.01
459.821	24224.91
460.027	23612.57
460.233	23391.39
460.438	22559.91
460.644	22469.8
460.85	21658.81
461.055	21435.58
461.261	21290.17
461.466	19594.45
461.672	18826.46
461.878	20460.74
462.083	18994.4
462.289	18758.88
462.494	18324.71
462.7	17657.07
462.905	17272.06
463.111	17931.5
463.316	17951.98
463.522	17452.28
463.727	17560.82
463.932	17589.49
464.138	17310.97
464.343	17227
464.549	16870.65
464.754	17433.85
464.959	17241.34
465.165	17423.61
465.37	16704.77
465.575	15838.48
465.781	16631.04
465.986	16770.3
466.191	16137.48
466.397	15852.81
466.602	15299.86
466.807	15781.14
467.012	15850.77
467.218	15897.87
467.423	15222.04
467.628	15758.61
467.833	16305.42
468.038	15486.23
468.244	15074.59
468.449	15834.38
468.654	15224.09
468.859	15232.28
469.064	14886.17
469.269	14558.5
469.474	14519.59
469.679	14896.41
469.885	14628.13
470.09	14411.04
470.295	14499.11
470.5	14060.84
470.705	14243.11
470.91	13927.72
471.115	13733.17
471.32	13985.07
471.525	13712.69
471.73	13487.41
471.935	13530.42
472.139	13307.19
472.344	13255.99
472.549	13116.73
472.754	13178.17
472.959	12647.74
473.164	12313.92
473.369	12422.47
473.574	12563.78
473.778	12424.51
473.983	12340.55
474.188	12502.34
474.393	12010.82
474.598	11957.58
474.802	11558.22
475.007	11793.74
475.212	11498.83
475.417	11486.54
475.621	11154.77
475.826	11289.94
476.031	10978.65
476.235	10861.91
476.44	11023.7
476.645	10853.72
476.849	10855.77
477.054	10655.07
477.259	10364.26
477.463	10636.64
477.668	10239.33
477.872	10478.94
478.077	10296.67
478.282	9985.38
478.486	10093.93
478.691	9936.23
478.895	10057.06
479.1	9674.09
479.304	9786.73
479.509	9467.25
479.713	9680.24
479.918	9272.69
480.122	9467.25
480.326	9487.73
480.531	9344.37
480.735	9096.57
480.94	9414
481.144	9583.98
481.348	9178.48
481.553	9129.33
481.757	8973.69
481.961	9110.9
482.166	9258.35
482.37	9272.69
482.574	9039.22
482.778	9041.27
482.983	9334.13
483.187	9170.29
483.391	9176.44
483.595	9047.41
483.8	9065.85
484.004	9198.96
484.208	9334.13
484.412	9309.55
484.616	9014.65
484.821	9289.07
485.025	9135.48
485.229	9100.66
485.433	8848.76
485.637	9090.42
485.841	9047.41
486.045	9041.27
486.249	9174.39
486.453	9190.77
486.657	9106.81
486.861	9090.42
487.065	8918.39
487.269	9254.26
487.473	8908.15
487.677	9119.09
487.881	9182.58
488.085	8879.48
488.289	9280.88
488.493	8938.87
488.697	9295.22
488.901	9086.33
489.105	9241.97
489.309	9207.16
489.512	9330.03
489.716	9244.02
489.92	9100.66
490.124	9174.39
490.328	9477.49
490.531	9420.14
490.735	9377.14
490.939	9385.33
491.143	9192.82
491.346	9260.4
491.55	9391.47
491.754	9561.45
491.958	9555.31
492.161	9477.49
492.365	9616.75
492.569	9586.03
492.772	9534.83
492.976	9844.07
493.18	9776.49
493.383	9887.08
493.587	9876.84
493.79	9915.75
493.994	9848.17
494.197	9969
494.401	10126.69
494.605	9979.24
494.808	10417.51
495.012	10337.63
495.215	10513.76
495.419	10509.66
495.622	10491.23
495.825	10499.42
496.029	10796.38
496.232	10806.62
496.436	10820.95
496.639	11277.65
496.843	11103.57
497.046	11259.22
497.249	11306.32
497.453	11588.94
497.656	11689.29
497.859	11744.59
498.063	11908.43
498.266	11828.56
498.469	11859.28
498.673	12019.02
498.876	12154.18
499.079	12363.08
499.282	12135.75
499.485	12737.85
499.689	12500.29
499.892	12813.63
500.095	12989.75
500.298	13159.74
500.501	13178.17
500.705	13561.14
500.908	13462.83
501.111	13925.68
501.314	13960.49
501.517	14023.98
501.72	14007.59
501.923	14015.79
502.126	14601.51
502.329	14820.64
502.532	14757.15
502.735	14808.35
502.938	15371.54
503.141	15277.33
503.344	15453.46
503.547	15510.8
503.75	15770.9
503.953	16168.2
504.156	16229.64
504.359	16241.93
504.562	16401.67
504.765	16696.58
504.968	16747.78
505.17	16964.86
505.373	17020.16
505.576	17282.3
505.779	17405.17
505.982	17859.82
506.185	17958.13
506.387	18119.92
506.59	18232.55
506.793	18691.3
506.996	18533.61
507.198	19277.02
507.401	18848.99
507.604	18752.74
507.807	19815.63
508.009	19664.08
508.212	19989.71
508.415	20038.86
508.617	20350.15
508.82	20327.63
509.022	20319.43
509.225	20888.77
509.428	21204.16
509.63	21316.79
509.833	21142.72
510.035	21693.62
510.238	21963.95
510.44	22021.3
510.643	22297.77
510.845	22475.95
511.048	22482.09
511.25	22619.3
511.453	23211.17
511.655	23499.93
511.858	23375
512.06	23563.42
512.262	23813.27
512.465	24181.9
512.667	24310.93
512.87	24882.31
513.072	24497.29
513.274	25236.61
513.477	25541.75
513.679	25646.2
513.881	25961.59
514.084	25947.25
514.286	26080.37
514.488	26584.17
514.69	27212.9
514.893	27477.08
515.095	27198.56
515.297	27237.47
515.499	27651.16
515.701	27909.21
515.904	27896.92
516.106	28564.56
516.308	28963.91
516.51	28937.29
516.712	29088.84
516.914	29752.38
517.116	30133.3
517.318	30086.2
517.52	30121.01
517.722	30379.06
517.925	30575.66
518.127	31247.4
518.329	31241.25
518.531	31235.11
518.733	31816.73
518.935	32066.58
519.136	32125.97
519.338	32607.25
519.54	32646.16
519.742	33289.22
519.944	33156.1
520.146	33672.19
520.348	34120.7
520.55	34118.65
520.752	34206.71
520.954	34900.97
521.155	34722.8
521.357	35355.62
521.559	35275.75
521.761	36133.85
521.963	36053.98
522.164	36217.82
522.366	36082.65
522.568	36717.52
522.77	36826.06
522.971	37317.57
523.173	37295.05
523.375	37659.59
523.576	37489.6
523.778	37739.46
523.98	38286.26
524.181	38355.89
524.383	38419.38
524.584	39277.48
524.786	38783.92
524.988	38622.13
525.189	39187.37
525.391	39756.71
525.592	40014.75
525.794	39977.89
525.995	40061.85
526.197	40080.28
526.398	40127.39
526.6	40508.31
526.801	40502.17
527.003	41032.59
527.204	40823.7
527.406	41474.95
527.607	41374.6
527.808	41507.72
528.01	41347.98
528.211	41489.29
528.412	42650.49
528.614	42161.02
528.815	42183.55
529.016	42480.5
529.218	42218.36
529.419	42449.78
529.62	42240.89
529.822	42593.14
530.023	42523.51
530.224	42789.75
530.425	42247.04
530.626	42785.65
530.828	42492.79
531.029	43391.85
531.23	42634.1
531.431	42806.13
531.632	43242.35
531.833	43610.98
532.035	43092.85
532.236	43389.8
532.437	43375.47
532.638	43377.51
532.839	43596.65
533.04	43457.38
533.241	43410.28
533.442	44079.97
533.643	43795.3
533.844	44043.1
534.045	43987.81
534.246	43715.43
534.447	43881.31
534.648	43780.96
534.849	43686.76
535.05	43191.15
535.251	43828.07
535.451	43586.41
535.652	44274.52
535.853	43920.23
536.054	43813.73
536.255	43912.03
536.456	44018.53
536.657	44688.21
536.857	43578.22
537.058	43645.8
537.259	44106.59
537.46	44036.96
537.66	44135.26
537.861	44239.71
538.062	43465.58
538.263	44016.48
538.463	43959.14
538.664	43834.21
538.865	44149.6
539.065	44295
539.266	43512.68
539.466	43985.76
539.667	43488.1
539.868	44344.16
540.068	43778.92
540.269	43963.23
540.469	44036.96
540.67	43711.33
540.87	43563.88
541.071	43998.05
541.271	43987.81
541.472	43772.77
541.672	43748.2
541.873	43993.95
542.073	43223.92
542.274	44159.84
542.474	43707.24
542.675	43553.64
542.875	44041.06
543.075	44071.78
543.276	43412.33
543.476	44067.68
543.676	43750.24
543.877	43797.35
544.077	43590.5
544.277	43596.65
544.478	43508.58
544.678	43871.07
544.878	43416.43
545.078	44157.79
545.279	43436.91
545.479	43287.4
545.679	44264.28
545.879	43551.59
546.079	43801.44
546.28	43465.58
546.48	43092.85
546.68	43719.52
546.88	43809.64
547.08	43395.95
547.28	43561.83
547.48	43314.03
547.68	43301.74
547.88	43133.81
548.081	43486.06
548.281	43561.83
548.481	43539.3
548.681	43901.79
548.881	43756.39
549.081	43271.02
549.28	43256.68
549.48	43879.27
549.68	43322.22
549.88	43596.65
550.08	43207.53
550.28	43309.93
550.48	43232.11
550.68	43504.49
550.88	43234.16
551.08	43402.09
551.279	43322.22
551.479	42969.97
551.679	43012.98
551.879	43156.33
552.079	43246.44
552.278	42787.7
552.478	43060.08
552.678	43156.33
552.878	43242.35
553.077	42836.85
553.277	42593.14
553.477	43238.25
553.676	42869.62
553.876	42875.76
554.076	42720.12
554.275	42765.17
554.475	42615.67
554.674	42838.9
554.874	43137.9
555.074	42457.98
555.273	43215.72
555.473	43055.98
555.672	42834.8
555.872	42748.79
556.071	42765.17
556.271	42949.49
556.47	42472.31
556.67	42152.83
556.869	42328.95
557.068	42353.53
557.268	41964.42
557.467	42457.98
557.667	42439.54
557.866	42025.85
558.065	42285.95
558.265	41737.09
558.464	41782.15
558.663	42365.82
558.863	41624.45
559.062	42500.98
559.261	41491.33
559.461	42369.91
559.66	41589.64
559.859	41612.17
560.058	41044.88
560.258	41585.54
560.457	40514.45
560.656	41780.1
560.855	41036.69
561.054	41079.69
561.253	40786.83
561.453	41094.03
561.652	41157.52
561.851	41560.97
562.05	40840.08
562.249	40549.27
562.448	41079.69
562.647	40930.19
562.846	40684.44
563.045	40770.45
563.244	39947.17
563.443	40592.28
563.642	39883.68
563.841	40553.37
564.04	40201.11
564.239	40242.07
564.438	39779.23
564.637	39883.68
564.836	39893.92
565.035	39543.72
565.234	39830.43
565.432	39199.66
565.631	39482.28
565.83	39435.17
566.029	39386.02
566.228	39222.19
566.427	39347.11
566.625	39099.31
566.824	38702
567.023	39003.05
567.222	38183.87
567.42	39207.85
567.619	38532.02
567.818	38790.06
568.016	38237.11
568.215	38595.51
568.414	38443.96
568.612	38796.21
568.811	37972.92
569.01	38210.49
569.208	37899.2
569.407	38048.7
569.605	37743.55
569.804	37974.97
570.002	37544.9
570.201	37825.47
570.4	37153.74
570.598	37247.94
570.797	37125.07
570.995	37252.04
571.193	36891.6
571.392	37313.48
571.59	36899.79
571.789	36676.56
571.987	36994
572.186	36598.74
572.384	36197.34
572.582	36756.43
572.781	36680.66
572.979	36258.77
573.177	36017.11
573.376	36647.89
573.574	35732.45
573.772	36082.65
573.971	35965.92
574.169	35716.06
574.367	35560.42
574.565	35681.25
574.763	35384.29
574.962	35486.69
575.16	34720.75
575.358	35642.34
575.556	34755.57
575.754	35265.51
575.952	34880.49
576.151	35204.07
576.349	34395.12
576.547	34798.57
576.745	34546.67
576.943	34446.32
577.141	34223.09
577.339	34499.57
577.537	34309.11
577.735	34128.89
577.933	34051.06
578.131	33991.67
578.329	34055.16
578.527	33932.28
578.725	33451.01
578.923	33924.09
579.121	33410.05
579.319	33534.98
579.516	33764.35
579.714	33250.31
579.912	33176.58
580.11	32988.17
580.308	32975.88
580.506	32764.94
580.704	32320.53
580.901	32707.6
581.099	33199.11
581.297	32279.57
581.495	32402.45
581.692	32781.32
581.89	32236.56
582.088	32627.73
582.285	31853.59
582.483	32115.73
582.681	32074.77
582.878	32076.82
583.076	31773.72
583.274	31953.94
583.471	31661.08
583.669	31650.85
583.866	31446.05
584.064	31476.77
584.262	31065.13
584.459	31525.92
584.657	31155.24
584.854	31439.9
585.052	30626.86
585.249	31241.25
585.447	30936.1
585.644	30483.5
585.841	30577.71
586.039	30938.15
586.236	30409.78
586.434	30626.86
586.631	30389.3
586.828	30088.24
587.026	30350.38
587.223	30006.33
587.42	29981.75
587.618	30217.27
587.815	29652.03
588.012	29877.3
588.21	29475.9
588.407	29910.07
588.604	29568.06
588.801	29643.84
588.999	29635.64
589.196	29023.3
589.393	29008.97
589.59	28976.2
589.787	28935.24
589.984	28933.19
590.182	28488.78
590.379	28628.04
590.576	28480.59
590.773	28537.93
590.97	28466.25
591.167	28480.59
591.364	28251.22
591.561	28599.37
591.758	28044.37
591.955	27847.77
592.152	28105.81
592.349	28107.86
592.546	28015.7
592.743	28011.6
592.94	27409.5
593.137	27296.86
593.334	27960.41
593.531	27284.58
593.727	27622.49
593.924	27495.52
594.121	27163.75
594.318	27386.97
594.515	27106.4
594.712	27092.07
594.908	26881.13
595.105	27216.99
595.302	26725.48
595.499	27036.77
595.696	26754.15
595.892	26621.03
596.089	26653.8
596.286	26455.15
596.482	26694.76
596.679	26315.89
596.876	26461.29
597.072	26260.59
597.269	26504.3
597.466	25947.25
597.662	26016.88
597.859	25873.53
598.055	26016.88
598.252	25652.34
598.448	25857.14
598.645	25654.39
598.841	25332.86
599.038	25435.26
599.234	25492.6
599.431	25277.57
599.627	25019.52
599.824	25228.42
600.02	25261.18
600.217	25273.47
600.413	24800.39
600.609	24810.63
600.806	24898.69
601.002	24984.71
601.198	24507.53
601.395	24601.74
601.591	24151.18
601.787	24442
601.984	23932.05
602.18	24523.91
602.376	24173.71
602.572	24077.46
602.769	24040.59
602.965	23643.29
603.161	23618.71
603.357	23915.67
603.553	23659.67
603.75	23608.47
603.946	23213.21
604.142	23698.58
604.338	23299.23
604.534	23508.12
604.73	23680.15
604.926	23301.28
605.122	23180.45
605.318	23223.45
605.514	22936.74
605.71	22764.71
605.906	23215.26
606.102	22748.32
606.298	22869.16
606.494	22834.34
606.69	22584.49
606.886	22582.44
607.082	22475.95
607.278	22564.01
607.474	22224.04
607.67	22516.9
607.866	22023.34
608.062	22721.7
608.257	22338.73
608.453	22054.06
608.649	22000.82
608.845	22058.16
609.041	22178.99
609.236	21908.66
609.432	21771.44
609.628	22021.3
609.824	22041.78
610.019	21705.91
610.215	21474.49
610.411	22133.93
610.606	21710
610.802	21728.44
610.998	21423.29
611.193	21212.35
611.389	21417.15
611.584	21193.92
611.78	21269.69
611.976	21320.89
612.171	21175.48
612.367	21386.43
612.562	21144.77
612.758	20761.8
612.953	20888.77
613.149	21257.4
613.344	20972.74
613.539	21054.65
613.735	20997.31
613.93	20876.48
614.126	20966.59
614.321	20972.74
614.517	20794.56
614.712	20726.98
614.907	20632.77
615.103	20628.68
615.298	20505.8
615.493	20868.29
615.688	20292.81
615.884	20726.98
616.079	20141.26
616.274	20831.43
616.47	20387.02
616.665	20421.83
616.86	20313.29
617.055	20075.73
617.25	20266.19
617.445	20448.46
617.641	19625.17
617.836	19979.47
618.031	19887.31
618.226	20139.21
618.421	19561.69
618.616	20151.5
618.811	19707.09
619.006	19872.98
619.201	19627.22
619.396	19762.39
619.591	19289.31
619.786	19422.42
619.981	19166.43
620.176	19485.91
620.371	19092.7
620.566	19201.24
620.761	19080.41
620.956	18865.38
621.151	18793.7
621.346	18701.54
621.541	18779.36
621.735	18609.38
621.93	18517.22
622.125	18410.73
622.32	17978.61
622.515	18472.17
622.709	18160.87
622.904	18330.86
623.099	17972.46
623.294	17927.41
623.488	17724.66
623.683	18148.59
623.878	17419.51
624.072	17466.61
624.267	17558.77
624.462	17206.52
624.656	17263.86
624.851	17120.51
625.046	17081.6
625.24	17270.01
625.435	16882.94
625.629	16760.06
625.824	16579.84
626.018	16684.29
626.213	16246.02
626.407	16549.12
626.602	16278.79
626.796	16424.2
626.991	16366.85
627.185	16385.29
627.38	16078.09
627.574	16000.27
627.768	16030.99
627.963	15762.7
628.157	15748.37
628.352	15658.26
628.546	15432.98
628.74	15607.06
628.935	15168.79
629.129	15525.14
629.323	14923.04
629.517	15101.21
629.712	15097.11
629.906	14951.71
630.1	14935.32
630.294	14671.14
630.489	14531.87
630.683	15121.69
630.877	14730.53
631.071	14525.73
631.265	14654.75
631.459	14284.07
631.653	14384.42
631.848	14376.23
632.042	14308.65
632.236	14103.85
632.43	13817.13
632.624	14140.71
632.818	13845.8
633.012	13813.04
633.206	13624.62
633.4	13712.69
633.594	13684.02
633.788	13618.48
633.982	13604.14
634.176	13374.77
634.369	13190.45
634.563	13301.05
634.757	13129.02
634.951	13225.27
635.145	13231.41
635.339	13110.58
635.533	12985.66
635.726	12686.65
635.92	12680.51
636.114	12926.27
636.308	12686.65
636.501	12406.08
636.695	12696.89
636.889	12485.95
637.083	12461.38
637.276	12256.58
637.47	12272.96
637.664	12377.41
637.857	12217.67
638.051	11867.47
638.244	11996.49
638.438	12012.87
638.632	11892.04
638.825	11953.48
639.019	11910.47
639.212	11660.62
639.406	11531.6
639.599	11730.25
639.793	11810.12
639.986	11251.03
640.18	11449.68
640.373	11441.49
640.567	11050.33
640.76	11267.41
640.954	11203.93
641.147	10976.6
641.34	10980.7
641.534	11099.48
641.727	10798.43
641.92	10988.89
642.114	10675.55
642.307	10792.28
642.5	10661.21
642.694	10675.55
642.887	10544.48
643.08	10741.08
643.273	10630.49
643.467	10698.08
643.66	10397.03
643.853	10300.77
644.046	10435.94
644.239	10214.76
644.432	10128.74
644.626	10208.61
644.819	10089.83
645.012	9975.14
645.205	9985.38
645.398	9880.94
645.591	9854.31
645.784	9616.75
645.977	9639.28
646.17	9725.29
646.363	9643.37
646.556	9571.69
646.749	9477.49
646.942	9657.71
647.135	9581.93
647.328	9391.47
647.521	9491.82
647.714	9198.96
647.907	9084.28
648.099	9063.8
648.292	9055.61
648.485	9110.9
648.678	9135.48
648.871	9088.37
649.064	8992.12
649.256	8856.95
649.449	8916.34
649.642	8742.27
649.835	8729.98
650.027	8807.8
650.22	8668.54
650.413	8660.35
650.605	8521.09
650.798	8795.51
650.991	8603
651.183	8494.46
651.376	8299.91
651.568	8322.43
651.761	8291.71
651.954	8355.2
652.146	8140.16
652.339	8226.18
652.531	8250.75
652.724	8205.7
652.916	7867.78
653.109	7880.07
653.301	7951.75
653.494	8005
653.686	7716.23
653.879	7921.03
654.071	7943.56
654.263	7767.43
654.456	7587.21
654.648	7718.28
654.84	7583.12
655.033	7505.29
655.225	7646.6
655.417	7611.79
655.61	7503.25
655.802	7439.76
655.994	7472.53
656.186	7349.65
656.379	7439.76
656.571	7351.7
656.763	7380.37
656.955	7245.2
657.148	7253.39
657.34	7150.99
657.532	7140.76
657.724	7290.26
657.916	7015.83
658.108	7251.35
658.3	6946.2
658.492	6995.35
658.684	6966.68
658.876	6858.14
659.068	6917.53
659.26	6743.45
659.452	6829.46
659.644	6821.27
659.836	6892.95
660.028	6720.92
660.22	6747.55
660.412	6493.6
660.604	6542.75
660.796	6487.45
660.988	6698.39
661.18	6632.86
661.372	6376.86
661.563	6344.1
661.755	6329.76
661.947	6380.96
662.139	6385.05
662.331	6266.27
662.522	6151.59
662.714	6118.82
662.906	6143.39
663.097	6049.19
663.289	6299.04
663.481	5877.16
663.673	5836.2
663.864	5985.7
664.056	5961.13
664.247	5764.52
664.439	5823.91
664.631	5879.21
664.822	5846.44
665.014	5772.71
665.205	5928.36
665.397	5684.65
665.588	5864.87
665.78	5612.97
665.971	5727.66
666.163	5655.98
666.354	5678.51
666.546	5688.75
666.737	5569.96
666.929	5670.31
667.12	5604.78
667.311	5512.62
667.503	5397.93
667.694	5406.13
667.885	5463.47
668.077	5410.22
668.268	5385.65
668.459	5379.5
668.651	5287.34
668.842	5322.16
669.033	5297.58
669.224	5322.16
669.416	5283.25
669.607	5262.77
669.798	5264.82
669.989	5266.86
670.18	5070.26
670.371	5129.65
670.563	5012.92
670.754	5072.31
670.945	5041.59
671.136	5047.73
671.327	4933.04
671.518	4892.09
671.709	5004.72
671.9	4982.2
672.091	4990.39
672.282	4892.09
672.473	4904.37
672.664	4822.45
672.855	4859.32
673.046	4859.32
673.237	4990.39
673.428	4816.31
673.619	4851.13
673.809	4730.3
674	4677.05
674.191	4812.21
674.382	4535.74
674.573	4742.58
674.764	4740.54
674.954	4699.58
675.145	4513.21
675.336	4705.72
675.527	4640.19
675.717	4660.66
675.908	4722.1
676.099	4384.19
676.289	4617.66
676.48	4521.4
676.671	4566.46
676.861	4459.96
677.052	4568.51
677.243	4445.63
677.433	4476.35
677.624	4482.49
677.814	4304.32
678.005	4416.96
678.195	4355.52
678.386	4351.42
678.576	4289.98
678.767	4236.74
678.957	4398.52
679.148	4261.31
679.338	4261.31
679.529	4261.31
679.719	4230.59
679.909	4302.27
680.1	4142.53
680.29	4226.5
680.481	4126.15
680.671	4113.86
680.861	4158.91
681.052	4163.01
681.242	4120
681.432	4322.75
681.622	4160.96
681.813	4003.27
682.003	4066.75
682.193	4265.41
682.383	4046.27
682.573	4216.26
682.764	4087.23
682.954	4050.37
683.144	4040.13
683.334	4109.76
683.524	3890.63
683.714	3964.36
683.904	3990.98
684.094	3937.73
684.284	3978.69
684.474	4019.65
684.664	4007.36
684.854	3855.81
685.044	3798.47
685.234	3896.77
685.424	3947.97
685.614	3927.49
685.804	3866.05
685.994	4019.65
686.184	3890.63
686.374	4056.51
686.564	3775.94
686.753	3827.14
686.943	3818.95
687.133	3636.68
687.323	3700.17
687.513	3732.94
687.702	3775.94
687.892	3667.4
688.082	3618.25
688.272	3653.06
688.461	3554.76
688.651	3648.97
688.841	3534.28
689.03	3653.06
689.22	3472.84
689.41	3614.15
689.599	3474.89
689.789	3573.19
689.979	3536.33
690.168	3532.23
690.358	3395.02
690.547	3474.89
690.737	3487.18
690.926	3554.76
691.116	3470.8
691.305	3487.18
691.495	3489.23
691.684	3401.16
691.874	3534.28
692.063	3384.78
692.252	3311.05
692.442	3368.4
692.631	3331.53
692.82	3306.96
693.01	3300.81
693.199	3227.09
693.388	3249.61
693.578	3216.85
693.767	3376.59
693.956	3114.45
694.146	3122.64
694.335	3229.13
694.524	3194.32
694.713	3229.13
694.902	3237.33
695.092	3048.91
695.281	3188.18
695.47	3040.72
695.659	3073.49
695.848	3194.32
696.037	3120.59
696.226	3118.54
696.415	3173.84
696.604	3122.64
696.793	3079.63
696.982	3083.73
697.171	3040.72
697.36	3110.35
697.549	3096.02
697.738	3106.26
697.927	3112.4
698.116	3165.65
698.305	3124.69
698.494	3046.87
698.683	3077.59
698.872	3085.78
699.061	3057.11
699.25	3016.15
699.438	3038.67
699.627	3050.96
699.816	3071.44
700.005	3081.68
700.193	2971.09
700.382	3251.66
700.571	3036.63
700.76	3026.39
700.948	2930.13
701.137	2987.47
701.326	2917.84
701.514	2887.12
701.703	3044.82
701.892	3038.67
702.08	3096.02
702.269	3081.68
702.457	2983.38
702.646	2960.85
702.834	2889.17
703.023	2999.76
703.212	2981.33
703.4	2952.66
703.589	2960.85
703.777	3040.72
703.965	3032.53
704.154	2991.57
704.342	2969.04
704.531	2921.94
704.719	2995.67
704.907	3106.26
705.096	2864.6
705.284	3098.06
705.472	2966.99
705.661	2969.04
705.849	3063.25
706.037	2926.04
706.226	2893.27
706.414	2995.67
706.602	2921.94
706.79	3016.15
706.979	2901.46
707.167	2958.8
707.355	2983.38
707.543	2981.33
707.731	2973.14
707.919	2747.86
708.107	2819.54
708.296	2952.66
708.484	2926.04
708.672	2792.92
708.86	2897.36
709.048	2964.95
709.236	2993.62
709.424	2956.75
709.612	2903.51
709.8	2991.57
709.988	2975.19
710.176	2911.7
710.364	2944.47
710.551	2704.85
710.739	2891.22
710.927	2975.19
711.115	3010
711.303	2948.56
711.491	2821.59
711.679	2874.84
711.866	2934.23
712.054	2981.33
712.242	2880.98
712.43	2872.79
712.617	2823.64
712.805	2733.53
712.993	2856.4
713.181	2868.69
713.368	2903.51
713.556	2770.39
713.744	2739.67
713.931	2878.93
714.119	2723.29
714.306	2979.28
714.494	2874.84
714.682	2840.02
714.869	2833.88
715.057	2815.45
715.244	2733.53
715.432	2799.06
715.619	2774.49
715.807	2686.42
715.994	2790.87
716.182	2864.6
716.369	2749.91
716.556	2782.68
716.744	2758.1
716.931	2788.82
717.119	2854.36
717.306	2858.45
717.493	2817.49
717.681	2831.83
717.868	2749.91
718.055	2876.88
718.242	2835.92
718.43	2764.25
718.617	2741.72
718.804	2792.92
718.991	2817.49
719.179	2725.33
719.366	2704.85
719.553	2813.4
719.74	2684.38
719.927	2733.53
720.114	2768.34
720.301	2731.48
720.488	2653.66
720.676	2760.15
720.863	2665.94
721.05	2833.88
721.237	2766.29
721.424	2713.05
721.611	2713.05
721.798	2682.33
721.985	2659.8
722.172	2612.7
722.358	2799.06
722.545	2831.83
722.732	2643.42
722.919	2786.77
723.106	2620.89
723.293	2713.05
723.48	2672.09
723.667	2794.97
723.853	2614.74
724.04	2801.11
724.227	2715.09
724.414	2631.13
724.6	2498.01
724.787	2637.27
724.974	2676.18
725.161	2579.93
725.347	2704.85
725.534	2579.93
725.72	2598.36
725.907	2602.46
726.094	2604.5
726.28	2598.36
726.467	2731.48
726.653	2620.89
726.84	2663.9
727.027	2649.56
727.213	2508.25
727.4	2639.32
727.586	2676.18
727.773	2622.94
727.959	2567.64
728.145	2667.99
728.332	2647.51
728.518	2563.54
728.705	2676.18
728.891	2594.26
729.077	2508.25
729.264	2504.15
729.45	2657.75
729.636	2727.38
729.823	2536.92
730.009	2692.57
730.195	2622.94
730.382	2559.45
730.568	2600.41
730.754	2579.93
730.94	2635.22
731.126	2606.55
731.313	2545.11
731.499	2633.18
731.685	2567.64
731.871	2557.4
732.057	2633.18
732.243	2594.26
732.429	2653.66
732.615	2577.88
732.801	2551.26
732.987	2481.63
733.173	2627.03
733.359	2622.94
733.545	2424.28
733.731	2536.92
733.917	2598.36
734.103	2571.74
734.289	2665.94
734.475	2434.52
734.661	2526.68
734.847	2424.28
735.033	2532.83
735.219	2555.35
735.404	2547.16
735.59	2520.54
735.776	2483.67
735.962	2549.21
736.148	2409.95
736.333	2493.91
736.519	2500.06
736.705	2360.8
736.89	2442.71
737.076	2416.09
737.262	2469.34
737.447	2506.2
737.633	2442.71
737.819	2538.97
738.004	2391.52
738.19	2328.03
738.375	2493.91
738.561	2350.56
738.747	2383.32
738.932	2450.91
739.118	2362.84
739.303	2254.3
739.489	2346.46
739.674	2219.49
739.859	2362.84
740.045	2323.93
740.23	2303.45
740.416	2303.45
740.601	2368.99
740.786	2459.1
740.972	2332.12
741.157	2252.25
741.342	2250.21
741.528	2282.97
741.713	2215.39
741.898	2350.56
742.084	2223.58
742.269	2309.6
742.454	2373.08
742.639	2282.97
742.824	2274.78
743.01	2262.49
743.195	2211.29
743.38	2231.77
743.565	2164.19
743.75	2227.68
743.935	2213.34
744.12	2379.23
744.305	2221.53
744.49	2209.25
744.675	2145.76
744.86	2143.71
745.045	2311.64
745.23	2127.33
745.415	2164.19
745.6	2039.26
745.785	2045.41
745.97	2123.23
746.155	2067.94
746.34	1994.21
746.525	1992.16
746.71	2004.45
746.895	2049.5
747.079	2051.55
747.264	2045.41
747.449	2127.33
747.634	1940.96
747.819	1988.07
748.003	2080.22
748.188	1922.53
748.373	2014.69
748.557	1861.09
748.742	1895.91
748.927	1824.23
749.111	1914.34
749.296	1930.72
749.481	1932.77
749.665	1797.6
749.85	1809.89
750.034	1721.83
750.219	1828.32
750.404	1803.75
750.588	1758.69
750.773	1779.17
750.957	1773.03
751.141	1717.73
751.326	1723.88
751.51	1736.17
751.695	1730.02
751.879	1684.97
752.064	1744.36
752.248	1697.25
752.432	1680.87
752.617	1662.44
752.801	1654.25
752.985	1607.14
753.17	1650.15
753.354	1670.63
753.538	1666.53
753.722	1433.07
753.907	1537.51
754.091	1521.13
754.275	1590.76
754.459	1605.1
754.643	1576.42
754.828	1678.82
755.012	1564.14
755.196	1459.69
755.38	1531.37
755.564	1639.91
755.748	1428.97
755.932	1480.17
756.116	1480.17
756.3	1490.41
756.484	1476.07
756.668	1422.83
756.852	1449.45
757.036	1353.2
757.22	1394.15
757.404	1377.77
757.588	1394.15
757.772	1361.39
757.956	1461.74
758.14	1228.27
758.323	1396.2
758.507	1351.15
758.691	1379.82
758.875	1318.38
759.059	1209.84
759.242	1328.62
759.426	1263.08
759.61	1328.62
759.794	1238.51
759.977	1304.04
760.161	1306.09
760.345	1220.08
760.528	1283.56
760.712	1287.66
760.895	1226.22
761.079	1293.8
761.263	1179.12
761.446	1150.45
761.63	1207.79
761.813	1197.55
761.997	1209.84
762.18	1117.68
762.364	1222.13
762.547	1201.65
762.731	1271.28
762.914	1152.49
763.098	1113.58
763.281	1238.51
763.464	1170.93
763.648	1132.01
763.831	1039.86
764.015	1170.93
764.198	1189.36
764.381	1136.11
764.564	1097.2
764.748	1086.96
764.931	1058.29
765.114	1115.63
765.297	1129.97
765.481	1281.52
765.664	1181.17
765.847	1119.73
766.03	1146.35
766.213	1048.05
766.397	1119.73
766.58	1162.73
766.763	1048.05
766.946	1050.1
767.129	1140.21
767.312	978.42
767.495	1082.86
767.678	1080.82
767.861	1066.48
768.044	1043.95
768.227	1007.09
768.41	970.23
768.593	1095.15
768.776	1017.33
768.959	1080.82
769.142	1062.38
769.324	980.47
769.507	1115.63
769.69	1021.42
769.873	992.75
770.056	1002.99
770.239	933.36
770.421	1005.04
770.604	1072.62
770.787	939.51
770.97	1066.48
771.152	996.85
771.335	900.59
771.518	990.7
771.7	980.47
771.883	1005.04
772.066	855.54
772.248	1007.09
772.431	876.02
772.613	984.56
772.796	941.55
772.978	904.69
773.161	953.84
773.343	859.63
773.526	894.45
773.708	849.4
773.891	808.44
774.073	857.59
774.256	839.16
774.438	953.84
774.621	886.26
774.803	808.44
774.985	912.88
775.168	851.44
775.35	810.48
775.532	855.54
775.715	904.69
775.897	808.44
776.079	769.52
776.261	798.2
776.444	777.72
776.626	851.44
776.808	769.52
776.99	663.03
777.173	777.72
777.355	734.71
777.537	824.82
777.719	783.86
777.901	783.86
778.083	749.04
778.265	665.08
778.447	777.72
778.629	691.7
778.811	767.48
778.993	695.8
779.175	697.85
779.357	708.09
779.539	728.56
779.721	763.38
779.903	720.37
780.085	738.8
780.267	699.89
780.449	683.51
780.631	724.47
780.812	650.74
780.994	638.45
781.176	742.9
781.358	697.85
781.54	652.79
781.721	691.7
781.903	718.33
782.085	615.93
782.267	640.5
782.448	640.5
782.63	538.1
782.812	663.03
782.993	642.55
783.175	626.17
783.357	581.11
783.538	599.54
783.72	523.77
783.901	540.15
784.083	675.32
784.264	587.26
784.446	540.15
784.627	450.04
784.809	572.92
784.99	603.64
785.172	581.11
785.353	568.82
785.535	529.91
785.716	431.61
785.897	556.54
786.079	505.34
786.26	468.47
786.441	544.25
786.623	507.38
786.804	452.09
786.985	544.25
787.167	427.51
787.348	507.38
787.529	544.25
787.71	429.56
787.891	523.77
788.073	486.9
788.254	402.94
788.435	517.62
788.616	462.33
788.797	454.14
788.978	456.19
789.159	443.9
789.34	452.09
789.522	415.23
789.703	437.75
789.884	409.08
790.065	429.56
790.246	404.99
790.427	509.43
790.607	407.03
790.788	472.57
790.969	421.37
791.15	445.95
791.331	447.99
791.512	376.31
791.693	384.51
791.874	421.37
792.054	445.95
792.235	478.71
792.416	417.27
792.597	364.03
792.778	396.79
792.958	392.7
793.139	390.65
793.32	421.37
793.5	339.45
793.681	374.27
793.862	349.69
794.042	337.4
794.223	296.44
794.404	278.01
794.584	353.79
794.765	312.83
794.945	370.17
795.126	345.59
795.306	341.5
795.487	357.88
795.667	318.97
795.848	314.88
796.028	286.2
796.209	316.92
796.389	349.69
796.57	312.83
796.75	318.97
796.93	325.12
797.111	339.45
797.291	314.88
797.471	278.01
797.652	306.68
797.832	230.91
798.012	269.82
798.192	323.07
798.373	331.26
798.553	318.97
798.733	292.35
798.913	359.93
799.093	308.73
799.274	257.53
799.454	364.03
799.634	300.54
799.814	255.48
799.994	302.59
800.174	341.5
800.354	255.48
800.534	200.19
800.714	337.4
800.894	333.31
801.074	257.53
801.254	304.64
801.434	312.83
801.614	257.53
801.794	302.59
801.974	624.12
802.154	308.73
802.334	265.72
802.514	237.05
802.693	306.68
802.873	278.01
803.053	243.2
803.233	261.63
803.413	288.25
803.592	230.91
803.772	267.77
803.952	222.72
804.131	302.59
804.311	294.4
804.491	181.76
804.67	275.96
804.85	267.77
805.03	271.87
805.209	263.68
805.389	181.76
805.568	255.48
805.748	273.92
805.928	189.95
806.107	312.83
806.287	239.1
806.466	204.28
806.646	255.48
806.825	239.1
807.004	275.96
807.184	177.66
807.363	208.38
807.543	220.67
807.722	249.34
807.901	267.77
808.081	204.28
808.26	167.42
808.439	181.76
808.619	200.19
808.798	243.2
808.977	239.1
809.156	235
809.336	235
809.515	239.1
809.694	165.37
809.873	181.76
810.052	161.28
810.231	179.71
810.411	185.85
810.59	157.18
810.769	220.67
810.948	214.52
811.127	183.81
811.306	226.81
811.485	198.14
811.664	286.2
811.843	204.28
812.022	222.72
812.201	206.33
812.38	214.52
812.559	228.86
812.737	183.81
812.916	175.61
813.095	153.09
813.274	222.72
813.453	210.43
813.632	179.71
813.811	273.92
813.989	220.67
814.168	163.33
814.347	136.7
814.526	165.37
814.704	206.33
814.883	253.44
815.062	155.13
815.24	230.91
815.419	185.85
815.598	169.47
815.776	71.17
815.955	198.14
816.133	183.81
816.312	148.99
816.49	155.13
816.669	196.09
816.847	175.61
817.026	114.17
817.204	97.79
817.383	159.23
817.561	187.9
817.74	177.66
817.918	148.99
818.097	142.85
818.275	144.89
818.453	189.95
818.632	138.75
818.81	161.28
818.988	175.61
819.167	163.33
819.345	167.42
819.523	169.47
819.701	140.8
819.879	175.61
820.058	130.56
820.236	173.57
820.414	105.98
820.592	116.22
820.77	214.52
820.948	142.85
821.127	103.93
821.305	65.02
821.483	91.65
821.661	175.61
821.839	122.37
822.017	108.03
822.195	101.89
822.373	194.05
822.551	161.28
822.729	136.7
822.907	116.22
823.085	140.8
823.262	83.45
823.44	163.33
823.618	142.85
823.796	132.61
823.974	71.17
824.152	95.74
824.329	177.66
824.507	122.37
824.685	169.47
824.863	93.69
825.04	177.66
825.218	99.84
825.396	99.84
825.574	124.41
825.751	95.74
825.929	85.5
826.107	95.74
826.284	202.24
826.462	163.33
826.639	52.74
826.817	65.02
826.994	97.79
827.172	28.16
827.349	134.65
827.527	138.75
827.704	116.22
827.882	155.13
828.059	110.08
828.237	85.5
828.414	148.99
828.591	97.79
828.769	126.46
828.946	54.78
829.124	75.26
829.301	110.08
829.478	157.18
829.655	112.13
829.833	118.27
830.01	38.4
830.187	161.28
830.364	112.13
830.542	105.98
830.719	136.7
830.896	-2.56
831.073	116.22
831.25	99.84
831.427	81.41
831.604	138.75
831.782	81.41
831.959	144.89
832.136	97.79
832.313	155.13
832.49	108.03
832.667	62.98
832.844	126.46
833.021	177.66
833.198	24.06
833.374	81.41
833.551	44.54
833.728	132.61
833.905	89.6
834.082	73.21
834.259	99.84
834.436	200.19
834.612	118.27
834.789	161.28
834.966	159.23
835.143	118.27
835.319	81.41
835.496	130.56
835.673	85.5
835.85	116.22
836.026	58.88
836.203	56.83
836.38	140.8
836.556	83.45
836.733	97.79
836.909	151.04
837.086	46.59
837.262	83.45
837.439	146.94
837.616	108.03
837.792	48.64
837.968	101.89
838.145	26.11
838.321	108.03
838.498	48.64
838.674	155.13
838.851	95.74
839.027	112.13
839.203	65.02
839.38	24.06
839.556	30.21
839.732	118.27
839.909	32.26
840.085	185.85
840.261	95.74
840.437	136.7
840.614	77.31
840.79	114.17
840.966	114.17
841.142	103.93
841.318	67.07
841.494	146.94
841.671	83.45
841.847	81.41
842.023	22.02
842.199	65.02
842.375	73.21
842.551	58.88
842.727	-2.56
842.903	136.7
843.079	58.88
843.255	105.98
843.431	50.69
843.607	28.16
843.783	58.88
843.959	118.27
844.134	38.4
844.31	19.97
844.486	38.4
844.662	50.69
844.838	151.04
845.013	58.88
845.189	17.92
845.365	-18.94
845.541	67.07
845.716	73.21
845.892	108.03
846.068	32.26
846.244	34.3
846.419	-23.04
846.595	9.73
846.77	13.82
846.946	118.27
847.122	28.16
847.297	71.17
847.473	148.99
847.648	3.58
847.824	91.65
847.999	69.12
848.175	19.97
848.35	-20.99
848.526	9.73
848.701	58.88
848.876	103.93
849.052	140.8
849.227	103.93
849.403	48.64
849.578	34.3
849.753	99.84
849.929	58.88
850.104	83.45
850.279	91.65
850.454	-8.7
850.63	32.26
850.805	19.97
850.98	101.89
851.155	-0.51
851.33	15.87
851.505	85.5
851.681	28.16
851.856	26.11
852.031	73.21
852.206	62.98
852.381	83.45
852.556	124.41
852.731	85.5
852.906	99.84
853.081	30.21
853.256	89.6
853.431	40.45
853.606	52.74
853.781	50.69
853.956	60.93
854.131	48.64
854.305	-29.18
854.48	22.02
854.655	-8.7
854.83	15.87
855.005	62.98
855.18	46.59
855.354	83.45
855.529	46.59
855.704	44.54
855.879	65.02
856.053	1.54
856.228	38.4
856.403	44.54
856.577	54.78
856.752	-47.62
856.926	69.12
857.101	-8.7
857.276	15.87
857.45	13.82
857.625	69.12
857.799	26.11
857.974	52.74
858.148	-4.61
858.323	75.26
858.497	44.54
858.672	50.69
858.846	71.17
859.02	77.31
859.195	36.35
859.369	122.37
859.543	48.64
859.718	62.98
859.892	9.73
860.066	13.82
860.241	-23.04
860.415	62.98
860.589	128.51
860.763	60.93
860.938	50.69
861.112	-43.52
861.286	-8.7
861.46	67.07
861.634	26.11
861.808	40.45
861.982	30.21
862.157	-55.81
862.331	38.4
862.505	93.69
862.679	34.3
862.853	30.21
863.027	75.26
863.201	95.74
863.375	15.87
863.549	54.78
863.722	22.02
863.896	-31.23
864.07	-55.81
864.244	50.69
864.418	34.3
864.592	50.69
864.766	48.64
864.939	75.26
865.113	-29.18
865.287	1.54
865.461	-12.8
865.634	73.21
865.808	48.64
865.982	79.36
866.156	30.21
866.329	26.11
866.503	5.63
866.676	50.69
866.85	65.02
867.024	58.88
867.197	-0.51
867.371	-0.51
867.544	9.73
867.718	73.21
867.891	-8.7
868.065	-14.85
868.238	69.12
868.412	42.5
868.585	-2.56
868.759	-41.47
868.932	34.3
869.105	58.88
869.279	36.35
869.452	7.68
869.625	24.06
869.799	-12.8
869.972	71.17
870.145	34.3
870.319	5.63
870.492	75.26
870.665	40.45
870.838	26.11
871.011	11.78
871.185	81.41
871.358	36.35
871.531	-6.66
871.704	-51.71
871.877	75.26
872.05	13.82
872.223	79.36
872.396	91.65
872.569	1.54
872.742	7.68
872.915	-18.94
873.088	17.92
873.261	11.78
873.434	1.54
873.607	3.58
873.78	83.45
873.953	-37.38
874.126	103.93
874.299	22.02
874.471	17.92
874.644	-8.7
874.817	69.12
874.99	83.45
875.163	54.78
875.335	-12.8
875.508	-16.9
875.681	83.45
875.853	28.16
876.026	-2.56
876.199	-0.51
876.371	75.26
876.544	-25.09
876.717	44.54
876.889	28.16
877.062	75.26
877.234	17.92
877.407	13.82
877.579	79.36
877.752	99.84
877.924	-2.56
878.097	13.82
878.269	46.59
878.442	22.02
878.614	-16.9
878.786	67.07
878.959	69.12
879.131	42.5
879.303	-2.56
879.476	22.02
879.648	75.26
879.82	11.78
879.993	17.92
880.165	11.78
880.337	17.92
880.509	-8.7
880.681	71.17
880.854	-25.09
881.026	62.98
881.198	11.78
881.37	56.83
881.542	85.5
881.714	17.92
881.886	-10.75
882.058	48.64
882.23	34.3
882.402	48.64
882.574	17.92
882.746	-47.62
882.918	56.83
883.09	22.02
883.262	-33.28
883.434	11.78
883.606	1.54
883.778	-49.66
883.95	93.69
884.122	-27.14
884.293	67.07
884.465	22.02
884.637	85.5
884.809	-0.51
884.98	7.68
885.152	-47.62
885.324	81.41
885.496	-10.75
885.667	13.82
885.839	-4.61
886.011	56.83
886.182	-4.61
886.354	-4.61
886.525	22.02
886.697	-6.66
886.869	81.41
887.04	38.4
887.212	24.06
887.383	13.82
887.555	-8.7
887.726	32.26
887.897	83.45
888.069	15.87
888.24	26.11
888.412	-16.9
888.583	15.87
888.754	52.74
888.926	-43.52
889.097	13.82
889.268	-23.04
889.44	50.69
889.611	-10.75
889.782	5.63
889.953	81.41
890.125	7.68
890.296	9.73
890.467	101.89
890.638	-45.57
890.809	3.58
890.98	19.97
891.151	19.97
891.323	83.45
891.494	22.02
891.665	46.59
891.836	65.02
892.007	-49.66
892.178	114.17
892.349	34.3
892.52	13.82
892.691	-4.61
892.862	3.58
893.032	46.59
893.203	71.17
893.374	-61.95
893.545	-20.99
893.716	54.78
893.887	73.21
894.057	15.87
894.228	50.69
894.399	-8.7
894.57	9.73
894.74	38.4
894.911	30.21
895.082	-14.85
895.253	-33.28
895.423	56.83
895.594	5.63
895.764	50.69
895.935	1.54
896.106	56.83
896.276	60.93
896.447	77.31
896.617	9.73
896.788	-82.43
896.958	87.55
897.129	34.3
897.299	7.68
897.47	42.5
897.64	32.26
897.81	-4.61
897.981	-6.66
898.151	-0.51
898.322	-2.56
898.492	-2.56
898.662	-35.33
898.832	24.06
899.003	48.64
899.173	-0.51
899.343	9.73
899.513	-12.8
