Data from USB4F104151__21__10-21-24-239.txt Node

Date: Wed Mar 12 10:21:24 EDT 2025
User: louis
Spectrometer: USB4F10415
Trigger mode: 4
Integration Time (sec): 3.000000E-2
Scans to average: 1
Electric dark correction enabled: true
Nonlinearity correction enabled: false
Boxcar width: 0
XAxis mode: Wavelengths
Number of Pixels in Spectrum: 3648
>>>>>Begin Spectral Data<<<<<
178.204	-104.96
178.424	-104.96
178.644	-104.96
178.864	-113.15
179.084	-64
179.304	-45.57
179.524	38.4
179.744	5.63
179.964	-49.66
180.184	15.87
180.404	7.68
180.624	13.82
180.844	11.78
181.064	-66.05
181.283	24.06
181.503	-10.75
181.723	54.78
181.943	-14.85
182.163	24.06
182.383	28.16
182.602	34.3
182.822	17.92
183.042	69.12
183.262	81.41
183.482	73.21
183.701	22.02
183.921	13.82
184.141	26.11
184.361	81.41
184.58	36.35
184.8	-2.56
185.02	54.78
185.239	-0.51
185.459	60.93
185.679	81.41
185.898	30.21
186.118	48.64
186.338	48.64
186.557	22.02
186.777	-64
186.997	52.74
187.216	50.69
187.436	108.03
187.655	-23.04
187.875	48.64
188.095	-0.51
188.314	32.26
188.534	22.02
188.753	13.82
188.973	120.32
189.192	50.69
189.412	11.78
189.631	5.63
189.851	30.21
190.07	36.35
190.29	-78.33
190.509	75.26
190.729	-25.09
190.948	30.21
191.168	108.03
191.387	75.26
191.607	-6.66
191.826	38.4
192.045	62.98
192.265	52.74
192.484	3.58
192.704	40.45
192.923	-61.95
193.142	75.26
193.362	26.11
193.581	83.45
193.8	7.68
194.02	13.82
194.239	26.11
194.458	54.78
194.678	5.63
194.897	60.93
195.116	40.45
195.335	69.12
195.555	-2.56
195.774	124.41
195.993	58.88
196.212	19.97
196.432	-2.56
196.651	19.97
196.87	40.45
197.089	71.17
197.308	-39.42
197.528	73.21
197.747	46.59
197.966	26.11
198.185	34.3
198.404	26.11
198.623	1.54
198.842	93.69
199.062	44.54
199.281	44.54
199.5	67.07
199.719	15.87
199.938	103.93
200.157	46.59
200.376	48.64
200.595	103.93
200.814	22.02
201.033	5.63
201.252	58.88
201.471	54.78
201.69	38.4
201.909	65.02
202.128	91.65
202.347	26.11
202.566	69.12
202.785	-35.33
203.004	-29.18
203.223	48.64
203.442	67.07
203.661	3.58
203.879	65.02
204.098	91.65
204.317	13.82
204.536	11.78
204.755	83.45
204.974	101.89
205.193	11.78
205.411	19.97
205.63	7.68
205.849	91.65
206.068	38.4
206.287	-14.85
206.505	24.06
206.724	-31.23
206.943	26.11
207.162	3.58
207.381	-10.75
207.599	-25.09
207.818	-39.42
208.037	71.17
208.255	-49.66
208.474	62.98
208.693	-23.04
208.911	5.63
209.13	-18.94
209.349	-27.14
209.567	114.17
209.786	75.26
210.005	52.74
210.223	13.82
210.442	40.45
210.661	50.69
210.879	-2.56
211.098	17.92
211.316	26.11
211.535	52.74
211.753	-27.14
211.972	75.26
212.191	-43.52
212.409	11.78
212.628	34.3
212.846	54.78
213.065	50.69
213.283	65.02
213.502	44.54
213.72	75.26
213.938	15.87
214.157	22.02
214.375	42.5
214.594	83.45
214.812	48.64
215.031	-4.61
215.249	30.21
215.467	58.88
215.686	34.3
215.904	67.07
216.122	15.87
216.341	91.65
216.559	93.69
216.778	22.02
216.996	32.26
217.214	32.26
217.432	38.4
217.651	-4.61
217.869	-10.75
218.087	30.21
218.306	1.54
218.524	69.12
218.742	-57.86
218.96	40.45
219.179	-70.14
219.397	-35.33
219.615	108.03
219.833	50.69
220.051	46.59
220.27	56.83
220.488	95.74
220.706	67.07
220.924	28.16
221.142	15.87
221.36	-0.51
221.578	30.21
221.796	71.17
222.015	93.69
222.233	42.5
222.451	108.03
222.669	-23.04
222.887	95.74
223.105	42.5
223.323	-8.7
223.541	62.98
223.759	9.73
223.977	9.73
224.195	38.4
224.413	112.13
224.631	17.92
224.849	24.06
225.067	122.37
225.285	-25.09
225.503	101.89
225.721	-43.52
225.939	38.4
226.157	5.63
226.375	132.61
226.592	-2.56
226.81	87.55
227.028	116.22
227.246	89.6
227.464	-49.66
227.682	44.54
227.9	73.21
228.117	24.06
228.335	38.4
228.553	122.37
228.771	67.07
228.989	91.65
229.206	42.5
229.424	67.07
229.642	48.64
229.86	15.87
230.077	81.41
230.295	7.68
230.513	-0.51
230.731	58.88
230.948	46.59
231.166	40.45
231.384	50.69
231.601	28.16
231.819	56.83
232.037	-14.85
232.254	19.97
232.472	-10.75
232.689	3.58
232.907	44.54
233.125	95.74
233.342	-18.94
233.56	58.88
233.777	28.16
233.995	-37.38
234.213	42.5
234.43	-20.99
234.648	75.26
234.865	58.88
235.083	13.82
235.3	38.4
235.518	118.27
235.735	108.03
235.953	36.35
236.17	1.54
236.388	108.03
236.605	38.4
236.822	73.21
237.04	-47.62
237.257	75.26
237.475	17.92
237.692	56.83
237.909	62.98
238.127	83.45
238.344	-20.99
238.562	-4.61
238.779	5.63
238.996	36.35
239.214	28.16
239.431	56.83
239.648	-8.7
239.865	54.78
240.083	97.79
240.3	7.68
240.517	-16.9
240.735	26.11
240.952	116.22
241.169	69.12
241.386	83.45
241.603	-78.33
241.821	34.3
242.038	71.17
242.255	-14.85
242.472	-18.94
242.689	-2.56
242.907	67.07
243.124	7.68
243.341	69.12
243.558	30.21
243.775	-0.51
243.992	34.3
244.209	75.26
244.426	83.45
244.643	69.12
244.86	-4.61
245.078	9.73
245.295	83.45
245.512	1.54
245.729	95.74
245.946	83.45
246.163	7.68
246.38	22.02
246.597	1.54
246.814	-0.51
247.031	26.11
247.248	22.02
247.464	50.69
247.681	48.64
247.898	1.54
248.115	103.93
248.332	83.45
248.549	99.84
248.766	60.93
248.983	93.69
249.2	26.11
249.417	87.55
249.633	36.35
249.85	-43.52
250.067	69.12
250.284	62.98
250.501	5.63
250.717	85.5
250.934	62.98
251.151	-14.85
251.368	103.93
251.585	50.69
251.801	65.02
252.018	58.88
252.235	44.54
252.451	32.26
252.668	30.21
252.885	-8.7
253.102	120.32
253.318	-20.99
253.535	73.21
253.752	-27.14
253.968	17.92
254.185	-31.23
254.401	17.92
254.618	-2.56
254.835	44.54
255.051	34.3
255.268	155.13
255.484	9.73
255.701	79.36
255.917	48.64
256.134	-14.85
256.351	30.21
256.567	26.11
256.784	22.02
257	-45.57
257.217	32.26
257.433	89.6
257.65	103.93
257.866	15.87
258.082	3.58
258.299	110.08
258.515	48.64
258.732	42.5
258.948	-31.23
259.165	73.21
259.381	9.73
259.597	40.45
259.814	56.83
260.03	15.87
260.246	56.83
260.463	50.69
260.679	50.69
260.895	65.02
261.112	67.07
261.328	108.03
261.544	77.31
261.761	99.84
261.977	17.92
262.193	-16.9
262.409	5.63
262.626	40.45
262.842	105.98
263.058	-55.81
263.274	67.07
263.49	87.55
263.707	81.41
263.923	-2.56
264.139	50.69
264.355	15.87
264.571	79.36
264.787	69.12
265.004	30.21
265.22	50.69
265.436	-0.51
265.652	69.12
265.868	-6.66
266.084	71.17
266.3	110.08
266.516	17.92
266.732	54.78
266.948	-23.04
267.164	-4.61
267.38	69.12
267.596	32.26
267.812	120.32
268.028	17.92
268.244	58.88
268.46	-20.99
268.676	60.93
268.892	48.64
269.108	13.82
269.324	15.87
269.54	-0.51
269.756	103.93
269.972	-18.94
270.188	1.54
270.403	-6.66
270.619	46.59
270.835	81.41
271.051	11.78
271.267	28.16
271.483	32.26
271.698	73.21
271.914	54.78
272.13	87.55
272.346	83.45
272.562	28.16
272.777	75.26
272.993	48.64
273.209	-20.99
273.425	-6.66
273.64	-31.23
273.856	65.02
274.072	50.69
274.287	73.21
274.503	40.45
274.719	89.6
274.934	17.92
275.15	-10.75
275.366	97.79
275.581	13.82
275.797	11.78
276.012	-49.66
276.228	50.69
276.444	67.07
276.659	56.83
276.875	22.02
277.09	22.02
277.306	34.3
277.521	42.5
277.737	34.3
277.952	73.21
278.168	56.83
278.383	103.93
278.599	54.78
278.814	38.4
279.03	36.35
279.245	83.45
279.461	-31.23
279.676	126.46
279.892	30.21
280.107	19.97
280.322	-45.57
280.538	24.06
280.753	40.45
280.969	40.45
281.184	73.21
281.399	114.17
281.615	93.69
281.83	83.45
282.045	-47.62
282.26	-0.51
282.476	40.45
282.691	34.3
282.906	32.26
283.122	71.17
283.337	52.74
283.552	83.45
283.767	67.07
283.983	60.93
284.198	17.92
284.413	-14.85
284.628	52.74
284.843	-47.62
285.058	95.74
285.274	-59.9
285.489	46.59
285.704	85.5
285.919	1.54
286.134	9.73
286.349	34.3
286.564	69.12
286.779	42.5
286.995	-61.95
287.21	38.4
287.425	89.6
287.64	34.3
287.855	32.26
288.07	-6.66
288.285	69.12
288.5	99.84
288.715	138.75
288.93	26.11
289.145	32.26
289.36	9.73
289.575	69.12
289.79	65.02
290.004	-8.7
290.219	9.73
290.434	62.98
290.649	62.98
290.864	34.3
291.079	1.54
291.294	73.21
291.509	58.88
291.724	13.82
291.938	15.87
292.153	62.98
292.368	9.73
292.583	54.78
292.798	44.54
293.012	46.59
293.227	32.26
293.442	54.78
293.657	-41.47
293.871	65.02
294.086	60.93
294.301	120.32
294.516	1.54
294.73	28.16
294.945	-14.85
295.16	1.54
295.374	165.37
295.589	140.8
295.804	-27.14
296.018	34.3
296.233	-6.66
296.447	93.69
296.662	34.3
296.877	114.17
297.091	19.97
297.306	13.82
297.52	46.59
297.735	58.88
297.949	26.11
298.164	17.92
298.378	52.74
298.593	11.78
298.807	9.73
299.022	-53.76
299.236	54.78
299.451	50.69
299.665	1.54
299.88	17.92
300.094	28.16
300.309	73.21
300.523	67.07
300.737	32.26
300.952	15.87
301.166	5.63
301.381	-14.85
301.595	-25.09
301.809	42.5
302.024	60.93
302.238	71.17
302.452	122.37
302.667	-33.28
302.881	83.45
303.095	54.78
303.309	-2.56
303.524	34.3
303.738	5.63
303.952	36.35
304.166	73.21
304.381	13.82
304.595	-8.7
304.809	-0.51
305.023	93.69
305.237	-16.9
305.452	60.93
305.666	19.97
305.88	71.17
306.094	36.35
306.308	87.55
306.522	67.07
306.736	40.45
306.95	73.21
307.164	73.21
307.379	69.12
307.593	118.27
307.807	36.35
308.021	60.93
308.235	17.92
308.449	34.3
308.663	-23.04
308.877	71.17
309.091	13.82
309.305	50.69
309.519	32.26
309.733	73.21
309.947	22.02
310.161	91.65
310.374	73.21
310.588	93.69
310.802	22.02
311.016	-16.9
311.23	26.11
311.444	34.3
311.658	87.55
311.872	91.65
312.085	56.83
312.299	124.41
312.513	138.75
312.727	187.9
312.941	-16.9
313.154	62.98
313.368	71.17
313.582	-14.85
313.796	15.87
314.009	13.82
314.223	75.26
314.437	50.69
314.651	142.85
314.864	128.51
315.078	32.26
315.292	81.41
315.505	30.21
315.719	110.08
315.933	26.11
316.146	-27.14
316.36	-18.94
316.573	120.32
316.787	65.02
317.001	93.69
317.214	26.11
317.428	62.98
317.641	-0.51
317.855	24.06
318.068	32.26
318.282	56.83
318.495	71.17
318.709	54.78
318.922	50.69
319.136	77.31
319.349	83.45
319.563	75.26
319.776	48.64
319.99	67.07
320.203	97.79
320.417	79.36
320.63	48.64
320.843	73.21
321.057	40.45
321.27	89.6
321.483	87.55
321.697	71.17
321.91	73.21
322.124	15.87
322.337	91.65
322.55	32.26
322.763	114.17
322.977	40.45
323.19	42.5
323.403	54.78
323.617	79.36
323.83	46.59
324.043	46.59
324.256	-2.56
324.469	-27.14
324.683	15.87
324.896	-10.75
325.109	-10.75
325.322	-29.18
325.535	77.31
325.748	112.13
325.962	87.55
326.175	38.4
326.388	91.65
326.601	54.78
326.814	28.16
327.027	44.54
327.24	44.54
327.453	62.98
327.666	3.58
327.879	46.59
328.092	122.37
328.305	42.5
328.518	71.17
328.731	22.02
328.944	65.02
329.157	60.93
329.37	24.06
329.583	116.22
329.796	112.13
330.009	5.63
330.222	-27.14
330.435	83.45
330.648	56.83
330.861	-25.09
331.073	67.07
331.286	19.97
331.499	32.26
331.712	13.82
331.925	38.4
332.138	28.16
332.35	77.31
332.563	89.6
332.776	71.17
332.989	50.69
333.202	108.03
333.414	-16.9
333.627	81.41
333.84	79.36
334.053	32.26
334.265	-16.9
334.478	-23.04
334.691	62.98
334.903	116.22
335.116	36.35
335.329	58.88
335.541	65.02
335.754	140.8
335.966	-14.85
336.179	9.73
336.392	34.3
336.604	-31.23
336.817	-2.56
337.029	65.02
337.242	71.17
337.454	65.02
337.667	36.35
337.88	118.27
338.092	32.26
338.305	30.21
338.517	-2.56
338.729	130.56
338.942	146.94
339.154	114.17
339.367	1.54
339.579	65.02
339.792	26.11
340.004	65.02
340.217	-53.76
340.429	95.74
340.641	132.61
340.854	71.17
341.066	-10.75
341.278	40.45
341.491	99.84
341.703	34.3
341.915	11.78
342.128	89.6
342.34	-41.47
342.552	-2.56
342.764	50.69
342.977	9.73
343.189	114.17
343.401	77.31
343.613	32.26
343.826	54.78
344.038	36.35
344.25	85.5
344.462	-8.7
344.674	71.17
344.886	9.73
345.099	46.59
345.311	120.32
345.523	48.64
345.735	1.54
345.947	30.21
346.159	85.5
346.371	36.35
346.583	77.31
346.795	110.08
347.007	48.64
347.219	46.59
347.431	54.78
347.643	95.74
347.855	54.78
348.067	75.26
348.279	32.26
348.491	1.54
348.703	99.84
348.915	30.21
349.127	22.02
349.339	73.21
349.551	11.78
349.763	54.78
349.975	7.68
350.187	58.88
350.399	7.68
350.61	69.12
350.822	36.35
351.034	75.26
351.246	9.73
351.458	-20.99
351.669	93.69
351.881	11.78
352.093	144.89
352.305	54.78
352.517	15.87
352.728	136.7
352.94	77.31
353.152	52.74
353.363	38.4
353.575	22.02
353.787	48.64
353.999	67.07
354.21	89.6
354.422	62.98
354.633	56.83
354.845	148.99
355.057	40.45
355.268	-31.23
355.48	73.21
355.692	-2.56
355.903	67.07
356.115	89.6
356.326	-0.51
356.538	132.61
356.749	130.56
356.961	42.5
357.172	69.12
357.384	65.02
357.595	116.22
357.807	83.45
358.018	44.54
358.23	52.74
358.441	97.79
358.653	99.84
358.864	30.21
359.075	54.78
359.287	56.83
359.498	56.83
359.709	32.26
359.921	36.35
360.132	24.06
360.344	58.88
360.555	32.26
360.766	99.84
360.977	44.54
361.189	69.12
361.4	24.06
361.611	30.21
361.823	58.88
362.034	58.88
362.245	42.5
362.456	-10.75
362.667	58.88
362.879	60.93
363.09	-0.51
363.301	97.79
363.512	22.02
363.723	-20.99
363.935	-29.18
364.146	71.17
364.357	42.5
364.568	38.4
364.779	77.31
364.99	114.17
365.201	38.4
365.412	71.17
365.623	-14.85
365.834	134.65
366.045	-8.7
366.256	73.21
366.467	93.69
366.678	40.45
366.889	30.21
367.1	71.17
367.311	83.45
367.522	65.02
367.733	97.79
367.944	34.3
368.155	1.54
368.366	60.93
368.577	110.08
368.788	114.17
368.999	13.82
369.209	50.69
369.42	75.26
369.631	189.95
369.842	56.83
370.053	83.45
370.264	108.03
370.474	13.82
370.685	75.26
370.896	7.68
371.107	118.27
371.317	114.17
371.528	58.88
371.739	79.36
371.95	42.5
372.16	81.41
372.371	36.35
372.582	28.16
372.792	48.64
373.003	79.36
373.214	110.08
373.424	87.55
373.635	48.64
373.846	97.79
374.056	75.26
374.267	95.74
374.477	34.3
374.688	54.78
374.898	103.93
375.109	136.7
375.319	58.88
375.53	89.6
375.74	67.07
375.951	65.02
376.161	118.27
376.372	75.26
376.582	60.93
376.793	112.13
377.003	22.02
377.214	87.55
377.424	-0.51
377.635	30.21
377.845	56.83
378.055	118.27
378.266	83.45
378.476	71.17
378.686	103.93
378.897	50.69
379.107	101.89
379.317	157.18
379.528	65.02
379.738	120.32
379.948	52.74
380.158	153.09
380.369	112.13
380.579	67.07
380.789	13.82
380.999	32.26
381.21	124.41
381.42	108.03
381.63	-43.52
381.84	91.65
382.05	75.26
382.261	81.41
382.471	116.22
382.681	-2.56
382.891	83.45
383.101	155.13
383.311	9.73
383.521	-31.23
383.731	65.02
383.941	71.17
384.151	52.74
384.361	40.45
384.571	81.41
384.781	73.21
384.991	71.17
385.201	42.5
385.411	50.69
385.621	5.63
385.831	83.45
386.041	75.26
386.251	69.12
386.461	50.69
386.671	54.78
386.881	58.88
387.091	22.02
387.301	116.22
387.511	50.69
387.72	93.69
387.93	142.85
388.14	-33.28
388.35	79.36
388.56	105.98
388.769	77.31
388.979	62.98
389.189	3.58
389.399	54.78
389.609	155.13
389.818	52.74
390.028	79.36
390.238	60.93
390.447	58.88
390.657	75.26
390.867	124.41
391.076	54.78
391.286	77.31
391.496	140.8
391.705	42.5
391.915	79.36
392.125	116.22
392.334	1.54
392.544	185.85
392.753	126.46
392.963	56.83
393.172	87.55
393.382	91.65
393.591	181.76
393.801	40.45
394.01	110.08
394.22	144.89
394.429	44.54
394.639	89.6
394.848	89.6
395.058	75.26
395.267	161.28
395.477	196.09
395.686	169.47
395.895	124.41
396.105	155.13
396.314	69.12
396.524	165.37
396.733	75.26
396.942	105.98
397.152	194.05
397.361	91.65
397.57	34.3
397.78	122.37
397.989	161.28
398.198	87.55
398.407	140.8
398.617	83.45
398.826	101.89
399.035	126.46
399.244	214.52
399.453	146.94
399.663	140.8
399.872	89.6
400.081	175.61
400.29	108.03
400.499	62.98
400.708	77.31
400.917	99.84
401.127	69.12
401.336	142.85
401.545	214.52
401.754	165.37
401.963	194.05
402.172	165.37
402.381	136.7
402.59	189.95
402.799	218.62
403.008	134.65
403.217	148.99
403.426	181.76
403.635	58.88
403.844	118.27
404.053	173.57
404.262	142.85
404.471	146.94
404.68	155.13
404.888	163.33
405.097	91.65
405.306	237.05
405.515	153.09
405.724	196.09
405.933	212.48
406.142	255.48
406.35	235
406.559	171.52
406.768	230.91
406.977	239.1
407.185	237.05
407.394	251.39
407.603	271.87
407.812	261.63
408.02	333.31
408.229	175.61
408.438	278.01
408.646	245.24
408.855	284.16
409.064	230.91
409.272	239.1
409.481	335.35
409.69	370.17
409.898	327.16
410.107	425.47
410.315	349.69
410.524	376.31
410.733	384.51
410.941	376.31
411.15	407.03
411.358	335.35
411.567	437.75
411.775	417.27
411.984	484.86
412.192	437.75
412.401	472.57
412.609	595.45
412.818	558.58
413.026	478.71
413.234	546.3
413.443	583.16
413.651	548.34
413.86	652.79
414.068	632.31
414.276	667.13
414.485	669.17
414.693	806.39
414.901	755.19
415.11	802.29
415.318	794.1
415.526	755.19
415.734	851.44
415.943	779.76
416.151	816.63
416.359	878.07
416.567	929.27
416.776	966.13
416.984	996.85
417.192	1117.68
417.4	986.61
417.608	1097.2
417.817	1193.45
418.025	1302
418.233	1254.89
418.441	1285.61
418.649	1283.56
418.857	1340.91
419.065	1412.59
419.273	1363.44
419.481	1426.92
419.689	1496.55
419.897	1541.61
420.105	1611.24
420.313	1660.39
420.521	1803.75
420.729	1816.04
420.937	1781.22
421.145	1996.26
421.353	1979.87
421.561	2045.41
421.769	2229.73
421.977	2242.01
422.185	2205.15
422.393	2487.77
422.601	2504.15
422.809	2395.61
423.017	2571.74
423.224	2688.47
423.432	2807.25
423.64	2782.68
423.848	3028.43
424.056	2858.45
424.263	3179.98
424.471	3089.87
424.679	3360.2
424.887	3552.71
425.094	3558.86
425.302	3544.52
425.51	3632.58
425.718	3683.78
425.925	3841.48
426.133	3915.2
426.341	4126.15
426.548	4402.62
426.756	4294.08
426.964	4410.81
427.171	4646.33
427.379	4701.62
427.586	4814.26
427.794	4816.31
428.001	5121.46
428.209	5467.56
428.417	5338.54
428.624	5961.13
428.832	5711.27
429.039	5625.26
429.247	5713.32
429.454	6270.37
429.662	6593.95
429.869	6190.5
430.076	6671.77
430.284	6602.14
430.491	6851.99
430.699	7028.12
430.906	7267.73
431.114	7228.82
431.321	7433.61
431.528	7767.43
431.736	8144.26
431.943	8566.14
432.15	8242.56
432.358	8357.25
432.565	8822.14
432.772	8723.83
432.979	9336.18
433.187	9332.08
433.394	9440.62
433.601	10235.24
433.808	9932.14
434.016	9940.33
434.223	10397.03
434.43	11238.74
434.637	10790.24
434.844	11459.92
435.052	11775.31
435.259	11887.95
435.466	11861.32
435.673	11814.22
435.88	12447.04
436.087	13034.81
436.294	13067.58
436.501	12653.89
436.708	13100.34
436.915	13518.13
437.122	13970.73
437.329	14075.18
437.537	14368.04
437.743	14628.13
437.95	14546.21
438.157	15498.52
438.364	15844.62
438.571	15645.97
438.778	16139.53
438.985	17632.5
439.192	16772.35
439.399	17419.51
439.606	16766.21
439.813	18119.92
440.02	19076.32
440.227	18476.26
440.433	18511.08
440.64	18951.39
440.847	18994.4
441.054	19360.98
441.261	20651.2
441.467	20632.77
441.674	20747.46
441.881	21660.85
442.088	21607.61
442.294	21501.11
442.501	21826.74
442.708	22207.66
442.914	23090.34
443.121	23907.48
443.328	23823.51
443.534	25064.58
443.741	24126.61
443.948	24200.33
444.154	25992.31
444.361	25623.67
444.568	25957.49
444.774	26020.98
444.981	26113.14
445.187	26715.24
445.394	28060.76
445.6	27638.87
445.807	30510.13
446.013	28818.5
446.22	29299.78
446.426	30346.29
446.633	30741.55
446.839	31632.41
447.046	30483.5
447.252	31999
447.459	32504.85
447.665	32003.1
447.871	33532.93
448.078	34739.18
448.284	33315.84
448.491	34259.96
448.697	35130.34
448.903	35865.56
449.11	36006.87
449.316	35468.26
449.522	35906.52
449.728	36977.61
449.935	37411.78
450.141	36893.65
450.347	37948.35
450.553	36295.64
450.76	37157.83
450.966	38493.11
451.172	37749.7
451.378	38712.24
451.584	38028.22
451.791	38824.88
451.997	38403
452.203	39177.13
452.409	39138.22
452.615	38685.62
452.821	37757.89
453.027	36985.8
453.233	38837.17
453.44	37372.87
453.646	37891.01
453.852	37663.68
454.058	38501.3
454.264	37153.74
454.47	38165.43
454.676	37000.14
454.882	38902.7
455.088	35144.68
455.294	35091.43
455.5	35857.37
455.705	36522.96
455.911	34671.6
456.117	34003.96
456.323	33645.57
456.529	31644.7
456.735	32875.53
456.941	32232.47
457.147	32064.53
457.352	30817.32
457.558	30280.75
457.764	30360.62
457.97	30030.9
458.176	29264.96
458.381	29240.39
458.587	27415.65
458.793	27774.04
458.999	26381.42
459.204	28052.56
459.41	27442.27
459.616	25478.27
459.821	25480.32
460.027	25697.4
460.233	25056.39
460.438	23805.08
460.644	24151.18
460.85	22998.18
461.055	22604.97
461.261	22711.46
461.466	20823.23
461.672	19989.71
461.878	21740.72
462.083	20313.29
462.289	20077.77
462.494	19944.66
462.7	18994.4
462.905	18529.51
463.111	19336.41
463.316	19031.26
463.522	18660.58
463.727	18846.94
463.932	18709.73
464.138	18547.94
464.343	18447.59
464.549	18154.73
464.754	18738.4
464.959	18576.61
465.165	18349.29
465.37	17548.53
465.575	17325.3
465.781	17900.78
465.986	17915.12
466.191	17384.69
466.397	16973.05
466.602	16241.93
466.807	16835.84
467.012	16821.5
467.218	16907.52
467.423	16479.49
467.628	16725.25
467.833	17331.45
468.038	16723.2
468.244	16200.97
468.449	17095.93
468.654	16143.63
468.859	16200.97
469.064	16100.62
469.269	15525.14
469.474	15670.54
469.679	16030.99
469.885	15613.2
470.09	15664.4
470.295	15545.62
470.5	14980.38
470.705	15340.82
470.91	14902.56
471.115	14742.82
471.32	15082.78
471.525	14964
471.73	14468.39
471.935	14431.52
472.139	13954.35
472.344	14095.66
472.549	13983.02
472.754	13972.78
472.959	13677.87
473.164	13280.57
473.369	13204.79
473.574	13720.88
473.778	13554.99
473.983	13348.15
474.188	13348.15
474.393	12856.64
474.598	12678.46
474.802	12541.25
475.007	12557.63
475.212	12719.42
475.417	12098.89
475.621	12330.31
475.826	12154.18
476.031	12135.75
476.235	11779.4
476.44	11826.51
476.645	11896.14
476.849	11683.15
477.054	11652.43
477.259	11539.79
477.463	11185.49
477.668	11226.45
477.872	11386.19
478.077	11332.95
478.282	10788.19
478.486	10878.3
478.691	10702.17
478.895	10706.27
479.1	10730.84
479.304	10526.05
479.509	10349.92
479.713	10478.94
479.918	10306.91
480.122	10085.73
480.326	10280.29
480.531	10366.31
480.735	10104.17
480.94	10030.44
481.144	10581.34
481.348	10255.72
481.553	9977.19
481.757	9823.59
481.961	10155.37
482.166	10128.74
482.37	10059.11
482.574	9948.52
482.778	9956.71
482.983	10007.91
483.187	10106.21
483.391	10110.31
483.595	9979.24
483.8	10026.34
484.004	10034.53
484.208	9971.05
484.412	9885.03
484.616	10063.21
484.821	9858.41
485.025	9811.31
485.229	9866.6
485.433	9887.08
485.637	9876.84
485.841	10036.58
486.045	10005.86
486.249	9880.94
486.453	9799.02
486.657	9983.34
486.861	9942.38
487.065	9737.58
487.269	9874.79
487.473	9823.59
487.677	10130.79
487.881	10225
488.085	9973.1
488.289	9975.14
488.493	9950.57
488.697	10192.23
488.901	10020.2
489.105	10126.69
489.309	10241.38
489.512	10071.4
489.716	10192.23
489.92	10278.24
490.124	10163.56
490.328	10372.45
490.531	10009.96
490.735	10538.34
490.939	10409.31
491.143	10394.98
491.346	10284.39
491.55	10409.31
491.754	10618.21
491.958	10390.88
492.161	10351.97
492.365	10595.68
492.569	10446.18
492.772	10515.81
492.976	10851.67
493.18	10573.15
493.383	10818.91
493.587	11003.22
493.79	11050.33
493.994	10943.83
494.197	11027.8
494.401	11265.36
494.605	11076.95
494.808	11433.3
495.012	11326.8
495.215	11541.84
495.419	11720.01
495.622	11294.04
495.825	11607.37
496.029	11793.74
496.232	12113.22
496.436	12014.92
496.639	12240.2
496.843	12139.85
497.046	12399.94
497.249	12672.32
497.453	12700.99
497.656	12651.84
497.859	12954.94
498.063	13051.19
498.266	13184.31
498.469	13243.7
498.673	13315.38
498.876	13530.42
499.079	13661.49
499.282	13516.08
499.485	14007.59
499.689	13788.46
499.892	14114.09
500.095	14425.38
500.298	14710.05
500.501	14349.61
500.705	15033.63
500.908	15277.33
501.111	15279.38
501.314	15234.33
501.517	15385.88
501.72	15824.14
501.923	15832.33
502.126	16057.61
502.329	16262.41
502.532	16717.06
502.735	16459.01
502.938	16805.12
503.141	16882.94
503.344	16803.07
503.547	17136.89
503.75	17450.23
503.953	17810.67
504.156	17706.23
504.359	18048.24
504.562	17947.89
504.765	18554.08
504.968	18785.51
505.17	18644.2
505.373	18728.16
505.576	19254.49
505.779	19682.52
505.982	19842.26
506.185	19850.45
506.387	19942.61
506.59	20393.16
506.793	20536.52
506.996	20442.31
507.198	20888.77
507.401	21025.98
507.604	21372.09
507.807	21839.03
508.009	21783.73
508.212	21937.33
508.415	21984.43
508.617	22410.41
508.82	22408.36
509.022	22344.88
509.225	23076
509.428	23100.58
509.63	23510.17
509.833	23614.62
510.035	24071.31
510.238	24007.83
510.44	24546.44
510.643	24693.9
510.845	25160.83
511.048	24849.54
511.25	25498.75
511.453	25533.56
511.655	26106.99
511.858	25824.37
512.06	25894
512.262	26561.64
512.465	26207.34
512.667	26770.54
512.87	27264.1
513.072	27071.59
513.274	27929.69
513.477	28216.4
513.679	28206.16
513.881	28699.72
514.084	29176.9
514.286	29201.47
514.488	29340.74
514.69	30174.26
514.893	29920.31
515.095	30196.79
515.297	30635.05
515.499	30225.46
515.701	30821.42
515.904	31343.65
516.106	31394.85
516.308	31624.22
516.51	32513.04
516.712	32064.53
516.914	32551.95
517.116	33111.05
517.318	33164.29
517.52	33723.39
517.722	33434.63
517.925	33657.85
518.127	34116.6
518.329	34397.17
518.531	34579.44
518.733	34921.45
518.935	35546.08
519.136	35523.55
519.338	35986.39
519.54	35822.56
519.742	36445.14
519.944	36510.67
520.146	37067.72
520.348	37362.63
520.55	37307.33
520.752	37129.16
520.954	38396.85
521.155	37702.59
521.357	38341.56
521.559	38738.86
521.761	39635.88
521.963	39369.64
522.164	39744.42
522.366	39725.99
522.568	39979.93
522.77	40127.39
522.971	40758.16
523.173	40260.51
523.375	41143.18
523.576	40946.58
523.778	41044.88
523.98	41778.05
524.181	41477
524.383	42077.05
524.584	42111.87
524.786	42500.98
524.988	42302.33
525.189	43060.08
525.391	43330.41
525.592	43191.15
525.794	43594.6
525.995	43365.23
526.197	43301.74
526.398	43551.59
526.6	44030.82
526.801	44403.55
527.003	44241.76
527.204	44321.63
527.406	44995.41
527.607	44856.15
527.808	45280.08
528.01	44260.19
528.211	44714.84
528.412	45861.7
528.614	45341.52
528.815	45574.98
529.016	46070.59
529.218	45478.73
529.419	45806.41
529.62	45558.6
529.822	46377.79
530.023	45960
530.224	46039.87
530.425	46125.89
530.626	45620.04
530.828	46113.6
531.029	47135.54
531.23	45986.63
531.431	46590.78
531.632	46357.31
531.833	46861.11
532.035	46510.91
532.236	46615.35
532.437	46887.73
532.638	47018.8
532.839	47133.49
533.04	47141.68
533.241	46553.91
533.442	47420.2
533.643	47059.76
533.844	46914.36
534.045	47483.69
534.246	46785.33
534.447	47158.06
534.648	47018.8
534.849	47264.56
535.05	46713.66
535.251	46824.25
535.451	46977.84
535.652	47242.03
535.853	46840.63
536.054	47485.74
536.255	48032.55
536.456	46975.8
536.657	47528.75
536.857	47065.91
537.058	47141.68
537.259	47352.62
537.46	47668.01
537.66	47309.61
537.861	47289.13
538.062	46832.44
538.263	47430.44
538.463	47153.97
538.664	46852.92
538.865	47440.68
539.065	47461.16
539.266	47059.76
539.466	48040.74
539.667	47280.94
539.868	47729.45
540.068	47311.66
540.269	47354.67
540.469	47033.14
540.67	47131.44
540.87	47422.25
541.071	47098.67
541.271	46996.27
541.472	47104.82
541.672	46701.37
541.873	47000.37
542.073	46385.98
542.274	47139.63
542.474	46957.36
542.675	46783.29
542.875	46943.03
543.075	47098.67
543.276	46510.91
543.476	47557.42
543.676	46588.73
543.877	47293.23
544.077	46621.5
544.277	47016.75
544.478	46734.13
544.678	47100.72
544.878	46990.13
545.078	47063.86
545.279	46410.56
545.479	46844.73
545.679	46959.41
545.879	47033.14
546.079	47455.02
546.28	46893.88
546.48	46660.41
546.68	46926.64
546.88	47061.81
547.08	47156.02
547.28	46803.77
547.48	46605.11
547.68	46582.59
547.88	46789.43
548.081	46750.52
548.281	46910.26
548.481	46738.23
548.681	47262.51
548.881	46668.6
549.081	46779.19
549.28	46371.64
549.48	47065.91
549.68	46277.44
549.88	47190.83
550.08	46644.02
550.28	46879.54
550.48	46250.81
550.68	46926.64
550.88	46656.31
551.08	46410.56
551.279	46521.15
551.479	46412.6
551.679	46623.54
551.879	46369.6
552.079	46615.35
552.278	46242.62
552.478	46775.09
552.678	46418.75
552.878	46463.8
553.077	46558.01
553.277	45994.82
553.477	46738.23
553.676	46205.76
553.876	46306.11
554.076	45970.24
554.275	46025.54
554.475	45994.82
554.674	46461.76
554.874	46058.31
555.074	45929.28
555.273	45894.47
555.473	46828.34
555.672	45724.49
555.872	45771.59
556.071	46013.25
556.271	46402.36
556.47	45730.63
556.67	45552.46
556.869	45857.6
557.068	46304.06
557.268	45652.81
557.467	45574.98
557.667	45718.34
557.866	45538.12
558.065	45292.36
558.265	45386.57
558.464	45370.19
558.663	45683.53
558.863	44868.44
559.062	45681.48
559.261	44852.05
559.461	45486.92
559.66	44763.99
559.859	44991.31
560.058	44526.42
560.258	45218.64
560.457	44880.72
560.656	44813.14
560.855	44446.55
561.054	44665.69
561.253	44645.21
561.453	44528.47
561.652	44882.77
561.851	44870.48
562.05	44145.5
562.249	44077.92
562.448	44559.19
562.647	44114.78
562.846	44041.06
563.045	44161.89
563.244	43973.47
563.443	44036.96
563.642	43717.48
563.841	44006.24
564.04	43801.44
564.239	44002.14
564.438	43549.54
564.637	44141.41
564.836	43840.36
565.035	43127.66
565.234	43463.53
565.432	43617.13
565.631	43277.16
565.83	43688.81
566.029	42799.99
566.228	42890.1
566.427	42564.47
566.625	42638.2
566.824	42279.8
567.023	42849.14
567.222	41927.55
567.42	42777.46
567.619	42484.6
567.818	42623.86
568.016	42441.59
568.215	42437.5
568.414	42376.06
568.612	42462.07
568.811	42101.63
569.01	41995.14
569.208	41646.98
569.407	41898.88
569.605	41108.36
569.804	42175.36
570.002	41630.6
570.201	41681.8
570.4	41323.4
570.598	41020.3
570.797	40858.51
570.995	41339.79
571.193	40965.01
571.392	41288.59
571.59	40743.83
571.789	40571.8
571.987	40375.19
572.186	40498.07
572.384	40168.35
572.582	40430.49
572.781	40610.71
572.979	39660.45
573.177	39893.92
573.376	40149.92
573.574	39472.04
573.772	39818.14
573.971	39789.47
574.169	39635.88
574.367	39506.85
574.565	39676.83
574.763	39519.14
574.962	38933.42
575.16	39029.68
575.358	39302.06
575.556	38443.96
575.754	39648.16
575.952	38728.63
576.151	38919.09
576.349	38878.13
576.547	38601.65
576.745	38708.15
576.943	38634.42
577.141	38276.02
577.339	38489.01
577.537	38138.81
577.735	38228.92
577.933	37716.93
578.131	38138.81
578.329	37821.37
578.527	37884.86
578.725	37690.3
578.923	38132.67
579.121	37446.6
579.319	37852.09
579.516	37254.09
579.714	36946.89
579.912	37170.12
580.11	37198.79
580.308	36658.13
580.506	37100.49
580.704	36383.7
580.901	36936.65
581.099	37016.52
581.297	36412.37
581.495	36436.95
581.692	36565.97
581.89	36234.2
582.088	36056.03
582.285	36027.35
582.483	36502.48
582.681	36361.17
582.878	36172.76
583.076	35507.17
583.274	36146.14
583.471	35572.71
583.669	35711.97
583.866	35458.02
584.064	35607.52
584.262	35355.62
584.459	35697.63
584.657	35288.04
584.854	35365.86
585.052	34941.93
585.249	35130.34
585.447	35017.71
585.644	34528.24
585.841	34929.64
586.039	35199.97
586.236	34014.2
586.434	34231.29
586.631	33864.7
586.828	34360.31
587.026	34483.19
587.223	34178.04
587.42	33786.88
587.618	33852.41
587.815	33457.15
588.012	33854.46
588.21	33690.62
588.407	33831.93
588.604	33256.45
588.801	32959.5
588.999	33422.34
589.196	33141.77
589.393	33258.5
589.59	32660.49
589.787	32873.48
589.984	32533.52
590.182	32226.32
590.379	32785.42
590.576	32070.68
590.773	32281.62
590.97	32214.04
591.167	32191.51
591.364	31915.03
591.561	32373.78
591.758	32211.99
591.955	32168.98
592.152	32128.02
592.349	32064.53
592.546	31677.47
592.743	31683.61
592.94	31304.74
593.137	31296.55
593.334	31444
593.531	31265.83
593.727	31390.75
593.924	31138.85
594.121	30819.37
594.318	31005.73
594.515	30821.42
594.712	31204.39
594.908	30843.95
595.105	31052.84
595.302	30465.07
595.499	30600.24
595.696	30420.02
595.892	30546.99
596.089	30182.45
596.286	30288.95
596.482	30010.42
596.679	29928.5
596.876	29617.21
597.072	29619.26
597.269	29967.41
597.466	29623.36
597.662	29795.39
597.859	29633.6
598.055	29389.89
598.252	29258.82
598.448	29307.97
598.645	29490.24
598.841	28939.33
599.038	28800.07
599.234	29162.56
599.431	28689.48
599.627	28593.23
599.824	28726.35
600.02	28374.1
600.217	28519.5
600.413	28621.9
600.609	28324.94
600.806	28138.58
601.002	28580.94
601.198	28179.54
601.395	28197.97
601.591	27960.41
601.787	27982.93
601.984	27647.07
602.18	28120.15
602.376	27472.99
602.572	27427.93
602.769	27577.44
602.965	26987.62
603.161	27380.83
603.357	27038.82
603.553	27260
603.75	26874.98
603.946	26877.03
604.142	27040.87
604.338	26942.56
604.534	26920.04
604.73	26590.31
604.926	26449
605.122	26610.79
605.318	26430.57
605.514	26053.75
605.71	26209.39
605.906	26500.2
606.102	26279.02
606.298	26592.36
606.494	26215.54
606.69	26152.05
606.886	25894
607.082	25828.47
607.278	26020.98
607.474	25453.69
607.67	25918.58
607.866	25097.35
608.062	25601.15
608.257	25605.24
608.453	25410.68
608.649	25373.82
608.845	25113.73
609.041	25197.7
609.236	25117.82
609.432	25087.11
609.628	25332.86
609.824	24800.39
610.019	25123.97
610.215	24786.05
610.411	24845.44
610.606	24687.75
610.802	25179.26
610.998	24611.98
611.193	24810.63
611.389	24472.71
611.584	24427.66
611.78	24325.26
611.976	24274.06
612.171	24591.5
612.367	24024.21
612.562	24167.57
612.758	23768.21
612.953	24157.33
613.149	24343.69
613.344	24065.17
613.539	24302.73
613.735	23848.08
613.93	24112.27
614.126	23817.36
614.321	23794.84
614.517	24235.15
614.712	23710.87
614.907	23405.72
615.103	23798.93
615.298	23780.5
615.493	23737.49
615.688	23305.37
615.884	23938.19
616.079	23209.12
616.274	23528.6
616.47	23512.22
616.665	23477.4
616.86	23020.7
617.055	23182.49
617.25	23547.03
617.445	23086.24
617.641	22949.03
617.836	23106.72
618.031	22627.49
618.226	23131.3
618.421	22521
618.616	22760.61
618.811	22434.99
619.006	22770.85
619.201	22283.44
619.396	22518.95
619.591	22291.63
619.786	22289.58
619.981	21593.27
620.176	22178.99
620.371	21834.93
620.566	22072.5
620.761	21699.76
620.956	21748.92
621.151	21347.51
621.346	21765.3
621.541	20929.73
621.735	21458.1
621.93	21085.37
622.125	21060.8
622.32	20931.78
622.515	20845.76
622.709	20837.57
622.904	20733.12
623.099	20518.09
623.294	20675.78
623.488	20419.78
623.683	20456.65
623.878	20290.76
624.072	20231.37
624.267	19930.32
624.462	19801.3
624.656	19514.58
624.851	19637.46
625.046	19408.09
625.24	19555.54
625.435	19358.94
625.629	19330.27
625.824	19205.34
626.018	19178.72
626.213	18873.57
626.407	19432.66
626.602	18687.2
626.796	18552.04
626.991	18848.99
627.185	18494.69
627.38	18380.01
627.574	18351.34
627.768	18134.25
627.963	18081
628.157	18031.85
628.352	17792.24
628.546	17386.74
628.74	17974.51
628.935	17515.76
629.129	17495.29
629.323	17138.94
629.517	17306.87
629.712	17241.34
629.906	17048.83
630.1	16899.33
630.294	16995.58
630.489	16659.71
630.683	16995.58
630.877	16469.25
631.071	16497.92
631.265	16641.28
631.459	16114.95
631.653	16418.05
631.848	16551.17
632.042	16207.11
632.236	16168.2
632.43	15758.61
632.624	16094.47
632.818	15699.22
633.012	15727.89
633.206	15537.43
633.4	15731.98
633.594	15402.26
633.788	15496.47
633.982	15541.52
634.176	15129.88
634.369	15160.6
634.563	15224.09
634.757	15078.68
634.951	14931.23
635.145	14939.42
635.339	15039.77
635.533	14738.72
635.726	14599.46
635.92	14570.79
636.114	14570.79
636.308	14435.62
636.501	14394.66
636.695	14437.67
636.889	14173.48
637.083	14122.28
637.276	14028.07
637.47	13884.72
637.664	13964.59
637.857	14007.59
638.051	13774.13
638.244	13712.69
638.438	13579.57
638.632	13532.47
638.825	13415.73
639.019	13210.93
639.212	13157.69
639.406	13161.78
639.599	13112.63
639.793	13141.3
639.986	12682.56
640.18	12862.78
640.373	12821.82
640.567	12559.68
640.76	12901.69
640.954	12533.06
641.147	12490.05
641.34	12500.29
641.534	12275.01
641.727	12318.02
641.92	12287.3
642.114	12170.57
642.307	12150.09
642.5	12330.31
642.694	11861.32
642.887	12080.46
643.08	12107.08
643.273	11892.04
643.467	11904.33
643.66	11664.72
643.853	11664.72
644.046	11353.43
644.239	11605.33
644.432	11308.37
644.626	11232.6
644.819	11459.92
645.012	11281.75
645.205	11263.32
645.398	11197.78
645.591	11101.53
645.784	11171.16
645.977	10718.56
646.17	10923.35
646.363	10833.24
646.556	10671.45
646.749	10757.47
646.942	10806.62
647.135	10362.21
647.328	10562.91
647.521	10374.5
647.714	10425.7
647.907	10374.5
648.099	10200.42
648.292	10354.02
648.485	10292.58
648.678	10061.16
648.871	9995.62
649.064	10177.89
649.256	9979.24
649.449	9913.7
649.642	9764.2
649.835	9612.65
650.027	9657.71
650.22	9717.1
650.413	9704.81
650.605	9626.99
650.798	9663.85
650.991	9497.97
651.183	9506.16
651.376	9375.09
651.568	9303.41
651.761	9393.52
651.954	9565.55
652.146	9321.84
652.339	9074.04
652.531	9172.34
652.724	8983.93
652.916	8889.72
653.109	8961.4
653.301	9080.18
653.494	8852.86
653.686	8824.19
653.879	8775.03
654.071	8781.18
654.263	8564.09
654.456	8744.31
654.648	8541.57
654.84	8365.44
655.033	8467.84
655.225	8471.93
655.417	8512.89
655.61	8521.09
655.802	8301.95
655.994	8224.13
656.186	8301.95
656.379	8074.63
656.571	8209.79
656.763	7961.99
656.955	8093.06
657.148	7943.56
657.34	7933.32
657.532	7875.98
657.724	7816.58
657.916	7904.65
658.108	7978.37
658.3	7626.12
658.492	7906.7
658.684	7538.06
658.876	7853.45
659.068	7560.59
659.26	7456.14
659.452	7533.97
659.644	7447.95
659.836	7431.57
660.028	7445.9
660.22	7388.56
660.412	7470.48
660.604	7275.92
660.796	7200.15
660.988	7107.99
661.18	7234.96
661.372	7097.75
661.563	7007.64
661.755	7044.5
661.947	7091.6
662.139	6950.29
662.331	6876.57
662.522	6841.75
662.714	6895
662.906	6765.98
663.097	6808.98
663.289	6864.28
663.481	6823.32
663.673	6636.95
663.864	6686.11
664.056	6636.95
664.247	6411.68
664.439	6423.97
664.631	6452.64
664.822	6430.11
665.014	6399.39
665.205	6405.53
665.397	6421.92
665.588	6325.66
665.78	6440.35
665.971	6348.19
666.163	6178.21
666.354	6172.07
666.546	5948.84
666.737	6311.33
666.929	6180.26
667.12	6184.35
667.311	6012.32
667.503	5868.97
667.694	6112.67
667.885	5977.51
668.077	6032.8
668.268	5971.36
668.459	5858.73
668.651	5797.29
668.842	5891.49
669.033	5735.85
669.224	5723.56
669.416	5965.22
669.607	5668.27
669.798	5862.82
669.989	5645.74
670.18	5774.76
670.371	5672.36
670.563	5541.29
670.754	5533.1
670.945	5567.92
671.136	5602.73
671.327	5526.96
671.518	5529
671.709	5547.44
671.9	5445.04
672.091	5381.55
672.282	5375.41
672.473	5432.75
672.664	5299.63
672.855	5230
673.046	5328.3
673.237	5258.67
673.428	5420.46
673.619	5207.47
673.809	5283.25
674	5115.31
674.191	5166.51
674.382	5287.34
674.573	5209.52
674.764	5113.27
674.954	5064.11
675.145	5062.07
675.336	5031.35
675.527	5057.97
675.717	4937.14
675.908	4892.09
676.099	5141.94
676.289	5064.11
676.48	4996.53
676.671	4916.66
676.861	5025.2
677.052	4939.19
677.243	4998.58
677.433	4969.91
677.624	5002.68
677.814	5025.2
678.005	4900.28
678.195	4849.08
678.386	4957.62
678.576	4838.84
678.767	4728.25
678.957	4738.49
679.148	4877.75
679.338	4783.54
679.529	4740.54
679.719	4558.27
679.909	4832.69
680.1	4683.19
680.29	4672.95
680.481	4730.3
680.671	4687.29
680.861	4697.53
681.052	4769.21
681.242	4636.09
681.432	4689.34
681.622	4457.92
681.813	4679.1
682.003	4711.86
682.193	4564.41
682.383	4734.39
682.573	4570.55
682.764	4468.16
682.954	4498.88
683.144	4466.11
683.334	4562.36
683.524	4382.14
683.714	4507.07
683.904	4593.08
684.094	4513.21
684.284	4548.03
684.474	4533.69
684.664	4396.48
684.854	4548.03
685.044	4568.51
685.234	4228.54
685.424	4605.37
685.614	4537.79
685.804	4359.61
685.994	4302.27
686.184	4283.84
686.374	4302.27
686.564	4183.49
686.753	4386.24
686.943	4160.96
687.133	4320.7
687.323	4361.66
687.513	4138.43
687.702	4224.45
687.892	4197.82
688.082	4195.78
688.272	4267.45
688.461	4193.73
688.651	4140.48
688.841	3988.93
689.03	4087.23
689.22	4021.7
689.41	3980.74
689.599	4081.09
689.789	4009.41
689.979	4033.99
690.168	4011.46
690.358	4074.95
690.547	3782.09
690.737	3950.02
690.926	3960.26
691.116	3804.61
691.305	3937.73
691.495	3929.54
691.684	3855.81
691.874	3927.49
692.063	3874.24
692.252	3773.89
692.442	3872.2
692.631	3798.47
692.82	3782.09
693.01	3775.94
693.199	3646.92
693.388	3622.34
693.578	3777.99
693.767	3741.13
693.956	3577.29
694.146	3632.58
694.335	3859.91
694.524	3634.63
694.713	3777.99
694.902	3651.02
695.092	3581.39
695.281	3546.57
695.47	3552.71
695.659	3579.34
695.848	3562.95
696.037	3571.15
696.226	3530.19
696.415	3550.67
696.604	3663.3
696.793	3671.5
696.982	3468.75
697.171	3565
697.36	3433.93
697.549	3487.18
697.738	3569.1
697.927	3425.74
698.116	3370.44
698.305	3409.36
698.494	3579.34
698.683	3442.12
698.872	3415.5
699.061	3392.97
699.25	3526.09
699.438	3409.36
699.627	3466.7
699.816	3493.32
700.005	3362.25
700.193	3429.84
700.382	3456.46
700.571	3368.4
700.76	3485.13
700.948	3333.58
701.137	3374.54
701.326	3347.92
701.514	3382.73
701.703	3433.93
701.892	3255.76
702.08	3370.44
702.269	3294.67
702.457	3329.49
702.646	3302.86
702.834	3184.08
703.023	3276.24
703.212	3429.84
703.4	3266
703.589	3306.96
703.777	3251.66
703.965	3356.11
704.154	3237.33
704.342	3323.34
704.531	3179.98
704.719	3270.09
704.907	3296.72
705.096	3249.61
705.284	3259.85
705.472	3323.34
705.661	3456.46
705.849	3343.82
706.037	3347.92
706.226	3163.6
706.414	3298.77
706.602	3270.09
706.79	3317.2
706.979	3327.44
707.167	3196.37
707.355	3147.22
707.543	3225.04
707.731	3347.92
707.919	3278.29
708.107	3196.37
708.296	3182.03
708.484	3122.64
708.672	3233.23
708.86	3263.95
709.048	3147.22
709.236	3079.63
709.424	3165.65
709.612	3114.45
709.8	3235.28
709.988	3198.42
710.176	3128.78
710.364	3171.79
710.551	3177.94
710.739	3179.98
710.927	3179.98
711.115	3018.19
711.303	3161.55
711.491	3030.48
711.679	3192.27
711.866	3161.55
712.054	3245.52
712.242	3081.68
712.43	3266
712.617	3206.61
712.805	3147.22
712.993	3057.11
713.181	3014.1
713.368	3030.48
713.556	3114.45
713.744	3038.67
713.931	3163.6
714.119	3018.19
714.306	3096.02
714.494	3016.15
714.682	2966.99
714.869	2991.57
715.057	3110.35
715.244	3018.19
715.432	3022.29
715.619	3034.58
715.807	2973.14
715.994	3089.87
716.182	3012.05
716.369	3147.22
716.556	3053.01
716.744	3048.91
716.931	3014.1
717.119	3110.35
717.306	3042.77
717.493	3079.63
717.681	3143.12
717.868	2983.38
718.055	2973.14
718.242	2964.95
718.43	3118.54
718.617	3089.87
718.804	3077.59
718.991	3061.2
719.179	2997.71
719.366	2942.42
719.553	3024.34
719.74	2917.84
719.927	3034.58
720.114	2981.33
720.301	3005.91
720.488	2999.76
720.676	3007.95
720.863	3016.15
721.05	3030.48
721.237	2971.09
721.424	2981.33
721.611	3016.15
721.798	2942.42
721.985	2889.17
722.172	2938.32
722.358	2827.73
722.545	2915.8
722.732	2926.04
722.919	2919.89
723.106	2973.14
723.293	2948.56
723.48	2866.64
723.667	2827.73
723.853	2745.81
724.04	2966.99
724.227	2977.23
724.414	2891.22
724.6	2756.05
724.787	2876.88
724.974	2907.6
725.161	2868.69
725.347	2770.39
725.534	2936.28
725.72	2930.13
725.907	2991.57
726.094	2794.97
726.28	2825.68
726.467	2807.25
726.653	2827.73
726.84	2852.31
727.027	2930.13
727.213	2807.25
727.4	2811.35
727.586	2872.79
727.773	2721.24
727.959	2801.11
728.145	2782.68
728.332	2717.14
728.518	2848.21
728.705	2858.45
728.891	2778.58
729.077	2749.91
729.264	2682.33
729.45	2696.66
729.636	2737.62
729.823	2778.58
730.009	2801.11
730.195	2719.19
730.382	2887.12
730.568	2711
730.754	2708.95
730.94	2743.77
731.126	2672.09
731.313	2835.92
731.499	2762.2
731.685	2835.92
731.871	2690.52
732.057	2842.07
732.243	2698.71
732.429	2713.05
732.615	2717.14
732.801	2678.23
732.987	2667.99
733.173	2641.37
733.359	2612.7
733.545	2581.98
733.731	2598.36
733.917	2649.56
734.103	2606.55
734.289	2682.33
734.475	2575.83
734.661	2797.01
734.847	2749.91
735.033	2522.59
735.219	2680.28
735.404	2678.23
735.59	2631.13
735.776	2594.26
735.962	2661.85
736.148	2676.18
736.333	2672.09
736.519	2491.87
736.705	2596.31
736.89	2495.96
737.076	2536.92
737.262	2356.7
737.447	2528.73
737.633	2606.55
737.819	2500.06
738.004	2428.38
738.19	2475.48
738.375	2594.26
738.561	2635.22
738.747	2467.29
738.932	2563.54
739.118	2467.29
739.303	2606.55
739.489	2401.76
739.674	2405.85
739.859	2541.02
740.045	2391.52
740.23	2373.08
740.416	2373.08
740.601	2448.86
740.786	2379.23
740.972	2506.2
741.157	2274.78
741.342	2395.61
741.528	2278.88
741.713	2330.08
741.898	2375.13
742.084	2231.77
742.269	2416.09
742.454	2418.14
742.639	2262.49
742.824	2211.29
743.01	2213.34
743.195	2321.88
743.38	2250.21
743.565	2180.57
743.75	2213.34
743.935	2227.68
744.12	2231.77
744.305	2174.43
744.49	2205.15
744.675	2235.87
744.86	2285.02
745.045	2217.44
745.23	2276.83
745.415	2110.94
745.6	2121.18
745.785	2074.08
745.97	2108.9
746.155	2098.66
746.34	2053.6
746.525	1977.83
746.71	2065.89
746.895	2110.94
747.079	2043.36
747.264	1996.26
747.449	2078.18
747.634	1924.58
747.819	1992.16
748.003	1975.78
748.188	1852.9
748.373	1943.01
748.557	1994.21
748.742	1916.39
748.927	1871.33
749.111	1922.53
749.296	1990.11
749.481	1816.04
749.665	1857
749.85	1918.43
750.034	1836.52
750.219	1744.36
750.404	1803.75
750.588	1756.65
750.773	1785.32
750.957	1811.94
751.141	1895.91
751.326	1779.17
751.51	1705.45
751.695	1770.98
751.879	1664.49
752.064	1738.21
752.248	1689.06
752.432	1734.12
752.617	1709.54
752.801	1623.53
752.985	1744.36
753.17	1627.62
753.354	1574.38
753.538	1650.15
753.722	1531.37
753.907	1541.61
754.091	1541.61
754.275	1635.82
754.459	1523.18
754.643	1488.36
754.828	1517.03
755.012	1547.75
755.196	1459.69
755.38	1517.03
755.564	1410.54
755.748	1564.14
755.932	1467.88
756.116	1342.96
756.3	1508.84
756.484	1484.27
756.668	1467.88
756.852	1342.96
757.036	1453.55
757.22	1332.72
757.404	1302
757.588	1302
757.772	1351.15
757.956	1345
758.14	1363.44
758.323	1289.71
758.507	1287.66
758.691	1222.13
758.875	1351.15
759.059	1263.08
759.242	1285.61
759.426	1314.28
759.61	1291.76
759.794	1340.91
759.977	1187.31
760.161	1269.23
760.345	1316.33
760.528	1279.47
760.712	1156.59
760.895	1232.37
761.079	1154.54
761.263	1156.59
761.446	1144.3
761.63	1187.31
761.813	1179.12
761.997	1103.34
762.18	1187.31
762.364	1234.41
762.547	1132.01
762.731	1123.82
762.914	1148.4
763.098	1121.77
763.281	1136.11
763.464	1043.95
763.648	1082.86
763.831	1213.93
764.015	1076.72
764.198	1164.78
764.381	1175.02
764.564	1023.47
764.748	1093.1
764.931	1031.66
765.114	1041.9
765.297	1099.25
765.481	1150.45
765.664	1089.01
765.847	1043.95
766.03	1129.97
766.213	1033.71
766.397	1019.38
766.58	984.56
766.763	1086.96
766.946	972.27
767.129	992.75
767.312	1046
767.495	1025.52
767.678	1103.34
767.861	1027.57
768.044	1027.57
768.227	1072.62
768.41	1054.19
768.593	873.97
768.776	966.13
768.959	1013.23
769.142	1062.38
769.324	939.51
769.507	935.41
769.69	1005.04
769.873	980.47
770.056	1117.68
770.239	927.22
770.421	992.75
770.604	970.23
770.787	959.99
770.97	892.4
771.152	925.17
771.335	892.4
771.518	884.21
771.7	916.98
771.883	1000.94
772.066	867.83
772.248	886.26
772.431	892.4
772.613	869.87
772.796	867.83
772.978	900.59
773.161	882.16
773.343	900.59
773.526	828.92
773.708	796.15
773.891	812.53
774.073	806.39
774.256	820.72
774.438	865.78
774.621	757.24
774.803	824.82
774.985	781.81
775.168	765.43
775.35	818.68
775.532	810.48
775.715	736.76
775.897	759.28
776.079	734.71
776.261	792.05
776.444	701.94
776.626	812.53
776.808	689.65
776.99	738.8
777.173	728.56
777.355	800.24
777.537	732.66
777.719	736.76
777.901	685.56
778.083	697.85
778.265	656.89
778.447	757.24
778.629	607.73
778.811	759.28
778.993	742.9
779.175	695.8
779.357	697.85
779.539	636.41
779.721	624.12
779.903	658.93
780.085	734.71
780.267	624.12
780.449	615.93
780.631	560.63
780.812	652.79
780.994	628.21
781.176	574.97
781.358	654.84
781.54	609.78
781.721	624.12
781.903	660.98
782.085	603.64
782.267	617.97
782.448	538.1
782.63	566.78
782.812	562.68
782.993	507.38
783.175	529.91
783.357	550.39
783.538	497.14
783.72	484.86
783.901	505.34
784.083	540.15
784.264	458.23
784.446	491
784.627	484.86
784.809	540.15
784.99	564.73
785.172	460.28
785.353	462.33
785.535	542.2
785.716	458.23
785.897	513.53
786.079	450.04
786.26	464.38
786.441	505.34
786.623	468.47
786.804	480.76
786.985	425.47
787.167	493.05
787.348	429.56
787.529	460.28
787.71	460.28
787.891	486.9
788.073	294.4
788.254	394.75
788.435	447.99
788.616	503.29
788.797	431.61
788.978	476.66
789.159	390.65
789.34	374.27
789.522	454.14
789.703	409.08
789.884	437.75
790.065	374.27
790.246	404.99
790.427	417.27
790.607	464.38
790.788	413.18
790.969	460.28
791.15	349.69
791.331	466.42
791.512	370.17
791.693	468.47
791.874	398.84
792.054	435.71
792.235	458.23
792.416	339.45
792.597	314.88
792.778	419.32
792.958	366.07
793.139	325.12
793.32	413.18
793.5	267.77
793.681	439.8
793.862	312.83
794.042	409.08
794.223	339.45
794.404	361.98
794.584	333.31
794.765	347.64
794.945	337.4
795.126	349.69
795.306	339.45
795.487	384.51
795.667	308.73
795.848	382.46
796.028	364.03
796.209	372.22
796.389	253.44
796.57	263.68
796.75	280.06
796.93	269.82
797.111	310.78
797.291	304.64
797.471	325.12
797.652	226.81
797.832	351.74
798.012	331.26
798.192	304.64
798.373	353.79
798.553	302.59
798.733	263.68
798.913	347.64
799.093	253.44
799.274	290.3
799.454	359.93
799.634	292.35
799.814	296.44
799.994	341.5
800.174	275.96
800.354	280.06
800.534	247.29
800.714	218.62
800.894	183.81
801.074	226.81
801.254	241.15
801.434	220.67
801.614	241.15
801.794	165.37
801.974	722.42
802.154	237.05
802.334	290.3
802.514	237.05
802.693	226.81
802.873	214.52
803.053	296.44
803.233	278.01
803.413	292.35
803.592	255.48
803.772	232.96
803.952	292.35
804.131	251.39
804.311	278.01
804.491	296.44
804.67	210.43
804.85	273.92
805.03	302.59
805.209	202.24
805.389	194.05
805.568	290.3
805.748	212.48
805.928	208.38
806.107	280.06
806.287	310.78
806.466	265.72
806.646	196.09
806.825	306.68
807.004	130.56
807.184	208.38
807.363	224.76
807.543	202.24
807.722	200.19
807.901	323.07
808.081	245.24
808.26	235
808.439	282.11
808.619	255.48
808.798	204.28
808.977	177.66
809.156	263.68
809.336	245.24
809.515	204.28
809.694	124.41
809.873	222.72
810.052	226.81
810.231	247.29
810.411	173.57
810.59	237.05
810.769	230.91
810.948	220.67
811.127	173.57
811.306	136.7
811.485	132.61
811.664	216.57
811.843	159.23
812.022	169.47
812.201	171.52
812.38	151.04
812.559	157.18
812.737	228.86
812.916	230.91
813.095	118.27
813.274	218.62
813.453	146.94
813.632	218.62
813.811	173.57
813.989	155.13
814.168	220.67
814.347	73.21
814.526	124.41
814.704	181.76
814.883	173.57
815.062	165.37
815.24	171.52
815.419	151.04
815.598	159.23
815.776	140.8
815.955	192
816.133	132.61
816.312	105.98
816.49	114.17
816.669	146.94
816.847	187.9
817.026	204.28
817.204	163.33
817.383	161.28
817.561	173.57
817.74	177.66
817.918	120.32
818.097	243.2
818.275	155.13
818.453	173.57
818.632	163.33
818.81	157.18
818.988	124.41
819.167	112.13
819.345	192
819.523	114.17
819.701	157.18
819.879	144.89
820.058	202.24
820.236	101.89
820.414	116.22
820.592	181.76
820.77	173.57
820.948	67.07
821.127	171.52
821.305	138.75
821.483	212.48
821.661	136.7
821.839	75.26
822.017	112.13
822.195	83.45
822.373	138.75
822.551	110.08
822.729	175.61
822.907	165.37
823.085	122.37
823.262	116.22
823.44	103.93
823.618	177.66
823.796	165.37
823.974	71.17
824.152	189.95
824.329	99.84
824.507	118.27
824.685	132.61
824.863	83.45
825.04	116.22
825.218	212.48
825.396	112.13
825.574	122.37
825.751	114.17
825.929	75.26
826.107	93.69
826.284	87.55
826.462	130.56
826.639	99.84
826.817	134.65
826.994	136.7
827.172	11.78
827.349	130.56
827.527	95.74
827.704	91.65
827.882	105.98
828.059	118.27
828.237	105.98
828.414	122.37
828.591	67.07
828.769	91.65
828.946	81.41
829.124	116.22
829.301	34.3
829.478	101.89
829.655	85.5
829.833	151.04
830.01	48.64
830.187	75.26
830.364	122.37
830.542	110.08
830.719	116.22
830.896	62.98
831.073	93.69
831.25	126.46
831.427	155.13
831.604	99.84
831.782	58.88
831.959	22.02
832.136	157.18
832.313	71.17
832.49	157.18
832.667	108.03
832.844	54.78
833.021	54.78
833.198	132.61
833.374	15.87
833.551	136.7
833.728	124.41
833.905	67.07
834.082	93.69
834.259	91.65
834.436	79.36
834.612	89.6
834.789	83.45
834.966	5.63
835.143	110.08
835.319	38.4
835.496	75.26
835.673	99.84
835.85	136.7
836.026	52.74
836.203	130.56
836.38	69.12
836.556	42.5
836.733	32.26
836.909	99.84
837.086	83.45
837.262	67.07
837.439	40.45
837.616	34.3
837.792	97.79
837.968	42.5
838.145	48.64
838.321	58.88
838.498	48.64
838.674	87.55
838.851	62.98
839.027	34.3
839.203	93.69
839.38	83.45
839.556	7.68
839.732	69.12
839.909	105.98
840.085	38.4
840.261	19.97
840.437	79.36
840.614	114.17
840.79	77.31
840.966	87.55
841.142	54.78
841.318	-25.09
841.494	122.37
841.671	87.55
841.847	65.02
842.023	7.68
842.199	52.74
842.375	79.36
842.551	62.98
842.727	34.3
842.903	122.37
843.079	11.78
843.255	128.51
843.431	60.93
843.607	101.89
843.783	-10.75
843.959	65.02
844.134	99.84
844.31	122.37
844.486	73.21
844.662	108.03
844.838	15.87
845.013	128.51
845.189	79.36
845.365	85.5
845.541	105.98
845.716	67.07
845.892	67.07
846.068	56.83
846.244	7.68
846.419	75.26
846.595	77.31
846.77	120.32
846.946	17.92
847.122	58.88
847.297	15.87
847.473	81.41
847.648	3.58
847.824	-33.28
847.999	24.06
848.175	44.54
848.35	30.21
848.526	122.37
848.701	26.11
848.876	58.88
849.052	3.58
849.227	65.02
849.403	24.06
849.578	85.5
849.753	69.12
849.929	83.45
850.104	24.06
850.279	5.63
850.454	42.5
850.63	91.65
850.805	-0.51
850.98	44.54
851.155	1.54
851.33	22.02
851.505	-27.14
851.681	54.78
851.856	26.11
852.031	112.13
852.206	87.55
852.381	24.06
852.556	26.11
852.731	52.74
852.906	73.21
853.081	75.26
853.256	38.4
853.431	19.97
853.606	44.54
853.781	38.4
853.956	-6.66
854.131	-2.56
854.305	30.21
854.48	5.63
854.655	22.02
854.83	44.54
855.005	52.74
855.18	58.88
855.354	-10.75
855.529	5.63
855.704	58.88
855.879	69.12
856.053	93.69
856.228	52.74
856.403	42.5
856.577	89.6
856.752	-10.75
856.926	67.07
857.101	56.83
857.276	-8.7
857.45	71.17
857.625	108.03
857.799	-14.85
857.974	89.6
858.148	40.45
858.323	50.69
858.497	48.64
858.672	71.17
858.846	30.21
859.02	42.5
859.195	54.78
859.369	-6.66
859.543	34.3
859.718	58.88
859.892	28.16
860.066	128.51
860.241	-35.33
860.415	-14.85
860.589	15.87
860.763	5.63
860.938	1.54
861.112	85.5
861.286	-23.04
861.46	17.92
861.634	52.74
861.808	30.21
861.982	42.5
862.157	83.45
862.331	5.63
862.505	15.87
862.679	22.02
862.853	77.31
863.027	-16.9
863.201	13.82
863.375	26.11
863.549	48.64
863.722	58.88
863.896	19.97
864.07	-31.23
864.244	77.31
864.418	81.41
864.592	3.58
864.766	32.26
864.939	38.4
865.113	-8.7
865.287	17.92
865.461	42.5
865.634	17.92
865.808	-2.56
865.982	24.06
866.156	9.73
866.329	1.54
866.503	32.26
866.676	5.63
866.85	17.92
867.024	77.31
867.197	58.88
867.371	58.88
867.544	-20.99
867.718	44.54
867.891	50.69
868.065	46.59
868.238	-31.23
868.412	110.08
868.585	-64
868.759	11.78
868.932	-0.51
869.105	-10.75
869.279	17.92
869.452	-6.66
869.625	24.06
869.799	-18.94
869.972	-0.51
870.145	-39.42
870.319	73.21
870.492	87.55
870.665	-2.56
870.838	44.54
871.011	-2.56
871.185	79.36
871.358	-41.47
871.531	73.21
871.704	7.68
871.877	73.21
872.05	-14.85
872.223	30.21
872.396	-27.14
872.569	54.78
872.742	-39.42
872.915	54.78
873.088	5.63
873.261	1.54
873.434	58.88
873.607	-14.85
873.78	1.54
873.953	11.78
874.126	87.55
874.299	26.11
874.471	5.63
874.644	81.41
874.817	-10.75
874.99	52.74
875.163	-29.18
875.335	22.02
875.508	34.3
875.681	9.73
875.853	1.54
876.026	-0.51
876.199	75.26
876.371	99.84
876.544	48.64
876.717	40.45
876.889	40.45
877.062	62.98
877.234	-39.42
877.407	17.92
877.579	48.64
877.752	56.83
877.924	-10.75
878.097	24.06
878.269	5.63
878.442	38.4
878.614	77.31
878.786	67.07
878.959	17.92
879.131	7.68
879.303	-51.71
879.476	40.45
879.648	128.51
879.82	65.02
879.993	-27.14
880.165	-31.23
880.337	40.45
880.509	89.6
880.681	-90.62
880.854	34.3
881.026	-10.75
881.198	130.56
881.37	38.4
881.542	48.64
881.714	52.74
881.886	58.88
882.058	-33.28
882.23	15.87
882.402	56.83
882.574	32.26
882.746	46.59
882.918	54.78
883.09	83.45
883.262	-6.66
883.434	73.21
883.606	-43.52
883.778	-6.66
883.95	46.59
884.122	-10.75
884.293	85.5
884.465	-2.56
884.637	3.58
884.809	17.92
884.98	7.68
885.152	116.22
885.324	9.73
885.496	22.02
885.667	-25.09
885.839	38.4
886.011	71.17
886.182	3.58
886.354	71.17
886.525	24.06
886.697	26.11
886.869	-29.18
887.04	40.45
887.212	15.87
887.383	56.83
887.555	24.06
887.726	-18.94
887.897	1.54
888.069	17.92
888.24	-31.23
888.412	42.5
888.583	-39.42
888.754	58.88
888.926	-39.42
889.097	-31.23
889.268	-23.04
889.44	40.45
889.611	22.02
889.782	-4.61
889.953	-12.8
890.125	103.93
890.296	-6.66
890.467	22.02
890.638	67.07
890.809	67.07
890.98	-55.81
891.151	54.78
891.323	34.3
891.494	52.74
891.665	-6.66
891.836	26.11
892.007	-10.75
892.178	-27.14
892.349	40.45
892.52	-43.52
892.691	79.36
892.862	-20.99
893.032	-14.85
893.203	-31.23
893.374	-14.85
893.545	54.78
893.716	11.78
893.887	85.5
894.057	-33.28
894.228	-12.8
894.399	-18.94
894.57	15.87
894.74	67.07
894.911	58.88
895.082	26.11
895.253	-12.8
895.423	5.63
895.594	75.26
895.764	26.11
895.935	81.41
896.106	11.78
896.276	-41.47
896.447	42.5
896.617	34.3
896.788	-23.04
896.958	140.8
897.129	73.21
897.299	11.78
897.47	15.87
897.64	67.07
897.81	-0.51
897.981	42.5
898.151	1.54
898.322	-8.7
898.492	-27.14
898.662	-55.81
898.832	-4.61
899.003	48.64
899.173	40.45
899.343	17.92
899.513	24.06
