Data from USB4F104151__200__10-29-32-405.txt Node

Date: Wed Mar 12 10:29:32 EDT 2025
User: louis
Spectrometer: USB4F10415
Trigger mode: 4
Integration Time (sec): 3.000000E-2
Scans to average: 1
Electric dark correction enabled: true
Nonlinearity correction enabled: false
Boxcar width: 0
XAxis mode: Wavelengths
Number of Pixels in Spectrum: 3648
>>>>>Begin Spectral Data<<<<<
178.204	-146.43
178.424	-146.43
178.644	-146.43
178.864	-121.85
179.084	-109.57
179.304	23.55
179.524	23.55
179.744	-41.98
179.964	9.22
180.184	-21.5
180.404	84.99
180.624	17.41
180.844	-39.94
181.064	-29.7
181.283	1.02
181.503	-5.12
181.723	-21.5
181.943	-41.98
182.163	54.27
182.383	-48.13
182.602	9.22
182.822	97.28
183.042	33.79
183.262	17.41
183.482	27.65
183.701	-1.02
183.921	-66.56
184.141	3.07
184.361	19.46
184.58	-33.79
184.8	46.08
185.02	13.31
185.239	-13.31
185.459	97.28
185.679	50.18
185.898	-17.41
186.118	29.7
186.338	64.51
186.557	113.66
186.777	-9.22
186.997	21.5
187.216	-35.84
187.436	103.42
187.655	11.26
187.875	82.94
188.095	41.98
188.314	70.65
188.534	54.27
188.753	-48.13
188.973	115.71
189.192	101.37
189.412	60.42
189.631	-5.12
189.851	-17.41
190.07	-27.65
190.29	-25.6
190.509	33.79
190.729	66.56
190.948	50.18
191.168	64.51
191.387	82.94
191.607	5.12
191.826	33.79
192.045	-21.5
192.265	70.65
192.484	99.33
192.704	-33.79
192.923	-19.46
193.142	70.65
193.362	91.13
193.581	-15.36
193.8	39.94
194.02	21.5
194.239	37.89
194.458	13.31
194.678	21.5
194.897	35.84
195.116	-13.31
195.335	35.84
195.555	17.41
195.774	7.17
195.993	54.27
196.212	97.28
196.432	27.65
196.651	-35.84
196.87	1.02
197.089	99.33
197.308	33.79
197.528	-17.41
197.747	-9.22
197.966	1.02
198.185	101.37
198.404	-7.17
198.623	15.36
198.842	31.74
199.062	29.7
199.281	107.52
199.5	21.5
199.719	29.7
199.938	-9.22
200.157	19.46
200.376	25.6
200.595	17.41
200.814	99.33
201.033	107.52
201.252	74.75
201.471	23.55
201.69	39.94
201.909	60.42
202.128	25.6
202.347	-13.31
202.566	29.7
202.785	37.89
203.004	-54.27
203.223	62.46
203.442	117.76
203.661	9.22
203.879	-7.17
204.098	39.94
204.317	-37.89
204.536	41.98
204.755	48.13
204.974	93.18
205.193	70.65
205.411	-1.02
205.63	23.55
205.849	21.5
206.068	-9.22
206.287	39.94
206.505	29.7
206.724	23.55
206.943	-5.12
207.162	13.31
207.381	62.46
207.599	-29.7
207.818	121.85
208.037	-33.79
208.255	7.17
208.474	7.17
208.693	56.32
208.911	11.26
209.13	62.46
209.349	50.18
209.567	89.09
209.786	15.36
210.005	15.36
210.223	9.22
210.442	-31.74
210.661	9.22
210.879	107.52
211.098	80.89
211.316	5.12
211.535	105.47
211.753	-7.17
211.972	-15.36
212.191	25.6
212.409	23.55
212.628	9.22
212.846	-66.56
213.065	99.33
213.283	136.19
213.502	-39.94
213.72	17.41
213.938	25.6
214.157	44.03
214.375	21.5
214.594	-23.55
214.812	101.37
215.031	-3.07
215.249	5.12
215.467	50.18
215.686	78.85
215.904	56.32
216.122	-54.27
216.341	44.03
216.559	15.36
216.778	23.55
216.996	93.18
217.214	48.13
217.432	-5.12
217.651	7.17
217.869	48.13
218.087	-3.07
218.306	1.02
218.524	-23.55
218.742	23.55
218.96	9.22
219.179	-7.17
219.397	74.75
219.615	7.17
219.833	5.12
220.051	64.51
220.27	25.6
220.488	78.85
220.706	29.7
220.924	-13.31
221.142	54.27
221.36	31.74
221.578	9.22
221.796	33.79
222.015	56.32
222.233	31.74
222.451	80.89
222.669	-23.55
222.887	3.07
223.105	-35.84
223.323	52.22
223.541	37.89
223.759	39.94
223.977	-48.13
224.195	62.46
224.413	-11.26
224.631	48.13
224.849	50.18
225.067	103.42
225.285	25.6
225.503	17.41
225.721	-27.65
225.939	60.42
226.157	-9.22
226.375	80.89
226.592	44.03
226.81	-7.17
227.028	56.32
227.246	62.46
227.464	39.94
227.682	52.22
227.9	-3.07
228.117	29.7
228.335	62.46
228.553	7.17
228.771	33.79
228.989	25.6
229.206	99.33
229.424	-1.02
229.642	9.22
229.86	70.65
230.077	50.18
230.295	13.31
230.513	64.51
230.731	121.85
230.948	66.56
231.166	78.85
231.384	-5.12
231.601	-23.55
231.819	27.65
232.037	-41.98
232.254	5.12
232.472	15.36
232.689	21.5
232.907	78.85
233.125	41.98
233.342	46.08
233.56	-1.02
233.777	54.27
233.995	15.36
234.213	156.67
234.43	-23.55
234.648	56.32
234.865	1.02
235.083	76.8
235.3	70.65
235.518	21.5
235.735	91.13
235.953	58.37
236.17	25.6
236.388	66.56
236.605	70.65
236.822	91.13
237.04	7.17
237.257	9.22
237.475	54.27
237.692	68.61
237.909	-9.22
238.127	-35.84
238.344	101.37
238.562	27.65
238.779	56.32
238.996	80.89
239.214	7.17
239.431	29.7
239.648	17.41
239.865	-21.5
240.083	52.22
240.3	66.56
240.517	27.65
240.735	105.47
240.952	56.32
241.169	21.5
241.386	23.55
241.603	-7.17
241.821	58.37
242.038	115.71
242.255	66.56
242.472	-44.03
242.689	-11.26
242.907	123.9
243.124	-1.02
243.341	-5.12
243.558	-66.56
243.775	-39.94
243.992	-7.17
244.209	37.89
244.426	64.51
244.643	72.7
244.86	31.74
245.078	68.61
245.295	41.98
245.512	33.79
245.729	17.41
245.946	31.74
246.163	35.84
246.38	56.32
246.597	60.42
246.814	17.41
247.031	23.55
247.248	21.5
247.464	-15.36
247.681	19.46
247.898	72.7
248.115	48.13
248.332	17.41
248.549	64.51
248.766	50.18
248.983	80.89
249.2	44.03
249.417	35.84
249.633	41.98
249.85	54.27
250.067	-41.98
250.284	54.27
250.501	-9.22
250.717	39.94
250.934	1.02
251.151	-23.55
251.368	-19.46
251.585	54.27
251.801	74.75
252.018	58.37
252.235	107.52
252.451	17.41
252.668	-56.32
252.885	48.13
253.102	23.55
253.318	97.28
253.535	-68.61
253.752	101.37
253.968	25.6
254.185	19.46
254.401	37.89
254.618	31.74
254.835	76.8
255.051	152.57
255.268	23.55
255.484	-23.55
255.701	25.6
255.917	121.85
256.134	-5.12
256.351	29.7
256.567	37.89
256.784	41.98
257	-25.6
257.217	105.47
257.433	41.98
257.65	54.27
257.866	50.18
258.082	-27.65
258.299	-1.02
258.515	70.65
258.732	58.37
258.948	31.74
259.165	15.36
259.381	1.02
259.597	27.65
259.814	-31.74
260.03	64.51
260.246	23.55
260.463	66.56
260.679	29.7
260.895	54.27
261.112	37.89
261.328	37.89
261.544	7.17
261.761	168.96
261.977	-9.22
262.193	9.22
262.409	44.03
262.626	37.89
262.842	37.89
263.058	17.41
263.274	44.03
263.49	68.61
263.707	9.22
263.923	9.22
264.139	-101.37
264.355	82.94
264.571	54.27
264.787	27.65
265.004	46.08
265.22	31.74
265.436	-9.22
265.652	-66.56
265.868	25.6
266.084	62.46
266.3	46.08
266.516	-29.7
266.732	33.79
266.948	15.36
267.164	95.23
267.38	54.27
267.596	70.65
267.812	97.28
268.028	60.42
268.244	27.65
268.46	52.22
268.676	-37.89
268.892	76.8
269.108	-56.32
269.324	9.22
269.54	33.79
269.756	56.32
269.972	25.6
270.188	17.41
270.403	17.41
270.619	56.32
270.835	39.94
271.051	7.17
271.267	107.52
271.483	11.26
271.698	-25.6
271.914	97.28
272.13	78.85
272.346	50.18
272.562	-9.22
272.777	31.74
272.993	-13.31
273.209	21.5
273.425	39.94
273.64	25.6
273.856	74.75
274.072	95.23
274.287	31.74
274.503	-41.98
274.719	44.03
274.934	52.22
275.15	1.02
275.366	37.89
275.581	3.07
275.797	48.13
276.012	25.6
276.228	82.94
276.444	58.37
276.659	41.98
276.875	-35.84
277.09	74.75
277.306	-3.07
277.521	52.22
277.737	84.99
277.952	123.9
278.168	23.55
278.383	11.26
278.599	-11.26
278.814	-3.07
279.03	27.65
279.245	35.84
279.461	13.31
279.676	78.85
279.892	-9.22
280.107	-35.84
280.322	27.65
280.538	70.65
280.753	46.08
280.969	50.18
281.184	-15.36
281.399	62.46
281.615	25.6
281.83	7.17
282.045	54.27
282.26	-11.26
282.476	3.07
282.691	25.6
282.906	50.18
283.122	82.94
283.337	62.46
283.552	13.31
283.767	-56.32
283.983	66.56
284.198	119.81
284.413	74.75
284.628	13.31
284.843	35.84
285.058	-9.22
285.274	64.51
285.489	9.22
285.704	1.02
285.919	50.18
286.134	99.33
286.349	121.85
286.564	52.22
286.779	37.89
286.995	33.79
287.21	-19.46
287.425	41.98
287.64	23.55
287.855	111.61
288.07	72.7
288.285	62.46
288.5	60.42
288.715	91.13
288.93	23.55
289.145	-46.08
289.36	35.84
289.575	56.32
289.79	41.98
290.004	64.51
290.219	17.41
290.434	76.8
290.649	1.02
290.864	78.85
291.079	-21.5
291.294	91.13
291.509	7.17
291.724	107.52
291.938	25.6
292.153	33.79
292.368	41.98
292.583	29.7
292.798	23.55
293.012	15.36
293.227	25.6
293.442	31.74
293.657	62.46
293.871	115.71
294.086	17.41
294.301	82.94
294.516	-21.5
294.73	23.55
294.945	-23.55
295.16	-7.17
295.374	72.7
295.589	23.55
295.804	-25.6
296.018	70.65
296.233	50.18
296.447	-15.36
296.662	-11.26
296.877	41.98
297.091	74.75
297.306	17.41
297.52	52.22
297.735	54.27
297.949	50.18
298.164	9.22
298.378	25.6
298.593	23.55
298.807	-3.07
299.022	41.98
299.236	29.7
299.451	9.22
299.665	76.8
299.88	72.7
300.094	60.42
300.309	66.56
300.523	60.42
300.737	-9.22
300.952	84.99
301.166	74.75
301.381	50.18
301.595	68.61
301.809	33.79
302.024	93.18
302.238	29.7
302.452	21.5
302.667	25.6
302.881	80.89
303.095	82.94
303.309	72.7
303.524	15.36
303.738	31.74
303.952	29.7
304.166	-31.74
304.381	-21.5
304.595	87.04
304.809	3.07
305.023	23.55
305.237	27.65
305.452	21.5
305.666	39.94
305.88	29.7
306.094	13.31
306.308	5.12
306.522	80.89
306.736	82.94
306.95	39.94
307.164	68.61
307.379	29.7
307.593	37.89
307.807	111.61
308.021	39.94
308.235	109.57
308.449	15.36
308.663	29.7
308.877	58.37
309.091	15.36
309.305	89.09
309.519	-7.17
309.733	19.46
309.947	-101.37
310.161	23.55
310.374	-23.55
310.588	25.6
310.802	27.65
311.016	101.37
311.23	60.42
311.444	-27.65
311.658	82.94
311.872	37.89
312.085	21.5
312.299	37.89
312.513	39.94
312.727	50.18
312.941	5.12
313.154	54.27
313.368	29.7
313.582	-9.22
313.796	54.27
314.009	-54.27
314.223	50.18
314.437	64.51
314.651	72.7
314.864	62.46
315.078	1.02
315.292	62.46
315.505	-3.07
315.719	35.84
315.933	25.6
316.146	-48.13
316.36	21.5
316.573	99.33
316.787	109.57
317.001	-11.26
317.214	56.32
317.428	68.61
317.641	-5.12
317.855	11.26
318.068	66.56
318.282	29.7
318.495	27.65
318.709	66.56
318.922	33.79
319.136	56.32
319.349	48.13
319.563	35.84
319.776	21.5
319.99	33.79
320.203	5.12
320.417	103.42
320.63	54.27
320.843	62.46
321.057	-7.17
321.27	62.46
321.483	50.18
321.697	27.65
321.91	52.22
322.124	97.28
322.337	87.04
322.55	7.17
322.763	50.18
322.977	1.02
323.19	19.46
323.403	72.7
323.617	128
323.83	54.27
324.043	50.18
324.256	107.52
324.469	25.6
324.683	70.65
324.896	50.18
325.109	123.9
325.322	-11.26
325.535	52.22
325.748	35.84
325.962	41.98
326.175	74.75
326.388	111.61
326.601	103.42
326.814	76.8
327.027	54.27
327.24	95.23
327.453	21.5
327.666	64.51
327.879	62.46
328.092	70.65
328.305	87.04
328.518	27.65
328.731	13.31
328.944	17.41
329.157	50.18
329.37	66.56
329.583	89.09
329.796	138.24
330.009	-72.7
330.222	87.04
330.435	115.71
330.648	33.79
330.861	68.61
331.073	37.89
331.286	74.75
331.499	93.18
331.712	17.41
331.925	62.46
332.138	1.02
332.35	35.84
332.563	103.42
332.776	111.61
332.989	58.37
333.202	111.61
333.414	17.41
333.627	-1.02
333.84	27.65
334.053	52.22
334.265	17.41
334.478	33.79
334.691	-19.46
334.903	48.13
335.116	64.51
335.329	111.61
335.541	27.65
335.754	46.08
335.966	66.56
336.179	17.41
336.392	66.56
336.604	50.18
336.817	54.27
337.029	52.22
337.242	41.98
337.454	54.27
337.667	23.55
337.88	31.74
338.092	99.33
338.305	76.8
338.517	19.46
338.729	173.05
338.942	74.75
339.154	80.89
339.367	39.94
339.579	78.85
339.792	72.7
340.004	101.37
340.217	48.13
340.429	7.17
340.641	-27.65
340.854	56.32
341.066	-66.56
341.278	95.23
341.491	111.61
341.703	46.08
341.915	48.13
342.128	1.02
342.34	-23.55
342.552	70.65
342.764	19.46
342.977	31.74
343.189	58.37
343.401	46.08
343.613	64.51
343.826	48.13
344.038	74.75
344.25	101.37
344.462	97.28
344.674	21.5
344.886	50.18
345.099	72.7
345.311	37.89
345.523	107.52
345.735	62.46
345.947	17.41
346.159	52.22
346.371	23.55
346.583	33.79
346.795	107.52
347.007	37.89
347.219	54.27
347.431	76.8
347.643	76.8
347.855	76.8
348.067	41.98
348.279	-7.17
348.491	48.13
348.703	125.95
348.915	3.07
349.127	-21.5
349.339	11.26
349.551	66.56
349.763	111.61
349.975	50.18
350.187	103.42
350.399	19.46
350.61	70.65
350.822	78.85
351.034	115.71
351.246	-44.03
351.458	48.13
351.669	82.94
351.881	70.65
352.093	11.26
352.305	103.42
352.517	76.8
352.728	44.03
352.94	70.65
353.152	48.13
353.363	52.22
353.575	91.13
353.787	50.18
353.999	52.22
354.21	140.29
354.422	-33.79
354.633	21.5
354.845	76.8
355.057	-15.36
355.268	111.61
355.48	9.22
355.692	50.18
355.903	37.89
356.115	66.56
356.326	7.17
356.538	115.71
356.749	-11.26
356.961	72.7
357.172	58.37
357.384	13.31
357.595	132.09
357.807	29.7
358.018	25.6
358.23	82.94
358.441	148.48
358.653	37.89
358.864	-11.26
359.075	13.31
359.287	1.02
359.498	58.37
359.709	87.04
359.921	-7.17
360.132	25.6
360.344	-1.02
360.555	9.22
360.766	39.94
360.977	9.22
361.189	41.98
361.4	-5.12
361.611	103.42
361.823	68.61
362.034	99.33
362.245	19.46
362.456	21.5
362.667	31.74
362.879	7.17
363.09	62.46
363.301	87.04
363.512	103.42
363.723	-1.02
363.935	-13.31
364.146	68.61
364.357	41.98
364.568	74.75
364.779	50.18
364.99	72.7
365.201	62.46
365.412	58.37
365.623	7.17
365.834	11.26
366.045	25.6
366.256	117.76
366.467	95.23
366.678	62.46
366.889	-23.55
367.1	1.02
367.311	-23.55
367.522	87.04
367.733	87.04
367.944	50.18
368.155	-1.02
368.366	89.09
368.577	56.32
368.788	35.84
368.999	95.23
369.209	11.26
369.42	140.29
369.631	111.61
369.842	97.28
370.053	50.18
370.264	33.79
370.474	44.03
370.685	25.6
370.896	-7.17
371.107	99.33
371.317	48.13
371.528	-3.07
371.739	11.26
371.95	117.76
372.16	107.52
372.371	33.79
372.582	-19.46
372.792	1.02
373.003	82.94
373.214	-25.6
373.424	105.47
373.635	48.13
373.846	158.72
374.056	60.42
374.267	17.41
374.477	99.33
374.688	70.65
374.898	128
375.109	101.37
375.319	48.13
375.53	134.14
375.74	66.56
375.951	87.04
376.161	80.89
376.372	87.04
376.582	99.33
376.793	21.5
377.003	-27.65
377.214	9.22
377.424	19.46
377.635	25.6
377.845	113.66
378.055	68.61
378.266	41.98
378.476	52.22
378.686	56.32
378.897	44.03
379.107	35.84
379.317	113.66
379.528	97.28
379.738	95.23
379.948	74.75
380.158	80.89
380.369	-7.17
380.579	80.89
380.789	93.18
380.999	50.18
381.21	66.56
381.42	132.09
381.63	58.37
381.84	125.95
382.05	66.56
382.261	72.7
382.471	123.9
382.681	181.25
382.891	130.05
383.101	70.65
383.311	70.65
383.521	113.66
383.731	66.56
383.941	128
384.151	97.28
384.361	97.28
384.571	13.31
384.781	78.85
384.991	93.18
385.201	197.63
385.411	31.74
385.621	66.56
385.831	23.55
386.041	119.81
386.251	82.94
386.461	105.47
386.671	64.51
386.881	119.81
387.091	46.08
387.301	107.52
387.511	1.02
387.72	50.18
387.93	87.04
388.14	50.18
388.35	35.84
388.56	17.41
388.769	60.42
388.979	39.94
389.189	66.56
389.399	46.08
389.609	41.98
389.818	41.98
390.028	91.13
390.238	82.94
390.447	93.18
390.657	9.22
390.867	140.29
391.076	74.75
391.286	107.52
391.496	101.37
391.705	54.27
391.915	62.46
392.125	70.65
392.334	134.14
392.544	74.75
392.753	146.43
392.963	-11.26
393.172	179.2
393.382	-11.26
393.591	95.23
393.801	107.52
394.01	109.57
394.22	162.81
394.429	113.66
394.639	82.94
394.848	78.85
395.058	168.96
395.267	66.56
395.477	113.66
395.686	138.24
395.895	91.13
396.105	87.04
396.314	93.18
396.524	91.13
396.733	152.57
396.942	103.42
397.152	97.28
397.361	84.99
397.57	136.19
397.78	130.05
397.989	72.7
398.198	160.77
398.407	76.8
398.617	111.61
398.826	173.05
399.035	179.2
399.244	113.66
399.453	113.66
399.663	103.42
399.872	144.38
400.081	62.46
400.29	214.01
400.499	84.99
400.708	138.24
400.917	158.72
401.127	123.9
401.336	128
401.545	111.61
401.754	181.25
401.963	179.2
402.172	109.57
402.381	82.94
402.59	138.24
402.799	138.24
403.008	138.24
403.217	197.63
403.426	224.25
403.635	115.71
403.844	160.77
404.053	93.18
404.262	164.86
404.471	113.66
404.68	230.4
404.888	205.82
405.097	207.87
405.306	175.1
405.515	95.23
405.724	171.01
405.933	257.02
406.142	203.77
406.35	254.97
406.559	171.01
406.768	209.92
406.977	228.35
407.185	285.69
407.394	205.82
407.603	236.54
407.812	246.78
408.02	252.92
408.229	316.41
408.438	275.45
408.646	275.45
408.855	300.03
409.064	318.46
409.272	267.26
409.481	398.33
409.69	295.93
409.898	343.03
410.107	343.03
410.315	369.66
410.524	369.66
410.733	494.58
410.941	381.95
411.15	457.72
411.358	504.82
411.567	441.34
411.775	455.67
411.984	519.16
412.192	562.17
412.401	480.25
412.609	607.22
412.818	582.65
413.026	519.16
413.234	586.74
413.443	648.18
413.651	607.22
413.86	703.48
414.068	756.72
414.276	797.68
414.485	701.43
414.693	674.81
414.901	822.26
415.11	805.88
415.318	846.84
415.526	889.84
415.734	904.18
415.943	957.43
416.151	1061.87
416.359	1016.82
416.567	1065.97
416.776	1057.78
416.984	1158.13
417.192	1098.74
417.4	1145.84
417.608	1160.17
417.817	1211.37
418.025	1319.92
418.233	1319.92
418.441	1285.1
418.649	1514.47
418.857	1571.82
419.065	1377.26
419.273	1410.03
419.481	1526.76
419.689	1772.52
419.897	1823.72
420.105	1747.94
420.313	1833.96
420.521	1911.78
420.729	1881.06
420.937	2020.32
421.145	2155.49
421.353	2184.16
421.561	2298.84
421.769	2278.37
421.977	2286.56
422.185	2442.2
422.393	2468.83
422.601	2753.49
422.809	2579.42
423.017	2804.69
423.224	2825.17
423.432	2909.14
423.64	3003.35
423.848	3189.71
424.056	3091.41
424.263	3316.69
424.471	3261.39
424.679	3353.55
424.887	3736.52
425.094	3670.98
425.302	3851.21
425.51	3716.04
425.718	4004.8
425.925	4006.85
426.133	4088.77
426.341	4428.73
426.548	4668.34
426.756	4455.36
426.964	4920.24
427.171	4940.72
427.379	5192.62
427.586	5180.34
427.794	5288.88
428.001	5667.75
428.209	5884.84
428.417	5596.07
428.624	6245.28
428.832	6226.85
429.039	6048.68
429.247	6114.21
429.454	6667.16
429.662	7179.15
429.869	6697.88
430.076	7168.91
430.284	7152.53
430.491	7269.27
430.699	7535.5
430.906	7508.88
431.114	7732.11
431.321	7945.09
431.528	8289.15
431.736	8618.88
431.943	9288.56
432.15	8876.92
432.358	8960.89
432.565	9354.1
432.772	9229.17
432.979	9952.1
433.187	10103.65
433.394	10105.7
433.601	10842.97
433.808	10603.36
434.016	10627.93
434.223	11211.6
434.43	11883.34
434.637	11836.24
434.844	12286.79
435.052	12366.66
435.259	12573.5
435.466	12761.92
435.673	12841.79
435.88	13353.78
436.087	14101.29
436.294	14002.99
436.501	13785.9
436.708	13996.84
436.915	14345
437.122	15164.18
437.329	14940.96
437.537	15463.19
437.743	15733.52
437.95	15706.9
438.157	16304.9
438.364	16763.65
438.571	16755.46
438.778	16939.77
438.985	18590.44
439.192	17939.18
439.399	18645.73
439.606	17971.95
439.813	19258.07
440.02	20077.26
440.227	19919.57
440.433	19716.82
440.64	20433.61
440.847	20323.02
441.054	20763.33
441.261	22063.79
441.467	21873.33
441.674	22483.62
441.881	23560.86
442.088	22971.04
442.294	22717.09
442.501	23540.38
442.708	23943.83
442.914	25004.67
443.121	25944.69
443.328	25059.97
443.534	26624.62
443.741	26382.96
443.948	25770.61
444.154	27452
444.361	27529.82
444.568	27695.71
444.774	27869.78
444.981	27984.47
445.187	28908.1
445.394	29940.28
445.6	29575.74
445.807	32559.63
446.013	30937.64
446.22	31644.19
446.426	32582.16
446.633	33346.05
446.839	34097.66
447.046	32598.54
447.252	34871.79
447.459	34531.83
447.665	34132.47
447.871	35869.15
448.078	37337.54
448.284	35459.55
448.491	36778.45
448.697	37767.62
448.903	38240.7
449.11	38525.36
449.316	37917.12
449.522	38588.85
449.728	39420.33
449.935	39791.01
450.141	39487.91
450.347	40622.48
450.553	39506.34
450.76	39750.05
450.966	41046.41
451.172	40649.11
451.378	41546.12
451.584	40522.13
451.791	41666.95
451.997	41462.15
452.203	42213.76
452.409	41812.35
452.615	41863.55
452.821	40597.91
453.027	40216.99
453.233	41873.79
453.44	40362.39
453.646	40618.39
453.852	40944.02
454.058	41652.61
454.264	40434.07
454.47	41243.02
454.676	40081.82
454.882	41349.51
455.088	37611.97
455.294	38261.18
455.5	38758.83
455.705	39358.89
455.911	37640.64
456.117	37458.37
456.323	36499.92
456.529	34646.51
456.735	36174.3
456.941	35056.11
457.147	34568.69
457.352	33522.18
457.558	33104.39
457.764	33274.37
457.97	32375.31
458.176	31838.75
458.381	31963.67
458.587	30009.91
458.793	30118.45
458.999	28830.28
459.204	30415.41
459.41	30007.86
459.616	27900.5
459.821	27935.32
460.027	27916.89
460.233	27179.62
460.438	25619.07
460.644	26253.94
460.85	25270.91
461.055	24337.04
461.261	24437.39
461.466	22370.99
461.672	21985.97
461.878	23820.95
462.083	22362.79
462.289	21676.73
462.494	21394.11
462.7	20521.67
462.905	20038.35
463.111	20482.76
463.316	21072.57
463.522	20464.33
463.727	20493
463.932	20488.9
464.138	20073.17
464.343	20286.15
464.549	19546.84
464.754	20312.78
464.959	20212.43
465.165	19747.54
465.37	19114.72
465.575	18911.97
465.781	19544.79
465.986	19262.17
466.191	18787.04
466.397	18735.84
466.602	17443.57
466.807	18309.86
467.012	18268.91
467.218	17994.48
467.423	17793.78
467.628	18023.15
467.833	19106.52
468.038	17705.71
468.244	17726.19
468.449	18295.53
468.654	17521.4
468.859	17543.92
469.064	17369.85
469.269	16950.01
469.474	16616.19
469.679	17144.57
469.885	16608
470.09	16796.42
470.295	16882.43
470.5	16257.8
470.705	16501.51
470.91	16153.35
471.115	16024.33
471.32	16392.97
471.525	16227.08
471.73	15600.4
471.935	15932.17
472.139	15285.01
472.344	15452.95
472.549	15274.77
472.754	14844.7
472.959	14799.65
473.164	14404.39
473.369	14324.52
473.574	14754.59
473.778	14652.19
473.983	14320.42
474.188	14644
474.393	13734.7
474.598	13802.29
474.802	13681.46
475.007	13652.78
475.212	13660.98
475.417	13142.84
475.621	13155.13
475.826	13122.36
476.031	13105.98
476.235	12718.91
476.44	12661.57
476.645	12755.77
476.849	12813.12
477.054	12401.47
477.259	12286.79
477.463	12192.58
477.668	12071.75
477.872	12147.53
478.077	12026.7
478.282	11768.65
478.486	11901.77
478.691	11553.62
478.895	11434.83
479.1	11617.1
479.304	11475.79
479.509	11225.94
479.713	11498.32
479.918	11215.7
480.122	10916.7
480.326	11027.29
480.531	11234.13
480.735	11117.4
480.94	10945.37
481.144	11064.15
481.348	10675.04
481.553	10896.22
481.757	10779.48
481.961	10865.5
482.166	10894.17
482.37	10896.22
482.574	10754.91
482.778	10580.83
482.983	10953.56
483.187	10716
483.391	10775.39
483.595	10617.69
483.8	10759
484.004	10689.37
484.208	10703.71
484.412	10586.97
484.616	10720.09
484.821	10806.11
485.025	10351.46
485.229	10847.07
485.433	10695.52
485.637	10863.45
485.841	10445.66
486.045	10455.9
486.249	10650.46
486.453	10586.97
486.657	10656.61
486.861	10865.5
487.065	10302.31
487.269	10836.83
487.473	10238.82
487.677	10695.52
487.881	10783.58
488.085	10638.17
488.289	10773.34
488.493	10621.79
488.697	10888.03
488.901	10871.64
489.105	10687.32
489.309	10726.24
489.512	10761.05
489.716	10959.7
489.92	10984.28
490.124	10976.09
490.328	11004.76
490.531	10810.2
490.735	11058.01
490.939	11260.76
491.143	10812.25
491.346	11033.43
491.55	11182.93
491.754	11039.58
491.958	11221.84
492.161	11215.7
492.365	11424.59
492.569	11440.98
492.772	11338.58
492.976	11314
493.18	11469.65
493.383	11688.78
493.587	11623.25
493.79	11776.84
493.994	11418.45
494.197	11772.75
494.401	11768.65
494.605	11920.2
494.808	12051.27
495.012	12149.57
495.215	12145.48
495.419	12323.65
495.622	12307.27
495.825	12596.03
496.029	12381
496.232	12792.64
496.436	12598.08
496.639	13230.9
496.843	13095.74
497.046	13271.86
497.249	13398.84
497.453	13529.91
497.656	13626.16
497.859	13466.42
498.063	13787.95
498.266	13867.82
498.469	14041.9
498.673	14160.68
498.876	14488.35
499.079	14336.81
499.282	14545.7
499.485	15000.35
499.689	14881.56
499.892	15131.42
500.095	15350.55
500.298	15526.68
500.501	15348.5
500.705	15807.25
500.908	16229.13
501.111	16145.16
501.314	16321.29
501.517	16294.66
501.72	16640.77
501.923	16583.43
502.126	17048.32
502.329	17134.33
502.532	17281.78
502.735	17421.05
502.938	17863.41
503.141	17937.13
503.344	18217.71
503.547	18180.84
503.75	18408.17
503.953	18778.85
504.156	18764.51
504.359	19127
504.562	19366.62
504.765	19598.04
504.968	19741.39
505.17	19909.33
505.373	19981.01
505.576	20185.8
505.779	20546.25
505.982	20761.28
506.185	20992.7
506.387	21416.63
506.59	21433.02
506.793	21607.09
506.996	21750.45
507.198	22319.79
507.401	22493.86
507.604	22561.45
507.807	22811.3
508.009	22864.55
508.212	23151.26
508.415	23483.03
508.617	23630.49
508.82	23567
509.022	23472.79
509.225	24439.44
509.428	24627.85
509.63	24853.12
509.833	24846.98
510.035	25512.57
510.238	25285.25
510.44	25946.74
510.643	26073.71
510.845	26479.21
511.048	26276.46
511.25	26757.74
511.453	26673.77
511.655	27925.08
511.858	27544.16
512.06	27779.67
512.262	28070.48
512.465	28043.86
512.667	28791.37
512.87	28852.81
513.072	28731.98
513.274	29575.74
513.477	29600.32
513.679	29903.42
513.881	30315.06
514.084	30343.73
514.286	30429.74
514.488	30964.26
514.69	31435.3
514.893	31689.24
515.095	31560.22
515.297	32330.26
515.499	32385.55
515.701	32936.46
515.904	33147.4
516.106	33323.52
516.308	33315.33
516.51	33880.57
516.712	33923.58
516.914	34210.29
517.116	34767.34
517.318	35109.35
517.52	35422.69
517.722	35230.18
517.925	36051.42
518.127	36477.4
518.329	36555.22
518.531	36551.12
518.733	37056.97
518.935	37222.86
519.136	37575.11
519.338	38035.9
519.54	37810.62
519.742	38341.05
519.944	38910.38
520.146	39252.39
520.348	39215.53
520.55	39487.91
520.752	39711.14
520.954	40606.1
521.155	39825.82
521.357	40851.86
521.559	40688.02
521.761	41460.1
521.963	41763.2
522.164	41744.77
522.366	41924.99
522.568	42723.7
522.77	42817.91
522.971	43473.26
523.173	42955.12
523.375	43489.64
523.576	43383.15
523.778	43409.77
523.98	44106.08
524.181	44306.78
524.383	44722.52
524.584	44448.09
524.786	44808.53
524.988	44976.47
525.189	45508.94
525.391	46033.22
525.592	45912.39
525.794	46246.21
525.995	46076.22
526.197	46393.66
526.398	46463.29
526.6	47008.05
526.801	47178.03
527.003	47180.08
527.204	47147.31
527.406	47773.99
527.607	47696.17
527.808	48007.46
528.01	47548.71
528.211	47837.48
528.412	48904.47
528.614	48376.09
528.815	48392.48
529.016	48849.17
529.218	48408.86
529.419	49115.41
529.62	48795.93
529.822	48980.24
530.023	48978.2
530.224	49035.54
530.425	49146.13
530.626	49207.57
530.828	48750.87
531.029	49756.42
531.23	49176.85
531.431	49993.99
531.632	49649.93
531.833	49854.73
532.035	49580.3
532.236	49660.17
532.437	50356.48
532.638	49862.92
532.839	50096.39
533.04	50260.23
533.241	50102.53
533.442	50688.25
533.643	50426.11
533.844	50637.05
534.045	50606.33
534.246	50243.84
534.447	50817.27
534.648	50540.8
534.849	50483.45
535.05	50241.79
535.251	50215.17
535.451	50446.59
535.652	50745.59
535.853	50614.52
536.054	51015.93
536.255	50751.74
536.456	50018.56
536.657	51345.65
536.857	50761.98
537.058	50839.8
537.259	51261.68
537.46	51020.02
537.66	50718.97
537.861	50788.6
538.062	50219.27
538.263	50759.93
538.463	50657.53
538.664	50620.67
538.865	50708.73
539.065	50868.47
539.266	50477.31
539.466	51046.65
539.667	50489.6
539.868	51163.38
540.068	50649.34
540.269	50659.58
540.469	51429.62
540.67	50145.54
540.87	50833.66
541.071	50821.37
541.271	50819.32
541.472	50813.18
541.672	50753.79
541.873	50882.81
542.073	49967.37
542.274	50907.38
542.474	50252.03
542.675	50186.5
542.875	50989.3
543.075	50553.08
543.276	50276.61
543.476	51224.82
543.676	50700.54
543.877	50798.84
544.077	50753.79
544.277	50661.63
544.478	50510.08
544.678	50839.8
544.878	50704.63
545.078	50645.24
545.279	50383.1
545.479	50301.18
545.679	50581.76
545.879	50415.87
546.079	50538.75
546.28	50972.92
546.48	50045.19
546.68	50614.52
546.88	50577.66
547.08	50540.8
547.28	50305.28
547.48	50157.83
547.68	51020.02
547.88	50116.87
548.081	50442.49
548.281	50411.77
548.481	50262.27
548.681	50239.75
548.881	50321.66
549.081	50630.91
549.28	50280.7
549.48	50413.82
549.68	50399.49
549.88	50776.31
550.08	49834.25
550.28	50440.45
550.48	50153.73
550.68	50262.27
550.88	49985.8
551.08	50129.16
551.279	50526.46
551.479	50145.54
551.679	50450.69
551.879	49987.85
552.079	50182.4
552.278	49776.9
552.478	49944.84
552.678	49989.89
552.878	50440.45
553.077	50096.39
553.277	49527.05
553.477	50465.02
553.676	49510.67
553.876	49789.19
554.076	49844.49
554.275	49735.95
554.475	49246.48
554.674	49563.92
554.874	50047.24
555.074	49670.41
555.273	49852.68
555.473	49989.89
555.672	49301.78
555.872	49447.18
556.071	49522.96
556.271	50047.24
556.47	49486.09
556.67	49246.48
556.869	49182.99
557.068	49424.65
557.268	49033.49
557.467	49309.97
557.667	49334.54
557.866	49123.6
558.065	48818.46
558.265	49031.44
558.464	48619.8
558.663	49359.12
558.863	48607.51
559.062	49551.63
559.261	48642.33
559.461	49035.54
559.66	48126.24
559.859	48625.95
560.058	48236.83
560.258	48558.36
560.457	47884.58
560.656	48572.7
560.855	48122.15
561.054	48263.46
561.253	47741.22
561.453	48326.94
561.652	48331.04
561.851	48277.79
562.05	47802.66
562.249	47769.9
562.448	47860.01
562.647	47659.3
562.846	47835.43
563.045	47929.64
563.244	47446.32
563.443	47860.01
563.642	46956.85
563.841	47182.13
564.04	47239.47
564.239	47132.98
564.438	46651.7
564.637	47417.64
564.836	46680.38
565.035	46534.97
565.234	46963
565.432	46758.2
565.631	46473.53
565.83	46590.27
566.029	46231.87
566.228	46354.75
566.427	46301.5
566.625	45965.63
566.824	45519.18
567.023	45898.05
567.222	45347.15
567.42	45777.22
567.619	45701.45
567.818	45478.22
568.016	45017.43
568.215	46039.36
568.414	45730.12
568.612	45396.3
568.811	44702.04
569.01	45291.85
569.208	44534.1
569.407	44851.54
569.605	44568.92
569.804	45001.04
570.002	44126.56
570.201	44634.45
570.4	43997.54
570.598	44226.91
570.797	43925.86
570.995	44329.31
571.193	43575.66
571.392	44411.23
571.59	43288.94
571.789	43620.71
571.987	43518.31
572.186	43258.22
572.384	43407.72
572.582	43518.31
572.781	43254.12
572.979	42891.63
573.177	43018.61
573.376	43133.29
573.574	42768.76
573.772	42735.99
573.971	42191.23
574.169	42535.29
574.367	42060.16
574.565	42457.46
574.763	42293.63
574.962	41886.08
575.16	41816.45
575.358	41871.75
575.556	41421.19
575.754	42000.77
575.952	41173.39
576.151	41888.13
576.349	40995.21
576.547	41472.39
576.745	41068.94
576.943	41431.43
577.141	41111.95
577.339	40944.02
577.537	40638.87
577.735	40720.79
577.933	40055.2
578.131	40458.65
578.329	40520.09
578.527	40305.05
578.725	39952.8
578.923	40491.41
579.121	40325.53
579.319	39877.02
579.516	40145.31
579.714	39760.29
579.912	39408.04
580.11	39428.52
580.308	39543.2
580.506	39344.55
580.704	38805.94
580.901	39121.32
581.099	39375.27
581.297	38820.27
581.495	38848.94
581.692	38904.24
581.89	38842.8
582.088	38779.31
582.285	38322.62
582.483	38681.01
582.681	38334.9
582.878	37841.34
583.076	37913.02
583.274	38513.08
583.471	37755.33
583.669	37798.34
583.866	37374.41
584.064	37812.67
584.262	37368.26
584.459	37538.24
584.657	37329.35
584.854	37626.31
585.052	36852.17
585.249	37235.14
585.447	37194.18
585.644	36977.1
585.841	36817.36
586.039	37128.65
586.236	36893.13
586.434	36286.93
586.631	36424.15
586.828	36444.63
587.026	36372.95
587.223	36153.82
587.42	36297.17
587.618	36084.19
587.815	35772.89
588.012	35705.31
588.21	35707.36
588.407	35779.04
588.604	35383.78
588.801	35316.2
588.999	35236.33
589.196	35305.96
589.393	35099.11
589.59	34605.55
589.787	34611.7
589.984	34716.14
590.182	34179.57
590.379	35054.06
590.576	34632.18
590.773	34580.98
590.97	34103.8
591.167	34265.59
591.364	33880.57
591.561	34429.43
591.758	33784.32
591.955	33653.25
592.152	33870.33
592.349	33716.73
592.546	33647.1
592.743	33475.07
592.94	33257.99
593.137	33225.22
593.334	33376.77
593.531	32670.22
593.727	33067.53
593.924	32928.27
594.121	32545.3
594.318	32913.93
594.515	32320.02
594.712	32645.65
594.908	32354.83
595.105	32442.9
595.302	31990.3
595.499	32021.02
595.696	32004.63
595.892	31724.06
596.089	31568.41
596.286	32066.07
596.482	31549.98
596.679	31382.05
596.876	31517.22
597.072	31314.47
597.269	31201.83
597.466	31240.74
597.662	31023.65
597.859	31005.22
598.055	30927.4
598.252	31140.39
598.448	30822.95
598.645	30456.37
598.841	30503.47
599.038	30319.15
599.234	30323.25
599.431	30159.41
599.627	30157.36
599.824	30388.78
600.02	30151.22
600.217	30032.44
600.413	29758.01
600.609	29731.39
600.806	29379.14
601.002	29772.35
601.198	29547.07
601.395	29336.13
601.591	29168.19
601.787	29401.66
601.984	28975.69
602.18	29375.04
602.376	29219.39
602.572	28957.25
602.769	28846.66
602.965	28277.33
603.161	28557.9
603.357	28287.57
603.553	28594.76
603.75	28525.13
603.946	27988.56
604.142	28320.34
604.338	27652.7
604.534	28377.68
604.73	27939.41
604.926	27789.91
605.122	27916.89
605.318	27779.67
605.514	27650.65
605.71	27167.33
605.906	27648.6
606.102	27648.6
606.298	27468.38
606.494	27454.05
606.69	27130.47
606.886	27316.83
607.082	26911.33
607.278	27140.71
607.474	26538.6
607.67	26878.57
607.866	26298.99
608.062	26735.21
608.257	26442.35
608.453	26385.01
608.649	26784.36
608.845	26581.61
609.041	26448.49
609.236	26659.43
609.432	26071.67
609.628	26415.72
609.824	26190.45
610.019	25772.66
610.215	25795.19
610.411	26186.35
610.606	25850.49
610.802	26036.85
610.998	25866.87
611.193	25674.36
611.389	25631.35
611.584	25387.64
611.78	25367.16
611.976	25551.48
612.171	25475.71
612.367	25260.67
612.562	25498.23
612.758	24892.04
612.953	24947.33
613.149	25236.09
613.344	25168.51
613.539	25244.29
613.735	25027.2
613.93	24957.57
614.126	24906.37
614.321	25000.58
614.517	24715.91
614.712	24545.93
614.907	24437.39
615.103	24627.85
615.298	24525.45
615.493	24570.51
615.688	24193.68
615.884	24459.91
616.079	24138.38
616.274	24343.18
616.47	24576.65
616.665	24199.82
616.86	24208.01
617.055	23786.13
617.25	24052.37
617.445	23958.16
617.641	23585.43
617.836	23980.69
618.031	23515.8
618.226	23626.39
618.421	23648.92
618.616	23624.34
618.811	23130.78
619.006	23341.72
619.201	23120.54
619.396	23130.78
619.591	22952.61
619.786	22981.28
619.981	22729.38
620.176	22590.12
620.371	22602.41
620.566	22649.51
620.761	22381.23
620.956	22495.91
621.151	21848.75
621.346	22524.58
621.541	21861.04
621.735	22153.9
621.93	21949.11
622.125	21912.24
622.32	21443.26
622.515	21549.75
622.709	21514.94
622.904	21521.08
623.099	21207.74
623.294	21242.56
623.488	21105.34
623.683	21207.74
623.878	20740.8
624.072	20966.08
624.267	20740.8
624.462	20609.73
624.656	20576.97
624.851	20468.42
625.046	20298.44
625.24	20157.13
625.435	20347.59
625.629	20130.51
625.824	19591.89
626.018	19720.92
626.213	19649.24
626.407	19348.18
626.602	19346.14
626.796	19278.55
626.991	19288.79
627.185	19086.04
627.38	18942.69
627.574	18957.02
627.768	18522.85
627.963	18733.79
628.157	18664.16
628.352	18610.92
628.546	18088.68
628.74	18582.24
628.935	18131.69
629.129	18070.25
629.323	17867.5
629.517	17713.91
629.712	17879.79
629.906	17742.58
630.1	17296.12
630.294	17709.81
630.489	17330.94
630.683	17402.61
630.877	17228.54
631.071	17117.95
631.265	17074.94
631.459	16990.97
631.653	16929.53
631.848	17005.31
632.042	16720.64
632.236	16704.26
632.43	16339.72
632.624	16700.16
632.818	16521.99
633.012	16247.56
633.206	15983.37
633.4	16196.36
633.594	15981.32
633.788	15964.94
633.982	15799.05
634.176	16028.43
634.369	15547.15
634.563	15725.33
634.757	15516.44
634.951	15555.35
635.145	15715.09
635.339	15260.44
635.533	15190.81
635.726	15350.55
635.92	14990.11
636.114	15086.36
636.308	14758.69
636.501	14973.72
636.695	14846.75
636.889	14594.85
637.083	14736.16
637.276	14459.68
637.47	14418.72
637.664	14381.86
637.857	14275.37
638.051	14064.43
638.244	14134.06
638.438	13914.92
638.632	14062.38
638.825	13867.82
639.019	13935.4
639.212	13572.91
639.406	13550.39
639.599	13617.97
639.793	13671.22
639.986	13329.2
640.18	13574.96
640.373	13302.58
640.567	13157.18
640.76	13132.6
640.954	13003.58
641.147	12901.18
641.34	13177.65
641.534	12915.51
641.727	12737.34
641.92	12735.29
642.114	12583.74
642.307	12596.03
642.5	12706.62
642.694	12315.46
642.887	12477.25
643.08	12550.98
643.273	12297.03
643.467	12213.06
643.66	11834.19
643.853	11877.19
644.046	11955.02
644.239	11887.43
644.432	11871.05
644.626	11678.54
644.819	11707.21
645.012	11805.52
645.205	11600.72
645.398	11606.86
645.591	11543.38
645.784	11670.35
645.977	11342.67
646.17	11273.04
646.363	11227.99
646.556	11047.77
646.749	11131.73
646.942	11219.8
647.135	11047.77
647.328	11051.86
647.521	10892.12
647.714	10994.52
647.907	10840.92
648.099	10732.38
648.292	10750.81
648.485	10505.06
648.678	10398.56
648.871	10443.62
649.064	10449.76
649.256	10382.18
649.449	10298.21
649.642	10318.69
649.835	10347.36
650.027	10439.52
650.22	10005.35
650.413	10181.48
650.605	10031.97
650.798	10046.31
650.991	9956.2
651.183	10187.62
651.376	9769.83
651.568	9831.27
651.761	9743.21
651.954	9708.4
652.146	9524.08
652.339	9603.95
652.531	9536.37
652.724	9526.13
652.916	9243.51
653.109	9280.37
653.301	9124.72
653.494	9180.02
653.686	9161.59
653.879	9225.08
654.071	9040.76
654.263	8946.55
654.456	8889.21
654.648	9038.71
654.84	8844.15
655.033	8780.67
655.225	8758.14
655.417	8840.06
655.61	8829.82
655.802	8745.85
655.994	8565.63
656.186	8569.73
656.379	8543.1
656.571	8475.52
656.763	8512.38
656.955	8407.94
657.148	8403.84
657.34	8416.13
657.532	8225.67
657.724	8264.58
657.916	8395.65
658.108	8143.75
658.3	8196.99
658.492	7918.47
658.684	7957.38
658.876	8098.69
659.068	7981.96
659.26	7986.05
659.452	7846.79
659.644	7973.77
659.836	7701.39
660.028	7871.37
660.22	7685
660.412	7752.59
660.604	7715.72
660.796	7658.38
660.988	7664.52
661.18	7474.06
661.372	7437.2
661.563	7619.47
661.755	7361.42
661.947	7453.58
662.139	7357.33
662.331	7293.84
662.522	7179.15
662.714	7386
662.906	7277.46
663.097	7242.64
663.289	6966.17
663.481	7003.03
663.673	7199.63
663.864	7113.62
664.056	7035.8
664.247	7011.22
664.439	6742.94
664.631	7091.09
664.822	6968.21
665.014	6941.59
665.205	6904.73
665.397	6837.14
665.588	6808.47
665.78	6747.03
665.971	6878.1
666.163	6742.94
666.354	6728.6
666.546	6575
666.737	6452.13
666.929	6642.59
667.12	6556.57
667.311	6560.67
667.503	6423.45
667.694	6288.29
667.885	6378.4
668.077	6290.34
668.268	6409.12
668.459	6343.58
668.651	6337.44
668.842	6216.61
669.033	6345.63
669.224	6308.77
669.416	6323.1
669.607	5985.19
669.798	6093.73
669.989	6269.86
670.18	6230.94
670.371	6050.72
670.563	6077.35
670.754	6185.89
670.945	6020
671.136	5940.13
671.327	6034.34
671.518	6007.72
671.709	6093.73
671.9	5974.95
672.091	5970.85
672.282	5866.41
672.473	5538.73
672.664	5921.7
672.855	5596.07
673.046	5804.97
673.237	5835.69
673.428	5694.38
673.619	5862.31
673.809	5524.4
674	5641.13
674.191	5684.14
674.382	5659.56
674.573	5657.51
674.764	5651.37
674.954	5561.26
675.145	5540.78
675.336	5559.21
675.527	5471.15
675.717	5557.16
675.908	5422
676.099	5477.29
676.289	5551.02
676.48	5403.57
676.671	5374.89
676.861	5350.32
677.052	5481.39
677.243	5376.94
677.433	5399.47
677.624	5254.06
677.814	5295.02
678.005	5403.57
678.195	5237.68
678.386	5288.88
678.576	5137.33
678.767	5338.03
678.957	5120.95
679.148	5333.93
679.338	5278.64
679.529	5256.11
679.719	5301.17
679.909	5417.9
680.1	5270.45
680.29	5268.4
680.481	5190.58
680.671	5082.03
680.861	5342.13
681.052	5096.37
681.242	5143.47
681.432	5104.56
681.622	5075.89
681.813	5096.37
682.003	5016.5
682.193	4875.19
682.383	5047.22
682.573	4969.4
682.764	4971.44
682.954	5102.51
683.144	5014.45
683.334	5026.74
683.524	5133.23
683.714	4971.44
683.904	4879.29
684.094	4875.19
684.284	4971.44
684.474	4961.2
684.664	4860.85
684.854	4979.64
685.044	4930.48
685.234	4910.01
685.424	4871.09
685.614	4762.55
685.804	4887.48
685.994	4850.61
686.184	4766.65
686.374	4703.16
686.564	4783.03
686.753	4727.74
686.943	4678.58
687.133	4682.68
687.323	4555.71
687.513	4615.1
687.702	4719.54
687.892	4584.38
688.082	4647.87
688.272	4604.86
688.461	4662.2
688.651	4596.67
688.841	4445.12
689.03	4572.09
689.22	4539.32
689.41	4553.66
689.599	4359.1
689.789	4508.6
689.979	4432.83
690.168	4320.19
690.358	4252.61
690.547	4383.68
690.737	4375.49
690.926	4346.81
691.116	4262.85
691.305	4496.32
691.495	4223.94
691.684	4346.81
691.874	4352.96
692.063	4309.95
692.252	4322.24
692.442	4275.13
692.631	4070.34
692.82	4246.46
693.01	4070.34
693.199	4002.75
693.388	4015.04
693.578	4187.07
693.767	4160.45
693.956	4211.65
694.146	4201.41
694.335	4015.04
694.524	3951.56
694.713	4088.77
694.902	4068.29
695.092	4092.87
695.281	3955.65
695.47	4043.71
695.659	4029.38
695.848	3800.01
696.037	3965.89
696.226	4053.95
696.415	3888.07
696.604	3879.88
696.793	3931.08
696.982	4053.95
697.171	3990.47
697.36	3916.74
697.549	3943.36
697.738	3912.64
697.927	3937.22
698.116	3871.68
698.305	3904.45
698.494	3843.01
698.683	3840.97
698.872	3824.58
699.061	3900.36
699.25	3935.17
699.438	3867.59
699.627	3892.16
699.816	3883.97
700.005	3713.99
700.193	3724.23
700.382	3826.63
700.571	3810.25
700.76	3761.09
700.948	3836.87
701.137	3863.49
701.326	3873.73
701.514	3791.81
701.703	3654.6
701.892	3711.94
702.08	3871.68
702.269	3804.1
702.457	3781.57
702.646	3781.57
702.834	3736.52
703.023	3728.33
703.212	3681.22
703.4	3771.33
703.589	3769.29
703.777	3707.85
703.965	3775.43
704.154	3765.19
704.342	3627.98
704.531	3802.05
704.719	3654.6
704.907	3644.36
705.096	3576.78
705.284	3625.93
705.472	3767.24
705.661	3601.35
705.849	3656.65
706.037	3636.17
706.226	3650.5
706.414	3785.67
706.602	3722.18
706.79	3834.82
706.979	3544.01
707.167	3693.51
707.355	3660.74
707.543	3705.8
707.731	3664.84
707.919	3548.11
708.107	3632.07
708.296	3591.11
708.484	3544.01
708.672	3693.51
708.86	3593.16
709.048	3638.22
709.236	3660.74
709.424	3668.94
709.612	3681.22
709.8	3736.52
709.988	3666.89
710.176	3668.94
710.364	3589.07
710.551	3554.25
710.739	3603.4
710.927	3668.94
711.115	3660.74
711.303	3619.78
711.491	3535.82
711.679	3552.2
711.866	3625.93
712.054	3556.3
712.242	3619.78
712.43	3728.33
712.617	3627.98
712.805	3568.59
712.993	3621.83
713.181	3619.78
713.368	3695.56
713.556	3722.18
713.744	3578.83
713.931	3529.67
714.119	3619.78
714.306	3718.09
714.494	3630.02
714.682	3603.4
714.869	3593.16
715.057	3597.26
715.244	3478.47
715.432	3582.92
715.619	3552.2
715.807	3675.08
715.994	3589.07
716.182	3664.84
716.369	3679.18
716.556	3638.22
716.744	3505.1
716.931	3587.02
717.119	3599.31
717.306	3621.83
717.493	3546.06
717.681	3552.2
717.868	3660.74
718.055	3490.76
718.242	3484.62
718.43	3527.63
718.617	3566.54
718.804	3564.49
718.991	3584.97
719.179	3660.74
719.366	3541.96
719.553	3591.11
719.74	3531.72
719.927	3705.8
720.114	3521.48
720.301	3443.66
720.488	3458
720.676	3562.44
720.863	3511.24
721.05	3455.95
721.237	3507.15
721.424	3509.19
721.611	3515.34
721.798	3462.09
721.985	3556.3
722.172	3654.6
722.358	3333.07
722.545	3458
722.732	3521.48
722.919	3587.02
723.106	3357.64
723.293	3507.15
723.48	3470.28
723.667	3496.91
723.853	3441.61
724.04	3515.34
724.227	3505.1
724.414	3498.95
724.6	3425.23
724.787	3394.51
724.974	3490.76
725.161	3408.84
725.347	3468.24
725.534	3460.04
725.72	3509.19
725.907	3494.86
726.094	3492.81
726.28	3335.12
726.467	3353.55
726.653	3308.49
726.84	3429.32
727.027	3607.5
727.213	3298.25
727.4	3425.23
727.586	3458
727.773	3412.94
727.959	3333.07
728.145	3394.51
728.332	3308.49
728.518	3470.28
728.705	3355.6
728.891	3509.19
729.077	3374.03
729.264	3339.21
729.45	3400.65
729.636	3376.08
729.823	3345.36
730.009	3374.03
730.195	3439.56
730.382	3369.93
730.568	3392.46
730.754	3421.13
730.94	3374.03
731.126	3292.11
731.313	3253.2
731.499	3406.8
731.685	3261.39
731.871	3423.18
732.057	3224.53
732.243	3257.29
732.429	3179.47
732.615	3349.45
732.801	3257.29
732.987	3341.26
733.173	3245.01
733.359	3251.15
733.545	3214.29
733.731	3285.97
733.917	3337.17
734.103	3400.65
734.289	3216.33
734.475	3253.2
734.661	3341.26
734.847	3226.57
735.033	3236.81
735.219	3267.53
735.404	3271.63
735.59	3335.12
735.776	3285.97
735.962	3279.82
736.148	3206.1
736.333	3269.58
736.519	3072.98
736.705	3171.28
736.89	3152.85
737.076	3142.61
737.262	3199.95
737.447	3122.13
737.633	3179.47
737.819	3105.74
738.004	3075.03
738.19	3003.35
738.375	3060.69
738.561	3310.54
738.747	3068.88
738.932	3060.69
739.118	3013.59
739.303	3099.6
739.489	3089.36
739.674	2941.91
739.859	2958.29
740.045	2888.66
740.23	3118.03
740.416	2868.18
740.601	3138.51
740.786	2923.48
740.972	3009.49
741.157	2966.48
741.342	2884.56
741.528	2954.19
741.713	3072.98
741.898	2921.43
742.084	2978.77
742.269	2958.29
742.454	2905.04
742.639	2991.06
742.824	2880.47
743.01	2862.04
743.195	2915.28
743.38	2687.96
743.565	2765.78
743.75	2761.69
743.935	2816.98
744.12	2808.79
744.305	2802.65
744.49	2677.72
744.675	2647
744.86	2761.69
745.045	2724.82
745.23	2618.33
745.415	2816.98
745.6	2751.45
745.785	2544.6
745.97	2614.23
746.155	2583.51
746.34	2563.03
746.525	2565.08
746.71	2685.91
746.895	2591.7
747.079	2511.83
747.264	2507.74
747.449	2429.91
747.634	2501.59
747.819	2544.6
748.003	2409.44
748.188	2491.35
748.373	2405.34
748.557	2380.76
748.742	2427.87
748.927	2362.33
749.111	2376.67
749.296	2245.6
749.481	2409.44
749.665	2321.37
749.85	2317.28
750.034	2272.22
750.219	2286.56
750.404	2268.13
750.588	2233.31
750.773	2145.25
750.957	2188.25
751.141	2167.77
751.326	2159.58
751.51	2102.24
751.695	2116.58
751.879	2116.58
752.064	2253.79
752.248	2036.7
752.432	2259.93
752.617	1932.26
752.801	2034.66
752.985	1987.55
753.17	2012.13
753.354	2034.66
753.538	2079.71
753.722	1893.35
753.907	2008.03
754.091	1899.49
754.275	1958.88
754.459	1913.83
754.643	1946.59
754.828	1962.98
755.012	1831.91
755.196	1790.95
755.38	1893.35
755.564	1817.57
755.748	1811.43
755.932	1838.05
756.116	1817.57
756.3	1790.95
756.484	1780.71
756.668	1637.35
756.852	1692.65
757.036	1797.09
757.22	1647.59
757.404	1756.13
757.588	1635.3
757.772	1709.03
757.956	1698.79
758.14	1516.52
758.323	1557.48
758.507	1655.78
758.691	1674.21
758.875	1670.12
759.059	1633.26
759.242	1602.54
759.426	1608.68
759.61	1543.14
759.794	1553.38
759.977	1651.69
760.161	1518.57
760.345	1674.21
760.528	1561.58
760.712	1582.06
760.895	1635.3
761.079	1444.84
761.263	1455.08
761.446	1489.9
761.63	1555.43
761.813	1399.79
761.997	1381.35
762.18	1348.59
762.364	1438.7
762.547	1434.6
762.731	1426.41
762.914	1442.79
763.098	1407.98
763.281	1428.46
763.464	1403.88
763.648	1287.15
763.831	1342.44
764.015	1385.45
764.198	1373.16
764.381	1348.59
764.564	1348.59
764.748	1385.45
764.931	1389.55
765.114	1326.06
765.297	1344.49
765.481	1321.96
765.664	1270.76
765.847	1342.44
766.03	1303.53
766.213	1299.44
766.397	1303.53
766.58	1287.15
766.763	1246.19
766.946	1305.58
767.129	1240.05
767.312	1258.48
767.495	1252.33
767.678	1235.95
767.861	1201.13
768.044	1238
768.227	1176.56
768.41	1227.76
768.593	1283.05
768.776	1278.96
768.959	1227.76
769.142	1229.81
769.324	1205.23
769.507	1106.93
769.69	1160.17
769.873	1219.57
770.056	1252.33
770.239	1168.37
770.421	1192.94
770.604	1242.09
770.787	1135.6
770.97	1174.51
771.152	1098.74
771.335	1160.17
771.518	1096.69
771.7	1072.11
771.883	1141.74
772.066	1131.5
772.248	1094.64
772.431	1080.3
772.613	1090.54
772.796	1025.01
772.978	1108.98
773.161	1061.87
773.343	1076.21
773.526	1053.68
773.708	994.29
773.891	1018.86
774.073	924.66
774.256	918.51
774.438	1057.78
774.621	1031.15
774.803	990.19
774.985	918.51
775.168	1041.39
775.35	955.38
775.532	967.67
775.715	891.89
775.897	959.47
776.079	963.57
776.261	963.57
776.444	936.95
776.626	984.05
776.808	916.47
776.99	906.23
777.173	879.6
777.355	922.61
777.537	822.26
777.719	867.31
777.901	803.83
778.083	922.61
778.265	867.31
778.447	828.4
778.629	816.12
778.811	803.83
778.993	754.68
779.175	838.64
779.357	797.68
779.539	795.64
779.721	746.48
779.903	805.88
780.085	738.29
780.267	764.92
780.449	844.79
780.631	760.82
780.812	730.1
780.994	736.24
781.176	799.73
781.358	789.49
781.54	676.85
781.721	728.05
781.903	705.53
782.085	695.29
782.267	734.2
782.448	717.81
782.63	709.62
782.812	730.1
782.993	678.9
783.175	726
783.357	711.67
783.538	644.09
783.72	631.8
783.901	627.7
784.083	648.18
784.264	633.85
784.446	619.51
784.627	654.33
784.809	607.22
784.99	588.79
785.172	629.75
785.353	580.6
785.535	596.98
785.716	635.89
785.897	533.5
786.079	590.84
786.26	570.36
786.441	576.5
786.623	484.34
786.804	525.3
786.985	543.74
787.167	508.92
787.348	635.89
787.529	543.74
787.71	517.11
787.891	603.13
788.073	564.22
788.254	467.96
788.435	547.83
788.616	465.91
788.797	527.35
788.978	504.82
789.159	467.96
789.34	463.86
789.522	547.83
789.703	445.43
789.884	437.24
790.065	492.54
790.246	578.55
790.427	412.67
790.607	592.89
790.788	476.15
790.969	435.19
791.15	408.57
791.331	451.58
791.512	457.72
791.693	433.15
791.874	431.1
792.054	519.16
792.235	519.16
792.416	451.58
792.597	443.39
792.778	449.53
792.958	412.67
793.139	424.95
793.32	394.23
793.5	390.14
793.681	398.33
793.862	410.62
794.042	359.42
794.223	390.14
794.404	383.99
794.584	300.03
794.765	381.95
794.945	427
795.126	324.6
795.306	429.05
795.487	328.7
795.667	398.33
795.848	371.71
796.028	410.62
796.209	322.56
796.389	316.41
796.57	414.71
796.75	427
796.93	318.46
797.111	320.51
797.291	367.61
797.471	443.39
797.652	252.92
797.832	308.22
798.012	398.33
798.192	347.13
798.373	414.71
798.553	293.88
798.733	285.69
798.913	316.41
799.093	340.99
799.274	310.27
799.454	343.03
799.634	332.79
799.814	322.56
799.994	318.46
800.174	369.66
800.354	279.55
800.534	271.36
800.714	304.12
800.894	271.36
801.074	363.51
801.254	302.08
801.434	334.84
801.614	285.69
801.794	324.6
801.974	850.93
802.154	302.08
802.334	263.16
802.514	267.26
802.693	310.27
802.873	271.36
803.053	308.22
803.233	261.12
803.413	297.98
803.592	314.36
803.772	302.08
803.952	261.12
804.131	277.5
804.311	302.08
804.491	353.27
804.67	171.01
804.85	308.22
805.03	300.03
805.209	220.16
805.389	273.4
805.568	246.78
805.748	291.84
805.928	234.49
806.107	250.88
806.287	246.78
806.466	295.93
806.646	234.49
806.825	269.31
807.004	252.92
807.184	283.64
807.363	168.96
807.543	197.63
807.722	244.73
807.901	320.51
808.081	291.84
808.26	242.68
808.439	218.11
808.619	236.54
808.798	242.68
808.977	218.11
809.156	287.74
809.336	267.26
809.515	316.41
809.694	187.39
809.873	316.41
810.052	175.1
810.231	261.12
810.411	199.68
810.59	271.36
810.769	205.82
810.948	191.49
811.127	128
811.306	214.01
811.485	240.64
811.664	240.64
811.843	201.72
812.022	179.2
812.201	185.34
812.38	209.92
812.559	218.11
812.737	236.54
812.916	207.87
813.095	203.77
813.274	257.02
813.453	244.73
813.632	191.49
813.811	207.87
813.989	179.2
814.168	261.12
814.347	230.4
814.526	195.58
814.704	173.05
814.883	211.96
815.062	154.62
815.24	195.58
815.419	209.92
815.598	148.48
815.776	136.19
815.955	232.44
816.133	226.3
816.312	158.72
816.49	146.43
816.669	222.2
816.847	89.09
817.026	224.25
817.204	207.87
817.383	193.53
817.561	164.86
817.74	162.81
817.918	162.81
818.097	107.52
818.275	115.71
818.453	140.29
818.632	185.34
818.81	277.5
818.988	218.11
819.167	146.43
819.345	105.47
819.523	168.96
819.701	101.37
819.879	201.72
820.058	187.39
820.236	201.72
820.414	107.52
820.592	138.24
820.77	207.87
820.948	136.19
821.127	132.09
821.305	146.43
821.483	162.81
821.661	185.34
821.839	136.19
822.017	185.34
822.195	173.05
822.373	185.34
822.551	130.05
822.729	150.53
822.907	78.85
823.085	150.53
823.262	146.43
823.44	162.81
823.618	156.67
823.796	123.9
823.974	95.23
824.152	148.48
824.329	128
824.507	177.15
824.685	156.67
824.863	117.76
825.04	128
825.218	164.86
825.396	130.05
825.574	156.67
825.751	99.33
825.929	154.62
826.107	123.9
826.284	74.75
826.462	203.77
826.639	175.1
826.817	105.47
826.994	115.71
827.172	138.24
827.349	197.63
827.527	119.81
827.704	140.29
827.882	173.05
828.059	115.71
828.237	97.28
828.414	189.44
828.591	95.23
828.769	17.41
828.946	78.85
829.124	111.61
829.301	74.75
829.478	37.89
829.655	74.75
829.833	146.43
830.01	58.37
830.187	103.42
830.364	97.28
830.542	134.14
830.719	134.14
830.896	144.38
831.073	93.18
831.25	103.42
831.427	152.57
831.604	121.85
831.782	95.23
831.959	91.13
832.136	33.79
832.313	113.66
832.49	146.43
832.667	123.9
832.844	84.99
833.021	181.25
833.198	41.98
833.374	121.85
833.551	76.8
833.728	91.13
833.905	150.53
834.082	48.13
834.259	150.53
834.436	123.9
834.612	33.79
834.789	150.53
834.966	74.75
835.143	78.85
835.319	70.65
835.496	68.61
835.673	132.09
835.85	179.2
836.026	119.81
836.203	148.48
836.38	41.98
836.556	99.33
836.733	-17.41
836.909	87.04
837.086	130.05
837.262	70.65
837.439	66.56
837.616	117.76
837.792	148.48
837.968	41.98
838.145	9.22
838.321	113.66
838.498	87.04
838.674	70.65
838.851	19.46
839.027	33.79
839.203	111.61
839.38	50.18
839.556	91.13
839.732	115.71
839.909	21.5
840.085	60.42
840.261	-7.17
840.437	3.07
840.614	84.99
840.79	113.66
840.966	50.18
841.142	93.18
841.318	54.27
841.494	64.51
841.671	99.33
841.847	70.65
842.023	111.61
842.199	17.41
842.375	76.8
842.551	29.7
842.727	44.03
842.903	72.7
843.079	89.09
843.255	125.95
843.431	21.5
843.607	130.05
843.783	74.75
843.959	41.98
844.134	58.37
844.31	123.9
844.486	58.37
844.662	23.55
844.838	99.33
845.013	130.05
845.189	82.94
845.365	41.98
845.541	-11.26
845.716	35.84
845.892	-11.26
846.068	87.04
846.244	87.04
846.419	58.37
846.595	27.65
846.77	48.13
846.946	107.52
847.122	82.94
847.297	46.08
847.473	130.05
847.648	29.7
847.824	70.65
847.999	39.94
848.175	17.41
848.35	91.13
848.526	95.23
848.701	109.57
848.876	44.03
849.052	156.67
849.227	76.8
849.403	29.7
849.578	115.71
849.753	136.19
849.929	41.98
850.104	-3.07
850.279	58.37
850.454	74.75
850.63	91.13
850.805	54.27
850.98	-13.31
851.155	1.02
851.33	23.55
851.505	15.36
851.681	128
851.856	29.7
852.031	72.7
852.206	-27.65
852.381	33.79
852.556	17.41
852.731	58.37
852.906	50.18
853.081	74.75
853.256	-19.46
853.431	66.56
853.606	23.55
853.781	-15.36
853.956	76.8
854.131	52.22
854.305	11.26
854.48	-21.5
854.655	37.89
854.83	19.46
855.005	5.12
855.18	31.74
855.354	39.94
855.529	78.85
855.704	39.94
855.879	140.29
856.053	19.46
856.228	62.46
856.403	-11.26
856.577	95.23
856.752	13.31
856.926	9.22
857.101	58.37
857.276	101.37
857.45	29.7
857.625	68.61
857.799	60.42
857.974	74.75
858.148	-23.55
858.323	89.09
858.497	23.55
858.672	54.27
858.846	117.76
859.02	46.08
859.195	-15.36
859.369	41.98
859.543	48.13
859.718	107.52
859.892	-3.07
860.066	56.32
860.241	1.02
860.415	44.03
860.589	-17.41
860.763	39.94
860.938	37.89
861.112	109.57
861.286	9.22
861.46	58.37
861.634	33.79
861.808	101.37
861.982	-27.65
862.157	23.55
862.331	-21.5
862.505	11.26
862.679	50.18
862.853	5.12
863.027	-44.03
863.201	33.79
863.375	5.12
863.549	64.51
863.722	39.94
863.896	115.71
864.07	66.56
864.244	54.27
864.418	31.74
864.592	-23.55
864.766	33.79
864.939	74.75
865.113	37.89
865.287	121.85
865.461	-25.6
865.634	80.89
865.808	3.07
865.982	17.41
866.156	9.22
866.329	5.12
866.503	37.89
866.676	25.6
866.85	50.18
867.024	-23.55
867.197	68.61
867.371	35.84
867.544	50.18
867.718	93.18
867.891	66.56
868.065	-3.07
868.238	-50.18
868.412	-1.02
868.585	9.22
868.759	39.94
868.932	17.41
869.105	74.75
869.279	-15.36
869.452	-7.17
869.625	56.32
869.799	-31.74
869.972	15.36
870.145	80.89
870.319	25.6
870.492	-84.99
870.665	1.02
870.838	-13.31
871.011	-64.51
871.185	13.31
871.358	13.31
871.531	-54.27
871.704	48.13
871.877	-13.31
872.05	41.98
872.223	5.12
872.396	68.61
872.569	89.09
872.742	19.46
872.915	60.42
873.088	27.65
873.261	7.17
873.434	37.89
873.607	56.32
873.78	39.94
873.953	23.55
874.126	-48.13
874.299	52.22
874.471	-31.74
874.644	-3.07
874.817	19.46
874.99	58.37
875.163	-1.02
875.335	37.89
875.508	23.55
875.681	3.07
875.853	29.7
876.026	-23.55
876.199	33.79
876.371	-9.22
876.544	39.94
876.717	-3.07
876.889	33.79
877.062	76.8
877.234	-31.74
877.407	-46.08
877.579	3.07
877.752	62.46
877.924	50.18
878.097	48.13
878.269	46.08
878.442	-15.36
878.614	-25.6
878.786	37.89
878.959	-33.79
879.131	-56.32
879.303	15.36
879.476	13.31
879.648	48.13
879.82	-15.36
879.993	-33.79
880.165	7.17
880.337	-64.51
880.509	19.46
880.681	-41.98
880.854	17.41
881.026	33.79
881.198	119.81
881.37	41.98
881.542	31.74
881.714	56.32
881.886	44.03
882.058	27.65
882.23	-7.17
882.402	-41.98
882.574	-11.26
882.746	50.18
882.918	54.27
883.09	23.55
883.262	1.02
883.434	103.42
883.606	-48.13
883.778	33.79
883.95	74.75
884.122	58.37
884.293	48.13
884.465	21.5
884.637	21.5
884.809	-9.22
884.98	5.12
885.152	-11.26
885.324	29.7
885.496	-23.55
885.667	35.84
885.839	-27.65
886.011	-1.02
886.182	80.89
886.354	-9.22
886.525	-11.26
886.697	9.22
886.869	17.41
887.04	29.7
887.212	91.13
887.383	58.37
887.555	48.13
887.726	-37.89
887.897	3.07
888.069	35.84
888.24	-13.31
888.412	17.41
888.583	29.7
888.754	5.12
888.926	5.12
889.097	78.85
889.268	44.03
889.44	-11.26
889.611	3.07
889.782	52.22
889.953	-9.22
890.125	-3.07
890.296	5.12
890.467	-11.26
890.638	-5.12
890.809	-13.31
890.98	27.65
891.151	17.41
891.323	60.42
891.494	-5.12
891.665	9.22
891.836	17.41
892.007	11.26
892.178	56.32
892.349	13.31
892.52	-25.6
892.691	21.5
892.862	-46.08
893.032	-35.84
893.203	-3.07
893.374	66.56
893.545	41.98
893.716	37.89
893.887	13.31
894.057	17.41
894.228	46.08
894.399	-21.5
894.57	-17.41
894.74	-70.65
894.911	19.46
895.082	-3.07
895.253	-3.07
895.423	-50.18
895.594	50.18
895.764	-25.6
895.935	5.12
896.106	17.41
896.276	-5.12
896.447	-3.07
896.617	-15.36
896.788	-54.27
896.958	-9.22
897.129	25.6
897.299	-44.03
897.47	33.79
897.64	-15.36
897.81	11.26
897.981	82.94
898.151	5.12
898.322	23.55
898.492	-17.41
898.662	-31.74
898.832	48.13
899.003	21.5
899.173	-1.02
899.343	-62.46
899.513	-19.46
