Data from USB4F104151__89__10-24-23-770.txt Node

Date: Wed Mar 12 10:24:23 EDT 2025
User: louis
Spectrometer: USB4F10415
Trigger mode: 4
Integration Time (sec): 3.000000E-2
Scans to average: 1
Electric dark correction enabled: true
Nonlinearity correction enabled: false
Boxcar width: 0
XAxis mode: Wavelengths
Number of Pixels in Spectrum: 3648
>>>>>Begin Spectral Data<<<<<
178.204	-60.76
178.424	-60.76
178.644	-60.76
178.864	-75.09
179.084	-128.34
179.304	0.68
179.524	-11.61
179.744	10.92
179.964	35.5
180.184	-44.37
180.404	-38.23
180.624	51.88
180.844	35.5
181.064	-36.18
181.283	-34.13
181.503	-1.37
181.723	31.4
181.943	-11.61
182.163	17.07
182.383	-34.13
182.602	29.35
182.822	51.88
183.042	103.08
183.262	55.98
183.482	-50.52
183.701	-30.04
183.921	4.78
184.141	-77.14
184.361	84.65
184.58	-32.08
184.8	12.97
185.02	-25.94
185.239	78.51
185.459	-58.71
185.679	88.75
185.898	-50.52
186.118	25.26
186.338	25.26
186.557	70.31
186.777	45.74
186.997	66.22
187.216	-30.04
187.436	119.46
187.655	45.74
187.875	33.45
188.095	17.07
188.314	125.61
188.534	35.5
188.753	-30.04
188.973	53.93
189.192	80.55
189.412	41.64
189.631	10.92
189.851	29.35
190.07	117.42
190.29	-27.99
190.509	64.17
190.729	92.84
190.948	103.08
191.168	109.22
191.387	51.88
191.607	-27.99
191.826	68.27
192.045	-11.61
192.265	41.64
192.484	-25.94
192.704	47.79
192.923	29.35
193.142	88.75
193.362	47.79
193.581	78.51
193.8	-17.75
194.02	96.94
194.239	31.4
194.458	98.99
194.678	-3.41
194.897	33.45
195.116	-21.85
195.335	6.83
195.555	121.51
195.774	-27.99
195.993	35.5
196.212	47.79
196.432	-42.32
196.651	-11.61
196.87	55.98
197.089	8.87
197.308	76.46
197.528	19.11
197.747	72.36
197.966	-9.56
198.185	92.84
198.404	45.74
198.623	70.31
198.842	-11.61
199.062	29.35
199.281	33.45
199.5	15.02
199.719	-34.13
199.938	-40.28
200.157	115.37
200.376	35.5
200.595	64.17
200.814	119.46
201.033	94.89
201.252	76.46
201.471	15.02
201.69	-1.37
201.909	47.79
202.128	8.87
202.347	29.35
202.566	19.11
202.785	17.07
203.004	-34.13
203.223	37.55
203.442	41.64
203.661	-25.94
203.879	49.83
204.098	43.69
204.317	53.93
204.536	39.59
204.755	6.83
204.974	64.17
205.193	41.64
205.411	51.88
205.63	58.03
205.849	103.08
206.068	39.59
206.287	4.78
206.505	60.07
206.724	15.02
206.943	-58.71
207.162	-40.28
207.381	19.11
207.599	49.83
207.818	37.55
208.037	6.83
208.255	-58.71
208.474	-7.51
208.693	17.07
208.911	-46.42
209.13	84.65
209.349	-5.46
209.567	62.12
209.786	27.31
210.005	29.35
210.223	-11.61
210.442	-36.18
210.661	86.7
210.879	111.27
211.098	-25.94
211.316	66.22
211.535	55.98
211.753	15.02
211.972	0.68
212.191	103.08
212.409	92.84
212.628	60.07
212.846	2.73
213.065	68.27
213.283	105.13
213.502	41.64
213.72	53.93
213.938	47.79
214.157	6.83
214.375	25.26
214.594	66.22
214.812	19.11
215.031	62.12
215.249	-42.32
215.467	49.83
215.686	70.31
215.904	94.89
216.122	47.79
216.341	127.66
216.559	72.36
216.778	68.27
216.996	47.79
217.214	25.26
217.432	-13.65
217.651	-13.65
217.869	-34.13
218.087	39.59
218.306	27.31
218.524	-9.56
218.742	41.64
218.96	21.16
219.179	21.16
219.397	88.75
219.615	31.4
219.833	23.21
220.051	31.4
220.27	19.11
220.488	23.21
220.706	6.83
220.924	55.98
221.142	6.83
221.36	33.45
221.578	66.22
221.796	8.87
222.015	2.73
222.233	-15.7
222.451	178.86
222.669	-54.61
222.887	62.12
223.105	21.16
223.323	103.08
223.541	-38.23
223.759	103.08
223.977	19.11
224.195	121.51
224.413	72.36
224.631	80.55
224.849	10.92
225.067	103.08
225.285	35.5
225.503	39.59
225.721	-42.32
225.939	45.74
226.157	43.69
226.375	70.31
226.592	41.64
226.81	74.41
227.028	80.55
227.246	76.46
227.464	90.79
227.682	41.64
227.9	66.22
228.117	84.65
228.335	53.93
228.553	6.83
228.771	12.97
228.989	68.27
229.206	6.83
229.424	23.21
229.642	-23.89
229.86	-5.46
230.077	74.41
230.295	29.35
230.513	60.07
230.731	27.31
230.948	78.51
231.166	43.69
231.384	4.78
231.601	-38.23
231.819	31.4
232.037	-58.71
232.254	43.69
232.472	-13.65
232.689	-50.52
232.907	150.18
233.125	47.79
233.342	-54.61
233.56	-83.28
233.777	25.26
233.995	23.21
234.213	31.4
234.43	55.98
234.648	-34.13
234.865	6.83
235.083	-15.7
235.3	2.73
235.518	41.64
235.735	96.94
235.953	23.21
236.17	27.31
236.388	-30.04
236.605	66.22
236.822	76.46
237.04	31.4
237.257	58.03
237.475	15.02
237.692	51.88
237.909	64.17
238.127	41.64
238.344	72.36
238.562	49.83
238.779	25.26
238.996	-23.89
239.214	-30.04
239.431	80.55
239.648	43.69
239.865	78.51
240.083	64.17
240.3	6.83
240.517	64.17
240.735	29.35
240.952	72.36
241.169	21.16
241.386	21.16
241.603	25.26
241.821	6.83
242.038	58.03
242.255	4.78
242.472	41.64
242.689	2.73
242.907	-17.75
243.124	55.98
243.341	4.78
243.558	-13.65
243.775	35.5
243.992	27.31
244.209	78.51
244.426	60.07
244.643	31.4
244.86	35.5
245.078	76.46
245.295	49.83
245.512	6.83
245.729	-1.37
245.946	10.92
246.163	64.17
246.38	35.5
246.597	47.79
246.814	55.98
247.031	-1.37
247.248	127.66
247.464	74.41
247.681	47.79
247.898	96.94
248.115	74.41
248.332	15.02
248.549	41.64
248.766	55.98
248.983	88.75
249.2	17.07
249.417	86.7
249.633	-3.41
249.85	8.87
250.067	-34.13
250.284	-9.56
250.501	72.36
250.717	92.84
250.934	-46.42
251.151	17.07
251.368	10.92
251.585	55.98
251.801	29.35
252.018	-27.99
252.235	39.59
252.451	49.83
252.668	47.79
252.885	72.36
253.102	35.5
253.318	-15.7
253.535	6.83
253.752	27.31
253.968	98.99
254.185	4.78
254.401	0.68
254.618	43.69
254.835	-30.04
255.051	10.92
255.268	-17.75
255.484	23.21
255.701	-7.51
255.917	12.97
256.134	12.97
256.351	19.11
256.567	-58.71
256.784	19.11
257	-9.56
257.217	39.59
257.433	62.12
257.65	31.4
257.866	47.79
258.082	-75.09
258.299	60.07
258.515	6.83
258.732	-21.85
258.948	55.98
259.165	-1.37
259.381	15.02
259.597	51.88
259.814	17.07
260.03	47.79
260.246	17.07
260.463	6.83
260.679	33.45
260.895	72.36
261.112	70.31
261.328	-17.75
261.544	15.02
261.761	47.79
261.977	72.36
262.193	19.11
262.409	80.55
262.626	23.21
262.842	60.07
263.058	62.12
263.274	111.27
263.49	-79.19
263.707	-13.65
263.923	72.36
264.139	31.4
264.355	12.97
264.571	12.97
264.787	45.74
265.004	-3.41
265.22	35.5
265.436	66.22
265.652	51.88
265.868	58.03
266.084	-23.89
266.3	49.83
266.516	84.65
266.732	25.26
266.948	84.65
267.164	37.55
267.38	109.22
267.596	94.89
267.812	39.59
268.028	-1.37
268.244	-9.56
268.46	-1.37
268.676	141.99
268.892	58.03
269.108	37.55
269.324	0.68
269.54	12.97
269.756	21.16
269.972	23.21
270.188	55.98
270.403	21.16
270.619	-5.46
270.835	39.59
271.051	-9.56
271.267	129.7
271.483	76.46
271.698	72.36
271.914	39.59
272.13	-11.61
272.346	-1.37
272.562	15.02
272.777	29.35
272.993	-1.37
273.209	2.73
273.425	127.66
273.64	82.6
273.856	15.02
274.072	-11.61
274.287	-40.28
274.503	96.94
274.719	23.21
274.934	72.36
275.15	27.31
275.366	62.12
275.581	2.73
275.797	78.51
276.012	33.45
276.228	29.35
276.444	25.26
276.659	55.98
276.875	55.98
277.09	21.16
277.306	86.7
277.521	-36.18
277.737	70.31
277.952	146.09
278.168	45.74
278.383	-11.61
278.599	70.31
278.814	31.4
279.03	64.17
279.245	27.31
279.461	33.45
279.676	47.79
279.892	-5.46
280.107	74.41
280.322	43.69
280.538	80.55
280.753	51.88
280.969	29.35
281.184	-27.99
281.399	-23.89
281.615	47.79
281.83	60.07
282.045	4.78
282.26	4.78
282.476	-13.65
282.691	60.07
282.906	-21.85
283.122	10.92
283.337	-38.23
283.552	-58.71
283.767	78.51
283.983	101.03
284.198	31.4
284.413	17.07
284.628	45.74
284.843	43.69
285.058	62.12
285.274	103.08
285.489	82.6
285.704	39.59
285.919	-42.32
286.134	88.75
286.349	4.78
286.564	47.79
286.779	58.03
286.995	23.21
287.21	21.16
287.425	-48.47
287.64	90.79
287.855	64.17
288.07	-1.37
288.285	51.88
288.5	68.27
288.715	55.98
288.93	25.26
289.145	62.12
289.36	68.27
289.575	6.83
289.79	33.45
290.004	47.79
290.219	35.5
290.434	72.36
290.649	27.31
290.864	27.31
291.079	88.75
291.294	113.32
291.509	39.59
291.724	19.11
291.938	68.27
292.153	-15.7
292.368	35.5
292.583	107.18
292.798	17.07
293.012	103.08
293.227	88.75
293.442	39.59
293.657	96.94
293.871	125.61
294.086	96.94
294.301	76.46
294.516	19.11
294.73	117.42
294.945	-25.94
295.16	45.74
295.374	103.08
295.589	53.93
295.804	31.4
296.018	23.21
296.233	33.45
296.447	47.79
296.662	6.83
296.877	64.17
297.091	25.26
297.306	64.17
297.52	41.64
297.735	62.12
297.949	27.31
298.164	4.78
298.378	31.4
298.593	82.6
298.807	-34.13
299.022	72.36
299.236	49.83
299.451	25.26
299.665	23.21
299.88	2.73
300.094	21.16
300.309	-30.04
300.523	55.98
300.737	43.69
300.952	53.93
301.166	66.22
301.381	84.65
301.595	29.35
301.809	33.45
302.024	72.36
302.238	-25.94
302.452	23.21
302.667	-17.75
302.881	88.75
303.095	111.27
303.309	-1.37
303.524	23.21
303.738	6.83
303.952	15.02
304.166	39.59
304.381	94.89
304.595	109.22
304.809	10.92
305.023	19.11
305.237	35.5
305.452	39.59
305.666	68.27
305.88	55.98
306.094	58.03
306.308	35.5
306.522	76.46
306.736	19.11
306.95	35.5
307.164	64.17
307.379	47.79
307.593	55.98
307.807	107.18
308.021	74.41
308.235	64.17
308.449	-7.51
308.663	25.26
308.877	94.89
309.091	-34.13
309.305	60.07
309.519	-32.08
309.733	53.93
309.947	33.45
310.161	43.69
310.374	58.03
310.588	39.59
310.802	29.35
311.016	6.83
311.23	31.4
311.444	-5.46
311.658	-21.85
311.872	45.74
312.085	62.12
312.299	47.79
312.513	41.64
312.727	4.78
312.941	31.4
313.154	23.21
313.368	60.07
313.582	39.59
313.796	6.83
314.009	-11.61
314.223	68.27
314.437	6.83
314.651	84.65
314.864	25.26
315.078	0.68
315.292	84.65
315.505	-3.41
315.719	123.56
315.933	47.79
316.146	39.59
316.36	-21.85
316.573	119.46
316.787	-25.94
317.001	72.36
317.214	90.79
317.428	35.5
317.641	-1.37
317.855	43.69
318.068	15.02
318.282	62.12
318.495	113.32
318.709	51.88
318.922	2.73
319.136	45.74
319.349	125.61
319.563	92.84
319.776	39.59
319.99	-1.37
320.203	58.03
320.417	84.65
320.63	47.79
320.843	146.09
321.057	64.17
321.27	-79.19
321.483	41.64
321.697	90.79
321.91	21.16
322.124	21.16
322.337	105.13
322.55	8.87
322.763	6.83
322.977	47.79
323.19	-11.61
323.403	37.55
323.617	60.07
323.83	27.31
324.043	-52.56
324.256	86.7
324.469	37.55
324.683	76.46
324.896	76.46
325.109	35.5
325.322	15.02
325.535	80.55
325.748	117.42
325.962	27.31
326.175	62.12
326.388	113.32
326.601	53.93
326.814	70.31
327.027	0.68
327.24	152.23
327.453	53.93
327.666	-7.51
327.879	70.31
328.092	86.7
328.305	23.21
328.518	4.78
328.731	21.16
328.944	64.17
329.157	23.21
329.37	-25.94
329.583	88.75
329.796	125.61
330.009	-19.8
330.222	27.31
330.435	47.79
330.648	35.5
330.861	-19.8
331.073	23.21
331.286	68.27
331.499	68.27
331.712	-5.46
331.925	78.51
332.138	-21.85
332.35	84.65
332.563	43.69
332.776	98.99
332.989	29.35
333.202	12.97
333.414	55.98
333.627	0.68
333.84	15.02
334.053	49.83
334.265	49.83
334.478	39.59
334.691	60.07
334.903	-19.8
335.116	37.55
335.329	37.55
335.541	53.93
335.754	72.36
335.966	66.22
336.179	-9.56
336.392	45.74
336.604	74.41
336.817	43.69
337.029	45.74
337.242	86.7
337.454	68.27
337.667	-5.46
337.88	111.27
338.092	37.55
338.305	76.46
338.517	21.16
338.729	72.36
338.942	125.61
339.154	27.31
339.367	31.4
339.579	33.45
339.792	60.07
340.004	49.83
340.217	-25.94
340.429	-11.61
340.641	8.87
340.854	35.5
341.066	51.88
341.278	-7.51
341.491	96.94
341.703	105.13
341.915	15.02
342.128	119.46
342.34	103.08
342.552	92.84
342.764	35.5
342.977	64.17
343.189	121.51
343.401	133.8
343.613	37.55
343.826	103.08
344.038	23.21
344.25	15.02
344.462	47.79
344.674	27.31
344.886	-5.46
345.099	39.59
345.311	144.04
345.523	66.22
345.735	25.26
345.947	68.27
346.159	70.31
346.371	-3.41
346.583	66.22
346.795	64.17
347.007	-44.37
347.219	86.7
347.431	-3.41
347.643	162.47
347.855	70.31
348.067	74.41
348.279	-7.51
348.491	0.68
348.703	117.42
348.915	68.27
349.127	-17.75
349.339	66.22
349.551	45.74
349.763	113.32
349.975	35.5
350.187	82.6
350.399	107.18
350.61	37.55
350.822	15.02
351.034	2.73
351.246	47.79
351.458	19.11
351.669	105.13
351.881	170.66
352.093	64.17
352.305	58.03
352.517	60.07
352.728	113.32
352.94	51.88
353.152	39.59
353.363	-9.56
353.575	-7.51
353.787	10.92
353.999	88.75
354.21	146.09
354.422	82.6
354.633	10.92
354.845	92.84
355.057	-44.37
355.268	62.12
355.48	137.9
355.692	19.11
355.903	55.98
356.115	27.31
356.326	-7.51
356.538	96.94
356.749	55.98
356.961	15.02
357.172	33.45
357.384	37.55
357.595	74.41
357.807	55.98
358.018	12.97
358.23	78.51
358.441	129.7
358.653	41.64
358.864	-23.89
359.075	80.55
359.287	111.27
359.498	121.51
359.709	80.55
359.921	125.61
360.132	68.27
360.344	84.65
360.555	60.07
360.766	29.35
360.977	96.94
361.189	4.78
361.4	-21.85
361.611	27.31
361.823	103.08
362.034	101.03
362.245	43.69
362.456	53.93
362.667	66.22
362.879	6.83
363.09	86.7
363.301	70.31
363.512	96.94
363.723	35.5
363.935	27.31
364.146	70.31
364.357	113.32
364.568	125.61
364.779	55.98
364.99	105.13
365.201	-17.75
365.412	43.69
365.623	27.31
365.834	27.31
366.045	88.75
366.256	96.94
366.467	144.04
366.678	-9.56
366.889	86.7
367.1	41.64
367.311	86.7
367.522	62.12
367.733	23.21
367.944	35.5
368.155	21.16
368.366	60.07
368.577	72.36
368.788	92.84
368.999	41.64
369.209	76.46
369.42	101.03
369.631	51.88
369.842	107.18
370.053	39.59
370.264	127.66
370.474	137.9
370.685	123.56
370.896	-21.85
371.107	86.7
371.317	94.89
371.528	51.88
371.739	88.75
371.95	-13.65
372.16	55.98
372.371	55.98
372.582	0.68
372.792	19.11
373.003	105.13
373.214	60.07
373.424	78.51
373.635	45.74
373.846	68.27
374.056	84.65
374.267	76.46
374.477	53.93
374.688	27.31
374.898	31.4
375.109	105.13
375.319	23.21
375.53	96.94
375.74	88.75
375.951	150.18
376.161	76.46
376.372	98.99
376.582	6.83
376.793	45.74
377.003	84.65
377.214	53.93
377.424	72.36
377.635	121.51
377.845	70.31
378.055	92.84
378.266	12.97
378.476	84.65
378.686	72.36
378.897	66.22
379.107	-7.51
379.317	103.08
379.528	78.51
379.738	31.4
379.948	53.93
380.158	70.31
380.369	113.32
380.579	-21.85
380.789	43.69
380.999	21.16
381.21	131.75
381.42	103.08
381.63	80.55
381.84	139.94
382.05	0.68
382.261	127.66
382.471	123.56
382.681	49.83
382.891	47.79
383.101	96.94
383.311	64.17
383.521	29.35
383.731	88.75
383.941	58.03
384.151	-5.46
384.361	27.31
384.571	86.7
384.781	66.22
384.991	113.32
385.201	41.64
385.411	103.08
385.621	62.12
385.831	125.61
386.041	68.27
386.251	111.27
386.461	55.98
386.671	121.51
386.881	127.66
387.091	109.22
387.301	45.74
387.511	60.07
387.72	51.88
387.93	78.51
388.14	2.73
388.35	27.31
388.56	47.79
388.769	80.55
388.979	103.08
389.189	27.31
389.399	72.36
389.609	92.84
389.818	33.45
390.028	70.31
390.238	31.4
390.447	49.83
390.657	168.62
390.867	4.78
391.076	-25.94
391.286	55.98
391.496	-1.37
391.705	113.32
391.915	121.51
392.125	55.98
392.334	70.31
392.544	125.61
392.753	115.37
392.963	37.55
393.172	88.75
393.382	117.42
393.591	129.7
393.801	111.27
394.01	176.81
394.22	74.41
394.429	135.85
394.639	58.03
394.848	127.66
395.058	92.84
395.267	62.12
395.477	162.47
395.686	121.51
395.895	127.66
396.105	154.28
396.314	107.18
396.524	58.03
396.733	113.32
396.942	178.86
397.152	205.48
397.361	117.42
397.57	135.85
397.78	170.66
397.989	107.18
398.198	182.95
398.407	94.89
398.617	80.55
398.826	51.88
399.035	117.42
399.244	119.46
399.453	154.28
399.663	146.09
399.872	195.24
400.081	144.04
400.29	174.76
400.499	119.46
400.708	166.57
400.917	139.94
401.127	172.71
401.336	113.32
401.545	154.28
401.754	119.46
401.963	127.66
402.172	162.47
402.381	70.31
402.59	111.27
402.799	117.42
403.008	131.75
403.217	78.51
403.426	135.85
403.635	72.36
403.844	195.24
404.053	187.05
404.262	176.81
404.471	195.24
404.68	170.66
404.888	170.66
405.097	187.05
405.306	113.32
405.515	232.1
405.724	178.86
405.933	266.92
406.142	209.58
406.35	223.91
406.559	182.95
406.768	154.28
406.977	236.2
407.185	195.24
407.394	324.26
407.603	264.87
407.812	228.01
408.02	236.2
408.229	244.39
408.438	223.91
408.646	228.01
408.855	328.36
409.064	320.17
409.272	309.93
409.481	361.13
409.69	332.45
409.898	361.13
410.107	334.5
410.315	404.13
410.524	344.74
410.733	285.35
410.941	432.8
411.15	424.61
411.358	529.06
411.567	404.13
411.775	475.81
411.984	506.53
412.192	457.38
412.401	547.49
412.609	580.26
412.818	690.85
413.026	576.16
413.234	610.98
413.443	694.94
413.651	621.22
413.86	727.71
414.068	692.9
414.276	797.34
414.485	787.1
414.693	783.01
414.901	828.06
415.11	920.22
415.318	848.54
415.526	801.44
415.734	1030.81
415.943	961.18
416.151	991.9
416.359	1057.43
416.567	987.8
416.776	1088.15
416.984	1178.26
417.192	1174.17
417.4	1186.46
417.608	1077.91
417.817	1266.33
418.025	1223.32
418.233	1393.3
418.441	1407.64
418.649	1370.77
418.857	1536.66
419.065	1604.24
419.273	1481.36
419.481	1647.25
419.689	1743.5
419.897	1725.07
420.105	1761.94
420.313	1944.2
420.521	2015.88
420.729	2058.89
420.937	1987.21
421.145	2083.47
421.353	2355.85
421.561	2488.96
421.769	2251.4
421.977	2554.5
422.185	2394.76
422.393	2644.61
422.601	2658.95
422.809	2818.69
423.017	2685.57
423.224	2943.61
423.432	2980.48
423.64	2978.43
423.848	3330.68
424.056	3277.43
424.263	3445.37
424.471	3373.69
424.679	3543.67
424.887	3691.12
425.094	3838.58
425.302	3926.64
425.51	4026.99
425.718	3983.98
425.925	4086.38
426.133	4436.58
426.341	4479.59
426.548	4794.98
426.756	4727.39
426.964	4909.66
427.171	5048.93
427.379	5259.87
427.586	5235.29
427.794	5311.07
428.001	5730.9
428.209	6046.29
428.417	5888.59
428.624	6476.36
428.832	6386.25
429.039	6273.61
429.247	6316.62
429.454	6900.29
429.662	7334.46
429.869	6818.37
430.076	7207.48
430.284	6994.5
430.491	7526.97
430.699	7819.83
430.906	7891.51
431.114	8002.1
431.321	8204.85
431.528	8264.24
431.736	9019.94
431.943	9333.28
432.15	8956.45
432.358	9148.96
432.565	9556.5
432.772	9613.85
432.979	10162.7
433.187	10267.15
433.394	10385.93
433.601	10746.37
433.808	11086.34
434.016	10852.87
434.223	11385.34
434.43	12069.36
434.637	11852.28
434.844	12532.2
435.052	12933.61
435.259	12792.3
435.466	12980.71
435.673	12843.49
435.88	13529.56
436.087	14352.85
436.294	14191.06
436.501	13947.35
436.708	14387.66
436.915	14873.03
437.122	15239.62
437.329	15413.7
437.537	15653.31
437.743	16046.52
437.95	16138.68
438.157	16640.43
438.364	17420.7
438.571	17375.65
438.778	17506.72
438.985	19034.5
439.192	18258.32
439.399	18993.54
439.606	18430.35
439.813	19450.24
440.02	20777.33
440.227	20296.05
440.433	20046.2
440.64	20724.08
440.847	20861.29
441.054	21201.26
441.261	22667.6
441.467	22258.01
441.674	22585.68
441.881	23376.2
442.088	23343.43
442.294	23241.03
442.501	23736.64
442.708	24326.46
442.914	25266.47
443.121	26351.9
443.328	25485.61
443.534	27412.74
443.741	26552.6
443.948	26022.17
444.154	28438.78
444.361	27658.5
444.568	28326.14
444.774	27934.98
444.981	28467.45
445.187	29288.68
445.394	30161.12
445.6	29827.3
445.807	33081.52
446.013	31367.37
446.22	32250.05
446.426	33280.17
446.633	33306.8
446.839	34261.15
447.046	33353.9
447.252	34996.37
447.459	35100.82
447.665	34789.53
447.871	36499.58
448.078	37949.54
448.284	35934.34
448.491	36939.89
448.697	38469.73
448.903	38987.86
449.11	39034.97
449.316	38561.89
449.522	38991.96
449.728	39913.55
449.935	40310.85
450.141	40380.48
450.347	41388.08
450.553	39690.32
450.76	40192.07
450.966	41416.75
451.172	41291.83
451.378	41930.79
451.584	41388.08
451.791	41938.99
451.997	41488.43
452.203	42883.1
452.409	42797.09
452.615	42162.22
452.821	41093.18
453.027	40540.22
453.233	42231.85
453.44	40642.62
453.646	40771.64
453.852	41267.25
454.058	41709.61
454.264	39868.49
454.47	41574.45
454.676	40730.69
454.882	42147.88
455.088	37802.09
455.294	38592.61
455.5	38903.9
455.705	39544.91
455.911	37654.64
456.117	37144.69
456.323	36425.85
456.529	34373.79
456.735	35831.94
456.941	35094.68
457.147	34705.56
457.352	33425.58
457.558	32932.02
457.764	33065.14
457.97	32487.61
458.176	31844.55
458.381	31781.06
458.587	29989.09
458.793	30200.03
458.999	28600.57
459.204	30882
459.41	29704.42
459.616	27869.44
459.821	27822.34
460.027	27777.28
460.233	26972.43
460.438	25772.32
460.644	26132.76
460.85	24811.82
461.055	24738.1
461.261	24451.38
461.466	22563.15
461.672	22395.22
461.878	23597.38
462.083	21963.1
462.289	21741.92
462.494	21401.96
462.7	20539.76
462.905	20054.39
463.111	20681.07
463.316	20529.52
463.522	20310.39
463.727	20400.5
463.932	20228.47
464.138	20283.77
464.343	20132.22
464.549	19708.29
464.754	20427.12
464.959	19974.52
465.165	20064.63
465.37	19272.07
465.575	18602.38
465.781	19251.59
465.986	19470.72
466.191	18846.09
466.397	18422.16
466.602	17432.99
466.807	18325.91
467.012	18348.43
467.218	18047.38
467.423	17912.22
467.628	18397.59
467.833	18618.77
468.038	17789.34
468.244	17369.51
468.449	18194.84
468.654	17543.58
468.859	17564.06
469.064	17144.23
469.269	16822.7
469.474	16968.1
469.679	17285.54
469.885	16806.31
470.09	16914.86
470.295	16785.83
470.5	16243.12
470.705	16417.2
470.91	16079.29
471.115	15854.01
471.32	16058.81
471.525	15940.02
471.73	15731.13
471.935	15694.27
472.139	15059.4
472.344	15360.45
472.549	15000.01
472.754	15178.18
472.959	14762.44
473.164	14272.98
473.369	14117.33
473.574	14657.99
473.778	14531.02
473.983	14291.41
474.188	14535.12
474.393	13535.71
474.598	13758.94
474.802	13720.03
475.007	13529.56
475.212	13705.69
475.417	12986.85
475.621	13095.39
475.826	12974.56
476.031	13025.76
476.235	12548.59
476.44	12857.83
476.645	12476.91
476.849	12556.78
477.054	12343.79
477.259	12251.63
477.463	12372.46
477.668	11874.81
477.872	12120.56
478.077	11973.11
478.282	11721.21
478.486	11459.07
478.691	11239.94
478.895	11532.79
479.1	11221.5
479.304	11276.8
479.509	10963.46
479.713	11371.01
479.918	11153.92
480.122	10881.54
480.326	10848.77
480.531	11043.33
480.735	10834.44
480.94	10826.25
481.144	10906.12
481.348	10662.41
481.553	10553.87
481.757	10424.84
481.961	10729.99
482.166	10752.52
482.37	10527.24
482.574	10447.37
482.778	10426.89
482.983	10656.26
483.187	10273.29
483.391	10603.02
483.595	10607.11
483.8	10564.11
484.004	10482.19
484.208	10566.15
484.412	10435.08
484.616	10582.54
484.821	10478.09
485.025	10265.1
485.229	10523.15
485.433	10469.9
485.637	10676.74
485.841	10191.38
486.045	10316.3
486.249	10385.93
486.453	10334.73
486.657	10449.42
486.861	10500.62
487.065	10324.49
487.269	10476.04
487.473	10414.6
487.677	10490.38
487.881	10699.27
488.085	10347.02
488.289	10648.07
488.493	10400.27
488.697	10504.71
488.901	10541.58
489.105	10508.81
489.309	10545.67
489.512	10725.9
489.716	10711.56
489.92	10451.47
490.124	10699.27
490.328	10662.41
490.531	10785.29
490.735	10861.06
490.939	10834.44
491.143	10785.29
491.346	10721.8
491.55	10926.6
491.754	11028.99
491.958	10963.46
492.161	10988.03
492.365	11244.03
492.569	10844.68
492.772	11012.61
492.976	11293.18
493.18	11305.47
493.383	11397.63
493.587	11409.92
493.79	11618.81
493.994	11497.98
494.197	11645.43
494.401	11741.69
494.605	11588.09
494.808	11909.62
495.012	12098.03
495.215	12091.89
495.419	11895.29
495.622	11870.71
495.825	12237.3
496.029	12153.33
496.232	12675.56
496.436	12313.07
496.639	12771.82
496.843	12720.62
497.046	12921.32
497.249	13236.7
497.453	13181.41
497.656	13390.3
497.859	13251.04
498.063	13339.1
498.266	13642.2
498.469	13666.78
498.673	13920.73
498.876	14137.81
499.079	14012.88
499.282	14158.29
499.485	14621.13
499.689	14375.38
499.892	14938.57
500.095	14760.39
500.298	15124.93
500.501	15165.89
500.705	15374.78
500.908	15641.02
501.111	15999.41
501.314	16023.99
501.517	16114.1
501.72	16413.1
501.923	16382.38
502.126	16701.87
502.329	16923.05
502.532	17019.3
502.735	17230.24
502.938	17453.47
503.141	17566.11
503.344	17725.85
503.547	17881.5
503.75	18114.97
503.953	18522.51
504.156	18291.09
504.359	18911.63
504.562	18803.08
504.765	19300.74
504.968	19294.6
505.17	19587.46
505.373	19532.16
505.576	20167.03
505.779	20294
505.982	20191.61
506.185	20679.02
506.387	21051.75
506.59	20988.27
506.793	21102.95
506.996	21287.27
507.198	22034.78
507.401	21866.84
507.604	22186.33
507.807	22587.73
508.009	22434.13
508.212	22724.94
508.415	23230.79
508.617	23523.65
508.82	23456.07
509.022	23298.38
509.225	24176.95
509.428	24119.61
509.63	24422.71
509.833	24455.48
510.035	25008.43
510.238	25127.21
510.44	25366.82
510.643	25596.2
510.845	25719.07
511.048	25735.46
511.25	26226.97
511.453	26761.49
511.655	27617.54
511.858	26599.7
512.06	27527.43
512.262	27521.29
512.465	27697.41
512.667	27947.26
512.87	28485.88
513.072	28537.08
513.274	29108.46
513.477	29321.45
513.679	29794.53
513.881	30267.61
514.084	30032.1
514.286	29927.65
514.488	30390.49
514.69	31203.53
514.893	31219.92
515.095	31187.15
515.297	31553.74
515.499	31629.51
515.701	31951.04
515.904	32518.33
516.106	32989.36
516.308	33136.82
516.51	33388.72
516.712	33587.37
516.914	34113.7
517.116	34404.51
517.318	34332.83
517.52	35111.06
517.722	34998.42
517.925	35227.79
518.127	36114.56
518.329	36124.8
518.531	35922.05
518.733	36429.95
518.935	37199.99
519.136	36923.51
519.338	37871.72
519.54	37634.16
519.742	37986.41
519.944	37904.49
520.146	38887.51
520.348	39149.65
520.55	39307.35
520.752	39360.59
520.954	40239.17
521.155	40038.47
521.357	40556.61
521.559	40349.76
521.761	41183.29
521.963	40947.77
522.164	41400.37
522.366	42002.47
522.568	41895.98
522.77	41803.82
522.971	42741.79
523.173	42393.64
523.375	42854.43
523.576	43112.47
523.778	43360.28
523.98	43628.56
524.181	43952.14
524.383	44195.85
524.584	44744.7
524.786	44683.26
524.988	44470.28
525.189	45133.82
525.391	44982.27
525.592	45408.25
525.794	45606.9
525.995	45727.73
526.197	46069.74
526.398	45899.76
526.6	46493.67
526.801	46307.3
527.003	46479.33
527.204	46911.45
527.406	47482.84
527.607	47040.48
527.808	47476.69
528.01	46252.01
528.211	47849.42
528.412	48424.9
528.614	48418.76
528.815	48312.27
529.016	48586.69
529.218	47802.32
529.419	48713.67
529.62	48959.42
529.822	48285.64
530.023	48535.49
530.224	48558.02
530.425	48910.27
530.626	48402.38
530.828	48551.88
531.029	49553.33
531.23	49162.17
531.431	48936.9
531.632	49180.6
531.833	49708.98
532.035	49821.62
532.236	49467.32
532.437	49506.23
532.638	49631.16
532.839	49659.83
533.04	49921.97
533.241	49192.89
533.442	50128.81
533.643	49719.22
533.844	49588.15
534.045	50061.23
534.246	49555.38
534.447	49913.78
534.648	50007.98
534.849	50380.71
535.05	49942.45
535.251	50034.61
535.451	49745.84
535.652	50251.69
535.853	50028.46
536.054	49967.02
536.255	50700.2
536.456	49803.19
536.657	50966.43
536.857	50347.95
537.058	49866.67
537.259	50184.11
537.46	50466.73
537.66	49840.05
537.861	50032.56
538.062	50081.71
538.263	50347.95
538.463	50509.74
538.664	49774.52
538.865	50528.17
539.065	50638.76
539.266	49905.59
539.466	50675.62
539.667	49964.98
539.868	50278.32
540.068	50137.01
540.269	50347.95
540.469	50636.71
540.67	50249.64
540.87	49926.06
541.071	50349.99
541.271	50020.27
541.472	50286.51
541.672	49999.79
541.873	50167.73
542.073	49645.49
542.274	50677.67
542.474	50053.04
542.675	49708.98
542.875	50452.39
543.075	49754.04
543.276	49508.28
543.476	50360.23
543.676	49924.02
543.877	50032.56
544.077	49983.41
544.277	49876.91
544.478	49620.92
544.678	50393
544.878	49809.33
545.078	50405.29
545.279	49737.65
545.479	49977.26
545.679	49825.71
545.879	50048.94
546.079	49569.72
546.28	49995.7
546.48	49514.42
546.68	50036.66
546.88	49840.05
547.08	50241.45
547.28	49956.78
547.48	49751.99
547.68	49661.88
547.88	49350.59
548.081	49659.83
548.281	49440.7
548.481	49254.33
548.681	49917.87
548.881	49735.6
549.081	49741.75
549.28	49160.12
549.48	49991.6
549.68	49838
549.88	50110.38
550.08	49037.25
550.28	49692.6
550.48	49387.45
550.68	49686.45
550.88	49045.44
551.08	49657.78
551.279	49246.14
551.479	49022.91
551.679	49520.57
551.879	49473.46
552.079	49397.69
552.278	49000.38
552.478	49303.48
552.678	49342.39
552.878	49780.66
553.077	49133.5
553.277	48764.87
553.477	49797.04
553.676	49065.92
553.876	48783.3
554.076	48742.34
554.275	49084.35
554.475	48672.71
554.674	48865.22
554.874	49336.25
555.074	48537.54
555.273	48674.76
555.473	49115.07
555.672	48203.72
555.872	48693.19
556.071	48553.93
556.271	49000.38
556.47	48326.6
556.67	48027.6
556.869	48850.88
557.068	48664.52
557.268	48338.89
557.467	48351.18
557.667	48408.52
557.866	48185.29
558.065	48271.31
558.265	47867.86
558.464	47503.32
558.663	48213.96
558.863	47628.24
559.062	48179.15
559.261	47488.98
559.461	48418.76
559.66	46927.84
559.859	47607.76
560.058	47794.13
560.258	47851.47
560.457	47304.66
560.656	47476.69
560.855	46993.37
561.054	47165.4
561.253	47429.59
561.453	47087.58
561.652	47034.33
561.851	47091.68
562.05	46897.12
562.249	46231.53
562.448	46858.21
562.647	46960.61
562.846	46501.86
563.045	46508
563.244	45957.1
563.443	46307.3
563.642	46129.13
563.841	46362.6
564.04	45682.67
564.239	46473.19
564.438	45449.21
564.637	46073.84
564.836	45948.91
565.035	45324.28
565.234	45563.89
565.432	45481.97
565.631	45223.93
565.83	45436.92
566.029	44957.69
566.228	45113.34
566.427	44994.56
566.625	44505.09
566.824	44507.14
567.023	45064.19
567.222	43720.72
567.42	44632.07
567.619	44394.5
567.818	44462.08
568.016	44222.47
568.215	44965.88
568.414	43851.79
568.612	44337.16
568.811	43958.28
569.01	43819.02
569.208	43196.44
569.407	43595.79
569.605	43266.07
569.804	43171.86
570.002	42811.42
570.201	42993.69
570.4	43114.52
570.598	42797.09
570.797	42752.03
570.995	42784.8
571.193	42254.37
571.392	42934.3
571.59	42246.18
571.789	42336.29
571.987	42037.29
572.186	41855.02
572.384	41527.35
572.582	42301.48
572.781	41895.98
572.979	41021.5
573.177	41627.7
573.376	41721.9
573.574	41197.62
573.772	41578.54
573.971	41230.39
574.169	40849.47
574.367	40568.9
574.565	40837.18
574.763	40874.04
574.962	40394.82
575.16	40247.36
575.358	40876.09
575.556	40161.35
575.754	40566.85
575.952	39870.54
576.151	40173.64
576.349	39698.51
576.547	39659.6
576.745	39925.83
576.943	39790.67
577.141	39489.62
577.339	39628.88
577.537	39555.15
577.735	39469.14
577.933	39141.46
578.131	38885.47
578.329	39096.41
578.527	38508.64
578.725	38830.17
578.923	38752.35
579.121	38393.95
579.319	38670.43
579.516	38656.09
579.714	38479.97
579.912	38469.73
580.11	38258.79
580.308	38334.56
580.506	38199.4
580.704	37331.06
580.901	37750.89
581.099	38115.43
581.297	37646.44
581.495	37339.25
581.692	37359.73
581.89	37185.65
582.088	37290.1
582.285	36923.51
582.483	37001.33
582.681	37044.34
582.878	36462.72
583.076	36309.12
583.274	36972.66
583.471	36409.47
583.669	36511.87
583.866	36456.57
584.064	36753.53
584.262	35797.13
584.459	35889.29
584.657	35956.87
584.854	36200.58
585.052	35336.34
585.249	35598.48
585.447	35543.18
585.644	35246.22
585.841	35451.02
586.039	35283.09
586.236	35217.55
586.434	34914.45
586.631	34930.84
586.828	35410.06
587.026	34652.31
587.223	34867.35
587.42	34644.12
587.618	34543.77
587.815	34005.16
588.012	34238.62
588.21	34046.12
588.407	34328.73
588.604	33796.26
588.801	33906.85
588.999	33702.06
589.196	33636.52
589.393	33763.5
589.59	33599.66
589.787	33437.87
589.984	33589.42
590.182	33106.1
590.379	33720.49
590.576	33054.9
590.773	33091.76
590.97	32993.46
591.167	32850.1
591.364	32526.52
591.561	32854.2
591.758	32272.57
591.955	32342.21
592.152	32819.38
592.349	32223.42
592.546	32319.68
592.743	32202.94
592.94	31822.02
593.137	32018.63
593.334	31811.78
593.531	31697.1
593.727	31883.46
593.924	31793.35
594.121	31320.27
594.318	31494.35
594.515	31123.66
594.712	31695.05
594.908	31152.34
595.105	31152.34
595.302	30970.07
595.499	30890.2
595.696	30626.01
595.892	30480.6
596.089	30836.95
596.286	30570.71
596.482	30601.43
596.679	30626.01
596.876	30322.91
597.072	30021.86
597.269	30363.87
597.466	30118.11
597.662	29800.68
597.859	30054.62
598.055	29888.74
598.252	29751.52
598.448	29630.69
598.645	29606.12
598.841	29374.7
599.038	29329.64
599.234	29458.67
599.431	29370.6
599.627	28979.44
599.824	29053.17
600.02	28760.31
600.217	28903.67
600.413	28444.92
600.609	28821.75
600.806	28399.87
601.002	28844.27
601.198	28125.44
601.395	28223.74
601.591	28340.47
601.787	28150.01
601.984	28084.48
602.18	28426.49
602.376	27990.27
602.572	27846.91
602.769	27654.4
602.965	27412.74
603.161	27523.33
603.357	27570.44
603.553	27193.61
603.75	27859.2
603.946	27136.27
604.142	27140.36
604.338	26874.13
604.534	26876.18
604.73	26616.08
604.926	27048.21
605.122	27072.78
605.318	26564.89
605.514	26648.85
605.71	26528.02
605.906	26253.59
606.102	26671.38
606.298	26644.76
606.494	26224.92
606.69	26407.19
606.886	26364.18
607.082	25940.25
607.278	26376.47
607.474	25559.33
607.67	25796.9
607.866	25536.81
608.062	25860.38
608.257	25579.81
608.453	25655.59
608.649	25536.81
608.845	24914.22
609.041	25360.68
609.236	25368.87
609.432	25430.31
609.628	25106.73
609.824	25329.96
610.019	24963.37
610.215	25297.19
610.411	25381.16
610.606	25166.12
610.802	25106.73
610.998	24914.22
611.193	24897.84
611.389	24860.98
611.584	24785.2
611.78	24547.64
611.976	24795.44
612.171	24654.13
612.367	24373.56
612.562	24541.49
612.758	24054.08
612.953	24039.74
613.149	24410.42
613.344	24250.68
613.539	24504.63
613.735	24396.09
613.93	24135.99
614.126	24066.36
614.321	24271.16
614.517	24035.64
614.712	24205.63
614.907	23716.16
615.103	24060.22
615.298	23687.49
615.493	24148.28
615.688	23464.26
615.884	24260.92
616.079	23431.49
616.274	23595.33
616.47	23554.37
616.665	23529.8
616.86	23292.23
617.055	23595.33
617.25	23310.66
617.445	23822.66
617.641	22913.36
617.836	23275.85
618.031	23105.87
618.226	23085.39
618.421	22935.88
618.616	23152.97
618.811	22767.95
619.006	22923.6
619.201	22614.35
619.396	22577.49
619.591	22083.93
619.786	22554.96
619.981	22139.22
620.176	22448.47
620.371	22008.15
620.566	22194.52
620.761	22042.97
620.956	22231.38
621.151	21791.07
621.346	22002.01
621.541	21510.5
621.735	21965.15
621.93	21371.24
622.125	21401.96
622.32	21111.14
622.515	21096.81
622.709	21100.9
622.904	20965.74
623.099	20877.68
623.294	21061.99
623.488	20509.04
623.683	20762.99
623.878	20611.44
624.072	20240.76
624.267	20269.43
624.462	20308.34
624.656	19804.54
624.851	19964.28
625.046	19839.36
625.24	19605.89
625.435	19601.79
625.629	19607.94
625.824	19587.46
626.018	19442.05
626.213	19147.14
626.407	19181.96
626.602	18694.54
626.796	19054.98
626.991	18850.19
627.185	19020.17
627.38	18606.48
627.574	18788.75
627.768	18063.77
627.963	18188.69
628.157	17889.69
628.352	18129.3
628.546	18020.76
628.74	18098.58
628.935	17785.24
629.129	17785.24
629.323	17609.12
629.517	17959.32
629.712	17672.6
629.906	17846.68
630.1	17217.96
630.294	17365.41
630.489	17037.73
630.683	17207.72
630.877	16716.2
631.071	16968.1
631.265	16773.55
631.459	16617.9
631.653	16685.48
631.848	16562.61
632.042	16472.5
632.236	16564.65
632.43	16187.83
632.624	16308.66
632.818	16165.3
633.012	16034.23
633.206	15643.07
633.4	16120.24
633.594	15632.83
633.788	15460.8
633.982	15823.29
634.176	15710.65
634.369	15376.83
634.563	15489.47
634.757	15348.16
634.951	15262.15
635.145	15139.27
635.339	15102.4
635.533	14989.77
635.726	14969.29
635.92	14891.46
636.114	14752.2
636.308	14678.47
636.501	14707.15
636.695	14676.43
636.889	14354.9
637.083	14246.35
637.276	14408.14
637.47	14338.51
637.664	14092.76
637.857	14115.28
638.051	14127.57
638.244	13904.34
638.438	13795.8
638.632	13986.26
638.825	13679.07
639.019	13697.5
639.212	13449.69
639.406	13705.69
639.599	13521.37
639.793	13310.43
639.986	13130.21
640.18	13408.73
640.373	13339.1
640.567	13023.72
640.76	13060.58
640.954	12964.32
641.147	12786.15
641.34	12691.94
641.534	12726.76
641.727	12696.04
641.92	12675.56
642.114	12587.5
642.307	12364.27
642.5	12493.29
642.694	12245.49
642.887	12347.89
643.08	12354.03
643.273	12235.25
643.467	11940.34
643.66	11926
643.853	12030.45
644.046	11663.86
644.239	11901.43
644.432	11770.36
644.626	11547.13
644.819	11526.65
645.012	11694.58
645.205	11596.28
645.398	11428.35
645.591	11383.29
645.784	11377.15
645.977	11346.43
646.17	11397.63
646.363	11110.91
646.556	11041.28
646.749	11151.87
646.942	11110.91
647.135	10797.57
647.328	11069.95
647.521	10844.68
647.714	10660.36
647.907	10609.16
648.099	10410.51
648.292	10619.4
648.485	10514.95
648.678	10537.48
648.871	10498.57
649.064	10168.85
649.256	10357.26
649.449	10068.5
649.642	10144.27
649.835	10160.66
650.027	10162.7
650.22	10095.12
650.413	9847.32
650.605	10050.07
650.798	9875.99
650.991	9626.14
651.183	9830.93
651.376	9538.07
651.568	9513.5
651.761	9712.15
651.954	9697.81
652.146	9525.79
652.339	9509.4
652.531	9587.22
652.724	9460.25
652.916	9095.71
653.109	9230.88
653.301	9255.45
653.494	9298.46
653.686	8960.55
653.879	9140.77
654.071	8923.68
654.263	9003.55
654.456	8782.37
654.648	9015.84
654.84	8770.08
655.033	8815.14
655.225	8880.68
655.417	8641.06
655.61	8503.85
655.802	8686.12
655.994	8469.03
656.186	8495.66
656.379	8428.07
656.571	8503.85
656.763	8462.89
656.955	8311.34
657.148	8348.2
657.34	8290.86
657.532	8196.65
657.724	8055.34
657.916	8260.14
658.108	8096.3
658.3	8049.2
658.492	8239.66
658.684	7975.47
658.876	8102.45
659.068	7813.68
659.26	7959.09
659.452	7854.64
659.644	7920.18
659.836	7690.81
660.028	7760.44
660.22	7615.03
660.412	7428.67
660.604	7488.06
660.796	7578.17
660.988	7356.99
661.18	7578.17
661.372	7221.82
661.563	7531.06
661.755	7459.38
661.947	7254.59
662.139	7285.31
662.331	7326.27
662.522	7174.72
662.714	7184.96
662.906	7113.28
663.097	7180.86
663.289	6957.63
663.481	6863.43
663.673	7029.31
663.864	6830.66
664.056	6765.12
664.247	6853.19
664.439	6859.33
664.631	6912.58
664.822	6879.81
665.014	6875.71
665.205	6658.63
665.397	6715.97
665.588	6627.91
665.78	6568.52
665.971	6711.88
666.163	6722.12
666.354	6539.85
666.546	6482.5
666.737	6191.69
666.929	6341.19
667.12	6498.89
667.311	6535.75
667.503	6347.34
667.694	6341.19
667.885	6363.72
668.077	6322.76
668.268	6163.02
668.459	6314.57
668.651	6183.5
668.842	6083.15
669.033	6165.07
669.224	6326.86
669.416	6044.24
669.607	6103.63
669.798	5872.21
669.989	6130.25
670.18	5945.94
670.371	6126.16
670.563	6023.76
670.754	5859.92
670.945	5915.22
671.136	5821.01
671.327	5843.54
671.518	5896.78
671.709	5737.04
671.9	5986.9
672.091	5970.51
672.282	5726.8
672.473	5687.89
672.664	5857.87
672.855	5788.24
673.046	5722.71
673.237	5642.84
673.428	5759.57
673.619	5716.56
673.809	5577.3
674	5683.8
674.191	5569.11
674.382	5575.25
674.573	5544.53
674.764	5595.73
674.954	5718.61
675.145	5247.58
675.336	5446.23
675.527	5458.52
675.717	5476.95
675.908	5411.42
676.099	5472.86
676.289	5372.5
676.48	5413.46
676.671	5382.74
676.861	5343.83
677.052	5272.15
677.243	5591.64
677.433	5448.28
677.624	5255.77
677.814	5405.27
678.005	5184.09
678.195	5282.39
678.386	5423.7
678.576	5237.34
678.767	5372.5
678.957	5282.39
679.148	5241.43
679.338	5192.28
679.529	5186.14
679.719	5153.37
679.909	5149.28
680.1	5202.52
680.29	5116.51
680.481	5061.21
680.671	5124.7
680.861	5040.73
681.052	5196.38
681.242	5118.56
681.432	5053.02
681.622	4969.05
681.813	5116.51
682.003	5012.06
682.193	5020.25
682.383	5024.35
682.573	5091.93
682.764	4790.88
682.954	5089.89
683.144	5003.87
683.334	4987.49
683.524	4952.67
683.714	4870.75
683.904	5048.93
684.094	4946.53
684.284	4870.75
684.474	4885.09
684.664	5007.97
684.854	4760.16
685.044	4840.03
685.234	4661.86
685.424	4872.8
685.614	4827.74
685.804	4930.14
685.994	4678.24
686.184	4792.93
686.374	4711.01
686.564	4717.15
686.753	4565.6
686.943	4702.82
687.133	4622.95
687.323	4700.77
687.513	4737.63
687.702	4690.53
687.892	4600.42
688.082	4635.24
688.272	4594.28
688.461	4463.21
688.651	4551.27
688.841	4438.63
689.03	4520.55
689.22	4305.51
689.41	4463.21
689.599	4352.62
689.789	4516.45
689.979	4383.34
690.168	4465.25
690.358	4397.67
690.547	4389.48
690.737	4422.25
690.926	4289.13
691.116	4336.23
691.305	4334.18
691.495	4194.92
691.684	4182.63
691.874	4237.93
692.063	4248.17
692.252	4115.05
692.442	4217.45
692.631	4092.52
692.82	4008.56
693.01	4002.41
693.199	4170.35
693.388	4053.61
693.578	3940.97
693.767	4129.39
693.956	3930.73
694.146	4008.56
694.335	4082.28
694.524	3994.22
694.713	3897.97
694.902	3834.48
695.092	3889.78
695.281	4020.85
695.47	3926.64
695.659	3869.3
695.848	3930.73
696.037	3764.85
696.226	3986.03
696.415	3846.77
696.604	3908.21
696.793	3979.89
696.982	3846.77
697.171	3871.34
697.36	3949.17
697.549	3889.78
697.738	3738.23
697.927	3752.56
698.116	3707.51
698.305	3785.33
698.494	3820.14
698.683	3846.77
698.872	3758.71
699.061	3906.16
699.25	3734.13
699.438	3803.76
699.627	3705.46
699.816	3766.9
700.005	3721.84
700.193	3904.11
700.382	3664.5
700.571	3598.96
700.76	3644.02
700.948	3684.98
701.137	3629.68
701.326	3668.59
701.514	3738.23
701.703	3684.98
701.892	3805.81
702.08	3799.66
702.269	3670.64
702.457	3791.47
702.646	3725.94
702.834	3639.92
703.023	3512.95
703.212	3723.89
703.4	3613.3
703.589	3523.19
703.777	3740.27
703.965	3523.19
704.154	3527.28
704.342	3603.06
704.531	3748.47
704.719	3568.24
704.907	3664.5
705.096	3644.02
705.284	3537.52
705.472	3668.59
705.661	3494.52
705.849	3535.48
706.037	3574.39
706.226	3680.88
706.414	3570.29
706.602	3682.93
706.79	3631.73
706.979	3529.33
707.167	3603.06
707.355	3490.42
707.543	3594.87
707.731	3539.57
707.919	3510.9
708.107	3570.29
708.296	3560.05
708.484	3535.48
708.672	3519.09
708.86	3512.95
709.048	3648.11
709.236	3611.25
709.424	3672.69
709.612	3463.8
709.8	3566.2
709.988	3562.1
710.176	3521.14
710.364	3650.16
710.551	3766.9
710.739	3504.76
710.927	3553.91
711.115	3592.82
711.303	3584.63
711.491	3631.73
711.679	3515
711.866	3560.05
712.054	3584.63
712.242	3482.23
712.43	3547.76
712.617	3529.33
712.805	3461.75
712.993	3488.37
713.181	3424.89
713.368	3424.89
713.556	3482.23
713.744	3437.17
713.931	3697.27
714.119	3461.75
714.306	3547.76
714.494	3445.37
714.682	3512.95
714.869	3461.75
715.057	3570.29
715.244	3428.98
715.432	3537.52
715.619	3451.51
715.807	3416.69
715.994	3623.54
716.182	3510.9
716.369	3428.98
716.556	3594.87
716.744	3338.87
716.931	3500.66
717.119	3580.53
717.306	3564.15
717.493	3506.81
717.681	3449.46
717.868	3598.96
718.055	3426.93
718.242	3449.46
718.43	3498.61
718.617	3402.36
718.804	3496.57
718.991	3388.02
719.179	3345.02
719.366	3476.09
719.553	3422.84
719.74	3431.03
719.927	3474.04
720.114	3488.37
720.301	3332.73
720.488	3476.09
720.676	3455.61
720.863	3353.21
721.05	3445.37
721.237	3347.06
721.424	3428.98
721.611	3381.88
721.798	3342.97
721.985	3367.54
722.172	3283.58
722.358	3498.61
722.545	3295.86
722.732	3412.6
722.919	3373.69
723.106	3355.26
723.293	3361.4
723.48	3263.1
723.667	3345.02
723.853	3267.19
724.04	3416.69
724.227	3353.21
724.414	3308.15
724.6	3377.78
724.787	3385.98
724.974	3324.54
725.161	3433.08
725.347	3242.62
725.534	3246.71
725.72	3277.43
725.907	3330.68
726.094	3390.07
726.28	3302.01
726.467	3324.54
726.653	3385.98
726.84	3322.49
727.027	3349.11
727.213	3299.96
727.4	3287.67
727.586	3287.67
727.773	3289.72
727.959	3252.86
728.145	3383.93
728.332	3185.27
728.518	3322.49
728.705	3361.4
728.891	3263.1
729.077	3187.32
729.264	3246.71
729.45	3297.91
729.636	3330.68
729.823	3373.69
730.009	3277.43
730.195	3232.38
730.382	3259
730.568	3054.2
730.754	3232.38
730.94	3132.03
731.126	3213.95
731.313	3189.37
731.499	3297.91
731.685	3240.57
731.871	3308.15
732.057	3201.66
732.243	3170.94
732.429	3125.88
732.615	3177.08
732.801	3334.78
732.987	3326.58
733.173	3162.75
733.359	3222.14
733.545	3228.28
733.731	3226.23
733.917	3279.48
734.103	3220.09
734.289	3152.51
734.475	3080.83
734.661	3166.84
734.847	3136.12
735.033	3072.64
735.219	3003
735.404	3107.45
735.59	3070.59
735.776	3060.35
735.962	3144.31
736.148	3074.68
736.333	3080.83
736.519	3084.92
736.705	3156.6
736.89	2955.9
737.076	3023.48
737.262	3015.29
737.447	3025.53
737.633	2964.09
737.819	3025.53
738.004	2980.48
738.19	2896.51
738.375	3058.3
738.561	3035.77
738.747	2998.91
738.932	2931.33
739.118	3082.88
739.303	2923.13
739.489	2970.24
739.674	2869.89
739.859	2798.21
740.045	2896.51
740.23	2878.08
740.416	2873.98
740.601	3070.59
740.786	2945.66
740.972	2982.53
741.157	2876.03
741.342	2841.22
741.528	2849.41
741.713	2800.26
741.898	2833.02
742.084	2812.54
742.269	2763.39
742.454	2796.16
742.639	2777.73
742.824	2839.17
743.01	2599.56
743.195	2855.55
743.38	2771.58
743.565	2585.22
743.75	2878.08
743.935	2843.26
744.12	2855.55
744.305	2763.39
744.49	2583.17
744.675	2677.38
744.86	2726.53
745.045	2603.65
745.23	2513.54
745.415	2534.02
745.6	2583.17
745.785	2448.01
745.97	2525.83
746.155	2431.62
746.34	2445.96
746.525	2531.97
746.71	2462.34
746.895	2437.77
747.079	2456.2
747.264	2560.64
747.449	2429.57
747.634	2300.55
747.819	2423.43
748.003	2314.89
748.188	2417.29
748.373	2341.51
748.557	2388.61
748.742	2249.35
748.927	2439.81
749.111	2149
749.296	2294.41
749.481	2237.06
749.665	2130.57
749.85	2271.88
750.034	2204.3
750.219	2171.53
750.404	2214.54
750.588	2171.53
750.773	2077.32
750.957	2087.56
751.141	2040.46
751.326	2116.23
751.51	2042.51
751.695	2022.03
751.879	2218.63
752.064	1979.02
752.248	2097.8
752.432	2099.85
752.617	1979.02
752.801	1888.91
752.985	1981.07
753.17	1927.82
753.354	1952.4
753.538	1903.25
753.722	1878.67
753.907	1823.37
754.091	1850
754.275	1843.85
754.459	1845.9
754.643	1796.75
754.828	1811.09
755.012	1802.9
755.196	1796.75
755.38	1637.01
755.564	1850
755.748	1800.85
755.932	1757.84
756.116	1806.99
756.3	1708.69
756.484	1759.89
756.668	1743.5
756.852	1641.11
757.036	1698.45
757.22	1614.48
757.404	1591.95
757.588	1559.19
757.772	1596.05
757.956	1624.72
758.14	1675.92
758.323	1553.04
758.507	1653.39
758.691	1569.43
758.875	1792.66
759.059	1559.19
759.242	1569.43
759.426	1522.32
759.61	1602.19
759.794	1553.04
759.977	1538.71
760.161	1612.43
760.345	1473.17
760.528	1405.59
760.712	1497.75
760.895	1366.68
761.079	1505.94
761.263	1362.58
761.446	1456.79
761.63	1411.73
761.813	1397.4
761.997	1471.12
762.18	1452.69
762.364	1368.73
762.547	1387.16
762.731	1354.39
762.914	1430.16
763.098	1305.24
763.281	1315.48
763.464	1376.92
763.648	1295
763.831	1329.81
764.015	1403.54
764.198	1325.72
764.381	1256.09
764.564	1333.91
764.748	1301.14
764.931	1317.53
765.114	1362.58
765.297	1202.84
765.481	1299.09
765.664	1206.94
765.847	1391.25
766.03	1243.8
766.213	1229.46
766.397	1323.67
766.58	1227.42
766.763	1251.99
766.946	1170.07
767.129	1331.86
767.312	1186.46
767.495	1155.74
767.678	1145.5
767.861	1122.97
768.044	1127.07
768.227	1284.76
768.41	1145.5
768.593	1329.81
768.776	1176.22
768.959	1141.4
769.142	1178.26
769.324	1186.46
769.507	1198.74
769.69	1084.06
769.873	1104.54
770.056	1161.88
770.239	1053.34
770.421	1075.87
770.604	1069.72
770.787	1106.59
770.97	1106.59
771.152	1065.63
771.335	1030.81
771.518	1110.68
771.7	1157.79
771.883	1094.3
772.066	1059.48
772.248	1055.39
772.431	1139.35
772.613	1139.35
772.796	1039
772.978	957.08
773.161	1006.24
773.343	965.28
773.526	918.17
773.708	952.99
773.891	936.6
774.073	983.71
774.256	989.85
774.438	1036.95
774.621	950.94
774.803	928.41
774.985	1014.43
775.168	866.97
775.35	907.93
775.532	928.41
775.715	838.3
775.897	936.6
776.079	905.88
776.261	928.41
776.444	864.93
776.626	905.88
776.808	797.34
776.99	838.3
777.173	871.07
777.355	903.84
777.537	875.17
777.719	897.69
777.901	879.26
778.083	776.86
778.265	797.34
778.447	750.24
778.629	819.87
778.811	838.3
778.993	791.2
779.175	735.9
779.357	807.58
779.539	758.43
779.721	809.63
779.903	776.86
780.085	750.24
780.267	754.34
780.449	690.85
780.631	703.14
780.812	762.53
780.994	735.9
781.176	727.71
781.358	678.56
781.54	776.86
781.721	674.46
781.903	701.09
782.085	774.81
782.267	772.77
782.448	735.9
782.63	639.65
782.812	696.99
782.993	643.74
783.175	666.27
783.357	686.75
783.538	664.22
783.72	574.11
783.901	639.65
784.083	649.89
784.264	633.5
784.446	651.94
784.627	481.96
784.809	647.84
784.99	678.56
785.172	613.03
785.353	604.83
785.535	580.26
785.716	608.93
785.897	524.96
786.079	592.55
786.26	572.07
786.441	506.53
786.623	563.87
786.804	488.1
786.985	543.39
787.167	578.21
787.348	555.68
787.529	518.82
787.71	473.76
787.891	473.76
788.073	524.96
788.254	457.38
788.435	559.78
788.616	500.39
788.797	420.52
788.978	518.82
789.159	473.76
789.34	549.54
789.522	465.57
789.703	490.15
789.884	465.57
790.065	559.78
790.246	447.14
790.427	484
790.607	547.49
790.788	457.38
790.969	406.18
791.15	486.05
791.331	449.19
791.512	447.14
791.693	496.29
791.874	461.48
792.054	424.61
792.235	422.56
792.416	381.6
792.597	393.89
792.778	371.37
792.958	459.43
793.139	391.84
793.32	363.17
793.5	441
793.681	432.8
793.862	479.91
794.042	408.23
794.223	363.17
794.404	502.43
794.584	422.56
794.765	332.45
794.945	406.18
795.126	420.52
795.306	420.52
795.487	322.21
795.667	428.71
795.848	494.24
796.028	309.93
796.209	287.4
796.389	297.64
796.57	305.83
796.75	371.37
796.93	373.41
797.111	338.6
797.291	305.83
797.471	387.75
797.652	316.07
797.832	416.42
798.012	279.21
798.192	385.7
798.373	354.98
798.553	404.13
798.733	352.93
798.913	316.07
799.093	385.7
799.274	391.84
799.454	326.31
799.634	264.87
799.814	367.27
799.994	311.97
800.174	311.97
800.354	397.99
800.534	256.68
800.714	334.5
800.894	293.54
801.074	346.79
801.254	277.16
801.434	352.93
801.614	283.3
801.794	307.88
801.974	819.87
802.154	244.39
802.334	268.97
802.514	303.78
802.693	340.65
802.873	260.77
803.053	318.12
803.233	309.93
803.413	248.49
803.592	281.25
803.772	279.21
803.952	295.59
804.131	281.25
804.311	377.51
804.491	303.78
804.67	250.53
804.85	244.39
805.03	293.54
805.209	215.72
805.389	252.58
805.568	248.49
805.748	260.77
805.928	295.59
806.107	258.73
806.287	228.01
806.466	232.1
806.646	238.25
806.825	219.82
807.004	236.2
807.184	230.06
807.363	352.93
807.543	260.77
807.722	182.95
807.901	264.87
808.081	293.54
808.26	107.18
808.439	213.67
808.619	203.43
808.798	240.3
808.977	258.73
809.156	262.82
809.336	301.73
809.515	230.06
809.694	185
809.873	279.21
810.052	230.06
810.231	236.2
810.411	273.06
810.59	174.76
810.769	193.19
810.948	221.86
811.127	197.29
811.306	205.48
811.485	242.34
811.664	305.83
811.843	268.97
812.022	250.53
812.201	260.77
812.38	293.54
812.559	195.24
812.737	207.53
812.916	182.95
813.095	264.87
813.274	187.05
813.453	197.29
813.632	232.1
813.811	260.77
813.989	182.95
814.168	174.76
814.347	70.31
814.526	209.58
814.704	271.01
814.883	256.68
815.062	168.62
815.24	244.39
815.419	107.18
815.598	223.91
815.776	115.37
815.955	125.61
816.133	88.75
816.312	105.13
816.49	203.43
816.669	109.22
816.847	205.48
817.026	187.05
817.204	107.18
817.383	105.13
817.561	185
817.74	178.86
817.918	187.05
818.097	199.34
818.275	170.66
818.453	148.14
818.632	207.53
818.81	139.94
818.988	187.05
819.167	162.47
819.345	135.85
819.523	178.86
819.701	197.29
819.879	154.28
820.058	96.94
820.236	170.66
820.414	113.32
820.592	225.96
820.77	105.13
820.948	168.62
821.127	84.65
821.305	115.37
821.483	133.8
821.661	141.99
821.839	141.99
822.017	195.24
822.195	158.38
822.373	96.94
822.551	160.42
822.729	131.75
822.907	109.22
823.085	84.65
823.262	164.52
823.44	78.51
823.618	49.83
823.796	187.05
823.974	129.7
824.152	195.24
824.329	64.17
824.507	195.24
824.685	86.7
824.863	84.65
825.04	115.37
825.218	144.04
825.396	129.7
825.574	139.94
825.751	121.51
825.929	135.85
826.107	168.62
826.284	166.57
826.462	119.46
826.639	123.56
826.817	141.99
826.994	39.59
827.172	152.23
827.349	72.36
827.527	176.81
827.704	94.89
827.882	105.13
828.059	189.1
828.237	84.65
828.414	156.33
828.591	199.34
828.769	195.24
828.946	178.86
829.124	84.65
829.301	131.75
829.478	51.88
829.655	182.95
829.833	121.51
830.01	96.94
830.187	123.56
830.364	82.6
830.542	154.28
830.719	158.38
830.896	133.8
831.073	139.94
831.25	187.05
831.427	101.03
831.604	162.47
831.782	121.51
831.959	219.82
832.136	94.89
832.313	72.36
832.49	47.79
832.667	53.93
832.844	70.31
833.021	195.24
833.198	76.46
833.374	129.7
833.551	137.9
833.728	113.32
833.905	141.99
834.082	51.88
834.259	101.03
834.436	137.9
834.612	43.69
834.789	148.14
834.966	70.31
835.143	103.08
835.319	70.31
835.496	121.51
835.673	64.17
835.85	60.07
836.026	213.67
836.203	187.05
836.38	101.03
836.556	96.94
836.733	68.27
836.909	127.66
837.086	60.07
837.262	60.07
837.439	78.51
837.616	103.08
837.792	103.08
837.968	129.7
838.145	92.84
838.321	125.61
838.498	131.75
838.674	127.66
838.851	78.51
839.027	129.7
839.203	162.47
839.38	113.32
839.556	88.75
839.732	109.22
839.909	23.21
840.085	117.42
840.261	31.4
840.437	12.97
840.614	-5.46
840.79	115.37
840.966	74.41
841.142	94.89
841.318	115.37
841.494	49.83
841.671	62.12
841.847	84.65
842.023	47.79
842.199	84.65
842.375	82.6
842.551	21.16
842.727	78.51
842.903	113.32
843.079	17.07
843.255	92.84
843.431	92.84
843.607	29.35
843.783	66.22
843.959	154.28
844.134	31.4
844.31	58.03
844.486	23.21
844.662	121.51
844.838	45.74
845.013	39.59
845.189	68.27
845.365	15.02
845.541	60.07
845.716	49.83
845.892	64.17
846.068	60.07
846.244	119.46
846.419	78.51
846.595	47.79
846.77	-15.7
846.946	90.79
847.122	39.59
847.297	41.64
847.473	88.75
847.648	37.55
847.824	45.74
847.999	-25.94
848.175	55.98
848.35	64.17
848.526	80.55
848.701	19.11
848.876	86.7
849.052	137.9
849.227	119.46
849.403	49.83
849.578	88.75
849.753	76.46
849.929	51.88
850.104	21.16
850.279	55.98
850.454	98.99
850.63	-23.89
850.805	76.46
850.98	45.74
851.155	12.97
851.33	117.42
851.505	62.12
851.681	27.31
851.856	31.4
852.031	90.79
852.206	21.16
852.381	27.31
852.556	68.27
852.731	94.89
852.906	-5.46
853.081	76.46
853.256	64.17
853.431	68.27
853.606	0.68
853.781	10.92
853.956	35.5
854.131	6.83
854.305	39.59
854.48	88.75
854.655	23.21
854.83	19.11
855.005	62.12
855.18	98.99
855.354	15.02
855.529	15.02
855.704	-5.46
855.879	45.74
856.053	37.55
856.228	19.11
856.403	31.4
856.577	55.98
856.752	37.55
856.926	43.69
857.101	-7.51
857.276	23.21
857.45	8.87
857.625	-30.04
857.799	27.31
857.974	29.35
858.148	84.65
858.323	37.55
858.497	43.69
858.672	-13.65
858.846	-23.89
859.02	64.17
859.195	-46.42
859.369	86.7
859.543	6.83
859.718	-62.8
859.892	86.7
860.066	43.69
860.241	-1.37
860.415	10.92
860.589	25.26
860.763	8.87
860.938	37.55
861.112	29.35
861.286	86.7
861.46	117.42
861.634	39.59
861.808	53.93
861.982	-27.99
862.157	12.97
862.331	-30.04
862.505	2.73
862.679	-1.37
862.853	21.16
863.027	39.59
863.201	86.7
863.375	-30.04
863.549	58.03
863.722	64.17
863.896	105.13
864.07	70.31
864.244	2.73
864.418	47.79
864.592	53.93
864.766	21.16
864.939	-3.41
865.113	39.59
865.287	37.55
865.461	-56.66
865.634	70.31
865.808	43.69
865.982	37.55
866.156	-21.85
866.329	-9.56
866.503	60.07
866.676	72.36
866.85	-1.37
867.024	55.98
867.197	25.26
867.371	58.03
867.544	103.08
867.718	-27.99
867.891	12.97
868.065	-21.85
868.238	39.59
868.412	62.12
868.585	47.79
868.759	21.16
868.932	-9.56
869.105	37.55
869.279	84.65
869.452	58.03
869.625	-17.75
869.799	39.59
869.972	51.88
870.145	6.83
870.319	33.45
870.492	-21.85
870.665	39.59
870.838	29.35
871.011	6.83
871.185	-3.41
871.358	86.7
871.531	8.87
871.704	39.59
871.877	6.83
872.05	43.69
872.223	-36.18
872.396	39.59
872.569	119.46
872.742	-21.85
872.915	8.87
873.088	76.46
873.261	19.11
873.434	51.88
873.607	-30.04
873.78	4.78
873.953	19.11
874.126	-27.99
874.299	41.64
874.471	-13.65
874.644	6.83
874.817	4.78
874.99	82.6
875.163	2.73
875.335	6.83
875.508	43.69
875.681	35.5
875.853	-9.56
876.026	-9.56
876.199	80.55
876.371	55.98
876.544	35.5
876.717	39.59
876.889	-17.75
877.062	8.87
877.234	27.31
877.407	-3.41
877.579	-1.37
877.752	4.78
877.924	35.5
878.097	25.26
878.269	15.02
878.442	17.07
878.614	70.31
878.786	27.31
878.959	-17.75
879.131	55.98
879.303	31.4
879.476	58.03
879.648	31.4
879.82	-1.37
879.993	-5.46
880.165	-1.37
880.337	-9.56
880.509	60.07
880.681	-1.37
880.854	-38.23
881.026	-75.09
881.198	92.84
881.37	-44.37
881.542	-3.41
881.714	-13.65
881.886	-13.65
882.058	33.45
882.23	43.69
882.402	45.74
882.574	68.27
882.746	27.31
882.918	78.51
883.09	72.36
883.262	35.5
883.434	62.12
883.606	35.5
883.778	8.87
883.95	12.97
884.122	-30.04
884.293	35.5
884.465	80.55
884.637	45.74
884.809	-1.37
884.98	-9.56
885.152	31.4
885.324	-17.75
885.496	10.92
885.667	23.21
885.839	27.31
886.011	55.98
886.182	70.31
886.354	47.79
886.525	33.45
886.697	37.55
886.869	4.78
887.04	17.07
887.212	47.79
887.383	60.07
887.555	-9.56
887.726	39.59
887.897	-42.32
888.069	25.26
888.24	-34.13
888.412	78.51
888.583	70.31
888.754	64.17
888.926	-27.99
889.097	-50.52
889.268	-42.32
889.44	98.99
889.611	-23.89
889.782	15.02
889.953	-30.04
890.125	78.51
890.296	10.92
890.467	27.31
890.638	-7.51
890.809	29.35
890.98	23.21
891.151	66.22
891.323	31.4
891.494	2.73
891.665	8.87
891.836	2.73
892.007	21.16
892.178	27.31
892.349	-75.09
892.52	15.02
892.691	-27.99
892.862	-9.56
893.032	-36.18
893.203	0.68
893.374	-15.7
893.545	43.69
893.716	-32.08
893.887	31.4
894.057	-25.94
894.228	-7.51
894.399	47.79
894.57	21.16
894.74	-25.94
894.911	-13.65
895.082	4.78
895.253	-7.51
895.423	10.92
895.594	43.69
895.764	17.07
895.935	-23.89
896.106	51.88
896.276	-91.48
896.447	47.79
896.617	-15.7
896.788	-52.56
896.958	-23.89
897.129	-54.61
897.299	23.21
897.47	-1.37
897.64	53.93
897.81	-54.61
897.981	39.59
898.151	-62.8
898.322	-44.37
898.492	43.69
898.662	-23.89
898.832	37.55
899.003	88.75
899.173	-36.18
899.343	-32.08
899.513	-27.99
