Data from USB4F104151__23__10-21-25-679.txt Node

Date: Wed Mar 12 10:21:25 EDT 2025
User: louis
Spectrometer: USB4F10415
Trigger mode: 4
Integration Time (sec): 3.000000E-2
Scans to average: 1
Electric dark correction enabled: true
Nonlinearity correction enabled: false
Boxcar width: 0
XAxis mode: Wavelengths
Number of Pixels in Spectrum: 3648
>>>>>Begin Spectral Data<<<<<
178.204	-105.64
178.424	-105.64
178.644	-105.64
178.864	-128.17
179.084	-58.54
179.304	-29.87
179.524	11.09
179.744	-3.24
179.964	111.44
180.184	47.96
180.404	-29.87
180.624	-79.02
180.844	23.38
181.064	-36.01
181.283	56.15
181.503	-50.35
181.723	-21.67
181.943	-1.19
182.163	-5.29
182.383	13.14
182.602	7
182.822	64.34
183.042	47.96
183.262	-9.39
183.482	-42.15
183.701	56.15
183.921	-13.48
184.141	50
184.361	31.57
184.58	56.15
184.8	-5.29
185.02	-31.91
185.239	31.57
185.459	-11.43
185.679	105.3
185.898	7
186.118	82.77
186.338	-3.24
186.557	-50.35
186.777	-5.29
186.997	4.95
187.216	7
187.436	113.49
187.655	-21.67
187.875	107.35
188.095	7
188.314	54.1
188.534	13.14
188.753	-40.11
188.973	37.72
189.192	76.63
189.412	23.38
189.631	27.48
189.851	29.52
190.07	60.24
190.29	17.24
190.509	37.72
190.729	-21.67
190.948	60.24
191.168	127.83
191.387	84.82
191.607	-33.96
191.826	27.48
192.045	-40.11
192.265	50
192.484	82.77
192.704	-13.48
192.923	0.85
193.142	21.33
193.362	56.15
193.581	64.34
193.8	0.85
194.02	25.43
194.239	-62.63
194.458	31.57
194.678	7
194.897	29.52
195.116	-25.77
195.335	31.57
195.555	11.09
195.774	-19.63
195.993	4.95
196.212	17.24
196.432	-21.67
196.651	35.67
196.87	27.48
197.089	52.05
197.308	-7.34
197.528	-11.43
197.747	-11.43
197.966	-42.15
198.185	123.73
198.404	15.19
198.623	19.29
198.842	76.63
199.062	35.67
199.281	31.57
199.5	-72.87
199.719	66.39
199.938	7
200.157	35.67
200.376	29.52
200.595	-1.19
200.814	-25.77
201.033	-5.29
201.252	-11.43
201.471	66.39
201.69	64.34
201.909	19.29
202.128	45.91
202.347	64.34
202.566	-42.15
202.785	58.2
203.004	-76.97
203.223	107.35
203.442	66.39
203.661	-40.11
203.879	39.76
204.098	47.96
204.317	-33.96
204.536	41.81
204.755	17.24
204.974	4.95
205.193	117.59
205.411	80.72
205.63	-38.06
205.849	11.09
206.068	19.29
206.287	-83.11
206.505	117.59
206.724	21.33
206.943	31.57
207.162	58.2
207.381	68.44
207.599	15.19
207.818	15.19
208.037	21.33
208.255	39.76
208.474	88.92
208.693	23.38
208.911	21.33
209.13	23.38
209.349	-27.82
209.567	-9.39
209.786	47.96
210.005	31.57
210.223	-9.39
210.442	-66.73
210.661	39.76
210.879	21.33
211.098	-1.19
211.316	-9.39
211.535	23.38
211.753	52.05
211.972	43.86
212.191	-17.58
212.409	23.38
212.628	68.44
212.846	27.48
213.065	76.63
213.283	-1.19
213.502	56.15
213.72	0.85
213.938	47.96
214.157	4.95
214.375	15.19
214.594	-13.48
214.812	78.68
215.031	50
215.249	7
215.467	9.05
215.686	43.86
215.904	52.05
216.122	-66.73
216.341	-9.39
216.559	82.77
216.778	35.67
216.996	2.9
217.214	-9.39
217.432	54.1
217.651	31.57
217.869	43.86
218.087	-70.83
218.306	-3.24
218.524	101.2
218.742	15.19
218.96	80.72
219.179	23.38
219.397	76.63
219.615	29.52
219.833	64.34
220.051	39.76
220.27	29.52
220.488	64.34
220.706	64.34
220.924	21.33
221.142	23.38
221.36	39.76
221.578	27.48
221.796	4.95
222.015	27.48
222.233	52.05
222.451	31.57
222.669	-17.58
222.887	29.52
223.105	7
223.323	-5.29
223.541	11.09
223.759	31.57
223.977	43.86
224.195	0.85
224.413	-15.53
224.631	58.2
224.849	-5.29
225.067	54.1
225.285	-9.39
225.503	-33.96
225.721	-9.39
225.939	111.44
226.157	70.48
226.375	101.2
226.592	39.76
226.81	-17.58
227.028	31.57
227.246	74.58
227.464	-25.77
227.682	47.96
227.9	56.15
228.117	-9.39
228.335	47.96
228.553	58.2
228.771	11.09
228.989	41.81
229.206	25.43
229.424	15.19
229.642	47.96
229.86	9.05
230.077	41.81
230.295	0.85
230.513	11.09
230.731	111.44
230.948	62.29
231.166	97.11
231.384	84.82
231.601	-70.83
231.819	45.91
232.037	56.15
232.254	93.01
232.472	29.52
232.689	-66.73
232.907	-46.25
233.125	7
233.342	76.63
233.56	56.15
233.777	45.91
233.995	23.38
234.213	82.77
234.43	64.34
234.648	31.57
234.865	-25.77
235.083	2.9
235.3	47.96
235.518	97.11
235.735	47.96
235.953	33.62
236.17	23.38
236.388	-5.29
236.605	4.95
236.822	41.81
237.04	7
237.257	47.96
237.475	31.57
237.692	29.52
237.909	45.91
238.127	-29.87
238.344	-1.19
238.562	15.19
238.779	-21.67
238.996	-17.58
239.214	119.64
239.431	39.76
239.648	21.33
239.865	103.25
240.083	60.24
240.3	13.14
240.517	15.19
240.735	-13.48
240.952	105.3
241.169	31.57
241.386	68.44
241.603	-1.19
241.821	47.96
242.038	74.58
242.255	33.62
242.472	50
242.689	37.72
242.907	19.29
243.124	95.06
243.341	-25.77
243.558	68.44
243.775	9.05
243.992	-29.87
244.209	52.05
244.426	27.48
244.643	82.77
244.86	84.82
245.078	88.92
245.295	11.09
245.512	29.52
245.729	-107.69
245.946	37.72
246.163	39.76
246.38	76.63
246.597	39.76
246.814	43.86
247.031	15.19
247.248	29.52
247.464	47.96
247.681	62.29
247.898	-46.25
248.115	29.52
248.332	23.38
248.549	35.67
248.766	27.48
248.983	56.15
249.2	-68.78
249.417	4.95
249.633	47.96
249.85	43.86
250.067	54.1
250.284	2.9
250.501	7
250.717	11.09
250.934	31.57
251.151	80.72
251.368	27.48
251.585	19.29
251.801	9.05
252.018	76.63
252.235	-21.67
252.451	-1.19
252.668	56.15
252.885	-23.72
253.102	2.9
253.318	31.57
253.535	50
253.752	15.19
253.968	95.06
254.185	54.1
254.401	0.85
254.618	29.52
254.835	88.92
255.051	119.64
255.268	0.85
255.484	56.15
255.701	7
255.917	11.09
256.134	7
256.351	-17.58
256.567	-42.15
256.784	121.68
257	-29.87
257.217	99.16
257.433	-15.53
257.65	4.95
257.866	21.33
258.082	47.96
258.299	9.05
258.515	33.62
258.732	11.09
258.948	13.14
259.165	19.29
259.381	-15.53
259.597	45.91
259.814	-9.39
260.03	56.15
260.246	-3.24
260.463	21.33
260.679	138.07
260.895	9.05
261.112	33.62
261.328	-29.87
261.544	39.76
261.761	97.11
261.977	4.95
262.193	62.29
262.409	60.24
262.626	4.95
262.842	41.81
263.058	-23.72
263.274	31.57
263.49	-3.24
263.707	15.19
263.923	72.53
264.139	15.19
264.355	-1.19
264.571	7
264.787	-17.58
265.004	47.96
265.22	70.48
265.436	101.2
265.652	47.96
265.868	29.52
266.084	2.9
266.3	4.95
266.516	-3.24
266.732	64.34
266.948	21.33
267.164	50
267.38	7
267.596	78.68
267.812	-1.19
268.028	95.06
268.244	13.14
268.46	15.19
268.676	-13.48
268.892	15.19
269.108	62.29
269.324	4.95
269.54	21.33
269.756	111.44
269.972	-9.39
270.188	62.29
270.403	-27.82
270.619	15.19
270.835	39.76
271.051	-54.44
271.267	29.52
271.483	64.34
271.698	23.38
271.914	90.96
272.13	11.09
272.346	-42.15
272.562	23.38
272.777	93.01
272.993	82.77
273.209	37.72
273.425	64.34
273.64	19.29
273.856	131.92
274.072	21.33
274.287	15.19
274.503	2.9
274.719	43.86
274.934	35.67
275.15	62.29
275.366	50
275.581	31.57
275.797	31.57
276.012	-21.67
276.228	-3.24
276.444	15.19
276.659	7
276.875	7
277.09	35.67
277.306	2.9
277.521	56.15
277.737	72.53
277.952	80.72
278.168	80.72
278.383	-56.49
278.599	-25.77
278.814	-36.01
279.03	-17.58
279.245	138.07
279.461	11.09
279.676	-3.24
279.892	43.86
280.107	-27.82
280.322	-1.19
280.538	86.87
280.753	27.48
280.969	45.91
281.184	80.72
281.399	4.95
281.615	33.62
281.83	13.14
282.045	-85.16
282.26	39.76
282.476	17.24
282.691	-1.19
282.906	-56.49
283.122	72.53
283.337	-38.06
283.552	2.9
283.767	-42.15
283.983	41.81
284.198	99.16
284.413	13.14
284.628	56.15
284.843	-9.39
285.058	52.05
285.274	27.48
285.489	15.19
285.704	33.62
285.919	-42.15
286.134	39.76
286.349	93.01
286.564	31.57
286.779	70.48
286.995	-38.06
287.21	-9.39
287.425	-25.77
287.64	-54.44
287.855	88.92
288.07	13.14
288.285	72.53
288.5	111.44
288.715	23.38
288.93	33.62
289.145	-17.58
289.36	-25.77
289.575	-36.01
289.79	35.67
290.004	62.29
290.219	-38.06
290.434	56.15
290.649	-3.24
290.864	54.1
291.079	-1.19
291.294	43.86
291.509	56.15
291.724	47.96
291.938	45.91
292.153	58.2
292.368	13.14
292.583	-25.77
292.798	119.64
293.012	58.2
293.227	41.81
293.442	50
293.657	-1.19
293.871	21.33
294.086	4.95
294.301	31.57
294.516	-11.43
294.73	60.24
294.945	-1.19
295.16	27.48
295.374	62.29
295.589	19.29
295.804	41.81
296.018	31.57
296.233	56.15
296.447	-23.72
296.662	27.48
296.877	-42.15
297.091	17.24
297.306	74.58
297.52	-72.87
297.735	27.48
297.949	70.48
298.164	15.19
298.378	-25.77
298.593	47.96
298.807	-46.25
299.022	4.95
299.236	25.43
299.451	-5.29
299.665	-33.96
299.88	99.16
300.094	-5.29
300.309	-9.39
300.523	27.48
300.737	72.53
300.952	78.68
301.166	78.68
301.381	-15.53
301.595	-19.63
301.809	31.57
302.024	-48.3
302.238	29.52
302.452	29.52
302.667	47.96
302.881	52.05
303.095	23.38
303.309	56.15
303.524	-33.96
303.738	-11.43
303.952	-27.82
304.166	37.72
304.381	64.34
304.595	52.05
304.809	45.91
305.023	2.9
305.237	15.19
305.452	-44.2
305.666	64.34
305.88	90.96
306.094	35.67
306.308	-3.24
306.522	9.05
306.736	133.97
306.95	33.62
307.164	80.72
307.379	54.1
307.593	60.24
307.807	21.33
308.021	111.44
308.235	56.15
308.449	-21.67
308.663	47.96
308.877	66.39
309.091	95.06
309.305	29.52
309.519	-23.72
309.733	4.95
309.947	-5.29
310.161	45.91
310.374	93.01
310.588	4.95
310.802	29.52
311.016	-7.34
311.23	21.33
311.444	31.57
311.658	15.19
311.872	62.29
312.085	33.62
312.299	72.53
312.513	21.33
312.727	25.43
312.941	-15.53
313.154	45.91
313.368	11.09
313.582	37.72
313.796	68.44
314.009	23.38
314.223	84.82
314.437	111.44
314.651	64.34
314.864	76.63
315.078	47.96
315.292	29.52
315.505	19.29
315.719	-15.53
315.933	43.86
316.146	58.2
316.36	2.9
316.573	62.29
316.787	72.53
317.001	62.29
317.214	31.57
317.428	68.44
317.641	29.52
317.855	15.19
318.068	-11.43
318.282	62.29
318.495	60.24
318.709	72.53
318.922	-29.87
319.136	109.4
319.349	101.2
319.563	74.58
319.776	25.43
319.99	13.14
320.203	-3.24
320.417	64.34
320.63	60.24
320.843	7
321.057	25.43
321.27	54.1
321.483	60.24
321.697	41.81
321.91	-13.48
322.124	-5.29
322.337	101.2
322.55	27.48
322.763	84.82
322.977	7
323.19	-19.63
323.403	54.1
323.617	82.77
323.83	80.72
324.043	86.87
324.256	37.72
324.469	21.33
324.683	66.39
324.896	15.19
325.109	15.19
325.322	-42.15
325.535	27.48
325.748	64.34
325.962	-9.39
326.175	-5.29
326.388	2.9
326.601	88.92
326.814	37.72
327.027	33.62
327.24	131.92
327.453	45.91
327.666	41.81
327.879	47.96
328.092	62.29
328.305	68.44
328.518	11.09
328.731	58.2
328.944	45.91
329.157	11.09
329.37	25.43
329.583	88.92
329.796	-17.58
330.009	41.81
330.222	29.52
330.435	-23.72
330.648	23.38
330.861	64.34
331.073	52.05
331.286	27.48
331.499	56.15
331.712	-91.31
331.925	70.48
332.138	-5.29
332.35	88.92
332.563	-50.35
332.776	27.48
332.989	47.96
333.202	11.09
333.414	-38.06
333.627	39.76
333.84	41.81
334.053	-9.39
334.265	-7.34
334.478	84.82
334.691	62.29
334.903	68.44
335.116	62.29
335.329	64.34
335.541	72.53
335.754	74.58
335.966	-3.24
336.179	64.34
336.392	66.39
336.604	37.72
336.817	37.72
337.029	74.58
337.242	47.96
337.454	35.67
337.667	-5.29
337.88	50
338.092	13.14
338.305	-1.19
338.517	45.91
338.729	129.88
338.942	-11.43
339.154	62.29
339.367	-17.58
339.579	13.14
339.792	2.9
340.004	31.57
340.217	70.48
340.429	41.81
340.641	101.2
340.854	-19.63
341.066	-7.34
341.278	58.2
341.491	41.81
341.703	-7.34
341.915	-64.68
342.128	64.34
342.34	-50.35
342.552	72.53
342.764	-3.24
342.977	82.77
343.189	60.24
343.401	64.34
343.613	45.91
343.826	-7.34
344.038	-1.19
344.25	72.53
344.462	0.85
344.674	21.33
344.886	117.59
345.099	86.87
345.311	25.43
345.523	86.87
345.735	37.72
345.947	56.15
346.159	64.34
346.371	7
346.583	62.29
346.795	54.1
347.007	41.81
347.219	33.62
347.431	72.53
347.643	105.3
347.855	-46.25
348.067	101.2
348.279	-31.91
348.491	35.67
348.703	93.01
348.915	-15.53
349.127	-3.24
349.339	41.81
349.551	43.86
349.763	37.72
349.975	15.19
350.187	-19.63
350.399	123.73
350.61	101.2
350.822	23.38
351.034	154.45
351.246	-9.39
351.458	29.52
351.669	39.76
351.881	68.44
352.093	15.19
352.305	56.15
352.517	82.77
352.728	99.16
352.94	121.68
353.152	19.29
353.363	54.1
353.575	47.96
353.787	101.2
353.999	35.67
354.21	2.9
354.422	-3.24
354.633	60.24
354.845	43.86
355.057	107.35
355.268	31.57
355.48	80.72
355.692	45.91
355.903	99.16
356.115	58.2
356.326	29.52
356.538	82.77
356.749	72.53
356.961	47.96
357.172	60.24
357.384	35.67
357.595	152.4
357.807	62.29
358.018	88.92
358.23	50
358.441	109.4
358.653	43.86
358.864	25.43
359.075	31.57
359.287	47.96
359.498	80.72
359.709	41.81
359.921	95.06
360.132	13.14
360.344	43.86
360.555	2.9
360.766	70.48
360.977	119.64
361.189	78.68
361.4	-1.19
361.611	29.52
361.823	54.1
362.034	84.82
362.245	-97.45
362.456	123.73
362.667	113.49
362.879	80.72
363.09	-9.39
363.301	47.96
363.512	86.87
363.723	84.82
363.935	23.38
364.146	31.57
364.357	62.29
364.568	103.25
364.779	-13.48
364.99	72.53
365.201	17.24
365.412	172.88
365.623	47.96
365.834	68.44
366.045	70.48
366.256	33.62
366.467	15.19
366.678	33.62
366.889	-9.39
367.1	9.05
367.311	39.76
367.522	-21.67
367.733	80.72
367.944	103.25
368.155	23.38
368.366	109.4
368.577	99.16
368.788	97.11
368.999	78.68
369.209	119.64
369.42	70.48
369.631	37.72
369.842	-15.53
370.053	-3.24
370.264	29.52
370.474	2.9
370.685	103.25
370.896	-13.48
371.107	7
371.317	99.16
371.528	-1.19
371.739	131.92
371.95	7
372.16	17.24
372.371	35.67
372.582	31.57
372.792	66.39
373.003	-15.53
373.214	54.1
373.424	72.53
373.635	17.24
373.846	15.19
374.056	7
374.267	52.05
374.477	35.67
374.688	74.58
374.898	129.88
375.109	84.82
375.319	60.24
375.53	19.29
375.74	88.92
375.951	93.01
376.161	23.38
376.372	19.29
376.582	17.24
376.793	125.78
377.003	25.43
377.214	27.48
377.424	88.92
377.635	80.72
377.845	45.91
378.055	-7.34
378.266	-1.19
378.476	-29.87
378.686	19.29
378.897	39.76
379.107	56.15
379.317	93.01
379.528	31.57
379.738	37.72
379.948	11.09
380.158	82.77
380.369	119.64
380.579	95.06
380.789	62.29
380.999	41.81
381.21	56.15
381.42	84.82
381.63	23.38
381.84	86.87
382.05	68.44
382.261	138.07
382.471	39.76
382.681	52.05
382.891	27.48
383.101	31.57
383.311	54.1
383.521	88.92
383.731	68.44
383.941	109.4
384.151	72.53
384.361	86.87
384.571	127.83
384.781	70.48
384.991	148.31
385.201	97.11
385.411	131.92
385.621	68.44
385.831	25.43
386.041	-3.24
386.251	117.59
386.461	74.58
386.671	11.09
386.881	41.81
387.091	47.96
387.301	7
387.511	70.48
387.72	37.72
387.93	31.57
388.14	31.57
388.35	72.53
388.56	72.53
388.769	88.92
388.979	4.95
389.189	39.76
389.399	43.86
389.609	86.87
389.818	156.5
390.028	74.58
390.238	84.82
390.447	27.48
390.657	142.16
390.867	80.72
391.076	-7.34
391.286	115.54
391.496	43.86
391.705	60.24
391.915	125.78
392.125	86.87
392.334	119.64
392.544	103.25
392.753	86.87
392.963	54.1
393.172	60.24
393.382	76.63
393.591	80.72
393.801	133.97
394.01	111.44
394.22	88.92
394.429	35.67
394.639	129.88
394.848	62.29
395.058	60.24
395.267	76.63
395.477	64.34
395.686	111.44
395.895	160.59
396.105	68.44
396.314	121.68
396.524	76.63
396.733	86.87
396.942	156.5
397.152	72.53
397.361	31.57
397.57	97.11
397.78	115.54
397.989	78.68
398.198	185.17
398.407	129.88
398.617	158.55
398.826	129.88
399.035	138.07
399.244	88.92
399.453	47.96
399.663	162.64
399.872	154.45
400.081	95.06
400.29	207.7
400.499	103.25
400.708	105.3
400.917	90.96
401.127	174.93
401.336	78.68
401.545	240.47
401.754	133.97
401.963	246.61
402.172	47.96
402.381	162.64
402.59	164.69
402.799	144.21
403.008	82.77
403.217	129.88
403.426	111.44
403.635	97.11
403.844	156.5
404.053	152.4
404.262	162.64
404.471	158.55
404.68	174.93
404.888	129.88
405.097	95.06
405.306	111.44
405.515	201.55
405.724	199.51
405.933	230.23
406.142	146.26
406.35	154.45
406.559	201.55
406.768	224.08
406.977	248.66
407.185	146.26
407.394	195.41
407.603	224.08
407.812	215.89
408.02	224.08
408.229	211.79
408.438	281.43
408.646	195.41
408.855	260.95
409.064	353.1
409.272	293.71
409.481	269.14
409.69	248.66
409.898	334.67
410.107	306
410.315	389.97
410.524	330.58
410.733	363.34
410.941	392.02
411.15	435.02
411.358	428.88
411.567	496.46
411.775	500.56
411.984	453.45
412.192	475.98
412.401	529.23
412.609	547.66
412.818	662.35
413.026	584.52
413.234	664.4
413.443	537.42
413.651	541.52
413.86	643.92
414.068	709.45
414.276	678.73
414.485	691.02
414.693	670.54
414.901	840.52
415.11	725.83
415.318	713.55
415.526	881.48
415.734	844.62
415.943	916.3
416.151	998.21
416.359	912.2
416.567	1018.69
416.776	940.87
416.984	1172.29
417.192	1045.32
417.4	1110.85
417.608	1106.76
417.817	1190.72
418.025	1203.01
418.233	1399.62
418.441	1207.11
418.649	1307.46
418.857	1381.18
419.065	1426.24
419.273	1430.34
419.481	1502.01
419.689	1747.77
419.897	1624.89
420.105	1758.01
420.313	1737.53
420.521	1817.4
420.729	1813.31
420.937	1919.8
421.145	1964.86
421.353	2040.63
421.561	2218.8
421.769	2280.24
421.977	2249.52
422.185	2364.21
422.393	2558.77
422.601	2591.53
422.809	2603.82
423.017	2612.01
423.224	2714.41
423.432	2835.24
423.64	2853.67
423.848	3134.25
424.056	2919.21
424.263	3273.51
424.471	3173.16
424.679	3265.32
424.887	3588.89
425.094	3738.4
425.302	3517.22
425.51	3746.59
425.718	3932.95
425.925	3898.14
426.133	4037.4
426.341	4324.12
426.548	4369.17
426.756	4438.8
426.964	4408.08
427.171	4840.2
427.379	4944.65
427.586	4938.51
427.794	5061.38
428.001	5362.44
428.209	5612.29
428.417	5585.66
428.624	5815.04
428.832	5944.06
429.039	5960.44
429.247	5661.44
429.454	6470.39
429.662	6867.69
429.869	6507.25
430.076	6912.75
430.284	6515.44
430.491	6933.23
430.699	7324.39
430.906	7346.92
431.114	7342.82
431.321	7707.36
431.528	7852.77
431.736	8473.3
431.943	8952.52
432.15	8485.59
432.358	8512.21
432.565	9286.34
432.772	9030.35
432.979	9648.83
433.187	10007.23
433.394	9575.11
433.601	10314.42
433.808	10279.61
434.016	10359.48
434.223	10775.22
434.43	11528.87
434.637	11156.14
434.844	11846.3
435.052	12216.99
435.259	11989.66
435.466	12315.29
435.673	11848.35
435.88	13011.6
436.087	13353.61
436.294	13290.12
436.501	13187.72
436.708	13392.52
436.915	13908.61
437.122	14533.24
437.329	14346.87
437.537	14873.2
437.743	15280.75
437.95	15037.04
438.157	16052.83
438.364	16511.58
438.571	16515.67
438.778	16411.23
438.985	18145.86
439.192	17209.93
439.399	18004.55
439.606	17465.93
439.813	18485.82
440.02	19350.06
440.227	19421.74
440.433	18930.23
440.64	19687.98
440.847	19192.37
441.054	19956.26
441.261	21305.87
441.467	21289.49
441.674	21608.97
441.881	22247.94
442.088	22123.01
442.294	21803.53
442.501	22635
442.708	22948.34
442.914	24011.24
443.121	24867.29
443.328	24265.19
443.534	25981.38
443.741	25002.46
443.948	25127.38
444.154	26868.16
444.361	26288.58
444.568	26780.09
444.774	26374.59
444.981	26847.68
445.187	27537.84
445.394	28885.4
445.6	28500.39
445.807	31154.55
446.013	29821.33
446.22	30448
446.426	31613.3
446.633	31707.51
446.839	32733.54
447.046	31369.59
447.252	33055.07
447.459	33130.84
447.665	32975.2
447.871	34568.52
448.078	35817.78
448.284	34111.82
448.491	34976.06
448.697	36593.96
448.903	37075.23
449.11	36923.68
449.316	35860.79
449.522	37177.63
449.728	38142.22
449.935	38093.07
450.141	37953.81
450.347	38926.6
450.553	37697.81
450.76	38199.57
450.966	38981.89
451.172	39092.48
451.378	39387.39
451.584	39125.25
451.791	39622.9
451.997	39530.75
452.203	40470.76
452.409	40157.42
452.615	40231.15
452.821	38555.91
453.027	37824.79
453.233	39710.97
453.44	38557.96
453.646	38766.85
453.852	39043.33
454.058	39581.95
454.264	38318.35
454.47	39196.93
454.676	38263.05
454.882	39106.82
455.088	35610.93
455.294	36188.46
455.5	36806.95
455.705	37269.79
455.911	35877.17
456.117	35471.67
456.323	34398.54
456.529	32473.45
456.735	33892.69
456.941	33112.41
457.147	32661.86
457.352	31762.8
457.558	30853.5
457.764	31314.3
457.97	30687.62
458.176	30083.47
458.381	29864.33
458.587	28477.86
458.793	28518.82
458.999	27271.61
459.204	28783.01
459.41	27804.08
459.616	26462.66
459.821	26479.04
460.027	26397.12
460.233	25784.78
460.438	24388.07
460.644	24719.84
460.85	23658.99
461.055	23032.31
461.261	23331.31
461.466	21764.62
461.672	20791.83
461.878	22553.09
462.083	20894.23
462.289	20808.22
462.494	20118.05
462.7	19505.71
462.905	18930.23
463.111	19710.5
463.316	19550.76
463.522	19515.95
463.727	19438.12
463.932	19165.74
464.138	19124.79
464.343	19315.25
464.549	18500.16
464.754	19333.68
464.959	19212.85
465.165	18905.65
465.37	18287.17
465.575	17703.5
465.781	18555.45
465.986	18709.05
466.191	17769.03
466.397	17635.91
466.602	16634.46
466.807	17445.45
467.012	17158.74
467.218	17234.51
467.423	16859.73
467.628	17218.13
467.833	18102.85
468.038	17123.92
468.244	16659.03
468.449	17338.96
468.654	16929.36
468.859	16530.01
469.064	16456.28
469.269	16347.74
469.474	15780.45
469.679	16304.73
469.885	15915.62
470.09	16106.08
470.295	15802.98
470.5	15526.5
470.705	15686.25
470.91	15217.26
471.115	15196.78
471.32	15540.84
471.525	15401.58
471.73	14854.77
471.935	14748.28
472.139	14328.44
472.344	14588.53
472.549	14725.75
472.754	14279.29
472.959	13611.65
473.164	13658.76
473.369	13550.21
473.574	14017.15
473.778	13918.85
473.983	13587.08
474.188	13728.39
474.393	13261.45
474.598	13290.12
474.802	13048.46
475.007	13027.98
475.212	12962.45
475.417	12720.79
475.621	12472.98
475.826	12706.45
476.031	12253.85
476.235	12229.27
476.44	12425.88
476.645	12073.63
476.849	11877.02
477.054	11797.15
477.259	11537.06
477.463	11729.57
477.668	11530.92
477.872	11500.2
478.077	11362.98
478.282	11041.45
478.486	11205.29
478.691	11006.64
478.895	11066.03
479.1	10959.53
479.304	11115.18
479.509	10392.25
479.713	10881.71
479.918	10539.7
480.122	10513.08
480.326	10861.23
480.531	10664.63
480.735	10570.42
480.94	10617.52
481.144	10607.28
481.348	10400.44
481.553	10439.35
481.757	10173.11
481.961	10318.52
482.166	10418.87
482.37	10361.53
482.574	10179.26
482.778	10320.57
482.983	10386.1
483.187	10136.25
483.391	10144.44
483.595	10263.22
483.8	9972.41
484.004	10508.98
484.208	10271.42
484.412	10242.75
484.616	10308.28
484.821	10287.8
485.025	10191.55
485.229	10515.12
485.433	10169.02
485.637	10439.35
485.841	10054.33
486.045	9943.74
486.249	10359.48
486.453	10142.39
486.657	10226.36
486.861	10365.62
487.065	9992.89
487.269	10212.03
487.473	10042.04
487.677	10363.58
487.881	10355.38
488.085	10267.32
488.289	10271.42
488.493	10205.88
488.697	10396.34
488.901	10427.06
489.105	10183.35
489.309	10257.08
489.512	10484.41
489.716	10543.8
489.92	10343.1
490.124	10355.38
490.328	10658.48
490.531	10558.13
490.735	10543.8
490.939	10588.85
491.143	10492.6
491.346	10564.28
491.55	10576.56
491.754	10801.84
491.958	11010.73
492.161	10613.43
492.365	10701.49
492.569	11025.07
492.772	10969.77
492.976	11037.36
493.18	10975.92
493.383	11176.62
493.587	11405.99
493.79	11289.26
493.994	11209.39
494.197	11338.41
494.401	11479.72
494.605	11584.16
494.808	11670.18
495.012	11915.94
495.215	11922.08
495.419	11911.84
495.622	11887.26
495.825	12112.54
496.029	12012.19
496.232	12047.01
496.436	12352.15
496.639	12671.64
496.843	12522.13
497.046	12798.61
497.249	12976.78
497.453	13161.1
497.656	13238.92
497.859	13193.87
498.063	13095.57
498.266	13654.66
498.469	13441.67
498.673	13644.42
498.876	13556.36
499.079	14146.17
499.282	13681.28
499.485	14295.68
499.689	14361.21
499.892	14908.02
500.095	14758.52
500.298	15059.57
500.501	15069.81
500.705	15370.86
500.908	15612.52
501.111	15469.16
501.314	15757.92
501.517	16179.81
501.72	16005.73
501.923	16366.17
502.126	16429.66
502.329	16482.91
502.532	17142.35
502.735	16955.99
502.938	17179.22
503.141	17209.93
503.344	17463.88
503.547	17465.93
503.75	17812.04
503.953	18188.86
504.156	18223.68
504.359	18711.1
504.562	18496.06
504.765	19014.2
504.968	19227.18
505.17	19474.99
505.373	19405.36
505.576	19864.1
505.779	20152.87
505.982	20136.48
506.185	20556.32
506.387	20476.44
506.59	20810.26
506.793	21084.69
506.996	21193.23
507.198	21553.68
507.401	21418.51
507.604	21916.17
507.807	22225.41
508.009	22383.1
508.212	22166.02
508.415	22790.65
508.617	23110.13
508.82	23233.01
509.022	23472.62
509.225	23837.16
509.428	23826.92
509.63	23902.7
509.833	24388.07
510.035	24951.26
510.238	24488.42
510.44	24984.02
510.643	25616.85
510.845	25686.48
511.048	25266.64
511.25	25952.71
511.453	26161.61
511.655	26968.51
511.858	26685.89
512.06	26978.75
512.262	27363.76
512.465	27515.31
512.667	27759.02
512.87	28150.18
513.072	28203.43
513.274	28459.43
513.477	28723.62
513.679	28895.64
513.881	29358.49
514.084	29573.52
514.286	29700.5
514.488	29852.05
514.69	30622.08
514.893	31056.25
515.095	30617.99
515.297	31531.38
515.499	31383.93
515.701	31447.41
515.904	32184.68
516.106	32387.43
516.308	33005.92
516.51	33173.85
516.712	33055.07
516.914	33251.67
517.116	33808.72
517.318	34095.44
517.52	34333
517.722	34324.81
517.925	34722.12
518.127	35225.92
518.329	35383.61
518.531	35399.99
518.733	35936.56
518.935	36475.18
519.136	36170.03
519.338	36780.32
519.54	36663.59
519.742	37495.07
519.944	37429.53
520.146	38052.11
520.348	38426.89
520.55	38371.6
520.752	38453.51
520.954	39260.41
521.155	38498.57
521.357	39522.55
521.559	39796.98
521.761	40444.14
521.963	40564.97
522.164	40607.98
522.366	40937.7
522.568	41384.16
522.77	41484.51
522.971	41957.59
523.173	41691.35
523.375	42037.46
523.576	42146
523.778	42373.33
523.98	42836.17
524.181	43028.68
524.383	43307.2
524.584	43516.09
524.786	43563.2
524.988	43477.18
525.189	44245.17
525.391	44619.95
525.592	44400.82
525.794	44894.38
525.995	44263.6
526.197	44542.13
526.398	44929.19
526.6	45220
526.801	45324.45
527.003	45469.86
527.204	46297.23
527.406	45844.63
527.607	45549.73
527.808	46790.8
528.01	45510.81
528.211	45684.89
528.412	47063.18
528.614	46600.33
528.815	46540.94
529.016	47171.72
529.218	46588.05
529.419	47016.07
529.62	47253.64
529.822	47370.37
530.023	47349.89
530.224	47308.93
530.425	47204.49
530.626	47143.05
530.828	47071.37
531.029	48042.1
531.23	47425.67
531.431	47526.02
531.632	47698.05
531.833	47792.25
532.035	47825.02
532.236	48156.79
532.437	47900.79
532.638	47915.13
532.839	48466.03
533.04	48437.36
533.241	47665.28
533.442	48423.03
533.643	48103.54
533.844	48447.6
534.045	48187.51
534.246	47870.07
534.447	48574.58
534.648	48169.08
534.849	48582.77
535.05	48504.95
535.251	48279.67
535.451	48439.41
535.652	48533.62
535.853	48543.86
536.054	48650.35
536.255	48664.69
536.456	47800.44
536.657	49170.54
536.857	48343.16
537.058	48394.35
537.259	48947.31
537.46	48875.63
537.66	48160.89
537.861	48564.34
538.062	48517.23
538.263	48676.97
538.463	48398.45
538.664	48230.52
538.865	48599.15
539.065	48607.34
539.266	48111.74
539.466	48836.72
539.667	48216.18
539.868	48840.81
540.068	48435.31
540.269	48574.58
540.469	49025.13
540.67	48468.08
540.87	47917.18
541.071	48148.6
541.271	48488.56
541.472	48136.31
541.672	48167.03
541.873	48054.39
542.073	48341.11
542.274	48887.92
542.474	48140.41
542.675	47835.26
542.875	48695.41
543.075	47827.07
543.276	47743.1
543.476	48842.86
543.676	48353.4
543.877	48547.95
544.077	48128.12
544.277	48189.56
544.478	48291.96
544.678	48595.06
544.878	48320.63
545.078	48078.97
545.279	48029.82
545.479	48089.21
545.679	48287.86
545.879	47788.16
546.079	47906.94
546.28	47775.87
546.48	47808.64
546.68	48326.77
546.88	48099.45
547.08	48238.71
547.28	47818.88
547.48	48171.13
547.68	48152.69
547.88	47808.64
548.081	48183.41
548.281	47999.1
548.481	48085.11
548.681	48064.63
548.881	47741.05
549.081	47802.49
549.28	47677.57
549.48	47933.56
549.68	47538.3
549.88	48425.07
550.08	47855.74
550.28	48148.6
550.48	47853.69
550.68	48109.69
550.88	47939.71
551.08	47804.54
551.279	47769.72
551.479	47542.4
551.679	47575.17
551.879	47784.06
552.079	47739
552.278	47323.27
552.478	48124.02
552.678	47685.76
552.878	47687.81
553.077	47843.45
553.277	47091.85
553.477	48050.3
553.676	47849.6
553.876	47335.56
554.076	47198.34
554.275	46835.85
554.475	47063.18
554.674	47360.13
554.874	47911.03
555.074	47204.49
555.273	47573.12
555.473	47503.49
555.672	46905.48
555.872	47247.49
556.071	47210.63
556.271	47370.37
556.47	46952.58
556.67	46698.64
556.869	46770.32
557.068	47278.21
557.268	46317.71
557.467	46944.39
557.667	47050.89
557.866	46475.41
558.065	46755.98
558.265	46235.8
558.464	46352.53
558.663	46850.19
558.863	46037.14
559.062	46825.61
559.261	46215.32
559.461	47235.2
559.66	45858.97
559.859	46850.19
560.058	46538.9
560.258	46327.95
560.457	46008.47
560.656	46026.9
560.855	45932.7
561.054	45863.07
561.253	45652.12
561.453	45650.08
561.652	46065.81
561.851	46155.93
562.05	45543.58
562.249	45260.96
562.448	45985.94
562.647	45476
562.846	45322.4
563.045	45398.18
563.244	45310.11
563.443	45875.35
563.642	45037.73
563.841	44949.67
564.04	44851.37
564.239	45576.35
564.438	44968.1
564.637	45027.49
564.836	44601.52
565.035	44239.03
565.234	44656.81
565.432	44566.7
565.631	44179.64
565.83	44525.74
566.029	43968.69
566.228	44200.11
566.427	44150.96
566.625	44122.29
566.824	43282.62
567.023	43741.37
567.222	43020.48
567.42	43778.23
567.619	43501.76
567.818	43505.85
568.016	43421.89
568.215	43641.02
568.414	43180.23
568.612	43929.78
568.811	43090.12
569.01	43305.15
569.208	42774.73
569.407	43006.15
569.605	42463.44
569.804	43118.79
570.002	42451.15
570.201	43032.77
570.4	42078.42
570.598	42037.46
570.797	42059.99
570.995	41773.27
571.193	41953.49
571.392	42395.85
571.59	41494.75
571.789	41738.46
571.987	41650.39
572.186	41574.62
572.384	41664.73
572.582	41558.24
572.781	41165.03
572.979	40882.41
573.177	41351.39
573.376	40923.36
573.574	40851.69
573.772	41140.45
573.971	40884.45
574.169	40411.37
574.367	40517.87
574.565	41130.21
574.763	40489.2
574.962	40454.38
575.16	40247.54
575.358	40003.83
575.556	39966.96
575.754	40399.08
575.952	39815.41
576.151	40212.72
576.349	39244.03
576.547	39461.12
576.745	39713.02
576.943	39481.59
577.141	39868.66
577.339	39235.84
577.537	39254.27
577.735	39141.63
577.933	38531.34
578.131	38883.59
578.329	38514.95
578.527	38682.89
578.725	38775.05
578.923	38971.65
579.121	38678.79
579.319	38508.81
579.516	38430.99
579.714	38224.14
579.912	38183.18
580.11	38136.08
580.308	38035.73
580.506	37757.21
580.704	37634.33
580.901	37882.13
581.099	37771.54
581.297	37361.95
581.495	37411.1
581.692	37675.29
581.89	36868.39
582.088	37531.93
582.285	37234.97
582.483	37609.75
582.681	37108
582.878	36839.72
583.076	36557.1
583.274	36909.35
583.471	36462.89
583.669	36495.66
583.866	36507.94
584.064	36432.17
584.262	35606.84
584.459	36495.66
584.657	35948.85
584.854	36325.68
585.052	35307.83
585.249	36151.6
585.447	36237.61
585.644	35492.15
585.841	35948.85
586.039	35842.35
586.236	35549.49
586.434	35426.62
586.631	35537.21
586.828	35545.4
587.026	34908.48
587.223	35375.42
587.42	34548.04
587.618	35039.55
587.815	34523.46
588.012	34568.52
588.21	34652.48
588.407	34732.36
588.604	34056.53
588.801	34187.6
588.999	34593.09
589.196	33997.13
589.393	34107.72
589.59	33995.09
589.787	33724.75
589.984	33915.22
590.182	33442.14
590.379	33485.14
590.576	33296.73
590.773	33130.84
590.97	33227.1
591.167	33655.12
591.364	32743.78
591.561	32985.44
591.758	32659.81
591.955	33100.12
592.152	33186.14
592.349	32911.71
592.546	32790.88
592.743	32729.44
592.94	32102.76
593.137	32057.71
593.334	32141.67
593.531	32194.92
593.727	32174.44
593.924	32190.83
594.121	31799.66
594.318	31861.1
594.515	31445.37
594.712	32196.97
594.908	31527.28
595.105	31441.27
595.302	31226.23
595.499	31240.57
595.696	31326.58
595.892	30929.28
596.089	31394.17
596.286	31127.93
596.482	30986.62
596.679	30681.47
596.876	30976.38
597.072	30773.63
597.269	30581.12
597.466	30161.29
597.662	30536.07
597.859	30663.04
598.055	30337.41
598.252	30157.19
598.448	30171.53
598.645	29878.67
598.841	29786.51
599.038	29911.44
599.234	29655.44
599.431	29514.13
599.627	29368.73
599.824	29610.39
600.02	29251.99
600.217	29350.29
600.413	29147.54
600.609	29278.61
600.806	28807.58
601.002	29028.76
601.198	28598.69
601.395	28752.29
601.591	28748.19
601.787	28701.09
601.984	28426.66
602.18	29133.21
602.376	28379.56
602.572	28234.15
602.769	28336.55
602.965	27857.32
603.161	28119.46
603.357	27881.9
603.553	27775.41
603.75	27916.72
603.946	27953.58
604.142	27679.15
604.338	27376.05
604.534	27748.78
604.73	27382.2
604.926	27400.63
605.122	27451.83
605.318	27138.49
605.514	27019.71
605.71	26966.46
605.906	26507.71
606.102	26767.8
606.298	26778.04
606.494	26501.57
606.69	26657.21
606.886	26671.55
607.082	26212.81
607.278	26679.74
607.474	26257.86
607.67	26544.58
607.866	26085.83
608.062	26468.8
608.257	26288.58
608.453	26280.39
608.649	26427.84
608.845	25764.3
609.041	25885.13
609.236	25917.9
609.432	26087.88
609.628	25936.33
609.824	25614.8
610.019	25463.25
610.215	25453.01
610.411	25475.54
610.606	25180.63
610.802	25317.84
610.998	24990.17
611.193	25242.07
611.389	25346.51
611.584	25188.82
611.78	25039.32
611.976	24873.43
612.171	25197.01
612.367	25092.57
612.562	24924.63
612.758	24560.09
612.953	24879.58
613.149	24889.82
613.344	24592.86
613.539	25156.05
613.735	24478.18
613.93	24941.02
614.126	24343.01
614.321	25055.7
614.517	24486.37
614.712	24594.91
614.907	24230.37
615.103	24691.16
615.298	24455.65
615.493	24181.22
615.688	24062.44
615.884	24580.57
616.079	23869.93
616.274	24029.67
616.47	23874.03
616.665	23990.76
616.86	23933.42
617.055	23890.41
617.25	23841.26
617.445	23835.11
617.641	23556.59
617.836	23689.71
618.031	23124.47
618.226	23478.77
618.421	23585.26
618.616	23407.09
618.811	23089.65
619.006	23372.27
619.201	23040.5
619.396	23316.98
619.591	22847.99
619.786	22956.54
619.981	22729.21
620.176	23044.6
620.371	22501.89
620.566	22503.93
620.761	22362.62
620.956	22493.69
621.151	22098.44
621.346	22153.73
621.541	21748.23
621.735	21914.12
621.93	21473.81
622.125	21518.86
622.32	21355.02
622.515	21402.13
622.709	21504.53
622.904	21182.99
623.099	21049.88
623.294	21142.03
623.488	20820.5
623.683	20746.78
623.878	20689.43
624.072	20718.11
624.267	20548.12
624.462	20410.91
624.656	20148.77
624.851	19995.17
625.046	20021.8
625.24	20249.12
625.435	19855.91
625.629	19741.22
625.824	19522.09
626.018	19900.97
626.213	19069.49
626.407	19311.15
626.602	18993.72
626.796	19149.36
626.991	19192.37
627.185	18907.7
627.38	18793.01
627.574	18711.1
627.768	18440.76
627.963	18528.83
628.157	18344.51
628.352	18414.14
628.546	17961.54
628.74	18272.83
628.935	18152
629.129	17853
629.323	17535.56
629.517	17816.13
629.712	17760.84
629.906	17252.94
630.1	17103.44
630.294	17601.1
630.489	17252.94
630.683	17449.55
630.877	16998.99
631.071	17017.43
631.265	16929.36
631.459	16792.15
631.653	16601.69
631.848	16837.2
632.042	16540.25
632.236	16558.68
632.43	16530.01
632.624	16534.11
632.818	16204.38
633.012	16210.53
633.206	16147.04
633.4	15952.48
633.594	15647.33
633.788	15999.59
633.982	15690.34
634.176	15749.73
634.369	15342.19
634.563	15450.73
634.757	15501.93
634.951	15536.74
635.145	15360.62
635.339	15098.48
635.533	14869.11
635.726	15125.1
635.92	14639.73
636.114	15098.48
636.308	14703.22
636.501	14850.67
636.695	14615.16
636.889	14660.21
637.083	14613.11
637.276	14436.99
637.47	14252.67
637.664	14137.98
637.857	14269.05
638.051	14318.2
638.244	14029.44
638.438	13910.66
638.632	13738.63
638.825	13691.52
639.019	13984.38
639.212	13566.6
639.406	13658.76
639.599	13433.48
639.793	13386.38
639.986	13216.4
640.18	13064.85
640.373	13175.44
640.567	12991.12
640.76	13126.29
640.954	12901.01
641.147	12843.67
641.34	12769.94
641.534	12776.08
641.727	12745.36
641.92	12714.64
642.114	12278.43
642.307	12571.29
642.5	12354.2
642.694	12133.02
642.887	12010.14
643.08	12137.12
643.273	12126.88
643.467	12063.39
643.66	11917.98
643.853	11936.42
644.046	11541.16
644.239	11864.74
644.432	11569.83
644.626	11735.71
644.819	11561.64
645.012	11588.26
645.205	11573.92
645.398	11336.36
645.591	11297.45
645.784	11303.59
645.977	11090.6
646.17	11242.15
646.363	11244.2
646.556	10767.03
646.749	11029.17
646.942	10916.53
647.135	10947.25
647.328	11072.17
647.521	10683.06
647.714	10678.96
647.907	10633.91
648.099	10660.53
648.292	10470.07
648.485	10457.78
648.678	10250.94
648.871	10367.67
649.064	10465.97
649.256	10355.38
649.449	10142.39
649.642	10050.24
649.835	9915.07
650.027	10037.95
650.22	9884.35
650.413	9980.61
650.605	9894.59
650.798	9708.23
650.991	9716.42
651.183	9808.58
651.376	9550.53
651.568	9724.61
651.761	9382.6
651.954	9695.94
652.146	9468.61
652.339	9345.73
652.531	9294.54
652.724	9448.13
652.916	9118.41
653.109	9226.95
653.301	9073.35
653.494	9218.76
653.686	8964.81
653.879	9138.89
654.071	8764.11
654.263	8796.88
654.456	8815.31
654.648	8919.76
654.84	8622.8
655.033	8780.5
655.225	8620.75
655.417	8536.79
655.61	8604.37
655.802	8581.84
655.994	8409.81
656.186	8389.33
656.379	8407.77
656.571	8438.48
656.763	8164.06
656.955	8346.33
657.148	8329.94
657.34	8123.1
657.532	7877.34
657.724	7895.77
657.916	7981.79
658.108	8010.46
658.3	7789.28
658.492	7901.92
658.684	7776.99
658.876	7736.03
659.068	7656.16
659.26	7731.94
659.452	7766.75
659.644	7772.89
659.836	7613.15
660.028	7531.23
660.22	7371.49
660.412	7332.58
660.604	7482.08
660.796	7391.97
660.988	7224.04
661.18	7330.53
661.372	7418.6
661.563	7371.49
661.755	7140.07
661.947	7252.71
662.139	7238.37
662.331	7123.69
662.522	7158.5
662.714	7111.4
662.906	6824.69
663.097	6781.68
663.289	6748.91
663.481	6904.56
663.673	6884.08
663.864	6654.7
664.056	6732.53
664.247	6890.22
664.439	6494.96
664.631	6830.83
664.822	6777.58
665.014	6527.73
665.205	6529.78
665.397	6552.31
665.588	6400.76
665.78	6417.14
665.971	6247.16
666.163	6494.96
666.354	6343.41
666.546	6284.02
666.737	6195.96
666.929	6181.62
667.12	6187.77
667.311	6241.01
667.503	6097.66
667.694	6169.34
667.885	5909.24
668.077	5982.97
668.268	5985.02
668.459	5872.38
668.651	5880.57
668.842	6032.12
669.033	5899
669.224	5913.34
669.416	5917.44
669.607	5929.72
669.798	5884.67
669.989	5726.97
670.18	5731.07
670.371	5772.03
670.563	5866.24
670.754	5704.45
670.945	5761.79
671.136	5602.05
671.327	5612.29
671.518	5522.18
671.709	5632.77
671.9	5581.57
672.091	5544.7
672.282	5499.65
672.473	5366.53
672.664	5427.97
672.855	5407.49
673.046	5405.44
673.237	5497.6
673.428	5473.03
673.619	5358.34
673.809	5270.28
674	5327.62
674.191	5298.95
674.382	5264.13
674.573	5280.52
674.764	5247.75
674.954	5391.11
675.145	5088.01
675.336	5307.14
675.527	5145.35
675.717	5280.52
675.908	4958.99
676.099	5108.49
676.289	4971.27
676.48	5188.36
676.671	5047.05
676.861	5049.1
677.052	5069.58
677.243	5137.16
677.433	5079.82
677.624	5067.53
677.814	4832.01
678.005	4938.51
678.195	5038.86
678.386	5045
678.576	4903.69
678.767	4922.12
678.957	4958.99
679.148	4944.65
679.338	4797.2
679.529	5008.14
679.719	4815.63
679.909	4868.88
680.1	4799.24
680.29	4690.7
680.481	4778.76
680.671	4809.48
680.861	4614.93
681.052	4801.29
681.242	4594.45
681.432	4858.64
681.622	4705.04
681.813	4746
682.003	4559.63
682.193	4436.75
682.383	4614.93
682.573	4698.89
682.764	4627.21
682.954	4778.76
683.144	4590.35
683.334	4772.62
683.524	4496.14
683.714	4555.54
683.904	4721.42
684.094	4649.74
684.284	4483.86
684.474	4625.17
684.664	4559.63
684.854	4567.82
685.044	4559.63
685.234	4389.65
685.424	4465.43
685.614	4487.95
685.804	4328.21
685.994	4444.95
686.184	4469.52
686.374	4397.84
686.564	4262.68
686.753	4430.61
686.943	4160.28
687.133	4328.21
687.323	4360.98
687.513	4234
687.702	4340.5
687.892	4336.4
688.082	4145.94
688.272	4180.76
688.461	4211.48
688.651	4307.73
688.841	4100.89
689.03	4279.06
689.22	4150.04
689.41	4186.9
689.599	3975.96
689.789	4147.99
689.979	4074.26
690.168	4033.3
690.358	4014.87
690.547	3941.15
690.737	4014.87
690.926	3926.81
691.116	4004.63
691.305	4084.5
691.495	3973.91
691.684	3801.88
691.874	3822.36
692.063	3920.67
692.252	3836.7
692.442	3730.2
692.631	3865.37
692.82	3683.1
693.01	3769.12
693.199	3937.05
693.388	3762.97
693.578	3750.68
693.767	3758.88
693.956	3701.53
694.146	3744.54
694.335	3676.96
694.524	3681.05
694.713	3848.99
694.902	3670.81
695.092	3584.8
695.281	3586.85
695.47	3605.28
695.659	3601.18
695.848	3728.16
696.037	3529.5
696.226	3506.98
696.415	3607.33
696.604	3713.82
696.793	3603.23
696.982	3529.5
697.171	3644.19
697.36	3533.6
697.549	3527.46
697.738	3375.91
697.927	3521.31
698.116	3605.28
698.305	3556.13
698.494	3521.31
698.683	3558.18
698.872	3658.53
699.061	3412.77
699.25	3433.25
699.438	3511.07
699.627	3478.3
699.816	3468.06
700.005	3390.24
700.193	3463.97
700.382	3552.03
700.571	3476.26
700.76	3423.01
700.948	3611.42
701.137	3314.47
701.326	3592.99
701.514	3527.46
701.703	3293.99
701.892	3384.1
702.08	3539.74
702.269	3431.2
702.457	3349.28
702.646	3420.96
702.834	3402.53
703.023	3269.41
703.212	3482.4
703.4	3357.47
703.589	3414.82
703.777	3423.01
703.965	3416.87
704.154	3306.27
704.342	3429.15
704.531	3257.12
704.719	3314.47
704.907	3445.54
705.096	3347.23
705.284	3293.99
705.472	3394.34
705.661	3271.46
705.849	3416.87
706.037	3357.47
706.226	3318.56
706.414	3308.32
706.602	3287.84
706.79	3279.65
706.979	3242.79
707.167	3285.8
707.355	3210.02
707.543	3326.75
707.731	3332.9
707.919	3316.51
708.107	3298.08
708.296	3283.75
708.484	3234.6
708.672	3250.98
708.86	3267.36
709.048	3336.99
709.236	3298.08
709.424	3195.68
709.612	3234.6
709.8	3214.12
709.988	3259.17
710.176	3158.82
710.364	3167.01
710.551	3144.49
710.739	3179.3
710.927	3232.55
711.115	3130.15
711.303	3189.54
711.491	3267.36
711.679	3226.4
711.866	3142.44
712.054	3216.16
712.242	3124.01
712.43	3218.21
712.617	3156.77
712.805	3070.76
712.993	3085.09
713.181	3169.06
713.368	3175.2
713.556	3099.43
713.744	3275.56
713.931	3300.13
714.119	3230.5
714.306	3095.33
714.494	3216.16
714.682	3044.13
714.869	3164.97
715.057	3222.31
715.244	3126.05
715.432	3197.73
715.619	3156.77
715.807	3115.81
715.994	3162.92
716.182	3035.94
716.369	3029.8
716.556	3179.3
716.744	2970.41
716.931	3046.18
717.119	3093.29
717.306	3058.47
717.493	2943.78
717.681	3119.91
717.868	3158.82
718.055	2988.84
718.242	3081
718.43	3121.96
718.617	3216.16
718.804	3013.42
718.991	3091.24
719.179	3158.82
719.366	3126.05
719.553	3134.25
719.74	3031.85
719.927	3040.04
720.114	3044.13
720.301	3019.56
720.488	2954.02
720.676	3111.72
720.863	3058.47
721.05	3117.86
721.237	2992.94
721.424	2939.69
721.611	3060.52
721.798	2980.65
721.985	3017.51
722.172	2921.26
722.358	2976.55
722.545	3042.09
722.732	2978.6
722.919	3037.99
723.106	2958.12
723.293	2882.35
723.48	2865.96
723.667	2845.48
723.853	2915.11
724.04	2908.97
724.227	2978.6
724.414	2939.69
724.6	2904.87
724.787	2911.02
724.974	2896.68
725.161	2882.35
725.347	2874.15
725.534	2804.52
725.72	3021.61
725.907	2956.07
726.094	2812.71
726.28	2921.26
726.467	2822.95
726.653	2827.05
726.84	2825
727.027	2929.45
727.213	2818.86
727.4	2741.04
727.586	2915.11
727.773	2847.53
727.959	2876.2
728.145	2908.97
728.332	2825
728.518	2911.02
728.705	2825
728.891	2806.57
729.077	2730.8
729.264	2865.96
729.45	2685.74
729.636	2784.04
729.823	2790.19
730.009	2802.47
730.195	2763.56
730.382	2702.12
730.568	2769.71
730.754	2755.37
730.94	2837.29
731.126	2853.67
731.313	2773.8
731.499	2792.23
731.685	2675.5
731.871	2734.89
732.057	2796.33
732.243	2620.21
732.429	2878.25
732.615	2732.84
732.801	2753.32
732.987	2648.88
733.173	2693.93
733.359	2612.01
733.545	2700.08
733.731	2718.51
733.917	2710.32
734.103	2667.31
734.289	2702.12
734.475	2585.39
734.661	2655.02
734.847	2632.49
735.033	2646.83
735.219	2612.01
735.404	2523.95
735.59	2659.12
735.776	2607.92
735.962	2695.98
736.148	2720.56
736.333	2503.47
736.519	2575.15
736.705	2640.69
736.89	2478.9
737.076	2571.05
737.262	2571.05
737.447	2583.34
737.633	2562.86
737.819	2495.28
738.004	2546.48
738.19	2558.77
738.375	2538.29
738.561	2454.32
738.747	2485.04
738.932	2384.69
739.118	2663.21
739.303	2517.81
739.489	2423.6
739.674	2345.78
739.859	2528.05
740.045	2466.61
740.23	2523.95
740.416	2374.45
740.601	2302.77
740.786	2378.55
740.972	2347.83
741.157	2329.39
741.342	2317.11
741.528	2341.68
741.713	2452.27
741.898	2376.5
742.084	2353.97
742.269	2337.59
742.454	2292.53
742.639	2317.11
742.824	2331.44
743.01	2347.83
743.195	2290.48
743.38	2233.14
743.565	2288.43
743.75	2284.34
743.935	2396.98
744.12	2210.61
744.305	2077.49
744.49	2233.14
744.675	2136.88
744.86	2210.61
745.045	2075.45
745.23	2169.65
745.415	2186.04
745.6	2087.73
745.785	2140.98
745.97	2087.73
746.155	2155.32
746.34	1995.57
746.525	2175.8
746.71	2200.37
746.895	2061.11
747.079	2083.64
747.264	1997.62
747.449	2149.17
747.634	2075.45
747.819	1983.29
748.003	2038.58
748.188	1993.53
748.373	2016.05
748.557	1960.76
748.742	1854.27
748.927	1964.86
749.111	1952.57
749.296	1825.59
749.481	1866.55
749.665	1870.65
749.85	1891.13
750.034	1788.73
750.219	1766.2
750.404	1776.44
750.588	1895.22
750.773	1581.89
750.957	1743.67
751.141	1782.59
751.326	1848.12
751.51	1784.63
751.695	1739.58
751.879	1669.95
752.064	1805.11
752.248	1620.8
752.432	1823.55
752.617	1585.98
752.801	1694.52
752.985	1624.89
753.17	1655.61
753.354	1600.32
753.538	1657.66
753.722	1540.93
753.907	1663.8
754.091	1651.52
754.275	1596.22
754.459	1612.6
754.643	1456.96
754.828	1499.97
755.012	1483.58
755.196	1473.34
755.38	1424.19
755.564	1588.03
755.748	1506.11
755.932	1409.86
756.116	1450.82
756.3	1471.29
756.484	1434.43
756.668	1411.9
756.852	1362.75
757.036	1338.18
757.22	1473.34
757.404	1372.99
757.588	1305.41
757.772	1338.18
757.956	1420.1
758.14	1256.26
758.323	1350.46
758.507	1342.27
758.691	1252.16
758.875	1360.7
759.059	1286.98
759.242	1268.55
759.426	1151.81
759.61	1229.63
759.794	1223.49
759.977	1323.84
760.161	1385.28
760.345	1215.3
760.528	1227.59
760.712	1295.17
760.895	1241.92
761.079	1157.96
761.263	1248.07
761.446	1188.68
761.63	1080.13
761.813	1258.31
761.997	1239.87
762.18	1153.86
762.364	1250.11
762.547	1246.02
762.731	1073.99
762.914	1217.35
763.098	1141.57
763.281	1108.8
763.464	1094.47
763.648	1117
763.831	1065.8
764.015	1090.37
764.198	996.17
764.381	1102.66
764.564	1137.48
764.748	1057.61
764.931	1168.2
765.114	1108.8
765.297	1039.17
765.481	1006.41
765.664	1053.51
765.847	1080.13
766.03	1004.36
766.213	1129.28
766.397	1104.71
766.58	1071.94
766.763	1149.76
766.946	1018.69
767.129	1063.75
767.312	973.64
767.495	1047.37
767.678	951.11
767.861	1037.13
768.044	1024.84
768.227	1018.69
768.41	1047.37
768.593	959.3
768.776	1061.7
768.959	971.59
769.142	973.64
769.324	947.01
769.507	928.58
769.69	1026.89
769.873	938.82
770.056	981.83
770.239	910.15
770.421	1112.9
770.604	912.2
770.787	953.16
770.97	940.87
771.152	918.34
771.335	998.21
771.518	828.23
771.7	947.01
771.883	969.54
772.066	887.62
772.248	920.39
772.431	979.78
772.613	975.69
772.796	918.34
772.978	836.42
773.161	867.14
773.343	965.45
773.526	799.56
773.708	820.04
773.891	797.51
774.073	789.32
774.256	834.38
774.438	861
774.621	799.56
774.803	813.9
774.985	817.99
775.168	770.89
775.35	809.8
775.532	817.99
775.715	817.99
775.897	789.32
776.079	752.46
776.261	736.07
776.444	723.79
776.626	768.84
776.808	758.6
776.99	742.22
777.173	709.45
777.355	766.79
777.537	752.46
777.719	738.12
777.901	744.27
778.083	721.74
778.265	705.35
778.447	744.27
778.629	652.11
778.811	619.34
778.993	738.12
779.175	695.11
779.357	744.27
779.539	557.9
779.721	662.35
779.903	656.2
780.085	699.21
780.267	609.1
780.449	590.67
780.631	670.54
780.812	592.72
780.994	598.86
781.176	660.3
781.358	594.76
781.54	535.37
781.721	596.81
781.903	643.92
782.085	623.44
782.267	529.23
782.448	537.42
782.63	598.86
782.812	584.52
782.993	527.18
783.175	578.38
783.357	570.19
783.538	637.77
783.72	590.67
783.901	557.9
784.083	500.56
784.264	482.13
784.446	613.2
784.627	535.37
784.809	551.76
784.99	490.32
785.172	537.42
785.353	541.52
785.535	510.8
785.716	461.65
785.897	496.46
786.079	562
786.26	500.56
786.441	437.07
786.623	473.93
786.804	416.59
786.985	426.83
787.167	494.41
787.348	406.35
787.529	441.17
787.71	469.84
787.891	465.74
788.073	394.06
788.254	488.27
788.435	486.22
788.616	432.97
788.797	367.44
788.978	457.55
789.159	453.45
789.34	416.59
789.522	353.1
789.703	414.54
789.884	463.69
790.065	408.4
790.246	453.45
790.427	447.31
790.607	371.54
790.788	398.16
790.969	310.1
791.15	449.36
791.331	346.96
791.512	420.69
791.693	389.97
791.874	465.74
792.054	398.16
792.235	396.11
792.416	406.35
792.597	412.5
792.778	428.88
792.958	402.26
793.139	443.21
793.32	392.02
793.5	330.58
793.681	400.21
793.862	396.11
794.042	293.71
794.223	326.48
794.404	318.29
794.584	330.58
794.765	260.95
794.945	320.34
795.126	412.5
795.306	365.39
795.487	432.97
795.667	318.29
795.848	318.29
796.028	301.9
796.209	330.58
796.389	336.72
796.57	265.04
796.75	283.47
796.93	301.9
797.111	252.75
797.291	353.1
797.471	293.71
797.652	201.55
797.832	312.14
798.012	334.67
798.192	265.04
798.373	222.03
798.553	287.57
798.733	256.85
798.913	244.56
799.093	260.95
799.274	207.7
799.454	318.29
799.634	363.34
799.814	316.24
799.994	287.57
800.174	297.81
800.354	248.66
800.534	228.18
800.714	248.66
800.894	279.38
801.074	273.23
801.254	271.19
801.434	285.52
801.614	224.08
801.794	273.23
801.974	791.37
802.154	207.7
802.334	320.34
802.514	299.86
802.693	306
802.873	224.08
803.053	248.66
803.233	189.27
803.413	242.51
803.592	207.7
803.772	246.61
803.952	246.61
804.131	201.55
804.311	133.97
804.491	367.44
804.67	191.31
804.85	240.47
805.03	199.51
805.209	160.59
805.389	238.42
805.568	285.52
805.748	215.89
805.928	148.31
806.107	271.19
806.287	267.09
806.466	230.23
806.646	258.9
806.825	254.8
807.004	269.14
807.184	236.37
807.363	285.52
807.543	201.55
807.722	172.88
807.901	217.94
808.081	219.99
808.26	136.02
808.439	174.93
808.619	232.27
808.798	179.03
808.977	230.23
809.156	234.32
809.336	183.12
809.515	164.69
809.694	197.46
809.873	168.79
810.052	211.79
810.231	205.65
810.411	195.41
810.59	230.23
810.769	158.55
810.948	193.36
811.127	195.41
811.306	146.26
811.485	209.75
811.664	209.75
811.843	117.59
812.022	199.51
812.201	129.88
812.38	109.4
812.559	166.74
812.737	131.92
812.916	191.31
813.095	140.12
813.274	105.3
813.453	187.22
813.632	252.75
813.811	215.89
813.989	179.03
814.168	179.03
814.347	158.55
814.526	189.27
814.704	238.42
814.883	179.03
815.062	172.88
815.24	166.74
815.419	152.4
815.598	176.98
815.776	109.4
815.955	164.69
816.133	133.97
816.312	236.37
816.49	140.12
816.669	150.36
816.847	113.49
817.026	185.17
817.204	113.49
817.383	187.22
817.561	70.48
817.74	131.92
817.918	166.74
818.097	111.44
818.275	105.3
818.453	238.42
818.632	109.4
818.81	148.31
818.988	119.64
819.167	179.03
819.345	160.59
819.523	129.88
819.701	162.64
819.879	90.96
820.058	191.31
820.236	27.48
820.414	133.97
820.592	74.58
820.77	70.48
820.948	86.87
821.127	131.92
821.305	193.36
821.483	117.59
821.661	113.49
821.839	99.16
822.017	179.03
822.195	146.26
822.373	136.02
822.551	148.31
822.729	70.48
822.907	127.83
823.085	131.92
823.262	76.63
823.44	105.3
823.618	136.02
823.796	76.63
823.974	86.87
824.152	146.26
824.329	119.64
824.507	72.53
824.685	170.83
824.863	78.68
825.04	64.34
825.218	181.07
825.396	170.83
825.574	86.87
825.751	105.3
825.929	107.35
826.107	84.82
826.284	131.92
826.462	121.68
826.639	56.15
826.817	17.24
826.994	80.72
827.172	113.49
827.349	117.59
827.527	125.78
827.704	86.87
827.882	152.4
828.059	125.78
828.237	138.07
828.414	74.58
828.591	47.96
828.769	95.06
828.946	97.11
829.124	80.72
829.301	121.68
829.478	72.53
829.655	121.68
829.833	90.96
830.01	35.67
830.187	97.11
830.364	107.35
830.542	93.01
830.719	142.16
830.896	136.02
831.073	121.68
831.25	45.91
831.427	144.21
831.604	78.68
831.782	119.64
831.959	127.83
832.136	70.48
832.313	52.05
832.49	80.72
832.667	123.73
832.844	72.53
833.021	90.96
833.198	66.39
833.374	88.92
833.551	125.78
833.728	62.29
833.905	90.96
834.082	68.44
834.259	84.82
834.436	138.07
834.612	93.01
834.789	37.72
834.966	37.72
835.143	117.59
835.319	-31.91
835.496	127.83
835.673	52.05
835.85	60.24
836.026	64.34
836.203	15.19
836.38	58.2
836.556	45.91
836.733	58.2
836.909	41.81
837.086	101.2
837.262	84.82
837.439	33.62
837.616	52.05
837.792	140.12
837.968	31.57
838.145	50
838.321	-9.39
838.498	50
838.674	144.21
838.851	45.91
839.027	113.49
839.203	133.97
839.38	72.53
839.556	62.29
839.732	97.11
839.909	86.87
840.085	148.31
840.261	29.52
840.437	82.77
840.614	68.44
840.79	97.11
840.966	66.39
841.142	109.4
841.318	64.34
841.494	86.87
841.671	37.72
841.847	4.95
842.023	29.52
842.199	-5.29
842.375	39.76
842.551	-15.53
842.727	19.29
842.903	119.64
843.079	74.58
843.255	31.57
843.431	95.06
843.607	113.49
843.783	50
843.959	119.64
844.134	17.24
844.31	107.35
844.486	50
844.662	54.1
844.838	97.11
845.013	52.05
845.189	17.24
845.365	15.19
845.541	66.39
845.716	-52.39
845.892	-3.24
846.068	47.96
846.244	-5.29
846.419	2.9
846.595	54.1
846.77	15.19
846.946	78.68
847.122	76.63
847.297	-23.72
847.473	138.07
847.648	109.4
847.824	-5.29
847.999	27.48
848.175	35.67
848.35	90.96
848.526	43.86
848.701	117.59
848.876	58.2
849.052	121.68
849.227	45.91
849.403	45.91
849.578	29.52
849.753	56.15
849.929	35.67
850.104	4.95
850.279	23.38
850.454	74.58
850.63	19.29
850.805	103.25
850.98	37.72
851.155	-15.53
851.33	43.86
851.505	-17.58
851.681	119.64
851.856	70.48
852.031	39.76
852.206	103.25
852.381	-3.24
852.556	39.76
852.731	101.2
852.906	17.24
853.081	-17.58
853.256	60.24
853.431	78.68
853.606	39.76
853.781	-27.82
853.956	-44.2
854.131	31.57
854.305	15.19
854.48	23.38
854.655	-9.39
854.83	-31.91
855.005	25.43
855.18	13.14
855.354	17.24
855.529	27.48
855.704	76.63
855.879	90.96
856.053	-1.19
856.228	43.86
856.403	50
856.577	43.86
856.752	50
856.926	4.95
857.101	54.1
857.276	21.33
857.45	88.92
857.625	97.11
857.799	72.53
857.974	47.96
858.148	-56.49
858.323	37.72
858.497	15.19
858.672	21.33
858.846	4.95
859.02	80.72
859.195	-29.87
859.369	-11.43
859.543	21.33
859.718	23.38
859.892	7
860.066	0.85
860.241	60.24
860.415	76.63
860.589	2.9
860.763	-76.97
860.938	47.96
861.112	-42.15
861.286	56.15
861.46	17.24
861.634	19.29
861.808	19.29
861.982	43.86
862.157	-29.87
862.331	-17.58
862.505	-19.63
862.679	23.38
862.853	21.33
863.027	-58.54
863.201	31.57
863.375	-27.82
863.549	-23.72
863.722	80.72
863.896	15.19
864.07	-21.67
864.244	-38.06
864.418	4.95
864.592	113.49
864.766	9.05
864.939	-21.67
865.113	31.57
865.287	33.62
865.461	25.43
865.634	-36.01
865.808	-5.29
865.982	2.9
866.156	37.72
866.329	-23.72
866.503	52.05
866.676	27.48
866.85	23.38
867.024	-1.19
867.197	27.48
867.371	-5.29
867.544	37.72
867.718	-1.19
867.891	64.34
868.065	-3.24
868.238	7
868.412	37.72
868.585	19.29
868.759	27.48
868.932	35.67
869.105	0.85
869.279	27.48
869.452	-44.2
869.625	62.29
869.799	-46.25
869.972	4.95
870.145	50
870.319	15.19
870.492	7
870.665	-87.21
870.838	-5.29
871.011	-1.19
871.185	15.19
871.358	43.86
871.531	15.19
871.704	-50.35
871.877	-21.67
872.05	17.24
872.223	0.85
872.396	60.24
872.569	27.48
872.742	27.48
872.915	84.82
873.088	17.24
873.261	-7.34
873.434	11.09
873.607	15.19
873.78	52.05
873.953	25.43
874.126	4.95
874.299	-40.11
874.471	-29.87
874.644	-9.39
874.817	-3.24
874.99	62.29
875.163	-17.58
875.335	47.96
875.508	-21.67
875.681	88.92
875.853	9.05
876.026	35.67
876.199	60.24
876.371	-29.87
876.544	52.05
876.717	-3.24
876.889	19.29
877.062	-27.82
877.234	58.2
877.407	7
877.579	-58.54
877.752	50
877.924	70.48
878.097	7
878.269	-15.53
878.442	43.86
878.614	80.72
878.786	41.81
878.959	72.53
879.131	15.19
879.303	-9.39
879.476	23.38
879.648	88.92
879.82	-3.24
879.993	-1.19
880.165	47.96
880.337	-33.96
880.509	29.52
880.681	-3.24
880.854	15.19
881.026	52.05
881.198	121.68
881.37	7
881.542	-3.24
881.714	-31.91
881.886	-36.01
882.058	-19.63
882.23	-5.29
882.402	82.77
882.574	15.19
882.746	15.19
882.918	37.72
883.09	-33.96
883.262	-58.54
883.434	7
883.606	54.1
883.778	-42.15
883.95	58.2
884.122	58.2
884.293	-33.96
884.465	25.43
884.637	78.68
884.809	-5.29
884.98	50
885.152	29.52
885.324	70.48
885.496	-25.77
885.667	15.19
885.839	35.67
886.011	-40.11
886.182	13.14
886.354	7
886.525	-21.67
886.697	54.1
886.869	-58.54
887.04	-105.64
887.212	2.9
887.383	45.91
887.555	-3.24
887.726	13.14
887.897	-50.35
888.069	27.48
888.24	-5.29
888.412	-62.63
888.583	2.9
888.754	-19.63
888.926	-15.53
889.097	-15.53
889.268	-7.34
889.44	107.35
889.611	-25.77
889.782	-21.67
889.953	-15.53
890.125	-19.63
890.296	-17.58
890.467	-29.87
890.638	97.11
890.809	-27.82
890.98	-33.96
891.151	56.15
891.323	-38.06
891.494	2.9
891.665	7
891.836	27.48
892.007	15.19
892.178	-1.19
892.349	11.09
892.52	25.43
892.691	-7.34
892.862	13.14
893.032	-115.88
893.203	-33.96
893.374	-11.43
893.545	54.1
893.716	43.86
893.887	15.19
894.057	-5.29
894.228	11.09
894.399	23.38
894.57	23.38
894.74	-58.54
894.911	-68.78
895.082	-29.87
895.253	19.29
895.423	-9.39
895.594	97.11
895.764	31.57
895.935	29.52
896.106	45.91
896.276	2.9
896.447	-38.06
896.617	-54.44
896.788	-1.19
896.958	-7.34
897.129	47.96
897.299	-50.35
897.47	-11.43
897.64	56.15
897.81	23.38
897.981	25.43
898.151	-17.58
898.322	15.19
898.492	86.87
898.662	-27.82
898.832	13.14
899.003	-52.39
899.173	13.14
899.343	-31.91
899.513	-9.39
