Data from USB4F104151__226__10-30-13-831.txt Node

Date: Wed Mar 12 10:30:13 EDT 2025
User: louis
Spectrometer: USB4F10415
Trigger mode: 4
Integration Time (sec): 3.000000E-2
Scans to average: 1
Electric dark correction enabled: true
Nonlinearity correction enabled: false
Boxcar width: 0
XAxis mode: Wavelengths
Number of Pixels in Spectrum: 3648
>>>>>Begin Spectral Data<<<<<
178.204	-114
178.424	-114
178.644	-114
178.864	-75.09
179.084	-126.29
179.304	-13.65
179.524	-66.9
179.744	39.59
179.964	43.69
180.184	12.97
180.404	12.97
180.624	29.35
180.844	43.69
181.064	-36.18
181.283	-17.75
181.503	-17.75
181.723	-30.04
181.943	60.07
182.163	88.75
182.383	41.64
182.602	64.17
182.822	35.5
183.042	74.41
183.262	-46.42
183.482	27.31
183.701	86.7
183.921	68.27
184.141	-68.95
184.361	8.87
184.58	37.55
184.8	-17.75
185.02	-7.51
185.239	47.79
185.459	43.69
185.679	53.93
185.898	-56.66
186.118	80.55
186.338	-68.95
186.557	90.79
186.777	35.5
186.997	39.59
187.216	2.73
187.436	21.16
187.655	47.79
187.875	62.12
188.095	-9.56
188.314	82.6
188.534	86.7
188.753	-30.04
188.973	4.78
189.192	139.94
189.412	-32.08
189.631	17.07
189.851	-3.41
190.07	55.98
190.29	-15.7
190.509	82.6
190.729	45.74
190.948	111.27
191.168	193.19
191.387	6.83
191.607	6.83
191.826	12.97
192.045	25.26
192.265	12.97
192.484	70.31
192.704	64.17
192.923	-1.37
193.142	117.42
193.362	29.35
193.581	31.4
193.8	4.78
194.02	60.07
194.239	19.11
194.458	-11.61
194.678	17.07
194.897	-1.37
195.116	23.21
195.335	39.59
195.555	10.92
195.774	-1.37
195.993	-11.61
196.212	39.59
196.432	17.07
196.651	-7.51
196.87	70.31
197.089	78.51
197.308	117.42
197.528	60.07
197.747	10.92
197.966	92.84
198.185	4.78
198.404	41.64
198.623	2.73
198.842	72.36
199.062	47.79
199.281	45.74
199.5	27.31
199.719	51.88
199.938	4.78
200.157	15.02
200.376	64.17
200.595	45.74
200.814	37.55
201.033	0.68
201.252	45.74
201.471	39.59
201.69	6.83
201.909	37.55
202.128	66.22
202.347	82.6
202.566	-1.37
202.785	33.45
203.004	-58.71
203.223	88.75
203.442	43.69
203.661	27.31
203.879	0.68
204.098	72.36
204.317	-60.76
204.536	88.75
204.755	86.7
204.974	47.79
205.193	-38.23
205.411	92.84
205.63	31.4
205.849	86.7
206.068	125.61
206.287	-30.04
206.505	43.69
206.724	162.47
206.943	23.21
207.162	12.97
207.381	29.35
207.599	55.98
207.818	64.17
208.037	-19.8
208.255	-1.37
208.474	53.93
208.693	23.21
208.911	39.59
209.13	41.64
209.349	-77.14
209.567	12.97
209.786	25.26
210.005	80.55
210.223	31.4
210.442	-54.61
210.661	47.79
210.879	62.12
211.098	64.17
211.316	-42.32
211.535	35.5
211.753	23.21
211.972	90.79
212.191	37.55
212.409	-25.94
212.628	68.27
212.846	21.16
213.065	105.13
213.283	55.98
213.502	29.35
213.72	-5.46
213.938	41.64
214.157	21.16
214.375	68.27
214.594	37.55
214.812	94.89
215.031	58.03
215.249	15.02
215.467	29.35
215.686	19.11
215.904	74.41
216.122	2.73
216.341	41.64
216.559	47.79
216.778	90.79
216.996	53.93
217.214	58.03
217.432	10.92
217.651	-21.85
217.869	25.26
218.087	139.94
218.306	-38.23
218.524	49.83
218.742	-23.89
218.96	113.32
219.179	31.4
219.397	88.75
219.615	21.16
219.833	19.11
220.051	62.12
220.27	98.99
220.488	68.27
220.706	25.26
220.924	-50.52
221.142	64.17
221.36	64.17
221.578	105.13
221.796	49.83
222.015	68.27
222.233	39.59
222.451	113.32
222.669	88.75
222.887	51.88
223.105	-30.04
223.323	92.84
223.541	33.45
223.759	17.07
223.977	-13.65
224.195	37.55
224.413	31.4
224.631	109.22
224.849	53.93
225.067	60.07
225.285	2.73
225.503	17.07
225.721	-36.18
225.939	45.74
226.157	29.35
226.375	72.36
226.592	15.02
226.81	-11.61
227.028	27.31
227.246	78.51
227.464	92.84
227.682	60.07
227.9	68.27
228.117	29.35
228.335	29.35
228.553	125.61
228.771	92.84
228.989	68.27
229.206	37.55
229.424	-25.94
229.642	27.31
229.86	31.4
230.077	51.88
230.295	-19.8
230.513	86.7
230.731	37.55
230.948	41.64
231.166	78.51
231.384	-11.61
231.601	45.74
231.819	86.7
232.037	-71
232.254	-23.89
232.472	60.07
232.689	19.11
232.907	53.93
233.125	25.26
233.342	45.74
233.56	-48.47
233.777	-17.75
233.995	43.69
234.213	51.88
234.43	-1.37
234.648	76.46
234.865	33.45
235.083	62.12
235.3	72.36
235.518	27.31
235.735	82.6
235.953	84.65
236.17	10.92
236.388	70.31
236.605	-25.94
236.822	39.59
237.04	23.21
237.257	29.35
237.475	80.55
237.692	31.4
237.909	86.7
238.127	43.69
238.344	39.59
238.562	98.99
238.779	-36.18
238.996	96.94
239.214	45.74
239.431	90.79
239.648	64.17
239.865	74.41
240.083	68.27
240.3	88.75
240.517	55.98
240.735	-19.8
240.952	51.88
241.169	96.94
241.386	27.31
241.603	19.11
241.821	21.16
242.038	27.31
242.255	70.31
242.472	-48.47
242.689	51.88
242.907	92.84
243.124	29.35
243.341	60.07
243.558	23.21
243.775	35.5
243.992	15.02
244.209	90.79
244.426	96.94
244.643	68.27
244.86	-11.61
245.078	2.73
245.295	31.4
245.512	92.84
245.729	119.46
245.946	68.27
246.163	12.97
246.38	78.51
246.597	43.69
246.814	80.55
247.031	51.88
247.248	-34.13
247.464	105.13
247.681	78.51
247.898	60.07
248.115	39.59
248.332	0.68
248.549	68.27
248.766	78.51
248.983	27.31
249.2	78.51
249.417	88.75
249.633	70.31
249.85	109.22
250.067	92.84
250.284	121.51
250.501	129.7
250.717	39.59
250.934	43.69
251.151	47.79
251.368	47.79
251.585	135.85
251.801	27.31
252.018	8.87
252.235	23.21
252.451	60.07
252.668	45.74
252.885	94.89
253.102	55.98
253.318	86.7
253.535	15.02
253.752	72.36
253.968	6.83
254.185	12.97
254.401	33.45
254.618	-21.85
254.835	109.22
255.051	182.95
255.268	135.85
255.484	70.31
255.701	31.4
255.917	90.79
256.134	17.07
256.351	10.92
256.567	-21.85
256.784	70.31
257	29.35
257.217	88.75
257.433	74.41
257.65	35.5
257.866	117.42
258.082	31.4
258.299	27.31
258.515	0.68
258.732	12.97
258.948	25.26
259.165	72.36
259.381	-17.75
259.597	78.51
259.814	15.02
260.03	47.79
260.246	58.03
260.463	64.17
260.679	105.13
260.895	105.13
261.112	10.92
261.328	33.45
261.544	-40.28
261.761	105.13
261.977	10.92
262.193	72.36
262.409	4.78
262.626	103.08
262.842	80.55
263.058	25.26
263.274	96.94
263.49	27.31
263.707	111.27
263.923	80.55
264.139	45.74
264.355	-19.8
264.571	53.93
264.787	68.27
265.004	64.17
265.22	15.02
265.436	15.02
265.652	4.78
265.868	0.68
266.084	-38.23
266.3	45.74
266.516	27.31
266.732	39.59
266.948	27.31
267.164	68.27
267.38	19.11
267.596	127.66
267.812	72.36
268.028	55.98
268.244	43.69
268.46	111.27
268.676	96.94
268.892	45.74
269.108	-36.18
269.324	66.22
269.54	-19.8
269.756	12.97
269.972	23.21
270.188	33.45
270.403	19.11
270.619	45.74
270.835	-52.56
271.051	31.4
271.267	23.21
271.483	39.59
271.698	55.98
271.914	125.61
272.13	47.79
272.346	68.27
272.562	-30.04
272.777	33.45
272.993	27.31
273.209	21.16
273.425	43.69
273.64	68.27
273.856	60.07
274.072	-9.56
274.287	12.97
274.503	82.6
274.719	43.69
274.934	27.31
275.15	-42.32
275.366	76.46
275.581	23.21
275.797	2.73
276.012	72.36
276.228	53.93
276.444	60.07
276.659	88.75
276.875	25.26
277.09	84.65
277.306	64.17
277.521	-3.41
277.737	39.59
277.952	74.41
278.168	80.55
278.383	55.98
278.599	96.94
278.814	55.98
279.03	29.35
279.245	125.61
279.461	78.51
279.676	62.12
279.892	10.92
280.107	-1.37
280.322	51.88
280.538	-19.8
280.753	64.17
280.969	19.11
281.184	53.93
281.399	88.75
281.615	27.31
281.83	68.27
282.045	35.5
282.26	43.69
282.476	15.02
282.691	-1.37
282.906	43.69
283.122	21.16
283.337	19.11
283.552	168.62
283.767	10.92
283.983	8.87
284.198	72.36
284.413	23.21
284.628	-3.41
284.843	-7.51
285.058	-5.46
285.274	31.4
285.489	23.21
285.704	84.65
285.919	-11.61
286.134	25.26
286.349	-13.65
286.564	0.68
286.779	121.51
286.995	-7.51
287.21	0.68
287.425	-44.37
287.64	27.31
287.855	60.07
288.07	45.74
288.285	43.69
288.5	45.74
288.715	86.7
288.93	15.02
289.145	31.4
289.36	21.16
289.575	70.31
289.79	101.03
290.004	55.98
290.219	8.87
290.434	53.93
290.649	15.02
290.864	-9.56
291.079	53.93
291.294	66.22
291.509	35.5
291.724	-15.7
291.938	72.36
292.153	92.84
292.368	49.83
292.583	80.55
292.798	15.02
293.012	117.42
293.227	4.78
293.442	66.22
293.657	84.65
293.871	96.94
294.086	55.98
294.301	133.8
294.516	21.16
294.73	-11.61
294.945	-42.32
295.16	88.75
295.374	35.5
295.589	70.31
295.804	-23.89
296.018	86.7
296.233	53.93
296.447	70.31
296.662	23.21
296.877	154.28
297.091	68.27
297.306	41.64
297.52	17.07
297.735	96.94
297.949	105.13
298.164	64.17
298.378	43.69
298.593	25.26
298.807	60.07
299.022	141.99
299.236	78.51
299.451	10.92
299.665	8.87
299.88	109.22
300.094	33.45
300.309	27.31
300.523	31.4
300.737	45.74
300.952	53.93
301.166	27.31
301.381	62.12
301.595	76.46
301.809	60.07
302.024	62.12
302.238	86.7
302.452	49.83
302.667	43.69
302.881	66.22
303.095	68.27
303.309	19.11
303.524	17.07
303.738	82.6
303.952	23.21
304.166	47.79
304.381	45.74
304.595	123.56
304.809	72.36
305.023	80.55
305.237	111.27
305.452	68.27
305.666	51.88
305.88	31.4
306.094	105.13
306.308	60.07
306.522	58.03
306.736	76.46
306.95	58.03
307.164	31.4
307.379	25.26
307.593	43.69
307.807	72.36
308.021	51.88
308.235	70.31
308.449	6.83
308.663	-9.56
308.877	70.31
309.091	92.84
309.305	0.68
309.519	23.21
309.733	121.51
309.947	39.59
310.161	12.97
310.374	45.74
310.588	76.46
310.802	19.11
311.016	55.98
311.23	31.4
311.444	84.65
311.658	68.27
311.872	96.94
312.085	35.5
312.299	19.11
312.513	64.17
312.727	49.83
312.941	70.31
313.154	55.98
313.368	39.59
313.582	19.11
313.796	90.79
314.009	39.59
314.223	113.32
314.437	-21.85
314.651	39.59
314.864	80.55
315.078	-27.99
315.292	21.16
315.505	-1.37
315.719	92.84
315.933	-21.85
316.146	17.07
316.36	4.78
316.573	137.9
316.787	51.88
317.001	-3.41
317.214	45.74
317.428	64.17
317.641	12.97
317.855	-21.85
318.068	105.13
318.282	90.79
318.495	33.45
318.709	109.22
318.922	-3.41
319.136	86.7
319.349	76.46
319.563	45.74
319.776	23.21
319.99	60.07
320.203	96.94
320.417	23.21
320.63	72.36
320.843	60.07
321.057	113.32
321.27	88.75
321.483	47.79
321.697	78.51
321.91	127.66
322.124	82.6
322.337	21.16
322.55	80.55
322.763	2.73
322.977	-15.7
323.19	35.5
323.403	4.78
323.617	86.7
323.83	72.36
324.043	43.69
324.256	10.92
324.469	-46.42
324.683	47.79
324.896	-13.65
325.109	45.74
325.322	29.35
325.535	45.74
325.748	58.03
325.962	62.12
326.175	27.31
326.388	10.92
326.601	101.03
326.814	-15.7
327.027	92.84
327.24	-3.41
327.453	-1.37
327.666	68.27
327.879	92.84
328.092	45.74
328.305	-3.41
328.518	76.46
328.731	0.68
328.944	43.69
329.157	76.46
329.37	62.12
329.583	27.31
329.796	111.27
330.009	23.21
330.222	90.79
330.435	72.36
330.648	37.55
330.861	15.02
331.073	39.59
331.286	70.31
331.499	39.59
331.712	12.97
331.925	78.51
332.138	47.79
332.35	74.41
332.563	43.69
332.776	115.37
332.989	154.28
333.202	55.98
333.414	78.51
333.627	10.92
333.84	86.7
334.053	72.36
334.265	68.27
334.478	47.79
334.691	58.03
334.903	76.46
335.116	47.79
335.329	43.69
335.541	-42.32
335.754	43.69
335.966	-27.99
336.179	23.21
336.392	23.21
336.604	-15.7
336.817	6.83
337.029	74.41
337.242	58.03
337.454	94.89
337.667	68.27
337.88	33.45
338.092	33.45
338.305	47.79
338.517	51.88
338.729	86.7
338.942	80.55
339.154	64.17
339.367	31.4
339.579	82.6
339.792	33.45
340.004	135.85
340.217	6.83
340.429	31.4
340.641	39.59
340.854	19.11
341.066	-32.08
341.278	150.18
341.491	148.14
341.703	49.83
341.915	39.59
342.128	152.23
342.34	45.74
342.552	53.93
342.764	80.55
342.977	43.69
343.189	96.94
343.401	47.79
343.613	45.74
343.826	43.69
344.038	31.4
344.25	51.88
344.462	-79.19
344.674	72.36
344.886	47.79
345.099	-19.8
345.311	45.74
345.523	101.03
345.735	8.87
345.947	-21.85
346.159	-38.23
346.371	64.17
346.583	-15.7
346.795	82.6
347.007	39.59
347.219	19.11
347.431	33.45
347.643	6.83
347.855	29.35
348.067	127.66
348.279	-27.99
348.491	68.27
348.703	98.99
348.915	15.02
349.127	29.35
349.339	60.07
349.551	66.22
349.763	98.99
349.975	55.98
350.187	-3.41
350.399	10.92
350.61	47.79
350.822	27.31
351.034	98.99
351.246	23.21
351.458	68.27
351.669	64.17
351.881	-27.99
352.093	49.83
352.305	96.94
352.517	96.94
352.728	60.07
352.94	35.5
353.152	76.46
353.363	12.97
353.575	92.84
353.787	117.42
353.999	121.51
354.21	90.79
354.422	35.5
354.633	64.17
354.845	72.36
355.057	55.98
355.268	53.93
355.48	64.17
355.692	64.17
355.903	-1.37
356.115	47.79
356.326	8.87
356.538	111.27
356.749	62.12
356.961	115.37
357.172	33.45
357.384	-5.46
357.595	168.62
357.807	68.27
358.018	115.37
358.23	29.35
358.441	139.94
358.653	72.36
358.864	76.46
359.075	29.35
359.287	35.5
359.498	35.5
359.709	47.79
359.921	33.45
360.132	74.41
360.344	12.97
360.555	90.79
360.766	55.98
360.977	39.59
361.189	58.03
361.4	37.55
361.611	72.36
361.823	86.7
362.034	27.31
362.245	72.36
362.456	-5.46
362.667	78.51
362.879	-9.56
363.09	23.21
363.301	117.42
363.512	45.74
363.723	55.98
363.935	53.93
364.146	90.79
364.357	68.27
364.568	49.83
364.779	49.83
364.99	51.88
365.201	68.27
365.412	90.79
365.623	-5.46
365.834	70.31
366.045	72.36
366.256	111.27
366.467	129.7
366.678	62.12
366.889	72.36
367.1	55.98
367.311	88.75
367.522	23.21
367.733	139.94
367.944	96.94
368.155	76.46
368.366	72.36
368.577	64.17
368.788	105.13
368.999	-27.99
369.209	107.18
369.42	133.8
369.631	148.14
369.842	-3.41
370.053	60.07
370.264	119.46
370.474	39.59
370.685	74.41
370.896	55.98
371.107	98.99
371.317	105.13
371.528	41.64
371.739	47.79
371.95	47.79
372.16	101.03
372.371	58.03
372.582	96.94
372.792	62.12
373.003	58.03
373.214	10.92
373.424	78.51
373.635	21.16
373.846	150.18
374.056	66.22
374.267	39.59
374.477	125.61
374.688	37.55
374.898	62.12
375.109	29.35
375.319	60.07
375.53	113.32
375.74	51.88
375.951	23.21
376.161	88.75
376.372	86.7
376.582	64.17
376.793	96.94
377.003	12.97
377.214	27.31
377.424	12.97
377.635	103.08
377.845	41.64
378.055	84.65
378.266	76.46
378.476	70.31
378.686	47.79
378.897	76.46
379.107	84.65
379.317	129.7
379.528	21.16
379.738	133.8
379.948	68.27
380.158	121.51
380.369	92.84
380.579	68.27
380.789	51.88
380.999	121.51
381.21	39.59
381.42	98.99
381.63	103.08
381.84	21.16
382.05	62.12
382.261	60.07
382.471	150.18
382.681	94.89
382.891	53.93
383.101	103.08
383.311	103.08
383.521	92.84
383.731	43.69
383.941	68.27
384.151	68.27
384.361	98.99
384.571	86.7
384.781	141.99
384.991	105.13
385.201	47.79
385.411	111.27
385.621	92.84
385.831	39.59
386.041	135.85
386.251	121.51
386.461	197.29
386.671	29.35
386.881	78.51
387.091	103.08
387.301	113.32
387.511	62.12
387.72	125.61
387.93	174.76
388.14	-34.13
388.35	105.13
388.56	94.89
388.769	80.55
388.979	113.32
389.189	84.65
389.399	178.86
389.609	84.65
389.818	121.51
390.028	111.27
390.238	35.5
390.447	70.31
390.657	31.4
390.867	55.98
391.076	10.92
391.286	137.9
391.496	129.7
391.705	78.51
391.915	78.51
392.125	111.27
392.334	70.31
392.544	70.31
392.753	158.38
392.963	49.83
393.172	129.7
393.382	19.11
393.591	107.18
393.801	68.27
394.01	182.95
394.22	80.55
394.429	84.65
394.639	39.59
394.848	131.75
395.058	101.03
395.267	88.75
395.477	117.42
395.686	129.7
395.895	103.08
396.105	215.72
396.314	86.7
396.524	248.49
396.733	72.36
396.942	119.46
397.152	107.18
397.361	131.75
397.57	105.13
397.78	39.59
397.989	154.28
398.198	131.75
398.407	96.94
398.617	86.7
398.826	113.32
399.035	141.99
399.244	70.31
399.453	199.34
399.663	182.95
399.872	148.14
400.081	84.65
400.29	170.66
400.499	78.51
400.708	139.94
400.917	60.07
401.127	80.55
401.336	219.82
401.545	187.05
401.754	182.95
401.963	127.66
402.172	146.09
402.381	166.57
402.59	170.66
402.799	123.56
403.008	185
403.217	156.33
403.426	121.51
403.635	154.28
403.844	125.61
404.053	185
404.262	144.04
404.471	187.05
404.68	225.96
404.888	180.9
405.097	170.66
405.306	203.43
405.515	176.81
405.724	195.24
405.933	170.66
406.142	219.82
406.35	260.77
406.559	123.56
406.768	240.29
406.977	307.88
407.185	268.97
407.394	189.1
407.603	211.62
407.812	211.62
408.02	266.92
408.229	162.47
408.438	277.16
408.646	234.15
408.855	301.73
409.064	316.07
409.272	215.72
409.481	346.79
409.69	318.12
409.898	293.54
410.107	379.56
410.315	334.5
410.524	340.65
410.733	434.85
410.941	385.7
411.15	418.47
411.358	436.9
411.567	539.3
411.775	508.58
411.984	455.33
412.192	563.87
412.401	531.11
412.609	606.88
412.818	610.98
413.026	594.59
413.234	629.41
413.443	719.52
413.651	637.6
413.86	653.98
414.068	647.84
414.276	770.72
414.485	707.23
414.693	752.29
414.901	815.77
415.11	866.97
415.318	740
415.526	860.83
415.734	860.83
415.943	932.51
416.151	940.7
416.359	969.37
416.567	991.9
416.776	998.04
416.984	1125.02
417.192	1249.94
417.4	1145.5
417.608	1190.55
417.817	1211.03
418.025	1288.85
418.233	1317.53
418.441	1272.47
418.649	1411.73
418.857	1419.92
419.065	1538.71
419.273	1464.98
419.481	1702.54
419.689	1573.52
419.897	1743.5
420.105	1718.93
420.313	1725.07
420.521	1813.13
420.729	1925.77
420.937	1981.07
421.145	2015.88
421.353	2103.95
421.561	2241.16
421.769	2253.45
421.977	2347.65
422.185	2386.57
422.393	2564.74
422.601	2552.45
422.809	2566.79
423.017	2734.72
423.224	2785.92
423.432	2837.12
423.64	2857.6
423.848	3050.11
424.056	3000.96
424.263	3287.67
424.471	3283.58
424.679	3463.8
424.887	3547.76
425.094	3637.88
425.302	3646.07
425.51	3752.56
425.718	3869.3
425.925	3979.89
426.133	4008.56
426.341	4287.08
426.548	4397.67
426.756	4469.35
426.964	4577.89
427.171	4782.69
427.379	4878.94
427.586	4983.39
427.794	5163.61
428.001	5290.59
428.209	5530.2
428.417	5567.06
428.624	5954.13
428.832	5968.46
429.039	5892.69
429.247	5812.82
429.454	6552.13
429.662	7023.17
429.869	6435.4
430.076	6908.48
430.284	6765.12
430.491	6980.16
430.699	7211.58
430.906	7297.6
431.114	7494.2
431.321	7701.05
431.528	7778.87
431.736	8577.58
431.943	8798.76
432.15	8526.38
432.358	8598.06
432.565	9157.15
432.772	9095.71
432.979	9407
433.187	9781.78
433.394	9875.99
433.601	10351.12
433.808	10463.75
434.016	10428.94
434.223	10738.18
434.43	11475.45
434.637	11076.1
434.844	11831.8
435.052	12239.34
435.259	12034.55
435.466	12016.12
435.673	11995.64
435.88	12745.19
436.087	13378.01
436.294	13543.9
436.501	13036
436.708	13416.93
436.915	13853.14
437.122	14725.58
437.329	14449.1
437.537	14723.53
437.743	15221.19
437.95	14989.77
438.157	15737.27
438.364	16275.89
438.571	16206.26
438.778	16445.87
438.985	18131.35
439.192	17293.73
439.399	17777.05
439.606	17115.56
439.813	18477.46
440.02	19335.56
440.227	19083.66
440.433	18882.95
440.64	19605.89
440.847	19282.31
441.054	19753.34
441.261	21340.52
441.467	20896.11
441.674	21127.53
441.881	21903.71
442.088	22143.32
442.294	21729.63
442.501	22583.63
442.708	23118.15
442.914	23654.72
443.121	24418.61
443.328	24506.68
443.534	25723.17
443.741	25137.45
443.948	24658.23
444.154	26659.09
444.361	26267.93
444.568	26415.38
444.774	26376.47
444.981	26829.07
445.187	27638.02
445.394	28774.64
445.6	28221.69
445.807	31113.42
446.013	29501.67
446.22	30179.55
446.426	31193.29
446.633	31576.26
446.839	32590.01
447.046	31168.72
447.252	33007.79
447.459	33112.24
447.665	32962.74
447.871	34009.25
448.078	35678.35
448.284	34205.86
448.491	34914.45
448.697	36356.22
448.903	36978.81
449.11	36866.17
449.316	36077.7
449.522	36712.57
449.728	37847.15
449.935	38031.46
450.141	38404.19
450.347	39053.4
450.553	37589.1
450.76	38447.2
450.966	39151.7
451.172	38719.58
451.378	39960.65
451.584	39100.5
451.791	40017.99
451.997	39841.87
452.203	40411.2
452.409	40437.83
452.615	40181.83
452.821	38928.47
453.027	38070.37
453.233	40403.01
453.44	38207.59
453.646	38979.67
453.852	39067.73
454.058	39653.45
454.264	38131.81
454.47	39723.08
454.676	38510.69
454.882	39647.31
455.088	36006.02
455.294	36573.31
455.5	37144.69
455.705	37576.81
455.911	36237.44
456.117	35317.9
456.323	35045.52
456.529	32610.49
456.735	34310.3
456.941	33423.53
457.147	33329.33
457.352	32057.54
457.558	31420.62
457.764	31500.49
457.97	30857.43
458.176	30181.6
458.381	30288.09
458.587	29065.46
458.793	28655.86
458.999	27164.94
459.204	29415.66
459.41	28403.96
459.616	26837.27
459.821	26767.63
460.027	26200.35
460.233	25702.69
460.438	24625.46
460.644	25022.76
460.85	23920.96
461.055	23441.73
461.261	23464.26
461.466	21846.37
461.672	21401.96
461.878	22688.08
462.083	21242.21
462.289	20873.58
462.494	20509.04
462.7	19612.03
462.905	19184.01
463.111	19800.44
463.316	20021.63
463.522	19544.45
463.727	19560.83
463.932	19650.94
464.138	19239.3
464.343	19347.84
464.549	18450.83
464.754	19184.01
464.959	19345.8
465.165	19210.63
465.37	18119.06
465.575	17899.93
465.781	18403.73
465.986	18723.21
466.191	17836.44
466.397	17922.46
466.602	16904.62
466.807	17471.9
467.012	17400.23
467.218	17308.07
467.423	17244.58
467.628	17168.8
467.833	17842.59
468.038	17482.14
468.244	16361.9
468.449	17220
468.654	16814.51
468.859	16697.77
469.064	16546.22
469.269	15811
469.474	16116.15
469.679	16093.62
469.885	15774.14
470.09	16030.13
470.295	15964.6
470.5	15436.22
470.705	15487.42
470.91	15235.52
471.115	15157.7
471.32	15147.46
471.525	15325.63
471.73	15069.64
471.935	14950.85
472.139	14514.64
472.344	14633.42
472.549	14510.54
472.754	14402
472.959	13867.48
473.164	13615.58
473.369	13611.48
473.574	14146
473.778	14006.74
473.983	13834.71
474.188	13705.69
474.393	13183.46
474.598	13087.2
474.802	13150.69
475.007	12939.75
475.212	12982.76
475.417	12665.32
475.621	12667.37
475.826	12509.68
476.031	12143.09
476.235	12112.37
476.44	12194.29
476.645	12065.27
476.849	12161.52
477.054	11911.67
477.259	11889.14
477.463	11774.45
477.668	11500.03
477.872	11547.13
478.077	11426.3
478.282	11028.99
478.486	11141.63
478.691	10973.7
478.895	11067.91
479.1	10916.36
479.304	10936.84
479.509	10619.4
479.713	10768.9
479.918	10287.63
480.122	10265.1
480.326	10621.45
480.531	10580.49
480.735	10469.9
480.94	10197.52
481.144	10674.7
481.348	10293.77
481.553	10392.08
481.757	10017.3
481.961	10347.02
482.166	10504.71
482.37	10308.11
482.574	9902.61
482.778	10191.38
482.983	10207.76
483.187	10127.89
483.391	10248.72
483.595	10218
483.8	10005.01
484.004	10316.3
484.208	10369.55
484.412	10129.94
484.616	10250.77
484.821	10252.81
485.025	9962
485.229	10248.72
485.433	9984.53
485.637	10220.05
485.841	10062.35
486.045	10041.87
486.249	10033.68
486.453	10011.15
486.657	10174.99
486.861	10275.34
487.065	9851.41
487.269	10009.11
487.473	10054.16
487.677	10224.14
487.881	10279.44
488.085	10160.66
488.289	10250.77
488.493	10185.23
488.697	10101.26
488.901	10205.71
489.105	10158.61
489.309	10299.92
489.512	10301.97
489.716	10306.06
489.92	10131.98
490.124	10166.8
490.328	10455.56
490.531	10398.22
490.735	10365.45
490.939	10267.15
491.143	10418.7
491.346	10344.97
491.55	10637.83
491.754	10625.54
491.958	10555.91
492.161	10619.4
492.365	10818.05
492.569	10789.38
492.772	10766.85
492.976	10920.45
493.18	10756.61
493.383	10854.92
493.587	11033.09
493.79	11172.35
493.994	11051.52
494.197	11086.34
494.401	11123.2
494.605	11174.4
494.808	11364.86
495.012	11549.18
495.215	11426.3
495.419	11844.09
495.622	11919.86
495.825	11739.64
496.029	11803.13
496.232	12134.9
496.436	12036.59
496.639	12429.81
496.843	12095.99
497.046	12460.52
497.249	12534.25
497.453	12642.79
497.656	12708.33
497.859	12995.04
498.063	13122.02
498.266	13398.49
498.469	13263.33
498.673	13451.74
498.876	13525.47
499.079	13918.68
499.282	13603.29
499.485	14291.41
499.689	14217.68
499.892	14178.77
500.095	14322.13
500.298	14799.3
500.501	14649.8
500.705	14973.38
500.908	15151.56
501.111	15462.85
501.314	15393.22
501.517	15634.88
501.72	15931.83
501.923	15743.42
502.126	16304.56
502.329	16495.02
502.532	16437.68
502.735	16398.77
502.938	16814.51
503.141	16955.82
503.344	17250.72
503.547	17359.27
503.75	17398.18
503.953	17918.36
504.156	18026.9
504.359	18178.45
504.562	18315.67
504.765	18655.63
504.968	18973.07
505.17	18930.06
505.373	18848.14
505.576	19478.91
505.779	19540.35
505.982	19652.99
506.185	20302.2
506.387	20302.2
506.59	20420.98
506.793	20496.75
506.996	20578.67
507.198	21336.42
507.401	21059.95
507.604	21471.59
507.807	21737.82
508.009	21870.94
508.212	22036.83
508.415	22501.72
508.617	22694.22
508.82	22622.55
509.022	22708.56
509.225	23589.19
509.428	23265.61
509.63	23732.54
509.833	23785.79
510.035	24359.22
510.238	24457.53
510.44	24852.78
510.643	25289
510.845	25209.13
511.048	25026.86
511.25	25506.09
511.453	25571.62
511.655	26624.28
511.858	26089.76
512.06	26671.38
512.262	26665.24
512.465	26999.05
512.667	27463.94
512.87	27871.49
513.072	27574.53
513.274	28530.94
513.477	28397.82
513.679	28797.17
513.881	29034.74
514.084	29278.44
514.286	29231.34
514.488	29417.71
514.69	30632.15
514.893	30632.15
515.095	30466.27
515.297	30861.52
515.499	30939.35
515.701	31447.24
515.904	31854.79
516.106	32121.02
516.308	32024.77
516.51	32540.86
516.712	32850.1
516.914	33237.17
517.116	33642.67
517.318	33589.42
517.52	34091.17
517.722	34103.46
517.925	34709.66
518.127	35254.42
518.329	35002.52
518.531	35258.51
518.733	35862.66
518.935	36130.95
519.136	36061.32
519.338	36700.28
519.54	36683.9
519.742	37515.37
519.944	37535.85
520.146	38066.28
520.348	38314.08
520.55	38623.33
520.752	38809.69
520.954	39532.62
521.155	39030.87
521.357	39718.99
521.559	40108.1
521.761	40757.31
521.963	40480.83
522.164	40640.57
522.366	41156.66
522.568	41386.04
522.77	41510.96
522.971	41852.97
523.173	41877.55
523.375	42373.16
523.576	42242.09
523.778	42594.34
523.98	43380.76
524.181	43335.7
524.383	43438.1
524.584	44292.1
524.786	43925.52
524.988	43909.13
525.189	44226.57
525.391	44564.48
525.592	44863.49
525.794	44847.1
525.995	45187.07
526.197	45207.54
526.398	45359.09
526.6	45834.22
526.801	45699.06
527.003	46057.45
527.204	46243.82
527.406	46807.01
527.607	46751.71
527.808	46940.13
528.01	46933.98
528.211	47120.35
528.412	47810.51
528.614	47886.29
528.815	47742.93
529.016	48263.11
529.218	47826.9
529.419	47914.96
529.62	47538.13
529.822	47638.48
530.023	48218.06
530.224	48639.94
530.425	48187.34
530.626	48062.41
530.828	48576.45
531.029	49508.28
531.23	48730.05
531.431	48465.86
531.632	49123.26
531.833	49164.22
532.035	49084.35
532.236	49344.44
532.437	49782.71
532.638	49237.95
532.839	49455.03
533.04	49688.5
533.241	49086.4
533.442	50151.34
533.643	49534.9
533.844	49833.91
534.045	49823.67
534.246	49260.47
534.447	50194.35
534.648	49751.99
534.849	49924.02
535.05	49446.84
535.251	49819.57
535.451	49991.6
535.652	50065.33
535.853	49723.32
536.054	50069.42
536.255	50229.16
536.456	49962.93
536.657	50438.06
536.857	50073.52
537.058	50026.42
537.259	50503.59
537.46	50333.61
537.66	49760.18
537.861	50214.83
538.062	50044.85
538.263	49891.25
538.463	50218.92
538.664	49645.49
538.865	50225.07
539.065	50716.58
539.266	49913.78
539.466	50403.24
539.667	49733.56
539.868	50864.03
540.068	50331.56
540.269	50208.68
540.469	50167.73
540.67	49739.7
540.87	50204.59
541.071	50087.85
541.271	50495.4
541.472	49977.26
541.672	49958.83
541.873	49850.29
542.073	49326.01
542.274	50278.32
542.474	50139.05
542.675	49555.38
542.875	50421.67
543.075	49708.98
543.276	49389.5
543.476	50358.19
543.676	49844.15
543.877	50327.47
544.077	50208.68
544.277	49416.12
544.478	49842.1
544.678	50149.29
544.878	50053.04
545.078	50171.82
545.279	49819.57
545.479	49807.28
545.679	49784.75
545.879	50319.27
546.079	49768.37
546.28	49899.44
546.48	49332.15
546.68	49938.35
546.88	49817.52
547.08	49926.06
547.28	49807.28
547.48	49686.45
547.68	49725.36
547.88	49778.61
548.081	49864.63
548.281	49668.02
548.481	49397.69
548.681	49938.35
548.881	49655.73
549.081	49364.92
549.28	49571.77
549.48	49565.62
549.68	49567.67
549.88	50280.36
550.08	49207.23
550.28	49762.23
550.48	49668.02
550.68	49852.34
550.88	48998.33
551.08	49336.25
551.279	49547.19
551.479	49209.28
551.679	49926.06
551.879	49115.07
552.079	49721.27
552.278	49098.69
552.478	49346.49
552.678	49315.77
552.878	49450.94
553.077	48889.79
553.277	48793.54
553.477	49625.01
553.676	49031.1
553.876	48926.66
554.076	49129.4
554.275	49145.79
554.475	48746.43
554.674	49260.47
554.874	49340.35
555.074	48816.07
555.273	49184.7
555.473	49020.86
555.672	48824.26
555.872	48938.94
556.071	49192.89
556.271	48709.57
556.47	48494.53
556.67	48549.83
556.869	48711.62
557.068	48611.27
557.268	48152.52
557.467	48670.66
557.667	48009.17
557.866	48332.75
558.065	48687.04
558.265	48121.8
558.464	47843.28
558.663	48369.61
558.863	47679.44
559.062	48480.2
559.261	47773.65
559.461	48009.17
559.66	47757.27
559.859	47792.08
560.058	47693.78
560.258	47634.39
560.457	47179.74
560.656	47579.09
560.855	47194.07
561.054	47407.06
561.253	46899.17
561.453	47149.02
561.652	47142.88
561.851	47103.96
562.05	46966.75
562.249	46542.82
562.448	46997.47
562.647	46497.77
562.846	46667.75
563.045	46561.25
563.244	45944.81
563.443	46860.26
563.642	45688.82
563.841	46241.77
564.04	45803.5
564.239	46698.47
564.438	45830.13
564.637	45608.95
564.836	45910
565.035	45205.5
565.234	45238.26
565.432	45215.74
565.631	45023.23
565.83	45019.13
566.029	44972.03
566.228	44982.27
566.427	44982.27
566.625	44752.9
566.824	43808.78
567.023	44720.13
567.222	43995.15
567.42	44480.52
567.619	44355.59
567.818	43911.18
568.016	43802.64
568.215	44245
568.414	43810.83
568.612	44013.58
568.811	43665.42
569.01	43712.53
569.208	43173.91
569.407	43638.8
569.605	42745.89
569.804	43624.46
570.002	42745.89
570.201	43130.9
570.4	42567.71
570.598	42504.23
570.797	42074.15
570.995	42225.7
571.193	41998.38
571.392	42301.48
571.59	42334.24
571.789	41996.33
571.987	42072.1
572.186	41924.65
572.384	41644.08
572.582	42223.65
572.781	42082.34
572.979	41209.91
573.177	41328.69
573.376	41429.04
573.574	41015.35
573.772	41123.9
573.971	40861.76
574.169	40538.18
574.367	40519.74
574.565	40792.12
574.763	40728.64
574.962	40099.91
575.16	39862.35
575.358	40216.64
575.556	39604.3
575.754	40261.7
575.952	39135.32
576.151	39796.81
576.349	39499.86
576.547	39592.01
576.745	39366.74
576.943	39499.86
577.141	39305.3
577.339	39514.19
577.537	39067.73
577.735	38928.47
577.933	38293.6
578.131	39043.16
578.329	38506.59
578.527	38469.73
578.725	38318.18
578.923	38717.53
579.121	37783.66
579.319	37824.62
579.516	38338.66
579.714	38088.81
579.912	38027.37
580.11	38162.53
580.308	37595.24
580.506	38035.56
580.704	37091.44
580.901	37511.28
581.099	37427.31
581.297	37128.31
581.495	37036.15
581.692	37281.91
581.89	36573.31
582.088	37079.16
582.285	36728.95
582.483	37046.39
582.681	36343.94
582.878	36438.14
583.076	36012.17
583.274	36341.89
583.471	36071.56
583.669	36028.55
583.866	36116.61
584.064	36069.51
584.262	35862.66
584.459	36173.95
584.657	35543.18
584.854	36210.82
585.052	35207.31
585.249	35131.54
585.447	35356.82
585.644	34865.3
585.841	35231.89
586.039	35438.73
586.236	34398.37
586.434	34578.59
586.631	34617.5
586.828	34498.72
587.026	34246.82
587.223	34560.16
587.42	33824.93
587.618	33931.43
587.815	33554.6
588.012	33589.42
588.21	33808.55
588.407	33921.19
588.604	33284.27
588.801	33548.46
588.999	33329.33
589.196	33360.05
589.393	33628.33
589.59	33327.28
589.787	32942.26
589.984	32526.52
590.182	32575.67
590.379	33233.07
590.576	32606.39
590.773	32450.75
590.97	32116.93
591.167	32387.26
591.364	31987.91
591.561	32528.57
591.758	31955.14
591.955	31885.51
592.152	32295.1
592.349	31908.04
592.546	31736.01
592.743	32008.39
592.94	31004.88
593.137	31355.08
593.334	31975.62
593.531	30795.99
593.727	31443.15
593.924	31367.37
594.121	31068.37
594.318	31293.65
594.515	30779.6
594.712	31037.65
594.908	30513.37
595.105	30431.45
595.302	30390.49
595.499	30709.97
595.696	30302.43
595.892	30187.74
596.089	30214.37
596.286	30179.55
596.482	29993.18
596.679	29997.28
596.876	30001.38
597.072	29671.65
597.269	29626.6
597.466	29235.44
597.662	29509.86
597.859	29380.84
598.055	29147.37
598.252	29006.06
598.448	29298.92
598.645	29147.37
598.841	28715.25
599.038	28604.66
599.234	29188.33
599.431	28455.16
599.627	28649.72
599.824	28604.66
600.02	28678.39
600.217	28348.67
600.413	28035.33
600.609	28139.77
600.806	27762.95
601.002	27760.9
601.198	28098.81
601.395	27697.41
601.591	27648.26
601.787	27687.17
601.984	27513.09
602.18	28014.85
602.376	27435.27
602.572	27306.25
602.769	27326.73
602.965	27246.86
603.161	27183.37
603.357	27062.54
603.553	26741.01
603.75	26964.24
603.946	26564.89
604.142	27113.74
604.338	26175.77
604.534	26706.2
604.73	26626.32
604.926	26427.67
605.122	26337.56
605.318	26259.74
605.514	26237.21
605.71	26128.67
605.906	26022.17
606.102	26081.56
606.298	26020.13
606.494	25991.45
606.69	25686.31
606.886	25739.55
607.082	25196.84
607.278	25792.8
607.474	25205.03
607.67	25542.95
607.866	25139.5
608.062	25497.89
608.257	25196.84
608.453	25084.2
608.649	25311.53
608.845	24820.02
609.041	24791.34
609.236	25002.29
609.432	25098.54
609.628	24791.34
609.824	24457.53
610.019	24721.71
610.215	24518.96
610.411	24576.31
610.606	24101.18
610.802	24602.93
610.998	24496.44
611.193	24531.25
611.389	24412.47
611.584	24420.66
611.78	23984.44
611.976	24301.88
612.171	24279.35
612.367	24205.63
612.562	23789.89
612.758	23683.39
612.953	23552.32
613.149	23896.38
613.344	23560.52
613.539	23943.49
613.735	23605.57
613.93	23757.12
614.126	23619.91
614.321	23808.32
614.517	23404.87
614.712	23390.53
614.907	23191.88
615.103	23232.84
615.298	23224.65
615.493	23400.77
615.688	22942.03
615.884	23857.47
616.079	23028.04
616.274	22964.56
616.47	23263.56
616.665	22890.83
616.86	22548.82
617.055	22772.05
617.25	22962.51
617.445	22880.59
617.641	22704.46
617.836	22659.41
618.031	22448.47
618.226	22489.43
618.421	22301.01
618.616	22901.07
618.811	21967.2
619.006	22554.96
619.201	21840.22
619.396	22137.18
619.591	21672.29
619.786	22032.73
619.981	21373.28
620.176	21731.68
620.371	21586.27
620.566	21461.35
620.761	21260.65
620.956	21344.61
621.151	21004.65
621.346	21162.34
621.541	20750.7
621.735	21252.45
621.93	20439.41
622.125	20552.05
622.32	20580.72
622.515	20365.68
622.709	20330.87
622.904	20773.23
623.099	20322.68
623.294	20277.62
623.488	20126.07
623.683	19939.71
623.878	19681.66
624.072	19898.75
624.267	19657.09
624.462	19782.01
624.656	19626.37
624.851	19583.36
625.046	19106.18
625.24	19046.79
625.435	19003.78
625.629	19011.98
625.824	18829.71
626.018	18659.73
626.213	18436.5
626.407	18426.26
626.602	18416.02
626.796	18276.76
626.991	18250.13
627.185	18123.16
627.38	17981.85
627.574	17820.06
627.768	17871.26
627.963	17815.96
628.157	17574.3
628.352	17459.62
628.546	17019.3
628.74	17385.89
628.935	17375.65
629.129	17226.15
629.323	17027.49
629.517	16914.86
629.712	16998.82
629.906	16787.88
630.1	16804.27
630.294	16554.41
630.489	16640.43
630.683	16914.86
630.877	16312.75
631.071	16435.63
631.265	16560.56
631.459	16134.58
631.653	16230.83
631.848	15897.02
632.042	15763.9
632.236	15911.35
632.43	15671.74
632.624	15948.22
632.818	15251.91
633.012	15364.54
633.206	15550.91
633.4	15620.54
633.594	15270.34
633.788	15227.33
633.982	15149.51
634.176	15100.36
634.369	14838.22
634.563	15045.06
634.757	14817.74
634.951	14891.46
635.145	14782.92
635.339	14612.94
635.533	14348.75
635.726	14375.38
635.92	14449.1
636.114	14139.86
636.308	14055.89
636.501	14170.58
636.695	13957.59
636.889	13963.73
637.083	13881.81
637.276	13760.98
637.47	13418.97
637.664	13683.16
637.857	13748.7
638.051	13691.35
638.244	13543.9
638.438	13103.59
638.632	13470.17
638.825	13019.62
639.019	13138.4
639.212	12954.08
639.406	12913.13
639.599	12982.76
639.793	12913.13
639.986	12648.94
640.18	12593.64
640.373	12483.05
640.567	12509.68
640.76	12458.48
640.954	12540.4
641.147	12440.04
641.34	12302.83
641.534	12071.41
641.727	12300.78
641.92	11993.59
642.114	11926
642.307	11829.75
642.5	11891.19
642.694	11670.01
642.887	11852.28
643.08	11766.26
643.273	11590.14
643.467	11555.32
643.66	11583.99
643.853	11524.6
644.046	11223.55
644.239	11305.47
644.432	11260.41
644.626	11158.02
644.819	11323.9
645.012	11174.4
645.205	11006.47
645.398	10834.44
645.591	10891.78
645.784	10682.89
645.977	10662.41
646.17	10746.37
646.363	10557.96
646.556	10453.52
646.749	10578.44
646.942	10607.11
647.135	10328.59
647.328	10316.3
647.521	10228.24
647.714	10154.51
647.907	10029.59
648.099	9923.09
648.292	10009.11
648.485	10005.01
648.678	9945.62
648.871	9962
649.064	9896.47
649.256	9982.48
649.449	9722.39
649.642	9652.76
649.835	9568.79
650.027	9769.49
650.22	9572.89
650.413	9746.97
650.605	9478.68
650.798	9505.31
650.991	9298.46
651.183	9441.82
651.376	9124.38
651.568	9325.08
651.761	9251.36
651.954	9064.99
652.146	9083.42
652.339	8956.45
652.531	8972.83
652.724	8796.71
652.916	8874.53
653.109	8813.09
653.301	8809
653.494	8759.84
653.686	8553
653.879	8661.54
654.071	8630.82
654.263	8569.38
654.456	8612.39
654.648	8479.27
654.84	8360.49
655.033	8268.33
655.225	8387.11
655.417	8475.18
655.61	8403.5
655.802	8196.65
655.994	7944.75
656.186	8157.74
656.379	7983.66
656.571	8022.58
656.763	8014.38
656.955	8077.87
657.148	7993.9
657.34	7885.36
657.532	7875.12
657.724	7854.64
657.916	7901.75
658.108	7764.53
658.3	7576.12
658.492	7760.44
658.684	7660.09
658.876	7557.69
659.068	7631.41
659.26	7410.23
659.452	7461.43
659.644	7469.62
659.836	7359.03
660.028	7295.55
660.22	7266.88
660.412	7225.92
660.604	7123.52
660.796	7146.05
660.988	7297.6
661.18	7346.75
661.372	7055.93
661.563	7002.69
661.755	6910.53
661.947	7017.02
662.139	6869.57
662.331	6744.64
662.522	6840.9
662.714	7068.22
662.906	6605.38
663.097	6726.21
663.289	6752.84
663.481	6834.75
663.673	6752.84
663.864	6744.64
664.056	6613.57
664.247	6705.73
664.439	6515.27
664.631	6494.79
664.822	6304.33
665.014	6580.81
665.205	6605.38
665.397	6400.58
665.588	6326.86
665.78	6279.75
665.971	6138.44
666.163	6396.49
666.354	6367.82
666.546	6099.53
666.737	6171.21
666.929	6050.38
667.12	6101.58
667.311	6179.4
667.503	6019.66
667.694	6083.15
667.885	5894.74
668.077	5896.78
668.268	5825.11
668.459	5962.32
668.651	5995.09
668.842	5962.32
669.033	5921.36
669.224	5982.8
669.416	5880.4
669.607	5845.59
669.798	5782.1
669.989	5827.15
670.18	5782.1
670.371	5589.59
670.563	5700.18
670.754	5714.52
670.945	5450.33
671.136	5747.28
671.327	5794.39
671.518	5573.21
671.709	5640.79
671.9	5640.79
672.091	5507.67
672.282	5597.78
672.473	5507.67
672.664	5470.81
672.855	5413.46
673.046	5483.09
673.237	5497.43
673.428	5438.04
673.619	5532.25
673.809	5528.15
674	5421.66
674.191	5495.38
674.382	5392.98
674.573	5380.7
674.764	5489.24
674.954	5337.69
675.145	5366.36
675.336	5362.26
675.527	5276.25
675.717	5331.55
675.908	5175.9
676.099	5364.31
676.289	5130.84
676.48	5223
676.671	5259.87
676.861	5329.5
677.052	5188.19
677.243	5229.15
677.433	4876.9
677.624	5200.48
677.814	5274.2
678.005	5141.08
678.195	5231.19
678.386	5114.46
678.576	5216.86
678.767	5122.65
678.957	5091.93
679.148	5198.43
679.338	5239.39
679.529	4995.68
679.719	5016.16
679.909	5182.04
680.1	5057.12
680.29	5114.46
680.481	4895.33
680.671	5114.46
680.861	4944.48
681.052	5014.11
681.242	5012.06
681.432	5065.31
681.622	4981.34
681.813	4901.47
682.003	5032.54
682.193	4895.33
682.383	5114.46
682.573	5028.45
682.764	5065.31
682.954	5061.21
683.144	4862.56
683.334	4854.37
683.524	4921.95
683.714	5026.4
683.904	4870.75
684.094	4901.47
684.284	4932.19
684.474	5024.35
684.664	4981.34
684.854	4971.1
685.044	4889.18
685.234	4807.27
685.424	4801.12
685.614	4786.79
685.804	4717.15
685.994	4846.18
686.184	4782.69
686.374	4782.69
686.564	4649.57
686.753	4782.69
686.943	4819.55
687.133	4745.83
687.323	4670.05
687.513	4610.66
687.702	4647.52
687.892	4625
688.082	4719.2
688.272	4553.32
688.461	4627.04
688.651	4682.34
688.841	4526.69
689.03	4631.14
689.22	4436.58
689.41	4510.31
689.599	4528.74
689.789	4635.24
689.979	4295.27
690.168	4493.93
690.358	4487.78
690.547	4350.57
690.737	4461.16
690.926	4502.12
691.116	4223.59
691.305	4313.7
691.495	4268.65
691.684	4252.27
691.874	4244.07
692.063	4182.63
692.252	4231.79
692.442	4299.37
692.631	4080.24
692.82	4078.19
693.01	4006.51
693.199	4221.55
693.388	4053.61
693.578	4338.28
693.767	4194.92
693.956	4063.85
694.146	4055.66
694.335	4059.76
694.524	3998.32
694.713	4201.07
694.902	4008.56
695.092	3988.08
695.281	4061.8
695.47	3953.26
695.659	4076.14
695.848	3889.78
696.037	3852.91
696.226	4035.18
696.415	3887.73
696.604	3979.89
696.793	3947.12
696.982	3906.16
697.171	3988.08
697.36	3873.39
697.549	3852.91
697.738	3893.87
697.927	3908.21
698.116	3934.83
698.305	3945.07
698.494	3977.84
698.683	3789.42
698.872	3967.6
699.061	3897.97
699.25	3922.54
699.438	3811.95
699.627	3793.52
699.816	3973.74
700.005	3799.66
700.193	3684.98
700.382	3922.54
700.571	3871.34
700.76	3928.69
700.948	3885.68
701.137	3766.9
701.326	3850.86
701.514	3988.08
701.703	3803.76
701.892	3787.38
702.08	3908.21
702.269	3867.25
702.457	3828.34
702.646	3877.49
702.834	3721.84
703.023	3738.23
703.212	3736.18
703.4	3732.08
703.589	3703.41
703.777	3791.47
703.965	3816.05
704.154	3840.62
704.342	3736.18
704.531	3807.86
704.719	3779.18
704.907	3867.25
705.096	3816.05
705.284	3768.95
705.472	3689.07
705.661	3697.27
705.849	3723.89
706.037	3680.88
706.226	3775.09
706.414	3791.47
706.602	3803.76
706.79	3754.61
706.979	3902.06
707.167	3834.48
707.355	3680.88
707.543	3650.16
707.731	3943.02
707.919	3820.14
708.107	3730.03
708.296	3787.38
708.484	3715.7
708.672	3631.73
708.86	3854.96
709.048	3742.32
709.236	3723.89
709.424	3660.4
709.612	3807.86
709.8	3664.5
709.988	3877.49
710.176	3781.23
710.364	3748.47
710.551	3824.24
710.739	3742.32
710.927	3723.89
711.115	3787.38
711.303	3727.99
711.491	3734.13
711.679	3660.4
711.866	3734.13
712.054	3781.23
712.242	3756.66
712.43	3748.47
712.617	3678.83
712.805	3824.24
712.993	3730.03
713.181	3701.36
713.368	3809.9
713.556	3754.61
713.744	3775.09
713.931	3824.24
714.119	3746.42
714.306	3863.15
714.494	3791.47
714.682	3646.07
714.869	3775.09
715.057	3775.09
715.244	3764.85
715.432	3824.24
715.619	3779.18
715.807	3832.43
715.994	3840.62
716.182	3832.43
716.369	3801.71
716.556	3744.37
716.744	3852.91
716.931	3742.32
717.119	3922.54
717.306	3785.33
717.493	3863.15
717.681	3904.11
717.868	3775.09
718.055	3889.78
718.242	3752.56
718.43	3834.48
718.617	3818.1
718.804	3873.39
718.991	3770.99
719.179	3795.57
719.366	3781.23
719.553	3885.68
719.74	3699.31
719.927	3766.9
720.114	3713.65
720.301	3809.9
720.488	3814
720.676	3799.66
720.863	3584.63
721.05	3670.64
721.237	3836.53
721.424	3854.96
721.611	3869.3
721.798	3723.89
721.985	3822.19
722.172	3854.96
722.358	3752.56
722.545	3734.13
722.732	3633.78
722.919	3768.95
723.106	3828.34
723.293	3684.98
723.48	3715.7
723.667	3689.07
723.853	3742.32
724.04	3701.36
724.227	3799.66
724.414	3666.55
724.6	3734.13
724.787	3633.78
724.974	3703.41
725.161	3687.03
725.347	3668.59
725.534	3646.07
725.72	3795.57
725.907	3818.1
726.094	3697.27
726.28	3670.64
726.467	3650.16
726.653	3703.41
726.84	3750.51
727.027	3809.9
727.213	3533.43
727.4	3742.32
727.586	3670.64
727.773	3805.81
727.959	3684.98
728.145	3682.93
728.332	3740.27
728.518	3582.58
728.705	3678.83
728.891	3615.35
729.077	3773.04
729.264	3787.38
729.45	3713.65
729.636	3723.89
729.823	3660.4
730.009	3695.22
730.195	3691.12
730.382	3723.89
730.568	3742.32
730.754	3725.94
730.94	3629.68
731.126	3691.12
731.313	3635.83
731.499	3609.2
731.685	3627.64
731.871	3574.39
732.057	3625.59
732.243	3633.78
732.429	3555.96
732.615	3631.73
732.801	3504.76
732.987	3631.73
733.173	3596.92
733.359	3574.39
733.545	3545.72
733.731	3664.5
733.917	3752.56
734.103	3654.26
734.289	3619.44
734.475	3570.29
734.661	3660.4
734.847	3646.07
735.033	3543.67
735.219	3533.43
735.404	3553.91
735.59	3449.46
735.776	3478.13
735.962	3664.5
736.148	3486.33
736.333	3400.31
736.519	3531.38
736.705	3469.94
736.89	3494.52
737.076	3549.81
737.262	3371.64
737.447	3629.68
737.633	3480.18
737.819	3402.36
738.004	3334.78
738.19	3365.5
738.375	3453.56
738.561	3494.52
738.747	3332.73
738.932	3314.3
739.118	3519.09
739.303	3250.81
739.489	3406.45
739.674	3338.87
739.859	3361.4
740.045	3314.3
740.23	3371.64
740.416	3279.48
740.601	3324.54
740.786	3279.48
740.972	3285.62
741.157	3195.51
741.342	3199.61
741.528	3291.77
741.713	3394.17
741.898	3232.38
742.084	3142.27
742.269	3138.17
742.454	3209.85
742.639	3269.24
742.824	3086.97
743.01	3078.78
743.195	3209.85
743.38	3129.98
743.565	3127.93
743.75	3185.27
743.935	3103.36
744.12	3170.94
744.305	3209.85
744.49	3035.77
744.675	3021.44
744.86	3037.82
745.045	3076.73
745.23	3007.1
745.415	3021.44
745.6	2949.76
745.785	2980.48
745.97	3046.01
746.155	2916.99
746.34	2812.54
746.525	2822.78
746.71	2802.3
746.895	2726.53
747.079	2808.45
747.264	2878.08
747.449	2775.68
747.634	2833.02
747.819	2912.89
748.003	2826.88
748.188	2687.62
748.373	2710.15
748.557	2794.11
748.742	2560.64
748.927	2605.7
749.111	2554.5
749.296	2568.84
749.481	2593.41
749.665	2574.98
749.85	2630.27
750.034	2714.24
750.219	2529.92
750.404	2564.74
750.588	2542.21
750.773	2452.1
750.957	2468.48
751.141	2368.13
751.326	2347.65
751.51	2347.65
751.695	2501.25
751.879	2398.85
752.064	2366.09
752.248	2405
752.432	2409.09
752.617	2343.56
752.801	2294.41
752.985	2257.54
753.17	2216.58
753.354	2200.2
753.538	2245.26
753.722	2099.85
753.907	2175.63
754.091	2067.08
754.275	2237.06
754.459	2208.39
754.643	2054.8
754.828	2167.43
755.012	2175.63
755.196	2163.34
755.38	2171.53
755.564	2003.6
755.748	2052.75
755.932	2048.65
756.116	1997.45
756.3	1933.97
756.484	1921.68
756.668	1974.92
756.852	1962.64
757.036	2001.55
757.22	1913.49
757.404	1876.62
757.588	1858.19
757.772	1831.57
757.956	1884.81
758.14	1936.01
758.323	1852.05
758.507	1878.67
758.691	1847.95
758.875	1772.18
759.059	1862.29
759.242	1813.13
759.426	1766.03
759.61	1729.17
759.794	1774.22
759.977	1731.22
760.161	1880.72
760.345	1727.12
760.528	1675.92
760.712	1723.02
760.895	1712.78
761.079	1600.15
761.263	1684.11
761.446	1677.97
761.63	1661.59
761.813	1583.76
761.997	1675.92
762.18	1696.4
762.364	1669.78
762.547	1596.05
762.731	1532.56
762.914	1550.99
763.098	1614.48
763.281	1575.57
763.464	1573.52
763.648	1528.47
763.831	1493.65
764.015	1550.99
764.198	1577.62
764.381	1585.81
764.564	1530.52
764.748	1464.98
764.931	1561.23
765.114	1503.89
765.297	1530.52
765.481	1489.56
765.664	1520.28
765.847	1389.21
766.03	1524.37
766.213	1505.94
766.397	1462.93
766.58	1450.64
766.763	1397.4
766.946	1438.36
767.129	1391.25
767.312	1456.79
767.495	1436.31
767.678	1319.57
767.861	1409.69
768.044	1426.07
768.227	1370.77
768.41	1415.83
768.593	1403.54
768.776	1383.06
768.959	1432.21
769.142	1383.06
769.324	1327.77
769.507	1260.18
769.69	1280.66
769.873	1325.72
770.056	1374.87
770.239	1186.46
770.421	1321.62
770.604	1292.95
770.787	1198.74
770.97	1194.65
771.152	1190.55
771.335	1350.29
771.518	1241.75
771.7	1270.42
771.883	1319.57
772.066	1159.83
772.248	1223.32
772.431	1182.36
772.613	1168.02
772.796	1153.69
772.978	1120.92
773.161	1165.98
773.343	1184.41
773.526	1247.9
773.708	1178.26
773.891	1188.5
774.073	1120.92
774.256	1092.25
774.438	1088.15
774.621	1139.35
774.803	1086.11
774.985	1071.77
775.168	1077.91
775.35	1092.25
775.532	1116.83
775.715	1112.73
775.897	1063.58
776.079	1039
776.261	1055.39
776.444	1030.81
776.626	1094.3
776.808	1092.25
776.99	969.37
777.173	1043.1
777.355	1026.71
777.537	893.6
777.719	977.56
777.901	1014.43
778.083	967.32
778.265	848.54
778.447	1006.24
778.629	948.89
778.811	977.56
778.993	922.27
779.175	879.26
779.357	897.69
779.539	854.69
779.721	899.74
779.903	858.78
780.085	768.67
780.267	899.74
780.449	916.12
780.631	922.27
780.812	832.16
780.994	826.01
781.176	789.15
781.358	832.16
781.54	785.05
781.721	811.68
781.903	826.01
782.085	686.75
782.267	723.62
782.448	754.34
782.63	797.34
782.812	707.23
782.993	776.86
783.175	793.25
783.357	727.71
783.538	735.9
783.72	680.61
783.901	627.36
784.083	740
784.264	666.27
784.446	647.84
784.627	744.1
784.809	666.27
784.99	678.56
785.172	694.94
785.353	658.08
785.535	735.9
785.716	633.5
785.897	729.76
786.079	613.03
786.26	643.74
786.441	674.46
786.623	533.15
786.804	547.49
786.985	660.13
787.167	660.13
787.348	670.37
787.529	531.11
787.71	559.78
787.891	643.74
788.073	584.35
788.254	584.35
788.435	625.31
788.616	610.98
788.797	600.74
788.978	572.07
789.159	580.26
789.34	588.45
789.522	533.15
789.703	541.35
789.884	588.45
790.065	459.43
790.246	602.79
790.427	467.62
790.607	551.59
790.788	596.64
790.969	430.76
791.15	457.38
791.331	457.38
791.512	473.76
791.693	420.52
791.874	477.86
792.054	594.59
792.235	539.3
792.416	486.05
792.597	494.24
792.778	520.87
792.958	514.72
793.139	506.53
793.32	547.49
793.5	504.48
793.681	537.25
793.862	445.09
794.042	408.23
794.223	420.52
794.404	481.96
794.584	414.37
794.765	436.9
794.945	391.84
795.126	453.28
795.306	510.63
795.487	285.35
795.667	373.41
795.848	404.13
796.028	424.61
796.209	496.29
796.389	494.24
796.57	373.41
796.75	416.42
796.93	461.48
797.111	371.36
797.291	404.13
797.471	393.89
797.652	488.1
797.832	361.13
798.012	402.08
798.192	344.74
798.373	357.03
798.553	426.66
798.733	453.28
798.913	389.8
799.093	332.45
799.274	395.94
799.454	416.42
799.634	436.9
799.814	453.28
799.994	434.85
800.174	311.97
800.354	342.69
800.534	361.13
800.714	420.52
800.894	303.78
801.074	301.73
801.254	369.32
801.434	418.47
801.614	342.69
801.794	359.08
801.974	780.96
802.154	326.31
802.334	348.84
802.514	332.45
802.693	309.93
802.873	338.6
803.053	416.42
803.233	266.92
803.413	301.73
803.592	322.21
803.772	338.6
803.952	311.97
804.131	338.6
804.311	291.49
804.491	336.55
804.67	365.22
804.85	279.21
805.03	314.02
805.209	359.08
805.389	223.91
805.568	285.35
805.748	334.5
805.928	166.57
806.107	246.44
806.287	311.97
806.466	266.92
806.646	266.92
806.825	346.79
807.004	275.11
807.184	234.15
807.363	244.39
807.543	248.49
807.722	305.83
807.901	307.88
808.081	357.03
808.26	285.35
808.439	260.77
808.619	316.07
808.798	289.45
808.977	250.53
809.156	277.16
809.336	318.12
809.515	287.4
809.694	242.34
809.873	254.63
810.052	242.34
810.231	334.5
810.411	340.65
810.59	180.9
810.769	215.72
810.948	262.82
811.127	182.95
811.306	225.96
811.485	266.92
811.664	342.69
811.843	309.93
812.022	268.97
812.201	195.24
812.38	242.34
812.559	86.7
812.737	318.12
812.916	246.44
813.095	176.81
813.274	182.95
813.453	252.58
813.632	260.77
813.811	225.96
813.989	156.33
814.168	228.01
814.347	268.97
814.526	213.67
814.704	266.92
814.883	182.95
815.062	201.38
815.24	238.25
815.419	242.34
815.598	215.72
815.776	203.43
815.955	197.29
816.133	160.42
816.312	187.05
816.49	197.29
816.669	187.05
816.847	178.86
817.026	201.38
817.204	168.62
817.383	195.24
817.561	180.9
817.74	168.62
817.918	219.82
818.097	185
818.275	252.58
818.453	238.25
818.632	205.48
818.81	244.39
818.988	96.94
819.167	225.96
819.345	117.42
819.523	230.06
819.701	195.24
819.879	205.48
820.058	156.33
820.236	203.43
820.414	174.76
820.592	150.18
820.77	146.09
820.948	125.61
821.127	197.29
821.305	187.05
821.483	258.73
821.661	193.19
821.839	80.55
822.017	195.24
822.195	170.66
822.373	215.72
822.551	162.47
822.729	146.09
822.907	172.71
823.085	187.05
823.262	129.7
823.44	217.77
823.618	187.05
823.796	119.46
823.974	113.32
824.152	107.18
824.329	154.28
824.507	205.48
824.685	96.94
824.863	154.28
825.04	90.79
825.218	160.42
825.396	195.24
825.574	162.47
825.751	105.13
825.929	148.14
826.107	121.51
826.284	125.61
826.462	201.38
826.639	156.33
826.817	86.7
826.994	185
827.172	113.32
827.349	187.05
827.527	137.9
827.704	53.93
827.882	111.27
828.059	94.89
828.237	119.46
828.414	144.04
828.591	158.38
828.769	119.46
828.946	64.17
829.124	191.14
829.301	213.67
829.478	185
829.655	111.27
829.833	187.05
830.01	160.42
830.187	55.98
830.364	72.36
830.542	156.33
830.719	84.65
830.896	148.14
831.073	144.04
831.25	131.75
831.427	156.33
831.604	19.11
831.782	172.71
831.959	86.7
832.136	119.46
832.313	191.14
832.49	162.47
832.667	164.52
832.844	41.64
833.021	168.62
833.198	80.55
833.374	117.42
833.551	51.88
833.728	62.12
833.905	88.75
834.082	88.75
834.259	103.08
834.436	101.03
834.612	117.42
834.789	199.34
834.966	119.46
835.143	119.46
835.319	96.94
835.496	113.32
835.673	105.13
835.85	105.13
836.026	66.22
836.203	137.9
836.38	96.94
836.556	88.75
836.733	84.65
836.909	146.09
837.086	113.32
837.262	88.75
837.439	117.42
837.616	82.6
837.792	174.76
837.968	123.56
838.145	96.94
838.321	74.41
838.498	166.57
838.674	101.03
838.851	105.13
839.027	37.55
839.203	113.32
839.38	76.46
839.556	90.79
839.732	60.07
839.909	39.59
840.085	76.46
840.261	121.51
840.437	55.98
840.614	101.03
840.79	135.85
840.966	141.99
841.142	84.65
841.318	88.75
841.494	105.13
841.671	105.13
841.847	135.85
842.023	0.68
842.199	84.65
842.375	84.65
842.551	-1.37
842.727	47.79
842.903	90.79
843.079	62.12
843.255	113.32
843.431	94.89
843.607	121.51
843.783	-1.37
843.959	74.41
844.134	37.55
844.31	121.51
844.486	94.89
844.662	45.74
844.838	45.74
845.013	64.17
845.189	80.55
845.365	88.75
845.541	76.46
845.716	64.17
845.892	94.89
846.068	101.03
846.244	17.07
846.419	92.84
846.595	31.4
846.77	125.61
846.946	117.42
847.122	58.03
847.297	70.31
847.473	31.4
847.648	64.17
847.824	121.51
847.999	76.46
848.175	80.55
848.35	76.46
848.526	141.99
848.701	74.41
848.876	39.59
849.052	64.17
849.227	58.03
849.403	58.03
849.578	139.94
849.753	55.98
849.929	66.22
850.104	-23.89
850.279	141.99
850.454	27.31
850.63	62.12
850.805	70.31
850.98	70.31
851.155	29.35
851.33	37.55
851.505	27.31
851.681	158.38
851.856	70.31
852.031	86.7
852.206	107.18
852.381	-1.37
852.556	86.7
852.731	72.36
852.906	8.87
853.081	101.03
853.256	76.46
853.431	101.03
853.606	-15.7
853.781	113.32
853.956	51.88
854.131	117.42
854.305	43.69
854.48	150.18
854.655	135.85
854.83	80.55
855.005	15.02
855.18	37.55
855.354	55.98
855.529	121.51
855.704	37.55
855.879	58.03
856.053	55.98
856.228	35.5
856.403	-3.41
856.577	84.65
856.752	51.88
856.926	27.31
857.101	70.31
857.276	25.26
857.45	72.36
857.625	127.66
857.799	107.18
857.974	43.69
858.148	43.69
858.323	60.07
858.497	43.69
858.672	0.68
858.846	86.7
859.02	105.13
859.195	-3.41
859.369	25.26
859.543	-3.41
859.718	51.88
859.892	76.46
860.066	70.31
860.241	21.16
860.415	76.46
860.589	-9.56
860.763	10.92
860.938	-50.52
861.112	86.7
861.286	23.21
861.46	27.31
861.634	47.79
861.808	129.7
861.982	37.55
862.157	27.31
862.331	-38.23
862.505	53.93
862.679	-17.75
862.853	21.16
863.027	-19.8
863.201	86.7
863.375	31.4
863.549	84.65
863.722	-3.41
863.896	139.94
864.07	-3.41
864.244	31.4
864.418	76.46
864.592	-32.08
864.766	15.02
864.939	94.89
865.113	-64.85
865.287	47.79
865.461	45.74
865.634	35.5
865.808	86.7
865.982	-17.75
866.156	35.5
866.329	92.84
866.503	41.64
866.676	72.36
866.85	74.41
867.024	2.73
867.197	37.55
867.371	80.55
867.544	39.59
867.718	37.55
867.891	10.92
868.065	4.78
868.238	60.07
868.412	37.55
868.585	64.17
868.759	115.37
868.932	64.17
869.105	-3.41
869.279	37.55
869.452	39.59
869.625	107.18
869.799	35.5
869.972	23.21
870.145	2.73
870.319	39.59
870.492	-11.61
870.665	35.5
870.838	-34.13
871.011	-44.37
871.185	21.16
871.358	-13.65
871.531	94.89
871.704	-11.61
871.877	-17.75
872.05	-1.37
872.223	21.16
872.396	-9.56
872.569	62.12
872.742	-23.89
872.915	25.26
873.088	41.64
873.261	23.21
873.434	4.78
873.607	94.89
873.78	-23.89
873.953	23.21
874.126	21.16
874.299	10.92
874.471	29.35
874.644	53.93
874.817	72.36
874.99	92.84
875.163	8.87
875.335	29.35
875.508	66.22
875.681	43.69
875.853	55.98
876.026	-38.23
876.199	72.36
876.371	55.98
876.544	-9.56
876.717	2.73
876.889	-23.89
877.062	39.59
877.234	-38.23
877.407	25.26
877.579	43.69
877.752	23.21
877.924	76.46
878.097	12.97
878.269	-21.85
878.442	0.68
878.614	-1.37
878.786	37.55
878.959	80.55
879.131	70.31
879.303	55.98
879.476	33.45
879.648	55.98
879.82	94.89
879.993	-13.65
880.165	-9.56
880.337	-7.51
880.509	47.79
880.681	70.31
880.854	-30.04
881.026	6.83
881.198	96.94
881.37	35.5
881.542	68.27
881.714	-21.85
881.886	8.87
882.058	103.08
882.23	4.78
882.402	4.78
882.574	33.45
882.746	35.5
882.918	47.79
883.09	64.17
883.262	47.79
883.434	125.61
883.606	-52.56
883.778	27.31
883.95	15.02
884.122	15.02
884.293	19.11
884.465	-17.75
884.637	94.89
884.809	62.12
884.98	0.68
885.152	-9.56
885.324	70.31
885.496	37.55
885.667	-21.85
885.839	-27.99
886.011	98.99
886.182	72.36
886.354	-15.7
886.525	25.26
886.697	66.22
886.869	-58.71
887.04	10.92
887.212	2.73
887.383	6.83
887.555	-34.13
887.726	53.93
887.897	47.79
888.069	17.07
888.24	17.07
888.412	23.21
888.583	60.07
888.754	43.69
888.926	-34.13
889.097	47.79
889.268	-23.89
889.44	-42.32
889.611	19.11
889.782	19.11
889.953	43.69
890.125	31.4
890.296	-52.56
890.467	47.79
890.638	-11.61
890.809	62.12
890.98	-30.04
891.151	15.02
891.323	-27.99
891.494	12.97
891.665	-25.94
891.836	64.17
892.007	-9.56
892.178	23.21
892.349	29.35
892.52	-66.9
892.691	35.5
892.862	-5.46
893.032	-3.41
893.203	49.83
893.374	51.88
893.545	4.78
893.716	6.83
893.887	60.07
894.057	-40.28
894.228	-30.04
894.399	23.21
894.57	76.46
894.74	19.11
894.911	27.31
895.082	-19.8
895.253	-3.41
895.423	-15.7
895.594	33.45
895.764	51.88
895.935	-11.61
896.106	45.74
896.276	4.78
896.447	-3.41
896.617	-25.94
896.788	-60.76
896.958	4.78
897.129	-1.37
897.299	19.11
897.47	96.94
897.64	96.94
897.81	-32.08
897.981	31.4
898.151	43.69
898.322	60.07
898.492	25.26
898.662	-9.56
898.832	45.74
899.003	-62.8
899.173	-19.8
899.343	-3.41
899.513	-7.51
