Data from USB4F104151__157__10-27-08-751.txt Node

Date: Wed Mar 12 10:27:08 EDT 2025
User: louis
Spectrometer: USB4F10415
Trigger mode: 4
Integration Time (sec): 3.000000E-2
Scans to average: 1
Electric dark correction enabled: true
Nonlinearity correction enabled: false
Boxcar width: 0
XAxis mode: Wavelengths
Number of Pixels in Spectrum: 3648
>>>>>Begin Spectral Data<<<<<
178.204	-147.28
178.424	-147.28
178.644	-147.28
178.864	-73.56
179.084	-159.57
179.304	20.65
179.524	4.27
179.744	6.31
179.964	-18.26
180.184	-20.31
180.404	26.79
180.624	32.94
180.844	-18.26
181.064	-36.69
181.283	-5.97
181.503	-28.5
181.723	37.03
181.943	-69.46
182.163	75.95
182.383	24.75
182.602	-30.55
182.822	0.17
183.042	24.75
183.262	14.51
183.482	-24.4
183.701	-20.31
183.921	69.8
184.141	-20.31
184.361	24.75
184.58	-63.32
184.8	65.71
185.02	2.22
185.239	-12.12
185.459	22.7
185.679	57.51
185.898	-16.21
186.118	71.85
186.338	16.55
186.557	-14.17
186.777	-24.4
186.997	14.51
187.216	-40.79
187.436	125.1
187.655	34.99
187.875	28.84
188.095	39.08
188.314	59.56
188.534	34.99
188.753	12.46
188.973	-8.02
189.192	59.56
189.412	-1.88
189.631	-24.4
189.851	43.18
190.07	32.94
190.29	-28.5
190.509	53.42
190.729	-28.5
190.948	51.37
191.168	118.95
191.387	77.99
191.607	24.75
191.826	-8.02
192.045	18.6
192.265	-48.98
192.484	73.9
192.704	61.61
192.923	-18.26
193.142	90.28
193.362	-16.21
193.581	61.61
193.8	39.08
194.02	118.95
194.239	49.32
194.458	41.13
194.678	53.42
194.897	37.03
195.116	-20.31
195.335	-61.27
195.555	71.85
195.774	10.41
195.993	28.84
196.212	-1.88
196.432	4.27
196.651	86.19
196.87	8.36
197.089	157.86
197.308	57.51
197.528	6.31
197.747	-69.46
197.966	-20.31
198.185	39.08
198.404	28.84
198.623	26.79
198.842	69.8
199.062	114.86
199.281	137.38
199.5	6.31
199.719	43.18
199.938	69.8
200.157	37.03
200.376	55.47
200.595	-46.93
200.814	-5.97
201.033	4.27
201.252	37.03
201.471	108.71
201.69	51.37
201.909	2.22
202.128	41.13
202.347	24.75
202.566	-5.97
202.785	-1.88
203.004	2.22
203.223	110.76
203.442	30.89
203.661	2.22
203.879	4.27
204.098	34.99
204.317	-53.08
204.536	49.32
204.755	80.04
204.974	28.84
205.193	14.51
205.411	127.14
205.63	55.47
205.849	16.55
206.068	14.51
206.287	24.75
206.505	53.42
206.724	-22.36
206.943	59.56
207.162	0.17
207.381	30.89
207.599	39.08
207.818	53.42
208.037	34.99
208.255	14.51
208.474	-3.93
208.693	-24.4
208.911	112.81
209.13	41.13
209.349	32.94
209.567	108.71
209.786	57.51
210.005	12.46
210.223	20.65
210.442	45.23
210.661	-3.93
210.879	0.17
211.098	16.55
211.316	2.22
211.535	92.33
211.753	-20.31
211.972	-42.84
212.191	18.6
212.409	16.55
212.628	57.51
212.846	0.17
213.065	77.99
213.283	37.03
213.502	-18.26
213.72	49.32
213.938	45.23
214.157	6.31
214.375	26.79
214.594	6.31
214.812	73.9
215.031	24.75
215.249	28.84
215.467	-20.31
215.686	102.57
215.904	4.27
216.122	30.89
216.341	106.67
216.559	43.18
216.778	51.37
216.996	53.42
217.214	-81.75
217.432	-26.45
217.651	39.08
217.869	65.71
218.087	14.51
218.306	-3.93
218.524	63.66
218.742	-1.88
218.96	63.66
219.179	12.46
219.397	61.61
219.615	129.19
219.833	20.65
220.051	24.75
220.27	90.28
220.488	-10.07
220.706	-3.93
220.924	39.08
221.142	24.75
221.36	-1.88
221.578	67.75
221.796	57.51
222.015	22.7
222.233	-1.88
222.451	41.13
222.669	45.23
222.887	88.23
223.105	24.75
223.323	-59.22
223.541	43.18
223.759	114.86
223.977	0.17
224.195	65.71
224.413	121
224.631	80.04
224.849	57.51
225.067	123.05
225.285	-100.18
225.503	30.89
225.721	-34.64
225.939	-22.36
226.157	12.46
226.375	112.81
226.592	-32.6
226.81	20.65
227.028	86.19
227.246	73.9
227.464	69.8
227.682	32.94
227.9	37.03
228.117	4.27
228.335	22.7
228.553	61.61
228.771	61.61
228.989	94.38
229.206	47.27
229.424	-14.17
229.642	-28.5
229.86	-12.12
230.077	24.75
230.295	12.46
230.513	49.32
230.731	-1.88
230.948	49.32
231.166	86.19
231.384	-38.74
231.601	88.23
231.819	63.66
232.037	65.71
232.254	-40.79
232.472	-1.88
232.689	59.56
232.907	73.9
233.125	32.94
233.342	86.19
233.56	8.36
233.777	16.55
233.995	34.99
234.213	67.75
234.43	51.37
234.648	41.13
234.865	32.94
235.083	80.04
235.3	-8.02
235.518	0.17
235.735	8.36
235.953	20.65
236.17	55.47
236.388	90.28
236.605	45.23
236.822	22.7
237.04	82.09
237.257	84.14
237.475	-42.84
237.692	14.51
237.909	-57.17
238.127	45.23
238.344	121
238.562	24.75
238.779	-18.26
238.996	-1.88
239.214	2.22
239.431	12.46
239.648	39.08
239.865	20.65
240.083	63.66
240.3	14.51
240.517	-18.26
240.735	82.09
240.952	75.95
241.169	34.99
241.386	-16.21
241.603	39.08
241.821	-51.03
242.038	28.84
242.255	6.31
242.472	37.03
242.689	18.6
242.907	0.17
243.124	28.84
243.341	73.9
243.558	41.13
243.775	53.42
243.992	26.79
244.209	65.71
244.426	100.52
244.643	6.31
244.86	75.95
245.078	47.27
245.295	32.94
245.512	37.03
245.729	14.51
245.946	63.66
246.163	24.75
246.38	-30.55
246.597	116.9
246.814	-18.26
247.031	16.55
247.248	57.51
247.464	77.99
247.681	-20.31
247.898	8.36
248.115	20.65
248.332	69.8
248.549	12.46
248.766	8.36
248.983	125.1
249.2	34.99
249.417	0.17
249.633	16.55
249.85	45.23
250.067	26.79
250.284	-3.93
250.501	45.23
250.717	2.22
250.934	-12.12
251.151	-46.93
251.368	39.08
251.585	14.51
251.801	-8.02
252.018	-8.02
252.235	2.22
252.451	-114.52
252.668	26.79
252.885	49.32
253.102	123.05
253.318	39.08
253.535	8.36
253.752	14.51
253.968	-38.74
254.185	-32.6
254.401	-53.08
254.618	55.47
254.835	55.47
255.051	43.18
255.268	86.19
255.484	57.51
255.701	-40.79
255.917	45.23
256.134	69.8
256.351	34.99
256.567	24.75
256.784	26.79
257	-34.64
257.217	-5.97
257.433	51.37
257.65	51.37
257.866	98.47
258.082	-34.64
258.299	-59.22
258.515	-1.88
258.732	-10.07
258.948	37.03
259.165	41.13
259.381	47.27
259.597	0.17
259.814	-8.02
260.03	-24.4
260.246	26.79
260.463	49.32
260.679	6.31
260.895	63.66
261.112	12.46
261.328	-16.21
261.544	-28.5
261.761	49.32
261.977	-3.93
262.193	16.55
262.409	0.17
262.626	24.75
262.842	49.32
263.058	32.94
263.274	8.36
263.49	73.9
263.707	98.47
263.923	-12.12
264.139	4.27
264.355	49.32
264.571	69.8
264.787	59.56
265.004	86.19
265.22	-12.12
265.436	-24.4
265.652	-16.21
265.868	-1.88
266.084	8.36
266.3	55.47
266.516	12.46
266.732	30.89
266.948	45.23
267.164	-3.93
267.38	24.75
267.596	14.51
267.812	71.85
268.028	88.23
268.244	57.51
268.46	32.94
268.676	69.8
268.892	32.94
269.108	-26.45
269.324	-48.98
269.54	14.51
269.756	57.51
269.972	51.37
270.188	37.03
270.403	77.99
270.619	12.46
270.835	53.42
271.051	51.37
271.267	-10.07
271.483	-18.26
271.698	71.85
271.914	-20.31
272.13	-26.45
272.346	75.95
272.562	-24.4
272.777	18.6
272.993	20.65
273.209	30.89
273.425	41.13
273.64	-20.31
273.856	2.22
274.072	0.17
274.287	34.99
274.503	57.51
274.719	18.6
274.934	41.13
275.15	-79.7
275.366	96.43
275.581	14.51
275.797	106.67
276.012	63.66
276.228	8.36
276.444	16.55
276.659	41.13
276.875	-67.41
277.09	6.31
277.306	-16.21
277.521	53.42
277.737	43.18
277.952	24.75
278.168	26.79
278.383	39.08
278.599	4.27
278.814	6.31
279.03	12.46
279.245	51.37
279.461	-42.84
279.676	59.56
279.892	-26.45
280.107	10.41
280.322	8.36
280.538	24.75
280.753	20.65
280.969	61.61
281.184	6.31
281.399	28.84
281.615	-44.88
281.83	37.03
282.045	32.94
282.26	-3.93
282.476	57.51
282.691	55.47
282.906	77.99
283.122	-28.5
283.337	8.36
283.552	-16.21
283.767	45.23
283.983	61.61
284.198	-10.07
284.413	84.14
284.628	-24.4
284.843	28.84
285.058	63.66
285.274	88.23
285.489	-16.21
285.704	77.99
285.919	22.7
286.134	37.03
286.349	-8.02
286.564	-20.31
286.779	69.8
286.995	67.75
287.21	26.79
287.425	-16.21
287.64	-32.6
287.855	43.18
288.07	-57.17
288.285	57.51
288.5	34.99
288.715	135.34
288.93	-5.97
289.145	112.81
289.36	63.66
289.575	49.32
289.79	49.32
290.004	63.66
290.219	49.32
290.434	32.94
290.649	-18.26
290.864	32.94
291.079	-42.84
291.294	51.37
291.509	8.36
291.724	26.79
291.938	59.56
292.153	-3.93
292.368	32.94
292.583	22.7
292.798	43.18
293.012	51.37
293.227	57.51
293.442	59.56
293.657	20.65
293.871	75.95
294.086	55.47
294.301	57.51
294.516	71.85
294.73	94.38
294.945	12.46
295.16	10.41
295.374	0.17
295.589	86.19
295.804	-26.45
296.018	12.46
296.233	65.71
296.447	73.9
296.662	24.75
296.877	96.43
297.091	69.8
297.306	77.99
297.52	86.19
297.735	65.71
297.949	28.84
298.164	43.18
298.378	49.32
298.593	61.61
298.807	-16.21
299.022	110.76
299.236	28.84
299.451	114.86
299.665	82.09
299.88	80.04
300.094	49.32
300.309	86.19
300.523	16.55
300.737	-16.21
300.952	75.95
301.166	75.95
301.381	53.42
301.595	-12.12
301.809	67.75
302.024	-12.12
302.238	37.03
302.452	61.61
302.667	37.03
302.881	110.76
303.095	67.75
303.309	-63.32
303.524	14.51
303.738	6.31
303.952	41.13
304.166	34.99
304.381	32.94
304.595	43.18
304.809	-53.08
305.023	0.17
305.237	137.38
305.452	41.13
305.666	18.6
305.88	24.75
306.094	32.94
306.308	0.17
306.522	30.89
306.736	39.08
306.95	49.32
307.164	20.65
307.379	4.27
307.593	30.89
307.807	55.47
308.021	57.51
308.235	-1.88
308.449	-22.36
308.663	28.84
308.877	24.75
309.091	4.27
309.305	75.95
309.519	-8.02
309.733	53.42
309.947	90.28
310.161	47.27
310.374	90.28
310.588	77.99
310.802	8.36
311.016	-14.17
311.23	63.66
311.444	49.32
311.658	41.13
311.872	57.51
312.085	24.75
312.299	8.36
312.513	69.8
312.727	121
312.941	-32.6
313.154	0.17
313.368	20.65
313.582	104.62
313.796	47.27
314.009	18.6
314.223	73.9
314.437	28.84
314.651	49.32
314.864	88.23
315.078	-51.03
315.292	-3.93
315.505	-3.93
315.719	86.19
315.933	49.32
316.146	37.03
316.36	80.04
316.573	69.8
316.787	-30.55
317.001	24.75
317.214	18.6
317.428	4.27
317.641	-12.12
317.855	37.03
318.068	73.9
318.282	24.75
318.495	139.43
318.709	63.66
318.922	-5.97
319.136	73.9
319.349	39.08
319.563	135.34
319.776	26.79
319.99	88.23
320.203	61.61
320.417	90.28
320.63	22.7
320.843	100.52
321.057	49.32
321.27	88.23
321.483	41.13
321.697	63.66
321.91	94.38
322.124	37.03
322.337	55.47
322.55	2.22
322.763	4.27
322.977	12.46
323.19	39.08
323.403	39.08
323.617	-1.88
323.83	118.95
324.043	0.17
324.256	45.23
324.469	-14.17
324.683	114.86
324.896	18.6
325.109	-22.36
325.322	12.46
325.535	43.18
325.748	94.38
325.962	-42.84
326.175	20.65
326.388	41.13
326.601	57.51
326.814	10.41
327.027	61.61
327.24	75.95
327.453	51.37
327.666	55.47
327.879	28.84
328.092	49.32
328.305	-69.46
328.518	32.94
328.731	98.47
328.944	49.32
329.157	61.61
329.37	69.8
329.583	133.29
329.796	34.99
330.009	14.51
330.222	16.55
330.435	63.66
330.648	34.99
330.861	41.13
331.073	80.04
331.286	30.89
331.499	75.95
331.712	16.55
331.925	63.66
332.138	75.95
332.35	37.03
332.563	-3.93
332.776	63.66
332.989	30.89
333.202	47.27
333.414	39.08
333.627	61.61
333.84	16.55
334.053	112.81
334.265	-24.4
334.478	77.99
334.691	-8.02
334.903	14.51
335.116	24.75
335.329	8.36
335.541	37.03
335.754	43.18
335.966	37.03
336.179	6.31
336.392	57.51
336.604	80.04
336.817	10.41
337.029	34.99
337.242	26.79
337.454	49.32
337.667	2.22
337.88	73.9
338.092	61.61
338.305	-28.5
338.517	57.51
338.729	94.38
338.942	92.33
339.154	28.84
339.367	-57.17
339.579	12.46
339.792	20.65
340.004	61.61
340.217	82.09
340.429	20.65
340.641	-38.74
340.854	-8.02
341.066	-46.93
341.278	28.84
341.491	100.52
341.703	86.19
341.915	20.65
342.128	71.85
342.34	63.66
342.552	45.23
342.764	-8.02
342.977	37.03
343.189	32.94
343.401	28.84
343.613	-8.02
343.826	59.56
344.038	-26.45
344.25	8.36
344.462	8.36
344.674	57.51
344.886	55.47
345.099	73.9
345.311	47.27
345.523	53.42
345.735	-8.02
345.947	28.84
346.159	59.56
346.371	-32.6
346.583	82.09
346.795	41.13
347.007	82.09
347.219	-14.17
347.431	37.03
347.643	57.51
347.855	59.56
348.067	108.71
348.279	0.17
348.491	123.05
348.703	53.42
348.915	45.23
349.127	6.31
349.339	67.75
349.551	61.61
349.763	57.51
349.975	-16.21
350.187	143.53
350.399	22.7
350.61	110.76
350.822	61.61
351.034	41.13
351.246	-34.64
351.458	67.75
351.669	84.14
351.881	77.99
352.093	55.47
352.305	51.37
352.517	49.32
352.728	63.66
352.94	45.23
353.152	51.37
353.363	8.36
353.575	82.09
353.787	49.32
353.999	32.94
354.21	-16.21
354.422	41.13
354.633	18.6
354.845	90.28
355.057	20.65
355.268	98.47
355.48	65.71
355.692	12.46
355.903	34.99
356.115	55.47
356.326	20.65
356.538	98.47
356.749	-14.17
356.961	118.95
357.172	4.27
357.384	39.08
357.595	94.38
357.807	118.95
358.018	-32.6
358.23	106.67
358.441	65.71
358.653	45.23
358.864	69.8
359.075	22.7
359.287	24.75
359.498	123.05
359.709	65.71
359.921	174.25
360.132	28.84
360.344	22.7
360.555	30.89
360.766	104.62
360.977	53.42
361.189	114.86
361.4	-24.4
361.611	63.66
361.823	32.94
362.034	98.47
362.245	-36.69
362.456	6.31
362.667	53.42
362.879	-12.12
363.09	18.6
363.301	8.36
363.512	51.37
363.723	67.75
363.935	24.75
364.146	73.9
364.357	65.71
364.568	114.86
364.779	-20.31
364.99	96.43
365.201	61.61
365.412	37.03
365.623	14.51
365.834	71.85
366.045	55.47
366.256	-5.97
366.467	63.66
366.678	61.61
366.889	77.99
367.1	24.75
367.311	-14.17
367.522	12.46
367.733	55.47
367.944	67.75
368.155	75.95
368.366	63.66
368.577	39.08
368.788	131.24
368.999	71.85
369.209	61.61
369.42	94.38
369.631	139.43
369.842	61.61
370.053	41.13
370.264	94.38
370.474	96.43
370.685	59.56
370.896	92.33
371.107	71.85
371.317	49.32
371.528	51.37
371.739	28.84
371.95	63.66
372.16	84.14
372.371	-20.31
372.582	82.09
372.792	-3.93
373.003	45.23
373.214	45.23
373.424	65.71
373.635	61.61
373.846	57.51
374.056	18.6
374.267	61.61
374.477	102.57
374.688	-24.4
374.898	100.52
375.109	102.57
375.319	67.75
375.53	59.56
375.74	80.04
375.951	82.09
376.161	41.13
376.372	-5.97
376.582	41.13
376.793	-12.12
377.003	71.85
377.214	0.17
377.424	43.18
377.635	41.13
377.845	77.99
378.055	53.42
378.266	65.71
378.476	61.61
378.686	51.37
378.897	108.71
379.107	16.55
379.317	137.38
379.528	30.89
379.738	182.44
379.948	-40.79
380.158	18.6
380.369	32.94
380.579	125.1
380.789	45.23
380.999	104.62
381.21	69.8
381.42	145.58
381.63	41.13
381.84	112.81
382.05	37.03
382.261	77.99
382.471	106.67
382.681	-28.5
382.891	94.38
383.101	51.37
383.311	-3.93
383.521	26.79
383.731	39.08
383.941	71.85
384.151	37.03
384.361	73.9
384.571	63.66
384.781	61.61
384.991	86.19
385.201	123.05
385.411	114.86
385.621	80.04
385.831	98.47
386.041	26.79
386.251	14.51
386.461	55.47
386.671	-1.88
386.881	24.75
387.091	24.75
387.301	51.37
387.511	69.8
387.72	86.19
387.93	121
388.14	37.03
388.35	80.04
388.56	118.95
388.769	98.47
388.979	86.19
389.189	63.66
389.399	69.8
389.609	41.13
389.818	94.38
390.028	39.08
390.238	86.19
390.447	34.99
390.657	14.51
390.867	30.89
391.076	37.03
391.286	92.33
391.496	0.17
391.705	108.71
391.915	118.95
392.125	82.09
392.334	63.66
392.544	43.18
392.753	90.28
392.963	63.66
393.172	114.86
393.382	16.55
393.591	63.66
393.801	59.56
394.01	211.11
394.22	110.76
394.429	92.33
394.639	65.71
394.848	69.8
395.058	147.62
395.267	43.18
395.477	73.9
395.686	164.01
395.895	164.01
396.105	176.3
396.314	100.52
396.524	149.67
396.733	110.76
396.942	164.01
397.152	77.99
397.361	127.14
397.57	51.37
397.78	73.9
397.989	147.62
398.198	98.47
398.407	180.39
398.617	184.49
398.826	88.23
399.035	149.67
399.244	125.1
399.453	84.14
399.663	65.71
399.872	82.09
400.081	65.71
400.29	108.71
400.499	37.03
400.708	153.77
400.917	149.67
401.127	82.09
401.336	90.28
401.545	176.3
401.754	194.73
401.963	200.87
402.172	82.09
402.381	131.24
402.59	57.51
402.799	96.43
403.008	151.72
403.217	202.92
403.426	151.72
403.635	112.81
403.844	121
404.053	73.9
404.262	178.34
404.471	188.58
404.68	194.73
404.888	118.95
405.097	155.82
405.306	172.2
405.515	215.21
405.724	221.35
405.933	270.5
406.142	176.3
406.35	180.39
406.559	219.3
406.768	106.67
406.977	209.06
407.185	213.16
407.394	174.25
407.603	184.49
407.812	231.59
408.02	270.5
408.229	262.31
408.438	286.89
408.646	172.2
408.855	202.92
409.064	262.31
409.272	262.31
409.481	313.51
409.69	268.45
409.898	329.89
410.107	368.81
410.315	262.31
410.524	354.47
410.733	336.04
410.941	323.75
411.15	327.85
411.358	403.62
411.567	448.68
411.775	508.07
411.984	364.71
412.192	452.77
412.401	467.11
412.609	512.16
412.818	549.03
413.026	540.83
413.234	546.98
413.443	508.07
413.651	538.79
413.86	559.27
414.068	585.89
414.276	708.77
414.485	524.45
414.693	747.68
414.901	776.35
415.11	735.39
415.318	723.1
415.526	747.68
415.734	823.45
415.943	932
416.151	884.89
416.359	858.27
416.567	917.66
416.776	1028.25
416.984	993.44
417.192	1028.25
417.4	1036.44
417.608	1003.68
417.817	1050.78
418.025	1130.65
418.233	1243.29
418.441	1194.14
418.649	1228.95
418.857	1355.93
419.065	1341.59
419.273	1364.12
419.481	1425.56
419.689	1513.62
419.897	1585.3
420.105	1650.83
420.313	1665.17
420.521	1663.12
420.729	1747.09
420.937	1857.68
421.145	1702.03
421.353	1972.36
421.561	1968.27
421.769	2152.59
421.977	2103.43
422.185	2109.58
422.393	2234.5
422.601	2349.19
422.809	2443.4
423.017	2336.9
423.224	2551.94
423.432	2502.79
423.64	2515.08
423.848	2793.6
424.056	2740.35
424.263	2947.2
424.471	2961.53
424.679	3022.97
424.887	3266.68
425.094	3397.75
425.302	3221.63
425.51	3455.09
425.718	3586.16
425.925	3612.79
426.133	3850.35
426.341	4012.14
426.548	4114.54
426.756	4114.54
426.964	4208.75
427.171	4468.84
427.379	4421.74
427.586	4567.14
427.794	4659.3
428.001	4814.95
428.209	5095.52
428.417	5095.52
428.624	5382.23
428.832	5431.38
429.039	5320.79
429.247	5496.92
429.454	5818.45
429.662	6461.51
429.869	5906.51
430.076	6363.21
430.284	5988.43
430.491	6588.49
430.699	6744.13
430.906	6733.89
431.114	6869.06
431.321	7114.81
431.528	7229.5
431.736	7727.16
431.943	7964.72
432.15	7766.07
432.358	7954.48
432.565	8382.51
432.772	8110.13
432.979	8683.56
433.187	8988.71
433.394	8910.88
433.601	9646.1
433.808	9508.89
434.016	9486.36
434.223	9932.82
434.43	10358.8
434.637	10248.21
434.844	10840.07
435.052	11098.11
435.259	10754.05
435.466	11190.27
435.673	11059.2
435.88	11905.01
436.087	12378.09
436.294	12470.25
436.501	12013.56
436.708	12193.78
436.915	12722.15
437.122	13422.56
437.329	13367.26
437.537	13705.18
437.743	13731.8
437.95	13869.02
438.157	14579.66
438.364	14940.1
438.571	14981.06
438.778	15009.73
438.985	16586.67
439.192	15892.41
439.399	16258.99
439.606	15757.24
439.813	16725.93
440.02	17858.46
440.227	17428.38
440.433	17379.23
440.64	18143.13
440.847	17520.54
441.054	18184.09
441.261	19412.87
441.467	19169.16
441.674	19437.44
441.881	19910.52
442.088	20053.88
442.294	19877.76
442.501	20588.4
442.708	21217.13
442.914	22013.79
443.121	22568.79
443.328	22128.47
443.534	23672.64
443.741	23035.72
443.948	22558.55
444.154	24409.91
444.361	24223.55
444.568	24346.42
444.774	24504.12
444.981	24608.56
445.187	25171.75
445.394	26175.26
445.6	25904.93
445.807	28503.8
446.013	27232.01
446.22	27844.35
446.426	28888.82
446.633	28765.94
446.839	29705.96
447.046	28915.44
447.252	29943.52
447.459	30263
447.665	29964
447.871	31483.59
448.078	32960.18
448.284	31168.21
448.491	31971.01
448.697	33506.99
448.903	34006.69
449.11	33488.56
449.316	33347.25
449.522	33945.25
449.728	34608.79
449.935	34926.23
450.141	35006.1
450.347	35548.81
450.553	34551.45
450.76	34899.61
450.966	35870.34
451.172	35485.33
451.378	36339.33
451.584	35716.75
451.791	36640.38
451.997	36281.99
452.203	37168.76
452.409	36923
452.615	36646.52
452.821	35108.5
453.027	34829.98
453.233	36937.34
453.44	35198.61
453.646	35743.37
453.852	35724.94
454.058	36351.62
454.264	34934.42
454.47	35643.02
454.676	34948.76
454.882	36136.58
455.088	32851.64
455.294	33535.66
455.5	33642.15
455.705	33992.36
455.911	32661.18
456.117	31999.68
456.323	31665.86
456.529	29949.67
456.735	31297.23
456.941	30310.11
457.147	29839.08
457.352	29187.82
457.558	28550.9
457.764	28647.16
457.97	28053.25
458.176	27475.72
458.381	27315.98
458.587	26390.3
458.793	26181.4
458.999	25085.74
459.204	26777.36
459.41	26009.37
459.616	24311.61
459.821	23998.27
460.027	24305.46
460.233	23240.52
460.438	22384.47
460.644	22591.31
460.85	21667.68
461.055	21374.82
461.261	21057.39
461.466	19603.33
461.672	19120.01
461.878	20469.62
462.083	18972.55
462.289	18837.39
462.494	18677.65
462.7	17995.67
462.905	17450.91
463.111	17862.55
463.316	17956.76
463.522	17719.2
463.727	17555.36
463.932	17536.93
464.138	17366.95
464.343	17575.84
464.549	17022.89
464.754	17717.15
464.959	17227.68
465.165	17332.13
465.37	16396.21
465.575	15957.94
465.781	16713.64
465.986	17033.13
466.191	16127.92
466.397	16105.4
466.602	15214.53
466.807	15738.81
467.012	15488.96
467.218	15609.79
467.423	15423.42
467.628	15718.33
467.833	16240.56
468.038	15669.18
468.244	15267.78
468.449	15775.67
468.654	15478.72
468.859	15083.46
469.064	14948.29
469.269	14561.23
469.474	14536.65
469.679	14686.15
469.885	14188.5
470.09	14493.65
470.295	14378.96
470.5	13946.84
470.705	14208.98
470.91	13795.29
471.115	13764.57
471.32	13985.75
471.525	13875.16
471.73	13645.79
471.935	13631.45
472.139	13053.92
472.344	13178.85
472.549	13244.38
472.754	13066.21
472.959	12654.57
473.164	12527.6
473.369	12462.06
473.574	12769.26
473.778	12482.54
473.983	12578.79
474.188	12554.22
474.393	11706.36
474.598	11905.01
474.802	11929.59
475.007	11710.46
475.212	11720.7
475.417	11366.4
475.621	11448.32
475.826	11272.19
476.031	11028.48
476.235	10725.38
476.44	11122.69
476.645	10965
476.849	11114.5
477.054	10883.08
477.259	10655.75
477.463	10766.34
477.668	10416.14
477.872	10487.82
478.077	10274.83
478.282	9963.54
478.486	10051.6
478.691	9906.2
478.895	9986.07
479.1	9777.17
479.304	10098.7
479.509	9707.54
479.713	9779.22
479.918	9676.82
480.122	9439.26
480.326	9685.01
480.531	9478.17
480.735	9420.83
480.94	9361.44
481.144	9666.58
481.348	9326.62
481.553	9336.86
481.757	9123.87
481.961	9240.61
482.166	9517.08
482.37	9320.48
482.574	9023.52
482.778	9209.89
482.983	9420.83
483.187	9314.33
483.391	9263.13
483.595	9261.09
483.8	9025.57
484.004	9259.04
484.208	9377.82
484.412	9238.56
484.616	9220.13
484.821	9320.48
485.025	8904.74
485.229	9336.86
485.433	9295.9
485.637	9426.97
485.841	9164.83
486.045	9222.17
486.249	9306.14
486.453	9160.73
486.657	9138.21
486.861	9216.03
487.065	8992.8
487.269	8982.56
487.473	9142.3
487.677	9132.06
487.881	9338.91
488.085	9162.78
488.289	9457.69
488.493	9250.85
488.697	9316.38
488.901	9390.11
489.105	9306.14
489.309	9334.81
489.512	9517.08
489.716	9306.14
489.92	9369.63
490.124	9429.02
490.328	9402.4
490.531	9654.3
490.735	9576.47
490.939	9467.93
491.143	9386.01
491.346	9488.41
491.55	9578.52
491.754	9498.65
491.958	9707.54
492.161	9732.12
492.365	9623.58
492.569	9807.89
492.772	9705.49
492.976	10065.94
493.18	9787.41
493.383	10063.89
493.587	9922.58
493.79	10270.73
493.994	10219.53
494.197	10264.59
494.401	10405.9
494.605	10287.12
494.808	10649.61
495.012	10606.6
495.215	10551.31
495.419	10752.01
495.622	10772.49
495.825	10833.93
496.029	10760.2
496.232	10852.36
496.436	10856.45
496.639	11436.03
496.843	11200.51
497.046	11384.83
497.249	11675.64
497.453	11487.23
497.656	11692.02
497.859	11522.04
498.063	11872.25
498.266	12281.84
498.469	12226.54
498.673	12328.94
498.876	12376.05
499.079	12689.39
499.282	12572.65
499.485	12816.36
499.689	12947.43
499.892	13133.79
500.095	13297.63
500.298	13596.64
500.501	13234.14
500.705	13785.05
500.908	13793.24
501.111	14004.18
501.314	14186.45
501.517	14395.34
501.72	14505.93
501.923	14370.77
502.126	14700.49
502.329	15085.51
502.532	14890.95
502.735	15091.65
502.938	15409.09
503.141	15427.52
503.344	15654.84
503.547	15704
503.75	16048.05
503.953	16275.38
504.156	16533.42
504.359	17061.8
504.562	16666.54
504.765	16955.3
504.968	17082.28
505.17	16994.22
505.373	17229.73
505.576	17674.14
505.779	17999.77
505.982	17926.04
506.185	18341.78
506.387	18313.11
506.59	18610.06
506.793	18806.67
506.996	18759.56
507.198	19515.26
507.401	19347.33
507.604	19564.42
507.807	19959.67
508.009	20209.53
508.212	20187
508.415	20385.65
508.617	20578.16
508.82	20631.41
509.022	20574.06
509.225	21094.25
509.428	21446.5
509.63	21739.36
509.833	21858.14
510.035	22341.46
510.238	22058.84
510.44	22275.93
510.643	22607.7
510.845	23185.22
511.048	22734.67
511.25	23041.87
511.453	23375.69
511.655	24186.68
511.858	23885.63
512.06	24213.31
512.262	24457.01
512.465	24555.32
512.667	25083.69
512.87	24839.98
513.072	24979.25
513.274	25411.37
513.477	25708.32
513.679	25734.95
513.881	26335
514.084	26400.54
514.286	26492.69
514.488	26963.73
514.69	27588.36
514.893	27518.73
515.095	27870.98
515.297	28239.61
515.499	28149.5
515.701	28536.57
515.904	29253.36
516.106	29245.16
516.308	29470.44
516.51	29615.85
516.712	30062.3
516.914	30191.33
517.116	30676.69
517.318	30887.64
517.52	30990.03
517.722	31041.23
517.925	31508.17
518.127	32009.92
518.329	31796.93
518.531	31794.89
518.733	32708.28
518.935	32534.2
519.136	32919.22
519.338	33361.58
519.54	33578.67
519.742	33879.72
519.944	33638.06
520.146	34487.96
520.348	34608.79
520.55	34694.81
520.752	34928.28
520.954	35534.48
521.155	34987.67
521.357	35530.38
521.559	36212.35
521.761	36542.08
521.963	36529.79
522.164	36679.29
522.366	36527.74
522.568	37299.83
522.77	37222
522.971	38061.67
523.173	37912.17
523.375	38395.49
523.576	38446.69
523.778	38346.34
523.98	38647.39
524.181	39048.79
524.383	39052.89
524.584	39601.74
524.786	39487.06
524.988	39335.51
525.189	39931.47
525.391	40160.84
525.592	40484.42
525.794	40619.58
525.995	40572.48
526.197	41080.38
526.398	40945.21
526.6	41266.74
526.801	41582.13
527.003	41150.01
527.204	41549.36
527.406	42118.7
527.607	41901.61
527.808	42438.18
528.01	41721.39
528.211	42362.4
528.412	42896.92
528.614	43146.78
528.815	42829.34
529.016	43367.96
529.218	42692.13
529.419	43337.24
529.62	43589.14
529.822	42927.64
530.023	43419.16
530.224	43494.93
530.425	43570.71
530.626	43259.41
530.828	43093.53
531.029	44582.4
531.23	44094.99
531.431	43484.69
531.632	43843.09
531.833	44396.04
532.035	44008.97
532.236	44203.53
532.437	44582.4
532.638	44109.32
532.839	44379.65
533.04	44504.58
533.241	44062.22
533.442	44598.79
533.643	44439.04
533.844	44428.8
534.045	44832.25
534.246	44232.2
534.447	44787.2
534.648	44447.24
534.849	44731.9
535.05	44334.6
535.251	44400.13
535.451	44594.69
535.652	44871.17
535.853	44606.98
536.054	44887.55
536.255	45026.81
536.456	44297.73
536.657	45262.33
536.857	44451.33
537.058	44455.43
537.259	45213.18
537.46	45209.08
537.66	44789.25
537.861	44430.85
538.062	44516.87
538.263	44989.95
538.463	44731.9
538.664	44713.47
538.865	44914.17
539.065	45188.6
539.266	44267.02
539.466	44914.17
539.667	44451.33
539.868	45266.42
540.068	44807.68
540.269	44568.07
540.469	45209.08
540.67	44434.95
540.87	44791.3
541.071	44518.92
541.271	44887.55
541.472	44541.44
541.672	44688.9
541.873	44260.87
542.073	43896.33
542.274	45196.79
542.474	44752.38
542.675	44783.1
542.875	44971.52
543.075	44807.68
543.276	44107.27
543.476	44484.1
543.676	44418.56
543.877	44817.92
544.077	44492.29
544.277	44551.68
544.478	44527.11
544.678	44502.53
544.878	44746.24
545.078	44549.63
545.279	44156.42
545.479	44238.34
545.679	44832.25
545.879	44197.38
546.079	44568.07
546.28	44586.5
546.48	43927.05
546.68	44615.17
546.88	44719.62
547.08	44416.52
547.28	44332.55
547.48	43922.96
547.68	44465.67
547.88	44178.95
548.081	44393.99
548.281	44461.57
548.481	44170.76
548.681	44594.69
548.881	44533.25
549.081	44070.41
549.28	44213.77
549.48	44713.47
549.68	44387.85
549.88	44582.4
550.08	43959.82
550.28	44172.81
550.48	44140.04
550.68	44287.49
550.88	44137.99
551.08	44148.23
551.279	44267.02
551.479	43628.05
551.679	44156.42
551.879	43951.63
552.079	43736.59
552.278	43970.06
552.478	44305.93
552.678	44021.26
552.878	44473.86
553.077	44103.18
553.277	43669.01
553.477	44430.85
553.676	44199.43
553.876	43918.86
554.076	43908.62
554.275	43867.66
554.475	43443.73
554.674	43972.11
554.874	43857.42
555.074	43423.25
555.273	44150.28
555.473	44348.93
555.672	43349.53
555.872	43560.47
556.071	43476.5
556.271	43615.76
556.47	43746.83
556.67	43615.76
556.869	42905.12
557.068	43431.44
557.268	43089.43
557.467	42784.29
557.667	43189.78
557.866	42819.1
558.065	43193.88
558.265	42612.26
558.464	42851.87
558.663	43423.25
558.863	42413.6
559.062	43247.13
559.261	41993.77
559.461	43339.29
559.66	42098.22
559.859	42628.64
560.058	42274.34
560.258	42249.77
560.457	41907.76
560.656	42673.7
560.855	41948.71
561.054	42413.6
561.253	41713.2
561.453	42120.74
561.652	42270.25
561.851	42509.86
562.05	41692.72
562.249	41623.09
562.448	41891.37
562.647	41831.98
562.846	41524.79
563.045	41743.92
563.244	41328.18
563.443	41438.77
563.642	40859.2
563.841	41244.21
564.04	41141.81
564.239	41403.95
564.438	41051.7
564.637	41160.25
564.836	41158.2
565.035	40738.37
565.234	40967.74
565.432	40488.51
565.631	40388.16
565.83	40519.23
566.029	40345.16
566.228	40447.55
566.427	40080.97
566.625	39640.65
566.824	39173.72
567.023	40437.31
567.222	39671.37
567.42	40324.68
567.619	39794.25
567.818	39743.05
568.016	39491.15
568.215	39831.11
568.414	39302.74
568.612	39497.3
568.811	38960.73
569.01	39138.9
569.208	38520.41
569.407	39458.38
569.605	38760.03
569.804	38823.51
570.002	38884.95
570.201	38233.7
570.4	38567.52
570.598	38358.63
570.797	38164.07
570.995	38088.29
571.193	37510.77
571.392	38577.76
571.59	37867.11
571.789	37830.25
571.987	37713.52
572.186	37582.45
572.384	37287.54
572.582	37910.12
572.781	37271.15
572.979	37123.7
573.177	37213.81
573.376	37521.01
573.574	37017.21
573.772	37465.71
573.971	36947.57
574.169	36669.05
574.367	36783.74
574.565	36968.05
574.763	36345.47
574.962	36351.62
575.16	36296.32
575.358	36595.32
575.556	35661.45
575.754	36302.46
575.952	35583.63
576.151	36046.47
576.349	35317.39
576.547	35358.35
576.745	35833.48
576.943	35661.45
577.141	35417.74
577.339	35327.63
577.537	34999.96
577.735	35333.78
577.933	34883.22
578.131	35415.69
578.329	34848.41
578.527	34367.13
578.725	34739.86
578.923	34657.95
579.121	34252.45
579.319	34256.54
579.516	34653.85
579.714	34625.18
579.912	34135.71
580.11	34287.26
580.308	34172.58
580.506	34117.28
580.704	33502.89
580.901	34117.28
581.099	33912.49
581.297	33447.6
581.495	33175.22
581.692	33906.34
581.89	33283.76
582.088	33613.48
582.285	33558.19
582.483	33531.56
582.681	33019.57
582.878	32978.61
583.076	32718.52
583.274	32919.22
583.471	32360.12
583.669	32878.26
583.866	32558.78
584.064	32626.36
584.262	32239.29
584.459	32851.64
584.657	32220.86
584.854	32323.26
585.052	31792.84
585.249	32237.25
585.447	31870.66
585.644	31567.56
585.841	31522.51
586.039	31782.6
586.236	31459.02
586.434	31370.96
586.631	31098.58
586.828	31252.17
587.026	31426.25
587.223	31299.28
587.42	31102.67
587.618	30871.25
587.815	30918.35
588.012	30701.27
588.21	30445.27
588.407	30879.44
588.604	30318.3
588.801	30342.88
588.999	30275.29
589.196	30035.68
589.393	30240.48
589.59	30238.43
589.787	29976.29
589.984	29863.65
590.182	29816.55
590.379	29888.23
590.576	29832.93
590.773	29665
590.97	29181.68
591.167	29615.85
591.364	29220.59
591.561	29112.05
591.758	29142.77
591.955	29349.61
592.152	29296.36
592.349	29312.75
592.546	29167.34
592.743	29030.13
592.94	28280.57
593.137	28841.71
593.334	28714.74
593.531	28319.48
593.727	28452.6
593.924	28698.36
594.121	27975.42
594.318	28288.76
594.515	27879.17
594.712	28522.23
594.908	27911.94
595.105	28083.97
595.302	27782.91
595.499	27672.32
595.696	27684.61
595.892	27549.45
596.089	27684.61
596.286	27698.95
596.482	27451.14
596.679	27131.66
596.876	27225.87
597.072	27295.5
597.269	27320.07
597.466	26601.24
597.662	26797.84
597.859	27000.59
598.055	27150.09
598.252	26482.45
598.448	26767.12
598.645	26636.05
598.841	26613.52
599.038	26400.54
599.234	26253.08
599.431	26124.06
599.627	26345.24
599.824	26085.15
600.02	25880.35
600.217	26228.51
600.413	25814.82
600.609	25732.9
600.806	25481
601.002	25777.95
601.198	25507.62
601.395	25640.74
601.591	25194.28
601.787	25327.4
601.984	25341.74
602.18	25315.11
602.376	25055.02
602.572	24954.67
602.769	25173.8
602.965	24819.5
603.161	25014.06
603.357	24614.71
603.553	24670
603.75	24670
603.946	24573.75
604.142	24479.54
604.338	24211.26
604.534	24604.47
604.73	24168.25
604.926	24377.14
605.122	24399.67
605.318	24188.73
605.514	23695.17
605.71	23627.59
605.906	23672.64
606.102	23725.89
606.298	23572.29
606.494	23746.37
606.69	23611.2
606.886	24039.23
607.082	23158.6
607.278	23760.7
607.474	22927.18
607.67	23676.74
607.866	23080.78
608.062	23461.7
608.257	22910.8
608.453	23242.57
608.649	23060.3
608.845	22867.79
609.041	22892.37
609.236	23062.35
609.432	22576.98
609.628	22820.69
609.824	22671.18
610.019	22867.79
610.215	22650.71
610.411	22652.75
610.606	22488.92
610.802	22486.87
610.998	22681.42
611.193	22466.39
611.389	22222.68
611.584	21954.4
611.78	22044.51
611.976	22325.08
612.171	22118.23
612.367	22118.23
612.562	22064.99
612.758	21856.09
612.953	21718.88
613.149	22077.27
613.344	21729.12
613.539	22048.6
613.735	21612.38
613.93	21634.91
614.126	21632.86
614.321	21604.19
614.517	21546.85
614.712	21571.43
614.907	21552.99
615.103	21503.84
615.298	21380.96
615.493	21557.09
615.688	21049.19
615.884	21501.79
616.079	21249.89
616.274	21434.21
616.47	21190.5
616.665	21129.06
616.86	20795.25
617.055	21002.09
617.25	20944.75
617.445	20977.51
617.641	20715.37
617.836	20850.54
618.031	20406.13
618.226	20529.01
618.421	20625.26
618.616	20834.16
618.811	20871.02
619.006	20545.39
619.201	19928.95
619.396	20275.06
619.591	20146.04
619.786	19756.93
619.981	20000.63
620.176	20156.28
620.371	19865.47
620.566	19842.94
620.761	19695.49
620.956	19838.84
621.151	19302.28
621.346	19466.11
621.541	19384.19
621.735	19357.57
621.93	18851.72
622.125	19128.2
622.32	18540.43
622.515	18984.84
622.709	18464.66
622.904	18859.91
623.099	18675.6
623.294	18530.19
623.488	18298.77
623.683	18214.8
623.878	18276.24
624.072	18288.53
624.267	17876.89
624.462	17956.76
624.656	17815.45
624.851	17655.71
625.046	17645.47
625.24	17612.7
625.435	17350.56
625.629	17541.02
625.824	17158.05
626.018	17254.31
626.213	16766.89
626.407	17156
626.602	17033.13
626.796	16900.01
626.991	16813.99
627.185	16439.22
627.38	16443.31
627.574	16455.6
627.768	16187.32
627.963	16254.9
628.157	16185.27
628.352	16201.65
628.546	15927.22
628.74	16021.43
628.935	15882.17
629.129	16107.44
629.323	15564.73
629.517	15712.19
629.712	15617.98
629.906	15523.77
630.1	15339.46
630.294	15284.16
630.489	15120.32
630.683	15228.87
630.877	15089.6
631.071	14782.41
631.265	15019.97
631.459	14780.36
631.653	14813.13
631.848	14704.59
632.042	14260.18
632.236	14534.6
632.43	14462.93
632.624	14276.56
632.818	14301.14
633.012	14010.32
633.206	14004.18
633.4	14266.32
633.594	13694.94
633.788	13768.66
633.982	13948.89
634.176	13991.89
634.369	13557.72
634.563	13621.21
634.757	13404.13
634.951	13684.7
635.145	13563.87
635.339	13414.37
635.533	13205.47
635.726	13115.36
635.92	13062.12
636.114	13029.35
636.308	12992.48
636.501	12986.34
636.695	12836.84
636.889	12654.57
637.083	12632.04
637.276	12584.94
637.47	12601.32
637.664	12496.88
637.857	12533.74
638.051	12390.38
638.244	12378.09
638.438	12279.79
638.632	11997.17
638.825	11974.64
639.019	11755.51
639.212	11874.29
639.406	11948.02
639.599	11855.86
639.793	11812.85
639.986	11487.23
640.18	11730.94
640.373	11579.39
640.567	11546.62
640.76	11427.84
640.954	11259.9
641.147	11141.12
641.34	11329.53
641.534	11173.89
641.727	11186.18
641.92	10924.04
642.114	11118.59
642.307	10956.8
642.5	10833.93
642.694	10506.25
642.887	10743.81
643.08	10729.48
643.273	10530.83
643.467	10432.52
643.66	10559.5
643.853	10436.62
644.046	10360.84
644.239	10559.5
644.432	10154
644.626	10360.84
644.819	10049.55
645.012	9861.14
645.205	10117.14
645.398	10053.65
645.591	10031.12
645.784	9844.76
645.977	9697.3
646.17	9768.98
646.363	9697.3
646.556	9476.12
646.749	9543.71
646.942	9644.06
647.135	9644.06
647.328	9504.79
647.521	9252.89
647.714	9326.62
647.907	9510.94
648.099	9101.34
648.292	9127.97
648.485	9121.82
648.678	9044
648.871	8874.02
649.064	9119.78
649.256	8943.65
649.449	8781.86
649.642	8843.3
649.835	8552.49
650.027	8871.97
650.22	8476.71
650.413	8474.67
650.605	8661.03
650.798	8642.6
650.991	8390.7
651.183	8544.3
651.376	8179.76
651.568	8464.43
651.761	8376.36
651.954	8349.74
652.146	8235.05
652.339	8177.71
652.531	8171.57
652.724	8024.11
652.916	8036.4
653.109	7964.72
653.301	7841.84
653.494	8165.42
653.686	7774.26
653.879	7888.95
654.071	7780.4
654.263	7716.92
654.456	7649.33
654.648	7665.72
654.84	7585.85
655.033	7694.39
655.225	7610.42
655.417	7530.55
655.61	7626.81
655.802	7456.82
655.994	7219.26
656.186	7438.39
656.379	7264.32
656.571	7276.6
656.763	7209.02
656.955	7372.86
657.148	7090.24
657.34	7217.21
657.532	6991.94
657.724	6953.02
657.916	7065.66
658.108	7073.85
658.3	6914.11
658.492	6930.5
658.684	6791.24
658.876	6694.98
659.068	6613.06
659.26	6864.96
659.452	6772.8
659.644	6791.24
659.836	6527.05
660.028	6496.33
660.22	6555.72
660.412	6426.7
660.604	6447.18
660.796	6414.41
660.988	6469.7
661.18	6361.16
661.372	6436.94
661.563	6461.51
661.755	5990.48
661.947	6260.81
662.139	6201.42
662.331	6131.79
662.522	6129.74
662.714	5984.34
662.906	5937.23
663.097	5847.12
663.289	6088.78
663.481	5793.87
663.673	5814.35
663.864	5873.75
664.056	5814.35
664.247	5740.63
664.439	5763.15
664.631	5707.86
664.822	5785.68
665.014	5656.66
665.205	5591.13
665.397	5599.32
665.588	5709.91
665.78	5570.65
665.971	5447.77
666.163	5439.58
666.354	5316.7
666.546	5525.59
666.737	5376.09
666.929	5417.05
667.12	5523.54
667.311	5492.82
667.503	5183.58
667.694	5314.65
667.885	5193.82
668.077	5308.51
668.268	5273.69
668.459	5042.27
668.651	5161.05
668.842	4954.21
669.033	5120.09
669.224	5003.36
669.416	5001.31
669.607	5052.51
669.798	5042.27
669.989	5093.47
670.18	4999.26
670.371	4866.14
670.563	4866.14
670.754	4816.99
670.945	4853.86
671.136	4855.9
671.327	4784.23
671.518	4706.4
671.709	4763.75
671.9	4835.42
672.091	4739.17
672.282	4751.46
672.473	4577.38
672.664	4644.96
672.855	4595.81
673.046	4526.18
673.237	4710.5
673.428	4563.05
673.619	4485.22
673.809	4536.42
674	4618.34
674.191	4415.59
674.382	4335.72
674.573	4415.59
674.764	4388.97
674.954	4571.24
675.145	4395.11
675.336	4352.1
675.527	4313.19
675.717	4264.04
675.908	4315.24
676.099	4309.1
676.289	4165.74
676.48	4147.31
676.671	4270.19
676.861	4055.15
677.052	4063.34
677.243	4206.7
677.433	4135.02
677.624	4130.92
677.814	4085.87
678.005	3981.42
678.195	4096.11
678.386	4079.72
678.576	4010.09
678.767	4038.77
678.957	3975.28
679.148	4034.67
679.338	4063.34
679.529	3915.89
679.719	3870.83
679.909	3913.84
680.1	3985.52
680.29	3981.42
680.481	3924.08
680.671	3960.94
680.861	3819.63
681.052	3948.65
681.242	3778.67
681.432	3807.34
681.622	3772.53
681.813	3813.49
682.003	3854.45
682.193	3711.09
682.383	3850.35
682.573	3709.04
682.764	3733.62
682.954	3846.26
683.144	3627.12
683.334	3717.23
683.524	3580.02
683.714	3881.07
683.904	3633.27
684.094	3635.32
684.284	3643.51
684.474	3643.51
684.664	3512.44
684.854	3706.99
685.044	3475.57
685.234	3561.59
685.424	3684.47
685.614	3537.01
685.804	3575.92
685.994	3602.55
686.184	3643.51
686.374	3393.65
686.564	3412.09
686.753	3405.94
686.943	3434.61
687.133	3508.34
687.323	3375.22
687.513	3399.8
687.702	3418.23
687.892	3448.95
688.082	3346.55
688.272	3371.13
688.461	3403.89
688.651	3440.76
688.841	3195
689.03	3285.11
689.22	3293.3
689.41	3260.54
689.599	3225.72
689.789	3330.17
689.979	3272.82
690.168	3090.56
690.358	3274.87
690.547	3182.71
690.737	3166.33
690.926	3215.48
691.116	2994.3
691.305	3199.1
691.495	3131.51
691.684	2951.29
691.874	3039.36
692.063	3131.51
692.252	3080.32
692.442	3106.94
692.631	3061.88
692.82	2998.4
693.01	3053.69
693.199	2990.21
693.388	2908.29
693.578	2969.73
693.767	2992.25
693.956	3018.88
694.146	3070.08
694.335	2998.4
694.524	3010.68
694.713	3029.12
694.902	3035.26
695.092	2973.82
695.281	2996.35
695.47	2834.56
695.659	2818.18
695.848	2965.63
696.037	2859.14
696.226	2879.61
696.415	2889.85
696.604	2926.72
696.793	2928.77
696.982	2777.22
697.171	2908.29
697.36	2906.24
697.549	2871.42
697.738	2818.18
697.927	2879.61
698.116	2760.83
698.305	2871.42
698.494	2877.57
698.683	2822.27
698.872	2939.01
699.061	2764.93
699.25	2871.42
699.438	2842.75
699.627	2859.14
699.816	2838.66
700.005	2883.71
700.193	2936.96
700.382	2902.14
700.571	2742.4
700.76	2887.81
700.948	2855.04
701.137	2959.49
701.326	2846.85
701.514	2889.85
701.703	2852.99
701.892	2773.12
702.08	2855.04
702.269	2889.85
702.457	2883.71
702.646	2830.46
702.834	2867.33
703.023	2840.7
703.212	2789.5
703.4	2715.78
703.589	2867.33
703.777	2973.82
703.965	2824.32
704.154	2723.97
704.342	2807.94
704.531	2887.81
704.719	2809.98
704.907	2846.85
705.096	2816.13
705.284	2828.42
705.472	2891.9
705.661	2711.68
705.849	2791.55
706.037	2900.09
706.226	2865.28
706.414	2824.32
706.602	2771.07
706.79	2807.94
706.979	2852.99
707.167	2726.02
707.355	2879.61
707.543	2898.05
707.731	2801.79
707.919	2789.5
708.107	2707.59
708.296	2826.37
708.484	2918.53
708.672	2670.72
708.86	2807.94
709.048	2711.68
709.236	2760.83
709.424	2721.92
709.612	2687.11
709.8	2820.22
709.988	2793.6
710.176	2742.4
710.364	2816.13
710.551	2773.12
710.739	2805.89
710.927	2881.66
711.115	2756.74
711.303	2754.69
711.491	2766.98
711.679	2687.11
711.866	2656.39
712.054	2801.79
712.242	2713.73
712.43	2764.93
712.617	2736.26
712.805	2652.29
712.993	2769.02
713.181	2619.52
713.368	2812.03
713.556	2783.36
713.744	2793.6
713.931	2834.56
714.119	2736.26
714.306	2654.34
714.494	2764.93
714.682	2689.15
714.869	2637.95
715.057	2666.63
715.244	2619.52
715.432	2836.61
715.619	2758.78
715.807	2660.48
715.994	2748.54
716.182	2576.52
716.369	2736.26
716.556	2693.25
716.744	2642.05
716.931	2656.39
717.119	2881.66
717.306	2818.18
717.493	2687.11
717.681	2830.46
717.868	2734.21
718.055	2646.15
718.242	2793.6
718.43	2594.95
718.617	2689.15
718.804	2742.4
718.991	2635.91
719.179	2666.63
719.366	2662.53
719.553	2805.89
719.74	2707.59
719.927	2637.95
720.114	2580.61
720.301	2590.85
720.488	2500.74
720.676	2535.56
720.863	2670.72
721.05	2646.15
721.237	2683.01
721.424	2637.95
721.611	2662.53
721.798	2605.19
721.985	2687.11
722.172	2590.85
722.358	2576.52
722.545	2678.91
722.732	2476.16
722.919	2660.48
723.106	2560.13
723.293	2564.23
723.48	2502.79
723.667	2592.9
723.853	2498.69
724.04	2629.76
724.227	2412.68
724.414	2457.73
724.6	2388.1
724.787	2558.08
724.974	2586.76
725.161	2560.13
725.347	2472.07
725.534	2629.76
725.72	2568.32
725.907	2513.03
726.094	2670.72
726.28	2609.28
726.467	2373.77
726.653	2482.31
726.84	2586.76
727.027	2515.08
727.213	2472.07
727.4	2549.89
727.586	2453.64
727.773	2437.25
727.959	2508.93
728.145	2467.97
728.332	2537.6
728.518	2506.88
728.705	2365.57
728.891	2539.65
729.077	2429.06
729.264	2441.35
729.45	2388.1
729.636	2394.25
729.823	2418.82
730.009	2474.12
730.195	2467.97
730.382	2461.83
730.568	2392.2
730.754	2453.64
730.94	2474.12
731.126	2416.77
731.313	2449.54
731.499	2467.97
731.685	2490.5
731.871	2445.45
732.057	2338.95
732.243	2437.25
732.429	2363.53
732.615	2418.82
732.801	2302.09
732.987	2257.03
733.173	2341
733.359	2316.42
733.545	2375.81
733.731	2349.19
733.917	2310.28
734.103	2326.66
734.289	2314.38
734.475	2287.75
734.661	2244.74
734.847	2226.31
735.033	2371.72
735.219	2271.37
735.404	2236.55
735.59	2181.26
735.776	2226.31
735.962	2203.79
736.148	2140.3
736.333	2171.02
736.519	2142.35
736.705	2171.02
736.89	2216.07
737.076	2130.06
737.262	2144.39
737.447	2211.98
737.633	2191.5
737.819	2293.9
738.004	2128.01
738.19	2115.72
738.375	2125.96
738.561	2168.97
738.747	2250.89
738.932	2224.26
739.118	2177.16
739.303	2070.67
739.489	2107.53
739.674	2078.86
739.859	2138.25
740.045	2068.62
740.23	2101.39
740.416	2064.52
740.601	2052.24
740.786	2058.38
740.972	2171.02
741.157	2033.8
741.342	2082.95
741.528	1982.6
741.713	2007.18
741.898	1953.93
742.084	1998.99
742.269	1982.6
742.454	1966.22
742.639	1933.45
742.824	1992.84
743.01	1931.41
743.195	1941.65
743.38	1886.35
743.565	1884.3
743.75	1835.15
743.935	1829.01
744.12	1874.06
744.305	1861.77
744.49	1886.35
744.675	1806.48
744.86	1792.14
745.045	1839.25
745.23	1843.34
745.415	1745.04
745.6	1874.06
745.785	1706.13
745.97	1855.63
746.155	1732.75
746.34	1755.28
746.525	1757.33
746.71	1882.25
746.895	1841.29
747.079	1726.61
747.264	1759.38
747.449	1687.7
747.634	1679.51
747.819	1775.76
748.003	1605.78
748.188	1689.74
748.373	1556.63
748.557	1613.97
748.742	1491.09
748.927	1648.79
749.111	1577.11
749.296	1626.26
749.481	1575.06
749.665	1464.47
749.85	1568.91
750.034	1624.21
750.219	1519.76
750.404	1472.66
750.588	1556.63
750.773	1472.66
750.957	1548.44
751.141	1376.41
751.326	1407.13
751.51	1376.41
751.695	1454.23
751.879	1423.51
752.064	1452.18
752.248	1427.6
752.432	1497.24
752.617	1433.75
752.801	1370.26
752.985	1415.32
753.17	1368.21
753.354	1353.88
753.538	1357.97
753.722	1327.25
753.907	1343.64
754.091	1249.43
754.275	1286.3
754.459	1368.21
754.643	1278.1
754.828	1319.06
755.012	1355.93
755.196	1212.57
755.38	1276.06
755.564	1267.86
755.748	1261.72
755.932	1304.73
756.116	1271.96
756.3	1204.38
756.484	1233.05
756.668	1259.67
756.852	1206.42
757.036	1267.86
757.22	1249.43
757.404	1130.65
757.588	1147.03
757.772	1218.71
757.956	1026.2
758.14	1140.89
758.323	1077.4
758.507	1130.65
758.691	1175.7
758.875	1134.75
759.059	1267.86
759.242	1065.11
759.426	1050.78
759.61	1087.64
759.794	1155.23
759.977	1177.75
760.161	1073.31
760.345	1089.69
760.528	1130.65
760.712	1013.92
760.895	1108.12
761.079	1056.92
761.263	1077.4
761.446	1024.16
761.63	1032.35
761.813	1026.2
761.997	1001.63
762.18	962.72
762.364	995.48
762.547	1020.06
762.731	1042.59
762.914	1015.96
763.098	1038.49
763.281	903.32
763.464	917.66
763.648	1042.59
763.831	934.04
764.015	934.04
764.198	1020.06
764.381	948.38
764.564	1020.06
764.748	897.18
764.931	954.52
765.114	942.24
765.297	934.04
765.481	929.95
765.664	987.29
765.847	868.51
766.03	1024.16
766.213	905.37
766.397	960.67
766.58	1007.77
766.763	958.62
766.946	815.26
767.129	952.48
767.312	901.28
767.495	862.37
767.678	864.41
767.861	852.13
768.044	878.75
768.227	905.37
768.41	942.24
768.593	985.24
768.776	843.93
768.959	899.23
769.142	866.46
769.324	854.17
769.507	835.74
769.69	903.32
769.873	811.17
770.056	915.61
770.239	843.93
770.421	854.17
770.604	960.67
770.787	839.84
770.97	809.12
771.152	802.97
771.335	897.18
771.518	772.25
771.7	825.5
771.883	811.17
772.066	800.93
772.248	778.4
772.431	786.59
772.613	843.93
772.796	757.92
772.978	868.51
773.161	839.84
773.343	753.82
773.526	729.25
773.708	827.55
773.891	727.2
774.073	729.25
774.256	762.02
774.438	870.56
774.621	735.39
774.803	729.25
774.985	719.01
775.168	708.77
775.35	698.53
775.532	778.4
775.715	684.19
775.897	682.14
776.079	757.92
776.261	739.49
776.444	696.48
776.626	671.9
776.808	680.1
776.99	749.73
777.173	637.09
777.355	706.72
777.537	616.61
777.719	655.52
777.901	643.23
778.083	682.14
778.265	555.17
778.447	649.38
778.629	630.95
778.811	659.62
778.993	649.38
779.175	721.06
779.357	635.04
779.539	671.9
779.721	653.47
779.903	637.09
780.085	647.33
780.267	596.13
780.449	610.47
780.631	639.14
780.812	673.95
780.994	594.08
781.176	532.64
781.358	585.89
781.54	487.59
781.721	561.31
781.903	540.83
782.085	585.89
782.267	608.42
782.448	534.69
782.63	473.25
782.812	532.64
782.993	510.11
783.175	483.49
783.357	426.15
783.538	577.7
783.72	497.83
783.901	510.11
784.083	442.53
784.264	430.24
784.446	448.68
784.627	473.25
784.809	467.11
784.99	471.2
785.172	442.53
785.353	442.53
785.535	409.76
785.716	450.72
785.897	436.39
786.079	424.1
786.26	450.72
786.441	467.11
786.623	448.68
786.804	338.09
786.985	372.9
787.167	385.19
787.348	465.06
787.529	358.57
787.71	391.33
787.891	444.58
788.073	409.76
788.254	338.09
788.435	501.92
788.616	415.91
788.797	430.24
788.978	393.38
789.159	360.61
789.34	440.48
789.522	338.09
789.703	340.13
789.884	452.77
790.065	399.52
790.246	436.39
790.427	327.85
790.607	372.9
790.788	450.72
790.969	364.71
791.15	389.28
791.331	368.81
791.512	331.94
791.693	260.26
791.874	377
792.054	333.99
792.235	342.18
792.416	338.09
792.597	266.41
792.778	491.68
792.958	284.84
793.139	258.21
793.32	417.96
793.5	350.37
793.681	323.75
793.862	284.84
794.042	254.12
794.223	286.89
794.404	305.32
794.584	262.31
794.765	317.61
794.945	333.99
795.126	225.45
795.306	387.24
795.487	276.65
795.667	307.37
795.848	356.52
796.028	256.17
796.209	325.8
796.389	280.74
796.57	284.84
796.75	317.61
796.93	278.69
797.111	278.69
797.291	290.98
797.471	235.69
797.652	338.09
797.832	307.37
798.012	366.76
798.192	229.54
798.373	237.74
798.553	213.16
798.733	262.31
798.913	223.4
799.093	254.12
799.274	321.7
799.454	217.26
799.634	358.57
799.814	305.32
799.994	254.12
800.174	247.97
800.354	331.94
800.534	213.16
800.714	266.41
800.894	237.74
801.074	180.39
801.254	254.12
801.434	223.4
801.614	245.93
801.794	233.64
801.974	786.59
802.154	231.59
802.334	286.89
802.514	258.21
802.693	223.4
802.873	247.97
803.053	278.69
803.233	180.39
803.413	198.82
803.592	188.58
803.772	219.3
803.952	223.4
804.131	204.97
804.311	182.44
804.491	278.69
804.67	196.78
804.85	204.97
805.03	182.44
805.209	256.17
805.389	184.49
805.568	247.97
805.748	135.34
805.928	168.1
806.107	284.84
806.287	168.1
806.466	196.78
806.646	209.06
806.825	161.96
807.004	194.73
807.184	209.06
807.363	207.02
807.543	217.26
807.722	188.58
807.901	176.3
808.081	309.41
808.26	180.39
808.439	190.63
808.619	209.06
808.798	198.82
808.977	207.02
809.156	164.01
809.336	129.19
809.515	184.49
809.694	155.82
809.873	145.58
810.052	223.4
810.231	250.02
810.411	145.58
810.59	170.15
810.769	170.15
810.948	121
811.127	188.58
811.306	207.02
811.485	182.44
811.664	143.53
811.843	190.63
812.022	188.58
812.201	170.15
812.38	182.44
812.559	123.05
812.737	272.55
812.916	41.13
813.095	114.86
813.274	106.67
813.453	166.06
813.632	112.81
813.811	149.67
813.989	49.32
814.168	141.48
814.347	131.24
814.526	137.38
814.704	168.1
814.883	172.2
815.062	147.62
815.24	174.25
815.419	114.86
815.598	129.19
815.776	30.89
815.955	180.39
816.133	155.82
816.312	168.1
816.49	88.23
816.669	151.72
816.847	123.05
817.026	166.06
817.204	143.53
817.383	168.1
817.561	65.71
817.74	116.9
817.918	96.43
818.097	73.9
818.275	131.24
818.453	188.58
818.632	104.62
818.81	82.09
818.988	147.62
819.167	86.19
819.345	184.49
819.523	96.43
819.701	106.67
819.879	213.16
820.058	127.14
820.236	135.34
820.414	141.48
820.592	125.1
820.77	94.38
820.948	123.05
821.127	104.62
821.305	98.47
821.483	106.67
821.661	127.14
821.839	114.86
822.017	82.09
822.195	143.53
822.373	90.28
822.551	98.47
822.729	125.1
822.907	80.04
823.085	84.14
823.262	106.67
823.44	94.38
823.618	65.71
823.796	80.04
823.974	82.09
824.152	86.19
824.329	114.86
824.507	116.9
824.685	127.14
824.863	116.9
825.04	16.55
825.218	127.14
825.396	92.33
825.574	147.62
825.751	106.67
825.929	147.62
826.107	131.24
826.284	125.1
826.462	123.05
826.639	110.76
826.817	112.81
826.994	200.87
827.172	65.71
827.349	102.57
827.527	168.1
827.704	90.28
827.882	59.56
828.059	77.99
828.237	59.56
828.414	141.48
828.591	55.47
828.769	82.09
828.946	86.19
829.124	110.76
829.301	153.77
829.478	55.47
829.655	149.67
829.833	34.99
830.01	20.65
830.187	32.94
830.364	61.61
830.542	86.19
830.719	65.71
830.896	129.19
831.073	114.86
831.25	123.05
831.427	98.47
831.604	92.33
831.782	71.85
831.959	65.71
832.136	100.52
832.313	106.67
832.49	47.27
832.667	51.37
832.844	55.47
833.021	151.72
833.198	43.18
833.374	69.8
833.551	34.99
833.728	65.71
833.905	116.9
834.082	16.55
834.259	102.57
834.436	34.99
834.612	55.47
834.789	110.76
834.966	104.62
835.143	80.04
835.319	39.08
835.496	32.94
835.673	77.99
835.85	88.23
836.026	30.89
836.203	121
836.38	73.9
836.556	57.51
836.733	57.51
836.909	77.99
837.086	22.7
837.262	37.03
837.439	20.65
837.616	8.36
837.792	34.99
837.968	172.2
838.145	69.8
838.321	82.09
838.498	114.86
838.674	-20.31
838.851	77.99
839.027	73.9
839.203	108.71
839.38	116.9
839.556	32.94
839.732	65.71
839.909	24.75
840.085	-8.02
840.261	112.81
840.437	106.67
840.614	24.75
840.79	121
840.966	63.66
841.142	-3.93
841.318	-32.6
841.494	104.62
841.671	55.47
841.847	123.05
842.023	45.23
842.199	24.75
842.375	26.79
842.551	-8.02
842.727	8.36
842.903	110.76
843.079	90.28
843.255	90.28
843.431	24.75
843.607	149.67
843.783	4.27
843.959	6.31
844.134	73.9
844.31	73.9
844.486	137.38
844.662	-53.08
844.838	110.76
845.013	90.28
845.189	69.8
845.365	121
845.541	51.37
845.716	123.05
845.892	37.03
846.068	18.6
846.244	67.75
846.419	51.37
846.595	45.23
846.77	71.85
846.946	-8.02
847.122	28.84
847.297	59.56
847.473	20.65
847.648	18.6
847.824	88.23
847.999	32.94
848.175	20.65
848.35	114.86
848.526	59.56
848.701	96.43
848.876	112.81
849.052	8.36
849.227	4.27
849.403	26.79
849.578	2.22
849.753	45.23
849.929	59.56
850.104	37.03
850.279	26.79
850.454	12.46
850.63	92.33
850.805	-12.12
850.98	18.6
851.155	57.51
851.33	102.57
851.505	-18.26
851.681	112.81
851.856	61.61
852.031	2.22
852.206	49.32
852.381	16.55
852.556	-12.12
852.731	59.56
852.906	69.8
853.081	10.41
853.256	82.09
853.431	-8.02
853.606	-18.26
853.781	39.08
853.956	0.17
854.131	39.08
854.305	-34.64
854.48	39.08
854.655	-34.64
854.83	22.7
855.005	34.99
855.18	28.84
855.354	-18.26
855.529	65.71
855.704	-1.88
855.879	14.51
856.053	-16.21
856.228	51.37
856.403	-48.98
856.577	0.17
856.752	67.75
856.926	-79.7
857.101	41.13
857.276	-1.88
857.45	-57.17
857.625	-24.4
857.799	53.42
857.974	61.61
858.148	-12.12
858.323	73.9
858.497	39.08
858.672	-16.21
858.846	-34.64
859.02	32.94
859.195	4.27
859.369	73.9
859.543	65.71
859.718	-5.97
859.892	20.65
860.066	6.31
860.241	22.7
860.415	-12.12
860.589	24.75
860.763	57.51
860.938	30.89
861.112	26.79
861.286	-51.03
861.46	55.47
861.634	30.89
861.808	0.17
861.982	8.36
862.157	26.79
862.331	47.27
862.505	-10.07
862.679	-26.45
862.853	49.32
863.027	-8.02
863.201	57.51
863.375	63.66
863.549	-20.31
863.722	-12.12
863.896	10.41
864.07	-10.07
864.244	41.13
864.418	65.71
864.592	22.7
864.766	37.03
864.939	24.75
865.113	-44.88
865.287	73.9
865.461	53.42
865.634	61.61
865.808	41.13
865.982	-44.88
866.156	-36.69
866.329	-5.97
866.503	-57.17
866.676	-34.64
866.85	-20.31
867.024	12.46
867.197	-46.93
867.371	53.42
867.544	0.17
867.718	51.37
867.891	73.9
868.065	0.17
868.238	-61.27
868.412	8.36
868.585	57.51
868.759	37.03
868.932	8.36
869.105	4.27
869.279	-20.31
869.452	45.23
869.625	16.55
869.799	-8.02
869.972	26.79
870.145	6.31
870.319	-40.79
870.492	49.32
870.665	-67.41
870.838	73.9
871.011	-79.7
871.185	24.75
871.358	-30.55
871.531	43.18
871.704	37.03
871.877	53.42
872.05	65.71
872.223	2.22
872.396	-8.02
872.569	6.31
872.742	-1.88
872.915	-16.21
873.088	-8.02
873.261	10.41
873.434	41.13
873.607	-32.6
873.78	77.99
873.953	-28.5
874.126	-10.07
874.299	-20.31
874.471	63.66
874.644	-32.6
874.817	-12.12
874.99	41.13
875.163	-44.88
875.335	57.51
875.508	-46.93
875.681	34.99
875.853	-5.97
876.026	-20.31
876.199	-28.5
876.371	-16.21
876.544	10.41
876.717	-38.74
876.889	-20.31
877.062	39.08
877.234	0.17
877.407	82.09
877.579	0.17
877.752	45.23
877.924	8.36
878.097	6.31
878.269	-3.93
878.442	32.94
878.614	-34.64
878.786	57.51
878.959	49.32
879.131	-42.84
879.303	-14.17
879.476	12.46
879.648	8.36
879.82	-36.69
879.993	8.36
880.165	8.36
880.337	-30.55
880.509	-26.45
880.681	-73.56
880.854	-40.79
881.026	69.8
881.198	82.09
881.37	41.13
881.542	-53.08
881.714	2.22
881.886	43.18
882.058	14.51
882.23	-3.93
882.402	4.27
882.574	41.13
882.746	80.04
882.918	96.43
883.09	41.13
883.262	20.65
883.434	-42.84
883.606	20.65
883.778	-98.13
883.95	100.52
884.122	-8.02
884.293	61.61
884.465	47.27
884.637	69.8
884.809	2.22
884.98	12.46
885.152	57.51
885.324	61.61
885.496	6.31
885.667	4.27
885.839	8.36
886.011	-40.79
886.182	22.7
886.354	20.65
886.525	-12.12
886.697	-63.32
886.869	-36.69
887.04	28.84
887.212	28.84
887.383	80.04
887.555	30.89
887.726	18.6
887.897	-5.97
888.069	-14.17
888.24	-16.21
888.412	32.94
888.583	26.79
888.754	28.84
888.926	-57.17
889.097	30.89
889.268	34.99
889.44	-8.02
889.611	-8.02
889.782	0.17
889.953	-53.08
890.125	82.09
890.296	-55.12
890.467	20.65
890.638	-10.07
890.809	12.46
890.98	6.31
891.151	22.7
891.323	2.22
891.494	61.61
891.665	-1.88
891.836	-24.4
892.007	28.84
892.178	32.94
892.349	-10.07
892.52	0.17
892.691	-12.12
892.862	-18.26
893.032	-69.46
893.203	8.36
893.374	32.94
893.545	2.22
893.716	-26.45
893.887	51.37
894.057	20.65
894.228	12.46
894.399	-10.07
894.57	94.38
894.74	-8.02
894.911	12.46
895.082	121
895.253	12.46
895.423	16.55
895.594	24.75
895.764	-1.88
895.935	-18.26
896.106	-20.31
896.276	24.75
896.447	57.51
896.617	34.99
896.788	-61.27
896.958	-24.4
897.129	-73.56
897.299	-18.26
897.47	8.36
897.64	106.67
897.81	-32.6
897.981	41.13
898.151	28.84
898.322	8.36
898.492	-48.98
898.662	-38.74
898.832	8.36
899.003	-32.6
899.173	2.22
899.343	63.66
899.513	-87.89
