Data from USB4F104151__227__10-30-16-501.txt Node

Date: Wed Mar 12 10:30:16 EDT 2025
User: louis
Spectrometer: USB4F10415
Trigger mode: 4
Integration Time (sec): 3.000000E-2
Scans to average: 1
Electric dark correction enabled: true
Nonlinearity correction enabled: false
Boxcar width: 0
XAxis mode: Wavelengths
Number of Pixels in Spectrum: 3648
>>>>>Begin Spectral Data<<<<<
178.204	-129.02
178.424	-129.02
178.644	-129.02
178.864	-147.45
179.084	-106.49
179.304	-12.29
179.524	57.34
179.744	-34.82
179.964	-26.62
180.184	-43.01
180.404	-22.53
180.624	16.38
180.844	51.2
181.064	45.06
181.283	-10.24
181.503	4.1
181.723	-24.58
181.943	-43.01
182.163	151.55
182.383	6.14
182.602	40.96
182.822	49.15
183.042	40.96
183.262	28.67
183.482	8.19
183.701	57.34
183.921	-69.63
184.141	14.34
184.361	67.58
184.58	-2.05
184.8	51.2
185.02	4.1
185.239	40.96
185.459	45.06
185.679	12.29
185.898	6.14
186.118	112.64
186.338	18.43
186.557	32.77
186.777	-51.2
186.997	2.05
187.216	-16.38
187.436	53.25
187.655	51.2
187.875	20.48
188.095	0
188.314	67.58
188.534	57.34
188.753	-38.91
188.973	34.82
189.192	59.39
189.412	114.69
189.631	-4.1
189.851	-8.19
190.07	0
190.29	-6.14
190.509	-4.1
190.729	81.92
190.948	16.38
191.168	96.25
191.387	-24.58
191.607	-24.58
191.826	20.48
192.045	24.58
192.265	40.96
192.484	36.86
192.704	-30.72
192.923	-51.2
193.142	122.88
193.362	-24.58
193.581	65.54
193.8	55.3
194.02	61.44
194.239	24.58
194.458	67.58
194.678	4.1
194.897	51.2
195.116	0
195.335	-36.86
195.555	-32.77
195.774	-2.05
195.993	20.48
196.212	-88.06
196.432	-65.53
196.651	-2.05
196.87	69.63
197.089	92.16
197.308	67.58
197.528	67.58
197.747	14.34
197.966	-40.96
198.185	59.39
198.404	-28.67
198.623	0
198.842	38.91
199.062	8.19
199.281	124.93
199.5	-49.15
199.719	75.77
199.938	-14.34
200.157	88.06
200.376	-8.19
200.595	24.58
200.814	-49.15
201.033	49.15
201.252	-24.58
201.471	-14.34
201.69	67.58
201.909	-10.24
202.128	8.19
202.347	-10.24
202.566	-30.72
202.785	-65.53
203.004	-14.34
203.223	102.4
203.442	8.19
203.661	73.73
203.879	28.67
204.098	28.67
204.317	-65.53
204.536	43.01
204.755	10.24
204.974	40.96
205.193	83.97
205.411	-4.1
205.63	-8.19
205.849	71.68
206.068	2.05
206.287	38.91
206.505	24.58
206.724	43.01
206.943	43.01
207.162	53.25
207.381	77.82
207.599	16.38
207.818	-71.68
208.037	40.96
208.255	45.06
208.474	14.34
208.693	47.1
208.911	57.34
209.13	61.44
209.349	10.24
209.567	40.96
209.786	106.49
210.005	-12.29
210.223	24.58
210.442	-2.05
210.661	10.24
210.879	-16.38
211.098	38.91
211.316	10.24
211.535	47.1
211.753	75.77
211.972	45.06
212.191	45.06
212.409	4.1
212.628	22.53
212.846	71.68
213.065	-26.62
213.283	28.67
213.502	20.48
213.72	30.72
213.938	75.77
214.157	-4.1
214.375	12.29
214.594	47.1
214.812	-16.38
215.031	20.48
215.249	4.1
215.467	20.48
215.686	-8.19
215.904	49.15
216.122	20.48
216.341	26.62
216.559	-40.96
216.778	47.1
216.996	34.82
217.214	90.11
217.432	47.1
217.651	65.54
217.869	-8.19
218.087	-2.05
218.306	34.82
218.524	34.82
218.742	-24.58
218.96	83.97
219.179	4.1
219.397	18.43
219.615	26.62
219.833	32.77
220.051	47.1
220.27	67.58
220.488	-26.62
220.706	57.34
220.924	38.91
221.142	16.38
221.36	-2.05
221.578	57.34
221.796	16.38
222.015	-12.29
222.233	-18.43
222.451	92.16
222.669	4.1
222.887	55.3
223.105	14.34
223.323	-14.34
223.541	24.58
223.759	-12.29
223.977	-4.1
224.195	49.15
224.413	32.77
224.631	38.91
224.849	6.14
225.067	65.54
225.285	8.19
225.503	69.63
225.721	-8.19
225.939	30.72
226.157	-16.38
226.375	40.96
226.592	-61.44
226.81	24.58
227.028	26.62
227.246	77.82
227.464	-24.58
227.682	24.58
227.9	28.67
228.117	61.44
228.335	0
228.553	32.77
228.771	40.96
228.989	94.21
229.206	77.82
229.424	8.19
229.642	57.34
229.86	-32.77
230.077	12.29
230.295	22.53
230.513	10.24
230.731	-10.24
230.948	43.01
231.166	4.1
231.384	83.97
231.601	32.77
231.819	75.77
232.037	-24.58
232.254	67.58
232.472	14.34
232.689	43.01
232.907	69.63
233.125	40.96
233.342	16.38
233.56	-6.14
233.777	12.29
233.995	-55.3
234.213	-12.29
234.43	57.34
234.648	24.58
234.865	4.1
235.083	100.35
235.3	24.58
235.518	75.77
235.735	71.68
235.953	45.06
236.17	14.34
236.388	-34.82
236.605	73.73
236.822	83.97
237.04	18.43
237.257	28.67
237.475	-16.38
237.692	92.16
237.909	8.19
238.127	-2.05
238.344	81.92
238.562	47.1
238.779	2.05
238.996	8.19
239.214	-38.91
239.431	26.62
239.648	47.1
239.865	69.63
240.083	-14.34
240.3	30.72
240.517	-43.01
240.735	26.62
240.952	61.44
241.169	43.01
241.386	55.3
241.603	45.06
241.821	45.06
242.038	73.73
242.255	65.54
242.472	-53.25
242.689	14.34
242.907	20.48
243.124	65.54
243.341	-2.05
243.558	-4.1
243.775	10.24
243.992	40.96
244.209	69.63
244.426	98.3
244.643	159.74
244.86	-16.38
245.078	-10.24
245.295	57.34
245.512	45.06
245.729	-6.14
245.946	53.25
246.163	24.58
246.38	47.1
246.597	73.73
246.814	18.43
247.031	36.86
247.248	8.19
247.464	69.63
247.681	12.29
247.898	8.19
248.115	83.97
248.332	-6.14
248.549	32.77
248.766	45.06
248.983	12.29
249.2	18.43
249.417	69.63
249.633	55.3
249.85	73.73
250.067	22.53
250.284	104.45
250.501	20.48
250.717	86.01
250.934	0
251.151	34.82
251.368	0
251.585	55.3
251.801	63.49
252.018	32.77
252.235	22.53
252.451	8.19
252.668	26.62
252.885	-30.72
253.102	-6.14
253.318	38.91
253.535	22.53
253.752	-24.58
253.968	-2.05
254.185	40.96
254.401	-4.1
254.618	-16.38
254.835	67.58
255.051	-28.67
255.268	-6.14
255.484	12.29
255.701	88.06
255.917	-8.19
256.134	-30.72
256.351	110.59
256.567	2.05
256.784	-12.29
257	-26.62
257.217	-8.19
257.433	88.06
257.65	24.58
257.866	16.38
258.082	20.48
258.299	-22.53
258.515	45.06
258.732	75.77
258.948	0
259.165	-8.19
259.381	-53.25
259.597	-14.34
259.814	-51.2
260.03	-24.58
260.246	-12.29
260.463	40.96
260.679	49.15
260.895	24.58
261.112	57.34
261.328	36.86
261.544	16.38
261.761	81.92
261.977	14.34
262.193	-32.77
262.409	65.54
262.626	61.44
262.842	-63.49
263.058	51.2
263.274	14.34
263.49	67.58
263.707	67.58
263.923	36.86
264.139	-14.34
264.355	-6.14
264.571	20.48
264.787	55.3
265.004	40.96
265.22	12.29
265.436	14.34
265.652	-49.15
265.868	28.67
266.084	26.62
266.3	30.72
266.516	-8.19
266.732	6.14
266.948	94.21
267.164	81.92
267.38	-24.58
267.596	53.25
267.812	2.05
268.028	139.26
268.244	47.1
268.46	77.82
268.676	45.06
268.892	81.92
269.108	2.05
269.324	49.15
269.54	49.15
269.756	24.58
269.972	-32.77
270.188	22.53
270.403	28.67
270.619	53.25
270.835	36.86
271.051	28.67
271.267	-24.58
271.483	14.34
271.698	57.34
271.914	104.45
272.13	18.43
272.346	38.91
272.562	38.91
272.777	63.49
272.993	18.43
273.209	40.96
273.425	-8.19
273.64	-10.24
273.856	12.29
274.072	-30.72
274.287	81.92
274.503	26.62
274.719	73.73
274.934	55.3
275.15	-53.25
275.366	38.91
275.581	6.14
275.797	53.25
276.012	30.72
276.228	28.67
276.444	92.16
276.659	79.87
276.875	26.62
277.09	36.86
277.306	32.77
277.521	26.62
277.737	26.62
277.952	40.96
278.168	40.96
278.383	49.15
278.599	81.92
278.814	-20.48
279.03	55.3
279.245	67.58
279.461	88.06
279.676	63.49
279.892	-10.24
280.107	8.19
280.322	92.16
280.538	26.62
280.753	-20.48
280.969	79.87
281.184	45.06
281.399	55.3
281.615	38.91
281.83	86.01
282.045	-16.38
282.26	-32.77
282.476	40.96
282.691	32.77
282.906	49.15
283.122	32.77
283.337	36.86
283.552	45.06
283.767	38.91
283.983	69.63
284.198	61.44
284.413	2.05
284.628	-83.97
284.843	-22.53
285.058	24.58
285.274	-10.24
285.489	-51.2
285.704	57.34
285.919	14.34
286.134	88.06
286.349	32.77
286.564	-20.48
286.779	81.92
286.995	-6.14
287.21	40.96
287.425	-6.14
287.64	32.77
287.855	69.63
288.07	61.44
288.285	-20.48
288.5	69.63
288.715	67.58
288.93	32.77
289.145	28.67
289.36	55.3
289.575	-8.19
289.79	69.63
290.004	90.11
290.219	4.1
290.434	63.49
290.649	49.15
290.864	-49.15
291.079	26.62
291.294	122.88
291.509	-63.49
291.724	92.16
291.938	-16.38
292.153	10.24
292.368	0
292.583	90.11
292.798	0
293.012	81.92
293.227	53.25
293.442	14.34
293.657	22.53
293.871	57.34
294.086	-26.62
294.301	-4.1
294.516	141.31
294.73	32.77
294.945	32.77
295.16	28.67
295.374	77.82
295.589	10.24
295.804	-2.05
296.018	73.73
296.233	122.88
296.447	67.58
296.662	-40.96
296.877	59.39
297.091	14.34
297.306	53.25
297.52	-12.29
297.735	51.2
297.949	53.25
298.164	45.06
298.378	12.29
298.593	16.38
298.807	57.34
299.022	53.25
299.236	49.15
299.451	45.06
299.665	-43.01
299.88	18.43
300.094	69.63
300.309	65.54
300.523	51.2
300.737	38.91
300.952	14.34
301.166	16.38
301.381	36.86
301.595	24.58
301.809	16.38
302.024	-16.38
302.238	47.1
302.452	30.72
302.667	-79.87
302.881	114.69
303.095	47.1
303.309	-16.38
303.524	34.82
303.738	98.3
303.952	8.19
304.166	8.19
304.381	-79.87
304.595	65.54
304.809	86.01
305.023	90.11
305.237	38.91
305.452	110.59
305.666	94.21
305.88	81.92
306.094	55.3
306.308	122.88
306.522	32.77
306.736	118.78
306.95	-14.34
307.164	47.1
307.379	-71.68
307.593	61.44
307.807	24.58
308.021	38.91
308.235	43.01
308.449	-16.38
308.663	22.53
308.877	114.69
309.091	73.73
309.305	98.3
309.519	12.29
309.733	16.38
309.947	-22.53
310.161	57.34
310.374	36.86
310.588	30.72
310.802	71.68
311.016	-16.38
311.23	36.86
311.444	45.06
311.658	4.1
311.872	86.01
312.085	73.73
312.299	112.64
312.513	63.49
312.727	38.91
312.941	-26.62
313.154	8.19
313.368	-40.96
313.582	10.24
313.796	34.82
314.009	26.62
314.223	114.69
314.437	-16.38
314.651	100.35
314.864	26.62
315.078	79.87
315.292	10.24
315.505	12.29
315.719	47.1
315.933	98.3
316.146	22.53
316.36	45.06
316.573	73.73
316.787	49.15
317.001	30.72
317.214	-36.86
317.428	131.07
317.641	40.96
317.855	-65.53
318.068	45.06
318.282	45.06
318.495	43.01
318.709	96.25
318.922	16.38
319.136	90.11
319.349	49.15
319.563	69.63
319.776	40.96
319.99	-12.29
320.203	34.82
320.417	55.3
320.63	20.48
320.843	71.68
321.057	122.88
321.27	69.63
321.483	38.91
321.697	55.3
321.91	18.43
322.124	2.05
322.337	75.77
322.55	-4.1
322.763	8.19
322.977	49.15
323.19	57.34
323.403	10.24
323.617	20.48
323.83	65.54
324.043	69.63
324.256	67.58
324.469	-45.06
324.683	67.58
324.896	92.16
325.109	73.73
325.322	12.29
325.535	40.96
325.748	14.34
325.962	-10.24
326.175	36.86
326.388	16.38
326.601	71.68
326.814	-6.14
327.027	73.73
327.24	-10.24
327.453	51.2
327.666	77.82
327.879	-2.05
328.092	88.06
328.305	51.2
328.518	6.14
328.731	-2.05
328.944	61.44
329.157	14.34
329.37	18.43
329.583	49.15
329.796	61.44
330.009	34.82
330.222	55.3
330.435	-36.86
330.648	71.68
330.861	2.05
331.073	55.3
331.286	22.53
331.499	4.1
331.712	22.53
331.925	55.3
332.138	-18.43
332.35	-12.29
332.563	-2.05
332.776	94.21
332.989	-14.34
333.202	-10.24
333.414	81.92
333.627	77.82
333.84	102.4
334.053	30.72
334.265	38.91
334.478	57.34
334.691	45.06
334.903	61.44
335.116	-6.14
335.329	16.38
335.541	86.01
335.754	8.19
335.966	30.72
336.179	30.72
336.392	14.34
336.604	20.48
336.817	69.63
337.029	65.54
337.242	36.86
337.454	-6.14
337.667	47.1
337.88	20.48
338.092	12.29
338.305	61.44
338.517	40.96
338.729	-38.91
338.942	96.25
339.154	86.01
339.367	77.82
339.579	61.44
339.792	26.62
340.004	38.91
340.217	100.35
340.429	32.77
340.641	-2.05
340.854	16.38
341.066	73.73
341.278	79.87
341.491	79.87
341.703	-2.05
341.915	-43.01
342.128	102.4
342.34	45.06
342.552	24.58
342.764	45.06
342.977	30.72
343.189	-53.25
343.401	51.2
343.613	-10.24
343.826	57.34
344.038	38.91
344.25	49.15
344.462	16.38
344.674	51.2
344.886	32.77
345.099	92.16
345.311	38.91
345.523	53.25
345.735	63.49
345.947	51.2
346.159	36.86
346.371	36.86
346.583	47.1
346.795	86.01
347.007	4.1
347.219	69.63
347.431	-10.24
347.643	135.17
347.855	-24.58
348.067	77.82
348.279	-14.34
348.491	28.67
348.703	69.63
348.915	-47.1
349.127	0
349.339	83.97
349.551	114.69
349.763	86.01
349.975	4.1
350.187	51.2
350.399	108.54
350.61	24.58
350.822	40.96
351.034	-4.1
351.246	-2.05
351.458	28.67
351.669	65.54
351.881	65.54
352.093	24.58
352.305	137.21
352.517	55.3
352.728	45.06
352.94	86.01
353.152	55.3
353.363	-4.1
353.575	45.06
353.787	83.97
353.999	83.97
354.21	59.39
354.422	32.77
354.633	38.91
354.845	55.3
355.057	12.29
355.268	77.82
355.48	86.01
355.692	120.83
355.903	30.72
356.115	65.54
356.326	-30.72
356.538	61.44
356.749	55.3
356.961	92.16
357.172	36.86
357.384	14.34
357.595	88.06
357.807	20.48
358.018	22.53
358.23	63.49
358.441	69.63
358.653	8.19
358.864	55.3
359.075	36.86
359.287	106.49
359.498	-4.1
359.709	28.67
359.921	73.73
360.132	-12.29
360.344	55.3
360.555	6.14
360.766	24.58
360.977	81.92
361.189	-8.19
361.4	104.45
361.611	51.2
361.823	55.3
362.034	71.68
362.245	57.34
362.456	81.92
362.667	100.35
362.879	20.48
363.09	34.82
363.301	32.77
363.512	26.62
363.723	4.1
363.935	40.96
364.146	8.19
364.357	106.49
364.568	49.15
364.779	6.14
364.99	135.17
365.201	63.49
365.412	104.45
365.623	77.82
365.834	45.06
366.045	-16.38
366.256	16.38
366.467	112.64
366.678	69.63
366.889	90.11
367.1	96.25
367.311	71.68
367.522	67.58
367.733	63.49
367.944	83.97
368.155	38.91
368.366	49.15
368.577	106.49
368.788	147.45
368.999	26.62
369.209	28.67
369.42	90.11
369.631	57.34
369.842	20.48
370.053	12.29
370.264	53.25
370.474	65.54
370.685	81.92
370.896	-6.14
371.107	49.15
371.317	59.39
371.528	32.77
371.739	55.3
371.95	51.2
372.16	86.01
372.371	18.43
372.582	86.01
372.792	96.25
373.003	24.58
373.214	92.16
373.424	40.96
373.635	32.77
373.846	86.01
374.056	8.19
374.267	90.11
374.477	-16.38
374.688	10.24
374.898	24.58
375.109	67.58
375.319	106.49
375.53	137.21
375.74	116.73
375.951	-22.53
376.161	61.44
376.372	73.73
376.582	67.58
376.793	77.82
377.003	22.53
377.214	16.38
377.424	75.77
377.635	28.67
377.845	12.29
378.055	110.59
378.266	-10.24
378.476	10.24
378.686	73.73
378.897	-14.34
379.107	28.67
379.317	45.06
379.528	81.92
379.738	104.45
379.948	-8.19
380.158	83.97
380.369	32.77
380.579	18.43
380.789	88.06
380.999	104.45
381.21	55.3
381.42	86.01
381.63	40.96
381.84	122.88
382.05	67.58
382.261	40.96
382.471	32.77
382.681	22.53
382.891	90.11
383.101	108.54
383.311	32.77
383.521	28.67
383.731	63.49
383.941	145.41
384.151	71.68
384.361	73.73
384.571	116.73
384.781	30.72
384.991	104.45
385.201	57.34
385.411	163.84
385.621	14.34
385.831	102.4
386.041	10.24
386.251	124.93
386.461	149.5
386.671	53.25
386.881	110.59
387.091	22.53
387.301	133.12
387.511	53.25
387.72	114.69
387.93	47.1
388.14	40.96
388.35	49.15
388.56	53.25
388.769	153.6
388.979	38.91
389.189	16.38
389.399	-8.19
389.609	40.96
389.818	94.21
390.028	67.58
390.238	49.15
390.447	12.29
390.657	65.54
390.867	129.02
391.076	36.86
391.286	40.96
391.496	83.97
391.705	16.38
391.915	12.29
392.125	57.34
392.334	69.63
392.544	79.87
392.753	71.68
392.963	24.58
393.172	49.15
393.382	-32.77
393.591	73.73
393.801	81.92
394.01	135.17
394.22	63.49
394.429	14.34
394.639	47.1
394.848	49.15
395.058	151.55
395.267	75.77
395.477	110.59
395.686	86.01
395.895	151.55
396.105	159.74
396.314	131.07
396.524	61.44
396.733	133.12
396.942	126.97
397.152	86.01
397.361	204.8
397.57	126.97
397.78	49.15
397.989	149.5
398.198	116.73
398.407	126.97
398.617	81.92
398.826	106.49
399.035	100.35
399.244	106.49
399.453	118.78
399.663	88.06
399.872	153.6
400.081	114.69
400.29	108.54
400.499	135.17
400.708	118.78
400.917	90.11
401.127	124.93
401.336	131.07
401.545	174.08
401.754	137.21
401.963	178.17
402.172	139.26
402.381	153.6
402.59	98.3
402.799	92.16
403.008	284.67
403.217	100.35
403.426	155.65
403.635	90.11
403.844	77.82
404.053	131.07
404.262	147.45
404.471	225.28
404.68	137.21
404.888	188.41
405.097	196.61
405.306	202.75
405.515	143.36
405.724	178.17
405.933	176.13
406.142	186.37
406.35	151.55
406.559	192.51
406.768	184.32
406.977	198.65
407.185	270.33
407.394	243.71
407.603	163.84
407.812	217.08
408.02	315.39
408.229	215.04
408.438	221.18
408.646	190.46
408.855	210.94
409.064	329.72
409.272	327.68
409.481	352.25
409.69	313.34
409.898	372.73
410.107	348.15
410.315	368.63
410.524	448.51
410.733	401.4
410.941	333.82
411.15	405.5
411.358	481.27
411.567	477.18
411.775	475.13
411.984	464.89
412.192	511.99
412.401	532.47
412.609	552.95
412.818	581.62
413.026	581.62
413.234	647.16
413.443	561.14
413.651	628.73
413.86	681.97
414.068	706.55
414.276	669.69
414.485	720.88
414.693	714.74
414.901	753.65
415.11	825.33
415.318	876.53
415.526	825.33
415.734	913.39
415.943	860.15
416.151	1030.13
416.359	923.63
416.567	970.74
416.776	1011.7
416.984	1187.82
417.192	1157.1
417.4	1191.92
417.608	1202.16
417.817	1214.45
418.025	1261.55
418.233	1388.52
418.441	1263.6
418.649	1466.35
418.857	1515.5
419.065	1570.79
419.273	1519.59
419.481	1597.42
419.689	1738.73
419.897	1888.23
420.105	1757.16
420.313	1912.8
420.521	1918.95
420.729	2002.91
420.937	1906.66
421.145	2082.78
421.353	2217.95
421.561	2306.01
421.769	2308.06
421.977	2467.8
422.185	2330.59
422.393	2439.13
422.601	2781.14
422.809	2650.07
423.017	2760.66
423.224	2852.82
423.432	3084.24
423.64	2887.64
423.848	3280.85
424.056	3022.8
424.263	3465.16
424.471	3350.48
424.679	3512.27
424.887	3596.23
425.094	3653.58
425.302	3839.94
425.51	3907.52
425.718	3999.68
425.925	3997.64
426.133	4282.3
426.341	4227.01
426.548	4685.75
426.756	4593.59
426.964	4720.57
427.171	5007.28
427.379	5134.26
427.586	5087.15
427.794	5406.64
428.001	5580.71
428.209	5832.61
428.417	5642.15
428.624	6254.5
428.832	6199.2
429.039	6104.99
429.247	6029.22
429.454	6715.29
429.662	7094.16
429.869	6784.92
430.076	7214.99
430.284	6903.7
430.491	7210.9
430.699	7536.53
430.906	7700.36
431.114	7669.64
431.321	8107.91
431.528	8091.52
431.736	8834.94
431.943	9228.15
432.15	8738.68
432.358	8806.27
432.565	9320.31
432.772	9412.46
432.979	9951.08
433.187	9951.08
433.394	10022.76
433.601	10596.19
433.808	10704.73
434.016	10618.72
434.223	10964.82
434.43	11894.6
434.637	11732.81
434.844	12283.72
435.052	12703.55
435.259	12314.44
435.466	12603.2
435.673	12498.75
435.88	13299.51
436.087	13846.32
436.294	13862.7
436.501	13498.16
436.708	14079.79
436.915	14419.75
437.122	15126.3
437.329	15027.99
437.537	15343.38
437.743	15521.56
437.95	15447.83
438.157	16336.65
438.364	17116.92
438.571	16828.16
438.778	16865.02
438.985	18552.55
439.192	17811.18
439.399	18435.81
439.606	17794.8
439.813	19248.86
440.02	20283.08
440.227	19930.83
440.433	19545.81
440.64	20332.23
440.847	20174.54
441.054	20864.71
441.261	22034.1
441.467	21806.77
441.674	22406.83
441.881	22632.1
442.088	22802.08
442.294	22580.9
442.501	23269.02
442.708	23660.18
442.914	24888.96
443.121	25671.29
443.328	24796.81
443.534	26807.91
443.741	25966.2
443.948	25607.8
444.154	27651.67
444.361	27324
444.568	27606.62
444.774	27467.36
444.981	27692.63
445.187	28636.75
445.394	29883.96
445.6	29310.53
445.807	32163.35
446.013	30660.14
446.22	31241.76
446.426	32636.43
446.633	32724.49
446.839	33809.92
447.046	32888.33
447.252	34297.33
447.459	34330.1
447.665	34045.43
447.871	35806.69
448.078	37051.85
448.284	35261.93
448.491	36308.44
448.697	37647.81
448.903	38327.74
449.11	38423.99
449.316	37490.12
449.522	38335.93
449.728	39339.43
449.935	39529.89
450.141	39749.03
450.347	40353.18
450.553	39196.07
450.76	39957.92
450.966	40762.77
451.172	40289.69
451.378	41063.82
451.584	40725.91
451.791	41235.85
451.997	41604.49
452.203	41930.11
452.409	41627.01
452.615	41469.32
452.821	40009.12
453.027	39691.68
453.233	41639.3
453.44	40007.07
453.646	40641.94
453.852	40662.42
454.058	41285
454.264	39699.87
454.47	40785.3
454.676	40000.93
454.882	41209.23
455.088	37787.07
455.294	38256.06
455.5	38233.53
455.705	38647.22
455.911	37541.32
456.117	36535.76
456.323	36072.92
456.529	34244.09
456.735	35802.59
456.941	35016.17
457.147	34473.46
457.352	33332.74
457.558	32908.81
457.764	32544.27
457.97	32247.32
458.176	31491.62
458.381	31397.41
458.587	29840.95
458.793	29785.66
458.999	28579.4
459.204	30567.98
459.41	29642.3
459.616	27563.61
459.821	27522.65
460.027	27600.47
460.233	26928.74
460.438	25581.18
460.644	25904.76
460.85	24794.76
461.055	24555.15
461.261	24071.82
461.466	22724.26
461.672	21933.75
461.878	23488.15
462.083	21894.83
462.289	21585.59
462.494	21479.1
462.7	20432.58
462.905	19959.5
463.111	20766.4
463.316	20801.22
463.522	19918.54
463.727	20186.83
463.932	20209.36
464.138	20029.13
464.343	19996.37
464.549	19668.69
464.754	20033.23
464.959	20090.57
465.165	19648.21
465.37	18792.16
465.575	18654.95
465.781	19087.07
465.986	19474.13
466.191	18484.97
466.397	18149.1
466.602	17581.81
466.807	18204.39
467.012	18142.96
467.218	17764.08
467.423	17739.51
467.628	17708.79
467.833	18351.85
468.038	17813.23
468.244	17555.19
468.449	18005.74
468.654	17315.58
468.859	17315.58
469.064	17383.16
469.269	16686.85
469.474	16627.46
469.679	17057.53
469.885	16297.74
470.09	16871.17
470.295	16471.81
470.5	16295.69
470.705	16445.19
470.91	15787.79
471.115	15744.78
471.32	16039.69
471.525	16023.31
471.73	15767.31
471.935	15519.51
472.139	14993.18
472.344	15204.12
472.549	15320.85
472.754	14884.64
472.959	14866.21
473.164	14194.47
473.369	14268.2
473.574	14499.62
473.778	14585.63
473.983	14479.14
474.188	14464.8
474.393	13750.06
474.598	13817.65
474.802	13555.51
475.007	13483.83
475.212	13487.92
475.417	13131.58
475.621	12971.83
475.826	13035.32
476.031	12885.82
476.235	12738.37
476.44	12738.37
476.645	12478.27
476.849	12578.62
477.054	12545.86
477.259	12455.75
477.463	12128.07
477.668	12189.51
477.872	11919.18
478.077	11939.66
478.282	11568.98
478.486	11409.23
478.691	11304.79
478.895	11511.63
479.1	11489.1
479.304	11212.63
479.509	11075.41
479.713	11112.28
479.918	11259.73
480.122	10964.82
480.326	10954.58
480.531	11038.55
480.735	10764.12
480.94	10743.64
481.144	11054.94
481.348	10598.24
481.553	10518.37
481.757	10559.33
481.961	10571.61
482.166	10698.59
482.37	10669.92
482.574	10516.32
482.778	10465.12
482.983	10606.43
483.187	10532.7
483.391	10774.36
483.595	10555.23
483.8	10223.46
484.004	10534.75
484.208	10655.58
484.412	10544.99
484.616	10655.58
484.821	10561.37
485.025	10444.64
485.229	10628.96
485.433	10522.46
485.637	10473.31
485.841	10557.28
486.045	10485.6
486.249	10475.36
486.453	10377.06
486.657	10571.61
486.861	10493.79
487.065	10442.59
487.269	10704.73
487.473	10217.32
487.677	10438.5
487.881	10612.57
488.085	10559.33
488.289	10692.44
488.493	10622.81
488.697	10653.53
488.901	10626.91
489.105	10577.76
489.309	10411.87
489.512	10479.46
489.716	10760.03
489.92	10745.69
490.124	10598.24
490.328	10825.56
490.531	10805.08
490.735	10891.1
490.939	10907.48
491.143	10827.61
491.346	10710.88
491.55	11114.33
491.754	11059.03
491.958	10966.87
492.161	11018.07
492.365	11267.92
492.569	11212.63
492.772	11196.25
492.976	11278.16
493.18	11274.07
493.383	11507.54
493.587	11415.38
493.79	11722.57
493.994	11665.23
494.197	11626.32
494.401	11640.65
494.605	11822.92
494.808	12130.12
495.012	11980.62
495.215	12119.88
495.419	12341.06
495.622	12222.28
495.825	12261.19
496.029	12242.76
496.232	12646.21
496.436	12525.38
496.639	12803.9
496.843	12693.31
497.046	13258.55
497.249	13057.85
497.453	13365.04
497.656	13225.78
497.859	13432.63
498.063	13516.59
498.266	13899.56
498.469	13745.97
498.673	13956.91
498.876	14325.54
499.079	14217
499.282	14315.3
499.485	14630.69
499.689	14731.04
499.892	14810.91
500.095	15118.11
500.298	15445.78
500.501	15109.91
500.705	15394.58
500.908	15793.93
501.111	16092.94
501.314	16033.55
501.517	16267.02
501.72	16406.28
501.923	16426.76
502.126	16834.3
502.329	16963.33
502.532	17252.09
502.735	17180.41
502.938	17616.63
503.141	17741.55
503.344	18040.56
503.547	18104.04
503.75	18181.87
503.953	18394.86
504.156	18730.72
504.359	18994.91
504.562	18632.42
504.765	19281.63
504.968	19537.62
505.17	19590.87
505.373	19887.82
505.576	20248.27
505.779	20293.32
505.982	20401.86
506.185	21130.94
506.387	20979.39
506.59	20987.58
506.793	21606.07
506.996	21343.93
507.198	22140.59
507.401	21997.23
507.604	22161.07
507.807	22754.98
508.009	22941.35
508.212	22972.07
508.415	23563.93
508.617	23557.78
508.82	23660.18
509.022	23262.88
509.225	23928.47
509.428	24667.78
509.63	24723.08
509.833	24651.4
510.035	25327.23
510.238	24798.85
510.44	25431.68
510.643	25792.12
510.845	26160.75
511.048	26037.87
511.25	26338.93
511.453	26545.77
511.655	27567.71
511.858	27326.05
512.06	27364.96
512.262	27956.82
512.465	27768.41
512.667	28194.39
512.87	28716.62
513.072	28728.91
513.274	29187.65
513.477	29599.29
513.679	29681.21
513.881	30162.48
514.084	30281.27
514.286	30404.14
514.488	30654
514.69	31467.04
514.893	31204.9
515.095	31714.84
515.297	32175.64
515.499	32144.92
515.701	32224.79
515.904	32679.44
516.106	33093.13
516.308	33222.15
516.51	33689.09
516.712	34010.62
516.914	34070.01
517.116	34694.64
517.318	34895.34
517.52	34950.63
517.722	34825.71
517.925	35323.36
518.127	36064.73
518.329	36404.69
518.531	35945.95
518.733	36644.3
518.935	37029.32
519.136	37451.2
519.338	38366.65
519.54	37844.41
519.742	38391.22
519.944	38139.32
520.146	39243.18
520.348	39124.39
520.55	39568.8
520.752	39699.87
520.954	40181.15
521.155	40084.89
521.357	40639.89
521.559	40727.95
521.761	41338.25
521.963	41186.7
522.164	41876.86
522.366	41579.91
522.568	42466.68
522.77	42157.44
522.971	43195.76
523.173	42962.29
523.375	43509.1
523.576	43081.07
523.778	43873.63
523.98	44107.1
524.181	44209.5
524.383	44518.74
524.584	45040.98
524.786	44617.05
524.988	44797.27
525.189	45161.81
525.391	45573.45
525.592	45581.64
525.794	46671.16
525.995	45901.12
526.197	45819.2
526.398	46916.92
526.6	47154.48
526.801	46667.06
527.003	47273.26
527.204	47062.32
527.406	47719.72
527.607	48039.2
527.808	48049.44
528.01	47568.17
528.211	48217.38
528.412	48790.81
528.614	48473.37
528.815	47998.24
529.016	48948.5
529.218	48467.23
529.419	48989.46
529.62	48981.27
529.822	48989.46
530.023	48848.15
530.224	48858.39
530.425	49009.94
530.626	49181.97
530.828	48868.63
531.029	50050.31
531.23	48968.98
531.431	49460.49
531.632	49964.29
531.833	49966.34
532.035	50111.75
532.236	50005.25
532.437	50263.3
532.638	49792.26
532.839	50277.63
533.04	50427.13
533.241	49890.57
533.442	50781.43
533.643	50640.12
533.844	50185.47
534.045	50715.9
534.246	49943.81
534.447	50373.89
534.648	50298.11
534.849	50625.79
535.05	50476.29
535.251	50775.29
535.451	50210.05
535.652	50636.03
535.853	50734.33
536.054	50951.41
536.255	51057.91
536.456	50588.92
536.657	51389.68
536.857	50431.23
537.058	50701.56
537.259	51158.26
537.46	51160.31
537.66	50738.43
537.861	50951.41
538.062	50853.11
538.263	50930.93
538.463	51074.29
538.664	50644.22
538.865	51168.5
539.065	51455.21
539.266	50615.55
539.466	50982.13
539.667	50482.43
539.868	51236.08
540.068	51324.14
540.269	50896.12
540.469	51238.13
540.67	50470.14
540.87	50685.18
541.071	50464
541.271	51070.2
541.472	51309.81
541.672	51121.4
541.873	50578.68
542.073	50148.61
542.274	50947.32
542.474	50767.1
542.675	50717.95
542.875	50746.62
543.075	50685.18
543.276	50423.04
543.476	51356.91
543.676	50443.52
543.877	50791.67
544.077	50500.86
544.277	50537.72
544.478	50875.64
544.678	50408.7
544.878	50408.7
545.078	50750.71
545.279	50357.5
545.479	50205.95
545.679	50961.65
545.879	50261.25
546.079	50246.91
546.28	50470.14
546.48	50101.51
546.68	50726.14
546.88	50517.25
547.08	50484.48
547.28	50398.46
547.48	49870.09
547.68	50705.66
547.88	50244.87
548.081	50744.57
548.281	50494.72
548.481	50078.98
548.681	50554.11
548.881	50420.99
549.081	50318.59
549.28	50025.73
549.48	50916.6
549.68	50756.86
549.88	50947.32
550.08	49704.2
550.28	50787.58
550.48	50316.54
550.68	50916.6
550.88	50523.39
551.08	50408.7
551.279	50164.99
551.479	49732.87
551.679	50324.74
551.879	50138.37
552.079	50820.34
552.278	49937.67
552.478	49990.92
552.678	50402.56
552.878	49931.53
553.077	49984.77
553.277	49337.62
553.477	50484.48
553.676	49722.63
553.876	49526.03
554.076	49591.56
554.275	49689.87
554.475	49374.48
554.674	49745.16
554.874	49560.84
555.074	49612.04
555.273	49868.04
555.473	50040.07
555.672	49698.06
555.872	49714.44
556.071	49767.69
556.271	49988.87
556.47	49751.3
556.67	49267.98
556.869	49409.29
557.068	49696.01
557.268	49055
557.467	49218.83
557.667	49245.46
557.866	49249.55
558.065	49114.39
558.265	48563.48
558.464	48915.73
558.663	49313.04
558.863	48833.81
559.062	49077.52
559.261	48233.76
559.461	48604.44
559.66	48135.46
559.859	48772.38
560.058	48196.9
560.258	48174.37
560.457	48014.63
560.656	48368.93
560.855	47887.65
561.054	48309.53
561.253	47891.75
561.453	47971.62
561.652	47867.17
561.851	48248.1
562.05	47764.78
562.249	47519.02
562.448	47848.74
562.647	47858.98
562.846	47254.83
563.045	47631.66
563.244	47279.41
563.443	47277.36
563.642	46818.61
563.841	46892.34
564.04	46601.53
564.239	47447.34
564.438	46787.89
564.637	46984.5
564.836	46695.74
565.035	46150.98
565.234	46789.94
565.432	46392.64
565.631	46081.34
565.83	46335.29
566.029	45919.56
566.228	45856.07
566.427	45450.57
566.625	45821.25
566.824	45043.02
567.023	45968.71
567.222	44778.84
567.42	45675.85
567.619	45430.09
567.818	44909.91
568.016	45167.95
568.215	45294.92
568.414	45000.02
568.612	44965.2
568.811	44746.07
569.01	44944.72
569.208	44111.2
569.407	44746.07
569.605	43996.51
569.804	44645.72
570.002	43812.2
570.201	44506.46
570.4	43830.63
570.598	43777.38
570.797	43574.63
570.995	43519.34
571.193	43390.31
571.392	43636.07
571.59	43470.18
571.789	43429.23
571.987	43007.34
572.186	42853.75
572.384	42999.15
572.582	42931.57
572.781	43033.97
572.979	42241.4
573.177	42745.2
573.376	43052.4
573.574	42286.46
573.772	42528.12
573.971	42028.41
574.169	41756.03
574.367	41391.5
574.565	42145.15
574.763	41584.01
574.962	41381.26
575.16	41239.95
575.358	41495.94
575.556	40770.96
575.754	41299.34
575.952	40953.23
576.151	40930.7
576.349	40529.3
576.547	41141.64
576.745	40750.48
576.943	40856.98
577.141	40799.63
577.339	40603.03
577.537	39935.39
577.735	40304.02
577.933	39830.94
578.131	40207.77
578.329	40095.13
578.527	39490.98
578.725	39667.11
578.923	39732.64
579.121	39343.53
579.319	39280.04
579.516	39480.74
579.714	39249.32
579.912	38897.07
580.11	38858.16
580.308	38968.75
580.506	38725.04
580.704	38438.33
580.901	38518.2
581.099	38780.34
581.297	38385.08
581.495	38186.43
581.692	38477.24
581.89	38542.77
582.088	38467
582.285	37717.44
582.483	37940.67
582.681	38024.64
582.878	37506.5
583.076	37402.05
583.274	37477.83
583.471	37168.58
583.669	37303.75
583.866	37164.49
584.064	37313.99
584.262	36806.09
584.459	37447.11
584.657	36494.8
584.854	37275.08
585.052	35956.19
585.249	36789.71
585.447	36421.08
585.644	36228.57
585.841	36283.86
586.039	36627.92
586.236	35872.22
586.434	35882.46
586.631	35630.56
586.828	35712.48
587.026	35288.55
587.223	35921.37
587.42	35468.77
587.618	35638.75
587.815	35243.49
588.012	35091.94
588.21	34946.54
588.407	35255.78
588.604	34944.49
588.801	34749.93
588.999	34696.69
589.196	34864.62
589.393	34684.4
589.59	34366.96
589.787	34321.91
589.984	34346.48
590.182	33897.98
590.379	34311.67
590.576	34076.15
590.773	33719.81
590.97	33357.31
591.167	33787.39
591.364	33543.68
591.561	33406.47
591.758	33297.92
591.955	33109.51
592.152	33771
592.349	33207.81
592.546	33009.16
592.743	33013.26
592.94	32816.65
593.137	32923.15
593.334	32867.85
593.531	32245.27
593.727	32646.67
593.924	32699.92
594.121	32144.92
594.318	32390.67
594.515	32097.81
594.712	32429.59
594.908	31798.81
595.105	32069.14
595.302	31546.91
595.499	32079.38
595.696	31618.59
595.892	31458.85
596.089	31102.5
596.286	31581.73
596.482	31065.64
596.679	31135.27
596.876	31344.16
597.072	30789.16
597.269	31020.58
597.466	30271.03
597.662	30711.34
597.859	30551.6
598.055	30805.55
598.252	30537.26
598.448	30363.18
598.645	30250.55
598.841	30066.23
599.038	30041.65
599.234	29943.35
599.431	29843
599.627	29804.09
599.824	30142
600.02	29146.69
600.217	29482.56
600.413	29437.5
600.609	29283.91
600.806	29062.72
601.002	29259.33
601.198	28958.28
601.395	29068.87
601.591	28544.59
601.787	28892.74
601.984	28583.5
602.18	29228.61
602.376	28812.87
602.572	28421.71
602.769	28479.05
602.965	28038.74
603.161	28509.77
603.357	28212.82
603.553	28077.65
603.75	28196.43
603.946	27506.27
604.142	27819.61
604.338	27506.27
604.534	27661.91
604.73	27371.1
604.926	27272.8
605.122	27502.17
605.318	27604.57
605.514	26971.75
605.71	27379.29
605.906	27176.55
606.102	27010.66
606.298	27090.53
606.494	26773.1
606.69	27111.01
606.886	26639.98
607.082	26486.38
607.278	26791.53
607.474	26228.34
607.67	26492.52
607.866	26058.35
608.062	26793.58
608.257	26283.63
608.453	26451.56
608.649	26023.54
608.845	25855.61
609.041	26254.96
609.236	26197.62
609.432	25998.96
609.628	26011.25
609.824	25814.65
610.019	25876.09
610.215	25691.77
610.411	25671.29
610.606	25593.47
610.802	25792.12
610.998	25583.23
611.193	25888.37
611.389	25345.66
611.584	24952.45
611.78	24938.12
611.976	25378.43
612.171	25366.14
612.367	25278.08
612.562	24786.57
612.758	24577.67
612.953	24563.34
613.149	25108.1
613.344	24567.43
613.539	25224.83
613.735	24862.34
613.93	24903.3
614.126	24546.95
614.321	25071.23
614.517	24708.74
614.712	24628.87
614.907	24477.32
615.103	24630.92
615.298	24108.69
615.493	24446.6
615.688	24163.98
615.884	24823.43
616.079	23625.37
616.274	24264.33
616.47	24290.96
616.665	24147.6
616.86	23783.06
617.055	24037.01
617.25	23772.82
617.445	24043.15
617.641	23813.78
617.836	23996.05
618.031	23113.38
618.226	23586.46
618.421	23125.66
618.616	23328.41
618.811	23017.12
619.006	23334.56
619.201	22879.91
619.396	22906.53
619.591	22728.36
619.786	23074.46
619.981	22412.97
620.176	22714.02
620.371	22523.56
620.566	22419.11
620.761	22355.63
620.956	22298.28
621.151	21919.41
621.346	22273.71
621.541	21726.9
621.735	22228.65
621.93	21706.42
622.125	21823.15
622.32	21401.27
622.515	21587.64
622.709	21294.78
622.904	21425.85
623.099	21081.79
623.294	21163.71
623.488	20694.72
623.683	20948.67
623.878	20469.45
624.072	20876.99
624.267	20584.13
624.462	20365
624.656	20094.67
624.851	20190.92
625.046	20301.51
625.24	20250.31
625.435	19961.55
625.629	19791.57
625.824	19789.52
626.018	19756.75
626.213	19228.38
626.407	19506.9
626.602	19236.57
626.796	19439.32
626.991	19099.36
627.185	19027.68
627.38	19048.16
627.574	18800.35
627.768	18669.28
627.963	18613.99
628.157	18665.19
628.352	18433.77
628.546	18235.11
628.74	18325.22
628.935	18097.9
629.129	18026.22
629.323	17897.2
629.517	17940.21
629.712	17641.2
629.906	17626.87
630.1	17282.81
630.294	17387.25
630.489	17368.82
630.683	17514.23
630.877	17039.1
631.071	17315.58
631.265	16959.23
631.459	17127.16
631.653	16893.69
631.848	16803.58
632.042	16666.37
632.236	16727.81
632.43	16541.44
632.624	16537.35
632.818	16264.97
633.012	16254.73
633.206	16209.67
633.4	16310.02
633.594	15994.64
633.788	15935.24
633.982	15736.59
634.176	15761.17
634.369	15564.56
634.563	15734.54
634.757	15509.27
634.951	15390.49
635.145	15361.81
635.339	15654.67
635.533	15187.74
635.726	15218.46
635.92	15099.67
636.114	15015.71
636.308	15068.95
636.501	14630.69
636.695	14700.32
636.889	14434.08
637.083	14313.25
637.276	14395.17
637.47	14395.17
637.664	14296.87
637.857	14225.19
638.051	14343.97
638.244	14176.04
638.438	14038.83
638.632	13874.99
638.825	14016.3
639.019	13797.17
639.212	13770.54
639.406	13862.7
639.599	13725.49
639.793	13801.26
639.986	13291.32
640.18	13514.55
640.373	13305.65
640.567	13248.31
640.76	13150.01
640.954	13168.44
641.147	13113.14
641.34	12910.39
641.534	12988.22
641.727	13076.28
641.92	12836.67
642.114	12646.21
642.307	12549.95
642.5	12420.93
642.694	12279.62
642.887	12425.03
643.08	12402.5
643.273	12064.58
643.467	12300.1
643.66	12017.48
643.853	11845.45
644.046	12285.76
644.239	12062.54
644.432	11847.5
644.626	11820.88
644.819	11880.27
645.012	11716.43
645.205	11833.16
645.398	11757.39
645.591	11460.43
645.784	11403.09
645.977	11229.01
646.17	11140.95
646.363	11032.41
646.556	11071.32
646.749	11136.85
646.942	11204.44
647.135	10905.43
647.328	10846.04
647.521	10858.33
647.714	10760.03
647.907	10872.67
648.099	10633.05
648.292	10815.32
648.485	10698.59
648.678	10501.98
648.871	10497.89
649.064	10526.56
649.256	10581.85
649.449	10391.39
649.642	10329.95
649.835	10098.53
650.027	10143.59
650.22	9944.94
650.413	9979.75
650.605	10016.62
650.798	10080.1
650.991	9817.96
651.183	9989.99
651.376	9777
651.568	9617.26
651.761	9688.94
651.954	9588.59
652.146	9707.37
652.339	9647.98
652.531	9492.34
652.724	9549.68
652.916	9289.59
653.109	9273.2
653.301	9299.83
653.494	9301.87
653.686	9115.51
653.879	9281.39
654.071	8910.71
654.263	9011.06
654.456	9019.25
654.648	9056.12
654.84	8845.18
655.033	8968.06
655.225	9000.82
655.417	8914.81
655.61	8724.35
655.802	8808.31
655.994	8722.3
656.186	8800.12
656.379	8472.45
656.571	8515.45
656.763	8408.96
656.955	8456.06
657.148	8601.47
657.34	8499.07
657.532	8441.73
657.724	8247.17
657.916	8150.92
658.108	8191.87
658.3	8163.2
658.492	8238.98
658.684	7987.08
658.876	7956.36
659.068	8066.95
659.26	7866.25
659.452	7853.96
659.644	7858.06
659.836	7827.34
660.028	7954.31
660.22	7706.51
660.412	7714.7
660.604	7690.12
660.796	7634.83
660.988	7675.79
661.18	7487.37
661.372	7454.61
661.563	7507.85
661.755	7329.68
661.947	7374.74
662.139	7427.98
662.331	7309.2
662.522	7186.32
662.714	7174.03
662.906	7311.25
663.097	7114.64
663.289	7145.36
663.481	6999.96
663.673	7178.13
663.864	6961.05
664.056	6868.89
664.247	6993.81
664.439	6952.85
664.631	6975.38
664.822	6827.93
665.014	6926.23
665.205	6840.22
665.397	6789.02
665.588	6657.95
665.78	6635.42
665.971	6813.59
666.163	6651.8
666.354	6670.23
666.546	6578.08
666.737	6512.54
666.929	6623.13
667.12	6645.66
667.311	6490.01
667.503	6483.87
667.694	6578.08
667.885	6365.09
668.077	6369.18
668.268	6381.47
668.459	6371.23
668.651	6328.22
668.842	6274.98
669.033	6209.44
669.224	6123.43
669.416	6354.85
669.607	6229.92
669.798	6145.95
669.989	6283.17
670.18	6160.29
670.371	6139.81
670.563	6156.19
670.754	6131.62
670.945	6008.74
671.136	6250.4
671.327	5906.34
671.518	6094.76
671.709	6051.75
671.9	6021.03
672.091	5871.53
672.282	5898.15
672.473	5638.06
672.664	5928.87
672.855	5840.81
673.046	5799.85
673.237	5787.56
673.428	5805.99
673.619	5781.42
673.809	5650.35
674	5629.87
674.191	5717.93
674.382	5572.52
674.573	5752.74
674.764	5558.19
674.954	5558.19
675.145	5511.08
675.336	5674.92
675.527	5570.48
675.717	5574.57
675.908	5605.29
676.099	5484.46
676.289	5480.36
676.48	5531.56
676.671	5441.45
676.861	5476.27
677.052	5455.79
677.243	5418.93
677.433	5468.08
677.624	5449.64
677.814	5494.7
678.005	5504.94
678.195	5308.34
678.386	5345.2
678.576	5351.34
678.767	5427.12
678.957	5316.53
679.148	5556.14
679.338	5359.53
679.529	5382.06
679.719	5386.16
679.909	5238.7
680.1	5324.72
680.29	5234.61
680.481	5306.29
680.671	5238.7
680.861	5304.24
681.052	5179.31
681.242	5136.31
681.432	5341.1
681.622	5164.98
681.813	5142.45
682.003	5271.47
682.193	5173.17
682.383	5148.59
682.573	5222.32
682.764	5113.78
682.954	4978.61
683.144	5183.41
683.334	5093.3
683.524	5189.55
683.714	5009.33
683.904	5033.91
684.094	5132.21
684.284	5334.96
684.474	5164.98
684.664	5107.63
684.854	5187.5
685.044	5019.57
685.234	5048.24
685.424	4874.17
685.614	5040.05
685.804	5052.34
685.994	4868.02
686.184	4956.08
686.374	4906.93
686.564	4970.42
686.753	5054.39
686.943	4943.8
687.133	4886.45
687.323	4921.27
687.513	4943.8
687.702	4739
687.892	4724.66
688.082	4796.34
688.272	4943.8
688.461	4741.05
688.651	4659.13
688.841	4650.94
689.03	4663.22
689.22	4638.65
689.41	4575.16
689.599	4534.2
689.789	4695.99
689.979	4612.03
690.168	4577.21
690.358	4562.87
690.547	4470.72
690.737	4552.63
690.926	4487.1
691.116	4302.78
691.305	4462.52
691.495	4265.92
691.684	4263.87
691.874	4505.53
692.063	4386.75
692.252	4460.48
692.442	4239.3
692.631	4384.7
692.82	4304.83
693.01	4364.22
693.199	4214.72
693.388	4251.58
693.578	4376.51
693.767	4161.47
693.956	4188.1
694.146	4186.05
694.335	4085.7
694.524	4145.09
694.713	4102.08
694.902	4130.75
695.092	4216.77
695.281	3997.64
695.47	4186.05
695.659	4044.74
695.848	3991.49
696.037	3850.18
696.226	4231.1
696.415	4106.18
696.604	4151.23
696.793	4024.26
696.982	4147.14
697.171	3938.24
697.36	4153.28
697.549	4091.84
697.738	4009.92
697.927	3921.86
698.116	4095.94
698.305	3866.57
698.494	4040.64
698.683	3964.87
698.872	4034.5
699.061	4005.83
699.25	4034.5
699.438	3878.85
699.627	4061.12
699.816	3887.04
700.005	3966.92
700.193	3968.96
700.382	4003.78
700.571	3848.13
700.76	3891.14
700.948	3819.46
701.137	3776.45
701.326	3919.81
701.514	3878.85
701.703	3809.22
701.892	3915.72
702.08	3821.51
702.269	3862.47
702.457	3819.46
702.646	3811.27
702.834	3854.28
703.023	3878.85
703.212	3854.28
703.4	3815.37
703.589	3725.26
703.777	3882.95
703.965	3823.56
704.154	3790.79
704.342	3788.74
704.531	3823.56
704.719	3794.89
704.907	3815.37
705.096	3864.52
705.284	3698.63
705.472	3776.45
705.661	3768.26
705.849	3817.41
706.037	3850.18
706.226	3710.92
706.414	3737.54
706.602	3723.21
706.79	3690.44
706.979	3813.32
707.167	3706.82
707.355	3764.17
707.543	3755.97
707.731	3762.12
707.919	3815.37
708.107	3719.11
708.296	3762.12
708.484	3760.07
708.672	3885
708.86	3825.61
709.048	3807.17
709.236	3735.49
709.424	3788.74
709.612	3784.65
709.8	3637.19
709.988	3758.02
710.176	3813.32
710.364	3680.2
710.551	3768.26
710.739	3690.44
710.927	3686.34
711.115	3712.97
711.303	3798.98
711.491	3657.67
711.679	3821.51
711.866	3755.97
712.054	3776.45
712.242	3676.1
712.43	3776.45
712.617	3624.9
712.805	3672.01
712.993	3629
713.181	3542.99
713.368	3747.78
713.556	3645.38
713.744	3684.3
713.931	3848.13
714.119	3751.88
714.306	3618.76
714.494	3690.44
714.682	3590.09
714.869	3755.97
715.057	3653.58
715.244	3696.58
715.432	3774.41
715.619	3780.55
715.807	3645.38
715.994	3635.14
716.182	3598.28
716.369	3766.21
716.556	3751.88
716.744	3637.19
716.931	3579.85
717.119	3729.35
717.306	3719.11
717.493	3786.69
717.681	3678.15
717.868	3692.49
718.055	3678.15
718.242	3776.45
718.43	3657.67
718.617	3815.37
718.804	3733.45
718.991	3762.12
719.179	3604.43
719.366	3723.21
719.553	3899.33
719.74	3702.73
719.927	3667.91
720.114	3649.48
720.301	3735.49
720.488	3684.3
720.676	3641.29
720.863	3606.47
721.05	3764.17
721.237	3835.85
721.424	3721.16
721.611	3696.58
721.798	3504.07
721.985	3743.69
722.172	3502.03
722.358	3704.78
722.545	3702.73
722.732	3520.46
722.919	3600.33
723.106	3674.06
723.293	3588.04
723.48	3669.96
723.667	3612.62
723.853	3483.59
724.04	3682.25
724.227	3643.34
724.414	3606.47
724.6	3573.71
724.787	3459.02
724.974	3534.79
725.161	3506.12
725.347	3629
725.534	3577.8
725.72	3565.51
725.907	3577.8
726.094	3508.17
726.28	3604.43
726.467	3626.95
726.653	3538.89
726.84	3524.55
727.027	3569.61
727.213	3512.27
727.4	3688.39
727.586	3602.38
727.773	3459.02
727.959	3551.18
728.145	3796.93
728.332	3465.16
728.518	3491.79
728.705	3553.23
728.891	3483.59
729.077	3604.43
729.264	3563.47
729.45	3477.45
729.636	3536.84
729.823	3442.64
730.009	3569.61
730.195	3481.55
730.382	3725.26
730.568	3530.7
730.754	3352.52
730.94	3475.4
731.126	3534.79
731.313	3409.87
731.499	3649.48
731.685	3471.31
731.871	3446.73
732.057	3440.59
732.243	3522.51
732.429	3454.92
732.615	3420.11
732.801	3391.44
732.987	3528.65
733.173	3354.57
733.359	3387.34
733.545	3442.64
733.731	3438.54
733.917	3366.86
734.103	3364.81
734.289	3424.2
734.475	3383.24
734.661	3432.4
734.847	3399.63
735.033	3438.54
735.219	3383.24
735.404	3338.19
735.59	3420.11
735.776	3350.48
735.962	3280.85
736.148	3516.36
736.333	3465.16
736.519	3327.95
736.705	3391.44
736.89	3327.95
737.076	3321.81
737.262	3336.14
737.447	3252.17
737.633	3209.17
737.819	3397.58
738.004	3452.88
738.19	3233.74
738.375	3250.13
738.561	3334.09
738.747	3110.86
738.932	3256.27
739.118	3432.4
739.303	3129.3
739.489	3190.74
739.674	3090.38
739.859	3190.74
740.045	3297.23
740.23	3272.65
740.416	3078.1
740.601	3135.44
740.786	3084.24
740.972	3076.05
741.157	3024.85
741.342	3043.28
741.528	2990.03
741.713	3030.99
741.898	3063.76
742.084	3084.24
742.269	3004.37
742.454	3104.72
742.639	3084.24
742.824	2996.18
743.01	2998.23
743.195	2971.6
743.38	2873.3
743.565	2957.27
743.75	3028.95
743.935	2895.83
744.12	3024.85
744.305	2840.53
744.49	2818.01
744.675	2818.01
744.86	2885.59
745.045	2944.98
745.23	2756.57
745.415	2838.48
745.6	2772.95
745.785	2715.61
745.97	2899.92
746.155	2842.58
746.34	2891.73
746.525	2787.29
746.71	2863.06
746.895	2740.18
747.079	2703.32
747.264	2707.41
747.449	2625.5
747.634	2734.04
747.819	2592.73
748.003	2537.43
748.188	2654.17
748.373	2654.17
748.557	2711.51
748.742	2392.03
748.927	2605.02
749.111	2496.47
749.296	2420.7
749.481	2475.99
749.665	2465.75
749.85	2447.32
750.034	2379.74
750.219	2389.98
750.404	2351.07
750.588	2326.49
750.773	2306.01
750.957	2365.4
751.141	2367.45
751.326	2293.73
751.51	2279.39
751.695	2322.4
751.879	2209.76
752.064	2275.29
752.248	2232.29
752.432	2166.75
752.617	2236.38
752.801	2203.61
752.985	2086.88
753.17	2174.94
753.354	2086.88
753.538	2103.26
753.722	2115.55
753.907	2080.74
754.091	2015.2
754.275	2072.54
754.459	2189.28
754.643	1929.19
754.828	1945.57
755.012	2078.69
755.196	1953.76
755.38	1966.05
755.564	1884.13
755.748	1920.99
755.932	1925.09
756.116	1947.62
756.3	1923.04
756.484	1863.65
756.668	1914.85
756.852	1804.26
757.036	1867.75
757.22	1769.44
757.404	1751.01
757.588	1716.2
757.772	1857.51
757.956	1658.85
758.14	1847.27
758.323	1775.59
758.507	1724.39
758.691	1646.57
758.875	1724.39
759.059	1746.92
759.242	1691.62
759.426	1757.16
759.61	1613.8
759.794	1593.32
759.977	1669.09
760.161	1712.1
760.345	1687.53
760.528	1572.84
760.712	1634.28
760.895	1650.66
761.079	1533.93
761.263	1613.8
761.446	1556.46
761.63	1585.13
761.813	1490.92
761.997	1560.55
762.18	1413.1
762.364	1497.07
762.547	1519.59
762.731	1517.54
762.914	1476.59
763.098	1421.29
763.281	1490.92
763.464	1527.78
763.648	1521.64
763.831	1406.95
764.015	1402.86
764.198	1439.72
764.381	1421.29
764.564	1417.19
764.748	1529.83
764.931	1314.8
765.114	1431.53
765.297	1378.28
765.481	1300.46
765.664	1372.14
765.847	1322.99
766.03	1415.15
766.213	1331.18
766.397	1417.19
766.58	1294.32
766.763	1413.1
766.946	1347.56
767.129	1368.04
767.312	1269.74
767.495	1171.44
767.678	1259.5
767.861	1249.26
768.044	1359.85
768.227	1218.54
768.41	1228.78
768.593	1306.6
768.776	1290.22
768.959	1294.32
769.142	1277.93
769.324	1292.27
769.507	1212.4
769.69	1136.62
769.873	1239.02
770.056	1288.17
770.239	1185.77
770.421	1273.84
770.604	1163.25
770.787	1183.73
770.97	1245.17
771.152	1187.82
771.335	1157.1
771.518	1157.1
771.7	1273.84
771.883	1204.21
772.066	1101.81
772.248	1110
772.431	1120.24
772.613	1116.14
772.796	1048.56
772.978	1118.19
773.161	1114.1
773.343	1107.95
773.526	1005.55
773.708	1052.66
773.891	1023.98
774.073	1099.76
774.256	1015.79
774.438	1107.95
774.621	1114.1
774.803	1028.08
774.985	1023.98
775.168	1064.94
775.35	1032.18
775.532	1007.6
775.715	917.49
775.897	1048.56
776.079	983.02
776.261	921.59
776.444	999.41
776.626	978.93
776.808	948.21
776.99	899.06
777.173	868.34
777.355	899.06
777.537	964.59
777.719	942.07
777.901	837.62
778.083	856.05
778.265	794.61
778.447	864.24
778.629	876.53
778.811	911.35
778.993	874.48
779.175	919.54
779.357	851.96
779.539	757.75
779.721	827.38
779.903	819.19
780.085	735.22
780.267	860.15
780.449	786.42
780.631	800.76
780.812	843.76
780.994	749.56
781.176	741.36
781.358	796.66
781.54	780.28
781.721	714.74
781.903	815.09
782.085	686.07
782.267	800.76
782.448	690.17
782.63	741.36
782.812	798.71
782.993	714.74
783.175	731.12
783.357	755.7
783.538	688.12
783.72	694.26
783.901	645.11
784.083	636.92
784.264	686.07
784.446	659.45
784.627	655.35
784.809	688.12
784.99	571.38
785.172	677.88
785.353	673.78
785.535	557.05
785.716	528.38
785.897	559.1
786.079	524.28
786.26	679.93
786.441	675.83
786.623	573.43
786.804	565.24
786.985	606.2
787.167	659.45
787.348	630.77
787.529	526.33
787.71	618.49
787.891	591.86
788.073	436.22
788.254	497.66
788.435	532.47
788.616	532.47
788.797	573.43
788.978	530.42
789.159	600.05
789.34	530.42
789.522	514.04
789.703	403.45
789.884	555
790.065	569.34
790.246	569.34
790.427	511.99
790.607	550.9
790.788	536.57
790.969	438.27
791.15	511.99
791.331	438.27
791.512	524.28
791.693	391.16
791.874	448.51
792.054	528.38
792.235	546.81
792.416	456.7
792.597	423.93
792.778	471.03
792.958	434.17
793.139	440.31
793.32	430.07
793.5	374.78
793.681	415.74
793.862	528.38
794.042	407.55
794.223	335.87
794.404	415.74
794.584	376.83
794.765	454.65
794.945	475.13
795.126	436.22
795.306	362.49
795.487	419.83
795.667	450.55
795.848	438.27
796.028	450.55
796.209	425.98
796.389	333.82
796.57	413.69
796.75	327.68
796.93	485.37
797.111	339.96
797.291	372.73
797.471	423.93
797.652	335.87
797.832	409.59
798.012	399.35
798.192	419.83
798.373	323.58
798.553	380.92
798.733	315.39
798.913	368.63
799.093	331.77
799.274	401.4
799.454	376.83
799.634	303.1
799.814	325.63
799.994	370.68
800.174	409.59
800.354	288.76
800.534	311.29
800.714	276.48
800.894	362.49
801.074	329.72
801.254	348.15
801.434	354.3
801.614	307.2
801.794	301.05
801.974	786.42
802.154	280.57
802.334	315.39
802.514	348.15
802.693	317.44
802.873	311.29
803.053	393.21
803.233	393.21
803.413	258.04
803.592	256
803.772	217.08
803.952	241.66
804.131	260.09
804.311	344.06
804.491	280.57
804.67	256
804.85	266.24
805.03	327.68
805.209	335.87
805.389	237.56
805.568	305.15
805.748	217.08
805.928	301.05
806.107	309.24
806.287	296.96
806.466	260.09
806.646	264.19
806.825	278.52
807.004	278.52
807.184	303.1
807.363	266.24
807.543	262.14
807.722	268.28
807.901	282.62
808.081	217.08
808.26	225.28
808.439	256
808.619	294.91
808.798	219.13
808.977	245.76
809.156	284.67
809.336	219.13
809.515	270.33
809.694	212.99
809.873	227.32
810.052	235.52
810.231	235.52
810.411	258.04
810.59	233.47
810.769	208.89
810.948	225.28
811.127	276.48
811.306	225.28
811.485	253.95
811.664	337.91
811.843	206.84
812.022	221.18
812.201	196.61
812.38	219.13
812.559	186.37
812.737	217.08
812.916	188.41
813.095	159.74
813.274	253.95
813.453	249.85
813.632	155.65
813.811	141.31
813.989	141.31
814.168	212.99
814.347	180.22
814.526	245.76
814.704	133.12
814.883	264.19
815.062	153.6
815.24	208.89
815.419	217.08
815.598	233.47
815.776	90.11
815.955	208.89
816.133	129.02
816.312	161.79
816.49	151.55
816.669	169.98
816.847	149.5
817.026	159.74
817.204	159.74
817.383	88.06
817.561	249.85
817.74	194.56
817.918	258.04
818.097	200.7
818.275	124.93
818.453	86.01
818.632	192.51
818.81	225.28
818.988	94.21
819.167	233.47
819.345	182.27
819.523	202.75
819.701	145.41
819.879	151.55
820.058	131.07
820.236	159.74
820.414	122.88
820.592	90.11
820.77	71.68
820.948	172.03
821.127	241.66
821.305	206.84
821.483	135.17
821.661	172.03
821.839	147.45
822.017	153.6
822.195	176.13
822.373	180.22
822.551	131.07
822.729	210.94
822.907	106.49
823.085	233.47
823.262	108.54
823.44	94.21
823.618	114.69
823.796	96.25
823.974	219.13
824.152	108.54
824.329	180.22
824.507	94.21
824.685	139.26
824.863	124.93
825.04	104.45
825.218	71.68
825.396	104.45
825.574	77.82
825.751	90.11
825.929	135.17
826.107	139.26
826.284	104.45
826.462	131.07
826.639	65.54
826.817	145.41
826.994	180.22
827.172	141.31
827.349	129.02
827.527	137.21
827.704	114.69
827.882	174.08
828.059	188.41
828.237	104.45
828.414	192.51
828.591	53.25
828.769	114.69
828.946	159.74
829.124	153.6
829.301	172.03
829.478	118.78
829.655	96.25
829.833	133.12
830.01	28.67
830.187	147.45
830.364	167.93
830.542	118.78
830.719	204.8
830.896	215.04
831.073	126.97
831.25	94.21
831.427	153.6
831.604	161.79
831.782	43.01
831.959	102.4
832.136	131.07
832.313	51.2
832.49	122.88
832.667	90.11
832.844	139.26
833.021	108.54
833.198	131.07
833.374	94.21
833.551	122.88
833.728	81.92
833.905	196.61
834.082	96.25
834.259	90.11
834.436	159.74
834.612	96.25
834.789	163.84
834.966	133.12
835.143	108.54
835.319	51.2
835.496	77.82
835.673	102.4
835.85	149.5
836.026	96.25
836.203	149.5
836.38	-6.14
836.556	40.96
836.733	65.54
836.909	180.22
837.086	126.97
837.262	129.02
837.439	57.34
837.616	59.39
837.792	10.24
837.968	59.39
838.145	55.3
838.321	126.97
838.498	8.19
838.674	61.44
838.851	77.82
839.027	73.73
839.203	-2.05
839.38	98.3
839.556	12.29
839.732	106.49
839.909	8.19
840.085	73.73
840.261	24.58
840.437	161.79
840.614	45.06
840.79	131.07
840.966	18.43
841.142	69.63
841.318	114.69
841.494	102.4
841.671	73.73
841.847	36.86
842.023	16.38
842.199	96.25
842.375	120.83
842.551	-24.58
842.727	43.01
842.903	79.87
843.079	61.44
843.255	100.35
843.431	65.54
843.607	45.06
843.783	45.06
843.959	135.17
844.134	75.77
844.31	184.32
844.486	0
844.662	12.29
844.838	18.43
845.013	79.87
845.189	28.67
845.365	49.15
845.541	40.96
845.716	36.86
845.892	61.44
846.068	24.58
846.244	88.06
846.419	36.86
846.595	38.91
846.77	24.58
846.946	79.87
847.122	12.29
847.297	2.05
847.473	88.06
847.648	32.77
847.824	-20.48
847.999	79.87
848.175	38.91
848.35	-43.01
848.526	63.49
848.701	94.21
848.876	53.25
849.052	49.15
849.227	118.78
849.403	90.11
849.578	53.25
849.753	73.73
849.929	145.41
850.104	-32.77
850.279	47.1
850.454	81.92
850.63	75.77
850.805	34.82
850.98	69.63
851.155	77.82
851.33	-16.38
851.505	20.48
851.681	83.97
851.856	20.48
852.031	43.01
852.206	36.86
852.381	118.78
852.556	114.69
852.731	0
852.906	79.87
853.081	53.25
853.256	28.67
853.431	57.34
853.606	18.43
853.781	28.67
853.956	12.29
854.131	8.19
854.305	-16.38
854.48	59.39
854.655	69.63
854.83	32.77
855.005	10.24
855.18	43.01
855.354	49.15
855.529	24.58
855.704	30.72
855.879	26.62
856.053	-24.58
856.228	61.44
856.403	16.38
856.577	112.64
856.752	-71.68
856.926	-45.06
857.101	63.49
857.276	8.19
857.45	47.1
857.625	112.64
857.799	-8.19
857.974	61.44
858.148	24.58
858.323	24.58
858.497	-8.19
858.672	16.38
858.846	63.49
859.02	-32.77
859.195	-53.25
859.369	6.14
859.543	47.1
859.718	49.15
859.892	-24.58
860.066	124.93
860.241	-18.43
860.415	12.29
860.589	67.58
860.763	24.58
860.938	-6.14
861.112	30.72
861.286	8.19
861.46	18.43
861.634	59.39
861.808	69.63
861.982	-16.38
862.157	61.44
862.331	-49.15
862.505	-69.63
862.679	-53.25
862.853	57.34
863.027	8.19
863.201	43.01
863.375	65.54
863.549	77.82
863.722	79.87
863.896	63.49
864.07	-24.58
864.244	30.72
864.418	53.25
864.592	22.53
864.766	-16.38
864.939	22.53
865.113	-47.1
865.287	38.91
865.461	-26.62
865.634	28.67
865.808	-2.05
865.982	10.24
866.156	-26.62
866.329	-20.48
866.503	40.96
866.676	26.62
866.85	12.29
867.024	0
867.197	-4.1
867.371	114.69
867.544	12.29
867.718	32.77
867.891	-28.67
868.065	-61.44
868.238	55.3
868.412	43.01
868.585	-12.29
868.759	14.34
868.932	34.82
869.105	16.38
869.279	-30.72
869.452	-36.86
869.625	-32.77
869.799	65.54
869.972	-63.49
870.145	-12.29
870.319	4.1
870.492	-79.87
870.665	-8.19
870.838	30.72
871.011	-34.82
871.185	71.68
871.358	-57.34
871.531	0
871.704	-20.48
871.877	18.43
872.05	47.1
872.223	-18.43
872.396	-10.24
872.569	16.38
872.742	36.86
872.915	73.73
873.088	16.38
873.261	4.1
873.434	100.35
873.607	57.34
873.78	24.58
873.953	40.96
874.126	-40.96
874.299	-36.86
874.471	-16.38
874.644	-22.53
874.817	110.59
874.99	36.86
875.163	-43.01
875.335	90.11
875.508	-6.14
875.681	73.73
875.853	-6.14
876.026	28.67
876.199	49.15
876.371	36.86
876.544	32.77
876.717	6.14
876.889	-2.05
877.062	-36.86
877.234	-57.34
877.407	-20.48
877.579	4.1
877.752	-86.01
877.924	-18.43
878.097	4.1
878.269	-51.2
878.442	100.35
878.614	-18.43
878.786	-53.25
878.959	-28.67
879.131	-6.14
879.303	-4.1
879.476	32.77
879.648	34.82
879.82	38.91
879.993	-22.53
880.165	12.29
880.337	61.44
880.509	45.06
880.681	22.53
880.854	8.19
881.026	51.2
881.198	110.59
881.37	73.73
881.542	32.77
881.714	0
881.886	38.91
882.058	-38.91
882.23	-8.19
882.402	-18.43
882.574	57.34
882.746	63.49
882.918	4.1
883.09	-16.38
883.262	51.2
883.434	-8.19
883.606	-4.1
883.778	0
883.95	98.3
884.122	-36.86
884.293	45.06
884.465	45.06
884.637	32.77
884.809	-18.43
884.98	61.44
885.152	-28.67
885.324	45.06
885.496	16.38
885.667	45.06
885.839	-6.14
886.011	-4.1
886.182	24.58
886.354	38.91
886.525	0
886.697	38.91
886.869	12.29
887.04	-57.34
887.212	-2.05
887.383	-36.86
887.555	53.25
887.726	32.77
887.897	53.25
888.069	0
888.24	-8.19
888.412	-34.82
888.583	30.72
888.754	36.86
888.926	-69.63
889.097	40.96
889.268	53.25
889.44	24.58
889.611	43.01
889.782	-69.63
889.953	28.67
890.125	108.54
890.296	8.19
890.467	61.44
890.638	40.96
890.809	-26.62
890.98	4.1
891.151	32.77
891.323	22.53
891.494	12.29
891.665	-79.87
891.836	-18.43
892.007	-10.24
892.178	34.82
892.349	-2.05
892.52	43.01
892.691	-43.01
892.862	0
893.032	-8.19
893.203	-6.14
893.374	32.77
893.545	92.16
893.716	-10.24
893.887	-4.1
894.057	-8.19
894.228	-94.21
894.399	36.86
894.57	88.06
894.74	0
894.911	71.68
895.082	28.67
895.253	-8.19
895.423	71.68
895.594	-36.86
895.764	49.15
895.935	-22.53
896.106	45.06
896.276	-10.24
896.447	-61.44
896.617	-26.62
896.788	-10.24
896.958	-30.72
897.129	-38.91
897.299	-45.06
897.47	-24.58
897.64	47.1
897.81	18.43
897.981	0
898.151	-57.34
898.322	-10.24
898.492	-24.58
898.662	-77.82
898.832	43.01
899.003	77.82
899.173	14.34
899.343	16.38
899.513	-14.34
