Data from USB4F104151__295__10-43-21-275.txt Node

Date: Wed Mar 12 10:43:21 EDT 2025
User: louis
Spectrometer: USB4F10415
Trigger mode: 4
Integration Time (sec): 3.000000E-2
Scans to average: 1
Electric dark correction enabled: true
Nonlinearity correction enabled: false
Boxcar width: 0
XAxis mode: Wavelengths
Number of Pixels in Spectrum: 3648
>>>>>Begin Spectral Data<<<<<
178.204	-111.78
178.424	-111.78
178.644	-111.78
178.864	-99.5
179.084	-58.54
179.304	-19.63
179.524	4.95
179.744	-79.02
179.964	4.95
180.184	-11.43
180.404	0.85
180.624	21.33
180.844	52.05
181.064	-93.35
181.283	21.33
181.503	45.91
181.723	52.05
181.943	-27.82
182.163	64.34
182.383	-3.24
182.602	76.63
182.822	15.19
183.042	50
183.262	84.82
183.482	78.68
183.701	41.81
183.921	13.14
184.141	-95.4
184.361	35.67
184.58	19.29
184.8	-25.77
185.02	-23.72
185.239	107.35
185.459	27.48
185.679	82.77
185.898	-23.72
186.118	29.52
186.338	74.58
186.557	64.34
186.777	-5.29
186.997	21.33
187.216	41.81
187.436	13.14
187.655	52.05
187.875	70.48
188.095	17.24
188.314	90.96
188.534	47.96
188.753	-15.53
188.973	66.39
189.192	74.58
189.412	70.48
189.631	68.44
189.851	45.91
190.07	35.67
190.29	-7.34
190.509	72.53
190.729	21.33
190.948	66.39
191.168	174.93
191.387	68.44
191.607	90.96
191.826	33.62
192.045	29.52
192.265	-40.11
192.484	41.81
192.704	54.1
192.923	-68.78
193.142	121.68
193.362	-5.29
193.581	64.34
193.8	-17.58
194.02	33.62
194.239	-40.11
194.458	-15.53
194.678	45.91
194.897	-11.43
195.116	-3.24
195.335	54.1
195.555	-44.2
195.774	-1.19
195.993	39.76
196.212	-31.91
196.432	23.38
196.651	107.35
196.87	29.52
197.089	86.87
197.308	70.48
197.528	45.91
197.747	-36.01
197.966	84.82
198.185	74.58
198.404	43.86
198.623	7
198.842	-11.43
199.062	-21.67
199.281	82.77
199.5	21.33
199.719	33.62
199.938	78.68
200.157	33.62
200.376	62.29
200.595	64.34
200.814	74.58
201.033	-1.19
201.252	39.76
201.471	45.91
201.69	62.29
201.909	138.07
202.128	29.52
202.347	23.38
202.566	33.62
202.785	39.76
203.004	-33.96
203.223	21.33
203.442	113.49
203.661	9.05
203.879	54.1
204.098	45.91
204.317	4.95
204.536	54.1
204.755	23.38
204.974	62.29
205.193	29.52
205.411	86.87
205.63	113.49
205.849	2.9
206.068	47.96
206.287	52.05
206.505	93.01
206.724	47.96
206.943	-76.97
207.162	17.24
207.381	-5.29
207.599	37.72
207.818	31.57
208.037	115.54
208.255	47.96
208.474	45.91
208.693	23.38
208.911	-1.19
209.13	74.58
209.349	66.39
209.567	23.38
209.786	2.9
210.005	37.72
210.223	29.52
210.442	-36.01
210.661	41.81
210.879	60.24
211.098	15.19
211.316	41.81
211.535	115.54
211.753	-36.01
211.972	11.09
212.191	-5.29
212.409	-15.53
212.628	29.52
212.846	33.62
213.065	41.81
213.283	62.29
213.502	-5.29
213.72	-27.82
213.938	11.09
214.157	66.39
214.375	23.38
214.594	-13.48
214.812	95.06
215.031	58.2
215.249	25.43
215.467	-25.77
215.686	25.43
215.904	54.1
216.122	-3.24
216.341	33.62
216.559	66.39
216.778	39.76
216.996	41.81
217.214	60.24
217.432	37.72
217.651	-25.77
217.869	-5.29
218.087	29.52
218.306	45.91
218.524	37.72
218.742	50
218.96	72.53
219.179	43.86
219.397	56.15
219.615	170.83
219.833	13.14
220.051	21.33
220.27	86.87
220.488	56.15
220.706	31.57
220.924	111.44
221.142	39.76
221.36	13.14
221.578	13.14
221.796	-17.58
222.015	29.52
222.233	9.05
222.451	72.53
222.669	13.14
222.887	19.29
223.105	64.34
223.323	0.85
223.541	-17.58
223.759	99.16
223.977	68.44
224.195	47.96
224.413	-9.39
224.631	80.72
224.849	21.33
225.067	54.1
225.285	17.24
225.503	-15.53
225.721	-21.67
225.939	27.48
226.157	19.29
226.375	80.72
226.592	0.85
226.81	-58.54
227.028	97.11
227.246	35.67
227.464	-23.72
227.682	47.96
227.9	76.63
228.117	78.68
228.335	50
228.553	9.05
228.771	78.68
228.989	72.53
229.206	90.96
229.424	21.33
229.642	-25.77
229.86	-23.72
230.077	19.29
230.295	82.77
230.513	-40.11
230.731	25.43
230.948	62.29
231.166	-9.39
231.384	-23.72
231.601	33.62
231.819	95.06
232.037	56.15
232.254	7
232.472	29.52
232.689	50
232.907	29.52
233.125	80.72
233.342	43.86
233.56	-27.82
233.777	47.96
233.995	-29.87
234.213	82.77
234.43	-13.48
234.648	58.2
234.865	56.15
235.083	50
235.3	-7.34
235.518	72.53
235.735	37.72
235.953	47.96
236.17	-3.24
236.388	39.76
236.605	62.29
236.822	58.2
237.04	33.62
237.257	41.81
237.475	7
237.692	19.29
237.909	68.44
238.127	41.81
238.344	27.48
238.562	-44.2
238.779	58.2
238.996	58.2
239.214	50
239.431	95.06
239.648	66.39
239.865	64.34
240.083	31.57
240.3	58.2
240.517	27.48
240.735	88.92
240.952	103.25
241.169	183.12
241.386	-15.53
241.603	-3.24
241.821	52.05
242.038	35.67
242.255	45.91
242.472	19.29
242.689	19.29
242.907	82.77
243.124	13.14
243.341	33.62
243.558	35.67
243.775	58.2
243.992	-29.87
244.209	47.96
244.426	39.76
244.643	41.81
244.86	13.14
245.078	31.57
245.295	90.96
245.512	19.29
245.729	15.19
245.946	54.1
246.163	-3.24
246.38	-5.29
246.597	37.72
246.814	-11.43
247.031	35.67
247.248	88.92
247.464	131.92
247.681	70.48
247.898	-17.58
248.115	58.2
248.332	-64.68
248.549	60.24
248.766	2.9
248.983	19.29
249.2	9.05
249.417	121.68
249.633	136.02
249.85	-1.19
250.067	31.57
250.284	-9.39
250.501	35.67
250.717	56.15
250.934	-11.43
251.151	-9.39
251.368	66.39
251.585	66.39
251.801	21.33
252.018	-52.39
252.235	78.68
252.451	9.05
252.668	60.24
252.885	37.72
253.102	13.14
253.318	43.86
253.535	-3.24
253.752	2.9
253.968	56.15
254.185	56.15
254.401	70.48
254.618	-74.92
254.835	19.29
255.051	105.3
255.268	11.09
255.484	-19.63
255.701	-21.67
255.917	25.43
256.134	-5.29
256.351	52.05
256.567	54.1
256.784	2.9
257	-3.24
257.217	78.68
257.433	43.86
257.65	93.01
257.866	39.76
258.082	25.43
258.299	-50.35
258.515	86.87
258.732	43.86
258.948	0.85
259.165	31.57
259.381	105.3
259.597	-1.19
259.814	62.29
260.03	37.72
260.246	93.01
260.463	0.85
260.679	90.96
260.895	54.1
261.112	37.72
261.328	99.16
261.544	-15.53
261.761	17.24
261.977	56.15
262.193	86.87
262.409	50
262.626	45.91
262.842	27.48
263.058	13.14
263.274	76.63
263.49	-23.72
263.707	117.59
263.923	39.76
264.139	31.57
264.355	-1.19
264.571	90.96
264.787	15.19
265.004	29.52
265.22	19.29
265.436	52.05
265.652	39.76
265.868	-17.58
266.084	15.19
266.3	-58.54
266.516	31.57
266.732	37.72
266.948	90.96
267.164	52.05
267.38	64.34
267.596	56.15
267.812	105.3
268.028	37.72
268.244	31.57
268.46	52.05
268.676	33.62
268.892	25.43
269.108	2.9
269.324	-17.58
269.54	74.58
269.756	50
269.972	-52.39
270.188	97.11
270.403	84.82
270.619	72.53
270.835	70.48
271.051	76.63
271.267	-7.34
271.483	29.52
271.698	101.2
271.914	66.39
272.13	95.06
272.346	66.39
272.562	29.52
272.777	115.54
272.993	41.81
273.209	4.95
273.425	-29.87
273.64	31.57
273.856	54.1
274.072	74.58
274.287	31.57
274.503	127.83
274.719	29.52
274.934	-13.48
275.15	23.38
275.366	4.95
275.581	50
275.797	29.52
276.012	54.1
276.228	62.29
276.444	-56.49
276.659	41.81
276.875	33.62
277.09	97.11
277.306	11.09
277.521	50
277.737	52.05
277.952	78.68
278.168	19.29
278.383	2.9
278.599	37.72
278.814	95.06
279.03	78.68
279.245	17.24
279.461	60.24
279.676	-1.19
279.892	37.72
280.107	-11.43
280.322	-5.29
280.538	47.96
280.753	-11.43
280.969	29.52
281.184	41.81
281.399	37.72
281.615	-25.77
281.83	86.87
282.045	19.29
282.26	11.09
282.476	-19.63
282.691	109.4
282.906	62.29
283.122	74.58
283.337	35.67
283.552	121.68
283.767	-33.96
283.983	66.39
284.198	68.44
284.413	66.39
284.628	-23.72
284.843	-15.53
285.058	76.63
285.274	13.14
285.489	19.29
285.704	4.95
285.919	-7.34
286.134	45.91
286.349	68.44
286.564	54.1
286.779	140.12
286.995	9.05
287.21	0.85
287.425	13.14
287.64	15.19
287.855	70.48
288.07	33.62
288.285	-3.24
288.5	95.06
288.715	62.29
288.93	68.44
289.145	-5.29
289.36	70.48
289.575	25.43
289.79	27.48
290.004	29.52
290.219	11.09
290.434	88.92
290.649	-7.34
290.864	7
291.079	23.38
291.294	21.33
291.509	84.82
291.724	11.09
291.938	-33.96
292.153	23.38
292.368	9.05
292.583	60.24
292.798	119.64
293.012	84.82
293.227	50
293.442	-15.53
293.657	43.86
293.871	90.96
294.086	35.67
294.301	2.9
294.516	74.58
294.73	56.15
294.945	-23.72
295.16	74.58
295.374	123.73
295.589	111.44
295.804	62.29
296.018	13.14
296.233	-3.24
296.447	72.53
296.662	37.72
296.877	62.29
297.091	13.14
297.306	35.67
297.52	47.96
297.735	80.72
297.949	58.2
298.164	76.63
298.378	-64.68
298.593	-3.24
298.807	80.72
299.022	56.15
299.236	146.26
299.451	74.58
299.665	-9.39
299.88	-27.82
300.094	25.43
300.309	23.38
300.523	2.9
300.737	97.11
300.952	45.91
301.166	74.58
301.381	13.14
301.595	37.72
301.809	25.43
302.024	58.2
302.238	37.72
302.452	41.81
302.667	68.44
302.881	101.2
303.095	41.81
303.309	21.33
303.524	64.34
303.738	0.85
303.952	25.43
304.166	4.95
304.381	-23.72
304.595	35.67
304.809	29.52
305.023	109.4
305.237	37.72
305.452	45.91
305.666	56.15
305.88	39.76
306.094	25.43
306.308	7
306.522	66.39
306.736	39.76
306.95	60.24
307.164	47.96
307.379	66.39
307.593	111.44
307.807	15.19
308.021	72.53
308.235	35.67
308.449	35.67
308.663	-9.39
308.877	95.06
309.091	11.09
309.305	74.58
309.519	0.85
309.733	23.38
309.947	2.9
310.161	109.4
310.374	45.91
310.588	105.3
310.802	23.38
311.016	0.85
311.23	-33.96
311.444	52.05
311.658	99.16
311.872	45.91
312.085	47.96
312.299	82.77
312.513	76.63
312.727	15.19
312.941	50
313.154	-11.43
313.368	11.09
313.582	27.48
313.796	66.39
314.009	45.91
314.223	80.72
314.437	50
314.651	37.72
314.864	17.24
315.078	66.39
315.292	15.19
315.505	9.05
315.719	0.85
315.933	33.62
316.146	2.9
316.36	-1.19
316.573	50
316.787	50
317.001	54.1
317.214	78.68
317.428	-13.48
317.641	-54.44
317.855	50
318.068	58.2
318.282	13.14
318.495	82.77
318.709	70.48
318.922	78.68
319.136	140.12
319.349	27.48
319.563	13.14
319.776	29.52
319.99	-21.67
320.203	93.01
320.417	113.49
320.63	41.81
320.843	78.68
321.057	68.44
321.27	39.76
321.483	99.16
321.697	29.52
321.91	25.43
322.124	99.16
322.337	9.05
322.55	70.48
322.763	-3.24
322.977	64.34
323.19	86.87
323.403	103.25
323.617	58.2
323.83	76.63
324.043	4.95
324.256	95.06
324.469	15.19
324.683	72.53
324.896	78.68
325.109	17.24
325.322	31.57
325.535	50
325.748	43.86
325.962	64.34
326.175	41.81
326.388	58.2
326.601	101.2
326.814	13.14
327.027	-17.58
327.24	23.38
327.453	9.05
327.666	72.53
327.879	56.15
328.092	99.16
328.305	39.76
328.518	70.48
328.731	-17.58
328.944	11.09
329.157	66.39
329.37	50
329.583	119.64
329.796	144.21
330.009	-19.63
330.222	13.14
330.435	129.88
330.648	45.91
330.861	95.06
331.073	9.05
331.286	-19.63
331.499	82.77
331.712	-74.92
331.925	90.96
332.138	-27.82
332.35	47.96
332.563	4.95
332.776	117.59
332.989	82.77
333.202	54.1
333.414	54.1
333.627	99.16
333.84	33.62
334.053	33.62
334.265	-13.48
334.478	74.58
334.691	78.68
334.903	74.58
335.116	50
335.329	11.09
335.541	62.29
335.754	111.44
335.966	13.14
336.179	56.15
336.392	129.88
336.604	13.14
336.817	47.96
337.029	95.06
337.242	39.76
337.454	86.87
337.667	90.96
337.88	70.48
338.092	39.76
338.305	13.14
338.517	-1.19
338.729	19.29
338.942	-21.67
339.154	7
339.367	62.29
339.579	7
339.792	82.77
340.004	43.86
340.217	-13.48
340.429	82.77
340.641	0.85
340.854	41.81
341.066	27.48
341.278	105.3
341.491	97.11
341.703	37.72
341.915	-11.43
342.128	107.35
342.34	99.16
342.552	-11.43
342.764	4.95
342.977	4.95
343.189	13.14
343.401	33.62
343.613	-19.63
343.826	17.24
344.038	39.76
344.25	31.57
344.462	76.63
344.674	70.48
344.886	64.34
345.099	13.14
345.311	56.15
345.523	13.14
345.735	17.24
345.947	99.16
346.159	117.59
346.371	68.44
346.583	47.96
346.795	176.98
347.007	9.05
347.219	84.82
347.431	70.48
347.643	13.14
347.855	-36.01
348.067	117.59
348.279	62.29
348.491	39.76
348.703	13.14
348.915	-7.34
349.127	41.81
349.339	84.82
349.551	66.39
349.763	62.29
349.975	25.43
350.187	47.96
350.399	62.29
350.61	9.05
350.822	50
351.034	90.96
351.246	21.33
351.458	19.29
351.669	50
351.881	29.52
352.093	66.39
352.305	80.72
352.517	82.77
352.728	33.62
352.94	23.38
353.152	84.82
353.363	29.52
353.575	-9.39
353.787	66.39
353.999	31.57
354.21	86.87
354.422	129.88
354.633	115.54
354.845	13.14
355.057	80.72
355.268	78.68
355.48	74.58
355.692	54.1
355.903	70.48
356.115	74.58
356.326	62.29
356.538	50
356.749	0.85
356.961	43.86
357.172	90.96
357.384	80.72
357.595	131.92
357.807	99.16
358.018	86.87
358.23	52.05
358.441	86.87
358.653	-1.19
358.864	-11.43
359.075	39.76
359.287	111.44
359.498	86.87
359.709	9.05
359.921	119.64
360.132	25.43
360.344	74.58
360.555	70.48
360.766	-9.39
360.977	54.1
361.189	88.92
361.4	54.1
361.611	111.44
361.823	80.72
362.034	117.59
362.245	-19.63
362.456	-1.19
362.667	90.96
362.879	25.43
363.09	103.25
363.301	82.77
363.512	86.87
363.723	60.24
363.935	62.29
364.146	68.44
364.357	84.82
364.568	54.1
364.779	25.43
364.99	54.1
365.201	-17.58
365.412	47.96
365.623	-29.87
365.834	64.34
366.045	0.85
366.256	13.14
366.467	88.92
366.678	-48.3
366.889	35.67
367.1	33.62
367.311	93.01
367.522	-23.72
367.733	37.72
367.944	115.54
368.155	15.19
368.366	115.54
368.577	60.24
368.788	99.16
368.999	109.4
369.209	25.43
369.42	54.1
369.631	78.68
369.842	27.48
370.053	21.33
370.264	76.63
370.474	39.76
370.685	78.68
370.896	27.48
371.107	62.29
371.317	107.35
371.528	68.44
371.739	164.69
371.95	82.77
372.16	62.29
372.371	54.1
372.582	29.52
372.792	7
373.003	74.58
373.214	29.52
373.424	50
373.635	66.39
373.846	84.82
374.056	19.29
374.267	47.96
374.477	58.2
374.688	86.87
374.898	33.62
375.109	50
375.319	-3.24
375.53	76.63
375.74	50
375.951	193.36
376.161	-11.43
376.372	121.68
376.582	76.63
376.793	56.15
377.003	35.67
377.214	47.96
377.424	43.86
377.635	64.34
377.845	47.96
378.055	103.25
378.266	58.2
378.476	123.73
378.686	76.63
378.897	33.62
379.107	13.14
379.317	58.2
379.528	54.1
379.738	103.25
379.948	-1.19
380.158	52.05
380.369	35.67
380.579	88.92
380.789	25.43
380.999	64.34
381.21	103.25
381.42	117.59
381.63	13.14
381.84	62.29
382.05	62.29
382.261	113.49
382.471	13.14
382.681	41.81
382.891	99.16
383.101	111.44
383.311	-25.77
383.521	58.2
383.731	103.25
383.941	4.95
384.151	54.1
384.361	-7.34
384.571	84.82
384.781	93.01
384.991	136.02
385.201	117.59
385.411	23.38
385.621	111.44
385.831	52.05
386.041	45.91
386.251	43.86
386.461	158.55
386.671	107.35
386.881	109.4
387.091	99.16
387.301	207.7
387.511	70.48
387.72	93.01
387.93	45.91
388.14	115.54
388.35	97.11
388.56	47.96
388.769	164.69
388.979	76.63
389.189	7
389.399	45.91
389.609	146.26
389.818	64.34
390.028	168.79
390.238	15.19
390.447	97.11
390.657	9.05
390.867	84.82
391.076	74.58
391.286	99.16
391.496	82.77
391.705	56.15
391.915	129.88
392.125	68.44
392.334	17.24
392.544	119.64
392.753	27.48
392.963	15.19
393.172	123.73
393.382	105.3
393.591	133.97
393.801	47.96
394.01	207.7
394.22	56.15
394.429	164.69
394.639	37.72
394.848	68.44
395.058	84.82
395.267	88.92
395.477	95.06
395.686	62.29
395.895	138.07
396.105	129.88
396.314	47.96
396.524	43.86
396.733	74.58
396.942	99.16
397.152	88.92
397.361	45.91
397.57	76.63
397.78	142.16
397.989	125.78
398.198	146.26
398.407	107.35
398.617	131.92
398.826	107.35
399.035	109.4
399.244	121.68
399.453	125.78
399.663	58.2
399.872	133.97
400.081	50
400.29	131.92
400.499	162.64
400.708	119.64
400.917	109.4
401.127	129.88
401.336	127.83
401.545	166.74
401.754	162.64
401.963	185.17
402.172	111.44
402.381	115.54
402.59	144.21
402.799	142.16
403.008	111.44
403.217	185.17
403.426	205.65
403.635	121.68
403.844	168.79
404.053	131.92
404.262	74.58
404.471	189.27
404.68	224.08
404.888	152.4
405.097	199.51
405.306	140.12
405.515	140.12
405.724	115.54
405.933	138.07
406.142	160.59
406.35	195.41
406.559	183.12
406.768	262.99
406.977	240.47
407.185	269.14
407.394	291.66
407.603	195.41
407.812	234.32
408.02	328.53
408.229	291.66
408.438	207.7
408.646	217.94
408.855	334.67
409.064	267.09
409.272	250.71
409.481	291.66
409.69	271.19
409.898	318.29
410.107	314.19
410.315	310.1
410.524	414.54
410.733	424.78
410.941	377.68
411.15	402.26
411.358	430.93
411.567	422.73
411.775	459.6
411.984	408.4
412.192	408.4
412.401	437.07
412.609	451.41
412.818	621.39
413.026	539.47
413.234	553.8
413.443	562
413.651	621.39
413.86	586.57
414.068	705.35
414.276	691.02
414.485	609.1
414.693	645.96
414.901	760.65
415.11	774.99
415.318	817.99
415.526	840.52
415.734	803.66
415.943	914.25
416.151	920.39
416.359	887.62
416.567	957.25
416.776	951.11
416.984	1035.08
417.192	1121.09
417.4	990.02
417.608	1053.51
417.817	1180.48
418.025	1160
418.233	1284.93
418.441	1233.73
418.649	1282.88
418.857	1434.43
419.065	1551.17
419.273	1418.05
419.481	1610.56
419.689	1508.16
419.897	1583.93
420.105	1557.31
420.313	1708.86
420.521	1694.52
420.729	1755.96
420.937	1844.03
421.145	1934.14
421.353	1889.08
421.561	2186.04
421.769	2188.08
421.977	2147.12
422.185	2159.41
422.393	2360.11
422.601	2401.07
422.809	2454.32
423.017	2454.32
423.224	2579.25
423.432	2847.53
423.64	2767.66
423.848	2986.79
424.056	2847.53
424.263	3177.25
424.471	3169.06
424.679	3040.04
424.887	3349.28
425.094	3484.45
425.302	3474.21
425.51	3457.82
425.718	3676.96
425.925	3803.93
426.133	3930.91
426.341	4201.24
426.548	4360.98
426.756	4066.07
426.964	4293.4
427.171	4629.26
427.379	4641.55
427.586	4563.73
427.794	4995.85
428.001	5092.1
428.209	5456.64
428.417	5315.33
428.624	5614.34
428.832	5591.81
429.039	5618.43
429.247	5618.43
429.454	6171.38
429.662	6439.67
429.869	6238.97
430.076	6544.11
430.284	6284.02
430.491	6593.26
430.699	7021.29
430.906	6945.52
431.114	7111.4
431.321	7496.42
431.528	7387.88
431.736	8065.75
431.943	8395.48
432.15	8157.91
432.358	8280.79
432.565	8555.22
432.772	8544.98
432.979	8930
433.187	9364.17
433.394	9194.19
433.601	9982.65
433.808	9990.84
434.016	9810.62
434.223	10236.6
434.43	10867.38
434.637	10683.06
434.844	11416.23
435.052	11504.29
435.259	11508.39
435.466	11461.29
435.673	11416.23
435.88	12386.97
436.087	12999.31
436.294	12821.14
436.501	12550.81
436.708	12966.54
436.915	13357.71
437.122	13947.52
437.329	13697.67
437.537	14244.48
437.743	14664.31
437.95	14535.29
438.157	15297.13
438.364	15936.1
438.571	15788.64
438.778	15688.29
438.985	17248.85
439.192	16564.82
439.399	17211.98
439.606	16679.51
439.813	17719.88
440.02	18721.34
440.227	18508.35
440.433	18094.66
440.64	18883.13
440.847	18975.28
441.054	19468.84
441.261	20128.29
441.467	20085.28
441.674	20617.75
441.881	21332.5
442.088	21381.65
442.294	21041.68
442.501	21506.57
442.708	22028.81
442.914	22950.39
443.121	24168.93
443.328	23392.75
443.534	24781.28
443.741	24381.92
443.948	23849.45
444.154	25745.87
444.361	25735.63
444.568	25747.92
444.774	25627.09
444.981	26042.82
445.187	26982.84
445.394	27974.06
445.6	27619.76
445.807	30206.34
446.013	29114.78
446.22	29309.33
446.426	30712.19
446.633	30742.91
446.839	31877.49
447.046	30536.07
447.252	32039.28
447.459	32346.47
447.665	32016.75
447.871	33786.19
448.078	34853.19
448.284	33188.19
448.491	34206.03
448.697	35324.22
448.903	36030.77
449.11	36047.15
449.316	35273.02
449.522	35991.86
449.728	37040.42
449.935	37450.01
450.141	37333.28
450.347	37929.23
450.553	36860.19
450.76	37390.62
450.966	38025.49
451.172	38052.11
451.378	38811.91
451.584	38111.5
451.791	38951.17
451.997	39024.9
452.203	39764.21
452.409	39520.51
452.615	39057.67
452.821	37927.19
453.027	37169.44
453.233	39364.86
453.44	37708.05
453.646	38097.17
453.852	38498.57
454.058	38979.84
454.264	37798.16
454.47	38365.45
454.676	37486.87
454.882	38840.58
455.088	35291.45
455.294	35940.66
455.5	36204.84
455.705	36593.96
455.911	35492.15
456.117	34795.84
456.323	33835.35
456.529	32008.56
456.735	33306.97
456.941	32614.76
457.147	32041.32
457.352	31211.9
457.558	30841.21
457.764	30996.86
457.97	30366.09
458.176	29641.11
458.381	29712.78
458.587	28074.41
458.793	27998.63
458.999	26851.77
459.204	28615.07
459.41	27675.06
459.616	25971.15
459.821	26100.17
460.027	25602.51
460.233	25477.58
460.438	24275.43
460.644	24553.95
460.85	23015.93
461.055	22911.48
461.261	22837.75
461.466	20791.83
461.672	20296.22
461.878	21932.55
462.083	20722.2
462.289	20185.63
462.494	19878.44
462.7	19202.61
462.905	18555.45
463.111	19180.08
463.316	19386.93
463.522	18981.43
463.727	19046.96
463.932	18786.87
464.138	18668.09
464.343	18659.9
464.549	18346.56
464.754	18741.82
464.959	18659.9
465.165	18506.3
465.37	17646.15
465.575	17201.74
465.781	18080.32
465.986	18098.75
466.191	17390.16
466.397	17160.78
466.602	16454.23
466.807	16736.85
467.012	17195.6
467.218	17156.69
467.423	16403.04
467.628	16726.61
467.833	17535.56
468.038	16810.58
468.244	16443.99
468.449	17095.25
468.654	16450.14
468.859	16589.4
469.064	16251.49
469.269	15530.6
469.474	15397.48
469.679	15888.99
469.885	15704.68
470.09	15526.5
470.295	15544.94
470.5	15307.37
470.705	15467.11
470.91	14822
471.115	14971.5
471.32	14985.84
471.525	14987.89
471.73	14652.02
471.935	14484.09
472.139	14002.82
472.344	14230.14
472.549	14111.36
472.754	13810.31
472.959	13591.17
473.164	13585.03
473.369	13232.78
473.574	13656.71
473.778	13671.04
473.983	13222.54
474.188	13331.08
474.393	12868.24
474.598	12939.92
474.802	12661.4
475.007	12704.4
475.212	12714.64
475.417	12225.18
475.621	11950.75
475.826	12255.9
476.031	12110.49
476.235	11766.43
476.44	11860.64
476.645	11682.47
476.849	11735.71
477.054	11707.04
477.259	11434.66
477.463	11496.1
477.668	11195.05
477.872	11330.22
478.077	11135.66
478.282	10703.54
478.486	10914.48
478.691	10801.84
478.895	10941.1
479.1	10801.84
479.304	10719.92
479.509	10343.1
479.713	10535.6
479.918	10334.9
480.122	10173.11
480.326	10203.83
480.531	10283.7
480.735	10130.11
480.94	10164.92
481.144	10369.72
481.348	9984.7
481.553	10046.14
481.757	9931.45
481.961	9984.7
482.166	10269.37
482.37	10076.86
482.574	9878.21
482.778	9874.11
482.983	10154.68
483.187	9902.78
483.391	10040
483.595	9945.79
483.8	9806.53
484.004	9820.86
484.208	9980.61
484.412	9827.01
484.616	9941.69
484.821	9927.36
485.025	9884.35
485.229	9837.25
485.433	9841.34
485.637	9759.42
485.841	10003.13
486.045	9888.45
486.249	9790.14
486.453	9777.86
486.657	10007.23
486.861	10060.48
487.065	9874.11
487.269	10062.52
487.473	9855.68
487.677	10025.66
487.881	10087.1
488.085	9935.55
488.289	10005.18
488.493	9863.87
488.697	10001.08
488.901	10023.61
489.105	9953.98
489.309	10017.47
489.512	10099.39
489.716	10263.22
489.92	9898.69
490.124	10212.03
490.328	10037.95
490.531	10306.23
490.735	10283.7
490.939	10150.59
491.143	10259.13
491.346	10177.21
491.55	10334.9
491.754	10218.17
491.958	10427.06
492.161	10406.58
492.365	10361.53
492.569	10386.1
492.772	10597.04
492.976	10724.02
493.18	10607.28
493.383	10947.25
493.587	10945.2
493.79	10744.5
493.994	10803.89
494.197	11127.47
494.401	11020.97
494.605	11100.84
494.808	11111.08
495.012	11268.78
495.215	11244.2
495.419	11389.61
495.622	11315.88
495.825	11578.02
496.029	11588.26
496.232	11838.11
496.436	11881.12
496.639	12053.15
496.843	11850.4
497.046	12376.73
497.249	12282.52
497.453	12454.55
497.656	12636.82
497.859	12405.4
498.063	12821.14
498.266	13277.83
498.469	13193.87
498.673	13245.07
498.876	13347.47
499.079	13664.9
499.282	13496.97
499.485	13939.33
499.689	13755.01
499.892	14082.69
500.095	14002.82
500.298	14568.06
500.501	14242.43
500.705	14819.96
500.908	14905.97
501.111	15022.7
501.314	15069.81
501.517	15334
501.72	15557.22
501.923	15553.13
502.126	15780.45
502.329	16237.15
502.532	16304.73
502.735	16482.91
502.938	16669.27
503.141	16714.33
503.344	17044.05
503.547	17097.3
503.75	17242.7
503.953	17674.82
504.156	17666.63
504.359	17685.06
504.562	17879.62
504.765	18510.39
504.968	18655.8
505.17	18823.73
505.373	18694.71
505.576	19173.94
505.779	19298.86
505.982	19415.6
506.185	19827.24
506.387	19747.37
506.59	20353.57
506.793	20797.98
506.996	20099.62
507.198	21129.75
507.401	20922.9
507.604	21154.32
507.807	21588.49
508.009	21768.71
508.212	22006.28
508.415	22266.37
508.617	22254.08
508.82	22299.14
509.022	22557.18
509.225	22940.15
509.428	23544.3
509.63	23462.38
509.833	23695.85
510.035	24175.08
510.238	24312.29
510.44	24168.93
510.643	24859.1
510.845	25057.75
511.048	24816.09
511.25	25233.88
511.453	25838.03
511.655	26554.82
511.858	26192.33
512.06	26636.73
512.262	26894.78
512.465	26554.82
512.667	27441.59
512.87	27453.87
513.072	27357.62
513.274	28111.27
513.477	28385.7
513.679	28275.11
513.881	28723.62
514.084	28817.82
514.286	29092.25
514.488	29409.68
514.69	30183.82
514.893	30101.9
515.095	30466.44
515.297	30849.41
515.499	30722.43
515.701	31476.09
515.904	31605.11
516.106	31977.84
516.308	32178.54
516.51	32258.41
516.712	32235.88
516.914	33130.84
517.116	33599.83
517.318	33253.72
517.52	33622.36
517.722	33870.16
517.925	34189.64
518.127	34609.48
518.329	34988.35
518.531	34736.45
518.733	35762.48
518.935	35866.93
519.136	35760.44
519.338	36528.42
519.54	36518.18
519.742	36870.43
519.944	37019.94
520.146	37730.58
520.348	37996.82
520.55	38097.17
520.752	37986.58
520.954	38729.99
521.155	38779.14
521.357	39299.33
521.559	39688.44
521.761	39934.2
521.963	40032.5
522.164	40007.92
522.366	40720.62
522.568	40653.03
522.77	41001.19
522.971	41930.97
523.173	41169.12
523.375	41740.5
523.576	41924.82
523.778	41939.16
523.98	42490.06
524.181	42522.83
524.383	42678.47
524.584	43319.49
524.786	43262.15
524.988	43024.58
525.189	43847.86
525.391	43897.02
525.592	44255.41
525.794	44665
525.995	44279.99
526.197	44570.8
526.398	44396.72
526.6	45418.66
526.801	45383.84
527.003	45639.84
527.204	45070.5
527.406	45729.95
527.607	45906.07
527.808	46170.26
528.01	45519.01
528.211	46418.07
528.412	46829.71
528.614	46850.19
528.815	46450.83
529.016	47343.75
529.218	46676.11
529.419	46938.25
529.62	47032.46
529.822	47376.51
530.023	47538.3
530.224	47267.97
530.425	47433.86
530.626	47065.22
530.828	47097.99
531.029	48334.96
531.23	47542.4
531.431	47327.36
531.632	47954.04
531.833	48476.27
532.035	47951.99
532.236	48087.16
532.437	48404.59
532.638	47964.28
532.839	48042.1
533.04	48416.88
533.241	48173.17
533.442	49049.7
533.643	48744.56
533.844	48345.2
534.045	48599.15
534.246	48343.16
534.447	48597.1
534.648	48633.97
534.849	48230.52
535.05	48302.2
535.251	48457.84
535.451	48597.1
535.652	48928.87
535.853	48670.83
536.054	48429.17
536.255	48892.01
536.456	47968.38
536.657	48996.46
536.857	48525.42
537.058	48556.14
537.259	48883.82
537.46	49115.24
537.66	48320.63
537.861	48785.52
538.062	48638.06
538.263	48785.52
538.463	48312.44
538.664	48797.8
538.865	48904.3
539.065	49076.33
539.266	48646.26
539.466	48689.26
539.667	48255.09
539.868	49094.76
540.068	49121.38
540.269	48631.92
540.469	48834.67
540.67	48806
540.87	48580.72
541.071	48834.67
541.271	48679.02
541.472	48832.62
541.672	48380.02
541.873	48195.7
542.073	48302.2
542.274	48857.2
542.474	48670.83
542.675	48468.08
542.875	48846.96
543.075	48904.3
543.276	48205.94
543.476	48556.14
543.676	48566.38
543.877	48646.26
544.077	48593.01
544.277	48187.51
544.478	48429.17
544.678	49162.34
544.878	48840.81
545.078	48429.17
545.279	48021.62
545.479	48070.78
545.679	48672.88
545.879	48375.92
546.079	48504.95
546.28	48433.27
546.48	47446.15
546.68	48441.46
546.88	48406.64
547.08	48044.15
547.28	48023.67
547.48	48060.54
547.68	48506.99
547.88	48121.98
548.081	48558.19
548.281	48625.78
548.481	48173.17
548.681	48584.82
548.881	48580.72
549.081	48457.84
549.28	48142.45
549.48	47919.23
549.68	47933.56
549.88	48523.38
550.08	47741.05
550.28	48140.41
550.48	47837.31
550.68	48199.8
550.88	47861.88
551.08	47335.56
551.279	47958.14
551.479	47880.31
551.679	48130.17
551.879	48023.67
552.079	48355.44
552.278	48072.82
552.478	47593.6
552.678	47968.38
552.878	47872.12
553.077	47962.23
553.277	47233.16
553.477	48365.68
553.676	47681.66
553.876	47671.42
554.076	47300.74
554.275	47321.22
554.475	47308.93
554.674	47843.45
554.874	47376.51
555.074	47077.51
555.273	47562.88
555.473	47771.77
555.672	46823.56
555.872	47141
556.071	46981.26
556.271	47327.36
556.47	47147.14
556.67	46631.05
556.869	46917.77
557.068	47214.72
557.268	46612.62
557.467	46786.7
557.667	46827.66
557.866	46626.96
558.065	46375.06
558.265	46358.67
558.464	46217.36
558.663	46981.26
558.863	46200.98
559.062	47136.9
559.261	46028.95
559.461	46952.58
559.66	45889.69
559.859	46262.42
560.058	45830.3
560.258	46413.97
560.457	45381.79
560.656	46047.38
560.855	45746.33
561.054	45602.97
561.253	45637.79
561.453	45553.82
561.652	45562.01
561.851	45758.62
562.05	45539.49
562.249	45379.74
562.448	45723.8
562.647	45373.6
562.846	45168.8
563.045	45086.89
563.244	44535.98
563.443	45207.72
563.642	44239.03
563.841	44884.14
564.04	44363.95
564.239	44894.38
564.438	44462.25
564.637	44490.93
564.836	44501.17
565.035	43729.08
565.234	44370.1
565.432	43767.99
565.631	44273.84
565.83	43675.83
566.029	43739.32
566.228	43505.85
566.427	43765.95
566.625	43165.89
566.824	43182.27
567.023	43751.61
567.222	42836.17
567.42	43350.21
567.619	43587.77
567.818	42952.9
568.016	42791.11
568.215	42991.81
568.414	42549.45
568.612	42979.53
568.811	42223.83
569.01	42643.66
569.208	42141.91
569.407	42641.61
569.605	41793.75
569.804	42399.95
570.002	42336.46
570.201	42117.33
570.4	41785.56
570.598	41609.43
570.797	41502.94
570.995	41640.15
571.193	40792.29
571.392	41242.85
571.59	41003.24
571.789	40982.76
571.987	41138.4
572.186	40802.53
572.384	40669.42
572.582	40810.73
572.781	41021.67
572.979	40038.64
573.177	40507.63
573.376	40765.67
573.574	40128.75
573.772	40169.71
573.971	39702.78
574.169	39725.3
574.367	39512.31
574.565	39979.25
574.763	39477.5
574.962	39706.87
575.16	39219.45
575.358	39446.78
575.556	38773
575.754	39749.88
575.952	38650.12
576.151	39229.69
576.349	38949.12
576.547	38598.92
576.745	38355.21
576.943	38666.5
577.141	38824.2
577.339	38791.43
577.537	38080.78
577.735	38162.7
577.933	38070.54
578.131	38058.26
578.329	38056.21
578.527	37968.15
578.725	37660.95
578.923	37968.15
579.121	37505.31
579.319	37153.05
579.516	37521.69
579.714	37028.13
579.912	37015.84
580.11	37071.14
580.308	36718.89
580.506	37034.27
580.704	36022.58
580.901	36628.77
581.099	36317.48
581.297	36006.19
581.495	36174.13
581.692	36198.7
581.89	36053.3
582.088	35963.18
582.285	35653.94
582.483	36202.8
582.681	36163.89
582.878	35404.09
583.076	35017.02
583.274	35367.23
583.471	34994.5
583.669	35469.62
583.866	34967.87
584.064	35436.86
584.262	34894.14
584.459	35146.05
584.657	34545.99
584.854	35008.83
585.052	34064.72
585.249	34769.22
585.447	34355.53
585.644	34158.92
585.841	34408.78
586.039	34429.26
586.236	33827.15
586.434	33980.75
586.631	33888.59
586.828	34031.95
587.026	33814.87
587.223	33495.38
587.42	33331.54
587.618	33474.9
587.815	33157.47
588.012	32973.15
588.21	32876.9
588.407	33114.46
588.604	33014.11
588.801	32401.77
588.999	32799.07
589.196	32276.84
589.393	32870.75
589.59	32332.14
589.787	32336.23
589.984	32098.67
590.182	31807.86
590.379	32360.81
590.576	31584.63
590.773	32016.75
590.97	31660.4
591.167	31928.69
591.364	31355.25
591.561	31711.6
591.758	31197.56
591.955	31287.67
592.152	31205.75
592.349	30839.17
592.546	31318.39
592.743	30935.42
592.94	30497.16
593.137	31005.05
593.334	30927.23
593.531	30572.93
593.727	30781.82
593.924	30470.53
594.121	30599.55
594.318	30382.47
594.515	29915.53
594.712	29960.59
594.908	29976.97
595.105	30087.56
595.302	29587.86
595.499	29897.1
595.696	29542.8
595.892	29399.44
596.089	29419.92
596.286	29802.89
596.482	29495.7
596.679	28983.71
596.876	29053.34
597.072	29143.45
597.269	28852.64
597.466	28723.62
597.662	29075.87
597.859	28887.45
598.055	28600.74
598.252	28643.74
598.448	28613.02
598.645	28305.83
598.841	27912.62
599.038	28225.96
599.234	28025.26
599.431	27924.91
599.627	27668.91
599.824	27849.13
600.02	27554.22
600.217	27982.25
600.413	27476.4
600.609	27533.75
600.806	27247.03
601.002	27615.66
601.198	27423.15
601.395	27048.38
601.591	27087.29
601.787	27034.04
601.984	27005.37
602.18	27214.26
602.376	26724.8
602.572	26677.69
602.769	26550.72
602.965	26390.98
603.161	26364.36
603.357	26403.27
603.553	26085.83
603.75	26417.6
603.946	25944.52
604.142	26223.05
604.338	25958.86
604.534	25874.89
604.73	25348.56
604.926	25575.89
605.122	25448.91
605.318	25559.5
605.514	25244.12
605.71	25328.08
605.906	25033.18
606.102	25536.98
606.298	24973.78
606.494	25115.09
606.69	25418.19
606.886	25223.64
607.082	24392.16
607.278	24975.83
607.474	24582.62
607.67	25012.7
607.866	24611.29
608.062	24998.36
608.257	24760.8
608.453	24547.81
608.649	24551.9
608.845	24381.92
609.041	24046.05
609.236	24363.49
609.432	23935.46
609.628	24275.43
609.824	24033.77
610.019	24089.06
610.215	23994.86
610.411	23943.66
610.606	23658.99
610.802	24109.54
610.998	23646.7
611.193	23896.55
611.389	23624.17
611.584	23233.01
611.78	23742.96
611.976	23364.08
612.171	23396.85
612.367	23179.76
612.562	23398.9
612.758	23177.72
612.953	23149.04
613.149	23452.14
613.344	22952.44
613.539	23276.02
613.735	23075.32
613.93	23206.39
614.126	22665.72
614.321	23269.87
614.517	23126.52
614.712	22745.59
614.907	22643.2
615.103	22934.01
615.298	22579.71
615.493	23128.56
615.688	22233.6
615.884	22823.42
616.079	22440.45
616.274	22499.84
616.47	22510.08
616.665	22610.43
616.86	22290.95
617.055	22333.95
617.25	22243.84
617.445	22479.36
617.641	21781
617.836	22397.44
618.031	21961.22
618.226	21910.02
618.421	21469.71
618.616	22022.66
618.811	21629.45
619.006	22149.64
619.201	21283.34
619.396	21572.11
619.591	20984.34
619.786	21664.27
619.981	21219.86
620.176	21449.23
620.371	20828.7
620.566	20959.77
620.761	20900.37
620.956	20984.34
621.151	20574.75
621.346	20611.61
621.541	20259.36
621.735	20400.67
621.93	20220.45
622.125	20335.14
622.32	19931.69
622.515	20040.23
622.709	19919.4
622.904	20175.39
623.099	19753.51
623.294	19679.79
623.488	19567.15
623.683	19591.72
623.878	19180.08
624.072	19262
624.267	19313.2
624.462	19180.08
624.656	18887.22
624.851	18747.96
625.046	18862.65
625.24	18969.14
625.435	18717.24
625.629	18537.02
625.824	18317.89
626.018	18358.85
626.213	17830.47
626.407	18084.42
626.602	17752.65
626.796	17986.11
626.991	17764.93
627.185	17451.6
627.38	17738.31
627.574	17517.13
627.768	17349.2
627.963	17566.28
628.157	17336.91
628.352	17328.72
628.546	17025.62
628.74	17082.96
628.935	16939.6
629.129	16912.98
629.323	16515.67
629.517	16802.39
629.712	16517.72
629.906	16491.1
630.1	16317.02
630.294	16370.27
630.489	16124.51
630.683	16267.87
630.877	15790.69
631.071	15866.47
631.265	16020.06
631.459	15917.67
631.653	15702.63
631.848	15845.99
632.042	15579.75
632.236	15610.47
632.43	15067.76
632.624	15551.08
632.818	15311.47
633.012	15157.87
633.206	15147.63
633.4	15245.93
633.594	14779
633.788	14869.11
633.982	14965.36
634.176	14701.17
634.369	14529.14
634.563	14690.93
634.757	14596.73
634.951	14619.25
635.145	14588.53
635.339	14424.7
635.533	14465.66
635.726	14287.48
635.92	14076.54
636.114	13916.8
636.308	14029.44
636.501	14054.01
636.695	13884.03
636.889	13810.31
637.083	13800.07
637.276	13511.3
637.47	13488.78
637.664	13187.72
637.857	13243.02
638.051	13576.84
638.244	13222.54
638.438	13124.24
638.632	13027.98
638.825	13118.09
639.019	12753.55
639.212	12681.88
639.406	13019.79
639.599	12868.24
639.793	12837.52
639.986	12483.22
640.18	12452.5
640.373	12475.03
640.567	12354.2
640.76	12294.81
640.954	12229.27
641.147	12274.33
641.34	12090.01
641.534	12208.8
641.727	12040.86
641.92	12112.54
642.114	11856.54
642.307	11917.98
642.5	11717.28
642.694	11586.21
642.887	11502.25
643.08	11725.47
643.273	11401.9
643.467	11489.96
643.66	11244.2
643.853	11330.22
644.046	11262.63
644.239	11387.56
644.432	11174.57
644.626	11045.55
644.819	10820.27
645.012	10865.33
645.205	10752.69
645.398	10920.62
645.591	10863.28
645.784	10564.28
645.977	10584.76
646.17	10465.97
646.363	10543.8
646.556	10474.17
646.749	10609.33
646.942	10328.76
647.135	10246.84
647.328	10328.76
647.521	10130.11
647.714	10056.38
647.907	10166.97
648.099	10037.95
648.292	10015.42
648.485	9786.05
648.678	9882.3
648.871	9798.34
649.064	9702.08
649.256	9855.68
649.449	9704.13
649.642	9738.94
649.835	9534.15
650.027	9415.37
650.22	9360.07
650.413	9480.9
650.605	9401.03
650.798	9456.33
650.991	9229
651.183	9372.36
651.376	9181.9
651.568	9267.91
651.761	9087.69
651.954	8975.05
652.146	9007.82
652.339	8952.52
652.531	8913.61
652.724	8817.36
652.916	8663.76
653.109	8671.95
653.301	8755.92
653.494	8641.23
653.686	8499.92
653.879	8698.58
654.071	8717.01
654.263	8381.14
654.456	8547.03
654.648	8344.28
654.84	8227.54
655.033	8241.88
655.225	8250.07
655.417	8278.74
655.61	8159.96
655.802	8243.93
655.994	8266.46
656.186	8119
656.379	8188.63
656.571	8041.18
656.763	8129.24
656.955	7944.92
657.148	8051.42
657.34	7830.24
657.532	7830.24
657.724	7568.1
657.916	7660.26
658.108	7398.12
658.3	7518.95
658.492	7537.38
658.684	7578.34
658.876	7619.3
659.068	7434.98
659.26	7418.6
659.452	7353.06
659.644	7408.36
659.836	7258.85
660.028	7281.38
660.22	7082.73
660.412	7373.54
660.604	7039.72
660.796	6888.17
660.988	7064.3
661.18	7054.06
661.372	6957.8
661.563	7119.59
661.755	6865.64
661.947	6810.35
662.139	6818.54
662.331	6826.73
662.522	6677.23
662.714	6761.2
662.906	6705.9
663.097	6613.74
663.289	6640.37
663.481	6464.24
663.673	6753.01
663.864	6333.17
664.056	6480.63
664.247	6494.96
664.439	6406.9
664.631	6212.34
664.822	6476.53
665.014	6392.56
665.205	6220.53
665.397	6341.36
665.588	6111.99
665.78	6206.2
665.971	6107.9
666.163	6265.59
666.354	6116.09
666.546	6116.09
666.737	5999.35
666.929	6116.09
667.12	6152.95
667.311	5942.01
667.503	5937.91
667.694	6087.42
667.885	5825.28
668.077	5788.41
668.268	5839.61
668.459	5917.44
668.651	5923.58
668.842	5724.93
669.033	5794.56
669.224	5657.34
669.416	5606.14
669.607	5823.23
669.798	5649.15
669.989	5620.48
670.18	5604.1
670.371	5489.41
670.563	5513.99
670.754	5640.96
670.945	5540.61
671.136	5399.3
671.327	5548.8
671.518	5391.11
671.709	5505.79
671.9	5556.99
672.091	5432.07
672.282	5196.55
672.473	5456.64
672.664	5399.3
672.855	5387.01
673.046	5255.94
673.237	5235.46
673.428	5194.5
673.619	5114.63
673.809	5180.17
674	5120.78
674.191	5217.03
674.382	5059.34
674.573	5067.53
674.764	5032.71
674.954	5178.12
675.145	4958.99
675.336	5042.95
675.527	5026.57
675.717	5096.2
675.908	5075.72
676.099	5004.04
676.289	4950.79
676.48	4881.16
676.671	4903.69
676.861	5014.28
677.052	4977.42
677.243	4891.4
677.433	4909.83
677.624	4932.36
677.814	4893.45
678.005	4877.07
678.195	4899.59
678.386	4862.73
678.576	4905.74
678.767	4758.28
678.957	4760.33
679.148	4928.27
679.338	4664.08
679.529	4756.24
679.719	4746
679.909	4682.51
680.1	4662.03
680.29	4686.61
680.481	4836.11
680.671	4690.7
680.861	4692.75
681.052	4700.94
681.242	4598.54
681.432	4848.4
681.622	4643.6
681.813	4655.89
682.003	4694.8
682.193	4485.9
682.383	4584.21
682.573	4545.3
682.764	4631.31
682.954	4627.21
683.144	4616.97
683.334	4647.69
683.524	4485.9
683.714	4522.77
683.904	4698.89
684.094	4576.02
684.284	4522.77
684.474	4598.54
684.664	4369.17
684.854	4446.99
685.044	4399.89
685.234	4555.54
685.424	4279.06
685.614	4354.83
685.804	4358.93
685.994	4291.35
686.184	4516.62
686.374	4309.78
686.564	4334.36
686.753	4420.37
686.943	4154.13
687.133	4301.59
687.323	4254.48
687.513	4281.11
687.702	4311.83
687.892	4133.65
688.082	4119.32
688.272	4102.93
688.461	4168.47
688.651	4154.13
688.841	4059.93
689.03	4084.5
689.22	4041.5
689.41	4109.08
689.599	4057.88
689.789	4006.68
689.979	3961.62
690.168	4092.69
690.358	3998.49
690.547	3975.96
690.737	3867.42
690.926	3863.32
691.116	3932.95
691.305	3941.15
691.495	3898.14
691.684	3894.04
691.874	3785.5
692.063	3928.86
692.252	3883.8
692.442	3736.35
692.631	3799.84
692.82	3871.51
693.01	3742.49
693.199	3834.65
693.388	3664.67
693.578	3574.56
693.767	3730.2
693.956	3765.02
694.146	3803.93
694.335	3670.81
694.524	3656.48
694.713	3603.23
694.902	3656.48
695.092	3584.8
695.281	3554.08
695.47	3572.51
695.659	3484.45
695.848	3570.46
696.037	3562.27
696.226	3605.28
696.415	3533.6
696.604	3679.01
696.793	3453.73
696.982	3492.64
697.171	3474.21
697.36	3509.02
697.549	3371.81
697.738	3447.58
697.927	3453.73
698.116	3416.87
698.305	3509.02
698.494	3388.19
698.683	3494.69
698.872	3304.23
699.061	3302.18
699.25	3316.51
699.438	3345.19
699.627	3351.33
699.816	3410.72
700.005	3445.54
700.193	3423.01
700.382	3339.04
700.571	3351.33
700.76	3437.34
700.948	3435.3
701.137	3416.87
701.326	3345.19
701.514	3310.37
701.703	3351.33
701.892	3445.54
702.08	3382.05
702.269	3277.6
702.457	3205.92
702.646	3355.43
702.834	3187.49
703.023	3298.08
703.212	3226.4
703.4	3269.41
703.589	3148.58
703.777	3324.71
703.965	3177.25
704.154	3207.97
704.342	3246.88
704.531	3261.22
704.719	3271.46
704.907	3449.63
705.096	3140.39
705.284	3326.75
705.472	3336.99
705.661	3222.31
705.849	3230.5
706.037	3384.1
706.226	3185.44
706.414	3238.69
706.602	3212.07
706.79	3248.93
706.979	3162.92
707.167	3089.19
707.355	3175.2
707.543	3199.78
707.731	3234.6
707.919	3078.95
708.107	3181.35
708.296	3238.69
708.484	3142.44
708.672	3171.11
708.86	3048.23
709.048	3070.76
709.236	3132.2
709.424	3107.62
709.612	3132.2
709.8	3134.25
709.988	3085.09
710.176	3089.19
710.364	3134.25
710.551	3046.18
710.739	3046.18
710.927	3101.48
711.115	2956.07
711.303	3197.73
711.491	3066.66
711.679	3011.37
711.866	3023.66
712.054	3179.3
712.242	3052.33
712.43	3119.91
712.617	3132.2
712.805	2956.07
712.993	3027.75
713.181	2994.98
713.368	3097.38
713.556	3105.57
713.744	2997.03
713.931	3273.51
714.119	3025.7
714.306	3046.18
714.494	3015.46
714.682	2949.93
714.869	2954.02
715.057	2984.74
715.244	2939.69
715.432	2898.73
715.619	3003.18
715.807	2923.3
715.994	3029.8
716.182	3054.37
716.369	3091.24
716.556	3027.75
716.744	3040.04
716.931	2982.7
717.119	2902.83
717.306	2958.12
717.493	2882.35
717.681	2951.98
717.868	2941.74
718.055	2964.26
718.242	2886.44
718.43	2999.08
718.617	2990.89
718.804	2999.08
718.991	2863.91
719.179	2997.03
719.366	2884.39
719.553	2999.08
719.74	2925.35
719.927	2958.12
720.114	2939.69
720.301	3025.7
720.488	2788.14
720.676	2947.88
720.863	2900.78
721.05	3013.42
721.237	2908.97
721.424	3050.28
721.611	2888.49
721.798	2896.68
721.985	2878.25
722.172	2857.77
722.358	2784.04
722.545	2927.4
722.732	2835.24
722.919	2937.64
723.106	2831.15
723.293	2992.94
723.48	2882.35
723.667	2753.32
723.853	2829.1
724.04	2999.08
724.227	2794.28
724.414	2800.43
724.6	2868.01
724.787	2919.21
724.974	2898.73
725.161	2845.48
725.347	2769.71
725.534	2921.26
725.72	2857.77
725.907	2833.19
726.094	2902.83
726.28	2837.29
726.467	2790.19
726.653	2751.28
726.84	2708.27
727.027	2933.54
727.213	2825
727.4	2929.45
727.586	2763.56
727.773	2841.39
727.959	2626.35
728.145	2663.21
728.332	2769.71
728.518	2818.86
728.705	2736.94
728.891	2736.94
729.077	2700.08
729.264	2698.03
729.45	2755.37
729.636	2816.81
729.823	2781.99
730.009	2843.43
730.195	2759.47
730.382	2749.23
730.568	2614.06
730.754	2638.64
730.94	2655.02
731.126	2614.06
731.313	2849.58
731.499	2843.43
731.685	2700.08
731.871	2691.88
732.057	2755.37
732.243	2788.14
732.429	2685.74
732.615	2628.4
732.801	2683.69
732.987	2562.86
733.173	2685.74
733.359	2630.45
733.545	2579.25
733.731	2675.5
733.917	2628.4
734.103	2605.87
734.289	2751.28
734.475	2526
734.661	2718.51
734.847	2663.21
735.033	2597.68
735.219	2722.6
735.404	2693.93
735.59	2624.3
735.776	2593.58
735.962	2700.08
736.148	2661.16
736.333	2630.45
736.519	2474.8
736.705	2626.35
736.89	2460.46
737.076	2532.14
737.262	2474.8
737.447	2573.1
737.633	2480.94
737.819	2470.7
738.004	2511.66
738.19	2581.29
738.375	2372.4
738.561	2614.06
738.747	2462.51
738.932	2419.5
739.118	2482.99
739.303	2437.94
739.489	2394.93
739.674	2399.02
739.859	2288.43
740.045	2442.03
740.23	2493.23
740.416	2546.48
740.601	2313.01
740.786	2384.69
740.972	2478.9
741.157	2319.15
741.342	2292.53
741.528	2323.25
741.713	2374.45
741.898	2364.21
742.084	2272.05
742.269	2233.14
742.454	2302.77
742.639	2384.69
742.824	2218.8
743.01	2204.47
743.195	2351.92
743.38	2237.24
743.565	2175.8
743.75	2270
743.935	2288.43
744.12	2298.67
744.305	2292.53
744.49	2124.6
744.675	2147.12
744.86	2159.41
745.045	2147.12
745.23	2177.84
745.415	2147.12
745.6	2274.1
745.785	2202.42
745.97	2138.93
746.155	2196.28
746.34	2227
746.525	1979.19
746.71	2130.74
746.895	2057.01
747.079	2069.3
747.264	1891.13
747.449	2007.86
747.634	1942.33
747.819	1909.56
748.003	1983.29
748.188	2022.2
748.373	1858.36
748.557	1940.28
748.742	1952.57
748.927	1962.81
749.111	1819.45
749.296	1923.9
749.481	1844.03
749.665	1876.79
749.85	1760.06
750.034	1925.94
750.219	1745.72
750.404	1821.5
750.588	1803.07
750.773	1874.74
750.957	1811.26
751.141	1760.06
751.326	1751.87
751.51	1665.85
751.695	1753.91
751.879	1661.76
752.064	1755.96
752.248	1723.2
752.432	1639.23
752.617	1624.89
752.801	1690.43
752.985	1575.74
753.17	1723.2
753.354	1592.13
753.538	1700.67
753.722	1606.46
753.907	1577.79
754.091	1522.49
754.275	1510.21
754.459	1567.55
754.643	1583.93
754.828	1487.68
755.012	1540.93
755.196	1508.16
755.38	1473.34
755.564	1555.26
755.748	1518.4
755.932	1471.29
756.116	1446.72
756.3	1454.91
756.484	1475.39
756.668	1448.77
756.852	1416
757.036	1278.79
757.22	1416
757.404	1311.55
757.588	1282.88
757.772	1334.08
757.956	1336.13
758.14	1375.04
758.323	1317.7
758.507	1268.55
758.691	1315.65
758.875	1340.22
759.059	1319.75
759.242	1233.73
759.426	1188.68
759.61	1203.01
759.794	1184.58
759.977	1315.65
760.161	1319.75
760.345	1196.87
760.528	1319.75
760.712	1246.02
760.895	1211.2
761.079	1192.77
761.263	1170.24
761.446	1256.26
761.63	1160
761.813	1235.78
761.997	1114.95
762.18	1168.2
762.364	1231.68
762.547	1139.52
762.731	1264.45
762.914	1114.95
763.098	1157.96
763.281	1188.68
763.464	1127.24
763.648	1112.9
763.831	1182.53
764.015	1037.13
764.198	1106.76
764.381	1127.24
764.564	1182.53
764.748	1082.18
764.931	1069.89
765.114	992.07
765.297	1119.04
765.481	1051.46
765.664	1018.69
765.847	1071.94
766.03	1084.23
766.213	1100.61
766.397	1028.93
766.58	990.02
766.763	1073.99
766.946	1030.98
767.129	1057.61
767.312	1108.8
767.495	1086.28
767.678	922.44
767.861	1016.65
768.044	1071.94
768.227	959.3
768.41	959.3
768.593	967.49
768.776	959.3
768.959	971.59
769.142	973.64
769.324	910.15
769.507	967.49
769.69	967.49
769.873	938.82
770.056	994.12
770.239	940.87
770.421	971.59
770.604	916.3
770.787	977.73
770.97	828.23
771.152	949.06
771.335	885.58
771.518	885.58
771.7	891.72
771.883	856.9
772.066	930.63
772.248	848.71
772.431	904.01
772.613	856.9
772.796	881.48
772.978	865.1
773.161	817.99
773.343	881.48
773.526	883.53
773.708	772.94
773.891	787.27
774.073	779.08
774.256	838.47
774.438	826.18
774.621	826.18
774.803	838.47
774.985	652.11
775.168	865.1
775.35	779.08
775.532	781.13
775.715	705.35
775.897	795.47
776.079	754.51
776.261	742.22
776.444	817.99
776.626	758.6
776.808	781.13
776.99	670.54
777.173	705.35
777.355	643.92
777.537	707.4
777.719	648.01
777.901	750.41
778.083	729.93
778.265	699.21
778.447	680.78
778.629	742.22
778.811	688.97
778.993	699.21
779.175	719.69
779.357	664.4
779.539	615.24
779.721	607.05
779.903	643.92
780.085	668.49
780.267	660.3
780.449	584.52
780.631	594.76
780.812	639.82
780.994	633.68
781.176	686.92
781.358	654.16
781.54	664.4
781.721	613.2
781.903	648.01
782.085	609.1
782.267	645.96
782.448	600.91
782.63	578.38
782.812	539.47
782.993	566.09
783.175	592.72
783.357	533.33
783.538	504.65
783.72	545.61
783.901	600.91
784.083	537.42
784.264	521.04
784.446	543.57
784.627	463.69
784.809	500.56
784.99	480.08
785.172	533.33
785.353	500.56
785.535	525.13
785.716	467.79
785.897	525.13
786.079	498.51
786.26	484.17
786.441	578.38
786.623	451.41
786.804	453.45
786.985	475.98
787.167	533.33
787.348	410.45
787.529	400.21
787.71	430.93
787.891	432.97
788.073	475.98
788.254	445.26
788.435	430.93
788.616	428.88
788.797	435.02
788.978	455.5
789.159	531.28
789.34	451.41
789.522	375.63
789.703	449.36
789.884	459.6
790.065	443.21
790.246	432.97
790.427	396.11
790.607	439.12
790.788	441.17
790.969	381.78
791.15	428.88
791.331	318.29
791.512	410.45
791.693	316.24
791.874	357.2
792.054	389.97
792.235	408.4
792.416	279.38
792.597	342.86
792.778	367.44
792.958	344.91
793.139	353.1
793.32	324.43
793.5	330.58
793.681	418.64
793.862	351.06
794.042	346.96
794.223	306
794.404	283.47
794.584	293.71
794.765	281.43
794.945	318.29
795.126	365.39
795.306	422.73
795.487	365.39
795.667	287.57
795.848	340.82
796.028	308.05
796.209	269.14
796.389	349.01
796.57	301.9
796.75	299.86
796.93	322.38
797.111	256.85
797.291	301.9
797.471	287.57
797.652	262.99
797.832	289.62
798.012	340.82
798.192	287.57
798.373	242.51
798.553	242.51
798.733	332.62
798.913	252.75
799.093	281.43
799.274	324.43
799.454	256.85
799.634	320.34
799.814	320.34
799.994	240.47
800.174	303.95
800.354	254.8
800.534	271.19
800.714	271.19
800.894	267.09
801.074	199.51
801.254	306
801.434	262.99
801.614	271.19
801.794	353.1
801.974	908.1
802.154	310.1
802.334	314.19
802.514	222.03
802.693	166.74
802.873	262.99
803.053	314.19
803.233	224.08
803.413	205.65
803.592	226.13
803.772	299.86
803.952	250.71
804.131	209.75
804.311	189.27
804.491	209.75
804.67	240.47
804.85	232.27
805.03	244.56
805.209	260.95
805.389	219.99
805.568	131.92
805.748	179.03
805.928	217.94
806.107	228.18
806.287	271.19
806.466	250.71
806.646	197.46
806.825	252.75
807.004	244.56
807.184	230.23
807.363	205.65
807.543	203.6
807.722	236.37
807.901	265.04
808.081	230.23
808.26	131.92
808.439	185.17
808.619	271.19
808.798	187.22
808.977	191.31
809.156	228.18
809.336	232.27
809.515	248.66
809.694	271.19
809.873	254.8
810.052	222.03
810.231	248.66
810.411	252.75
810.59	254.8
810.769	195.41
810.948	232.27
811.127	207.7
811.306	166.74
811.485	250.71
811.664	234.32
811.843	232.27
812.022	172.88
812.201	160.59
812.38	164.69
812.559	121.68
812.737	203.6
812.916	168.79
813.095	150.36
813.274	189.27
813.453	86.87
813.632	195.41
813.811	187.22
813.989	105.3
814.168	215.89
814.347	193.36
814.526	211.79
814.704	144.21
814.883	236.37
815.062	193.36
815.24	168.79
815.419	142.16
815.598	123.73
815.776	156.5
815.955	185.17
816.133	131.92
816.312	232.27
816.49	215.89
816.669	191.31
816.847	142.16
817.026	123.73
817.204	105.3
817.383	191.31
817.561	103.25
817.74	131.92
817.918	121.68
818.097	119.64
818.275	84.82
818.453	168.79
818.632	189.27
818.81	129.88
818.988	72.53
819.167	160.59
819.345	152.4
819.523	205.65
819.701	150.36
819.879	109.4
820.058	138.07
820.236	133.97
820.414	234.32
820.592	187.22
820.77	176.98
820.948	164.69
821.127	131.92
821.305	101.2
821.483	50
821.661	240.47
821.839	133.97
822.017	39.76
822.195	111.44
822.373	86.87
822.551	176.98
822.729	140.12
822.907	105.3
823.085	115.54
823.262	164.69
823.44	136.02
823.618	90.96
823.796	156.5
823.974	58.2
824.152	84.82
824.329	95.06
824.507	80.72
824.685	123.73
824.863	105.3
825.04	103.25
825.218	86.87
825.396	95.06
825.574	52.05
825.751	103.25
825.929	172.88
826.107	150.36
826.284	201.55
826.462	170.83
826.639	176.98
826.817	88.92
826.994	115.54
827.172	74.58
827.349	82.77
827.527	105.3
827.704	127.83
827.882	82.77
828.059	54.1
828.237	50
828.414	170.83
828.591	70.48
828.769	90.96
828.946	125.78
829.124	84.82
829.301	121.68
829.478	90.96
829.655	144.21
829.833	74.58
830.01	50
830.187	47.96
830.364	80.72
830.542	95.06
830.719	142.16
830.896	150.36
831.073	64.34
831.25	133.97
831.427	80.72
831.604	136.02
831.782	25.43
831.959	123.73
832.136	41.81
832.313	35.67
832.49	76.63
832.667	123.73
832.844	144.21
833.021	136.02
833.198	99.16
833.374	86.87
833.551	115.54
833.728	160.59
833.905	111.44
834.082	74.58
834.259	99.16
834.436	62.29
834.612	101.2
834.789	101.2
834.966	41.81
835.143	39.76
835.319	35.67
835.496	90.96
835.673	111.44
835.85	144.21
836.026	66.39
836.203	72.53
836.38	111.44
836.556	111.44
836.733	93.01
836.909	187.22
837.086	35.67
837.262	64.34
837.439	58.2
837.616	74.58
837.792	23.38
837.968	121.68
838.145	50
838.321	62.29
838.498	144.21
838.674	168.79
838.851	78.68
839.027	0.85
839.203	37.72
839.38	78.68
839.556	27.48
839.732	19.29
839.909	66.39
840.085	72.53
840.261	84.82
840.437	62.29
840.614	21.33
840.79	54.1
840.966	43.86
841.142	121.68
841.318	117.59
841.494	70.48
841.671	-11.43
841.847	39.76
842.023	58.2
842.199	56.15
842.375	90.96
842.551	52.05
842.727	-15.53
842.903	129.88
843.079	21.33
843.255	144.21
843.431	25.43
843.607	2.9
843.783	72.53
843.959	41.81
844.134	115.54
844.31	140.12
844.486	25.43
844.662	25.43
844.838	64.34
845.013	93.01
845.189	70.48
845.365	41.81
845.541	97.11
845.716	25.43
845.892	72.53
846.068	90.96
846.244	33.62
846.419	29.52
846.595	107.35
846.77	131.92
846.946	95.06
847.122	74.58
847.297	29.52
847.473	101.2
847.648	-21.67
847.824	62.29
847.999	105.3
848.175	78.68
848.35	84.82
848.526	41.81
848.701	84.82
848.876	136.02
849.052	33.62
849.227	58.2
849.403	74.58
849.578	113.49
849.753	90.96
849.929	29.52
850.104	35.67
850.279	68.44
850.454	-25.77
850.63	47.96
850.805	31.57
850.98	45.91
851.155	111.44
851.33	68.44
851.505	33.62
851.681	45.91
851.856	9.05
852.031	119.64
852.206	50
852.381	25.43
852.556	111.44
852.731	72.53
852.906	86.87
853.081	37.72
853.256	90.96
853.431	105.3
853.606	15.19
853.781	86.87
853.956	33.62
854.131	119.64
854.305	37.72
854.48	52.05
854.655	50
854.83	-19.63
855.005	-31.91
855.18	68.44
855.354	113.49
855.529	70.48
855.704	47.96
855.879	31.57
856.053	-31.91
856.228	13.14
856.403	4.95
856.577	-23.72
856.752	-29.87
856.926	31.57
857.101	43.86
857.276	33.62
857.45	-60.59
857.625	72.53
857.799	50
857.974	90.96
858.148	66.39
858.323	35.67
858.497	54.1
858.672	19.29
858.846	31.57
859.02	58.2
859.195	-36.01
859.369	56.15
859.543	9.05
859.718	-11.43
859.892	4.95
860.066	58.2
860.241	27.48
860.415	31.57
860.589	66.39
860.763	103.25
860.938	47.96
861.112	-1.19
861.286	43.86
861.46	47.96
861.634	29.52
861.808	107.35
861.982	-9.39
862.157	43.86
862.331	-7.34
862.505	62.29
862.679	-85.16
862.853	47.96
863.027	-13.48
863.201	72.53
863.375	33.62
863.549	27.48
863.722	25.43
863.896	125.78
864.07	13.14
864.244	-5.29
864.418	39.76
864.592	17.24
864.766	-46.25
864.939	31.57
865.113	33.62
865.287	21.33
865.461	45.91
865.634	21.33
865.808	111.44
865.982	-17.58
866.156	2.9
866.329	-31.91
866.503	4.95
866.676	78.68
866.85	25.43
867.024	15.19
867.197	41.81
867.371	29.52
867.544	31.57
867.718	-66.73
867.891	88.92
868.065	-44.2
868.238	-3.24
868.412	95.06
868.585	68.44
868.759	27.48
868.932	62.29
869.105	4.95
869.279	-40.11
869.452	-42.15
869.625	41.81
869.799	37.72
869.972	-3.24
870.145	-17.58
870.319	-23.72
870.492	9.05
870.665	33.62
870.838	29.52
871.011	33.62
871.185	17.24
871.358	45.91
871.531	54.1
871.704	17.24
871.877	82.77
872.05	-15.53
872.223	60.24
872.396	13.14
872.569	-3.24
872.742	-23.72
872.915	2.9
873.088	39.76
873.261	-13.48
873.434	97.11
873.607	101.2
873.78	68.44
873.953	39.76
874.126	-27.82
874.299	78.68
874.471	21.33
874.644	-21.67
874.817	-58.54
874.99	74.58
875.163	-58.54
875.335	-66.73
875.508	17.24
875.681	70.48
875.853	-9.39
876.026	-44.2
876.199	50
876.371	-19.63
876.544	-3.24
876.717	19.29
876.889	4.95
877.062	60.24
877.234	9.05
877.407	-25.77
877.579	56.15
877.752	54.1
877.924	4.95
878.097	52.05
878.269	-7.34
878.442	-9.39
878.614	35.67
878.786	29.52
878.959	19.29
879.131	82.77
879.303	-19.63
879.476	-48.3
879.648	-7.34
879.82	78.68
879.993	-13.48
880.165	7
880.337	37.72
880.509	27.48
880.681	9.05
880.854	-5.29
881.026	4.95
881.198	0.85
881.37	-27.82
881.542	86.87
881.714	39.76
881.886	-11.43
882.058	25.43
882.23	31.57
882.402	56.15
882.574	99.16
882.746	-40.11
882.918	39.76
883.09	52.05
883.262	25.43
883.434	99.16
883.606	-13.48
883.778	23.38
883.95	58.2
884.122	-1.19
884.293	62.29
884.465	-7.34
884.637	19.29
884.809	9.05
884.98	9.05
885.152	29.52
885.324	23.38
885.496	9.05
885.667	25.43
885.839	72.53
886.011	62.29
886.182	47.96
886.354	17.24
886.525	31.57
886.697	4.95
886.869	-11.43
887.04	17.24
887.212	60.24
887.383	78.68
887.555	-5.29
887.726	-60.59
887.897	74.58
888.069	29.52
888.24	62.29
888.412	-9.39
888.583	-19.63
888.754	-46.25
888.926	9.05
889.097	-11.43
889.268	-40.11
889.44	-3.24
889.611	0.85
889.782	-76.97
889.953	39.76
890.125	17.24
890.296	21.33
890.467	33.62
890.638	-38.06
890.809	-27.82
890.98	9.05
891.151	99.16
891.323	27.48
891.494	-27.82
891.665	-17.58
891.836	-27.82
892.007	0.85
892.178	4.95
892.349	23.38
892.52	-52.39
892.691	15.19
892.862	27.48
893.032	41.81
893.203	21.33
893.374	80.72
893.545	70.48
893.716	11.09
893.887	15.19
894.057	27.48
894.228	9.05
894.399	-15.53
894.57	19.29
894.74	-36.01
894.911	-1.19
895.082	7
895.253	-52.39
895.423	37.72
895.594	-19.63
895.764	23.38
895.935	-42.15
896.106	17.24
896.276	-48.3
896.447	15.19
896.617	41.81
896.788	-7.34
896.958	-52.39
897.129	84.82
897.299	9.05
897.47	7
897.64	41.81
897.81	-36.01
897.981	15.19
898.151	-5.29
898.322	-36.01
898.492	0.85
898.662	90.96
898.832	60.24
899.003	-76.97
899.173	-9.39
899.343	17.24
899.513	17.24
