Data from USB4F104151__146__10-26-37-945.txt Node

Date: Wed Mar 12 10:26:37 EDT 2025
User: louis
Spectrometer: USB4F10415
Trigger mode: 4
Integration Time (sec): 3.000000E-2
Scans to average: 1
Electric dark correction enabled: true
Nonlinearity correction enabled: false
Boxcar width: 0
XAxis mode: Wavelengths
Number of Pixels in Spectrum: 3648
>>>>>Begin Spectral Data<<<<<
178.204	-73.73
178.424	-73.73
178.644	-73.73
178.864	-112.64
179.084	-174.08
179.304	-6.14
179.524	-18.43
179.744	40.96
179.964	-4.1
180.184	8.19
180.404	14.34
180.624	-4.1
180.844	-36.86
181.064	-28.67
181.283	0
181.503	-45.06
181.723	79.87
181.943	-6.14
182.163	116.73
182.383	18.43
182.602	61.44
182.822	114.69
183.042	-18.43
183.262	-16.38
183.482	36.86
183.701	8.19
183.921	59.39
184.141	-45.06
184.361	28.67
184.58	12.29
184.8	49.15
185.02	14.34
185.239	67.58
185.459	-2.05
185.679	63.49
185.898	2.05
186.118	8.19
186.338	-36.86
186.557	-16.38
186.777	-18.43
186.997	-40.96
187.216	77.82
187.436	20.48
187.655	32.77
187.875	2.05
188.095	14.34
188.314	14.34
188.534	120.83
188.753	30.72
188.973	22.53
189.192	57.34
189.412	49.15
189.631	0
189.851	24.58
190.07	34.82
190.29	-12.29
190.509	-18.43
190.729	-24.58
190.948	67.58
191.168	110.59
191.387	53.25
191.607	12.29
191.826	90.11
192.045	18.43
192.265	47.1
192.484	36.86
192.704	-16.38
192.923	16.38
193.142	135.17
193.362	36.86
193.581	20.48
193.8	34.82
194.02	18.43
194.239	-67.58
194.458	51.2
194.678	-45.06
194.897	118.78
195.116	12.29
195.335	65.54
195.555	65.54
195.774	49.15
195.993	38.91
196.212	32.77
196.432	0
196.651	-4.1
196.87	-6.14
197.089	51.2
197.308	104.45
197.528	77.82
197.747	53.25
197.966	10.24
198.185	65.54
198.404	67.58
198.623	4.1
198.842	55.3
199.062	47.1
199.281	118.78
199.5	-36.86
199.719	55.3
199.938	10.24
200.157	28.67
200.376	34.82
200.595	73.73
200.814	67.58
201.033	61.44
201.252	36.86
201.471	47.1
201.69	79.87
201.909	90.11
202.128	-45.06
202.347	38.91
202.566	32.77
202.785	45.06
203.004	-49.15
203.223	92.16
203.442	-24.58
203.661	30.72
203.879	81.92
204.098	57.34
204.317	4.1
204.536	81.92
204.755	30.72
204.974	30.72
205.193	-14.34
205.411	100.35
205.63	112.64
205.849	-34.82
206.068	26.62
206.287	55.3
206.505	69.63
206.724	8.19
206.943	14.34
207.162	0
207.381	61.44
207.599	32.77
207.818	32.77
208.037	-32.77
208.255	26.62
208.474	26.62
208.693	40.96
208.911	96.25
209.13	98.3
209.349	63.49
209.567	-22.53
209.786	73.73
210.005	51.2
210.223	14.34
210.442	20.48
210.661	8.19
210.879	-47.1
211.098	24.58
211.316	-8.19
211.535	51.2
211.753	-20.48
211.972	49.15
212.191	45.06
212.409	20.48
212.628	49.15
212.846	-18.43
213.065	43.01
213.283	32.77
213.502	-10.24
213.72	38.91
213.938	0
214.157	43.01
214.375	26.62
214.594	18.43
214.812	32.77
215.031	-20.48
215.249	8.19
215.467	14.34
215.686	57.34
215.904	8.19
216.122	20.48
216.341	18.43
216.559	10.24
216.778	94.21
216.996	59.39
217.214	53.25
217.432	18.43
217.651	-24.58
217.869	24.58
218.087	-10.24
218.306	-38.91
218.524	16.38
218.742	22.53
218.96	-6.14
219.179	0
219.397	161.79
219.615	65.54
219.833	73.73
220.051	-38.91
220.27	0
220.488	28.67
220.706	20.48
220.924	20.48
221.142	-8.19
221.36	61.44
221.578	28.67
221.796	-2.05
222.015	12.29
222.233	40.96
222.451	55.3
222.669	-47.1
222.887	69.63
223.105	2.05
223.323	53.25
223.541	-2.05
223.759	102.4
223.977	-8.19
224.195	-53.25
224.413	-59.39
224.631	71.68
224.849	28.67
225.067	24.58
225.285	-4.1
225.503	53.25
225.721	24.58
225.939	18.43
226.157	-47.1
226.375	83.97
226.592	-45.06
226.81	65.54
227.028	96.25
227.246	141.31
227.464	-18.43
227.682	-14.34
227.9	57.34
228.117	38.91
228.335	-28.67
228.553	18.43
228.771	18.43
228.989	43.01
229.206	69.63
229.424	12.29
229.642	12.29
229.86	14.34
230.077	36.86
230.295	14.34
230.513	81.92
230.731	18.43
230.948	55.3
231.166	34.82
231.384	34.82
231.601	51.2
231.819	49.15
232.037	2.05
232.254	-2.05
232.472	45.06
232.689	8.19
232.907	14.34
233.125	-6.14
233.342	34.82
233.56	-38.91
233.777	49.15
233.995	53.25
234.213	110.59
234.43	122.88
234.648	-22.53
234.865	28.67
235.083	30.72
235.3	-8.19
235.518	83.97
235.735	14.34
235.953	40.96
236.17	38.91
236.388	4.1
236.605	-22.53
236.822	63.49
237.04	53.25
237.257	8.19
237.475	30.72
237.692	53.25
237.909	51.2
238.127	49.15
238.344	12.29
238.562	24.58
238.779	22.53
238.996	-32.77
239.214	51.2
239.431	45.06
239.648	67.58
239.865	55.3
240.083	77.82
240.3	104.45
240.517	86.01
240.735	24.58
240.952	36.86
241.169	118.78
241.386	20.48
241.603	-8.19
241.821	8.19
242.038	71.68
242.255	67.58
242.472	-43.01
242.689	69.63
242.907	81.92
243.124	2.05
243.341	69.63
243.558	-28.67
243.775	-6.14
243.992	26.62
244.209	34.82
244.426	40.96
244.643	38.91
244.86	53.25
245.078	-30.72
245.295	6.14
245.512	57.34
245.729	49.15
245.946	0
246.163	43.01
246.38	-28.67
246.597	96.25
246.814	38.91
247.031	8.19
247.248	51.2
247.464	36.86
247.681	53.25
247.898	67.58
248.115	96.25
248.332	47.1
248.549	94.21
248.766	92.16
248.983	49.15
249.2	38.91
249.417	-20.48
249.633	-16.38
249.85	100.35
250.067	4.1
250.284	14.34
250.501	2.05
250.717	59.39
250.934	-18.43
251.151	36.86
251.368	-6.14
251.585	51.2
251.801	67.58
252.018	53.25
252.235	57.34
252.451	6.14
252.668	36.86
252.885	4.1
253.102	65.54
253.318	26.62
253.535	38.91
253.752	53.25
253.968	4.1
254.185	-8.19
254.401	67.58
254.618	-4.1
254.835	-32.77
255.051	69.63
255.268	6.14
255.484	-20.48
255.701	4.1
255.917	110.59
256.134	-51.2
256.351	20.48
256.567	-14.34
256.784	100.35
257	63.49
257.217	83.97
257.433	73.73
257.65	53.25
257.866	86.01
258.082	26.62
258.299	16.38
258.515	36.86
258.732	-55.3
258.948	32.77
259.165	34.82
259.381	67.58
259.597	-24.58
259.814	49.15
260.03	10.24
260.246	36.86
260.463	75.77
260.679	0
260.895	-36.86
261.112	38.91
261.328	100.35
261.544	2.05
261.761	102.4
261.977	28.67
262.193	79.87
262.409	51.2
262.626	57.34
262.842	57.34
263.058	16.38
263.274	38.91
263.49	-6.14
263.707	20.48
263.923	61.44
264.139	4.1
264.355	36.86
264.571	-14.34
264.787	0
265.004	86.01
265.22	69.63
265.436	40.96
265.652	83.97
265.868	90.11
266.084	0
266.3	45.06
266.516	12.29
266.732	16.38
266.948	71.68
267.164	28.67
267.38	45.06
267.596	-4.1
267.812	188.41
268.028	77.82
268.244	32.77
268.46	10.24
268.676	14.34
268.892	40.96
269.108	18.43
269.324	-28.67
269.54	40.96
269.756	28.67
269.972	-16.38
270.188	-14.34
270.403	30.72
270.619	98.3
270.835	10.24
271.051	65.54
271.267	-40.96
271.483	30.72
271.698	36.86
271.914	57.34
272.13	75.77
272.346	22.53
272.562	88.06
272.777	22.53
272.993	10.24
273.209	34.82
273.425	-4.1
273.64	-28.67
273.856	24.58
274.072	53.25
274.287	36.86
274.503	-8.19
274.719	0
274.934	92.16
275.15	-32.77
275.366	28.67
275.581	53.25
275.797	63.49
276.012	-4.1
276.228	-8.19
276.444	69.63
276.659	-22.53
276.875	67.58
277.09	32.77
277.306	57.34
277.521	38.91
277.737	75.77
277.952	53.25
278.168	22.53
278.383	34.82
278.599	106.49
278.814	28.67
279.03	-20.48
279.245	16.38
279.461	59.39
279.676	53.25
279.892	16.38
280.107	-45.06
280.322	-34.82
280.538	-28.67
280.753	-30.72
280.969	69.63
281.184	40.96
281.399	96.25
281.615	65.54
281.83	67.58
282.045	-10.24
282.26	22.53
282.476	65.54
282.691	-12.29
282.906	102.4
283.122	16.38
283.337	49.15
283.552	47.1
283.767	2.05
283.983	118.78
284.198	-18.43
284.413	79.87
284.628	-16.38
284.843	20.48
285.058	77.82
285.274	30.72
285.489	30.72
285.704	36.86
285.919	-24.58
286.134	75.77
286.349	18.43
286.564	36.86
286.779	96.25
286.995	-2.05
287.21	12.29
287.425	88.06
287.64	36.86
287.855	51.2
288.07	-22.53
288.285	88.06
288.5	45.06
288.715	43.01
288.93	45.06
289.145	28.67
289.36	94.21
289.575	4.1
289.79	79.87
290.004	34.82
290.219	118.78
290.434	43.01
290.649	94.21
290.864	69.63
291.079	38.91
291.294	83.97
291.509	51.2
291.724	24.58
291.938	98.3
292.153	-4.1
292.368	75.77
292.583	73.73
292.798	-2.05
293.012	53.25
293.227	-4.1
293.442	16.38
293.657	71.68
293.871	43.01
294.086	86.01
294.301	116.73
294.516	34.82
294.73	100.35
294.945	45.06
295.16	45.06
295.374	47.1
295.589	49.15
295.804	16.38
296.018	47.1
296.233	16.38
296.447	102.4
296.662	47.1
296.877	77.82
297.091	24.58
297.306	24.58
297.52	-38.91
297.735	59.39
297.949	4.1
298.164	98.3
298.378	20.48
298.593	-18.43
298.807	8.19
299.022	45.06
299.236	83.97
299.451	-16.38
299.665	12.29
299.88	-14.34
300.094	16.38
300.309	94.21
300.523	-12.29
300.737	-65.53
300.952	32.77
301.166	63.49
301.381	-8.19
301.595	51.2
301.809	-20.48
302.024	51.2
302.238	-34.82
302.452	106.49
302.667	53.25
302.881	108.54
303.095	45.06
303.309	32.77
303.524	-2.05
303.738	-43.01
303.952	4.1
304.166	40.96
304.381	28.67
304.595	79.87
304.809	36.86
305.023	55.3
305.237	65.54
305.452	-96.25
305.666	14.34
305.88	86.01
306.094	133.12
306.308	61.44
306.522	28.67
306.736	36.86
306.95	53.25
307.164	12.29
307.379	55.3
307.593	83.97
307.807	16.38
308.021	16.38
308.235	-12.29
308.449	36.86
308.663	12.29
308.877	59.39
309.091	-63.49
309.305	49.15
309.519	57.34
309.733	57.34
309.947	-65.53
310.161	65.54
310.374	47.1
310.588	-6.14
310.802	36.86
311.016	43.01
311.23	14.34
311.444	45.06
311.658	4.1
311.872	69.63
312.085	45.06
312.299	77.82
312.513	94.21
312.727	69.63
312.941	-2.05
313.154	-18.43
313.368	-49.15
313.582	28.67
313.796	63.49
314.009	65.54
314.223	141.31
314.437	51.2
314.651	79.87
314.864	14.34
315.078	75.77
315.292	-10.24
315.505	53.25
315.719	47.1
315.933	77.82
316.146	90.11
316.36	-28.67
316.573	75.77
316.787	6.14
317.001	69.63
317.214	-69.63
317.428	67.58
317.641	12.29
317.855	55.3
318.068	55.3
318.282	69.63
318.495	16.38
318.709	0
318.922	28.67
319.136	102.4
319.349	104.45
319.563	36.86
319.776	18.43
319.99	30.72
320.203	49.15
320.417	51.2
320.63	36.86
320.843	81.92
321.057	81.92
321.27	47.1
321.483	59.39
321.697	18.43
321.91	30.72
322.124	38.91
322.337	59.39
322.55	94.21
322.763	43.01
322.977	53.25
323.19	16.38
323.403	116.73
323.617	0
323.83	-43.01
324.043	47.1
324.256	75.77
324.469	10.24
324.683	65.54
324.896	20.48
325.109	34.82
325.322	-16.38
325.535	77.82
325.748	71.68
325.962	4.1
326.175	-4.1
326.388	4.1
326.601	124.93
326.814	8.19
327.027	12.29
327.24	94.21
327.453	6.14
327.666	92.16
327.879	110.59
328.092	30.72
328.305	45.06
328.518	45.06
328.731	40.96
328.944	100.35
329.157	12.29
329.37	18.43
329.583	81.92
329.796	65.54
330.009	47.1
330.222	69.63
330.435	77.82
330.648	61.44
330.861	8.19
331.073	40.96
331.286	83.97
331.499	57.34
331.712	77.82
331.925	47.1
332.138	14.34
332.35	51.2
332.563	36.86
332.776	45.06
332.989	51.2
333.202	4.1
333.414	34.82
333.627	71.68
333.84	94.21
334.053	110.59
334.265	53.25
334.478	0
334.691	69.63
334.903	79.87
335.116	32.77
335.329	108.54
335.541	61.44
335.754	71.68
335.966	-18.43
336.179	69.63
336.392	40.96
336.604	69.63
336.817	-28.67
337.029	-30.72
337.242	32.77
337.454	16.38
337.667	53.25
337.88	106.49
338.092	6.14
338.305	69.63
338.517	51.2
338.729	36.86
338.942	69.63
339.154	16.38
339.367	-20.48
339.579	24.58
339.792	4.1
340.004	104.45
340.217	92.16
340.429	8.19
340.641	-53.25
340.854	-6.14
341.066	28.67
341.278	38.91
341.491	135.17
341.703	86.01
341.915	98.3
342.128	102.4
342.34	18.43
342.552	-61.44
342.764	51.2
342.977	69.63
343.189	10.24
343.401	63.49
343.613	67.58
343.826	51.2
344.038	40.96
344.25	102.4
344.462	16.38
344.674	75.77
344.886	36.86
345.099	16.38
345.311	61.44
345.523	32.77
345.735	-36.86
345.947	16.38
346.159	69.63
346.371	40.96
346.583	98.3
346.795	30.72
347.007	-12.29
347.219	65.54
347.431	-14.34
347.643	77.82
347.855	55.3
348.067	108.54
348.279	57.34
348.491	86.01
348.703	94.21
348.915	16.38
349.127	47.1
349.339	-30.72
349.551	-6.14
349.763	55.3
349.975	65.54
350.187	137.21
350.399	112.64
350.61	53.25
350.822	-59.39
351.034	100.35
351.246	20.48
351.458	55.3
351.669	34.82
351.881	108.54
352.093	2.05
352.305	-2.05
352.517	69.63
352.728	57.34
352.94	-32.77
353.152	75.77
353.363	12.29
353.575	79.87
353.787	57.34
353.999	34.82
354.21	16.38
354.422	6.14
354.633	4.1
354.845	45.06
355.057	28.67
355.268	77.82
355.48	12.29
355.692	26.62
355.903	112.64
356.115	34.82
356.326	-12.29
356.538	69.63
356.749	49.15
356.961	45.06
357.172	-18.43
357.384	77.82
357.595	120.83
357.807	16.38
358.018	61.44
358.23	18.43
358.441	75.77
358.653	51.2
358.864	-53.25
359.075	-65.53
359.287	167.93
359.498	34.82
359.709	63.49
359.921	4.1
360.132	49.15
360.344	57.34
360.555	26.62
360.766	63.49
360.977	59.39
361.189	75.77
361.4	67.58
361.611	176.13
361.823	55.3
362.034	69.63
362.245	32.77
362.456	77.82
362.667	49.15
362.879	63.49
363.09	-28.67
363.301	51.2
363.512	34.82
363.723	61.44
363.935	-32.77
364.146	122.88
364.357	67.58
364.568	32.77
364.779	28.67
364.99	94.21
365.201	4.1
365.412	129.02
365.623	20.48
365.834	26.62
366.045	8.19
366.256	45.06
366.467	118.78
366.678	63.49
366.889	-65.53
367.1	92.16
367.311	36.86
367.522	67.58
367.733	108.54
367.944	110.59
368.155	36.86
368.366	-6.14
368.577	86.01
368.788	53.25
368.999	71.68
369.209	22.53
369.42	83.97
369.631	106.49
369.842	63.49
370.053	-8.19
370.264	77.82
370.474	75.77
370.685	94.21
370.896	49.15
371.107	4.1
371.317	94.21
371.528	112.64
371.739	69.63
371.95	51.2
372.16	71.68
372.371	34.82
372.582	61.44
372.792	86.01
373.003	-6.14
373.214	59.39
373.424	86.01
373.635	-45.06
373.846	53.25
374.056	20.48
374.267	71.68
374.477	55.3
374.688	-38.91
374.898	67.58
375.109	14.34
375.319	47.1
375.53	77.82
375.74	49.15
375.951	22.53
376.161	24.58
376.372	102.4
376.582	8.19
376.793	83.97
377.003	-8.19
377.214	18.43
377.424	53.25
377.635	163.84
377.845	12.29
378.055	57.34
378.266	26.62
378.476	38.91
378.686	43.01
378.897	106.49
379.107	106.49
379.317	73.73
379.528	83.97
379.738	32.77
379.948	110.59
380.158	124.93
380.369	59.39
380.579	47.1
380.789	20.48
380.999	73.73
381.21	112.64
381.42	100.35
381.63	-30.72
381.84	-4.1
382.05	59.39
382.261	118.78
382.471	100.35
382.681	34.82
382.891	77.82
383.101	32.77
383.311	14.34
383.521	77.82
383.731	67.58
383.941	18.43
384.151	18.43
384.361	34.82
384.571	40.96
384.781	88.06
384.991	36.86
385.201	40.96
385.411	67.58
385.621	45.06
385.831	69.63
386.041	53.25
386.251	20.48
386.461	67.58
386.671	86.01
386.881	14.34
387.091	98.3
387.301	67.58
387.511	108.54
387.72	94.21
387.93	26.62
388.14	-12.29
388.35	86.01
388.56	88.06
388.769	45.06
388.979	4.1
389.189	100.35
389.399	83.97
389.609	53.25
389.818	75.77
390.028	49.15
390.238	63.49
390.447	49.15
390.657	-4.1
390.867	81.92
391.076	61.44
391.286	55.3
391.496	16.38
391.705	65.54
391.915	98.3
392.125	36.86
392.334	96.25
392.544	108.54
392.753	100.35
392.963	-20.48
393.172	67.58
393.382	67.58
393.591	106.49
393.801	61.44
394.01	124.93
394.22	86.01
394.429	51.2
394.639	102.4
394.848	122.88
395.058	172.03
395.267	176.13
395.477	108.54
395.686	73.73
395.895	61.44
396.105	108.54
396.314	135.17
396.524	126.97
396.733	114.69
396.942	73.73
397.152	114.69
397.361	94.21
397.57	192.51
397.78	139.26
397.989	98.3
398.198	172.03
398.407	118.78
398.617	65.54
398.826	61.44
399.035	112.64
399.244	43.01
399.453	98.3
399.663	102.4
399.872	192.51
400.081	135.17
400.29	126.97
400.499	104.45
400.708	202.75
400.917	153.6
401.127	69.63
401.336	149.5
401.545	151.55
401.754	73.73
401.963	120.83
402.172	81.92
402.381	137.21
402.59	133.12
402.799	135.17
403.008	139.26
403.217	131.07
403.426	178.17
403.635	149.5
403.844	188.41
404.053	159.74
404.262	112.64
404.471	206.84
404.68	135.17
404.888	198.65
405.097	131.07
405.306	192.51
405.515	157.69
405.724	210.94
405.933	172.03
406.142	182.27
406.35	190.46
406.559	184.32
406.768	241.66
406.977	290.81
407.185	225.28
407.394	303.1
407.603	159.74
407.812	249.85
408.02	284.67
408.229	219.13
408.438	167.93
408.646	239.61
408.855	188.41
409.064	292.86
409.272	233.47
409.481	307.2
409.69	307.2
409.898	268.28
410.107	352.25
410.315	364.54
410.524	397.31
410.733	395.26
410.941	397.31
411.15	387.07
411.358	378.87
411.567	391.16
411.775	419.83
411.984	499.7
412.192	483.32
412.401	526.33
412.609	518.14
412.818	581.62
413.026	585.72
413.234	569.34
413.443	552.95
413.651	688.12
413.86	612.34
414.068	663.54
414.276	667.64
414.485	681.97
414.693	706.55
414.901	872.43
415.11	804.85
415.318	780.28
415.526	733.17
415.734	731.12
415.943	845.81
416.151	835.57
416.359	929.78
416.567	901.11
416.776	970.74
416.984	1066.99
417.192	1138.67
417.4	1081.33
417.608	1085.42
417.817	1130.48
418.025	1126.38
418.233	1294.32
418.441	1214.45
418.649	1368.04
418.857	1441.77
419.065	1495.02
419.273	1279.98
419.481	1411.05
419.689	1517.54
419.897	1572.84
420.105	1699.81
420.313	1751.01
420.521	1810.4
420.729	1806.31
420.937	1830.88
421.145	1961.95
421.353	2033.63
421.561	2070.5
421.769	2119.65
421.977	2265.05
422.185	2129.89
422.393	2258.91
422.601	2543.58
422.809	2340.83
423.017	2580.44
423.224	2707.41
423.432	2731.99
423.64	2703.32
423.848	2977.75
424.056	2871.25
424.263	3094.48
424.471	3112.91
424.679	3174.35
424.887	3282.89
425.094	3360.72
425.302	3430.35
425.51	3629
425.718	3629
425.925	3712.97
426.133	3911.62
426.341	4104.13
426.548	4249.54
426.756	4243.39
426.964	4251.58
427.171	4593.59
427.379	4763.58
427.586	4614.07
427.794	4827.06
428.001	5156.79
428.209	5316.53
428.417	5337.01
428.624	5513.13
428.832	5593
429.039	5578.67
429.247	5695.4
429.454	6059.94
429.662	6412.19
429.869	6168.48
430.076	6512.54
430.284	6434.72
430.491	6688.67
430.699	6924.18
430.906	6961.05
431.114	7104.4
431.321	7292.82
431.528	7614.35
431.736	7903.11
431.943	8216.45
432.15	8152.96
432.358	8052.61
432.565	8740.73
432.772	8595.32
432.979	9125.75
433.187	9269.11
433.394	9340.79
433.601	9967.46
433.808	9936.74
434.016	9736.04
434.223	10262.37
434.43	10979.16
434.637	10506.08
434.844	11339.6
435.052	11489.1
435.259	11296.6
435.466	11741
435.673	11550.54
435.88	12060.49
436.087	12877.63
436.294	12898.11
436.501	12574.53
436.708	12877.63
436.915	13295.41
437.122	13928.24
437.329	13918
437.537	14171.94
437.743	14456.61
437.95	14561.06
438.157	15150.87
438.364	15535.89
438.571	15644.43
438.778	15619.86
438.985	17190.65
439.192	16473.86
439.399	16951.04
439.606	16463.62
439.813	17569.52
440.02	18591.46
440.227	17958.64
440.433	18153.19
440.64	18894.56
440.847	18837.22
441.054	19054.3
441.261	20356.81
441.467	20008.65
441.674	20227.79
441.881	20975.3
442.088	21032.64
442.294	20926.14
442.501	21186.24
442.708	22105.77
442.914	22859.43
443.121	23651.99
443.328	22865.57
443.534	24587.91
443.741	23912.08
443.948	23506.59
444.154	25257.6
444.361	24841.86
444.568	25427.58
444.774	25333.37
444.981	25544.31
445.187	26418.8
445.394	27311.71
445.6	26842.73
445.807	29613.63
446.013	28182.1
446.22	28733
446.426	30068.28
446.633	30383.66
446.839	31034.92
447.046	30004.79
447.252	31585.82
447.459	31211.04
447.665	31729.18
447.871	32585.23
448.078	34037.24
448.284	32165.4
448.491	33699.33
448.697	34770.41
448.903	35276.26
449.11	35345.89
449.316	34950.63
449.522	35298.79
449.728	36144.6
449.935	36589.01
450.141	36249.05
450.347	37471.68
450.553	35976.67
450.76	36552.15
450.966	37782.98
451.172	37264.84
451.378	38211
451.584	37164.49
451.791	38254.01
451.997	37846.46
452.203	38213.05
452.409	38555.06
452.615	38202.81
452.821	36802
453.027	36093.4
453.233	38247.86
453.44	36427.22
453.646	37027.27
453.852	37311.94
454.058	37727.68
454.264	36468.18
454.47	37336.52
454.676	36699.6
454.882	37551.55
455.088	34538.99
455.294	34956.78
455.5	35462.63
455.705	35956.19
455.911	34272.76
456.117	33650.17
456.323	33252.87
456.529	31454.75
456.735	32671.25
456.941	31628.83
457.147	31381.03
457.352	30717.48
457.558	30076.47
457.764	29883.96
457.97	29613.63
458.176	28683.85
458.381	29040.2
458.587	27547.23
458.793	27387.49
458.999	25994.87
459.204	27817.56
459.41	27362.91
459.616	25443.96
459.821	25263.74
460.027	25286.27
460.233	24749.7
460.438	23430.81
460.644	23783.06
460.85	22746.79
461.055	22300.33
461.261	22486.7
461.466	20586.18
461.672	19916.5
461.878	21388.99
462.083	19971.79
462.289	19437.27
462.494	19648.21
462.7	18722.53
462.905	18073.32
463.111	18886.37
463.316	18876.13
463.522	18562.79
463.727	18519.78
463.932	18284.26
464.138	18151.15
464.343	18351.85
464.549	17682.16
464.754	18310.89
464.959	18263.79
465.165	18073.32
465.37	17274.62
465.575	16887.55
465.781	17368.82
465.986	17780.46
466.191	17061.63
466.397	16635.65
466.602	16158.47
466.807	16486.15
467.012	16475.91
467.218	16271.11
467.423	16242.44
467.628	16385.8
467.833	16799.49
468.038	16072.46
468.244	15935.24
468.449	16441.09
468.654	16011.02
468.859	15787.79
469.064	15775.5
469.269	15286.04
469.474	15171.35
469.679	15345.43
469.885	15226.65
470.09	15404.82
470.295	15185.69
470.5	14829.34
470.705	14855.97
470.91	14427.94
471.115	14466.85
471.32	14673.7
471.525	14577.44
471.73	14407.46
471.935	14225.19
472.139	13664.05
472.344	13991.72
472.549	13727.53
472.754	13414.2
472.959	13340.47
473.164	13113.14
473.369	12760.89
473.574	13285.17
473.778	13444.91
473.983	13129.53
474.188	12973.88
474.393	12556.1
474.598	12541.76
474.802	12394.31
475.007	12248.9
475.212	12408.64
475.417	11781.96
475.621	11896.65
475.826	11878.22
476.031	11589.46
476.235	11442
476.44	11542.35
476.645	11509.58
476.849	11669.33
477.054	11194.2
477.259	11153.24
477.463	11206.48
477.668	10968.92
477.872	11005.78
478.077	10772.32
478.282	10389.35
478.486	10624.86
478.691	10465.12
478.895	10346.34
479.1	10424.16
479.304	10411.87
479.509	9858.92
479.713	10274.66
479.918	9871.21
480.122	9820.01
480.326	10069.86
480.531	9987.94
480.735	9834.35
480.94	9811.82
481.144	10233.7
481.348	9711.47
481.553	9777
481.757	9584.49
481.961	9885.55
482.166	9998.18
482.37	9551.73
482.574	9459.57
482.778	9650.03
482.983	9852.78
483.187	9629.55
483.391	9826.15
483.595	9340.79
483.8	9561.97
484.004	9576.3
484.208	9897.83
484.412	9623.41
484.616	9709.42
484.821	9723.76
485.025	9502.57
485.229	9541.49
485.433	9750.38
485.637	9656.17
485.841	9463.66
486.045	9506.67
486.249	9645.93
486.453	9494.38
486.657	9502.57
486.861	9746.28
487.065	9498.48
487.269	9658.22
487.473	9623.41
487.677	9799.53
487.881	9727.85
488.085	9711.47
488.289	9717.61
488.493	9600.88
488.697	9645.93
488.901	9779.05
489.105	9697.13
489.309	9668.46
489.512	9799.53
489.716	9576.3
489.92	9858.92
490.124	9508.72
490.328	9748.33
490.531	9914.22
490.735	9785.19
490.939	10053.48
491.143	9768.81
491.346	9891.69
491.55	9957.22
491.754	10207.08
491.958	10268.52
492.161	9842.54
492.365	10090.34
492.569	10047.33
492.772	10250.08
492.976	10166.12
493.18	10461.02
493.383	10497.89
493.587	10428.26
493.79	10628.96
493.994	10516.32
494.197	10721.12
494.401	10821.47
494.605	10794.84
494.808	10907.48
495.012	10833.75
495.215	11097.94
495.419	11171.67
495.622	11153.24
495.825	11306.84
496.029	11255.64
496.232	11583.31
496.436	11618.13
496.639	11900.75
496.843	11712.33
497.046	12105.54
497.249	12109.64
497.453	12205.89
497.656	12244.81
497.859	12283.72
498.063	12300.1
498.266	12746.56
498.469	12701.5
498.673	12891.96
498.876	13197.11
499.079	13176.63
499.282	12920.63
499.485	13332.28
499.689	13379.38
499.892	13717.29
500.095	13721.39
500.298	14145.32
500.501	14196.52
500.705	14382.88
500.908	14624.54
501.111	14647.07
501.314	14677.79
501.517	14671.65
501.72	15091.48
501.923	15195.93
502.126	15218.46
502.329	15539.99
502.532	15431.44
502.735	15628.05
502.938	15863.57
503.141	16090.89
503.344	16482.05
503.547	16224.01
503.75	16717.57
503.953	16953.09
504.156	17114.87
504.359	17139.45
504.562	17350.39
504.765	17547
504.968	18063.08
505.17	18306.79
505.373	18294.5
505.576	18466.53
505.779	18644.71
505.982	18941.66
506.185	19197.66
506.387	19222.23
506.59	18972.38
506.793	19543.77
506.996	19666.64
507.198	20283.08
507.401	20244.17
507.604	20285.13
507.807	20702.92
508.009	20956.86
508.212	21022.4
508.415	21262.01
508.617	21667.51
508.82	21700.28
509.022	21581.49
509.225	22453.93
509.428	22415.02
509.63	22455.98
509.833	22738.6
510.035	23492.25
510.238	23348.89
510.44	23340.7
510.643	23867.03
510.845	23852.69
511.048	24010.39
511.25	24053.39
511.453	24436.36
511.655	25247.36
511.858	24800.9
512.06	25169.54
512.262	25566.84
512.465	25474.68
512.667	26029.68
512.87	26424.94
513.072	26441.32
513.274	26844.77
513.477	27387.49
513.679	27235.94
513.881	27848.28
514.084	27932.25
514.286	27680.35
514.488	28374.61
514.69	28970.57
514.893	28880.46
515.095	29070.92
515.297	29240.9
515.499	29609.53
515.701	30066.23
515.904	30318.13
516.106	30277.17
516.308	30723.63
516.51	30987.82
516.712	31252
516.914	31516.19
517.116	31913.5
517.318	32075.29
517.52	32366.1
517.722	32521.74
517.925	32732.68
518.127	33107.46
518.329	33435.14
518.531	33361.41
518.733	34223.61
518.935	34420.21
519.136	34242.04
519.338	34823.66
519.54	34835.95
519.742	35354.08
519.944	35075.56
520.146	36011.48
520.348	36320.73
520.55	36312.53
520.752	36529.62
520.954	37135.82
521.155	36951.5
521.357	37621.19
521.559	38385.08
521.761	38796.72
521.963	38559.16
522.164	38364.6
522.366	38647.22
522.568	39286.18
522.77	39632.29
522.971	40029.6
523.173	39927.2
523.375	40191.39
523.576	40342.94
523.778	40099.23
523.98	41018.77
524.181	41162.12
524.383	40908.18
524.584	41694.6
524.786	41688.45
524.988	41375.11
525.189	42423.67
525.391	42481.02
525.592	42669.43
525.794	42732.92
525.995	42866.03
526.197	42857.84
526.398	43285.87
526.6	43767.14
526.801	43560.3
527.003	43865.44
527.204	43894.11
527.406	44496.22
527.607	44555.61
527.808	44442.97
528.01	44477.79
528.211	44643.67
528.412	45337.93
528.614	45155.66
528.815	45221.2
529.016	46038.34
529.218	44987.73
529.419	45471.05
529.62	45833.54
529.822	45376.84
530.023	45819.2
530.224	45966.66
530.425	45897.03
530.626	45733.19
530.828	45741.38
531.029	46654.78
531.23	45933.89
531.431	46622.01
531.632	46558.52
531.833	46785.85
532.035	46695.74
532.236	46679.35
532.437	46970.16
532.638	46581.05
532.839	46816.57
533.04	47203.63
533.241	46474.55
533.442	47463.72
533.643	47285.55
533.844	46900.53
534.045	47134
534.246	47125.81
534.447	47273.26
534.648	47199.54
534.849	47269.17
535.05	47336.75
535.251	47131.95
535.451	47371.57
535.652	47711.53
535.853	47269.17
536.054	47269.17
536.255	47879.46
536.456	47289.65
536.657	48350.49
536.857	47162.67
537.058	47109.43
537.259	47420.72
537.46	47494.44
537.66	47504.68
537.861	47793.45
538.062	47428.91
538.263	47678.76
538.463	47625.51
538.664	47412.52
538.865	47818.02
539.065	48031.01
539.266	47430.96
539.466	48002.34
539.667	47209.78
539.868	47932.71
540.068	47916.32
540.269	47682.86
540.469	47848.74
540.67	47791.4
540.87	47412.52
541.071	47572.27
541.271	47945
541.472	47584.55
541.672	47645.99
541.873	47275.31
542.073	47306.03
542.274	47875.37
542.474	47408.43
542.675	47500.59
542.875	47871.27
543.075	47445.29
543.276	47011.12
543.476	47709.48
543.676	47101.23
543.877	47693.1
544.077	47469.87
544.277	47453.48
544.478	47359.28
544.678	47465.77
544.878	47486.25
545.078	47424.81
545.279	47256.88
545.479	47023.41
545.679	47113.52
545.879	47340.85
546.079	47441.2
546.28	47285.55
546.48	46445.88
546.68	47441.2
546.88	47512.88
547.08	47574.31
547.28	47244.59
547.48	46966.07
547.68	47281.45
547.88	46968.12
548.081	47322.41
548.281	47349.04
548.481	47103.28
548.681	47172.91
548.881	46902.58
549.081	47039.79
549.28	47162.67
549.48	47039.79
549.68	47217.97
549.88	47578.41
550.08	46912.82
550.28	46738.74
550.48	46970.16
550.68	47322.41
550.88	46679.35
551.08	46724.41
551.279	47207.73
551.479	46955.83
551.679	46988.6
551.879	46904.63
552.079	47521.07
552.278	46589.24
552.478	47103.28
552.678	47054.13
552.878	47086.9
553.077	46538.04
553.277	46300.48
553.477	47559.98
553.676	46724.41
553.876	46769.46
554.076	46634.3
554.275	46832.95
554.475	46011.71
554.674	46708.02
554.874	46722.36
555.074	46259.52
555.273	46462.27
555.473	47088.95
555.672	46259.52
555.872	46470.46
556.071	46654.78
556.271	46599.48
556.47	46216.51
556.67	45798.73
556.869	46044.48
557.068	46363.96
557.268	45638.98
557.467	45968.71
557.667	46044.48
557.866	46179.65
558.065	45827.4
558.265	45577.54
558.464	45522.25
558.663	46406.97
558.863	45301.07
559.062	45684.04
559.261	45614.41
559.461	45456.71
559.66	45700.42
559.859	45225.29
560.058	45118.8
560.258	45514.06
560.457	44946.77
560.656	45374.8
560.855	44795.22
561.054	44954.96
561.253	44602.71
561.453	44799.32
561.652	44934.48
561.851	44823.89
562.05	44645.72
562.249	44373.34
562.448	44643.67
562.647	44559.7
562.846	44238.17
563.045	44494.17
563.244	43933.03
563.443	44625.24
563.642	43953.51
563.841	43769.19
564.04	43554.15
564.239	44164.45
564.438	43562.34
564.637	43849.06
564.836	43834.72
565.035	43433.32
565.234	43408.75
565.432	43134.32
565.631	43263.34
565.83	43341.16
566.029	42831.22
566.228	43079.02
566.427	42990.96
566.625	42765.68
566.824	42169.72
567.023	42681.72
567.222	42089.85
567.42	42567.03
567.619	42218.88
567.818	42202.49
568.016	41948.54
568.215	42356.09
568.414	41923.97
568.612	41649.54
568.811	41870.72
569.01	41807.23
569.208	41352.58
569.407	41387.4
569.605	41131.4
569.804	41252.23
570.002	40856.98
570.201	40969.61
570.4	40693.14
570.598	40367.51
570.797	40402.33
570.995	40633.75
571.193	40121.76
571.392	40697.24
571.59	40119.71
571.789	39962.01
571.987	40052.12
572.186	40265.11
572.384	39568.8
572.582	39857.57
572.781	39859.62
572.979	39179.69
573.177	39548.32
573.376	39626.15
573.574	39024.04
573.772	39654.82
573.971	39052.72
574.169	38876.59
574.367	38772.14
574.565	39032.24
574.763	39255.46
574.962	38057.4
575.16	37983.68
575.358	38690.23
575.556	37682.62
575.754	38442.42
575.952	38155.71
576.151	37907.9
576.349	37500.36
576.547	37782.98
576.745	37656
576.943	37524.93
577.141	37322.18
577.339	37524.93
577.537	37193.16
577.735	37451.2
577.933	36740.56
578.131	37279.18
578.329	36943.31
578.527	36804.05
578.725	36672.98
578.923	36945.36
579.121	36394.45
579.319	36490.71
579.516	36601.3
579.714	36371.93
579.912	36386.26
580.11	36150.74
580.308	36247
580.506	35519.97
580.704	35669.47
580.901	35778.01
581.099	35808.73
581.297	35593.7
581.495	35745.25
581.692	35388.9
581.89	34815.47
582.088	35370.47
582.285	35100.14
582.483	35298.79
582.681	35143.14
582.878	35059.18
583.076	34731.5
583.274	35028.46
583.471	34258.42
583.669	34579.95
583.866	34067.96
584.064	34528.75
584.262	33758.72
584.459	34538.99
584.657	33797.63
584.854	34229.75
585.052	33490.43
585.249	33768.96
585.447	33715.71
585.644	33261.06
585.841	33619.46
586.039	33736.19
586.236	33230.34
586.434	33158.66
586.631	32992.78
586.828	33068.55
587.026	32880.14
587.223	32765.45
587.42	32609.81
587.618	32863.75
587.815	32441.87
588.012	32431.63
588.21	32130.58
588.407	32390.67
588.604	31981.08
588.801	31981.08
588.999	32048.66
589.196	32144.92
589.393	32026.14
589.59	31727.13
589.787	31579.68
589.984	31225.38
590.182	31100.45
590.379	31663.64
590.576	31249.96
590.773	31272.48
590.97	31022.63
591.167	31534.62
591.364	30905.9
591.561	31030.82
591.758	30756.39
591.955	30703.15
592.152	30793.26
592.349	30268.98
592.546	30508.59
592.743	30217.78
592.94	30287.41
593.137	30031.41
593.334	30328.37
593.531	29926.97
593.727	29978.17
593.924	30109.24
594.121	29935.16
594.318	29933.11
594.515	29212.23
594.712	29791.8
594.908	29292.1
595.105	29601.34
595.302	29118.02
595.499	29726.27
595.696	28966.47
595.892	29161.03
596.089	29253.19
596.286	28862.02
596.482	28739.15
596.679	28837.45
596.876	28649.03
597.072	28487.25
597.269	28593.74
597.466	28395.09
597.662	28384.85
597.859	28331.6
598.055	28202.58
598.252	28325.46
598.448	27831.9
598.645	27993.68
598.841	27319.9
599.038	27864.66
599.234	27655.77
599.431	27240.03
599.627	27340.38
599.824	27637.34
600.02	27334.24
600.217	27276.9
600.413	27088.48
600.609	27063.91
600.806	26908.26
601.002	27274.85
601.198	26584.68
601.395	26533.48
601.591	26760.81
601.787	26752.62
601.984	26590.83
602.18	26627.69
602.376	26406.51
602.572	26349.17
602.769	26357.36
602.965	26031.73
603.161	26017.4
603.357	26117.75
603.553	25630.33
603.75	25886.32
603.946	25648.76
604.142	25771.64
604.338	25384.57
604.534	25624.18
604.73	25249.41
604.926	24966.79
605.122	25548.41
605.318	25378.43
605.514	25116.29
605.71	24721.03
605.906	25093.76
606.102	24891.01
606.298	24893.06
606.494	24985.22
606.69	24764.04
606.886	24733.32
607.082	24479.37
607.278	24700.55
607.474	24243.85
607.67	24839.81
607.866	23979.67
608.062	24569.48
608.257	24143.5
608.453	24321.68
608.649	24184.46
608.845	24063.63
609.041	23983.76
609.236	23991.95
609.432	23846.55
609.628	24100.5
609.824	23844.5
610.019	23713.43
610.215	23903.89
610.411	23613.08
610.606	23651.99
610.802	23502.49
610.998	23772.82
611.193	23608.98
611.389	23649.94
611.584	23352.99
611.78	22996.64
611.976	23326.36
612.171	23391.9
612.367	23293.6
612.562	23316.12
612.758	22990.5
612.953	22736.55
613.149	23172.77
613.344	22742.69
613.539	22941.35
613.735	22654.63
613.93	22591.14
614.126	22462.12
614.321	22951.59
614.517	22466.22
614.712	22466.22
614.907	22402.73
615.103	22404.78
615.298	22292.14
615.493	22501.03
615.688	22183.6
615.884	22564.52
616.079	22331.05
616.274	22210.22
616.47	22017.71
616.665	22128.3
616.86	21927.6
617.055	21915.31
617.25	22091.44
617.445	22281.9
617.641	21345.98
617.836	22011.57
618.031	21386.94
618.226	21604.02
618.421	21888.69
618.616	21884.59
618.811	21022.4
619.006	21518.01
619.201	21137.09
619.396	21229.24
619.591	21110.46
619.786	21321.4
619.981	20801.22
620.176	20989.63
620.371	20651.72
620.566	20600.52
620.761	20330.19
620.956	20537.03
621.151	20408.01
621.346	20643.52
621.541	20221.64
621.735	20348.62
621.93	19834.58
622.125	19988.17
622.32	19566.29
622.515	19642.07
622.709	19474.13
622.904	19443.42
623.099	19334.87
623.294	19472.09
623.488	19171.04
623.683	19134.17
623.878	18796.26
624.072	18974.43
624.267	18925.28
624.462	18908.9
624.656	18579.17
624.851	18755.3
625.046	18444.01
625.24	18282.22
625.435	18159.34
625.629	18321.13
625.824	18056.94
626.018	18220.78
626.213	17633.01
626.407	18038.51
626.602	17506.04
626.796	17716.98
626.991	17508.08
627.185	17538.8
627.38	17182.46
627.574	16895.74
627.768	17196.79
627.963	17092.35
628.157	16920.32
628.352	16854.78
628.546	16733.95
628.74	17043.2
628.935	16467.72
629.129	16660.23
629.323	16557.83
629.517	16176.91
629.712	16400.13
629.906	16129.8
630.1	15798.03
630.294	16160.52
630.489	15804.17
630.683	15941.39
630.877	15648.53
631.071	15628.05
631.265	15562.51
631.459	15589.14
631.653	15433.49
631.848	15183.64
632.042	15128.35
632.236	15322.9
632.43	14915.36
632.624	14966.56
632.818	14767.9
633.012	14743.33
633.206	14724.9
633.4	14941.98
633.594	14690.08
633.788	14370.6
633.982	14602.02
634.176	14317.35
634.369	14450.47
634.563	14356.26
634.757	14303.01
634.951	14083.88
635.145	14065.45
635.339	14022.44
635.533	13897.52
635.726	13958.95
635.92	13713.2
636.114	13604.66
636.308	13594.42
636.501	13608.75
636.695	13436.72
636.889	13389.62
637.083	13317.94
637.276	13188.92
637.47	13125.43
637.664	12969.79
637.857	13186.87
638.051	12957.5
638.244	12945.21
638.438	12812.09
638.632	12590.91
638.825	12613.44
639.019	12642.11
639.212	12506.95
639.406	12371.78
639.599	12367.68
639.793	12273.48
639.986	12234.57
640.18	12316.48
640.373	12091.21
640.567	12115.78
640.76	11917.13
640.954	11929.42
641.147	11843.4
641.34	11587.41
641.534	11646.8
641.727	11548.5
641.92	11646.8
642.114	11290.45
642.307	11431.76
642.5	11347.79
642.694	11097.94
642.887	11128.66
643.08	11394.9
643.273	10981.21
643.467	11095.89
643.66	11067.22
643.853	10907.48
644.046	10800.99
644.239	10901.34
644.432	10555.23
644.626	10610.53
644.819	10741.6
645.012	10907.48
645.205	10577.76
645.398	10536.8
645.591	10440.54
645.784	10452.83
645.977	10254.18
646.17	10315.62
646.363	10084.2
646.556	9957.22
646.749	10102.63
646.942	10112.87
647.135	9989.99
647.328	9906.02
647.521	9764.72
647.714	9650.03
647.907	9893.74
648.099	9635.69
648.292	9709.42
648.485	9514.86
648.678	9377.65
648.871	9498.48
649.064	9377.65
649.256	9531.25
649.449	9346.93
649.642	9232.24
649.835	9279.35
650.027	9250.67
650.22	9146.23
650.413	9095.03
650.605	9033.59
650.798	8966.01
650.991	8998.77
651.183	9015.16
651.376	8734.59
651.568	8914.81
651.761	8580.99
651.954	8839.03
652.146	8333.18
652.339	8902.52
652.531	8759.16
652.724	8574.85
652.916	8482.69
653.109	8605.56
653.301	8527.74
653.494	8503.17
653.686	8159.11
653.879	8378.24
654.071	8210.31
654.263	8083.33
654.456	8126.34
654.648	8195.97
654.84	7903.11
655.033	7919.5
655.225	8036.23
655.417	7901.06
655.61	7907.21
655.802	7808.9
655.994	7890.82
656.186	7765.9
656.379	7839.62
656.571	7604.11
656.763	7767.95
656.955	7638.92
657.148	7602.06
657.34	7464.85
657.532	7499.66
657.724	7325.58
657.916	7575.44
658.108	7417.74
658.3	7204.75
658.492	7292.82
658.684	7069.59
658.876	7243.67
659.068	7317.39
659.26	7036.82
659.452	7022.48
659.644	7258
659.836	7012.24
660.028	7128.98
660.22	6877.08
660.412	6870.94
660.604	6836.12
660.796	6946.71
660.988	6850.46
661.18	6803.35
661.372	6662.04
661.563	6539.16
661.755	6584.22
661.947	6727.58
662.139	6608.8
662.331	6539.16
662.522	6373.28
662.714	6584.22
662.906	6520.73
663.097	6662.04
663.289	6381.47
663.481	6238.11
663.673	6469.53
663.864	6309.79
664.056	6184.87
664.247	6229.92
664.439	6184.87
664.631	6307.74
664.822	6229.92
665.014	6111.14
665.205	6172.58
665.397	5969.83
665.588	6117.28
665.78	6070.18
665.971	5984.16
666.163	6016.93
666.354	5867.43
666.546	5953.45
666.737	5844.9
666.929	5799.85
667.12	5812.14
667.311	5769.13
667.503	5685.16
667.694	5900.2
667.885	5765.03
668.077	5674.92
668.268	5640.11
668.459	5662.63
668.651	5558.19
668.842	5625.77
669.033	5435.31
669.224	5463.98
669.416	5543.85
669.607	5400.49
669.798	5423.02
669.989	5552.04
670.18	5617.58
670.371	5420.97
670.563	5240.75
670.754	5412.78
670.945	5294
671.136	5324.72
671.327	5412.78
671.518	5308.34
671.709	5384.11
671.9	5328.81
672.091	5205.94
672.282	5126.07
672.473	5195.7
672.664	5111.73
672.855	5191.6
673.046	5103.54
673.237	5375.92
673.428	4976.56
673.619	5177.26
673.809	4964.28
674	4978.61
674.191	5033.91
674.382	5027.76
674.573	4935.6
674.764	4970.42
674.954	4915.12
675.145	4999.09
675.336	5146.55
675.527	4982.71
675.717	4984.76
675.908	4878.26
676.099	5060.53
676.289	4898.74
676.48	4890.55
676.671	4816.82
676.861	4874.17
677.052	4962.23
677.243	4652.98
677.433	4806.58
677.624	4816.82
677.814	4751.29
678.005	4751.29
678.195	4847.54
678.386	4796.34
678.576	4751.29
678.767	4755.38
678.957	4695.99
679.148	4765.62
679.338	4775.86
679.529	4698.04
679.719	4644.79
679.909	4757.43
680.1	4612.03
680.29	4677.56
680.481	4571.07
680.671	4468.67
680.861	4497.34
681.052	4630.46
681.242	4710.33
681.432	4495.29
681.622	4603.83
681.813	4693.94
682.003	4566.97
682.193	4575.16
682.383	4550.59
682.573	4675.51
682.764	4558.78
682.954	4542.39
683.144	4501.44
683.334	4579.26
683.524	4433.85
683.714	4618.17
683.904	4466.62
684.094	4437.95
684.284	4528.06
684.474	4515.77
684.664	4507.58
684.854	4560.83
685.044	4417.47
685.234	4341.69
685.424	4403.13
685.614	4384.7
685.804	4298.69
685.994	4329.41
686.184	4448.19
686.374	4294.59
686.564	4321.21
686.753	4270.01
686.943	4220.86
687.133	4247.49
687.323	4196.29
687.513	4370.37
687.702	4339.65
687.892	4157.38
688.082	4263.87
688.272	4210.62
688.461	4190.14
688.651	4153.28
688.841	4190.14
689.03	4184
689.22	4040.64
689.41	4091.84
689.599	4124.61
689.789	4032.45
689.979	3987.4
690.168	4042.69
690.358	4026.31
690.547	4009.92
690.737	4001.73
690.926	3827.65
691.116	3968.96
691.305	3979.2
691.495	3837.89
691.684	3796.93
691.874	3891.14
692.063	3682.25
692.252	3942.34
692.442	3899.33
692.631	3854.28
692.82	3817.41
693.01	3819.46
693.199	3874.76
693.388	3862.47
693.578	3745.73
693.767	3874.76
693.956	3776.45
694.146	3751.88
694.335	3796.93
694.524	3657.67
694.713	3788.74
694.902	3753.93
695.092	3762.12
695.281	3688.39
695.47	3823.56
695.659	3608.52
695.848	3674.06
696.037	3594.19
696.226	3690.44
696.415	3637.19
696.604	3665.86
696.793	3694.54
696.982	3737.54
697.171	3606.47
697.36	3502.03
697.549	3497.93
697.738	3612.62
697.927	3510.22
698.116	3641.29
698.305	3577.8
698.494	3608.52
698.683	3571.66
698.872	3682.25
699.061	3706.82
699.25	3637.19
699.438	3604.43
699.627	3483.59
699.816	3616.71
700.005	3641.29
700.193	3495.88
700.382	3604.43
700.571	3514.31
700.76	3545.03
700.948	3491.79
701.137	3542.99
701.326	3608.52
701.514	3403.72
701.703	3485.64
701.892	3370.96
702.08	3497.93
702.269	3678.15
702.457	3442.64
702.646	3485.64
702.834	3418.06
703.023	3428.3
703.212	3403.72
703.4	3461.07
703.589	3399.63
703.777	3532.75
703.965	3409.87
704.154	3514.31
704.342	3432.4
704.531	3592.14
704.719	3530.7
704.907	3471.31
705.096	3393.48
705.284	3499.98
705.472	3416.01
705.661	3514.31
705.849	3411.92
706.037	3483.59
706.226	3481.55
706.414	3444.68
706.602	3438.54
706.79	3518.41
706.979	3475.4
707.167	3377.1
707.355	3461.07
707.543	3377.1
707.731	3491.79
707.919	3295.18
708.107	3452.88
708.296	3426.25
708.484	3350.48
708.672	3465.16
708.86	3504.07
709.048	3514.31
709.236	3514.31
709.424	3514.31
709.612	3348.43
709.8	3495.88
709.988	3385.29
710.176	3600.33
710.364	3549.13
710.551	3524.55
710.739	3479.5
710.927	3493.83
711.115	3557.32
711.303	3485.64
711.491	3510.22
711.679	3497.93
711.866	3428.3
712.054	3567.56
712.242	3502.03
712.43	3403.72
712.617	3440.59
712.805	3520.46
712.993	3354.57
713.181	3485.64
713.368	3332.05
713.556	3485.64
713.744	3432.4
713.931	3583.95
714.119	3426.25
714.306	3432.4
714.494	3440.59
714.682	3397.58
714.869	3448.78
715.057	3387.34
715.244	3393.48
715.432	3362.76
715.619	3299.28
715.807	3452.88
715.994	3502.03
716.182	3375.05
716.369	3467.21
716.556	3534.79
716.744	3350.48
716.931	3413.96
717.119	3440.59
717.306	3481.55
717.493	3377.1
717.681	3362.76
717.868	3534.79
718.055	3452.88
718.242	3493.83
718.43	3413.96
718.617	3506.12
718.804	3416.01
718.991	3448.78
719.179	3452.88
719.366	3246.03
719.553	3502.03
719.74	3461.07
719.927	3512.27
720.114	3459.02
720.301	3475.4
720.488	3364.81
720.676	3483.59
720.863	3495.88
721.05	3555.27
721.237	3293.13
721.424	3477.45
721.611	3338.19
721.798	3375.05
721.985	3327.95
722.172	3491.79
722.358	3145.68
722.545	3536.84
722.732	3338.19
722.919	3485.64
723.106	3325.9
723.293	3289.04
723.48	3475.4
723.667	3338.19
723.853	3354.57
724.04	3313.61
724.227	3356.62
724.414	3305.42
724.6	3350.48
724.787	3424.2
724.974	3293.13
725.161	3368.91
725.347	3190.74
725.534	3467.21
725.72	3258.32
725.907	3291.09
726.094	3286.99
726.28	3260.37
726.467	3342.28
726.653	3330
726.84	3346.38
727.027	3256.27
727.213	3223.5
727.4	3229.65
727.586	3387.34
727.773	3418.06
727.959	3373
728.145	3321.81
728.332	3346.38
728.518	3313.61
728.705	3311.57
728.891	3223.5
729.077	3260.37
729.264	3203.02
729.45	3205.07
729.636	3295.18
729.823	3186.64
730.009	3301.33
730.195	3323.85
730.382	3391.44
730.568	3301.33
730.754	3332.05
730.94	3284.94
731.126	3260.37
731.313	3239.89
731.499	3297.23
731.685	3407.82
731.871	3332.05
732.057	3282.89
732.243	3340.24
732.429	3174.35
732.615	3235.79
732.801	3223.5
732.987	3315.66
733.173	3241.93
733.359	3293.13
733.545	3139.54
733.731	3135.44
733.917	3213.26
734.103	3176.4
734.289	3051.47
734.475	3125.2
734.661	3211.22
734.847	3155.92
735.033	3215.31
735.219	3219.41
735.404	3117.01
735.59	3215.31
735.776	3076.05
735.962	3151.82
736.148	3106.77
736.333	3192.78
736.519	3002.32
736.705	3174.35
736.89	3037.14
737.076	3057.62
737.262	3088.34
737.447	3028.95
737.633	2977.75
737.819	3041.23
738.004	2969.55
738.19	3198.93
738.375	3057.62
738.561	3106.77
738.747	2947.03
738.932	3094.48
739.118	3088.34
739.303	2983.89
739.489	2912.21
739.674	2897.88
739.859	2873.3
740.045	2934.74
740.23	2994.13
740.416	2897.88
740.601	2994.13
740.786	2861.01
740.972	2762.71
741.157	2775
741.342	2815.96
741.528	2858.96
741.713	2904.02
741.898	2856.92
742.084	2891.73
742.269	2803.67
742.454	2861.01
742.639	2783.19
742.824	2869.2
743.01	2842.58
743.195	2752.47
743.38	2807.77
743.565	2717.65
743.75	2697.17
743.935	2746.33
744.12	2908.12
744.305	2674.65
744.49	2797.53
744.675	2584.54
744.86	2605.02
745.045	2676.7
745.23	2613.21
745.415	2592.73
745.6	2537.43
745.785	2666.46
745.97	2572.25
746.155	2627.54
746.34	2670.55
746.525	2570.2
746.71	2516.95
746.895	2404.32
747.079	2566.1
747.264	2492.38
747.449	2441.18
747.634	2467.8
747.819	2551.77
748.003	2322.4
748.188	2449.37
748.373	2371.55
748.557	2480.09
748.742	2234.33
748.927	2297.82
749.111	2344.92
749.296	2277.34
749.481	2340.83
749.665	2220
749.85	2217.95
750.034	2271.2
750.219	2252.77
750.404	2176.99
750.588	2150.37
750.773	2131.94
750.957	2097.12
751.141	2213.85
751.326	2199.52
751.51	2074.59
751.695	2107.36
751.879	2080.74
752.064	2041.82
752.248	2095.07
752.432	2160.61
752.617	2162.65
752.801	2009.06
752.985	2047.97
753.17	1970.15
753.354	2033.63
753.538	1968.1
753.722	1947.62
753.907	1906.66
754.091	1830.88
754.275	1957.86
754.459	1871.84
754.643	1818.6
754.828	1900.51
755.012	1828.84
755.196	1861.6
755.38	1789.92
755.564	1779.68
755.748	1849.32
755.932	1697.77
756.116	1779.68
756.3	1740.77
756.484	1796.07
756.668	1726.44
756.852	1632.23
757.036	1697.77
757.22	1658.85
757.404	1722.34
757.588	1628.14
757.772	1609.7
757.956	1703.91
758.14	1691.62
758.323	1585.13
758.507	1677.29
758.691	1628.14
758.875	1583.08
759.059	1621.99
759.242	1644.52
759.426	1503.21
759.61	1583.08
759.794	1589.22
759.977	1511.4
760.161	1574.89
760.345	1538.02
760.528	1550.31
760.712	1535.98
760.895	1548.26
761.079	1460.2
761.263	1413.1
761.446	1390.57
761.63	1482.73
761.813	1355.76
761.997	1419.24
762.18	1472.49
762.364	1347.56
762.547	1337.32
762.731	1396.71
762.914	1439.72
763.098	1366
763.281	1370.09
763.464	1314.8
763.648	1361.9
763.831	1316.84
764.015	1380.33
764.198	1316.84
764.381	1378.28
764.564	1435.63
764.748	1331.18
764.931	1361.9
765.114	1265.64
765.297	1265.64
765.481	1314.8
765.664	1372.14
765.847	1310.7
766.03	1265.64
766.213	1257.45
766.397	1302.51
766.58	1191.92
766.763	1320.94
766.946	1216.49
767.129	1216.49
767.312	1327.08
767.495	1261.55
767.678	1155.05
767.861	1101.81
768.044	1226.73
768.227	1140.72
768.41	1183.73
768.593	1204.21
768.776	1191.92
768.959	1234.93
769.142	1234.93
769.324	1165.29
769.507	1118.19
769.69	1191.92
769.873	1210.35
770.056	1183.73
770.239	1196.01
770.421	1122.29
770.604	1116.14
770.787	1177.58
770.97	1105.9
771.152	1087.47
771.335	1118.19
771.518	1013.74
771.7	1136.62
771.883	1142.77
772.066	1128.43
772.248	1132.53
772.431	1058.8
772.613	1103.86
772.796	1040.37
772.978	1052.66
773.161	1056.75
773.343	1019.89
773.526	995.31
773.708	933.87
773.891	968.69
774.073	940.02
774.256	1075.18
774.438	1069.04
774.621	1040.37
774.803	976.88
774.985	892.91
775.168	964.59
775.35	911.35
775.532	940.02
775.715	937.97
775.897	872.43
776.079	892.91
776.261	970.74
776.444	929.78
776.626	870.39
776.808	868.34
776.99	878.58
777.173	847.86
777.355	894.96
777.537	831.48
777.719	813.04
777.901	841.72
778.083	919.54
778.265	811
778.447	991.22
778.629	864.24
778.811	776.18
778.993	878.58
779.175	817.14
779.357	714.74
779.539	741.36
779.721	821.24
779.903	798.71
780.085	772.08
780.267	741.36
780.449	811
780.631	794.61
780.812	710.65
780.994	767.99
781.176	796.66
781.358	716.79
781.54	641.01
781.721	729.08
781.903	669.69
782.085	677.88
782.267	737.27
782.448	634.87
782.63	591.86
782.812	729.08
782.993	671.73
783.175	614.39
783.357	585.72
783.538	704.5
783.72	651.25
783.901	634.87
784.083	647.16
784.264	636.92
784.446	595.96
784.627	579.58
784.809	636.92
784.99	614.39
785.172	630.77
785.353	559.1
785.535	626.68
785.716	591.86
785.897	569.34
786.079	577.53
786.26	659.45
786.441	643.06
786.623	452.6
786.804	542.71
786.985	612.34
787.167	514.04
787.348	536.57
787.529	540.66
787.71	585.72
787.891	579.58
788.073	575.48
788.254	518.14
788.435	542.71
788.616	499.7
788.797	561.14
788.978	518.14
789.159	468.98
789.34	487.42
789.522	536.57
789.703	481.27
789.884	534.52
790.065	491.51
790.246	555
790.427	497.66
790.607	466.94
790.788	440.31
790.969	432.12
791.15	436.22
791.331	468.98
791.512	503.8
791.693	462.84
791.874	425.98
792.054	520.18
792.235	405.5
792.416	423.93
792.597	460.79
792.778	454.65
792.958	466.94
793.139	397.31
793.32	382.97
793.5	329.72
793.681	477.18
793.862	376.83
794.042	430.07
794.223	401.4
794.404	454.65
794.584	360.44
794.765	430.07
794.945	442.36
795.126	376.83
795.306	452.6
795.487	389.11
795.667	368.63
795.848	323.58
796.028	307.2
796.209	421.88
796.389	368.63
796.57	432.12
796.75	348.15
796.93	282.62
797.111	387.07
797.291	327.67
797.471	356.35
797.652	372.73
797.832	311.29
798.012	417.79
798.192	333.82
798.373	301.05
798.553	323.58
798.733	419.83
798.913	372.73
799.093	348.15
799.274	344.06
799.454	339.96
799.634	348.15
799.814	299
799.994	378.87
800.174	292.86
800.354	329.72
800.534	301.05
800.714	346.11
800.894	311.29
801.074	299
801.254	327.67
801.434	292.86
801.614	360.44
801.794	348.15
801.974	751.6
802.154	243.71
802.334	325.63
802.514	256
802.693	231.42
802.873	299
803.053	296.96
803.233	264.19
803.413	331.77
803.592	241.66
803.772	272.38
803.952	319.48
804.131	249.85
804.311	315.39
804.491	329.72
804.67	264.19
804.85	307.2
805.03	290.81
805.209	317.44
805.389	249.85
805.568	249.85
805.748	241.66
805.928	274.43
806.107	278.52
806.287	264.19
806.466	212.99
806.646	282.62
806.825	249.85
807.004	235.52
807.184	348.15
807.363	258.04
807.543	253.95
807.722	266.24
807.901	239.61
808.081	266.24
808.26	231.42
808.439	180.22
808.619	278.52
808.798	161.79
808.977	270.33
809.156	294.91
809.336	231.42
809.515	311.29
809.694	253.95
809.873	272.38
810.052	221.18
810.231	290.81
810.411	223.23
810.59	245.76
810.769	241.66
810.948	239.61
811.127	186.37
811.306	256
811.485	196.61
811.664	225.28
811.843	192.51
812.022	204.8
812.201	198.65
812.38	184.32
812.559	157.69
812.737	165.89
812.916	159.74
813.095	139.26
813.274	235.52
813.453	194.56
813.632	208.89
813.811	188.41
813.989	221.18
814.168	186.37
814.347	208.89
814.526	159.74
814.704	151.55
814.883	301.05
815.062	188.41
815.24	280.57
815.419	200.7
815.598	204.8
815.776	190.46
815.955	198.65
816.133	98.3
816.312	258.04
816.49	139.26
816.669	233.47
816.847	143.36
817.026	176.13
817.204	129.02
817.383	215.04
817.561	206.84
817.74	165.89
817.918	174.08
818.097	180.22
818.275	98.3
818.453	186.37
818.632	131.07
818.81	131.07
818.988	208.89
819.167	194.56
819.345	198.65
819.523	204.8
819.701	149.5
819.879	237.56
820.058	145.41
820.236	198.65
820.414	133.12
820.592	135.17
820.77	182.27
820.948	151.55
821.127	163.84
821.305	135.17
821.483	143.36
821.661	204.8
821.839	129.02
822.017	196.61
822.195	108.54
822.373	198.65
822.551	159.74
822.729	145.41
822.907	129.02
823.085	190.46
823.262	131.07
823.44	106.49
823.618	126.97
823.796	190.46
823.974	88.06
824.152	75.77
824.329	165.89
824.507	92.16
824.685	90.11
824.863	141.31
825.04	124.93
825.218	137.21
825.396	112.64
825.574	172.03
825.751	180.22
825.929	163.84
826.107	73.73
826.284	96.25
826.462	139.26
826.639	53.25
826.817	124.93
826.994	135.17
827.172	114.69
827.349	182.27
827.527	20.48
827.704	110.59
827.882	147.45
828.059	94.21
828.237	40.96
828.414	182.27
828.591	131.07
828.769	75.77
828.946	55.3
829.124	149.5
829.301	167.93
829.478	131.07
829.655	106.49
829.833	129.02
830.01	26.62
830.187	96.25
830.364	73.73
830.542	151.55
830.719	30.72
830.896	88.06
831.073	131.07
831.25	143.36
831.427	102.4
831.604	61.44
831.782	96.25
831.959	184.32
832.136	182.27
832.313	129.02
832.49	145.41
832.667	108.54
832.844	2.05
833.021	124.93
833.198	100.35
833.374	159.74
833.551	100.35
833.728	73.73
833.905	81.92
834.082	36.86
834.259	30.72
834.436	153.6
834.612	73.73
834.789	98.3
834.966	106.49
835.143	61.44
835.319	102.4
835.496	63.49
835.673	73.73
835.85	124.93
836.026	147.45
836.203	116.73
836.38	24.58
836.556	65.54
836.733	65.54
836.909	114.69
837.086	88.06
837.262	43.01
837.439	100.35
837.616	90.11
837.792	63.49
837.968	114.69
838.145	-45.06
838.321	49.15
838.498	110.59
838.674	57.34
838.851	114.69
839.027	139.26
839.203	124.93
839.38	63.49
839.556	73.73
839.732	94.21
839.909	36.86
840.085	83.97
840.261	63.49
840.437	69.63
840.614	8.19
840.79	45.06
840.966	133.12
841.142	139.26
841.318	79.87
841.494	36.86
841.671	69.63
841.847	45.06
842.023	24.58
842.199	81.92
842.375	90.11
842.551	32.77
842.727	4.1
842.903	77.82
843.079	153.6
843.255	114.69
843.431	133.12
843.607	135.17
843.783	-4.1
843.959	86.01
844.134	14.34
844.31	143.36
844.486	77.82
844.662	88.06
844.838	114.69
845.013	104.45
845.189	120.83
845.365	104.45
845.541	75.77
845.716	4.1
845.892	59.39
846.068	20.48
846.244	36.86
846.419	57.34
846.595	16.38
846.77	20.48
846.946	102.4
847.122	77.82
847.297	53.25
847.473	51.2
847.648	61.44
847.824	51.2
847.999	26.62
848.175	30.72
848.35	81.92
848.526	75.77
848.701	24.58
848.876	90.11
849.052	147.45
849.227	45.06
849.403	28.67
849.578	20.48
849.753	86.01
849.929	73.73
850.104	32.77
850.279	-30.72
850.454	47.1
850.63	20.48
850.805	47.1
850.98	0
851.155	38.91
851.33	51.2
851.505	40.96
851.681	126.97
851.856	100.35
852.031	26.62
852.206	102.4
852.381	28.67
852.556	102.4
852.731	102.4
852.906	67.58
853.081	40.96
853.256	114.69
853.431	24.58
853.606	34.82
853.781	79.87
853.956	49.15
854.131	55.3
854.305	45.06
854.48	26.62
854.655	67.58
854.83	43.01
855.005	157.69
855.18	73.73
855.354	-67.58
855.529	49.15
855.704	34.82
855.879	100.35
856.053	4.1
856.228	73.73
856.403	32.77
856.577	73.73
856.752	-36.86
856.926	8.19
857.101	-16.38
857.276	-57.34
857.45	81.92
857.625	104.45
857.799	-20.48
857.974	75.77
858.148	-6.14
858.323	4.1
858.497	-16.38
858.672	63.49
858.846	-26.62
859.02	45.06
859.195	-22.53
859.369	24.58
859.543	-30.72
859.718	71.68
859.892	28.67
860.066	45.06
860.241	-14.34
860.415	96.25
860.589	36.86
860.763	14.34
860.938	6.14
861.112	88.06
861.286	69.63
861.46	133.12
861.634	2.05
861.808	67.58
861.982	45.06
862.157	2.05
862.331	43.01
862.505	28.67
862.679	86.01
862.853	8.19
863.027	28.67
863.201	10.24
863.375	14.34
863.549	67.58
863.722	20.48
863.896	81.92
864.07	-20.48
864.244	14.34
864.418	-10.24
864.592	69.63
864.766	-24.58
864.939	53.25
865.113	-53.25
865.287	38.91
865.461	-4.1
865.634	24.58
865.808	10.24
865.982	49.15
866.156	8.19
866.329	18.43
866.503	131.07
866.676	-20.48
866.85	-12.29
867.024	-22.53
867.197	69.63
867.371	-36.86
867.544	124.93
867.718	57.34
867.891	-24.58
868.065	49.15
868.238	10.24
868.412	59.39
868.585	0
868.759	16.38
868.932	-14.34
869.105	32.77
869.279	-8.19
869.452	8.19
869.625	40.96
869.799	-14.34
869.972	-24.58
870.145	-22.53
870.319	98.3
870.492	0
870.665	36.86
870.838	-43.01
871.011	28.67
871.185	24.58
871.358	26.62
871.531	36.86
871.704	-16.38
871.877	49.15
872.05	106.49
872.223	-71.68
872.396	61.44
872.569	-2.05
872.742	24.58
872.915	24.58
873.088	-36.86
873.261	-53.25
873.434	104.45
873.607	28.67
873.78	24.58
873.953	-6.14
874.126	51.2
874.299	-4.1
874.471	-18.43
874.644	-69.63
874.817	53.25
874.99	69.63
875.163	0
875.335	47.1
875.508	-20.48
875.681	61.44
875.853	14.34
876.026	-28.67
876.199	-73.73
876.371	18.43
876.544	-12.29
876.717	18.43
876.889	34.82
877.062	94.21
877.234	-4.1
877.407	49.15
877.579	6.14
877.752	34.82
877.924	16.38
878.097	-30.72
878.269	36.86
878.442	73.73
878.614	-30.72
878.786	6.14
878.959	4.1
879.131	-18.43
879.303	-14.34
879.476	16.38
879.648	20.48
879.82	14.34
879.993	20.48
880.165	2.05
880.337	4.1
880.509	-45.06
880.681	10.24
880.854	12.29
881.026	98.3
881.198	32.77
881.37	-6.14
881.542	86.01
881.714	12.29
881.886	-6.14
882.058	139.26
882.23	-6.14
882.402	-12.29
882.574	43.01
882.746	-28.67
882.918	6.14
883.09	-4.1
883.262	28.67
883.434	-22.53
883.606	-38.91
883.778	-14.34
883.95	53.25
884.122	4.1
884.293	55.3
884.465	34.82
884.637	81.92
884.809	12.29
884.98	-36.86
885.152	-12.29
885.324	8.19
885.496	24.58
885.667	32.77
885.839	-30.72
886.011	53.25
886.182	77.82
886.354	20.48
886.525	-14.34
886.697	51.2
886.869	28.67
887.04	26.62
887.212	71.68
887.383	100.35
887.555	12.29
887.726	24.58
887.897	-40.96
888.069	-77.82
888.24	12.29
888.412	-24.58
888.583	45.06
888.754	4.1
888.926	12.29
889.097	36.86
889.268	-75.77
889.44	-14.34
889.611	24.58
889.782	-24.58
889.953	-12.29
890.125	2.05
890.296	8.19
890.467	49.15
890.638	6.14
890.809	-8.19
890.98	14.34
891.151	43.01
891.323	69.63
891.494	34.82
891.665	71.68
891.836	-45.06
892.007	-6.14
892.178	34.82
892.349	32.77
892.52	24.58
892.691	30.72
892.862	34.82
893.032	-28.67
893.203	45.06
893.374	-28.67
893.545	86.01
893.716	-67.58
893.887	28.67
894.057	-26.62
894.228	18.43
894.399	16.38
894.57	36.86
894.74	20.48
894.911	24.58
895.082	49.15
895.253	-65.53
895.423	-34.82
895.594	-38.91
895.764	100.35
895.935	-36.86
896.106	-22.53
896.276	-20.48
896.447	55.3
896.617	59.39
896.788	-47.1
896.958	-45.06
897.129	-28.67
897.299	-32.77
897.47	20.48
897.64	-16.38
897.81	30.72
897.981	38.91
898.151	16.38
898.322	-32.77
898.492	14.34
898.662	4.1
898.832	83.97
899.003	-59.39
899.173	10.24
899.343	-55.3
899.513	-12.29
