Data from USB4F104151__265__10-40-20-334.txt Node

Date: Wed Mar 12 10:40:20 EDT 2025
User: louis
Spectrometer: USB4F10415
Trigger mode: 4
Integration Time (sec): 3.000000E-2
Scans to average: 1
Electric dark correction enabled: true
Nonlinearity correction enabled: false
Boxcar width: 0
XAxis mode: Wavelengths
Number of Pixels in Spectrum: 3648
>>>>>Begin Spectral Data<<<<<
178.204	-86.19
178.424	-86.19
178.644	-86.19
178.864	-180.39
179.084	-174.25
179.304	-43.18
179.524	-12.46
179.744	-51.37
179.964	46.93
180.184	69.46
180.404	-37.03
180.624	-10.41
180.844	16.21
181.064	-24.75
181.283	22.36
181.503	-14.51
181.723	38.74
181.943	-71.85
182.163	102.23
182.383	-28.84
182.602	75.6
182.822	51.03
183.042	42.84
183.262	5.97
183.482	-18.6
183.701	55.12
183.921	14.17
184.141	12.12
184.361	12.12
184.58	40.79
184.8	22.36
185.02	75.6
185.239	40.79
185.459	8.02
185.679	22.36
185.898	5.97
186.118	104.28
186.338	44.88
186.557	22.36
186.777	51.03
186.997	-30.89
187.216	55.12
187.436	87.89
187.655	175.95
187.875	186.19
188.095	-10.41
188.314	22.36
188.534	87.89
188.753	38.74
188.973	71.51
189.192	85.84
189.412	26.45
189.631	73.56
189.851	75.6
190.07	44.88
190.29	-10.41
190.509	-8.36
190.729	71.51
190.948	79.7
191.168	161.62
191.387	38.74
191.607	38.74
191.826	38.74
192.045	89.94
192.265	30.55
192.484	67.41
192.704	40.79
192.923	-20.65
193.142	128.85
193.362	28.5
193.581	89.94
193.8	26.45
194.02	51.03
194.239	22.36
194.458	100.18
194.678	22.36
194.897	73.56
195.116	20.31
195.335	16.21
195.555	36.69
195.774	63.32
195.993	48.98
196.212	167.76
196.432	-22.7
196.651	44.88
196.87	46.93
197.089	65.36
197.308	69.46
197.528	61.27
197.747	12.12
197.966	18.26
198.185	46.93
198.404	87.89
198.623	-8.36
198.842	20.31
199.062	100.18
199.281	40.79
199.5	14.17
199.719	59.22
199.938	135
200.157	-20.65
200.376	73.56
200.595	51.03
200.814	112.47
201.033	67.41
201.252	46.93
201.471	61.27
201.69	69.46
201.909	63.32
202.128	48.98
202.347	61.27
202.566	75.6
202.785	83.8
203.004	32.6
203.223	89.94
203.442	75.6
203.661	44.88
203.879	46.93
204.098	100.18
204.317	30.55
204.536	67.41
204.755	36.69
204.974	87.89
205.193	57.17
205.411	132.95
205.63	106.32
205.849	69.46
206.068	87.89
206.287	-0.17
206.505	63.32
206.724	28.5
206.943	57.17
207.162	48.98
207.381	51.03
207.599	59.22
207.818	61.27
208.037	53.08
208.255	81.75
208.474	135
208.693	53.08
208.911	110.42
209.13	114.52
209.349	51.03
209.567	67.41
209.786	61.27
210.005	75.6
210.223	-4.27
210.442	22.36
210.661	73.56
210.879	20.31
211.098	32.6
211.316	22.36
211.535	59.22
211.753	71.51
211.972	116.56
212.191	1.88
212.409	26.45
212.628	22.36
212.846	79.7
213.065	104.28
213.283	104.28
213.502	-2.22
213.72	36.69
213.938	91.99
214.157	42.84
214.375	-10.41
214.594	24.4
214.812	104.28
215.031	12.12
215.249	53.08
215.467	38.74
215.686	44.88
215.904	12.12
216.122	53.08
216.341	106.32
216.559	34.64
216.778	85.84
216.996	32.6
217.214	32.6
217.432	-80.04
217.651	75.6
217.869	16.21
218.087	73.56
218.306	22.36
218.524	26.45
218.742	-14.51
218.96	75.6
219.179	28.5
219.397	67.41
219.615	108.37
219.833	81.75
220.051	77.65
220.27	83.8
220.488	147.28
220.706	69.46
220.924	34.64
221.142	46.93
221.36	26.45
221.578	44.88
221.796	161.62
222.015	87.89
222.233	114.52
222.451	104.28
222.669	30.55
222.887	63.32
223.105	28.5
223.323	59.22
223.541	71.51
223.759	104.28
223.977	59.22
224.195	63.32
224.413	106.32
224.631	61.27
224.849	81.75
225.067	79.7
225.285	38.74
225.503	-4.27
225.721	-59.56
225.939	20.31
226.157	73.56
226.375	67.41
226.592	-2.22
226.81	26.45
227.028	32.6
227.246	96.08
227.464	-24.75
227.682	34.64
227.9	46.93
228.117	75.6
228.335	48.98
228.553	55.12
228.771	161.62
228.989	108.37
229.206	87.89
229.424	14.17
229.642	-8.36
229.86	65.36
230.077	108.37
230.295	14.17
230.513	102.23
230.731	34.64
230.948	48.98
231.166	98.13
231.384	8.02
231.601	48.98
231.819	-26.79
232.037	89.94
232.254	14.17
232.472	26.45
232.689	-34.99
232.907	143.19
233.125	-10.41
233.342	55.12
233.56	53.08
233.777	-8.36
233.995	20.31
234.213	75.6
234.43	79.7
234.648	81.75
234.865	-34.99
235.083	51.03
235.3	126.8
235.518	30.55
235.735	98.13
235.953	135
236.17	-77.99
236.388	22.36
236.605	-30.89
236.822	79.7
237.04	28.5
237.257	63.32
237.475	-0.17
237.692	30.55
237.909	77.65
238.127	98.13
238.344	69.46
238.562	83.8
238.779	22.36
238.996	30.55
239.214	59.22
239.431	1.88
239.648	20.31
239.865	104.28
240.083	61.27
240.3	65.36
240.517	63.32
240.735	87.89
240.952	59.22
241.169	22.36
241.386	59.22
241.603	59.22
241.821	44.88
242.038	104.28
242.255	94.04
242.472	34.64
242.689	32.6
242.907	79.7
243.124	73.56
243.341	98.13
243.558	57.17
243.775	-0.17
243.992	-24.75
244.209	85.84
244.426	110.42
244.643	51.03
244.86	24.4
245.078	51.03
245.295	42.84
245.512	44.88
245.729	-8.36
245.946	116.56
246.163	75.6
246.38	10.07
246.597	18.26
246.814	73.56
247.031	10.07
247.248	69.46
247.464	46.93
247.681	79.7
247.898	53.08
248.115	18.26
248.332	46.93
248.549	91.99
248.766	108.37
248.983	53.08
249.2	5.97
249.417	67.41
249.633	36.69
249.85	46.93
250.067	20.31
250.284	71.51
250.501	81.75
250.717	69.46
250.934	26.45
251.151	-10.41
251.368	94.04
251.585	79.7
251.801	91.99
252.018	91.99
252.235	34.64
252.451	42.84
252.668	44.88
252.885	91.99
253.102	69.46
253.318	36.69
253.535	85.84
253.752	-92.33
253.968	38.74
254.185	42.84
254.401	16.21
254.618	59.22
254.835	-6.31
255.051	98.13
255.268	57.17
255.484	98.13
255.701	63.32
255.917	85.84
256.134	5.97
256.351	83.8
256.567	-2.22
256.784	75.6
257	1.88
257.217	40.79
257.433	126.8
257.65	-49.32
257.866	36.69
258.082	65.36
258.299	-37.03
258.515	73.56
258.732	-4.27
258.948	30.55
259.165	94.04
259.381	53.08
259.597	34.64
259.814	46.93
260.03	-2.22
260.246	59.22
260.463	36.69
260.679	91.99
260.895	91.99
261.112	81.75
261.328	94.04
261.544	67.41
261.761	79.7
261.977	-16.55
262.193	26.45
262.409	89.94
262.626	22.36
262.842	104.28
263.058	30.55
263.274	89.94
263.49	85.84
263.707	77.65
263.923	102.23
264.139	63.32
264.355	46.93
264.571	53.08
264.787	38.74
265.004	77.65
265.22	81.75
265.436	10.07
265.652	65.36
265.868	57.17
266.084	26.45
266.3	38.74
266.516	22.36
266.732	75.6
266.948	42.84
267.164	36.69
267.38	48.98
267.596	57.17
267.812	132.95
268.028	46.93
268.244	44.88
268.46	132.95
268.676	55.12
268.892	102.23
269.108	46.93
269.324	-41.13
269.54	10.07
269.756	106.32
269.972	67.41
270.188	26.45
270.403	-28.84
270.619	18.26
270.835	26.45
271.051	5.97
271.267	75.6
271.483	42.84
271.698	100.18
271.914	75.6
272.13	48.98
272.346	42.84
272.562	116.56
272.777	55.12
272.993	-12.46
273.209	73.56
273.425	32.6
273.64	-57.51
273.856	67.41
274.072	38.74
274.287	22.36
274.503	8.02
274.719	26.45
274.934	53.08
275.15	65.36
275.366	59.22
275.581	100.18
275.797	5.97
276.012	69.46
276.228	83.8
276.444	51.03
276.659	67.41
276.875	16.21
277.09	51.03
277.306	12.12
277.521	71.51
277.737	83.8
277.952	77.65
278.168	46.93
278.383	118.61
278.599	87.89
278.814	32.6
279.03	96.08
279.245	79.7
279.461	73.56
279.676	85.84
279.892	3.93
280.107	3.93
280.322	20.31
280.538	77.65
280.753	32.6
280.969	24.4
281.184	22.36
281.399	69.46
281.615	81.75
281.83	96.08
282.045	14.17
282.26	-20.65
282.476	61.27
282.691	128.85
282.906	67.41
283.122	20.31
283.337	3.93
283.552	126.8
283.767	-26.79
283.983	53.08
284.198	14.17
284.413	75.6
284.628	-43.18
284.843	57.17
285.058	65.36
285.274	-37.03
285.489	32.6
285.704	44.88
285.919	14.17
286.134	32.6
286.349	65.36
286.564	96.08
286.779	120.66
286.995	10.07
287.21	-32.94
287.425	48.98
287.64	42.84
287.855	81.75
288.07	10.07
288.285	132.95
288.5	32.6
288.715	40.79
288.93	18.26
289.145	38.74
289.36	71.51
289.575	79.7
289.79	1.88
290.004	77.65
290.219	122.71
290.434	42.84
290.649	22.36
290.864	67.41
291.079	20.31
291.294	63.32
291.509	42.84
291.724	53.08
291.938	48.98
292.153	69.46
292.368	30.55
292.583	167.76
292.798	1.88
293.012	51.03
293.227	96.08
293.442	51.03
293.657	20.31
293.871	128.85
294.086	61.27
294.301	120.66
294.516	30.55
294.73	83.8
294.945	28.5
295.16	57.17
295.374	67.41
295.589	71.51
295.804	55.12
296.018	79.7
296.233	108.37
296.447	91.99
296.662	63.32
296.877	87.89
297.091	61.27
297.306	116.56
297.52	77.65
297.735	59.22
297.949	30.55
298.164	3.93
298.378	55.12
298.593	3.93
298.807	73.56
299.022	30.55
299.236	51.03
299.451	89.94
299.665	87.89
299.88	75.6
300.094	100.18
300.309	75.6
300.523	-14.51
300.737	98.13
300.952	20.31
301.166	100.18
301.381	3.93
301.595	69.46
301.809	18.26
302.024	-24.75
302.238	114.52
302.452	112.47
302.667	63.32
302.881	-10.41
303.095	48.98
303.309	116.56
303.524	24.4
303.738	141.14
303.952	5.97
304.166	79.7
304.381	-57.51
304.595	55.12
304.809	-39.08
305.023	102.23
305.237	12.12
305.452	59.22
305.666	100.18
305.88	83.8
306.094	108.37
306.308	83.8
306.522	48.98
306.736	55.12
306.95	102.23
307.164	32.6
307.379	104.28
307.593	108.37
307.807	30.55
308.021	104.28
308.235	116.56
308.449	8.02
308.663	71.51
308.877	102.23
309.091	57.17
309.305	102.23
309.519	42.84
309.733	81.75
309.947	67.41
310.161	34.64
310.374	10.07
310.588	38.74
310.802	34.64
311.016	73.56
311.23	102.23
311.444	83.8
311.658	96.08
311.872	153.43
312.085	77.65
312.299	42.84
312.513	75.6
312.727	94.04
312.941	67.41
313.154	87.89
313.368	40.79
313.582	26.45
313.796	65.36
314.009	55.12
314.223	71.51
314.437	83.8
314.651	59.22
314.864	8.02
315.078	-4.27
315.292	77.65
315.505	59.22
315.719	77.65
315.933	83.8
316.146	79.7
316.36	-12.46
316.573	114.52
316.787	85.84
317.001	102.23
317.214	5.97
317.428	118.61
317.641	36.69
317.855	118.61
318.068	124.76
318.282	34.64
318.495	112.47
318.709	63.32
318.922	87.89
319.136	69.46
319.349	102.23
319.563	69.46
319.776	44.88
319.99	61.27
320.203	87.89
320.417	71.51
320.63	61.27
320.843	57.17
321.057	83.8
321.27	46.93
321.483	14.17
321.697	14.17
321.91	132.95
322.124	89.94
322.337	98.13
322.55	-8.36
322.763	44.88
322.977	26.45
323.19	63.32
323.403	59.22
323.617	61.27
323.83	118.61
324.043	71.51
324.256	22.36
324.469	46.93
324.683	30.55
324.896	67.41
325.109	116.56
325.322	53.08
325.535	102.23
325.748	112.47
325.962	-0.17
326.175	102.23
326.388	112.47
326.601	94.04
326.814	51.03
327.027	75.6
327.24	85.84
327.453	44.88
327.666	94.04
327.879	44.88
328.092	94.04
328.305	28.5
328.518	46.93
328.731	77.65
328.944	44.88
329.157	53.08
329.37	108.37
329.583	114.52
329.796	110.42
330.009	79.7
330.222	44.88
330.435	116.56
330.648	75.6
330.861	71.51
331.073	96.08
331.286	106.32
331.499	132.95
331.712	124.76
331.925	3.93
332.138	24.4
332.35	83.8
332.563	53.08
332.776	75.6
332.989	130.9
333.202	53.08
333.414	30.55
333.627	59.22
333.84	104.28
334.053	159.57
334.265	26.45
334.478	12.12
334.691	81.75
334.903	55.12
335.116	79.7
335.329	32.6
335.541	42.84
335.754	112.47
335.966	94.04
336.179	34.64
336.392	28.5
336.604	42.84
336.817	63.32
337.029	48.98
337.242	26.45
337.454	71.51
337.667	59.22
337.88	67.41
338.092	53.08
338.305	55.12
338.517	24.4
338.729	-8.36
338.942	114.52
339.154	44.88
339.367	55.12
339.579	102.23
339.792	18.26
340.004	128.85
340.217	-10.41
340.429	61.27
340.641	53.08
340.854	28.5
341.066	51.03
341.278	153.43
341.491	126.8
341.703	77.65
341.915	57.17
342.128	79.7
342.34	100.18
342.552	8.02
342.764	53.08
342.977	77.65
343.189	128.85
343.401	104.28
343.613	63.32
343.826	26.45
344.038	83.8
344.25	89.94
344.462	-34.99
344.674	44.88
344.886	44.88
345.099	87.89
345.311	75.6
345.523	77.65
345.735	5.97
345.947	65.36
346.159	83.8
346.371	14.17
346.583	110.42
346.795	128.85
347.007	85.84
347.219	110.42
347.431	100.18
347.643	75.6
347.855	38.74
348.067	112.47
348.279	42.84
348.491	94.04
348.703	65.36
348.915	-4.27
349.127	28.5
349.339	44.88
349.551	44.88
349.763	61.27
349.975	69.46
350.187	120.66
350.399	87.89
350.61	75.6
350.822	-6.31
351.034	26.45
351.246	42.84
351.458	67.41
351.669	102.23
351.881	108.37
352.093	130.9
352.305	108.37
352.517	22.36
352.728	71.51
352.94	40.79
353.152	71.51
353.363	137.04
353.575	63.32
353.787	135
353.999	104.28
354.21	30.55
354.422	30.55
354.633	53.08
354.845	114.52
355.057	63.32
355.268	118.61
355.48	110.42
355.692	3.93
355.903	75.6
356.115	85.84
356.326	28.5
356.538	126.8
356.749	28.5
356.961	71.51
357.172	91.99
357.384	91.99
357.595	98.13
357.807	83.8
358.018	71.51
358.23	26.45
358.441	128.85
358.653	124.76
358.864	34.64
359.075	124.76
359.287	51.03
359.498	61.27
359.709	10.07
359.921	30.55
360.132	40.79
360.344	75.6
360.555	67.41
360.766	36.69
360.977	44.88
361.189	145.24
361.4	51.03
361.611	71.51
361.823	112.47
362.034	98.13
362.245	44.88
362.456	171.86
362.667	85.84
362.879	32.6
363.09	83.8
363.301	145.24
363.512	112.47
363.723	91.99
363.935	22.36
364.146	96.08
364.357	16.21
364.568	57.17
364.779	24.4
364.99	167.76
365.201	-6.31
365.412	128.85
365.623	57.17
365.834	67.41
366.045	102.23
366.256	96.08
366.467	116.56
366.678	87.89
366.889	77.65
367.1	-8.36
367.311	89.94
367.522	91.99
367.733	130.9
367.944	34.64
368.155	108.37
368.366	71.51
368.577	75.6
368.788	122.71
368.999	87.89
369.209	120.66
369.42	100.18
369.631	112.47
369.842	73.56
370.053	100.18
370.264	71.51
370.474	30.55
370.685	67.41
370.896	83.8
371.107	51.03
371.317	100.18
371.528	96.08
371.739	57.17
371.95	59.22
372.16	34.64
372.371	63.32
372.582	63.32
372.792	89.94
373.003	141.14
373.214	73.56
373.424	36.69
373.635	98.13
373.846	128.85
374.056	79.7
374.267	102.23
374.477	104.28
374.688	32.6
374.898	-67.75
375.109	94.04
375.319	48.98
375.53	149.33
375.74	94.04
375.951	24.4
376.161	-6.31
376.372	85.84
376.582	34.64
376.793	149.33
377.003	55.12
377.214	75.6
377.424	69.46
377.635	110.42
377.845	87.89
378.055	87.89
378.266	79.7
378.476	118.61
378.686	100.18
378.897	71.51
379.107	48.98
379.317	87.89
379.528	38.74
379.738	22.36
379.948	65.36
380.158	87.89
380.369	3.93
380.579	122.71
380.789	-39.08
380.999	22.36
381.21	83.8
381.42	65.36
381.63	89.94
381.84	112.47
382.05	73.56
382.261	141.14
382.471	218.96
382.681	96.08
382.891	98.13
383.101	81.75
383.311	67.41
383.521	8.02
383.731	81.75
383.941	153.43
384.151	83.8
384.361	85.84
384.571	100.18
384.781	55.12
384.991	120.66
385.201	135
385.411	151.38
385.621	120.66
385.831	96.08
386.041	77.65
386.251	83.8
386.461	108.37
386.671	44.88
386.881	137.04
387.091	91.99
387.301	81.75
387.511	169.81
387.72	102.23
387.93	128.85
388.14	53.08
388.35	106.32
388.56	120.66
388.769	69.46
388.979	51.03
389.189	128.85
389.399	71.51
389.609	167.76
389.818	102.23
390.028	71.51
390.238	151.38
390.447	77.65
390.657	69.46
390.867	96.08
391.076	69.46
391.286	83.8
391.496	112.47
391.705	132.95
391.915	104.28
392.125	89.94
392.334	112.47
392.544	120.66
392.753	116.56
392.963	135
393.172	206.67
393.382	112.47
393.591	184.15
393.801	141.14
394.01	216.91
394.22	143.19
394.429	114.52
394.639	8.02
394.848	153.43
395.058	135
395.267	139.09
395.477	87.89
395.686	124.76
395.895	184.15
396.105	124.76
396.314	124.76
396.524	104.28
396.733	89.94
396.942	135
397.152	171.86
397.361	135
397.57	91.99
397.78	165.71
397.989	145.24
398.198	163.67
398.407	71.51
398.617	89.94
398.826	161.62
399.035	98.13
399.244	141.14
399.453	159.57
399.663	143.19
399.872	161.62
400.081	63.32
400.29	161.62
400.499	165.71
400.708	159.57
400.917	135
401.127	227.15
401.336	198.48
401.545	216.91
401.754	249.68
401.963	175.95
402.172	192.34
402.381	167.76
402.59	147.28
402.799	167.76
403.008	208.72
403.217	83.8
403.426	94.04
403.635	137.04
403.844	214.87
404.053	139.09
404.262	120.66
404.471	186.19
404.68	175.95
404.888	178
405.097	180.05
405.306	167.76
405.515	212.82
405.724	114.52
405.933	208.72
406.142	290.64
406.35	282.45
406.559	214.87
406.768	290.64
406.977	243.54
407.185	255.83
407.394	403.28
407.603	296.78
407.812	257.87
408.02	319.31
408.229	307.02
408.438	317.26
408.646	247.63
408.855	317.26
409.064	276.31
409.272	345.94
409.481	366.42
409.69	333.65
409.898	341.84
410.107	329.55
410.315	386.9
410.524	421.71
410.733	448.33
410.941	345.94
411.15	489.29
411.358	438.09
411.567	546.64
411.775	542.54
411.984	497.49
412.192	540.49
412.401	614.22
412.609	550.73
412.818	597.84
413.026	689.99
413.234	700.23
413.443	585.55
413.651	661.32
413.86	730.95
414.068	823.11
414.276	843.59
414.485	776.01
414.693	757.58
414.901	814.92
415.11	841.54
415.318	796.49
415.526	915.27
415.734	982.85
415.943	888.65
416.151	935.75
416.359	1013.57
416.567	1062.73
416.776	1072.96
416.984	1107.78
417.192	1212.23
417.4	1148.74
417.608	1204.03
417.817	1300.29
418.025	1335.1
418.233	1490.75
418.441	1396.54
418.649	1441.6
418.857	1587.01
419.065	1494.85
419.273	1503.04
419.481	1603.39
419.689	1756.99
419.897	1851.19
420.105	1840.95
420.313	1935.16
420.521	1935.16
420.729	1945.4
420.937	2043.7
421.145	2156.34
421.353	2162.48
421.561	2246.45
421.769	2344.75
421.977	2342.71
422.185	2469.68
422.393	2729.77
422.601	2785.07
422.809	2694.96
423.017	2758.44
423.224	2840.36
423.432	2971.43
423.64	3073.83
423.848	3385.12
424.056	3182.37
424.263	3497.76
424.471	3444.51
424.679	3497.76
424.887	3673.89
425.094	3913.5
425.302	3866.39
425.51	4077.34
425.718	3997.46
425.925	4157.21
426.133	4329.24
426.341	4618
426.548	4628.24
426.756	4718.35
426.964	4787.98
427.171	5125.9
427.379	5283.59
427.586	5371.65
427.794	5488.39
428.001	5861.12
428.209	5779.2
428.417	6047.48
428.624	6330.1
428.832	6397.68
429.039	6274.81
429.247	6485.75
429.454	6928.11
429.662	7411.43
429.869	6774.51
430.076	7245.54
430.284	7079.66
430.491	7483.11
430.699	7882.46
430.906	7872.22
431.114	7948
431.321	8398.55
431.528	8464.08
431.736	8908.49
431.943	9440.97
432.15	9293.51
432.358	9328.33
432.565	9842.37
432.772	9852.61
432.979	10116.79
433.187	10303.16
433.394	10452.66
433.601	11069.1
433.808	11220.65
434.016	11148.97
434.223	11681.44
434.43	12431
434.637	12066.46
434.844	12803.73
435.052	13061.77
435.259	13094.54
435.466	12965.52
435.673	12961.42
435.88	13913.73
436.087	14411.39
436.294	14581.37
436.501	14073.47
436.708	14517.88
436.915	15109.74
437.122	15926.88
437.329	15642.21
437.537	16135.78
437.743	16457.31
437.95	16430.68
438.157	17126.99
438.364	17733.19
438.571	17665.61
438.778	17710.66
438.985	19564.07
439.192	18738.74
439.399	19430.96
439.606	18884.15
439.813	19973.67
440.02	21190.16
440.227	21052.95
440.433	20551.2
440.64	21372.43
440.847	21048.85
441.054	21704.2
441.261	23068.15
441.467	22887.93
441.674	23246.32
441.881	24075.75
442.088	24012.26
442.294	23780.84
442.501	24737.24
442.708	25056.73
442.914	26217.93
443.121	27061.69
443.328	26676.67
443.534	28204.45
443.741	27745.71
443.948	27172.28
444.154	29347.22
444.361	29156.76
444.568	29324.69
444.774	29058.46
444.981	29418.9
445.187	30246.28
445.394	31745.39
445.6	31325.56
445.807	34211.15
446.013	32632.16
446.22	33699.16
446.426	34819.39
446.633	34751.81
446.839	36060.46
447.046	34368.84
447.252	36150.57
447.459	36644.13
447.665	36179.25
447.871	37625.11
448.078	39099.65
448.284	37707.03
448.491	38501.64
448.697	40342.77
448.903	40328.43
449.11	40611.05
449.316	39785.72
449.522	41020.64
449.728	42034.39
449.935	42081.49
450.141	41788.63
450.347	43152.58
450.553	41444.57
450.76	42278.1
450.966	43300.03
451.172	42988.74
451.378	43644.09
451.584	42892.49
451.791	43723.96
451.997	43764.92
452.203	44606.64
452.409	43928.76
452.615	44047.54
452.821	42218.71
453.027	42005.72
453.233	44287.15
453.44	42212.56
453.646	42992.84
453.852	43052.23
454.058	43486.4
454.264	41966.8
454.47	42829
454.676	41897.17
454.882	43162.82
455.088	39595.26
455.294	40295.66
455.5	40484.08
455.705	40981.73
455.911	39271.68
456.117	38731.01
456.323	38173.97
456.529	35812.66
456.735	37242.14
456.941	36396.33
457.147	35695.92
457.352	34760
457.558	34596.17
457.764	34596.17
457.97	33688.92
458.176	33422.68
458.381	32779.62
458.587	31063.42
458.793	31280.5
458.999	29486.48
459.204	31923.57
459.41	30950.78
459.616	28884.38
459.821	28945.82
460.027	28937.63
460.233	28214.69
460.438	26717.63
460.644	27096.5
460.85	25542.1
461.055	25335.25
461.261	25494.99
461.466	23461.36
461.672	22674.94
461.878	24239.59
462.083	22676.99
462.289	22230.53
462.494	21949.96
462.7	20960.79
462.905	20571.68
463.111	21257.74
463.316	21327.38
463.522	20751.9
463.727	21063.19
463.932	20950.55
464.138	20557.34
464.343	20708.89
464.549	20098.59
464.754	21147.15
464.959	20950.55
465.165	20506.14
465.37	19678.76
465.575	19297.84
465.781	20272.67
465.986	20217.38
466.191	19559.98
466.397	19119.67
466.602	18052.67
466.807	18751.03
467.012	19007.03
467.218	18898.48
467.423	18294.33
467.628	18626.11
467.833	19217.97
468.038	18490.94
468.244	18196.03
468.449	18710.07
468.654	18406.97
468.859	17948.23
469.064	17909.32
469.269	17223.25
469.474	17204.81
469.679	17722.95
469.885	17223.25
470.09	17364.56
470.295	17538.63
470.5	16680.53
470.705	16789.08
470.91	16637.53
471.115	16580.18
471.32	16606.81
471.525	16426.59
471.73	16148.06
471.935	16139.87
472.139	15763.04
472.344	15814.24
472.549	15623.78
472.754	15564.39
472.959	15191.66
473.164	14661.24
473.369	14624.37
473.574	15203.95
473.778	15113.84
473.983	14694.01
474.188	14796.4
474.393	14249.6
474.598	14319.23
474.802	13952.64
475.007	13911.68
475.212	13942.4
475.417	13233.8
475.621	13411.98
475.826	13438.6
476.031	13248.14
476.235	13078.16
476.44	13203.08
476.645	12885.65
476.849	12707.48
477.054	12748.43
477.259	12496.53
477.463	12471.96
477.668	12191.39
477.872	12371.61
478.077	11962.01
478.282	11843.23
478.486	11876
478.691	11794.08
478.895	11787.94
479.1	11691.68
479.304	11714.21
479.509	11499.17
479.713	11685.54
479.918	11318.95
480.122	11146.92
480.326	11341.48
480.531	11169.45
480.735	11245.23
480.94	11024.05
481.144	11345.58
481.348	10929.84
481.553	10921.65
481.757	10792.62
481.961	11161.26
482.166	11022
482.37	10925.74
482.574	10770.1
482.778	10948.27
482.983	10770.1
483.187	10950.32
483.391	11038.38
483.595	10946.22
483.8	10737.33
484.004	10958.51
484.208	11202.22
484.412	10942.13
484.616	10995.37
484.821	10778.29
485.025	10692.27
485.229	10935.98
485.433	10852.02
485.637	10950.32
485.841	10864.3
486.045	10540.72
486.249	10815.15
486.453	10837.68
486.657	10714.8
486.861	10860.21
487.065	10387.13
487.269	10849.97
487.473	10675.89
487.677	10743.47
487.881	11065
488.085	10821.3
488.289	11036.33
488.493	10725.04
488.697	10921.65
488.901	10907.31
489.105	11026.09
489.309	10933.93
489.512	10884.78
489.716	10884.78
489.92	10929.84
490.124	11167.4
490.328	11146.92
490.531	10962.61
490.735	11286.19
490.939	11243.18
491.143	11036.33
491.346	11234.99
491.55	11306.66
491.754	11138.73
491.958	11234.99
492.161	11536.04
492.365	11490.98
492.569	11400.87
492.772	11482.79
492.976	11542.18
493.18	11914.91
493.383	11792.03
493.587	11925.15
493.79	11968.16
493.994	11882.14
494.197	11929.25
494.401	12080.8
494.605	12254.87
494.808	12410.52
495.012	12390.04
495.215	12496.53
495.419	12326.55
495.622	12254.87
495.825	12766.87
496.029	12433.05
496.232	12928.66
496.436	13000.33
496.639	13319.82
496.843	13055.63
497.046	13387.4
497.249	13528.71
497.453	13586.05
497.656	13792.9
497.859	13649.54
498.063	14032.51
498.266	14284.41
498.469	14376.57
498.673	14345.85
498.876	14745.2
499.079	14476.92
499.282	14743.16
499.485	15197.81
499.689	15179.37
499.892	15490.66
500.095	15566.44
500.298	15914.59
500.501	15765.09
500.705	16324.19
500.908	16369.24
501.111	16574.04
501.314	16471.64
501.517	16959.06
501.72	17120.85
501.923	16784.98
502.126	17485.39
502.329	17602.12
502.532	17663.56
502.735	17831.49
502.938	18077.25
503.141	18492.99
503.344	18583.1
503.547	18648.63
503.75	18740.79
503.953	19082.8
504.156	19338.8
504.359	19617.32
504.562	19551.79
504.765	19971.62
504.968	19965.48
505.17	20467.23
505.373	20434.46
505.576	20780.57
505.779	21065.24
505.982	21145.11
506.185	21374.48
506.387	21661.19
506.59	21845.51
506.793	22281.73
506.996	22189.57
507.198	22861.3
507.401	22681.08
507.604	23172.6
507.807	23313.91
508.009	23664.11
508.212	23797.23
508.415	23967.21
508.617	24038.89
508.82	24473.06
509.022	24616.41
509.225	25345.49
509.428	25517.52
509.63	25554.38
509.833	25533.9
510.035	26406.34
510.238	26240.45
510.44	26129.86
510.643	26744.25
510.845	27166.13
511.048	27020.73
511.25	27526.58
511.453	27735.47
511.655	28722.59
511.858	28202.41
512.06	28401.06
512.262	28908.96
512.465	28845.47
512.667	29539.73
512.87	29795.73
513.072	29687.18
513.274	30444.93
513.477	30631.3
513.679	31225.21
513.881	31106.43
514.084	31321.46
514.286	31436.15
514.488	31638.9
514.69	32730.47
514.893	32527.72
515.095	32925.02
515.297	32896.35
515.499	33451.35
515.701	33520.98
515.904	34282.83
516.106	34108.75
516.308	34538.82
516.51	35224.89
516.712	35364.15
516.914	35460.41
517.116	35992.88
517.318	36236.59
517.52	36279.6
517.722	36736.29
517.925	36830.5
518.127	37403.93
518.329	37649.69
518.531	37491.99
518.733	38550.79
518.935	38661.38
519.136	39124.22
519.338	39505.15
519.54	39974.13
519.742	40004.85
519.944	39869.68
520.146	40764.65
520.348	40926.44
520.55	40895.72
520.752	41575.64
520.954	42175.7
521.155	41645.27
521.357	42618.06
521.559	42886.34
521.761	43199.68
521.963	43398.34
522.164	43498.69
522.366	43908.28
522.568	43756.73
522.77	44389.55
522.971	44975.27
523.173	44543.15
523.375	45204.64
523.576	45077.67
523.778	45380.77
523.98	46285.97
524.181	46384.27
524.383	46265.49
524.584	46955.66
524.786	46840.97
524.988	46546.06
525.189	47584.38
525.391	47686.78
525.592	47879.29
525.794	48166.01
525.995	48053.37
526.197	48422
526.398	48684.14
526.6	48843.88
526.801	49597.54
527.003	49247.33
527.204	49333.35
527.406	49650.78
527.607	49509.47
527.808	50377.81
528.01	49618.02
528.211	50248.79
528.412	50732.11
528.614	50619.47
528.815	51059.79
529.016	51383.37
529.218	50682.96
529.419	50807.89
529.62	51020.87
529.822	50945.1
530.023	51340.36
530.224	51211.34
530.425	51614.79
530.626	51129.42
530.828	51317.83
531.029	52698.16
531.23	51577.92
531.431	52153.4
531.632	52057.15
531.833	52124.73
532.035	51938.36
532.236	52673.59
532.437	52636.72
532.638	52003.9
532.839	52452.4
533.04	52833.33
533.241	52177.98
533.442	53378.09
533.643	53011.5
533.844	53027.88
534.045	52857.9
534.246	52175.93
534.447	53312.55
534.648	53036.08
534.849	53132.33
535.05	52851.76
535.251	52640.82
535.451	52952.11
535.652	53193.77
535.853	53107.75
536.054	53462.05
536.255	52845.61
536.456	53183.53
536.657	53701.67
536.857	52988.97
537.058	52935.73
537.259	53490.73
537.46	53140.52
537.66	53027.88
537.861	53484.58
538.062	53089.32
538.263	53287.98
538.463	53089.32
538.664	53111.85
538.865	53318.7
539.065	53228.59
539.266	53195.82
539.466	53845.02
539.667	52585.52
539.868	53943.33
540.068	53783.58
540.269	53316.65
540.469	53761.06
540.67	52874.29
540.87	53455.91
541.071	53113.9
541.271	53503.01
541.472	53410.85
541.672	53283.88
541.873	52993.07
542.073	52548.66
542.274	53650.47
542.474	53238.82
542.675	52802.61
542.875	53421.09
543.075	53208.11
543.276	52304.95
543.476	53701.67
543.676	52964.4
543.877	53247.02
544.077	53279.78
544.277	53083.18
544.478	53062.7
544.678	53240.87
544.878	53054.51
545.078	53140.52
545.279	52673.59
545.479	52687.92
545.679	53185.58
545.879	52948.01
546.079	52851.76
546.28	52900.91
546.48	52550.71
546.68	53003.31
546.88	53013.55
547.08	53193.77
547.28	52941.87
547.48	52526.13
547.68	52888.62
547.88	52591.67
548.081	53281.83
548.281	53122.09
548.481	52833.33
548.681	53099.56
548.881	53091.37
549.081	53017.64
549.28	52206.65
549.48	52907.05
549.68	52968.49
549.88	53091.37
550.08	52423.73
550.28	52976.68
550.48	52911.15
550.68	53103.66
550.88	52579.38
551.08	52616.24
551.279	53079.08
551.479	52341.81
551.679	52540.47
551.879	52550.71
552.079	52882.48
552.278	52237.37
552.478	52370.49
552.678	52849.71
552.878	52685.87
553.077	52014.14
553.277	52110.39
553.477	52993.07
553.676	52466.74
553.876	52337.72
554.076	52206.65
554.275	52218.94
554.475	51592.26
554.674	52249.66
554.874	52567.09
555.074	51936.32
555.273	52298.81
555.473	52558.9
555.672	51516.48
555.872	51919.93
556.071	51821.63
556.271	51731.52
556.47	51649.6
556.67	51336.26
556.869	51584.07
557.068	51854.4
557.268	51129.42
557.467	51784.77
557.667	51803.2
557.866	51401.8
558.065	50936.91
558.265	50936.91
558.464	50904.14
558.663	51262.54
558.863	50555.99
559.062	51385.41
559.261	50760.78
559.461	51145.8
559.66	50226.26
559.859	50596.95
560.058	50373.72
560.258	50742.35
560.457	50072.67
560.656	50799.69
560.855	50099.29
561.054	50633.81
561.253	49970.27
561.453	50181.21
561.652	49919.07
561.851	50144.34
562.05	50117.72
562.249	49802.33
562.448	49874.01
562.647	49583.2
562.846	49818.72
563.045	49663.07
563.244	48940.14
563.443	49552.48
563.642	48651.37
563.841	49159.27
564.04	49011.82
564.239	49310.82
564.438	48729.2
564.637	48987.24
564.836	48893.04
565.035	48622.7
565.234	48604.27
565.432	48264.31
565.631	47873.15
565.83	48393.33
566.029	48123
566.228	48114.81
566.427	48051.32
566.625	47666.3
566.824	46955.66
567.023	48102.52
567.222	46926.99
567.42	47479.94
567.619	47316.1
567.818	47039.62
568.016	46824.59
568.215	47758.46
568.414	46849.16
568.612	46980.23
568.811	46261.4
569.01	46857.35
569.208	46365.84
569.407	46546.06
569.605	46169.24
569.804	45980.82
570.002	45208.74
570.201	46001.3
570.4	45773.98
570.598	45300.9
570.797	45436.06
570.995	45567.13
571.193	45075.62
571.392	45620.38
571.59	44711.08
571.789	45137.06
571.987	44852.39
572.186	44981.41
572.384	44745.9
572.582	44858.54
572.781	44549.29
572.979	43769.02
573.177	44074.16
573.376	44262.58
573.574	43908.28
573.772	44211.38
573.971	43406.53
574.169	43424.96
574.367	43201.73
574.565	43287.74
574.763	42869.96
574.962	43052.23
575.16	43076.8
575.358	43236.55
575.556	42527.95
575.754	43142.34
575.952	42243.28
576.151	42876.1
576.349	42050.77
576.547	42427.6
576.745	42433.74
576.943	42310.86
577.141	42132.69
577.339	42132.69
577.537	41667.8
577.735	41792.73
577.933	41276.64
578.131	41583.83
578.329	41393.37
578.527	40969.44
578.725	41004.26
578.923	41360.61
579.121	40692.97
579.319	40951.01
579.516	40539.37
579.714	40705.26
579.912	40617.19
580.11	40262.89
580.308	40500.46
580.506	39967.99
580.704	40092.91
580.901	39732.47
581.099	39988.47
581.297	39681.27
581.495	39390.46
581.692	39615.74
581.89	38929.67
582.088	39580.92
582.285	38939.91
582.483	39273.73
582.681	39408.89
582.878	39329.02
583.076	38737.16
583.274	38948.1
583.471	38464.78
583.669	38857.99
583.866	38063.38
584.064	38421.77
584.262	37659.93
584.459	38225.17
584.657	37999.89
584.854	38288.65
585.052	37156.13
585.249	37485.85
585.447	37901.59
585.644	37322.01
585.841	37121.31
586.039	37489.95
586.236	36926.75
586.434	36838.69
586.631	36773.16
586.828	36834.6
587.026	36977.95
587.223	36592.93
587.42	36494.63
587.618	36554.02
587.815	36392.23
588.012	35990.83
588.21	36240.68
588.407	36285.74
588.604	35781.94
588.801	35534.14
588.999	35638.58
589.196	35624.25
589.393	35466.55
589.59	35542.33
589.787	35210.56
589.984	35001.66
590.182	34700.61
590.379	35056.96
590.576	34917.7
590.773	34878.79
590.97	34563.4
591.167	34420.04
591.364	34248.01
591.561	34317.64
591.758	34071.89
591.955	33930.58
592.152	34182.48
592.349	33885.52
592.546	33850.7
592.743	34012.49
592.94	33209.69
593.137	33533.27
593.334	33832.27
593.531	33068.38
593.727	33650
593.924	33355.1
594.121	32714.08
594.318	33062.24
594.515	32564.58
594.712	33082.72
594.908	32435.56
595.105	32875.87
595.302	32339.3
595.499	32540
595.696	32380.26
595.892	32163.18
596.089	32400.74
596.286	32550.24
596.482	31898.99
596.679	32009.58
596.876	31485.3
597.072	31542.64
597.269	31350.13
597.466	31483.25
597.662	31219.06
597.859	31387
598.055	31206.78
598.252	30680.45
598.448	31112.57
598.645	30903.68
598.841	30524.8
599.038	30967.16
599.234	30795.14
599.431	30270.86
599.627	30573.95
599.824	30508.42
600.02	30236.04
600.217	30205.32
600.413	29975.95
600.609	29812.11
600.806	29822.35
601.002	30242.18
601.198	29928.84
601.395	29373.85
601.591	29355.41
601.787	29470.1
601.984	29326.74
602.18	29590.93
602.376	28951.96
602.572	28994.97
602.769	28900.76
602.965	28929.44
603.161	28689.82
603.357	28685.73
603.553	28433.83
603.75	28812.7
603.946	28464.55
604.142	28663.2
604.338	28235.17
604.534	28419.49
604.73	27876.78
604.926	27712.94
605.122	27696.56
605.318	27538.87
605.514	27639.22
605.71	27579.82
605.906	27647.41
606.102	27602.35
606.298	27278.77
606.494	27159.99
606.69	27108.79
606.886	27663.79
607.082	27377.08
607.278	27438.51
607.474	26703.29
607.67	27225.53
607.866	26903.99
608.062	27106.74
608.257	26762.68
608.453	26850.75
608.649	26822.08
608.845	26740.16
609.041	26435.01
609.236	26662.33
609.432	26224.07
609.628	26611.14
609.824	26443.2
610.019	26353.09
610.215	25900.49
610.411	26093
610.606	25986.5
610.802	26232.26
610.998	26273.22
611.193	25931.21
611.389	25703.89
611.584	25798.09
611.78	25339.35
611.976	25806.28
612.171	25585.1
612.367	25480.66
612.562	25632.21
612.758	25474.51
612.953	24794.59
613.149	25664.97
613.344	25040.34
613.539	25439.7
613.735	25179.61
613.93	25001.43
614.126	25181.65
614.321	24989.14
614.517	25034.2
614.712	24983
614.907	24681.95
615.103	25138.65
615.298	25124.31
615.493	24983
615.688	24958.42
615.884	25052.63
616.079	24358.37
616.274	24870.36
616.47	24538.59
616.665	24376.8
616.86	24038.89
617.055	24354.27
617.25	24387.04
617.445	24452.58
617.641	23868.91
617.836	24518.11
618.031	23954.92
618.226	24159.72
618.421	23770.6
618.616	23965.16
618.811	23565.81
619.006	23952.87
619.201	23629.29
619.396	23621.1
619.591	23080.44
619.786	23471.6
619.981	23238.13
620.176	23363.06
620.371	22904.31
620.566	22849.02
620.761	22803.96
620.956	22894.07
621.151	22791.67
621.346	22998.52
621.541	22054.4
621.735	22664.7
621.93	21833.22
622.125	22134.28
622.32	22078.98
622.515	22255.11
622.709	21970.44
622.904	21962.25
623.099	21693.96
623.294	21532.17
623.488	21329.42
623.683	21198.35
623.878	21036.56
624.072	21241.36
624.267	21067.28
624.462	21093.91
624.656	20903.45
624.851	20842.01
625.046	20555.29
625.24	20397.6
625.435	20317.73
625.629	20553.24
625.824	20061.73
626.018	20182.56
626.213	19936.81
626.407	19897.89
626.602	19557.93
626.796	19856.93
626.991	19750.44
627.185	19461.68
627.38	19193.39
627.574	19334.7
627.768	18980.4
627.963	19240.5
628.157	18765.37
628.352	18722.36
628.546	18429.5
628.74	18687.54
628.935	18538.04
629.129	18400.83
629.323	18150.98
629.517	18318.91
629.712	18179.65
629.906	18003.52
630.1	17684.04
630.294	18073.15
630.489	17651.27
630.683	17995.33
630.877	17552.97
631.071	17479.24
631.265	17464.91
631.459	17213.01
631.653	16948.82
631.848	17149.52
632.042	17167.95
632.236	17346.12
632.43	16834.13
632.624	16561.75
632.818	16707.16
633.012	16576.09
633.206	16735.83
633.4	16737.88
633.594	16385.63
633.788	16135.78
633.982	16377.44
634.176	16131.68
634.369	15967.84
634.563	15873.64
634.757	15885.92
634.951	15898.21
635.145	16039.52
635.339	15482.47
635.533	15269.48
635.726	15298.16
635.92	15253.1
636.114	15335.02
636.308	15224.43
636.501	15175.28
636.695	15085.17
636.889	15011.44
637.083	14751.35
637.276	14945.91
637.47	14657.14
637.664	14751.35
637.857	14517.88
638.051	14501.5
638.244	14476.92
638.438	14169.73
638.632	14276.22
638.825	13979.26
639.019	14145.15
639.212	14186.11
639.406	14030.46
639.599	13997.7
639.793	14063.23
639.986	13616.77
640.18	13719.17
640.373	13706.88
640.567	13577.86
640.76	13448.84
640.954	13469.32
641.147	13285
641.34	13209.23
641.534	13315.72
641.727	13174.41
641.92	13090.45
642.114	12965.52
642.307	12889.74
642.5	12922.51
642.694	12525.21
642.887	12697.24
643.08	12746.39
643.273	12672.66
643.467	12406.42
643.66	12258.97
643.853	12306.07
644.046	12261.02
644.239	12201.63
644.432	12152.48
644.626	12037.79
644.819	11839.14
645.012	11941.54
645.205	12088.99
645.398	12062.37
645.591	11763.36
645.784	11679.4
645.977	11581.09
646.17	11671.2
646.363	11460.26
646.556	11454.12
646.749	11357.86
646.942	11550.37
647.135	11310.76
647.328	11361.96
647.521	11286.19
647.714	10999.47
647.907	11339.43
648.099	11220.65
648.292	10911.41
648.485	10903.21
648.678	10892.98
648.871	10860.21
649.064	10792.62
649.256	10741.43
649.449	10794.67
649.642	10620.6
649.835	10389.17
650.027	10503.86
650.22	10307.26
650.413	10286.78
650.605	10323.64
650.798	10184.38
650.991	10274.49
651.183	10315.45
651.376	9916.09
651.568	10112.7
651.761	10012.35
651.954	10051.26
652.146	9887.42
652.339	9768.64
652.531	9692.87
652.724	9725.63
652.916	9782.98
653.109	9694.91
653.301	9617.09
653.494	9682.63
653.686	9303.75
653.879	9629.38
654.071	9211.59
654.263	9330.37
654.456	9354.95
654.648	9426.63
654.84	9115.34
655.033	9330.37
655.225	9037.52
655.417	9051.85
655.61	8922.83
655.802	9031.37
655.994	8834.77
656.186	8924.88
656.379	8724.18
656.571	8701.65
656.763	8898.25
656.955	8632.02
657.148	8820.43
657.34	8648.4
657.532	8580.82
657.724	8546
657.916	8609.49
658.108	8443.6
658.3	8429.27
658.492	8388.31
658.684	8382.17
658.876	8453.84
659.068	8226.52
659.26	8253.14
659.452	8160.98
659.644	8036.06
659.836	8138.46
660.028	8165.08
660.22	8081.11
660.412	8021.72
660.604	7970.52
660.796	7909.08
660.988	7792.35
661.18	8023.77
661.372	7646.94
661.563	7808.73
661.755	7696.1
661.947	7778.01
662.139	7589.6
662.331	7622.37
662.522	7640.8
662.714	7454.44
662.906	7298.79
663.097	7427.81
663.289	7374.56
663.481	7202.54
663.673	7536.35
663.864	7347.94
664.056	7081.71
664.247	7300.84
664.439	7124.71
664.631	7180.01
664.822	7298.79
665.014	7093.99
665.205	7132.9
665.397	7169.77
665.588	7059.18
665.78	6905.58
665.971	6985.45
666.163	7098.09
666.354	6967.02
666.546	6747.89
666.737	6823.66
666.929	6870.76
667.12	6739.69
667.311	6819.57
667.503	6571.76
667.694	6835.95
667.885	6559.47
668.077	6733.55
668.268	6582
668.459	6536.95
668.651	6631.15
668.842	6573.81
669.033	6473.46
669.224	6416.12
669.416	6432.5
669.607	6442.74
669.798	6424.31
669.989	6471.41
670.18	6391.54
670.371	6362.87
670.563	6266.61
670.754	6299.38
670.945	6121.21
671.136	6323.96
671.327	6176.5
671.518	6184.69
671.709	6213.37
671.9	6059.77
672.091	6129.4
672.282	6254.33
672.473	5920.51
672.664	6252.28
672.855	6088.44
673.046	6184.69
673.237	6043.39
673.428	5945.08
673.619	6039.29
673.809	5758.72
674	6024.95
674.191	5832.44
674.382	5797.63
674.573	5924.6
674.764	5799.68
674.954	5838.59
675.145	5721.85
675.336	5707.52
675.527	5865.21
675.717	5947.13
675.908	5748.48
676.099	5766.91
676.289	5834.49
676.48	5754.62
676.671	5678.85
676.861	5746.43
677.052	5662.46
677.243	5639.94
677.433	5506.82
677.624	5609.22
677.814	5650.18
678.005	5560.06
678.195	5519.11
678.386	5684.99
678.576	5535.49
678.767	5527.3
678.957	5551.87
679.148	5510.91
679.338	5592.83
679.529	5443.33
679.719	5385.99
679.909	5697.28
680.1	5490.43
680.29	5529.34
680.481	5385.99
680.671	5504.77
680.861	5416.71
681.052	5457.67
681.242	5310.21
681.432	5336.84
681.622	5394.18
681.813	5379.84
682.003	5383.94
682.193	5379.84
682.383	5357.32
682.573	5449.47
682.764	5385.99
682.954	5492.48
683.144	5359.36
683.334	5222.15
683.524	5404.42
683.714	5304.07
683.904	5230.34
684.094	5232.39
684.284	5248.77
684.474	5195.53
684.664	5304.07
684.854	5246.73
685.044	5320.45
685.234	5179.14
685.424	5222.15
685.614	5187.33
685.804	5099.27
685.994	5181.19
686.184	5078.79
686.374	5144.33
686.564	5156.61
686.753	5211.91
686.943	5062.41
687.133	5039.88
687.323	4998.92
687.513	4988.68
687.702	5072.65
687.892	4726.54
688.082	4890.38
688.272	4896.52
688.461	4796.17
688.651	4814.6
688.841	4822.8
689.03	4818.7
689.22	4755.21
689.41	4845.32
689.599	4921.1
689.789	4822.8
689.979	4822.8
690.168	4611.85
690.358	4749.07
690.547	4597.52
690.737	4708.11
690.926	4564.75
691.116	4673.29
691.305	4685.58
691.495	4636.43
691.684	4468.5
691.874	4634.38
692.063	4566.8
692.252	4572.94
692.442	4415.25
692.631	4581.14
692.82	4321.04
693.01	4384.53
693.199	4388.63
693.388	4495.12
693.578	4443.92
693.767	4405.01
693.956	4335.38
694.146	4372.24
694.335	4378.39
694.524	4249.36
694.713	4355.86
694.902	4362
695.092	4435.73
695.281	4224.79
695.47	4235.03
695.659	4224.79
695.848	4200.21
696.037	4245.27
696.226	4261.65
696.415	4103.96
696.604	4300.56
696.793	4163.35
696.982	4167.45
697.171	4206.36
697.36	4214.55
697.549	4175.64
697.738	4282.13
697.927	4196.12
698.116	4226.84
698.305	4093.72
698.494	4171.54
698.683	4146.97
698.872	4183.83
699.061	4149.01
699.25	4067.1
699.438	4163.35
699.627	4136.73
699.816	4101.91
700.005	4019.99
700.193	4069.14
700.382	4167.45
700.571	4058.9
700.76	4044.57
700.948	4085.53
701.137	3981.08
701.326	4052.76
701.514	3979.03
701.703	4032.28
701.892	4069.14
702.08	4130.58
702.269	4114.2
702.457	3991.32
702.646	4071.19
702.834	4007.7
703.023	4028.18
703.212	4183.83
703.4	4067.1
703.589	4089.62
703.777	4009.75
703.965	3911.45
704.154	4056.86
704.342	4118.29
704.531	4065.05
704.719	4050.71
704.907	4130.58
705.096	3991.32
705.284	3993.37
705.472	4065.05
705.661	4046.62
705.849	4048.66
706.037	4024.09
706.226	4003.61
706.414	3927.83
706.602	4009.75
706.79	4116.25
706.979	4081.43
707.167	3942.17
707.355	4063
707.543	3979.03
707.731	4114.2
707.919	3958.55
708.107	3936.03
708.296	3919.64
708.484	3905.31
708.672	3923.74
708.86	3890.97
709.048	3948.31
709.236	3989.27
709.424	4040.47
709.612	4044.57
709.8	4075.29
709.988	3995.42
710.176	3948.31
710.364	4017.94
710.551	4030.23
710.739	3856.15
710.927	3948.31
711.115	4024.09
711.303	4099.86
711.491	3970.84
711.679	3942.17
711.866	3888.92
712.054	4032.28
712.242	3964.7
712.43	3995.42
712.617	4019.99
712.805	3952.41
712.993	3989.27
713.181	4036.38
713.368	3985.18
713.556	3870.49
713.744	3868.44
713.931	4159.25
714.119	4103.96
714.306	3970.84
714.494	4124.44
714.682	3995.42
714.869	3899.16
715.057	4017.94
715.244	3987.22
715.432	4163.35
715.619	4001.56
715.807	3946.27
715.994	3999.51
716.182	3940.12
716.369	4087.57
716.556	4019.99
716.744	3893.02
716.931	3944.22
717.119	4091.67
717.306	3852.06
717.493	4118.29
717.681	3981.08
717.868	4063
718.055	4046.62
718.242	4167.45
718.43	4042.52
718.617	3972.89
718.804	3858.2
718.991	4022.04
719.179	3981.08
719.366	4071.19
719.553	4085.53
719.74	4017.94
719.927	4011.8
720.114	4036.38
720.301	4011.8
720.488	3839.77
720.676	3884.83
720.863	3876.63
721.05	3970.84
721.237	3958.55
721.424	4007.7
721.611	4083.48
721.798	3940.12
721.985	3958.55
722.172	3864.35
722.358	3919.64
722.545	4042.52
722.732	3966.74
722.919	3929.88
723.106	3942.17
723.293	3999.51
723.48	3933.98
723.667	3966.74
723.853	3942.17
724.04	3927.83
724.227	3981.08
724.414	4044.57
724.6	3841.82
724.787	3903.26
724.974	4063
725.161	3876.63
725.347	3841.82
725.534	3819.29
725.72	4011.8
725.907	3987.22
726.094	4001.56
726.28	3882.78
726.467	3835.67
726.653	3899.16
726.84	4040.47
727.027	3985.18
727.213	3790.62
727.4	3829.53
727.586	3831.58
727.773	3862.3
727.959	3813.15
728.145	3878.68
728.332	3700.51
728.518	3850.01
728.705	3890.97
728.891	3907.35
729.077	3948.31
729.264	3895.07
729.45	3811.1
729.636	3933.98
729.823	3878.68
730.009	3884.83
730.195	3817.24
730.382	3938.07
730.568	3829.53
730.754	3985.18
730.94	3755.8
731.126	3852.06
731.313	3774.24
731.499	3917.59
731.685	3819.29
731.871	3774.24
732.057	3872.54
732.243	3802.91
732.429	3759.9
732.615	3835.67
732.801	3790.62
732.987	3749.66
733.173	3739.42
733.359	3843.87
733.545	3915.55
733.731	3725.08
733.917	3704.6
734.103	3757.85
734.289	3800.86
734.475	3770.14
734.661	3827.48
734.847	3684.13
735.033	3790.62
735.219	3647.26
735.404	3720.99
735.59	3772.19
735.776	3718.94
735.962	3690.27
736.148	3647.26
736.333	3637.02
736.519	3694.36
736.705	3647.26
736.89	3653.41
737.076	3600.16
737.262	3557.15
737.447	3694.36
737.633	3663.65
737.819	3643.17
738.004	3665.69
738.19	3639.07
738.375	3571.49
738.561	3596.06
738.747	3553.06
738.932	3440.42
739.118	3542.82
739.303	3512.1
739.489	3542.82
739.674	3456.8
739.859	3460.9
740.045	3395.36
740.23	3399.46
740.416	3430.18
740.601	3583.77
740.786	3448.61
740.972	3374.88
741.157	3378.98
741.342	3395.36
741.528	3309.35
741.713	3483.42
741.898	3460.9
742.084	3485.47
742.269	3381.03
742.454	3335.97
742.639	3266.34
742.824	3335.97
743.01	3311.39
743.195	3290.92
743.38	3286.82
743.565	3215.14
743.75	3233.57
743.935	3209
744.12	3127.08
744.305	3165.99
744.49	3241.76
744.675	3067.69
744.86	3143.46
745.045	3182.37
745.23	3217.19
745.415	3098.41
745.6	3067.69
745.785	3104.55
745.97	3051.3
746.155	3165.99
746.34	3047.21
746.525	2950.95
746.71	3000.1
746.895	2893.61
747.079	2946.86
747.264	2762.54
747.449	2918.18
747.634	2907.94
747.819	2815.79
748.003	2914.09
748.188	2778.92
748.373	2897.71
748.557	2783.02
748.742	2727.72
748.927	2856.75
749.111	2770.73
749.296	2799.4
749.481	2731.82
749.665	2760.49
749.85	2676.52
750.034	2727.72
750.219	2723.63
750.404	2565.93
750.588	2518.83
750.773	2613.04
750.957	2557.74
751.141	2496.3
751.326	2545.45
751.51	2572.08
751.695	2488.11
751.879	2498.35
752.064	2473.78
752.248	2445.1
752.432	2441.01
752.617	2522.93
752.801	2465.58
752.985	2311.99
753.17	2408.24
753.354	2365.23
753.538	2297.65
753.722	2344.75
753.907	2123.57
754.091	2156.34
754.275	2293.55
754.459	2340.66
754.643	2281.27
754.828	2195.25
755.012	2234.16
755.196	2195.25
755.38	2160.44
755.564	2199.35
755.748	2019.13
755.932	2207.54
756.116	2170.68
756.3	2062.13
756.484	2129.72
756.668	2043.7
756.852	2047.8
757.036	2053.94
757.22	2121.52
757.404	2027.32
757.588	2066.23
757.772	1947.45
757.956	1922.87
758.14	1965.88
758.323	1972.02
758.507	1980.22
758.691	1953.59
758.875	1926.97
759.059	1902.39
759.242	1906.49
759.426	1799.99
759.61	1818.43
759.794	1898.3
759.977	1900.34
760.161	1918.78
760.345	1795.9
760.528	1763.13
760.712	1791.8
760.895	1849.15
761.079	1853.24
761.263	1705.79
761.446	1799.99
761.63	1685.31
761.813	1752.89
761.997	1677.12
762.18	1752.89
762.364	1701.69
762.547	1582.91
762.731	1724.22
762.914	1730.36
763.098	1644.35
763.281	1644.35
763.464	1664.83
763.648	1675.07
763.831	1652.54
764.015	1568.57
764.198	1644.35
764.381	1578.81
764.564	1623.87
764.748	1500.99
764.931	1728.31
765.114	1556.29
765.297	1578.81
765.481	1533.76
765.664	1507.13
765.847	1494.85
766.03	1652.54
766.213	1500.99
766.397	1447.74
766.58	1503.04
766.763	1513.28
766.946	1498.94
767.129	1546.05
767.312	1511.23
767.495	1507.13
767.678	1441.6
767.861	1417.02
768.044	1472.32
768.227	1423.17
768.41	1429.31
768.593	1441.6
768.776	1384.26
768.959	1341.25
769.142	1478.46
769.324	1388.35
769.507	1285.95
769.69	1457.98
769.873	1328.96
770.056	1406.78
770.239	1271.62
770.421	1318.72
770.604	1374.02
770.787	1468.22
770.97	1316.67
771.152	1292.1
771.335	1339.2
771.518	1357.63
771.7	1310.53
771.883	1318.72
772.066	1257.28
772.248	1222.47
772.431	1283.91
772.613	1247.04
772.796	1206.08
772.978	1177.41
773.161	1394.5
773.343	1267.52
773.526	1142.6
773.708	1191.75
773.891	1226.56
774.073	1122.12
774.256	1232.71
774.438	1240.9
774.621	1187.65
774.803	1191.75
774.985	1077.06
775.168	1113.92
775.35	1085.25
775.532	1099.59
775.715	1034.05
775.897	1142.6
776.079	1142.6
776.261	1042.25
776.444	1036.1
776.626	1066.82
776.808	1044.29
776.99	1124.16
777.173	1046.34
777.355	993.09
777.537	1066.82
777.719	1036.1
777.901	1132.36
778.083	984.9
778.265	956.23
778.447	1064.77
778.629	937.8
778.811	1001.29
778.993	913.22
779.175	905.03
779.357	892.74
779.539	989
779.721	911.18
779.903	907.08
780.085	1009.48
780.267	888.65
780.449	786.25
780.631	970.57
780.812	921.42
780.994	851.78
781.176	890.7
781.358	788.3
781.54	905.03
781.721	884.55
781.903	888.65
782.085	847.69
782.267	784.2
782.448	794.44
782.63	804.68
782.812	804.68
782.993	716.62
783.175	771.91
783.357	745.29
783.538	782.15
783.72	747.34
783.901	821.06
784.083	788.3
784.264	718.67
784.446	720.71
784.627	730.95
784.809	700.23
784.99	630.6
785.172	714.57
785.353	694.09
785.535	710.47
785.716	689.99
785.897	714.57
786.079	698.19
786.26	780.11
786.441	712.52
786.623	612.17
786.804	714.57
786.985	687.95
787.167	667.47
787.348	708.43
787.529	620.36
787.71	640.84
787.891	632.65
788.073	565.07
788.254	669.52
788.435	616.27
788.616	589.64
788.797	511.82
788.978	620.36
789.159	673.61
789.34	651.08
789.522	579.4
789.703	655.18
789.884	577.36
790.065	669.52
790.246	640.84
790.427	540.49
790.607	667.47
790.788	587.6
790.969	626.51
791.15	536.4
791.331	524.11
791.512	573.26
791.693	542.54
791.874	489.29
792.054	640.84
792.235	522.06
792.416	513.87
792.597	460.62
792.778	538.45
792.958	493.39
793.139	528.21
793.32	517.97
793.5	507.73
793.681	550.73
793.862	468.81
794.042	530.25
794.223	436.05
794.404	421.71
794.584	462.67
794.765	505.68
794.945	544.59
795.126	464.72
795.306	526.16
795.487	413.52
795.667	436.05
795.848	421.71
796.028	479.05
796.209	456.53
796.389	493.39
796.57	421.71
796.75	425.81
796.93	429.9
797.111	440.14
797.291	386.9
797.471	477.01
797.652	384.85
797.832	397.14
798.012	477.01
798.192	429.9
798.373	366.42
798.553	333.65
798.733	421.71
798.913	362.32
799.093	446.29
799.274	403.28
799.454	411.47
799.634	401.23
799.814	395.09
799.994	421.71
800.174	429.9
800.354	429.9
800.534	368.46
800.714	434
800.894	335.7
801.074	347.98
801.254	358.22
801.434	337.74
801.614	427.85
801.794	345.94
801.974	870.22
802.154	370.51
802.334	362.32
802.514	325.46
802.693	388.94
802.873	374.61
803.053	460.62
803.233	280.4
803.413	384.85
803.592	341.84
803.772	333.65
803.952	333.65
804.131	278.35
804.311	356.18
804.491	337.74
804.67	294.74
804.85	325.46
805.03	309.07
805.209	405.33
805.389	364.37
805.568	323.41
805.748	388.94
805.928	266.07
806.107	335.7
806.287	251.73
806.466	341.84
806.646	329.55
806.825	278.35
807.004	325.46
807.184	374.61
807.363	327.5
807.543	319.31
807.722	259.92
807.901	282.45
808.081	278.35
808.26	223.06
808.439	272.21
808.619	276.31
808.798	288.59
808.977	337.74
809.156	343.89
809.336	315.22
809.515	372.56
809.694	243.54
809.873	272.21
810.052	302.93
810.231	272.21
810.411	321.36
810.59	264.02
810.769	278.35
810.948	282.45
811.127	239.44
811.306	292.69
811.485	261.97
811.664	317.26
811.843	178
812.022	214.87
812.201	302.93
812.38	276.31
812.559	157.52
812.737	358.22
812.916	259.92
813.095	192.34
813.274	304.98
813.453	214.87
813.632	239.44
813.811	288.59
813.989	173.91
814.168	352.08
814.347	182.1
814.526	286.54
814.704	243.54
814.883	307.02
815.062	192.34
815.24	241.49
815.419	245.59
815.598	249.68
815.776	216.91
815.955	204.63
816.133	200.53
816.312	233.3
816.49	249.68
816.669	264.02
816.847	196.43
817.026	241.49
817.204	270.16
817.383	239.44
817.561	319.31
817.74	218.96
817.918	233.3
818.097	159.57
818.275	239.44
818.453	188.24
818.632	200.53
818.81	202.58
818.988	143.19
819.167	233.3
819.345	266.07
819.523	186.19
819.701	186.19
819.879	266.07
820.058	169.81
820.236	204.63
820.414	190.29
820.592	194.39
820.77	196.43
820.948	130.9
821.127	241.49
821.305	225.11
821.483	184.15
821.661	159.57
821.839	251.73
822.017	135
822.195	194.39
822.373	169.81
822.551	128.85
822.729	231.25
822.907	239.44
823.085	182.1
823.262	245.59
823.44	155.47
823.618	182.1
823.796	218.96
823.974	173.91
824.152	206.67
824.329	153.43
824.507	130.9
824.685	175.95
824.863	159.57
825.04	143.19
825.218	165.71
825.396	157.52
825.574	155.47
825.751	178
825.929	153.43
826.107	132.95
826.284	159.57
826.462	135
826.639	153.43
826.817	186.19
826.994	173.91
827.172	184.15
827.349	167.76
827.527	128.85
827.704	204.63
827.882	104.28
828.059	171.86
828.237	180.05
828.414	210.77
828.591	71.51
828.769	157.52
828.946	173.91
829.124	198.48
829.301	118.61
829.478	137.04
829.655	77.65
829.833	184.15
830.01	91.99
830.187	122.71
830.364	120.66
830.542	94.04
830.719	243.54
830.896	155.47
831.073	188.24
831.25	175.95
831.427	173.91
831.604	96.08
831.782	122.71
831.959	165.71
832.136	167.76
832.313	143.19
832.49	135
832.667	120.66
832.844	153.43
833.021	180.05
833.198	106.32
833.374	40.79
833.551	171.86
833.728	161.62
833.905	151.38
834.082	104.28
834.259	159.57
834.436	157.52
834.612	128.85
834.789	124.76
834.966	167.76
835.143	87.89
835.319	46.93
835.496	102.23
835.673	112.47
835.85	182.1
836.026	128.85
836.203	102.23
836.38	137.04
836.556	112.47
836.733	22.36
836.909	190.29
837.086	114.52
837.262	143.19
837.439	75.6
837.616	163.67
837.792	46.93
837.968	163.67
838.145	104.28
838.321	94.04
838.498	169.81
838.674	120.66
838.851	116.56
839.027	128.85
839.203	108.37
839.38	161.62
839.556	77.65
839.732	135
839.909	51.03
840.085	112.47
840.261	63.32
840.437	120.66
840.614	128.85
840.79	59.22
840.966	94.04
841.142	89.94
841.318	143.19
841.494	188.24
841.671	120.66
841.847	67.41
842.023	122.71
842.199	194.39
842.375	94.04
842.551	65.36
842.727	124.76
842.903	149.33
843.079	135
843.255	145.24
843.431	75.6
843.607	108.37
843.783	-2.22
843.959	30.55
844.134	36.69
844.31	143.19
844.486	89.94
844.662	96.08
844.838	79.7
845.013	100.18
845.189	79.7
845.365	128.85
845.541	100.18
845.716	106.32
845.892	143.19
846.068	67.41
846.244	110.42
846.419	65.36
846.595	22.36
846.77	59.22
846.946	128.85
847.122	108.37
847.297	61.27
847.473	128.85
847.648	-28.84
847.824	118.61
847.999	55.12
848.175	98.13
848.35	98.13
848.526	128.85
848.701	112.47
848.876	126.8
849.052	71.51
849.227	36.69
849.403	91.99
849.578	104.28
849.753	63.32
849.929	63.32
850.104	12.12
850.279	96.08
850.454	106.32
850.63	-18.6
850.805	12.12
850.98	26.45
851.155	46.93
851.33	42.84
851.505	3.93
851.681	38.74
851.856	48.98
852.031	157.52
852.206	75.6
852.381	38.74
852.556	30.55
852.731	55.12
852.906	81.75
853.081	114.52
853.256	61.27
853.431	65.36
853.606	46.93
853.781	-2.22
853.956	40.79
854.131	67.41
854.305	18.26
854.48	77.65
854.655	67.41
854.83	71.51
855.005	116.56
855.18	126.8
855.354	44.88
855.529	26.45
855.704	10.07
855.879	18.26
856.053	-2.22
856.228	61.27
856.403	28.5
856.577	118.61
856.752	24.4
856.926	139.09
857.101	-26.79
857.276	59.22
857.45	22.36
857.625	28.5
857.799	100.18
857.974	40.79
858.148	-24.75
858.323	73.56
858.497	44.88
858.672	22.36
858.846	83.8
859.02	145.24
859.195	100.18
859.369	53.08
859.543	46.93
859.718	91.99
859.892	10.07
860.066	85.84
860.241	16.21
860.415	73.56
860.589	77.65
860.763	5.97
860.938	61.27
861.112	-30.89
861.286	30.55
861.46	38.74
861.634	77.65
861.808	44.88
861.982	28.5
862.157	-43.18
862.331	40.79
862.505	34.64
862.679	87.89
862.853	102.23
863.027	44.88
863.201	122.71
863.375	51.03
863.549	100.18
863.722	57.17
863.896	91.99
864.07	-4.27
864.244	55.12
864.418	20.31
864.592	67.41
864.766	87.89
864.939	22.36
865.113	53.08
865.287	81.75
865.461	55.12
865.634	42.84
865.808	14.17
865.982	83.8
866.156	55.12
866.329	89.94
866.503	40.79
866.676	59.22
866.85	67.41
867.024	48.98
867.197	91.99
867.371	124.76
867.544	42.84
867.718	-8.36
867.891	57.17
868.065	40.79
868.238	-0.17
868.412	122.71
868.585	-43.18
868.759	-12.46
868.932	-4.27
869.105	38.74
869.279	75.6
869.452	16.21
869.625	22.36
869.799	42.84
869.972	20.31
870.145	-2.22
870.319	44.88
870.492	24.4
870.665	5.97
870.838	10.07
871.011	-0.17
871.185	73.56
871.358	8.02
871.531	69.46
871.704	77.65
871.877	42.84
872.05	51.03
872.223	44.88
872.396	55.12
872.569	59.22
872.742	36.69
872.915	104.28
873.088	28.5
873.261	55.12
873.434	32.6
873.607	44.88
873.78	96.08
873.953	42.84
874.126	126.8
874.299	94.04
874.471	14.17
874.644	-18.6
874.817	48.98
874.99	87.89
875.163	30.55
875.335	63.32
875.508	59.22
875.681	14.17
875.853	22.36
876.026	42.84
876.199	65.36
876.371	53.08
876.544	8.02
876.717	36.69
876.889	28.5
877.062	89.94
877.234	32.6
877.407	5.97
877.579	61.27
877.752	46.93
877.924	94.04
878.097	46.93
878.269	110.42
878.442	28.5
878.614	100.18
878.786	63.32
878.959	53.08
879.131	-2.22
879.303	-24.75
879.476	30.55
879.648	63.32
879.82	34.64
879.993	30.55
880.165	-49.32
880.337	26.45
880.509	-30.89
880.681	67.41
880.854	61.27
881.026	30.55
881.198	81.75
881.37	22.36
881.542	-8.36
881.714	-0.17
881.886	71.51
882.058	38.74
882.23	20.31
882.402	42.84
882.574	28.5
882.746	102.23
882.918	34.64
883.09	24.4
883.262	63.32
883.434	10.07
883.606	-0.17
883.778	22.36
883.95	59.22
884.122	51.03
884.293	67.41
884.465	79.7
884.637	67.41
884.809	-28.84
884.98	24.4
885.152	32.6
885.324	51.03
885.496	5.97
885.667	53.08
885.839	26.45
886.011	63.32
886.182	24.4
886.354	22.36
886.525	67.41
886.697	38.74
886.869	-26.79
887.04	46.93
887.212	26.45
887.383	75.6
887.555	8.02
887.726	28.5
887.897	36.69
888.069	-10.41
888.24	77.65
888.412	16.21
888.583	51.03
888.754	-34.99
888.926	16.21
889.097	51.03
889.268	-32.94
889.44	14.17
889.611	24.4
889.782	-26.79
889.953	61.27
890.125	-4.27
890.296	-24.75
890.467	46.93
890.638	73.56
890.809	46.93
890.98	-0.17
891.151	22.36
891.323	63.32
891.494	-24.75
891.665	69.46
891.836	102.23
892.007	1.88
892.178	108.37
892.349	8.02
892.52	42.84
892.691	22.36
892.862	48.98
893.032	30.55
893.203	63.32
893.374	46.93
893.545	94.04
893.716	-22.7
893.887	36.69
894.057	20.31
894.228	46.93
894.399	20.31
894.57	42.84
894.74	-37.03
894.911	24.4
895.082	-2.22
895.253	63.32
895.423	59.22
895.594	67.41
895.764	59.22
895.935	-12.46
896.106	36.69
896.276	-67.75
896.447	71.51
896.617	28.5
896.788	-18.6
896.958	-12.46
897.129	-53.42
897.299	-37.03
897.47	51.03
897.64	61.27
897.81	-4.27
897.981	75.6
898.151	38.74
898.322	51.03
898.492	65.36
898.662	36.69
898.832	-2.22
899.003	8.02
899.173	59.22
899.343	48.98
899.513	-4.27
