Data from USB4F104151__225__10-30-13-531.txt Node

Date: Wed Mar 12 10:30:13 EDT 2025
User: louis
Spectrometer: USB4F10415
Trigger mode: 4
Integration Time (sec): 3.000000E-2
Scans to average: 1
Electric dark correction enabled: true
Nonlinearity correction enabled: false
Boxcar width: 0
XAxis mode: Wavelengths
Number of Pixels in Spectrum: 3648
>>>>>Begin Spectral Data<<<<<
178.204	-80.04
178.424	-80.04
178.644	-80.04
178.864	-129.19
179.084	-147.62
179.304	14.17
179.524	30.55
179.744	26.45
179.964	-43.18
180.184	-12.46
180.404	-10.41
180.624	-73.9
180.844	3.93
181.064	-49.32
181.283	34.64
181.503	32.6
181.723	46.93
181.943	-110.76
182.163	46.93
182.383	30.55
182.602	24.4
182.822	69.46
183.042	14.17
183.262	12.12
183.482	24.4
183.701	28.5
183.921	-14.51
184.141	-47.27
184.361	10.07
184.58	-61.61
184.8	46.93
185.02	-14.51
185.239	-14.51
185.459	-26.79
185.679	16.21
185.898	14.17
186.118	24.4
186.338	24.4
186.557	30.55
186.777	3.93
186.997	10.07
187.216	-32.94
187.436	135
187.655	55.12
187.875	5.97
188.095	-43.18
188.314	98.13
188.534	10.07
188.753	-10.41
188.973	42.84
189.192	22.36
189.412	63.32
189.631	24.4
189.851	40.79
190.07	24.4
190.29	-59.56
190.509	-57.51
190.729	-2.22
190.948	59.22
191.168	94.04
191.387	38.74
191.607	12.12
191.826	89.94
192.045	26.45
192.265	-61.61
192.484	-14.51
192.704	10.07
192.923	-16.55
193.142	16.21
193.362	1.88
193.581	24.4
193.8	44.88
194.02	34.64
194.239	22.36
194.458	24.4
194.678	-8.36
194.897	91.99
195.116	3.93
195.335	22.36
195.555	69.46
195.774	-43.18
195.993	18.26
196.212	30.55
196.432	5.97
196.651	63.32
196.87	18.26
197.089	83.8
197.308	67.41
197.528	77.65
197.747	28.5
197.966	24.4
198.185	75.6
198.404	-18.6
198.623	51.03
198.842	18.26
199.062	55.12
199.281	98.13
199.5	124.76
199.719	42.84
199.938	22.36
200.157	18.26
200.376	-0.17
200.595	-0.17
200.814	-22.7
201.033	85.84
201.252	110.42
201.471	53.08
201.69	30.55
201.909	-18.6
202.128	22.36
202.347	36.69
202.566	73.56
202.785	46.93
203.004	36.69
203.223	77.65
203.442	5.97
203.661	85.84
203.879	-24.75
204.098	10.07
204.317	-18.6
204.536	-82.09
204.755	53.08
204.974	10.07
205.193	42.84
205.411	51.03
205.63	30.55
205.849	69.46
206.068	71.51
206.287	-18.6
206.505	51.03
206.724	28.5
206.943	12.12
207.162	-12.46
207.381	-26.79
207.599	87.89
207.818	10.07
208.037	-4.27
208.255	-0.17
208.474	-14.51
208.693	18.26
208.911	8.02
209.13	-10.41
209.349	55.12
209.567	55.12
209.786	61.27
210.005	-2.22
210.223	36.69
210.442	104.28
210.661	32.6
210.879	16.21
211.098	22.36
211.316	61.27
211.535	71.51
211.753	-4.27
211.972	-6.31
212.191	46.93
212.409	-8.36
212.628	-4.27
212.846	-24.75
213.065	14.17
213.283	65.36
213.502	-45.23
213.72	40.79
213.938	22.36
214.157	38.74
214.375	91.99
214.594	8.02
214.812	30.55
215.031	18.26
215.249	3.93
215.467	128.85
215.686	-53.42
215.904	135
216.122	-59.56
216.341	14.17
216.559	-16.55
216.778	38.74
216.996	-2.22
217.214	26.45
217.432	-20.65
217.651	10.07
217.869	-2.22
218.087	55.12
218.306	42.84
218.524	59.22
218.742	-10.41
218.96	10.07
219.179	22.36
219.397	24.4
219.615	14.17
219.833	61.27
220.051	-104.62
220.27	42.84
220.488	34.64
220.706	38.74
220.924	10.07
221.142	22.36
221.36	12.12
221.578	-20.65
221.796	40.79
222.015	36.69
222.233	-6.31
222.451	26.45
222.669	18.26
222.887	71.51
223.105	-47.27
223.323	42.84
223.541	-28.84
223.759	-14.51
223.977	65.36
224.195	96.08
224.413	63.32
224.631	22.36
224.849	-49.32
225.067	135
225.285	-12.46
225.503	73.56
225.721	-32.94
225.939	-14.51
226.157	-10.41
226.375	71.51
226.592	8.02
226.81	28.5
227.028	71.51
227.246	-10.41
227.464	42.84
227.682	-10.41
227.9	32.6
228.117	87.89
228.335	-34.99
228.553	120.66
228.771	87.89
228.989	-10.41
229.206	20.31
229.424	-0.17
229.642	36.69
229.86	65.36
230.077	44.88
230.295	42.84
230.513	57.17
230.731	79.7
230.948	91.99
231.166	32.6
231.384	-43.18
231.601	79.7
231.819	36.69
232.037	-26.79
232.254	55.12
232.472	-18.6
232.689	-2.22
232.907	55.12
233.125	10.07
233.342	59.22
233.56	-18.6
233.777	-14.51
233.995	10.07
234.213	44.88
234.43	10.07
234.648	10.07
234.865	-47.27
235.083	-24.75
235.3	-10.41
235.518	26.45
235.735	87.89
235.953	-28.84
236.17	30.55
236.388	1.88
236.605	22.36
236.822	48.98
237.04	42.84
237.257	1.88
237.475	-53.42
237.692	18.26
237.909	20.31
238.127	79.7
238.344	28.5
238.562	18.26
238.779	34.64
238.996	1.88
239.214	38.74
239.431	-2.22
239.648	34.64
239.865	36.69
240.083	46.93
240.3	-6.31
240.517	71.51
240.735	-2.22
240.952	3.93
241.169	65.36
241.386	-20.65
241.603	-18.6
241.821	-67.75
242.038	-0.17
242.255	-41.13
242.472	-43.18
242.689	-4.27
242.907	38.74
243.124	-77.99
243.341	-10.41
243.558	36.69
243.775	-47.27
243.992	-67.75
244.209	28.5
244.426	124.76
244.643	53.08
244.86	-2.22
245.078	26.45
245.295	40.79
245.512	69.46
245.729	38.74
245.946	14.17
246.163	87.89
246.38	73.56
246.597	-55.47
246.814	-20.65
247.031	55.12
247.248	77.65
247.464	108.37
247.681	75.6
247.898	145.24
248.115	128.85
248.332	-20.65
248.549	-28.84
248.766	85.84
248.983	-24.75
249.2	1.88
249.417	71.51
249.633	12.12
249.85	-39.08
250.067	-28.84
250.284	-18.6
250.501	18.26
250.717	51.03
250.934	-12.46
251.151	16.21
251.368	46.93
251.585	38.74
251.801	10.07
252.018	55.12
252.235	-2.22
252.451	30.55
252.668	-14.51
252.885	65.36
253.102	55.12
253.318	24.4
253.535	34.64
253.752	10.07
253.968	-2.22
254.185	40.79
254.401	-20.65
254.618	18.26
254.835	24.4
255.051	57.17
255.268	38.74
255.484	-22.7
255.701	46.93
255.917	-28.84
256.134	-2.22
256.351	-10.41
256.567	-4.27
256.784	-43.18
257	-26.79
257.217	85.84
257.433	-2.22
257.65	63.32
257.866	36.69
258.082	-55.47
258.299	22.36
258.515	53.08
258.732	-16.55
258.948	18.26
259.165	5.97
259.381	63.32
259.597	-2.22
259.814	65.36
260.03	-24.75
260.246	-10.41
260.463	-22.7
260.679	26.45
260.895	5.97
261.112	-18.6
261.328	-67.75
261.544	16.21
261.761	38.74
261.977	3.93
262.193	-14.51
262.409	18.26
262.626	14.17
262.842	61.27
263.058	26.45
263.274	24.4
263.49	22.36
263.707	75.6
263.923	63.32
264.139	5.97
264.355	20.31
264.571	55.12
264.787	-2.22
265.004	20.31
265.22	-26.79
265.436	-4.27
265.652	-6.31
265.868	55.12
266.084	-12.46
266.3	63.32
266.516	-63.66
266.732	8.02
266.948	63.32
267.164	-12.46
267.38	-34.99
267.596	65.36
267.812	94.04
268.028	46.93
268.244	18.26
268.46	-10.41
268.676	51.03
268.892	8.02
269.108	-2.22
269.324	-6.31
269.54	12.12
269.756	20.31
269.972	46.93
270.188	36.69
270.403	-0.17
270.619	36.69
270.835	20.31
271.051	40.79
271.267	28.5
271.483	22.36
271.698	87.89
271.914	44.88
272.13	18.26
272.346	46.93
272.562	63.32
272.777	32.6
272.993	59.22
273.209	57.17
273.425	28.5
273.64	36.69
273.856	16.21
274.072	20.31
274.287	-10.41
274.503	59.22
274.719	63.32
274.934	5.97
275.15	1.88
275.366	10.07
275.581	26.45
275.797	-77.99
276.012	18.26
276.228	12.12
276.444	55.12
276.659	71.51
276.875	48.98
277.09	61.27
277.306	-18.6
277.521	36.69
277.737	32.6
277.952	-24.75
278.168	36.69
278.383	57.17
278.599	36.69
278.814	65.36
279.03	26.45
279.245	75.6
279.461	10.07
279.676	63.32
279.892	10.07
280.107	48.98
280.322	44.88
280.538	-20.65
280.753	38.74
280.969	53.08
281.184	-65.71
281.399	139.09
281.615	-18.6
281.83	53.08
282.045	16.21
282.26	-34.99
282.476	36.69
282.691	102.23
282.906	132.95
283.122	14.17
283.337	22.36
283.552	-18.6
283.767	-18.6
283.983	-26.79
284.198	71.51
284.413	63.32
284.628	30.55
284.843	10.07
285.058	-18.6
285.274	-4.27
285.489	14.17
285.704	112.47
285.919	-20.65
286.134	38.74
286.349	-12.46
286.564	32.6
286.779	38.74
286.995	-51.37
287.21	-6.31
287.425	-0.17
287.64	30.55
287.855	53.08
288.07	-96.43
288.285	116.56
288.5	71.51
288.715	48.98
288.93	-2.22
289.145	-45.23
289.36	16.21
289.575	34.64
289.79	55.12
290.004	36.69
290.219	20.31
290.434	-39.08
290.649	-63.66
290.864	12.12
291.079	36.69
291.294	1.88
291.509	-2.22
291.724	-18.6
291.938	48.98
292.153	46.93
292.368	-4.27
292.583	8.02
292.798	18.26
293.012	26.45
293.227	44.88
293.442	38.74
293.657	69.46
293.871	63.32
294.086	1.88
294.301	73.56
294.516	24.4
294.73	10.07
294.945	-12.46
295.16	-14.51
295.374	-16.55
295.589	-0.17
295.804	-92.33
296.018	75.6
296.233	71.51
296.447	22.36
296.662	-24.75
296.877	59.22
297.091	59.22
297.306	-20.65
297.52	102.23
297.735	42.84
297.949	-0.17
298.164	16.21
298.378	71.51
298.593	-8.36
298.807	-18.6
299.022	55.12
299.236	44.88
299.451	28.5
299.665	-12.46
299.88	32.6
300.094	12.12
300.309	61.27
300.523	28.5
300.737	40.79
300.952	3.93
301.166	20.31
301.381	8.02
301.595	26.45
301.809	112.47
302.024	83.8
302.238	24.4
302.452	81.75
302.667	-14.51
302.881	87.89
303.095	48.98
303.309	-26.79
303.524	18.26
303.738	10.07
303.952	30.55
304.166	63.32
304.381	-37.03
304.595	22.36
304.809	38.74
305.023	36.69
305.237	12.12
305.452	-0.17
305.666	51.03
305.88	-18.6
306.094	65.36
306.308	20.31
306.522	87.89
306.736	57.17
306.95	53.08
307.164	75.6
307.379	-4.27
307.593	100.18
307.807	67.41
308.021	-69.8
308.235	-8.36
308.449	12.12
308.663	-0.17
308.877	16.21
309.091	-8.36
309.305	59.22
309.519	-41.13
309.733	34.64
309.947	-2.22
310.161	71.51
310.374	-84.14
310.588	14.17
310.802	10.07
311.016	-16.55
311.23	100.18
311.444	32.6
311.658	36.69
311.872	55.12
312.085	59.22
312.299	67.41
312.513	67.41
312.727	38.74
312.941	16.21
313.154	-8.36
313.368	28.5
313.582	55.12
313.796	14.17
314.009	34.64
314.223	18.26
314.437	-55.47
314.651	53.08
314.864	10.07
315.078	48.98
315.292	-0.17
315.505	16.21
315.719	42.84
315.933	-12.46
316.146	16.21
316.36	3.93
316.573	26.45
316.787	59.22
317.001	63.32
317.214	18.26
317.428	34.64
317.641	24.4
317.855	10.07
318.068	53.08
318.282	53.08
318.495	71.51
318.709	106.32
318.922	55.12
319.136	40.79
319.349	118.61
319.563	30.55
319.776	-22.7
319.99	24.4
320.203	112.47
320.417	83.8
320.63	18.26
320.843	63.32
321.057	81.75
321.27	-20.65
321.483	10.07
321.697	75.6
321.91	42.84
322.124	34.64
322.337	-10.41
322.55	-6.31
322.763	122.71
322.977	81.75
323.19	-43.18
323.403	77.65
323.617	34.64
323.83	46.93
324.043	-8.36
324.256	85.84
324.469	5.97
324.683	14.17
324.896	44.88
325.109	53.08
325.322	53.08
325.535	46.93
325.748	48.98
325.962	22.36
326.175	38.74
326.388	36.69
326.601	-24.75
326.814	57.17
327.027	34.64
327.24	16.21
327.453	-6.31
327.666	69.46
327.879	34.64
328.092	40.79
328.305	75.6
328.518	-6.31
328.731	46.93
328.944	63.32
329.157	-45.23
329.37	-12.46
329.583	87.89
329.796	34.64
330.009	28.5
330.222	81.75
330.435	46.93
330.648	83.8
330.861	16.21
331.073	22.36
331.286	91.99
331.499	83.8
331.712	24.4
331.925	30.55
332.138	28.5
332.35	-4.27
332.563	-22.7
332.776	10.07
332.989	22.36
333.202	-12.46
333.414	10.07
333.627	30.55
333.84	-6.31
334.053	-6.31
334.265	55.12
334.478	-47.27
334.691	32.6
334.903	69.46
335.116	-6.31
335.329	-59.56
335.541	102.23
335.754	110.42
335.966	48.98
336.179	-14.51
336.392	-12.46
336.604	61.27
336.817	12.12
337.029	135
337.242	87.89
337.454	34.64
337.667	36.69
337.88	24.4
338.092	12.12
338.305	44.88
338.517	18.26
338.729	14.17
338.942	63.32
339.154	38.74
339.367	-10.41
339.579	48.98
339.792	34.64
340.004	-12.46
340.217	-10.41
340.429	69.46
340.641	67.41
340.854	63.32
341.066	20.31
341.278	59.22
341.491	67.41
341.703	83.8
341.915	-43.18
342.128	18.26
342.34	-55.47
342.552	46.93
342.764	44.88
342.977	69.46
343.189	102.23
343.401	30.55
343.613	20.31
343.826	3.93
344.038	14.17
344.25	67.41
344.462	63.32
344.674	124.76
344.886	40.79
345.099	-26.79
345.311	28.5
345.523	75.6
345.735	-26.79
345.947	30.55
346.159	120.66
346.371	34.64
346.583	14.17
346.795	128.85
347.007	10.07
347.219	94.04
347.431	69.46
347.643	22.36
347.855	57.17
348.067	143.19
348.279	-61.61
348.491	24.4
348.703	-10.41
348.915	-2.22
349.127	14.17
349.339	38.74
349.551	46.93
349.763	-14.51
349.975	46.93
350.187	-0.17
350.399	79.7
350.61	38.74
350.822	-20.65
351.034	-10.41
351.246	48.98
351.458	63.32
351.669	-10.41
351.881	38.74
352.093	85.84
352.305	79.7
352.517	10.07
352.728	38.74
352.94	57.17
353.152	-4.27
353.363	-6.31
353.575	38.74
353.787	91.99
353.999	79.7
354.21	67.41
354.422	5.97
354.633	69.46
354.845	59.22
355.057	24.4
355.268	59.22
355.48	87.89
355.692	32.6
355.903	5.97
356.115	-28.84
356.326	81.75
356.538	30.55
356.749	32.6
356.961	112.47
357.172	38.74
357.384	-10.41
357.595	157.52
357.807	91.99
358.018	-37.03
358.23	55.12
358.441	104.28
358.653	-22.7
358.864	34.64
359.075	28.5
359.287	71.51
359.498	83.8
359.709	81.75
359.921	-53.42
360.132	42.84
360.344	67.41
360.555	22.36
360.766	69.46
360.977	18.26
361.189	26.45
361.4	38.74
361.611	-34.99
361.823	53.08
362.034	24.4
362.245	57.17
362.456	42.84
362.667	104.28
362.879	61.27
363.09	-20.65
363.301	-43.18
363.512	-14.51
363.723	28.5
363.935	14.17
364.146	89.94
364.357	20.31
364.568	91.99
364.779	34.64
364.99	75.6
365.201	-30.89
365.412	63.32
365.623	-6.31
365.834	61.27
366.045	77.65
366.256	42.84
366.467	10.07
366.678	59.22
366.889	16.21
367.1	46.93
367.311	57.17
367.522	5.97
367.733	77.65
367.944	65.36
368.155	51.03
368.366	75.6
368.577	10.07
368.788	26.45
368.999	55.12
369.209	38.74
369.42	98.13
369.631	132.95
369.842	32.6
370.053	14.17
370.264	32.6
370.474	91.99
370.685	-12.46
370.896	-22.7
371.107	106.32
371.317	10.07
371.528	30.55
371.739	36.69
371.95	-14.51
372.16	53.08
372.371	73.56
372.582	16.21
372.792	96.08
373.003	51.03
373.214	75.6
373.424	-34.99
373.635	36.69
373.846	36.69
374.056	46.93
374.267	69.46
374.477	38.74
374.688	16.21
374.898	-4.27
375.109	30.55
375.319	65.36
375.53	46.93
375.74	12.12
375.951	61.27
376.161	100.18
376.372	77.65
376.582	75.6
376.793	61.27
377.003	-10.41
377.214	85.84
377.424	8.02
377.635	104.28
377.845	1.88
378.055	91.99
378.266	-6.31
378.476	77.65
378.686	36.69
378.897	14.17
379.107	67.41
379.317	24.4
379.528	-12.46
379.738	94.04
379.948	-71.85
380.158	28.5
380.369	-4.27
380.579	44.88
380.789	22.36
380.999	26.45
381.21	124.76
381.42	40.79
381.63	5.97
381.84	26.45
382.05	120.66
382.261	30.55
382.471	79.7
382.681	59.22
382.891	110.42
383.101	-14.51
383.311	102.23
383.521	38.74
383.731	98.13
383.941	69.46
384.151	38.74
384.361	73.56
384.571	159.57
384.781	-16.55
384.991	69.46
385.201	118.61
385.411	79.7
385.621	-10.41
385.831	32.6
386.041	34.64
386.251	69.46
386.461	79.7
386.671	30.55
386.881	120.66
387.091	59.22
387.301	55.12
387.511	46.93
387.72	20.31
387.93	75.6
388.14	26.45
388.35	-2.22
388.56	94.04
388.769	157.52
388.979	24.4
389.189	30.55
389.399	59.22
389.609	38.74
389.818	1.88
390.028	104.28
390.238	67.41
390.447	65.36
390.657	89.94
390.867	77.65
391.076	110.42
391.286	24.4
391.496	26.45
391.705	14.17
391.915	116.56
392.125	34.64
392.334	102.23
392.544	-41.13
392.753	34.64
392.963	83.8
393.172	153.43
393.382	3.93
393.591	173.91
393.801	94.04
394.01	128.85
394.22	108.37
394.429	94.04
394.639	94.04
394.848	94.04
395.058	77.65
395.267	63.32
395.477	132.95
395.686	85.84
395.895	79.7
396.105	108.37
396.314	36.69
396.524	83.8
396.733	38.74
396.942	180.05
397.152	65.36
397.361	171.86
397.57	12.12
397.78	59.22
397.989	124.76
398.198	100.18
398.407	130.9
398.617	91.99
398.826	104.28
399.035	141.14
399.244	159.57
399.453	110.42
399.663	106.32
399.872	155.47
400.081	124.76
400.29	139.09
400.499	100.18
400.708	192.34
400.917	46.93
401.127	65.36
401.336	149.33
401.545	91.99
401.754	112.47
401.963	124.76
402.172	100.18
402.381	132.95
402.59	161.62
402.799	145.24
403.008	159.57
403.217	71.51
403.426	98.13
403.635	67.41
403.844	182.1
404.053	161.62
404.262	227.15
404.471	155.47
404.68	155.47
404.888	141.14
405.097	104.28
405.306	106.32
405.515	196.43
405.724	118.61
405.933	227.15
406.142	137.04
406.35	202.58
406.559	182.1
406.768	132.95
406.977	212.82
407.185	218.96
407.394	239.44
407.603	186.19
407.812	200.53
408.02	229.2
408.229	284.5
408.438	327.5
408.646	243.54
408.855	251.73
409.064	266.07
409.272	278.35
409.481	272.21
409.69	309.07
409.898	401.23
410.107	298.83
410.315	296.78
410.524	325.46
410.733	390.99
410.941	333.65
411.15	462.67
411.358	497.49
411.567	472.91
411.775	429.9
411.984	427.85
412.192	481.1
412.401	470.86
412.609	556.88
412.818	487.25
413.026	491.34
413.234	558.92
413.443	550.73
413.651	644.94
413.86	673.61
414.068	689.99
414.276	614.22
414.485	761.67
414.693	712.52
414.901	794.44
415.11	796.49
415.318	827.21
415.526	794.44
415.734	872.26
415.943	880.46
416.151	956.23
416.359	1001.29
416.567	989
416.776	991.05
416.984	1052.49
417.192	1099.59
417.4	1175.36
417.608	1083.2
417.817	1171.27
418.025	1249.09
418.233	1271.62
418.441	1351.49
418.649	1308.48
418.857	1392.45
419.065	1429.31
419.273	1457.98
419.481	1496.89
419.689	1656.64
419.897	1724.22
420.105	1734.46
420.313	1750.84
420.521	1740.6
420.729	1832.76
420.937	2000.69
421.145	1922.87
421.353	2148.15
421.561	2178.87
421.769	2215.73
421.977	2301.75
422.185	2254.64
422.393	2441.01
422.601	2629.42
422.809	2578.22
423.017	2651.95
423.224	2662.19
423.432	2803.5
423.64	2793.26
423.848	3098.41
424.056	3057.45
424.263	3307.3
424.471	3243.81
424.679	3313.44
424.887	3467.04
425.094	3575.58
425.302	3747.61
425.51	3653.41
425.718	3770.14
425.925	3874.59
426.133	4032.28
426.341	4222.74
426.548	4476.69
426.756	4308.76
426.964	4488.98
427.171	4706.06
427.379	4929.29
427.586	5027.59
427.794	4988.68
428.001	5441.28
428.209	5596.93
428.417	5560.06
428.624	5834.49
428.832	5940.99
429.039	5938.94
429.247	5797.63
429.454	6459.12
429.662	7128.81
429.869	6348.53
430.076	6758.13
430.284	6790.89
430.491	7050.99
430.699	7284.45
430.906	7366.37
431.114	7458.53
431.321	7661.28
431.528	7962.33
431.736	8128.22
431.943	8767.18
432.15	8429.27
432.358	8529.62
432.565	9049.8
432.772	8988.36
432.979	9436.87
433.187	9541.32
433.394	9703.11
433.601	10268.34
433.808	10587.83
434.016	10262.2
434.223	10876.59
434.43	11525.8
434.637	11421.35
434.844	11703.97
435.052	12064.41
435.259	11843.23
435.466	12045.98
435.673	12170.91
435.88	12730
436.087	13579.91
436.294	13217.42
436.501	13137.55
436.708	13428.36
436.915	13985.41
437.122	14773.88
437.329	14413.43
437.537	14960.24
437.743	15224.43
437.95	15038.06
438.157	15898.21
438.364	16578.14
438.571	16279.13
438.778	16199.26
438.985	17993.28
439.192	17141.33
439.399	17741.38
439.606	17153.62
439.813	18368.06
440.02	19428.91
440.227	19160.62
440.433	18957.88
440.64	19506.73
440.847	19447.34
441.054	19908.13
441.261	21306.9
441.467	20626.97
441.674	21474.83
441.881	22070.79
442.088	21933.57
442.294	21960.2
442.501	22191.62
442.708	22793.72
442.914	23977.45
443.121	24632.8
443.328	24155.62
443.534	25972.17
443.741	25095.64
443.948	24823.26
444.154	26289.6
444.361	26342.85
444.568	26420.67
444.774	26297.8
444.981	26940.86
445.187	27340.21
445.394	28913.05
445.6	28013.99
445.807	30942.59
446.013	29341.08
446.22	30076.3
446.426	31186.3
446.633	31661.43
446.839	32425.32
447.046	31532.4
447.252	33221.98
447.459	32927.07
447.665	32939.36
447.871	34071.89
448.078	35374.39
448.284	34186.57
448.491	35169.6
448.697	36001.07
448.903	36836.64
449.11	36470.06
449.316	36250.92
449.522	36785.44
449.728	37526.81
449.935	38264.08
450.141	37801.24
450.347	39009.54
450.553	37596.44
450.76	37829.91
450.966	38937.86
451.172	38929.67
451.378	39947.51
451.584	39208.19
451.791	39990.52
451.997	39836.92
452.203	40097.01
452.409	40164.59
452.615	40144.11
452.821	38386.96
453.027	38100.24
453.233	40363.25
453.44	38239.5
453.646	38733.06
453.852	39062.79
454.058	39521.53
454.264	38538.51
454.47	38761.73
454.676	38212.88
454.882	39699.7
455.088	35757.36
455.294	36404.52
455.5	36939.04
455.705	37432.6
455.911	35884.34
456.117	35237.18
456.323	34731.33
456.529	32965.98
456.735	34325.83
456.941	33353.05
457.147	32648.55
457.352	31794.54
457.558	31466.87
457.764	31528.31
457.97	30825.85
458.176	30461.32
458.381	29871.5
458.587	28597.66
458.793	28796.32
458.999	27571.63
459.204	29433.24
459.41	28616.1
459.616	26643.9
459.821	26353.09
460.027	26451.39
460.233	25759.18
460.438	24831.45
460.644	25044.44
460.85	23817.71
461.055	23356.91
461.261	23047.67
461.466	21919.24
461.672	20938.26
461.878	22838.78
462.083	20999.7
462.289	20350.49
462.494	20598.3
462.7	19672.62
462.905	19230.26
463.111	19602.99
463.316	19754.54
463.522	19461.68
463.727	19396.14
463.932	19410.48
464.138	19183.15
464.343	19015.22
464.549	18763.32
464.754	19074.61
464.959	19211.82
465.165	18703.93
465.37	17929.8
465.575	17833.54
465.781	18558.52
465.986	18746.94
466.191	17743.43
466.397	17552.97
466.602	16662.1
466.807	17344.08
467.012	17354.32
467.218	17282.64
467.423	16926.29
467.628	17184.34
467.833	18036.29
468.038	17280.59
468.244	16803.41
468.449	17362.51
468.654	16789.08
468.859	16717.4
469.064	16336.48
469.269	16060
469.474	16184.93
469.679	16301.66
469.885	15855.2
470.09	16019.04
470.295	15896.16
470.5	15394.41
470.705	15578.73
470.91	15320.68
471.115	15498.86
471.32	15431.27
471.525	15576.68
471.73	14843.51
471.935	14843.51
472.139	14534.26
472.344	14610.04
472.549	14583.41
472.754	14438.01
472.959	14083.71
473.164	13563.53
473.369	13547.14
473.574	14032.51
473.778	13856.39
473.983	13809.28
474.188	13573.77
474.393	13125.26
474.598	13094.54
474.802	13049.49
475.007	12711.57
475.212	13008.53
475.417	12603.03
475.621	12320.41
475.826	12451.48
476.031	12312.22
476.235	12062.37
476.44	12480.15
476.645	12093.08
476.849	12050.08
477.054	11771.55
477.259	11720.35
477.463	11806.37
477.668	11265.71
477.872	11581.09
478.077	11538.09
478.282	11171.5
478.486	11122.35
478.691	10888.88
478.895	10892.98
479.1	10882.74
479.304	10815.15
479.509	10544.82
479.713	10669.75
479.918	10688.18
480.122	10143.42
480.326	10223.29
480.531	10528.44
480.735	10385.08
480.94	10364.6
481.144	10809.01
481.348	10075.84
481.553	10141.37
481.757	10251.96
481.961	10057.4
482.166	10131.13
482.37	10127.03
482.574	10067.64
482.778	9873.09
482.983	10059.45
483.187	10184.38
483.391	10100.41
483.595	10237.63
483.8	10022.59
484.004	10221.24
484.208	10122.94
484.412	10114.75
484.616	10213.05
484.821	10069.69
485.025	9985.72
485.229	10036.92
485.433	9922.24
485.637	10094.27
485.841	10004.16
486.045	9985.72
486.249	10061.5
486.453	10069.69
486.657	10092.22
486.861	10053.31
487.065	9785.02
487.269	10059.45
487.473	9946.81
487.677	10206.91
487.881	10055.36
488.085	10151.61
488.289	9934.53
488.493	10266.3
488.697	10120.89
488.901	10327.74
489.105	10102.46
489.309	10045.12
489.512	10309.3
489.716	10413.75
489.92	10229.43
490.124	10114.75
490.328	10198.71
490.531	10460.85
490.735	10350.26
490.939	10522.29
491.143	10358.46
491.346	10233.53
491.55	10630.84
491.754	10376.89
491.958	10614.45
492.161	10661.55
492.365	10655.41
492.569	10774.19
492.772	10763.95
492.976	10700.47
493.18	10985.13
493.383	10935.98
493.587	11048.62
493.79	11179.69
493.994	11040.43
494.197	11347.62
494.401	11210.41
494.605	11095.72
494.808	11335.34
495.012	11681.44
495.215	11832.99
495.419	11751.07
495.622	11620
495.825	12060.32
496.029	11816.61
496.232	11994.78
496.436	11939.49
496.639	12367.51
496.843	12230.3
497.046	12697.24
497.249	12719.76
497.453	12695.19
497.656	12652.18
497.859	12891.79
498.063	13100.69
498.266	13319.82
498.469	13090.45
498.673	13541
498.876	13340.3
499.079	13637.25
499.282	13811.33
499.485	14173.82
499.689	13940.35
499.892	14497.4
500.095	14319.23
500.298	14651
500.501	14863.99
500.705	14913.14
500.908	15052.4
501.111	15373.93
501.314	15605.35
501.517	15461.99
501.72	15660.65
501.923	15933.03
502.126	16399.96
502.329	16397.92
502.532	16772.69
502.735	16660.06
502.938	16694.87
503.141	16928.34
503.344	17409.61
503.547	17086.03
503.75	17430.09
503.953	17653.32
504.156	18003.52
504.359	18091.59
504.562	18146.88
504.765	18673.21
504.968	18974.26
505.17	18775.61
505.373	18812.47
505.576	19420.72
505.779	19650.09
505.982	19754.54
506.185	19852.84
506.387	20262.43
506.59	20012.58
506.793	20557.34
506.996	20381.21
507.198	21315.09
507.401	21091.86
507.604	21085.72
507.807	21827.08
508.009	22056.45
508.212	22050.31
508.415	22480.38
508.617	22601.21
508.82	22785.53
509.022	22846.97
509.225	23424.5
509.428	23592.43
509.63	23414.26
509.833	23907.82
510.035	24034.79
510.238	24057.32
510.44	24880.6
510.643	24962.52
510.845	24948.18
511.048	25089.49
511.25	25503.18
511.453	25554.38
511.655	26535.36
511.858	26293.7
512.06	26502.59
512.262	26742.21
512.465	26674.62
512.667	27180.47
512.87	27809.2
513.072	27768.24
513.274	28136.87
513.477	28513.7
513.679	28886.43
513.881	29132.18
514.084	29537.68
514.286	29068.7
514.488	29619.6
514.69	30289.29
514.893	30455.17
515.095	30424.45
515.297	30930.3
515.499	30928.25
515.701	31677.81
515.904	32058.73
516.106	31939.95
516.308	31997.29
516.51	32693.6
516.712	32595.3
516.914	33146.2
517.116	33652.05
517.318	33815.89
517.52	33955.15
517.722	34116.94
517.925	34606.41
518.127	35110.21
518.329	34987.33
518.531	35540.28
518.733	35839.28
518.935	35988.78
519.136	36453.67
519.338	36486.44
519.54	36961.57
519.742	37158.17
519.944	37494.04
520.146	38321.42
520.348	38235.41
520.55	38393.1
520.752	38642.95
520.954	39357.69
521.155	38528.27
521.357	39632.12
521.559	39570.68
521.761	40695.02
521.963	40199.41
522.164	40422.64
522.366	40721.64
522.568	41106.66
522.77	41221.34
522.971	42181.84
523.173	41491.68
523.375	42755.27
523.576	42208.47
523.778	42579.15
523.98	43121.86
524.181	43269.31
524.383	43246.79
524.584	43502.78
524.786	43953.33
524.988	43781.31
525.189	44131.51
525.391	44805.29
525.592	44743.85
525.794	44987.56
525.995	44817.58
526.197	45288.61
526.398	45077.67
526.6	45726.88
526.801	45655.2
527.003	45894.81
527.204	46517.39
527.406	46656.65
527.607	46490.77
527.808	47168.65
528.01	46386.32
528.211	46857.35
528.412	47694.97
528.614	47496.32
528.815	47234.18
529.016	48102.52
529.218	47430.79
529.419	47787.13
529.62	47815.8
529.822	48278.64
530.023	48069.75
530.224	48508.02
530.425	48161.91
530.626	48151.67
530.828	48123
531.029	49519.71
531.23	48454.77
531.431	48661.61
531.632	49126.5
531.833	49372.26
532.035	49126.5
532.236	48778.35
532.437	49280.1
532.638	48790.64
532.839	49595.49
533.04	49527.91
533.241	49343.59
533.442	50015.32
533.643	49587.3
533.844	49480.8
534.045	49697.89
534.246	49575.01
534.447	49972.31
534.648	49542.24
534.849	50197.59
535.05	49847.39
535.251	49687.65
535.451	49642.59
535.652	49595.49
535.853	49652.83
536.054	49847.39
536.255	49964.12
536.456	49882.2
536.657	50670.67
536.857	49824.86
537.058	49634.4
537.259	50338.9
537.46	50011.23
537.66	50048.09
537.861	49914.97
538.062	50211.93
538.263	50052.19
538.463	49644.64
538.664	50080.86
538.865	50052.19
539.065	50527.31
539.266	49935.45
539.466	50347.09
539.667	49740.89
539.868	50336.85
540.068	49831
540.269	49630.3
540.469	50242.65
540.67	49732.7
540.87	49851.48
541.071	49671.26
541.271	50386
541.472	50132.06
541.672	49706.08
541.873	49554.53
542.073	49826.91
542.274	50314.33
542.474	49581.15
542.675	49876.06
542.875	50109.53
543.075	49765.47
543.276	49839.2
543.476	50437.2
543.676	49691.74
543.877	49994.84
544.077	49732.7
544.277	50173.02
544.478	49978.46
544.678	50240.6
544.878	49699.93
545.078	50101.34
545.279	49452.13
545.479	49558.63
545.679	49519.71
545.879	50017.37
546.079	49583.2
546.28	49353.83
546.48	49589.34
546.68	49699.93
546.88	50005.08
547.08	49917.02
547.28	49306.72
547.48	49171.56
547.68	49413.22
547.88	49114.22
548.081	50056.28
548.281	49769.57
548.481	49544.29
548.681	49683.55
548.881	49654.88
549.081	49454.18
549.28	49060.97
549.48	49818.72
549.68	49579.1
549.88	50160.73
550.08	49470.56
550.28	49814.62
550.48	49187.94
550.68	49831
550.88	49218.66
551.08	49470.56
551.279	49478.75
551.479	49233
551.679	49224.81
551.879	49265.77
552.079	49511.52
552.278	49474.66
552.478	49372.26
552.678	49402.98
552.878	49452.13
553.077	49095.78
553.277	48348.28
553.477	49366.12
553.676	48776.3
553.876	49312.87
554.076	48843.88
554.275	48903.28
554.475	48778.35
554.674	48890.99
554.874	49013.87
555.074	48356.47
555.273	49116.26
555.473	49036.39
555.672	48471.15
555.872	48751.73
556.071	48837.74
556.271	49341.54
556.47	48501.87
556.67	48209.01
556.869	48639.09
557.068	48374.9
557.268	47928.44
557.467	48092.28
557.667	48077.94
557.866	48376.95
558.065	47987.83
558.265	48041.08
558.464	47674.49
558.663	48243.83
558.863	47664.25
559.062	48759.92
559.261	47324.29
559.461	48172.15
559.66	47379.59
559.859	47625.34
560.058	47406.21
560.258	47604.86
560.457	47324.29
560.656	47447.17
560.855	46627.98
561.054	47402.11
561.253	47107.21
561.453	47328.39
561.652	47164.55
561.851	47113.35
562.05	46572.69
562.249	46501.01
562.448	46845.07
562.647	46693.52
562.846	46531.73
563.045	46611.6
563.244	46048.41
563.443	46883.98
563.642	45622.43
563.841	46060.69
564.04	45466.78
564.239	46345.36
564.438	45489.31
564.637	45583.52
564.836	45634.72
565.035	45130.92
565.234	45448.35
565.432	45194.4
565.631	44934.31
565.83	45245.6
566.029	44833.96
566.228	44770.47
566.427	44819.63
566.625	44498.09
566.824	43953.33
567.023	44864.68
567.222	43990.2
567.42	44516.53
567.619	44264.63
567.818	44203.19
568.016	43744.44
568.215	44252.34
568.414	43478.21
568.612	44364.98
568.811	43398.34
569.01	43543.74
569.208	43173.06
569.407	43441.34
569.605	43021.51
569.804	43306.18
570.002	42724.55
570.201	43302.08
570.4	42714.31
570.598	42620.11
570.797	42020.05
570.995	42556.62
571.193	42095.83
571.392	42278.1
571.59	42073.3
571.789	42175.7
571.987	41776.34
572.186	41571.55
572.384	41430.24
572.582	41460.96
572.781	41522.4
572.979	41123.04
573.177	41211.1
573.376	41286.88
573.574	40912.1
573.772	41063.65
573.971	40858.85
574.169	40772.84
574.367	39965.94
574.565	40830.18
574.763	40418.54
574.962	40434.92
575.16	39828.73
575.358	39826.68
575.556	39765.24
575.754	39845.11
575.952	39374.08
576.151	39935.22
576.349	39312.64
576.547	39521.53
576.745	39574.78
576.943	39253.25
577.141	38780.17
577.339	39148.8
577.537	39230.72
577.735	38841.6
577.933	38452.49
578.131	38837.51
578.329	38429.96
578.527	38315.28
578.725	38370.57
578.923	38116.62
579.121	37993.75
579.319	38216.97
579.516	37920.02
579.714	37856.53
579.912	37838.1
580.11	37586.2
580.308	37518.62
580.506	37960.98
580.704	36963.62
580.901	37346.59
581.099	37362.97
581.297	36691.24
581.495	36965.67
581.692	37221.66
581.89	36560.17
582.088	36676.9
582.285	36515.11
582.483	36826.4
582.681	36506.92
582.878	36353.32
583.076	35992.88
583.274	36459.82
583.471	35767.6
583.669	36121.9
583.866	35636.53
584.064	36046.13
584.262	35605.81
584.459	35904.82
584.657	35396.92
584.854	35589.43
585.052	35009.86
585.249	35274.04
585.447	35267.9
585.644	34528.58
585.841	34819.39
586.039	35206.46
586.236	34624.84
586.434	34393.42
586.631	34071.89
586.828	34944.32
587.026	34368.84
587.223	34370.89
587.42	34084.17
587.618	34272.59
587.815	33762.64
588.012	33822.03
588.21	33600.85
588.407	34162
588.604	33289.56
588.801	33205.59
588.999	33561.94
589.196	33287.51
589.393	33181.02
589.59	33279.32
589.787	32748.9
589.984	32785.76
590.182	32464.23
590.379	32904.54
590.576	32408.93
590.773	32533.86
590.97	32417.13
591.167	32367.98
591.364	32177.51
591.561	32320.87
591.758	31821.17
591.955	31851.89
592.152	32171.37
592.349	31980.91
592.546	31651.19
592.743	31690.1
592.94	31270.26
593.137	31315.32
593.334	31401.33
593.531	31190.39
593.727	31393.14
593.924	31309.18
594.121	31063.42
594.318	30907.77
594.515	30840.19
594.712	31034.75
594.908	30506.37
595.105	30897.53
595.302	30229.9
595.499	30113.16
595.696	30168.46
595.892	30078.35
596.089	30168.46
596.286	30201.22
596.482	29939.08
596.679	29838.73
596.876	29662.61
597.072	29447.57
597.269	29588.88
597.466	29355.41
597.662	29248.92
597.859	29488.53
598.055	28964.25
598.252	29140.38
598.448	29199.77
598.645	29164.95
598.841	28560.8
599.038	29115.8
599.234	28829.09
599.431	28409.25
599.627	28528.03
599.824	28792.22
600.02	28421.54
600.217	28360.1
600.413	27913.64
600.609	28003.75
600.806	28024.23
601.002	27964.84
601.198	27725.23
601.395	27598.26
601.591	27561.39
601.787	27502
601.984	27004.35
602.18	27977.13
602.376	27489.71
602.572	27102.65
602.769	27432.37
602.965	27246.01
603.161	27239.86
603.357	27035.06
603.553	26764.73
603.75	26772.92
603.946	26760.64
604.142	26910.14
604.338	26361.28
604.534	26643.9
604.73	26230.21
604.926	26768.83
605.122	26482.11
605.318	26052.04
605.514	25775.56
605.71	26078.66
605.906	26140.1
606.102	25918.92
606.298	26045.9
606.494	25861.58
606.69	25714.12
606.886	25959.88
607.082	25279.96
607.278	25542.1
607.474	25079.25
607.67	25144.79
607.866	25191.89
608.062	25693.65
608.257	24970.71
608.453	25083.35
608.649	25216.47
608.845	24684
609.041	24798.68
609.236	24712.67
609.432	25085.4
609.628	24901.08
609.824	24677.85
610.019	24729.05
610.215	24430.05
610.411	24624.61
610.606	24489.44
610.802	24597.98
610.998	24333.79
611.193	24643.04
611.389	24135.14
611.584	24288.74
611.78	23891.43
611.976	24352.23
612.171	24022.5
612.367	24182.24
612.562	23717.36
612.758	23657.96
612.953	23698.92
613.149	23799.27
613.344	23354.86
613.539	23733.74
613.735	23692.78
613.93	23780.84
614.126	23477.74
614.321	23600.62
614.517	23492.08
614.712	23295.47
614.907	23184.88
615.103	23375.34
615.298	23426.54
615.493	23516.65
615.688	23305.71
615.884	23389.68
616.079	23105.01
616.274	23014.9
616.47	23164.4
616.665	22844.92
616.86	22734.33
617.055	22998.52
617.25	22879.74
617.445	22881.78
617.641	22472.19
617.836	22527.49
618.031	22384.13
618.226	22523.39
618.421	22279.68
618.616	22468.09
618.811	22298.11
619.006	22197.76
619.201	21706.25
619.396	21810.7
619.591	21636.62
619.786	21900.81
619.981	21429.77
620.176	21800.46
620.371	21532.17
620.566	21501.45
620.761	21259.79
620.956	21511.69
621.151	21132.82
621.346	21177.87
621.541	20600.35
621.735	21095.96
621.93	20549.15
622.125	20815.38
622.32	20514.33
622.515	20573.72
622.709	20518.43
622.904	20157.99
623.099	20219.42
623.294	20063.78
623.488	19729.96
623.683	20055.59
623.878	19715.62
624.072	19799.59
624.267	19715.62
624.462	19559.98
624.656	19422.76
624.851	19428.91
625.046	19127.86
625.24	19170.86
625.435	18845.24
625.629	18896.44
625.824	18581.05
626.018	18740.79
626.213	18296.38
626.407	18456.12
626.602	18495.04
626.796	18232.9
626.991	18110.02
627.185	18077.25
627.38	18196.03
627.574	17923.65
627.768	17790.53
627.963	17636.94
628.157	17669.7
628.352	17491.53
628.546	17278.54
628.74	17452.62
628.935	17182.29
629.129	17229.39
629.323	17045.07
629.517	17034.83
629.712	16821.84
629.906	17061.46
630.1	16612.95
630.294	16778.84
630.489	16344.67
630.683	16485.98
630.877	16336.48
631.071	16229.98
631.265	16166.49
631.459	16080.48
631.653	16201.31
631.848	16197.21
632.042	15752.8
632.236	15847.01
632.43	15535.72
632.624	15777.38
632.818	15828.58
633.012	15380.07
633.206	15265.39
633.4	15400.55
633.594	15138.41
633.788	15138.41
633.982	15013.49
634.176	15017.58
634.369	14849.65
634.563	15042.16
634.757	14622.33
634.951	14704.24
635.145	14513.78
635.339	14587.51
635.533	14351.99
635.726	14446.2
635.92	14194.3
636.114	14286.46
636.308	14096
636.501	13907.59
636.695	13915.78
636.889	13952.64
637.083	13733.51
637.276	13725.32
637.47	13717.12
637.664	13526.66
637.857	13663.88
638.051	13614.73
638.244	13588.1
638.438	13489.8
638.632	13254.28
638.825	12936.85
639.019	12967.57
639.212	12908.18
639.406	13065.87
639.599	12846.74
639.793	12940.94
639.986	12629.65
640.18	12807.83
640.373	12496.53
640.567	12541.59
640.76	12633.75
640.954	12373.66
641.147	12404.38
641.34	12158.62
641.534	12363.42
641.727	12357.27
641.92	12084.89
642.114	11939.49
642.307	11998.88
642.5	11937.44
642.694	11646.63
642.887	11755.17
643.08	11824.8
643.273	11376.3
643.467	11335.34
643.66	11257.51
643.853	11409.06
644.046	11200.17
644.239	11349.67
644.432	11171.5
644.626	10870.45
644.819	11163.31
645.012	11089.58
645.205	11175.59
645.398	10901.17
645.591	10962.61
645.784	10712.75
645.977	10419.89
646.17	10524.34
646.363	10616.5
646.556	10708.66
646.749	10530.48
646.942	10395.32
647.135	10442.42
647.328	10313.4
647.521	10329.78
647.714	10137.27
647.907	10165.95
648.099	10247.86
648.292	10120.89
648.485	10096.32
648.678	10002.11
648.871	9696.96
649.064	9825.98
649.256	9778.88
649.449	9879.23
649.642	9756.35
649.835	9522.88
650.027	9492.16
650.22	9686.72
650.413	9430.73
650.605	9645.76
650.798	9434.82
650.991	9301.7
651.183	9430.73
651.376	9141.96
651.568	9107.15
651.761	9184.97
651.954	9053.9
652.146	8939.21
652.339	8992.46
652.531	8928.97
652.724	8703.7
652.916	8746.7
653.109	8908.49
653.301	8634.07
653.494	8830.67
653.686	8818.38
653.879	8664.79
654.071	8384.21
654.263	8582.87
654.456	8459.99
654.648	8466.13
654.84	8236.76
655.033	8277.72
655.225	8251.1
655.417	8257.24
655.61	8009.44
655.802	8249.05
655.994	7991
656.186	8212.18
656.379	7970.52
656.571	8050.39
656.763	7972.57
656.955	7911.13
657.148	7980.76
657.34	7884.51
657.532	7605.99
657.724	7677.66
657.916	7706.34
658.108	7775.97
658.3	7573.22
658.492	7587.55
658.684	7425.76
658.876	7423.72
659.068	7704.29
659.26	7364.32
659.452	7610.08
659.644	7352.04
659.836	7356.13
660.028	7358.18
660.22	7137
660.412	7241.45
660.604	7151.34
660.796	7137
660.988	7085.8
661.18	7046.89
661.372	7065.32
661.563	7096.04
661.755	7083.75
661.947	6868.72
662.139	6907.63
662.331	6895.34
662.522	6940.4
662.714	6698.74
662.906	6684.4
663.097	6776.56
663.289	6868.72
663.481	6588.14
663.673	6672.11
663.864	6639.34
664.056	6528.75
664.247	6514.42
664.439	6387.44
664.631	6616.82
664.822	6401.78
665.014	6534.9
665.205	6289.14
665.397	6432.5
665.588	6350.58
665.78	6242.04
665.971	6268.66
666.163	6121.21
666.354	6094.58
666.546	6266.61
666.737	6145.78
666.929	6084.34
667.12	6239.99
667.311	6006.52
667.503	6008.57
667.694	5945.08
667.885	5887.74
668.077	6082.3
668.268	5934.84
668.459	5959.42
668.651	5897.98
668.842	5920.51
669.033	5742.33
669.224	5787.39
669.416	5814.01
669.607	5746.43
669.798	5754.62
669.989	5760.77
670.18	5521.15
670.371	5740.29
670.563	5703.42
670.754	5609.22
670.945	5711.61
671.136	5588.74
671.327	5633.79
671.518	5455.62
671.709	5713.66
671.9	5717.76
672.091	5773.05
672.282	5377.8
672.473	5580.54
672.664	5469.95
672.855	5402.37
673.046	5469.95
673.237	5369.6
673.428	5281.54
673.619	5428.99
673.809	5500.67
674	5367.56
674.191	5271.3
674.382	5373.7
674.573	5461.76
674.764	5390.08
674.954	5269.25
675.145	5422.85
675.336	5254.92
675.527	5269.25
675.717	5179.14
675.908	5365.51
676.099	5441.28
676.289	5179.14
676.48	5093.13
676.671	5277.44
676.861	5127.94
677.052	5144.33
677.243	5166.85
677.433	5031.69
677.624	5150.47
677.814	5103.37
678.005	5138.18
678.195	5132.04
678.386	5000.97
678.576	5127.94
678.767	5134.09
678.957	5025.54
679.148	5117.7
679.338	5021.45
679.529	4935.43
679.719	4970.25
679.909	4957.96
680.1	4984.59
680.29	5111.56
680.481	4826.89
680.671	5062.41
680.861	5164.81
681.052	5115.66
681.242	4970.25
681.432	4984.59
681.622	4970.25
681.813	4955.91
682.003	4857.61
682.193	5011.21
682.383	5000.97
682.573	4996.87
682.764	4904.71
682.954	5093.13
683.144	5064.46
683.334	4978.44
683.524	4855.56
683.714	4890.38
683.904	4736.78
684.094	4953.87
684.284	5005.06
684.474	4851.47
684.664	4798.22
684.854	4871.95
685.044	4857.61
685.234	4802.32
685.424	4820.75
685.614	4882.19
685.804	4751.12
685.994	4742.92
686.184	4855.56
686.374	4716.3
686.564	4665.1
686.753	4771.6
686.943	4650.77
687.133	4880.14
687.323	4753.16
687.513	4665.1
687.702	4667.15
687.892	4425.49
688.082	4566.8
688.272	4808.46
688.461	4560.66
688.651	4554.51
688.841	4544.27
689.03	4636.43
689.22	4529.94
689.41	4544.27
689.599	4405.01
689.789	4413.2
689.979	4425.49
690.168	4370.19
690.358	4208.41
690.547	4400.91
690.737	4335.38
690.926	4378.39
691.116	4237.08
691.305	4144.92
691.495	4296.47
691.684	4173.59
691.874	4151.06
692.063	4187.93
692.252	4247.32
692.442	4226.84
692.631	4204.31
692.82	4167.45
693.01	4177.69
693.199	4159.25
693.388	4042.52
693.578	4128.53
693.767	4116.25
693.956	4056.86
694.146	4134.68
694.335	4011.8
694.524	4097.81
694.713	4011.8
694.902	4009.75
695.092	4015.9
695.281	3991.32
695.47	3976.98
695.659	3815.2
695.848	3983.13
696.037	3958.55
696.226	4011.8
696.415	4067.1
696.604	4101.91
696.793	3847.96
696.982	3854.11
697.171	3909.4
697.36	3925.79
697.549	3772.19
697.738	3909.4
697.927	3780.38
698.116	3778.33
698.305	3759.9
698.494	3804.96
698.683	3845.91
698.872	3968.79
699.061	3813.15
699.25	3788.57
699.438	3868.44
699.627	3841.82
699.816	3950.36
700.005	3766.04
700.193	3784.48
700.382	3807
700.571	3708.7
700.76	3774.24
700.948	3843.87
701.137	3731.23
701.326	3809.05
701.514	3690.27
701.703	3696.41
701.892	3909.4
702.08	3856.15
702.269	3901.21
702.457	3782.43
702.646	3831.58
702.834	3614.49
703.023	3675.93
703.212	3794.72
703.4	3831.58
703.589	3651.36
703.777	3813.15
703.965	3794.72
704.154	3700.51
704.342	3741.47
704.531	3888.92
704.719	3804.96
704.907	3680.03
705.096	3675.93
705.284	3704.6
705.472	3741.47
705.661	3690.27
705.849	3708.7
706.037	3905.31
706.226	3868.44
706.414	3673.89
706.602	3637.02
706.79	3788.57
706.979	3663.65
707.167	3653.41
707.355	3741.47
707.543	3819.29
707.731	3766.04
707.919	3766.04
708.107	3700.51
708.296	3694.36
708.484	3641.12
708.672	3845.91
708.86	3776.28
709.048	3710.75
709.236	3682.08
709.424	3835.67
709.612	3761.95
709.8	3788.57
709.988	3692.32
710.176	3667.74
710.364	3792.67
710.551	3821.34
710.739	3745.56
710.927	3772.19
711.115	3677.98
711.303	3714.84
711.491	3667.74
711.679	3723.04
711.866	3727.13
712.054	3716.89
712.242	3772.19
712.43	3790.62
712.617	3770.14
712.805	3725.08
712.993	3720.99
713.181	3682.08
713.368	3602.21
713.556	3802.91
713.744	3704.6
713.931	3731.23
714.119	3698.46
714.306	3770.14
714.494	3690.27
714.682	3626.78
714.869	3708.7
715.057	3823.39
715.244	3725.08
715.432	3702.56
715.619	3770.14
715.807	3780.38
715.994	3764
716.182	3862.3
716.369	3839.77
716.556	3714.84
716.744	3718.94
716.931	3868.44
717.119	3817.24
717.306	3669.79
717.493	3680.03
717.681	3835.67
717.868	3911.45
718.055	3684.13
718.242	3731.23
718.43	3680.03
718.617	3794.72
718.804	3671.84
718.991	3772.19
719.179	3759.9
719.366	3663.65
719.553	3723.04
719.74	3628.83
719.927	3741.47
720.114	3770.14
720.301	3833.63
720.488	3643.17
720.676	3780.38
720.863	3809.05
721.05	3610.4
721.237	3655.45
721.424	3700.51
721.611	3827.48
721.798	3725.08
721.985	3741.47
722.172	3716.89
722.358	3702.56
722.545	3735.32
722.732	3704.6
722.919	3845.91
723.106	3723.04
723.293	3680.03
723.48	3804.96
723.667	3770.14
723.853	3712.8
724.04	3841.82
724.227	3700.51
724.414	3702.56
724.6	3680.03
724.787	3692.32
724.974	3741.47
725.161	3749.66
725.347	3606.3
725.534	3688.22
725.72	3637.02
725.907	3653.41
726.094	3557.15
726.28	3671.84
726.467	3663.65
726.653	3544.86
726.84	3622.69
727.027	3817.24
727.213	3491.62
727.4	3755.8
727.586	3585.82
727.773	3663.65
727.959	3675.93
728.145	3508
728.332	3618.59
728.518	3614.49
728.705	3657.5
728.891	3659.55
729.077	3591.97
729.264	3544.86
729.45	3630.88
729.636	3684.13
729.823	3575.58
730.009	3557.15
730.195	3499.81
730.382	3737.37
730.568	3581.73
730.754	3632.93
730.94	3655.45
731.126	3624.73
731.313	3649.31
731.499	3639.07
731.685	3651.36
731.871	3651.36
732.057	3555.1
732.243	3594.01
732.429	3622.69
732.615	3538.72
732.801	3589.92
732.987	3616.54
733.173	3510.05
733.359	3600.16
733.545	3411.75
733.731	3569.44
733.917	3571.49
734.103	3626.78
734.289	3591.97
734.475	3657.5
734.661	3503.9
734.847	3565.34
735.033	3522.34
735.219	3430.18
735.404	3438.37
735.59	3452.7
735.776	3471.14
735.962	3479.33
736.148	3471.14
736.333	3587.87
736.519	3438.37
736.705	3467.04
736.89	3432.22
737.076	3444.51
737.262	3450.66
737.447	3440.42
737.633	3350.31
737.819	3438.37
738.004	3469.09
738.19	3342.11
738.375	3450.66
738.561	3401.51
738.747	3471.14
738.932	3301.15
739.118	3342.11
739.303	3311.39
739.489	3342.11
739.674	3231.52
739.859	3225.38
740.045	3235.62
740.23	3258.15
740.416	3206.95
740.601	3325.73
740.786	3133.22
740.972	3147.56
741.157	3225.38
741.342	3295.01
741.528	3254.05
741.713	3178.28
741.898	3077.93
742.084	3272.48
742.269	3149.61
742.454	3061.54
742.639	3295.01
742.824	3057.45
743.01	3084.07
743.195	3184.42
743.38	3125.03
743.565	3018.54
743.75	3088.17
743.935	3100.45
744.12	2981.67
744.305	3018.54
744.49	2873.13
744.675	2916.14
744.86	2971.43
745.045	2869.03
745.23	2914.09
745.415	2903.85
745.6	3000.1
745.785	2905.9
745.97	2926.38
746.155	2852.65
746.34	2983.72
746.525	2834.22
746.71	2860.84
746.895	2905.9
747.079	2803.5
747.264	2756.4
747.449	2885.42
747.634	2680.62
747.819	2834.22
748.003	2582.32
748.188	2748.2
748.373	2580.27
748.557	2666.28
748.742	2633.52
748.927	2541.36
749.111	2610.99
749.296	2600.75
749.481	2598.7
749.665	2541.36
749.85	2529.07
750.034	2510.64
750.219	2547.5
750.404	2432.82
750.588	2524.97
750.773	2414.38
750.957	2418.48
751.141	2369.33
751.326	2447.15
751.51	2459.44
751.695	2520.88
751.879	2449.2
752.064	2350.9
752.248	2303.79
752.432	2309.94
752.617	2232.12
752.801	2305.84
752.985	2398
753.17	2180.92
753.354	2123.57
753.538	2180.92
753.722	2264.88
753.907	2039.61
754.091	2152.24
754.275	2215.73
754.459	2154.29
754.643	2090.81
754.828	2150.2
755.012	1959.74
755.196	2125.62
755.38	1969.98
755.564	2053.94
755.748	2012.98
755.932	2080.57
756.116	2019.13
756.3	2008.89
756.484	1939.26
756.668	1894.2
756.852	1963.83
757.036	1924.92
757.22	1920.82
757.404	1926.97
757.588	1910.58
757.772	1886.01
757.956	1836.86
758.14	1785.66
758.323	1695.55
758.507	1775.42
758.691	1877.82
758.875	1742.65
759.059	1754.94
759.242	1836.86
759.426	1830.71
759.61	1683.26
759.794	1668.92
759.977	1746.75
760.161	1675.07
760.345	1763.13
760.528	1720.12
760.712	1716.03
760.895	1638.2
761.079	1734.46
761.263	1599.29
761.446	1607.48
761.63	1603.39
761.813	1658.68
761.997	1582.91
762.18	1613.63
762.364	1609.53
762.547	1597.24
762.731	1656.64
762.914	1525.57
763.098	1611.58
763.281	1488.7
763.464	1441.6
763.648	1482.56
763.831	1544
764.015	1529.66
764.198	1525.57
764.381	1472.32
764.564	1496.89
764.748	1410.88
764.931	1484.61
765.114	1464.13
765.297	1431.36
765.481	1476.41
765.664	1449.79
765.847	1427.26
766.03	1455.94
766.213	1427.26
766.397	1441.6
766.58	1324.87
766.763	1544
766.946	1374.02
767.129	1361.73
767.312	1394.5
767.495	1337.15
767.678	1324.87
767.861	1392.45
768.044	1374.02
768.227	1392.45
768.41	1314.63
768.593	1324.87
768.776	1365.82
768.959	1283.91
769.142	1232.71
769.324	1300.29
769.507	1257.28
769.69	1222.47
769.873	1275.71
770.056	1292.1
770.239	1304.39
770.421	1322.82
770.604	1275.71
770.787	1308.48
770.97	1265.47
771.152	1255.23
771.335	1259.33
771.518	1232.71
771.7	1226.56
771.883	1300.29
772.066	1171.27
772.248	1249.09
772.431	1163.08
772.613	1156.93
772.796	1095.49
772.978	1161.03
773.161	1242.95
773.343	1169.22
773.526	1085.25
773.708	1140.55
773.891	1199.94
774.073	1085.25
774.256	1009.48
774.438	1163.08
774.621	1083.2
774.803	1113.92
774.985	974.66
775.168	1163.08
775.35	1070.92
775.532	1120.07
775.715	941.89
775.897	1029.96
776.079	1023.81
776.261	1107.78
776.444	1066.82
776.626	941.89
776.808	1005.38
776.99	923.46
777.173	980.81
777.355	970.57
777.537	1021.77
777.719	970.57
777.901	976.71
778.083	939.85
778.265	841.54
778.447	986.95
778.629	874.31
778.811	935.75
778.993	788.3
779.175	974.66
779.357	878.41
779.539	866.12
779.721	759.63
779.903	919.37
780.085	855.88
780.267	833.35
780.449	896.84
780.631	849.74
780.812	825.16
780.994	767.82
781.176	792.39
781.358	804.68
781.54	847.69
781.721	855.88
781.903	765.77
782.085	776.01
782.267	837.45
782.448	702.28
782.63	737.1
782.812	761.67
782.993	812.87
783.175	696.14
783.357	771.91
783.538	708.43
783.72	638.8
783.901	661.32
784.083	737.1
784.264	718.67
784.446	614.22
784.627	706.38
784.809	661.32
784.99	692.04
785.172	667.47
785.353	687.95
785.535	675.66
785.716	640.84
785.897	632.65
786.079	702.28
786.26	616.27
786.441	601.93
786.623	603.98
786.804	577.36
786.985	685.9
787.167	589.64
787.348	560.97
787.529	526.16
787.71	563.02
787.891	591.69
788.073	548.68
788.254	526.16
788.435	462.67
788.616	575.31
788.797	522.06
788.978	524.11
789.159	495.44
789.34	522.06
789.522	505.68
789.703	589.64
789.884	546.64
790.065	599.88
790.246	493.39
790.427	495.44
790.607	630.6
790.788	526.16
790.969	485.2
791.15	491.34
791.331	481.1
791.512	505.68
791.693	468.81
791.874	493.39
792.054	436.05
792.235	532.3
792.416	384.85
792.597	464.72
792.778	503.63
792.958	417.61
793.139	436.05
793.32	479.05
793.5	411.47
793.681	499.53
793.862	407.38
794.042	477.01
794.223	436.05
794.404	468.81
794.584	462.67
794.765	395.09
794.945	489.29
795.126	509.77
795.306	415.57
795.487	429.9
795.667	386.9
795.848	388.94
796.028	530.25
796.209	378.7
796.389	325.46
796.57	395.09
796.75	356.18
796.93	390.99
797.111	360.27
797.291	333.65
797.471	403.28
797.652	452.43
797.832	347.98
798.012	362.32
798.192	388.94
798.373	302.93
798.553	360.27
798.733	376.66
798.913	311.12
799.093	434
799.274	294.74
799.454	423.76
799.634	319.31
799.814	425.81
799.994	356.18
800.174	356.18
800.354	403.28
800.534	276.31
800.714	417.61
800.894	335.7
801.074	294.74
801.254	368.46
801.434	386.9
801.614	325.46
801.794	255.83
801.974	823.11
802.154	329.55
802.334	304.98
802.514	341.84
802.693	333.65
802.873	335.7
803.053	290.64
803.233	333.65
803.413	337.74
803.592	300.88
803.772	319.31
803.952	329.55
804.131	292.69
804.311	352.08
804.491	282.45
804.67	288.59
804.85	223.06
805.03	229.2
805.209	245.59
805.389	337.74
805.568	257.87
805.748	249.68
805.928	298.83
806.107	300.88
806.287	345.94
806.466	251.73
806.646	276.31
806.825	255.83
807.004	315.22
807.184	296.78
807.363	249.68
807.543	214.87
807.722	278.35
807.901	255.83
808.081	302.93
808.26	210.77
808.439	257.87
808.619	229.2
808.798	266.07
808.977	268.11
809.156	251.73
809.336	276.31
809.515	261.97
809.694	190.29
809.873	167.76
810.052	231.25
810.231	272.21
810.411	237.39
810.59	317.26
810.769	218.96
810.948	321.36
811.127	202.58
811.306	239.44
811.485	241.49
811.664	282.45
811.843	225.11
812.022	290.64
812.201	206.67
812.38	192.34
812.559	251.73
812.737	190.29
812.916	159.57
813.095	169.81
813.274	235.35
813.453	186.19
813.632	247.63
813.811	200.53
813.989	178
814.168	167.76
814.347	198.48
814.526	167.76
814.704	194.39
814.883	304.98
815.062	214.87
815.24	237.39
815.419	178
815.598	255.83
815.776	249.68
815.955	237.39
816.133	145.24
816.312	227.15
816.49	120.66
816.669	278.35
816.847	153.43
817.026	175.95
817.204	151.38
817.383	173.91
817.561	106.32
817.74	182.1
817.918	169.81
818.097	276.31
818.275	210.77
818.453	169.81
818.632	130.9
818.81	180.05
818.988	141.14
819.167	163.67
819.345	190.29
819.523	149.33
819.701	182.1
819.879	157.52
820.058	169.81
820.236	165.71
820.414	135
820.592	194.39
820.77	190.29
820.948	114.52
821.127	184.15
821.305	155.47
821.483	130.9
821.661	71.51
821.839	227.15
822.017	100.18
822.195	180.05
822.373	192.34
822.551	153.43
822.729	210.77
822.907	171.86
823.085	143.19
823.262	186.19
823.44	126.8
823.618	104.28
823.796	149.33
823.974	218.96
824.152	135
824.329	186.19
824.507	149.33
824.685	180.05
824.863	34.64
825.04	155.47
825.218	149.33
825.396	132.95
825.574	210.77
825.751	143.19
825.929	102.23
826.107	149.33
826.284	53.08
826.462	214.87
826.639	143.19
826.817	67.41
826.994	128.85
827.172	46.93
827.349	192.34
827.527	126.8
827.704	102.23
827.882	87.89
828.059	167.76
828.237	104.28
828.414	175.95
828.591	94.04
828.769	102.23
828.946	145.24
829.124	139.09
829.301	204.63
829.478	114.52
829.655	153.43
829.833	112.47
830.01	96.08
830.187	102.23
830.364	77.65
830.542	104.28
830.719	182.1
830.896	184.15
831.073	118.61
831.25	171.86
831.427	137.04
831.604	79.7
831.782	83.8
831.959	155.47
832.136	128.85
832.313	157.52
832.49	77.65
832.667	87.89
832.844	108.37
833.021	188.24
833.198	42.84
833.374	106.32
833.551	53.08
833.728	124.76
833.905	112.47
834.082	69.46
834.259	104.28
834.436	91.99
834.612	79.7
834.789	112.47
834.966	108.37
835.143	44.88
835.319	51.03
835.496	128.85
835.673	116.56
835.85	79.7
836.026	87.89
836.203	75.6
836.38	67.41
836.556	57.17
836.733	89.94
836.909	145.24
837.086	20.31
837.262	63.32
837.439	59.22
837.616	69.46
837.792	44.88
837.968	73.56
838.145	38.74
838.321	40.79
838.498	20.31
838.674	34.64
838.851	151.38
839.027	100.18
839.203	36.69
839.38	87.89
839.556	83.8
839.732	-12.46
839.909	85.84
840.085	65.36
840.261	130.9
840.437	128.85
840.614	85.84
840.79	108.37
840.966	-4.27
841.142	69.46
841.318	102.23
841.494	46.93
841.671	73.56
841.847	108.37
842.023	51.03
842.199	89.94
842.375	143.19
842.551	-14.51
842.727	55.12
842.903	145.24
843.079	73.56
843.255	75.6
843.431	48.98
843.607	83.8
843.783	65.36
843.959	118.61
844.134	22.36
844.31	132.95
844.486	102.23
844.662	120.66
844.838	79.7
845.013	22.36
845.189	100.18
845.365	42.84
845.541	32.6
845.716	73.56
845.892	46.93
846.068	67.41
846.244	55.12
846.419	44.88
846.595	44.88
846.77	61.27
846.946	135
847.122	112.47
847.297	36.69
847.473	28.5
847.648	22.36
847.824	63.32
847.999	38.74
848.175	30.55
848.35	53.08
848.526	128.85
848.701	126.8
848.876	110.42
849.052	63.32
849.227	12.12
849.403	83.8
849.578	71.51
849.753	102.23
849.929	61.27
850.104	1.88
850.279	63.32
850.454	79.7
850.63	-12.46
850.805	96.08
850.98	32.6
851.155	63.32
851.33	12.12
851.505	48.98
851.681	155.47
851.856	-28.84
852.031	12.12
852.206	14.17
852.381	51.03
852.556	-26.79
852.731	14.17
852.906	42.84
853.081	128.85
853.256	42.84
853.431	10.07
853.606	30.55
853.781	-43.18
853.956	-8.36
854.131	59.22
854.305	46.93
854.48	91.99
854.655	71.51
854.83	42.84
855.005	100.18
855.18	34.64
855.354	69.46
855.529	71.51
855.704	26.45
855.879	38.74
856.053	59.22
856.228	14.17
856.403	-75.95
856.577	22.36
856.752	40.79
856.926	46.93
857.101	65.36
857.276	-2.22
857.45	51.03
857.625	77.65
857.799	38.74
857.974	28.5
858.148	14.17
858.323	55.12
858.497	26.45
858.672	30.55
858.846	24.4
859.02	85.84
859.195	-26.79
859.369	-4.27
859.543	67.41
859.718	42.84
859.892	-2.22
860.066	34.64
860.241	-10.41
860.415	63.32
860.589	12.12
860.763	83.8
860.938	57.17
861.112	-39.08
861.286	3.93
861.46	-20.65
861.634	79.7
861.808	14.17
861.982	-10.41
862.157	30.55
862.331	-10.41
862.505	-4.27
862.679	-53.42
862.853	-45.23
863.027	-51.37
863.201	55.12
863.375	73.56
863.549	73.56
863.722	-14.51
863.896	-8.36
864.07	18.26
864.244	1.88
864.418	-2.22
864.592	16.21
864.766	-55.47
864.939	-0.17
865.113	18.26
865.287	81.75
865.461	-14.51
865.634	59.22
865.808	55.12
865.982	14.17
866.156	-26.79
866.329	55.12
866.503	89.94
866.676	61.27
866.85	-14.51
867.024	34.64
867.197	30.55
867.371	38.74
867.544	26.45
867.718	46.93
867.891	104.28
868.065	-12.46
868.238	79.7
868.412	34.64
868.585	16.21
868.759	-34.99
868.932	36.69
869.105	-10.41
869.279	-2.22
869.452	5.97
869.625	20.31
869.799	59.22
869.972	-8.36
870.145	-51.37
870.319	28.5
870.492	-47.27
870.665	-61.61
870.838	-26.79
871.011	-2.22
871.185	28.5
871.358	8.02
871.531	71.51
871.704	20.31
871.877	36.69
872.05	1.88
872.223	-32.94
872.396	14.17
872.569	1.88
872.742	-37.03
872.915	38.74
873.088	-20.65
873.261	-34.99
873.434	55.12
873.607	36.69
873.78	42.84
873.953	1.88
874.126	-0.17
874.299	-65.71
874.471	-39.08
874.644	20.31
874.817	1.88
874.99	-14.51
875.163	-10.41
875.335	46.93
875.508	-10.41
875.681	-32.94
875.853	71.51
876.026	1.88
876.199	18.26
876.371	-6.31
876.544	-10.41
876.717	-4.27
876.889	12.12
877.062	-30.89
877.234	1.88
877.407	-18.6
877.579	-22.7
877.752	18.26
877.924	34.64
878.097	-20.65
878.269	-51.37
878.442	38.74
878.614	44.88
878.786	14.17
878.959	77.65
879.131	71.51
879.303	-2.22
879.476	-16.55
879.648	59.22
879.82	44.88
879.993	-18.6
880.165	51.03
880.337	-43.18
880.509	30.55
880.681	32.6
880.854	-53.42
881.026	87.89
881.198	77.65
881.37	46.93
881.542	28.5
881.714	100.18
881.886	-24.75
882.058	5.97
882.23	-14.51
882.402	18.26
882.574	55.12
882.746	5.97
882.918	44.88
883.09	-45.23
883.262	5.97
883.434	20.31
883.606	1.88
883.778	57.17
883.95	36.69
884.122	34.64
884.293	30.55
884.465	22.36
884.637	30.55
884.809	3.93
884.98	3.93
885.152	-43.18
885.324	26.45
885.496	42.84
885.667	-10.41
885.839	12.12
886.011	38.74
886.182	-28.84
886.354	3.93
886.525	42.84
886.697	12.12
886.869	-2.22
887.04	-6.31
887.212	16.21
887.383	59.22
887.555	22.36
887.726	-0.17
887.897	22.36
888.069	65.36
888.24	67.41
888.412	-30.89
888.583	-4.27
888.754	-10.41
888.926	-69.8
889.097	-45.23
889.268	-77.99
889.44	44.88
889.611	-65.71
889.782	-16.55
889.953	3.93
890.125	26.45
890.296	44.88
890.467	-2.22
890.638	-16.55
890.809	24.4
890.98	-16.55
891.151	-45.23
891.323	73.56
891.494	-8.36
891.665	-32.94
891.836	-47.27
892.007	-55.47
892.178	71.51
892.349	-28.84
892.52	-22.7
892.691	-14.51
892.862	22.36
893.032	12.12
893.203	28.5
893.374	75.6
893.545	-55.47
893.716	-61.61
893.887	3.93
894.057	-30.89
894.228	-28.84
894.399	-82.09
894.57	73.56
894.74	-16.55
894.911	12.12
895.082	20.31
895.253	-30.89
895.423	20.31
895.594	-14.51
895.764	30.55
895.935	30.55
896.106	22.36
896.276	22.36
896.447	-88.23
896.617	-20.65
896.788	-57.51
896.958	-14.51
897.129	55.12
897.299	-2.22
897.47	18.26
897.64	42.84
897.81	-32.94
897.981	-18.6
898.151	-53.42
898.322	-73.9
898.492	100.18
898.662	-45.23
898.832	-65.71
899.003	3.93
899.173	-10.41
899.343	-10.41
899.513	-26.79
