Data from USB4F104151__276__10-40-57-861.txt Node

Date: Wed Mar 12 10:40:57 EDT 2025
User: louis
Spectrometer: USB4F10415
Trigger mode: 4
Integration Time (sec): 3.000000E-2
Scans to average: 1
Electric dark correction enabled: true
Nonlinearity correction enabled: false
Boxcar width: 0
XAxis mode: Wavelengths
Number of Pixels in Spectrum: 3648
>>>>>Begin Spectral Data<<<<<
178.204	-53.93
178.424	-53.93
178.644	-53.93
178.864	-66.22
179.084	-76.46
179.304	-58.03
179.524	15.7
179.744	75.09
179.964	-0.68
180.184	-55.98
180.404	48.47
180.624	13.65
180.844	-33.45
181.064	-31.4
181.283	-10.92
181.503	5.46
181.723	32.08
181.943	-2.73
182.163	85.33
182.383	21.85
182.602	95.57
182.822	60.76
183.042	77.14
183.262	13.65
183.482	13.65
183.701	-8.87
183.921	44.37
184.141	-29.35
184.361	9.56
184.58	42.32
184.8	38.23
185.02	-27.31
185.239	52.56
185.459	-111.27
185.679	5.46
185.898	36.18
186.118	58.71
186.338	-2.73
186.557	-10.92
186.777	25.94
186.997	81.24
187.216	-23.21
187.436	107.86
187.655	79.19
187.875	62.8
188.095	-25.26
188.314	30.04
188.534	140.63
188.753	-39.59
188.973	-27.31
189.192	75.09
189.412	38.23
189.631	36.18
189.851	21.85
190.07	62.8
190.29	-55.98
190.509	21.85
190.729	103.76
190.948	89.43
191.168	99.67
191.387	81.24
191.607	15.7
191.826	50.52
192.045	42.32
192.265	-51.88
192.484	23.89
192.704	23.89
192.923	7.51
193.142	21.85
193.362	15.7
193.581	62.8
193.8	-8.87
194.02	21.85
194.239	-31.4
194.458	93.52
194.678	126.29
194.897	64.85
195.116	1.37
195.335	-0.68
195.555	58.71
195.774	27.99
195.993	103.76
196.212	58.71
196.432	73.04
196.651	-72.36
196.87	-0.68
197.089	120.15
197.308	5.46
197.528	109.91
197.747	-15.02
197.966	42.32
198.185	118.1
198.404	5.46
198.623	56.66
198.842	73.04
199.062	15.7
199.281	77.14
199.5	52.56
199.719	19.8
199.938	44.37
200.157	23.89
200.376	116.05
200.595	11.61
200.814	3.41
201.033	50.52
201.252	3.41
201.471	-2.73
201.69	52.56
201.909	111.96
202.128	3.41
202.347	15.7
202.566	-37.55
202.785	27.99
203.004	46.42
203.223	58.71
203.442	-2.73
203.661	17.75
203.879	-35.5
204.098	68.95
204.317	25.94
204.536	99.67
204.755	-68.27
204.974	42.32
205.193	66.9
205.411	-15.02
205.63	42.32
205.849	1.37
206.068	30.04
206.287	1.37
206.505	130.39
206.724	101.72
206.943	77.14
207.162	36.18
207.381	-12.97
207.599	-4.78
207.818	-23.21
208.037	40.28
208.255	21.85
208.474	-4.78
208.693	52.56
208.911	-8.87
209.13	-64.17
209.349	48.47
209.567	50.52
209.786	11.61
210.005	93.52
210.223	-6.83
210.442	-27.31
210.661	42.32
210.879	-0.68
211.098	23.89
211.316	7.51
211.535	-21.16
211.753	19.8
211.972	-17.07
212.191	-2.73
212.409	25.94
212.628	27.99
212.846	42.32
213.065	111.96
213.283	71
213.502	60.76
213.72	-55.98
213.938	44.37
214.157	30.04
214.375	64.85
214.594	36.18
214.812	64.85
215.031	30.04
215.249	19.8
215.467	9.56
215.686	83.28
215.904	83.28
216.122	13.65
216.341	30.04
216.559	-19.11
216.778	44.37
216.996	27.99
217.214	38.23
217.432	38.23
217.651	48.47
217.869	77.14
218.087	71
218.306	3.41
218.524	-33.45
218.742	34.13
218.96	-39.59
219.179	-15.02
219.397	44.37
219.615	79.19
219.833	-4.78
220.051	44.37
220.27	19.8
220.488	34.13
220.706	73.04
220.924	13.65
221.142	-27.31
221.36	34.13
221.578	5.46
221.796	30.04
222.015	1.37
222.233	9.56
222.451	79.19
222.669	-29.35
222.887	81.24
223.105	30.04
223.323	66.9
223.541	-4.78
223.759	27.99
223.977	9.56
224.195	36.18
224.413	42.32
224.631	5.46
224.849	21.85
225.067	71
225.285	-21.16
225.503	46.42
225.721	-27.31
225.939	-2.73
226.157	40.28
226.375	79.19
226.592	17.75
226.81	30.04
227.028	44.37
227.246	62.8
227.464	50.52
227.682	75.09
227.9	44.37
228.117	-0.68
228.335	66.9
228.553	56.66
228.771	56.66
228.989	-2.73
229.206	9.56
229.424	17.75
229.642	11.61
229.86	36.18
230.077	38.23
230.295	-47.79
230.513	79.19
230.731	25.94
230.948	64.85
231.166	132.44
231.384	5.46
231.601	27.99
231.819	44.37
232.037	7.51
232.254	-55.98
232.472	50.52
232.689	-4.78
232.907	13.65
233.125	62.8
233.342	-27.31
233.56	36.18
233.777	79.19
233.995	52.56
234.213	93.52
234.43	66.9
234.648	36.18
234.865	-4.78
235.083	111.96
235.3	91.48
235.518	-4.78
235.735	32.08
235.953	44.37
236.17	-27.31
236.388	19.8
236.605	58.71
236.822	50.52
237.04	77.14
237.257	81.24
237.475	17.75
237.692	71
237.909	-31.4
238.127	48.47
238.344	25.94
238.562	15.7
238.779	9.56
238.996	-0.68
239.214	79.19
239.431	91.48
239.648	17.75
239.865	87.38
240.083	9.56
240.3	44.37
240.517	17.75
240.735	9.56
240.952	130.39
241.169	152.91
241.386	5.46
241.603	58.71
241.821	13.65
242.038	52.56
242.255	68.95
242.472	-10.92
242.689	15.7
242.907	44.37
243.124	34.13
243.341	30.04
243.558	-68.27
243.775	42.32
243.992	9.56
244.209	30.04
244.426	120.15
244.643	60.76
244.86	64.85
245.078	48.47
245.295	-29.35
245.512	-10.92
245.729	-31.4
245.946	54.61
246.163	-12.97
246.38	-12.97
246.597	56.66
246.814	99.67
247.031	-2.73
247.248	40.28
247.464	132.44
247.681	5.46
247.898	58.71
248.115	-23.21
248.332	-27.31
248.549	32.08
248.766	95.57
248.983	99.67
249.2	-49.83
249.417	5.46
249.633	-25.26
249.85	25.94
250.067	11.61
250.284	19.8
250.501	21.85
250.717	9.56
250.934	-4.78
251.151	17.75
251.368	64.85
251.585	17.75
251.801	-2.73
252.018	9.56
252.235	56.66
252.451	-8.87
252.668	-31.4
252.885	101.72
253.102	19.8
253.318	75.09
253.535	-10.92
253.752	30.04
253.968	15.7
254.185	-0.68
254.401	68.95
254.618	13.65
254.835	25.94
255.051	17.75
255.268	5.46
255.484	7.51
255.701	66.9
255.917	75.09
256.134	-60.07
256.351	36.18
256.567	9.56
256.784	30.04
257	-2.73
257.217	40.28
257.433	71
257.65	146.77
257.866	60.76
258.082	-0.68
258.299	79.19
258.515	5.46
258.732	-4.78
258.948	52.56
259.165	-10.92
259.381	13.65
259.597	5.46
259.814	1.37
260.03	-0.68
260.246	89.43
260.463	103.76
260.679	54.61
260.895	5.46
261.112	95.57
261.328	60.76
261.544	-10.92
261.761	122.2
261.977	5.46
262.193	15.7
262.409	32.08
262.626	46.42
262.842	75.09
263.058	44.37
263.274	128.34
263.49	75.09
263.707	103.76
263.923	62.8
264.139	-43.69
264.355	25.94
264.571	50.52
264.787	120.15
265.004	99.67
265.22	54.61
265.436	54.61
265.652	40.28
265.868	-6.83
266.084	15.7
266.3	87.38
266.516	-43.69
266.732	58.71
266.948	73.04
267.164	5.46
267.38	38.23
267.596	97.62
267.812	44.37
268.028	25.94
268.244	-4.78
268.46	46.42
268.676	75.09
268.892	48.47
269.108	7.51
269.324	9.56
269.54	3.41
269.756	75.09
269.972	42.32
270.188	5.46
270.403	44.37
270.619	23.89
270.835	54.61
271.051	-17.07
271.267	-17.07
271.483	19.8
271.698	30.04
271.914	66.9
272.13	21.85
272.346	-19.11
272.562	161.11
272.777	42.32
272.993	38.23
273.209	5.46
273.425	46.42
273.64	46.42
273.856	79.19
274.072	107.86
274.287	60.76
274.503	-23.21
274.719	-19.11
274.934	15.7
275.15	23.89
275.366	-19.11
275.581	21.85
275.797	17.75
276.012	56.66
276.228	44.37
276.444	-41.64
276.659	109.91
276.875	-21.16
277.09	99.67
277.306	17.75
277.521	56.66
277.737	75.09
277.952	101.72
278.168	19.8
278.383	101.72
278.599	103.76
278.814	46.42
279.03	-27.31
279.245	101.72
279.461	-55.98
279.676	48.47
279.892	-27.31
280.107	-10.92
280.322	11.61
280.538	52.56
280.753	3.41
280.969	34.13
281.184	62.8
281.399	71
281.615	54.61
281.83	48.47
282.045	5.46
282.26	40.28
282.476	25.94
282.691	83.28
282.906	30.04
283.122	25.94
283.337	48.47
283.552	21.85
283.767	-0.68
283.983	30.04
284.198	42.32
284.413	46.42
284.628	-39.59
284.843	-6.83
285.058	83.28
285.274	38.23
285.489	30.04
285.704	50.52
285.919	-62.12
286.134	101.72
286.349	-19.11
286.564	58.71
286.779	48.47
286.995	50.52
287.21	-8.87
287.425	85.33
287.64	-10.92
287.855	-10.92
288.07	-2.73
288.285	91.48
288.5	-6.83
288.715	56.66
288.93	56.66
289.145	-12.97
289.36	46.42
289.575	-29.35
289.79	13.65
290.004	52.56
290.219	17.75
290.434	36.18
290.649	36.18
290.864	46.42
291.079	54.61
291.294	-12.97
291.509	75.09
291.724	68.95
291.938	62.8
292.153	87.38
292.368	44.37
292.583	38.23
292.798	48.47
293.012	-2.73
293.227	-10.92
293.442	83.28
293.657	19.8
293.871	56.66
294.086	40.28
294.301	54.61
294.516	48.47
294.73	114
294.945	87.38
295.16	83.28
295.374	83.28
295.589	134.48
295.804	13.65
296.018	93.52
296.233	23.89
296.447	54.61
296.662	42.32
296.877	105.81
297.091	97.62
297.306	-4.78
297.52	-29.35
297.735	7.51
297.949	-23.21
298.164	62.8
298.378	5.46
298.593	79.19
298.807	42.32
299.022	38.23
299.236	99.67
299.451	42.32
299.665	34.13
299.88	30.04
300.094	13.65
300.309	19.8
300.523	34.13
300.737	34.13
300.952	75.09
301.166	79.19
301.381	-33.45
301.595	38.23
301.809	62.8
302.024	27.99
302.238	5.46
302.452	134.48
302.667	101.72
302.881	169.3
303.095	36.18
303.309	126.29
303.524	77.14
303.738	89.43
303.952	17.75
304.166	116.05
304.381	27.99
304.595	91.48
304.809	42.32
305.023	93.52
305.237	42.32
305.452	111.96
305.666	21.85
305.88	62.8
306.094	118.1
306.308	111.96
306.522	75.09
306.736	83.28
306.95	46.42
307.164	-6.83
307.379	13.65
307.593	191.83
307.807	66.9
308.021	122.2
308.235	52.56
308.449	7.51
308.663	21.85
308.877	132.44
309.091	81.24
309.305	109.91
309.519	36.18
309.733	103.76
309.947	13.65
310.161	95.57
310.374	13.65
310.588	68.95
310.802	3.41
311.016	23.89
311.23	27.99
311.444	71
311.658	1.37
311.872	89.43
312.085	107.86
312.299	81.24
312.513	21.85
312.727	46.42
312.941	-6.83
313.154	27.99
313.368	116.05
313.582	79.19
313.796	136.53
314.009	46.42
314.223	91.48
314.437	75.09
314.651	7.51
314.864	52.56
315.078	-0.68
315.292	44.37
315.505	30.04
315.719	21.85
315.933	58.71
316.146	40.28
316.36	23.89
316.573	52.56
316.787	83.28
317.001	48.47
317.214	54.61
317.428	44.37
317.641	68.95
317.855	120.15
318.068	107.86
318.282	71
318.495	71
318.709	-19.11
318.922	105.81
319.136	58.71
319.349	77.14
319.563	-17.07
319.776	15.7
319.99	-23.21
320.203	25.94
320.417	54.61
320.63	71
320.843	111.96
321.057	38.23
321.27	9.56
321.483	83.28
321.697	79.19
321.91	71
322.124	11.61
322.337	62.8
322.55	107.86
322.763	62.8
322.977	77.14
323.19	25.94
323.403	105.81
323.617	52.56
323.83	64.85
324.043	54.61
324.256	15.7
324.469	60.76
324.683	62.8
324.896	40.28
325.109	75.09
325.322	-4.78
325.535	97.62
325.748	56.66
325.962	27.99
326.175	9.56
326.388	19.8
326.601	58.71
326.814	81.24
327.027	1.37
327.24	66.9
327.453	81.24
327.666	54.61
327.879	21.85
328.092	77.14
328.305	13.65
328.518	-6.83
328.731	36.18
328.944	66.9
329.157	-27.31
329.37	73.04
329.583	62.8
329.796	56.66
330.009	19.8
330.222	-2.73
330.435	89.43
330.648	56.66
330.861	19.8
331.073	71
331.286	85.33
331.499	60.76
331.712	32.08
331.925	62.8
332.138	95.57
332.35	93.52
332.563	-2.73
332.776	38.23
332.989	-10.92
333.202	134.48
333.414	54.61
333.627	97.62
333.84	5.46
334.053	34.13
334.265	19.8
334.478	42.32
334.691	48.47
334.903	38.23
335.116	5.46
335.329	11.61
335.541	95.57
335.754	81.24
335.966	38.23
336.179	50.52
336.392	81.24
336.604	64.85
336.817	54.61
337.029	68.95
337.242	-8.87
337.454	68.95
337.667	-51.88
337.88	103.76
338.092	27.99
338.305	-37.55
338.517	56.66
338.729	34.13
338.942	-0.68
339.154	40.28
339.367	19.8
339.579	66.9
339.792	34.13
340.004	75.09
340.217	11.61
340.429	101.72
340.641	-31.4
340.854	27.99
341.066	-12.97
341.278	87.38
341.491	1.37
341.703	42.32
341.915	56.66
342.128	62.8
342.34	83.28
342.552	77.14
342.764	21.85
342.977	111.96
343.189	36.18
343.401	40.28
343.613	19.8
343.826	34.13
344.038	79.19
344.25	68.95
344.462	62.8
344.674	50.52
344.886	-0.68
345.099	42.32
345.311	58.71
345.523	19.8
345.735	58.71
345.947	7.51
346.159	54.61
346.371	34.13
346.583	-4.78
346.795	124.24
347.007	40.28
347.219	79.19
347.431	114
347.643	60.76
347.855	40.28
348.067	97.62
348.279	60.76
348.491	107.86
348.703	77.14
348.915	44.37
349.127	-27.31
349.339	71
349.551	109.91
349.763	17.75
349.975	73.04
350.187	89.43
350.399	25.94
350.61	21.85
350.822	50.52
351.034	50.52
351.246	44.37
351.458	87.38
351.669	79.19
351.881	50.52
352.093	157.01
352.305	54.61
352.517	103.76
352.728	144.72
352.94	46.42
353.152	101.72
353.363	36.18
353.575	107.86
353.787	144.72
353.999	62.8
354.21	77.14
354.422	3.41
354.633	71
354.845	-17.07
355.057	54.61
355.268	60.76
355.48	81.24
355.692	44.37
355.903	77.14
356.115	34.13
356.326	66.9
356.538	85.33
356.749	122.2
356.961	97.62
357.172	116.05
357.384	54.61
357.595	132.44
357.807	71
358.018	64.85
358.23	27.99
358.441	42.32
358.653	75.09
358.864	118.1
359.075	38.23
359.287	25.94
359.498	77.14
359.709	71
359.921	66.9
360.132	11.61
360.344	71
360.555	25.94
360.766	62.8
360.977	25.94
361.189	148.82
361.4	-31.4
361.611	132.44
361.823	71
362.034	136.53
362.245	68.95
362.456	21.85
362.667	40.28
362.879	21.85
363.09	77.14
363.301	17.75
363.512	99.67
363.723	136.53
363.935	52.56
364.146	13.65
364.357	48.47
364.568	62.8
364.779	17.75
364.99	79.19
365.201	11.61
365.412	46.42
365.623	40.28
365.834	103.76
366.045	62.8
366.256	109.91
366.467	99.67
366.678	62.8
366.889	46.42
367.1	-19.11
367.311	58.71
367.522	-49.83
367.733	62.8
367.944	17.75
368.155	87.38
368.366	30.04
368.577	103.76
368.788	87.38
368.999	66.9
369.209	46.42
369.42	97.62
369.631	105.81
369.842	30.04
370.053	87.38
370.264	97.62
370.474	60.76
370.685	5.46
370.896	77.14
371.107	83.28
371.317	103.76
371.528	25.94
371.739	126.29
371.95	3.41
372.16	60.76
372.371	-68.27
372.582	75.09
372.792	34.13
373.003	93.52
373.214	21.85
373.424	52.56
373.635	19.8
373.846	97.62
374.056	79.19
374.267	109.91
374.477	136.53
374.688	-6.83
374.898	130.39
375.109	58.71
375.319	85.33
375.53	27.99
375.74	56.66
375.951	95.57
376.161	122.2
376.372	91.48
376.582	68.95
376.793	120.15
377.003	132.44
377.214	60.76
377.424	99.67
377.635	122.2
377.845	-6.83
378.055	130.39
378.266	68.95
378.476	34.13
378.686	91.48
378.897	71
379.107	77.14
379.317	89.43
379.528	79.19
379.738	120.15
379.948	56.66
380.158	103.76
380.369	97.62
380.579	-25.26
380.789	77.14
380.999	48.47
381.21	118.1
381.42	64.85
381.63	81.24
381.84	83.28
382.05	46.42
382.261	85.33
382.471	93.52
382.681	44.37
382.891	62.8
383.101	79.19
383.311	50.52
383.521	38.23
383.731	-19.11
383.941	17.75
384.151	60.76
384.361	87.38
384.571	66.9
384.781	120.15
384.991	91.48
385.201	93.52
385.411	62.8
385.621	134.48
385.831	36.18
386.041	15.7
386.251	75.09
386.461	111.96
386.671	36.18
386.881	122.2
387.091	36.18
387.301	73.04
387.511	64.85
387.72	68.95
387.93	71
388.14	60.76
388.35	64.85
388.56	148.82
388.769	103.76
388.979	46.42
389.189	13.65
389.399	75.09
389.609	105.81
389.818	77.14
390.028	118.1
390.238	89.43
390.447	19.8
390.657	124.24
390.867	93.52
391.076	87.38
391.286	134.48
391.496	116.05
391.705	71
391.915	177.49
392.125	93.52
392.334	93.52
392.544	107.86
392.753	89.43
392.963	73.04
393.172	1.37
393.382	68.95
393.591	114
393.801	93.52
394.01	191.83
394.22	136.53
394.429	206.16
394.639	122.2
394.848	79.19
395.058	79.19
395.267	99.67
395.477	68.95
395.686	144.72
395.895	171.35
396.105	107.86
396.314	120.15
396.524	44.37
396.733	58.71
396.942	159.06
397.152	95.57
397.361	99.67
397.57	105.81
397.78	124.24
397.989	163.15
398.198	132.44
398.407	105.81
398.617	171.35
398.826	111.96
399.035	167.25
399.244	152.91
399.453	193.87
399.663	87.38
399.872	187.73
400.081	116.05
400.29	95.57
400.499	75.09
400.708	126.29
400.917	189.78
401.127	136.53
401.336	181.59
401.545	179.54
401.754	193.87
401.963	251.22
402.172	107.86
402.381	154.96
402.59	99.67
402.799	144.72
403.008	185.68
403.217	132.44
403.426	95.57
403.635	181.59
403.844	101.72
404.053	191.83
404.262	159.06
404.471	197.97
404.68	243.03
404.888	181.59
405.097	175.44
405.306	189.78
405.515	208.21
405.724	279.89
405.933	240.98
406.142	173.39
406.35	212.31
406.559	247.12
406.768	281.94
406.977	234.83
407.185	271.7
407.394	273.75
407.603	230.74
407.812	275.79
408.02	341.33
408.229	349.52
408.438	318.8
408.646	269.65
408.855	275.79
409.064	335.18
409.272	365.9
409.481	341.33
409.69	386.38
409.898	312.66
410.107	353.62
410.315	417.1
410.524	341.33
410.733	429.39
410.941	478.54
411.15	484.69
411.358	525.65
411.567	521.55
411.775	488.78
411.984	656.72
412.192	626
412.401	558.41
412.609	658.76
412.818	601.42
413.026	703.82
413.234	626
413.443	709.96
413.651	628.04
413.86	675.15
414.068	685.39
414.276	812.36
414.485	828.74
414.693	777.55
414.901	898.38
415.11	873.8
415.318	914.76
415.526	1006.92
415.734	959.81
415.943	1097.03
416.151	1027.4
416.359	1043.78
416.567	1131.84
416.776	1189.19
416.984	1256.77
417.192	1162.56
417.4	1275.2
417.608	1273.15
417.817	1408.32
418.025	1406.27
418.233	1504.57
418.441	1430.85
418.649	1529.15
418.857	1574.21
419.065	1740.09
419.273	1670.46
419.481	1805.63
419.689	1856.83
419.897	1832.25
420.105	2026.81
420.313	1987.89
420.521	1983.8
420.729	2159.92
420.937	2196.79
421.145	2198.84
421.353	2391.34
421.561	2471.22
421.769	2557.23
421.977	2790.7
422.185	2669.87
422.393	2825.51
422.601	3065.13
422.809	3058.98
423.017	3169.57
423.224	3210.53
423.432	3155.24
423.64	3265.83
423.848	3566.88
424.056	3417.38
424.263	3734.81
424.471	3820.83
424.679	3953.94
424.887	4074.78
425.094	4289.81
425.302	4209.94
425.51	4379.92
425.718	4422.93
425.925	4609.3
426.133	4662.54
426.341	4941.07
426.548	5027.08
426.756	5133.57
426.964	5162.25
427.171	5565.7
427.379	5836.03
427.586	5756.16
427.794	5938.43
428.001	6233.33
428.209	6540.53
428.417	6548.72
428.624	7064.81
428.832	6796.53
429.039	7005.42
429.247	6927.6
429.454	7537.89
429.662	7898.33
429.869	7283.94
430.076	8266.97
430.284	7775.45
430.491	8395.99
430.699	8893.65
430.906	8570.07
431.114	8858.83
431.321	9176.27
431.528	9209.03
431.736	9815.23
431.943	10185.91
432.15	10024.12
432.358	9960.64
432.565	10880.18
432.772	10620.08
432.979	11234.47
433.187	11465.89
433.394	11211.95
433.601	12231.83
433.808	11994.27
434.016	12188.83
434.223	12872.85
434.43	13526.15
434.637	13102.22
434.844	14025.86
435.052	14412.92
435.259	14197.88
435.466	14118.01
435.673	14175.36
435.88	14996.59
436.087	15828.07
436.294	15860.84
436.501	15383.66
436.708	15897.7
436.915	16116.83
437.122	17056.85
437.329	17155.15
437.537	17439.82
437.743	18134.08
437.95	17990.72
438.157	18863.16
438.364	19262.51
438.571	19287.09
438.778	19424.3
438.985	21400.59
439.192	20395.04
439.399	21111.83
439.606	20544.54
439.813	22066.18
440.02	22955
440.227	22504.45
440.433	22481.92
440.64	23266.29
440.847	23002.1
441.054	23489.52
441.261	25336.79
441.467	24736.73
441.674	25508.82
441.881	26086.34
442.088	26151.88
442.294	25981.9
442.501	26737.6
442.708	27347.89
442.914	28507.04
443.121	29649.81
443.328	28863.39
443.534	31044.48
443.741	30006.16
443.948	29571.99
444.154	32023.4
444.361	31374.2
444.568	31611.76
444.774	31765.36
444.981	32060.27
445.187	33153.88
445.394	34341.71
445.6	34040.65
445.807	37350.17
446.013	35631.93
446.22	36162.35
446.426	37645.08
446.633	37903.12
446.839	39258.88
447.046	37403.42
447.252	39510.78
447.459	39777.01
447.665	39289.6
447.871	41116.39
448.078	42437.33
448.284	40428.27
448.491	41827.03
448.697	43449.02
448.903	44065.46
449.11	44272.31
449.316	43283.14
449.522	44464.81
449.728	45703.84
449.935	45451.94
450.141	45861.53
450.347	46713.48
450.553	45101.73
450.76	45744.8
450.966	47364.74
451.172	46748.3
451.378	47360.64
451.584	46422.67
451.791	47823.48
451.997	47237.76
452.203	48323.19
452.409	48147.06
452.615	47995.51
452.821	46152.34
453.027	45568.67
453.233	47708.8
453.44	45785.75
453.646	46918.28
453.852	46606.99
454.058	47266.44
454.264	45740.7
454.47	46652.05
454.676	45662.88
454.882	47135.37
455.088	43262.66
455.294	43541.18
455.5	44145.33
455.705	45243.04
455.911	43141.83
456.117	41966.29
456.323	41429.73
456.529	38968.07
456.735	40704.74
456.941	39705.34
457.147	39189.25
457.352	37763.86
457.558	37432.09
457.764	37401.37
457.97	36952.87
458.176	36305.71
458.381	35939.12
458.587	34059.09
458.793	33866.58
458.999	33006.43
459.204	34495.3
459.41	33762.13
459.616	31232.89
459.821	31423.35
460.027	31253.37
460.233	30800.77
460.438	29387.67
460.644	29438.87
460.85	28314.53
461.055	27968.43
461.261	27679.66
461.466	25910.22
461.672	25056.22
461.878	26803.13
462.083	25062.36
462.289	24378.34
462.494	24187.88
462.7	23084.02
462.905	22617.08
463.111	23165.94
463.316	23487.47
463.522	22891.51
463.727	23124.98
463.932	23118.84
464.138	22885.37
464.343	22799.35
464.549	21767.18
464.754	23116.79
464.959	22756.35
465.165	22445.05
465.37	21726.22
465.575	20907.03
465.781	21871.62
465.986	21959.69
466.191	21302.29
466.397	20669.47
466.602	19840.04
466.807	20595.74
467.012	20743.19
467.218	20536.35
467.423	19905.57
467.628	20413.47
467.833	21093.4
468.038	20276.26
468.244	19725.35
468.449	20542.49
468.654	19596.33
468.859	19620.91
469.064	19616.81
469.269	18760.76
469.474	18852.92
469.679	19444.78
469.885	18797.62
470.09	18791.48
470.295	18926.64
470.5	18508.86
470.705	18484.28
470.91	18072.64
471.115	18089.03
471.32	18422.84
471.525	17998.91
471.73	17499.21
471.935	17652.81
472.139	17007.7
472.344	17114.19
472.549	16897.11
472.754	16854.1
472.959	16536.67
473.164	16153.69
473.369	16067.68
473.574	16419.93
473.778	16211.04
473.983	16155.74
474.188	16000.1
474.393	15369.32
474.598	15492.2
474.802	15189.1
475.007	15004.78
475.212	15289.45
475.417	14531.7
475.621	14632.05
475.826	14457.98
476.031	14374.01
476.235	14271.61
476.44	14568.57
476.645	14181.5
476.849	14281.85
477.054	14142.59
477.259	13681.8
477.463	13808.77
477.668	13124.75
477.872	13540.49
478.077	13309.07
478.282	12952.72
478.486	12756.11
478.691	12749.97
478.895	12950.67
479.1	12678.29
479.304	12803.22
479.509	12586.13
479.713	12590.23
479.918	12106.91
480.122	12031.13
480.326	12215.45
480.531	12569.75
480.735	12135.58
480.94	12147.87
481.144	12539.03
481.348	11953.31
481.553	12002.46
481.757	11932.83
481.961	12082.33
482.166	12192.92
482.37	12065.95
482.574	11766.95
482.778	11924.64
482.983	11986.08
483.187	11783.33
483.391	12016.8
483.595	11779.23
483.8	11656.36
484.004	11842.72
484.208	11949.21
484.412	11754.66
484.616	11781.28
484.821	11898.02
485.025	11543.72
485.229	11908.26
485.433	11791.52
485.637	11816.1
485.841	11719.84
486.045	11938.98
486.249	11900.06
486.453	11742.37
486.657	12047.52
486.861	11734.18
487.065	11599.01
487.269	11818.14
487.473	11472.04
487.677	11832.48
487.881	11965.6
488.085	11685.03
488.289	11818.14
488.493	11967.65
488.697	11898.02
488.901	11842.72
489.105	11859.1
489.309	11844.77
489.512	12147.87
489.716	12008.61
489.92	11965.6
490.124	12063.9
490.328	12201.12
490.531	11867.3
490.735	11938.98
490.939	12192.92
491.143	12014.75
491.346	12225.69
491.55	12215.45
491.754	12309.66
491.958	12352.66
492.161	12471.45
492.365	12278.94
492.569	12422.3
492.772	12553.37
492.976	12528.79
493.18	12518.55
493.383	12878.99
493.587	12899.47
493.79	13227.15
493.994	12825.75
494.197	12891.28
494.401	12995.73
494.605	12924.05
494.808	13362.31
495.012	13456.52
495.215	13304.97
495.419	13626.5
495.622	13638.79
495.825	13694.08
496.029	13573.25
496.232	14099.58
496.436	13735.04
496.639	14445.69
496.843	14306.43
497.046	14558.33
497.249	14724.21
497.453	14799.99
497.656	15137.9
497.859	15250.54
498.063	15137.9
498.266	15369.32
498.469	15496.3
498.673	15674.47
498.876	15869.03
499.079	16266.33
499.282	15787.11
499.485	16557.14
499.689	16391.26
499.892	16620.63
500.095	16698.45
500.298	17151.06
500.501	16858.2
500.705	17839.17
500.908	17683.53
501.111	17693.77
501.314	17945.67
501.517	18287.68
501.72	18328.64
501.923	18338.88
502.126	18904.12
502.329	19166.26
502.532	19063.86
502.735	19256.37
502.938	19604.52
503.141	19919.91
503.344	20063.27
503.547	20046.88
503.75	20286.5
503.953	20691.99
504.156	21013.52
504.359	21111.83
504.562	21165.07
504.765	21711.88
504.968	21971.97
505.17	22144
505.373	21793.8
505.576	22377.47
505.779	22682.62
505.982	22928.38
506.185	23438.32
506.387	23356.4
506.59	23935.98
506.793	23782.38
506.996	24024.04
507.198	24585.18
507.401	24552.41
507.604	24601.57
507.807	25347.03
508.009	25609.17
508.212	25721.8
508.415	26008.52
508.617	26399.68
508.82	26184.65
509.022	26282.95
509.225	26868.67
509.428	27210.68
509.63	27005.88
509.833	27589.55
510.035	28447.65
510.238	28015.53
510.44	28683.17
510.643	28986.27
510.845	29277.08
511.048	29191.06
511.25	29410.2
511.453	29797.26
511.655	31267.7
511.858	29957
512.06	30626.69
512.262	31212.41
512.465	30970.75
512.667	31519.6
512.87	32277.35
513.072	32007.02
513.274	32531.3
513.477	32633.7
513.679	33170.27
513.881	33676.12
514.084	33712.98
514.286	33536.85
514.488	34089.81
514.69	35009.34
514.893	35017.53
515.095	34949.95
515.297	35652.41
515.499	35314.49
515.701	35984.18
515.904	36238.12
516.106	36842.28
516.308	37128.99
516.51	37575.45
516.712	37659.41
516.914	38064.91
517.116	38656.78
517.318	38251.28
517.52	38808.33
517.722	39031.55
517.925	39396.09
518.127	39721.72
518.329	40270.57
518.531	40086.26
518.733	40704.74
518.935	41317.09
519.136	41116.39
519.338	41822.94
519.54	41728.73
519.742	42285.78
519.944	42494.67
520.146	43172.55
520.348	43696.83
520.55	43580.09
520.752	43891.38
520.954	44579.5
521.155	43889.34
521.357	45214.37
521.559	45302.43
521.761	45935.26
521.963	45654.68
522.164	46111.38
522.366	45843.1
522.568	46631.57
522.77	47012.49
522.971	47590.02
523.173	47135.37
523.375	47794.81
523.576	47598.21
523.778	48005.75
523.98	48568.94
524.181	48388.72
524.383	48241.27
524.584	49388.13
524.786	49179.24
524.988	49271.4
525.189	49678.94
525.391	50084.44
525.592	50299.48
525.794	50772.56
525.995	50692.69
526.197	50776.65
526.398	51018.31
526.6	51362.37
526.801	51450.44
527.003	51810.88
527.204	51714.62
527.406	52546.1
527.607	52068.92
527.808	52345.4
528.01	51952.19
528.211	52449.85
528.412	53467.69
528.614	52900.4
528.815	52951.6
529.016	53344.81
529.218	52933.17
529.419	53498.4
529.62	53664.29
529.822	53254.7
530.023	53385.77
530.224	53762.59
530.425	54012.45
530.626	53553.7
530.828	53848.61
531.029	54843.92
531.23	53781.02
531.431	54110.75
531.632	54135.32
531.833	54368.79
532.035	54450.71
532.236	54491.67
532.437	54557.2
532.638	54819.34
532.839	54876.69
533.04	55101.96
533.241	54641.17
533.442	55024.14
533.643	54663.7
533.844	54835.73
534.045	55126.54
534.246	54436.37
534.447	55020.05
534.648	54688.27
534.849	55001.61
535.05	54594.07
535.251	55468.55
535.451	54688.27
535.652	55233.03
535.853	55177.74
536.054	55269.9
536.255	55474.69
536.456	54983.18
536.657	55630.34
536.857	54776.34
537.058	55171.6
537.259	55671.3
537.46	55517.7
537.66	54854.16
537.861	55118.35
538.062	54815.25
538.263	55122.44
538.463	54770.19
538.664	54954.51
538.865	55296.52
539.065	55566.85
539.266	54442.52
539.466	55210.51
539.667	54440.47
539.868	55491.08
540.068	55325.19
540.269	54766.1
540.469	54987.28
540.67	55204.36
540.87	54815.25
541.071	54987.28
541.271	55208.46
541.472	55202.31
541.672	54809.1
541.873	55167.5
542.073	54409.75
542.274	55015.95
542.474	54688.27
542.675	54333.98
542.875	55540.23
543.075	54848.02
543.276	54155.8
543.476	55239.18
543.676	54354.46
543.877	55286.28
544.077	54952.46
544.277	54790.67
544.478	54794.77
544.678	55308.81
544.878	55271.95
545.078	54788.63
545.279	54413.85
545.479	54127.13
545.679	54424.09
545.879	54684.18
546.079	54583.83
546.28	54977.04
546.48	54317.59
546.68	54589.97
546.88	54503.96
547.08	54368.79
547.28	54303.26
547.48	53828.13
547.68	54508.05
547.88	54172.19
548.081	54825.49
548.281	54475.29
548.481	54012.45
548.681	54141.47
548.881	54499.86
549.081	54151.71
549.28	53766.69
549.48	54286.87
549.68	53813.79
549.88	54639.12
550.08	53938.72
550.28	54284.82
550.48	53721.63
550.68	54344.22
550.88	53338.66
551.08	54385.18
551.279	54350.36
551.479	53535.27
551.679	54127.13
551.879	53525.03
552.079	54094.36
552.278	53828.13
552.478	53789.22
552.678	53836.32
552.878	53918.24
553.077	53707.3
553.277	53275.18
553.477	54118.94
553.676	53459.49
553.876	53637.67
554.076	53639.71
554.275	53262.89
554.475	52943.41
554.674	53445.16
554.874	53488.17
555.074	53246.5
555.273	53336.62
555.473	53588.52
555.672	52615.73
555.872	53070.38
556.071	53105.19
556.271	53070.38
556.47	52685.36
556.67	52472.37
556.869	52838.96
557.068	53113.39
557.268	52640.31
557.467	52730.42
557.667	52566.58
557.866	52693.55
558.065	52363.83
558.265	52255.29
558.464	51903.04
558.663	52976.17
558.863	51894.85
559.062	52638.26
559.261	51782.21
559.461	52523.57
559.66	51423.81
559.859	51993.15
560.058	51708.48
560.258	51409.48
560.457	51657.28
560.656	52128.31
560.855	51548.74
561.054	51731.01
561.253	51216.97
561.453	51225.16
561.652	51208.78
561.851	51389
562.05	50946.64
562.249	50457.17
562.448	51223.11
562.647	50872.91
562.846	51067.47
563.045	50655.82
563.244	49904.22
563.443	50625.1
563.642	49885.79
563.841	50397.78
564.04	49844.83
564.239	50293.33
564.438	49705.57
564.637	49961.56
564.836	49726.05
565.035	49414.76
565.234	49511.01
565.432	49191.53
565.631	48953.96
565.83	49355.36
566.029	48773.74
566.228	49138.28
566.427	48820.84
566.625	48728.69
566.824	48317.04
567.023	48734.83
567.222	47952.51
567.42	48812.65
567.619	48411.25
567.818	48460.4
568.016	47798.91
568.215	48071.29
568.414	48009.85
568.612	48255.6
568.811	47493.76
569.01	48013.94
569.208	47059.59
569.407	47608.45
569.605	46953.1
569.804	47592.06
570.002	47004.3
570.201	47184.52
570.4	46234.26
570.598	46504.59
570.797	46447.25
570.995	46371.47
571.193	46017.18
571.392	46367.38
571.59	45728.41
571.789	45996.7
571.987	46047.89
572.186	45916.82
572.384	45521.57
572.582	45619.87
572.781	45591.2
572.979	44937.9
573.177	44890.79
573.376	45675.16
573.574	44679.85
573.772	45019.81
573.971	44874.41
574.169	44524.21
574.367	44659.37
574.565	44663.47
574.763	44419.76
574.962	43979.45
575.16	43641.53
575.358	43893.43
575.556	43555.52
575.754	44159.67
575.952	43590.33
576.151	43827.9
576.349	43016.9
576.547	43270.85
576.745	43248.32
576.943	43555.52
577.141	43002.57
577.339	42953.41
577.537	43004.61
577.735	43023.04
577.933	42556.11
578.131	42312.4
578.329	42369.74
578.527	41867.99
578.725	42031.83
578.923	42353.36
579.121	41781.98
579.319	41624.28
579.516	42287.82
579.714	41956.05
579.912	41722.58
580.11	41468.64
580.308	41663.19
580.506	41536.22
580.704	40590.06
580.901	40966.88
581.099	41532.12
581.297	40633.07
581.495	40631.02
581.692	41073.38
581.89	40323.82
582.088	40502
582.285	40379.12
582.483	40368.88
582.681	40084.21
582.878	39901.94
583.076	39469.82
583.274	39940.85
583.471	39564.03
583.669	39897.84
583.866	39019.27
584.064	39435
584.262	38734.6
584.459	39254.78
584.657	38986.5
584.854	39328.51
585.052	38124.3
585.249	38949.64
585.447	38628.1
585.644	38347.53
585.841	38724.36
586.039	38667.02
586.236	37862.16
586.434	38574.86
586.631	37778.2
586.828	38058.77
587.026	37485.34
587.223	37753.62
587.42	37532.44
587.618	37618.46
587.815	36981.54
588.012	37190.43
588.21	37399.32
588.407	37108.51
588.604	37253.92
588.801	36680.49
588.999	36600.61
589.196	36336.43
589.393	36541.22
589.59	36807.46
589.787	36401.96
589.984	36389.67
590.182	35765.04
590.379	36117.29
590.576	35908.4
590.773	35717.94
590.97	35504.95
591.167	35826.48
591.364	35269.44
591.561	35683.12
591.758	35529.53
591.955	35261.24
592.152	35064.64
592.349	34751.3
592.546	35005.25
592.743	35029.82
592.94	34554.69
593.137	34870.08
593.334	34558.79
593.531	34081.61
593.727	34339.66
593.924	34376.52
594.121	33663.83
594.318	34392.9
594.515	34024.27
594.712	34153.29
594.908	33774.42
595.105	33665.88
595.302	33442.65
595.499	33790.8
595.696	32965.47
595.892	32760.67
596.089	33174.36
596.286	33190.75
596.482	32897.89
596.679	32916.32
596.876	33149.79
597.072	32658.28
597.269	32775.01
597.466	32371.56
597.662	32539.49
597.859	32451.43
598.055	32693.09
598.252	31921.01
598.448	32252.78
598.645	32330.6
598.841	31654.77
599.038	31681.39
599.234	31730.55
599.431	31439.73
599.627	31214.46
599.824	31488.88
600.02	31421.3
600.217	31126.39
600.413	30835.58
600.609	30628.74
600.806	30667.65
601.002	31046.52
601.198	30514.05
601.395	30643.07
601.591	30645.12
601.787	30616.45
601.984	30106.51
602.18	30585.73
602.376	29991.82
602.572	29924.24
602.769	29895.57
602.965	29811.6
603.161	29647.76
603.357	29766.54
603.553	29442.96
603.75	29754.26
603.946	29320.09
604.142	29612.95
604.338	28879.77
604.534	29438.87
604.73	28810.14
604.926	28795.81
605.122	28787.61
605.318	28824.48
605.514	28517.28
605.71	28410.79
605.906	28801.95
606.102	28695.46
606.298	28765.09
606.494	28601.25
606.69	28398.5
606.886	28398.5
607.082	27591.6
607.278	28568.48
607.474	27710.38
607.67	28382.12
607.866	27368.37
608.062	28271.53
608.257	27827.12
608.453	28171.18
608.649	27663.28
608.845	27585.46
609.041	27343.8
609.236	27802.54
609.432	27376.56
609.628	27317.17
609.824	27186.1
610.019	27470.77
610.215	27339.7
610.411	27222.97
610.606	27130.81
610.802	27104.18
610.998	26991.55
611.193	26641.34
611.389	26825.66
611.584	26960.83
611.78	26201.03
611.976	26831.8
612.171	26956.73
612.367	26608.58
612.562	26495.94
612.758	25936.84
612.953	25930.7
613.149	26346.44
613.344	25805.77
613.539	26467.27
613.735	26237.89
613.93	26055.62
614.126	25863.11
614.321	26069.96
614.517	26330.05
614.712	26117.06
614.907	25983.94
615.103	25607.12
615.298	25560.02
615.493	26026.95
615.688	25142.23
615.884	26063.82
616.079	25144.28
616.274	25871.31
616.47	25654.22
616.665	25504.72
616.86	25437.14
617.055	25500.62
617.25	25021.4
617.445	25564.11
617.641	24765.4
617.836	25240.53
618.031	24962.01
618.226	25002.97
618.421	24761.31
618.616	24945.62
618.811	24554.46
619.006	25076.69
619.201	24087.53
619.396	24351.71
619.591	24329.19
619.786	24181.73
619.981	23694.32
620.176	24198.12
620.371	24030.18
620.566	24015.85
620.761	23860.2
620.956	23897.06
621.151	23184.37
621.346	23639.02
621.541	23286.77
621.735	23571.44
621.93	23086.07
622.125	23315.44
622.32	22922.23
622.515	22897.66
622.709	22709.24
622.904	22610.94
623.099	22590.46
623.294	22653.95
623.488	22219.78
623.683	22383.62
623.878	21908.49
624.072	22311.94
624.267	21980.17
624.462	21926.92
624.656	21775.37
624.851	21769.23
625.046	21449.74
625.24	21388.3
625.435	21132.31
625.629	21251.09
625.824	20829.21
626.018	20980.76
626.213	20345.89
626.407	20763.67
626.602	20507.68
626.796	20532.25
626.991	20493.34
627.185	20231.2
627.38	20161.57
627.574	19928.1
627.768	20098.08
627.963	19766.31
628.157	19694.63
628.352	19549.23
628.546	19698.73
628.74	19412.01
628.935	19235.89
629.129	19516.46
629.323	19209.26
629.517	19223.6
629.712	18857.01
629.906	18691.13
630.1	18670.65
630.294	18648.12
630.489	18623.55
630.683	18562.11
630.877	18084.93
631.071	17972.29
631.265	18234.43
631.459	18056.26
631.653	18183.23
631.848	17992.77
632.042	17798.21
632.236	17777.73
632.43	17620.04
632.624	17525.83
632.818	17376.33
633.012	17081.42
633.206	17130.58
633.4	17300.56
633.594	16981.07
633.788	16788.57
633.982	17144.91
634.176	16827.48
634.369	16561.24
634.563	16862.29
634.757	16313.44
634.951	16424.03
635.145	16397.4
635.339	16516.19
635.533	16204.89
635.726	16088.16
635.92	15961.19
636.114	15887.46
636.308	16061.54
636.501	15809.64
636.695	15662.18
636.889	15715.43
637.083	15670.37
637.276	15699.05
637.47	15496.3
637.664	15379.56
637.857	15342.7
638.051	15127.66
638.244	15035.5
638.438	15074.42
638.632	15023.22
638.825	14898.29
639.019	14697.59
639.212	14820.47
639.406	14808.18
639.599	14541.94
639.793	14531.7
639.986	14173.31
640.18	14333.05
640.373	14304.38
640.567	14185.6
640.76	14300.28
640.954	14077.05
641.147	13988.99
641.34	13991.04
641.534	13710.47
641.727	13851.78
641.92	13661.32
642.114	13540.49
642.307	13423.75
642.5	13274.25
642.694	13247.63
642.887	13194.38
643.08	13358.22
643.273	13186.19
643.467	13223.05
643.66	13032.59
643.853	12842.13
644.046	12719.25
644.239	12762.26
644.432	12991.63
644.626	12663.96
644.819	12309.66
645.012	12723.35
645.205	12446.87
645.398	12534.93
645.591	12223.64
645.784	12379.29
645.977	12197.02
646.17	12213.4
646.363	11957.41
646.556	11879.58
646.749	12108.96
646.942	11981.98
647.135	11891.87
647.328	11805.86
647.521	11570.34
647.714	11519.14
647.907	11820.19
648.099	11547.81
648.292	11711.65
648.485	11513
648.678	11392.17
648.871	11224.23
649.064	11310.25
649.256	11189.42
649.449	11093.16
649.642	11013.29
649.835	10929.33
650.027	11007.15
650.22	10917.04
650.413	10587.32
650.605	10859.7
650.798	10757.3
650.991	10511.54
651.183	10685.62
651.376	10462.39
651.568	10669.23
651.761	10308.79
651.954	10347.7
652.146	10308.79
652.339	10294.46
652.531	10325.18
652.724	10265.78
652.916	10022.08
653.109	9940.16
653.301	10089.66
653.494	10167.48
653.686	9888.96
653.879	9934.01
654.071	9845.95
654.263	9661.63
654.456	9718.98
654.648	9678.02
654.84	9262.28
655.033	9385.16
655.225	9540.8
655.417	9475.27
655.61	9555.14
655.802	9559.24
655.994	9178.31
656.186	9186.51
656.379	9192.65
656.571	9440.45
656.763	9118.92
656.955	9006.28
657.148	9143.5
657.34	9133.26
657.532	8772.82
657.724	8787.15
657.916	8854.73
658.108	8654.03
658.3	8778.96
658.492	8922.32
658.684	8641.75
658.876	8594.64
659.068	8398.04
659.26	8518.87
659.452	8381.65
659.644	8402.13
659.836	8365.27
660.028	8303.83
660.22	8226.01
660.412	8244.44
660.604	8176.86
660.796	7869.66
660.988	8037.59
661.18	8000.73
661.372	7939.29
661.563	8101.08
661.755	7927
661.947	7918.81
662.139	7886.04
662.331	7845.09
662.522	7759.07
662.714	7718.11
662.906	7671.01
663.097	7548.13
663.289	7675.1
663.481	7523.55
663.673	7421.16
663.864	7267.56
664.056	7292.13
664.247	7552.23
664.439	7372
664.631	7216.36
664.822	7468.26
665.014	7236.84
665.205	7238.89
665.397	7079.15
665.588	7308.52
665.78	7214.31
665.971	7222.5
666.163	7163.11
666.354	6896.88
666.546	6915.31
666.737	7062.76
666.929	6986.99
667.12	6780.14
667.311	6878.44
667.503	6642.93
667.694	6710.51
667.885	6880.49
668.077	6728.94
668.268	6581.49
668.459	6624.5
668.651	6581.49
668.842	6634.74
669.033	6530.29
669.224	6501.62
669.416	6563.06
669.607	6505.71
669.798	6448.37
669.989	6438.13
670.18	6317.3
670.371	6438.13
670.563	6110.46
670.754	6501.62
670.945	6315.25
671.136	6241.53
671.327	6419.7
671.518	6376.69
671.709	6264.05
671.9	6348.02
672.091	6210.81
672.282	6079.74
672.473	6137.08
672.664	6141.18
672.855	5926.14
673.046	6141.18
673.237	6053.11
673.428	6014.2
673.619	5965.05
673.809	5985.53
674	5944.57
674.191	5874.94
674.382	5866.75
674.573	5870.84
674.764	5864.7
674.954	5854.46
675.145	5790.97
675.336	5780.73
675.527	5823.74
675.717	5829.88
675.908	5668.09
676.099	5754.11
676.289	5688.57
676.48	5577.98
676.671	5567.74
676.861	5516.55
677.052	5477.63
677.243	5477.63
677.433	5555.46
677.624	5676.29
677.814	5551.36
678.005	5526.78
678.195	5438.72
678.386	5510.4
678.576	5461.25
678.767	5346.56
678.957	5438.72
679.148	5481.73
679.338	5416.19
679.529	5442.82
679.719	5477.63
679.909	5420.29
680.1	5342.47
680.29	5514.5
680.481	5434.63
680.671	5416.19
680.861	5311.75
681.052	5422.34
681.242	5303.56
681.432	5305.6
681.622	5201.16
681.813	5260.55
682.003	5149.96
682.193	5221.64
682.383	5350.66
682.573	5127.43
682.764	5174.53
682.954	5084.42
683.144	5197.06
683.334	5063.94
683.524	5039.37
683.714	5139.72
683.904	5141.77
684.094	5051.66
684.284	5182.73
684.474	5065.99
684.664	4951.31
684.854	5111.05
685.044	4936.97
685.234	4869.39
685.424	4928.78
685.614	4838.67
685.804	4988.17
685.994	4920.59
686.184	4908.3
686.374	5018.89
686.564	4734.22
686.753	4973.83
686.943	4883.72
687.133	4848.91
687.323	4734.22
687.513	4783.37
687.702	4662.54
687.892	4662.54
688.082	4832.52
688.272	4805.9
688.461	4680.97
688.651	4910.35
688.841	4723.98
689.03	4699.41
689.22	4619.53
689.41	4588.82
689.599	4498.7
689.789	4486.42
689.979	4461.84
690.168	4490.51
690.358	4267.28
690.547	4347.15
690.737	4424.98
690.926	4410.64
691.116	4353.3
691.305	4361.49
691.495	4293.91
691.684	4252.95
691.874	4388.11
692.063	4338.96
692.252	4295.96
692.442	4302.1
692.631	4211.99
692.82	4177.17
693.01	4089.11
693.199	4158.74
693.388	4191.51
693.578	4140.31
693.767	4211.99
693.956	4119.83
694.146	4095.25
694.335	4121.88
694.524	3829.02
694.713	3968.28
694.902	4134.17
695.092	4027.67
695.281	4007.19
695.47	3999
695.659	3935.51
695.848	3960.09
696.037	4052.25
696.226	4029.72
696.415	3931.42
696.604	3921.18
696.793	4044.06
696.982	3943.71
697.171	3888.41
697.36	3697.95
697.549	3876.12
697.738	3757.34
697.927	3777.82
698.116	3906.84
698.305	3759.39
698.494	3779.87
698.683	3818.78
698.872	3884.31
699.061	3826.97
699.25	3751.2
699.438	3908.89
699.627	3757.34
699.816	3740.96
700.005	3806.49
700.193	3700
700.382	3904.79
700.571	3790.11
700.76	3618.08
700.948	3720.48
701.137	3818.78
701.326	3560.73
701.514	3710.24
701.703	3771.68
701.892	3650.85
702.08	3745.05
702.269	3659.04
702.457	3740.96
702.646	3710.24
702.834	3585.31
703.023	3706.14
703.212	3700
703.4	3661.09
703.589	3538.21
703.777	3587.36
703.965	3659.04
704.154	3603.74
704.342	3581.21
704.531	3560.73
704.719	3540.26
704.907	3638.56
705.096	3599.65
705.284	3568.93
705.472	3534.11
705.661	3478.82
705.849	3591.45
706.037	3632.41
706.226	3675.42
706.414	3570.97
706.602	3622.17
706.79	3673.37
706.979	3556.64
707.167	3517.73
707.355	3564.83
707.543	3593.5
707.731	3628.32
707.919	3552.54
708.107	3626.27
708.296	3519.78
708.484	3507.49
708.672	3634.46
708.86	3499.3
709.048	3599.65
709.236	3564.83
709.424	3482.91
709.612	3493.15
709.8	3527.97
709.988	3525.92
710.176	3505.44
710.364	3601.69
710.551	3499.3
710.739	3544.35
710.927	3433.76
711.115	3505.44
711.303	3603.74
711.491	3456.29
711.679	3392.8
711.866	3497.25
712.054	3597.6
712.242	3511.58
712.43	3652.89
712.617	3495.2
712.805	3491.1
712.993	3450.14
713.181	3513.63
713.368	3523.87
713.556	3630.37
713.744	3341.6
713.931	3521.82
714.119	3433.76
714.306	3503.39
714.494	3593.5
714.682	3452.19
714.869	3308.83
715.057	3489.06
715.244	3482.91
715.432	3544.35
715.619	3323.17
715.807	3472.67
715.994	3558.69
716.182	3544.35
716.369	3458.34
716.556	3431.71
716.744	3482.91
716.931	3415.33
717.119	3521.82
717.306	3503.39
717.493	3452.19
717.681	3507.49
717.868	3489.06
718.055	3589.41
718.242	3511.58
718.43	3634.46
718.617	3487.01
718.804	3536.16
718.991	3521.82
719.179	3450.14
719.366	3454.24
719.553	3538.21
719.74	3464.48
719.927	3439.9
720.114	3466.53
720.301	3538.21
720.488	3507.49
720.676	3452.19
720.863	3573.02
721.05	3472.67
721.237	3642.65
721.424	3392.8
721.611	3409.19
721.798	3327.27
721.985	3495.2
722.172	3400.99
722.358	3452.19
722.545	3466.53
722.732	3472.67
722.919	3454.24
723.106	3470.62
723.293	3534.11
723.48	3405.09
723.667	3452.19
723.853	3323.17
724.04	3607.84
724.227	3433.76
724.414	3462.43
724.6	3497.25
724.787	3530.02
724.974	3511.58
725.161	3446.05
725.347	3409.19
725.534	3503.39
725.72	3429.66
725.907	3470.62
726.094	3446.05
726.28	3366.18
726.467	3405.09
726.653	3484.96
726.84	3382.56
727.027	3468.58
727.213	3388.71
727.4	3444
727.586	3550.5
727.773	3456.29
727.959	3317.03
728.145	3423.52
728.332	3419.43
728.518	3329.31
728.705	3249.44
728.891	3261.73
729.077	3521.82
729.264	3433.76
729.45	3323.17
729.636	3380.51
729.823	3341.6
730.009	3341.6
730.195	3378.47
730.382	3405.09
730.568	3247.4
730.754	3491.1
730.94	3362.08
731.126	3274.02
731.313	3335.46
731.499	3329.31
731.685	3263.78
731.871	3188
732.057	3265.83
732.243	3314.98
732.429	3274.02
732.615	3341.6
732.801	3188
732.987	3364.13
733.173	3312.93
733.359	3319.07
733.545	3249.44
733.731	3355.94
733.917	3362.08
734.103	3222.82
734.289	3319.07
734.475	3190.05
734.661	3345.7
734.847	3175.72
735.033	3261.73
735.219	3202.34
735.404	3245.35
735.59	3136.81
735.776	3196.2
735.962	3226.92
736.148	3192.1
736.333	3138.85
736.519	3167.52
736.705	3233.06
736.89	3198.24
737.076	3079.46
737.262	2972.97
737.447	3163.43
737.633	3159.33
737.819	3120.42
738.004	3132.71
738.19	3083.56
738.375	3056.93
738.561	2972.97
738.747	3022.12
738.932	3147.05
739.118	3112.23
739.303	3001.64
739.489	3011.88
739.674	2997.54
739.859	2942.25
740.045	2977.06
740.23	2950.44
740.416	3001.64
740.601	2983.21
740.786	2925.86
740.972	3007.78
741.157	2979.11
741.342	2929.96
741.528	2929.96
741.713	3034.41
741.898	2921.77
742.084	2956.58
742.269	2923.82
742.454	2884.91
742.639	2852.14
742.824	2815.27
743.01	2940.2
743.195	2901.29
743.38	2788.65
743.565	2800.94
743.75	2817.32
743.935	2848.04
744.12	2895.15
744.305	2839.85
744.49	2823.47
744.675	2762.03
744.86	2725.16
745.045	2831.66
745.23	2680.11
745.415	2721.07
745.6	2641.2
745.785	2602.29
745.97	2725.16
746.155	2510.13
746.34	2651.44
746.525	2639.15
746.71	2639.15
746.895	2546.99
747.079	2577.71
747.264	2585.9
747.449	2610.48
747.634	2514.22
747.819	2469.17
748.003	2405.68
748.188	2569.52
748.373	2491.7
748.557	2532.65
748.742	2495.79
748.927	2430.26
749.111	2252.08
749.296	2381.1
749.481	2405.68
749.665	2317.62
749.85	2334
750.034	2401.58
750.219	2237.75
750.404	2237.75
750.588	2182.45
750.773	2264.37
750.957	2180.4
751.141	2446.64
751.326	2276.66
751.51	2272.56
751.695	2088.25
751.879	2147.64
752.064	2319.67
752.248	2090.29
752.432	2143.54
752.617	2164.02
752.801	2157.88
752.985	2002.23
753.17	2112.82
753.354	2004.28
753.538	1977.66
753.722	1901.88
753.907	2014.52
754.091	1996.09
754.275	2006.33
754.459	2000.18
754.643	1994.04
754.828	1891.64
755.012	1881.4
755.196	1807.67
755.38	1828.15
755.564	1830.2
755.748	1842.49
755.932	1930.55
756.116	1846.59
756.3	1789.24
756.484	1770.81
756.668	1680.7
756.852	1654.08
757.036	1672.51
757.22	1643.84
757.404	1717.56
757.588	1713.47
757.772	1756.47
757.956	1695.04
758.14	1766.71
758.323	1701.18
758.507	1713.47
758.691	1621.31
758.875	1606.97
759.059	1582.4
759.242	1654.08
759.426	1557.82
759.61	1602.88
759.794	1555.77
759.977	1629.5
760.161	1686.84
760.345	1580.35
760.528	1662.27
760.712	1580.35
760.895	1512.77
761.079	1463.62
761.263	1447.23
761.446	1469.76
761.63	1504.57
761.813	1549.63
761.997	1529.15
762.18	1578.3
762.364	1422.66
762.547	1418.56
762.731	1494.33
762.914	1379.65
763.098	1383.74
763.281	1428.8
763.464	1475.9
763.648	1426.75
763.831	1559.87
764.015	1486.14
764.198	1359.17
764.381	1391.94
764.564	1291.59
764.748	1367.36
764.931	1338.69
765.114	1416.51
765.297	1303.87
765.481	1344.83
765.664	1314.11
765.847	1254.72
766.03	1412.42
766.213	1297.73
766.397	1273.15
766.58	1299.78
766.763	1224
766.946	1320.26
767.129	1226.05
767.312	1256.77
767.495	1393.98
767.678	1324.35
767.861	1256.77
768.044	1246.53
768.227	1219.91
768.41	1283.39
768.593	1369.41
768.776	1234.24
768.959	1236.29
769.142	1291.59
769.324	1336.64
769.507	1281.35
769.69	1244.48
769.873	1144.13
770.056	1234.24
770.239	1203.52
770.421	1176.9
770.604	1140.04
770.787	1160.52
770.97	1211.71
771.152	1080.64
771.335	1129.8
771.518	1111.36
771.7	1056.07
771.883	1197.38
772.066	1174.85
772.248	1094.98
772.431	1109.32
772.613	1168.71
772.796	1082.69
772.978	1082.69
773.161	1078.6
773.343	980.29
773.526	990.53
773.708	1078.6
773.891	1000.77
774.073	959.81
774.256	1070.4
774.438	1107.27
774.621	1027.4
774.803	1035.59
774.985	918.86
775.168	1051.97
775.35	955.72
775.532	1023.3
775.715	988.49
775.897	1008.97
776.079	929.1
776.261	988.49
776.444	894.28
776.626	894.28
776.808	888.14
776.99	908.62
777.173	1000.77
777.355	888.14
777.537	904.52
777.719	939.33
777.901	781.64
778.083	838.98
778.265	841.03
778.447	925
778.629	828.74
778.811	804.17
778.993	898.38
779.175	841.03
779.357	855.37
779.539	750.92
779.721	877.9
779.903	793.93
780.085	853.32
780.267	787.79
780.449	857.42
780.631	767.31
780.812	836.94
780.994	779.59
781.176	709.96
781.358	654.67
781.54	742.73
781.721	822.6
781.903	806.22
782.085	632.14
782.267	750.92
782.448	683.34
782.63	757.07
782.812	617.8
782.993	689.48
783.175	642.38
783.357	632.14
783.538	781.64
783.72	681.29
783.901	644.43
784.083	613.71
784.264	662.86
784.446	646.48
784.627	576.84
784.809	671.05
784.99	650.57
785.172	636.24
785.353	611.66
785.535	675.15
785.716	660.81
785.897	623.95
786.079	609.61
786.26	638.28
786.441	640.33
786.623	519.5
786.804	648.52
786.985	607.56
787.167	566.6
787.348	544.08
787.529	537.93
787.71	603.47
787.891	558.41
788.073	488.78
788.254	550.22
788.435	626
788.616	580.94
788.797	466.25
788.978	546.12
789.159	503.12
789.34	578.89
789.522	554.32
789.703	456.01
789.884	486.73
790.065	480.59
790.246	460.11
790.427	595.28
790.607	496.97
790.788	511.31
790.969	449.87
791.15	408.91
791.331	453.97
791.512	447.82
791.693	492.88
791.874	423.25
792.054	539.98
792.235	484.69
792.416	449.87
792.597	503.12
792.778	449.87
792.958	484.69
793.139	443.73
793.32	492.88
793.5	415.05
793.681	423.25
793.862	410.96
794.042	341.33
794.223	333.14
794.404	410.96
794.584	408.91
794.765	451.92
794.945	453.97
795.126	275.79
795.306	435.53
795.487	408.91
795.667	337.23
795.848	406.86
796.028	300.37
796.209	415.05
796.389	351.57
796.57	398.67
796.75	396.62
796.93	437.58
797.111	390.48
797.291	365.9
797.471	406.86
797.652	415.05
797.832	359.76
798.012	380.24
798.192	322.9
798.373	357.71
798.553	353.62
798.733	394.58
798.913	296.27
799.093	331.09
799.274	337.23
799.454	378.19
799.634	363.86
799.814	324.94
799.994	357.71
800.174	382.29
800.354	275.79
800.534	288.08
800.714	286.03
800.894	255.31
801.074	251.22
801.254	335.18
801.434	357.71
801.614	281.94
801.794	322.9
801.974	744.78
802.154	265.55
802.334	357.71
802.514	249.17
802.693	261.46
802.873	228.69
803.053	337.23
803.233	353.62
803.413	253.27
803.592	347.47
803.772	281.94
803.952	257.36
804.131	224.59
804.311	253.27
804.491	300.37
804.67	247.12
804.85	300.37
805.03	335.18
805.209	331.09
805.389	224.59
805.568	245.07
805.748	220.5
805.928	277.84
806.107	349.52
806.287	322.9
806.466	263.51
806.646	283.98
806.825	318.8
807.004	232.79
807.184	243.03
807.363	271.7
807.543	193.87
807.722	292.18
807.901	281.94
808.081	251.22
808.26	253.27
808.439	263.51
808.619	275.79
808.798	335.18
808.977	206.16
809.156	306.51
809.336	281.94
809.515	263.51
809.694	195.92
809.873	116.05
810.052	238.93
810.231	251.22
810.411	214.35
810.59	220.5
810.769	197.97
810.948	222.55
811.127	218.45
811.306	228.69
811.485	230.74
811.664	228.69
811.843	144.72
812.022	259.41
812.201	200.02
812.38	214.35
812.559	163.15
812.737	261.46
812.916	138.58
813.095	107.86
813.274	181.59
813.453	224.59
813.632	230.74
813.811	236.88
813.989	226.64
814.168	191.83
814.347	167.25
814.526	218.45
814.704	224.59
814.883	232.79
815.062	216.4
815.24	171.35
815.419	181.59
815.598	157.01
815.776	183.63
815.955	85.33
816.133	146.77
816.312	189.78
816.49	175.44
816.669	148.82
816.847	157.01
817.026	255.31
817.204	118.1
817.383	183.63
817.561	157.01
817.74	185.68
817.918	179.54
818.097	183.63
818.275	161.11
818.453	179.54
818.632	183.63
818.81	161.11
818.988	197.97
819.167	181.59
819.345	99.67
819.523	206.16
819.701	187.73
819.879	150.87
820.058	169.3
820.236	267.6
820.414	116.05
820.592	167.25
820.77	181.59
820.948	154.96
821.127	161.11
821.305	107.86
821.483	202.07
821.661	138.58
821.839	148.82
822.017	107.86
822.195	150.87
822.373	183.63
822.551	134.48
822.729	140.63
822.907	173.39
823.085	175.44
823.262	165.2
823.44	120.15
823.618	71
823.796	128.34
823.974	154.96
824.152	267.6
824.329	120.15
824.507	159.06
824.685	99.67
824.863	144.72
825.04	87.38
825.218	171.35
825.396	144.72
825.574	132.44
825.751	68.95
825.929	142.68
826.107	107.86
826.284	120.15
826.462	169.3
826.639	157.01
826.817	126.29
826.994	132.44
827.172	97.62
827.349	144.72
827.527	136.53
827.704	138.58
827.882	169.3
828.059	97.62
828.237	157.01
828.414	148.82
828.591	136.53
828.769	120.15
828.946	142.68
829.124	64.85
829.301	124.24
829.478	77.14
829.655	95.57
829.833	148.82
830.01	134.48
830.187	152.91
830.364	134.48
830.542	122.2
830.719	163.15
830.896	103.76
831.073	126.29
831.25	169.3
831.427	183.63
831.604	140.63
831.782	142.68
831.959	111.96
832.136	87.38
832.313	87.38
832.49	71
832.667	107.86
832.844	157.01
833.021	114
833.198	167.25
833.374	124.24
833.551	126.29
833.728	163.15
833.905	48.47
834.082	109.91
834.259	103.76
834.436	75.09
834.612	95.57
834.789	146.77
834.966	107.86
835.143	152.91
835.319	58.71
835.496	62.8
835.673	71
835.85	130.39
836.026	120.15
836.203	64.85
836.38	52.56
836.556	107.86
836.733	81.24
836.909	93.52
837.086	46.42
837.262	66.9
837.439	89.43
837.616	91.48
837.792	138.58
837.968	175.44
838.145	46.42
838.321	79.19
838.498	60.76
838.674	107.86
838.851	66.9
839.027	103.76
839.203	44.37
839.38	52.56
839.556	124.24
839.732	120.15
839.909	91.48
840.085	109.91
840.261	109.91
840.437	107.86
840.614	7.51
840.79	138.58
840.966	40.28
841.142	101.72
841.318	62.8
841.494	210.26
841.671	138.58
841.847	68.95
842.023	79.19
842.199	50.52
842.375	79.19
842.551	64.85
842.727	77.14
842.903	161.11
843.079	79.19
843.255	171.35
843.431	75.09
843.607	130.39
843.783	42.32
843.959	116.05
844.134	126.29
844.31	89.43
844.486	83.28
844.662	58.71
844.838	142.68
845.013	83.28
845.189	101.72
845.365	124.24
845.541	89.43
845.716	48.47
845.892	75.09
846.068	40.28
846.244	73.04
846.419	58.71
846.595	66.9
846.77	142.68
846.946	36.18
847.122	40.28
847.297	30.04
847.473	107.86
847.648	-72.36
847.824	34.13
847.999	13.65
848.175	40.28
848.35	71
848.526	118.1
848.701	89.43
848.876	79.19
849.052	25.94
849.227	52.56
849.403	17.75
849.578	122.2
849.753	21.85
849.929	46.42
850.104	27.99
850.279	97.62
850.454	79.19
850.63	126.29
850.805	54.61
850.98	58.71
851.155	83.28
851.33	23.89
851.505	15.7
851.681	73.04
851.856	-23.21
852.031	93.52
852.206	54.61
852.381	30.04
852.556	13.65
852.731	21.85
852.906	132.44
853.081	66.9
853.256	75.09
853.431	83.28
853.606	17.75
853.781	40.28
853.956	-2.73
854.131	54.61
854.305	44.37
854.48	38.23
854.655	62.8
854.83	1.37
855.005	91.48
855.18	109.91
855.354	25.94
855.529	34.13
855.704	87.38
855.879	144.72
856.053	-17.07
856.228	21.85
856.403	64.85
856.577	71
856.752	34.13
856.926	75.09
857.101	93.52
857.276	-23.21
857.45	9.56
857.625	30.04
857.799	118.1
857.974	109.91
858.148	-12.97
858.323	75.09
858.497	73.04
858.672	44.37
858.846	36.18
859.02	13.65
859.195	34.13
859.369	13.65
859.543	46.42
859.718	7.51
859.892	44.37
860.066	73.04
860.241	36.18
860.415	68.95
860.589	-8.87
860.763	-33.45
860.938	52.56
861.112	40.28
861.286	25.94
861.46	5.46
861.634	71
861.808	-31.4
861.982	11.61
862.157	36.18
862.331	34.13
862.505	-49.83
862.679	-4.78
862.853	9.56
863.027	44.37
863.201	-0.68
863.375	-15.02
863.549	66.9
863.722	120.15
863.896	77.14
864.07	-45.74
864.244	48.47
864.418	52.56
864.592	54.61
864.766	30.04
864.939	-45.74
865.113	-31.4
865.287	64.85
865.461	-39.59
865.634	9.56
865.808	1.37
865.982	-8.87
866.156	30.04
866.329	-49.83
866.503	23.89
866.676	36.18
866.85	25.94
867.024	-2.73
867.197	1.37
867.371	116.05
867.544	21.85
867.718	25.94
867.891	5.46
868.065	-4.78
868.238	50.52
868.412	-0.68
868.585	7.51
868.759	-92.84
868.932	32.08
869.105	-19.11
869.279	-2.73
869.452	-17.07
869.625	36.18
869.799	9.56
869.972	46.42
870.145	-10.92
870.319	40.28
870.492	58.71
870.665	15.7
870.838	71
871.011	1.37
871.185	36.18
871.358	23.89
871.531	40.28
871.704	-12.97
871.877	75.09
872.05	68.95
872.223	40.28
872.396	56.66
872.569	75.09
872.742	-41.64
872.915	54.61
873.088	-29.35
873.261	62.8
873.434	25.94
873.607	21.85
873.78	1.37
873.953	7.51
874.126	-33.45
874.299	3.41
874.471	64.85
874.644	68.95
874.817	77.14
874.99	58.71
875.163	34.13
875.335	77.14
875.508	9.56
875.681	58.71
875.853	-19.11
876.026	34.13
876.199	9.56
876.371	-12.97
876.544	54.61
876.717	17.75
876.889	66.9
877.062	54.61
877.234	34.13
877.407	-23.21
877.579	36.18
877.752	62.8
877.924	34.13
878.097	83.28
878.269	-60.07
878.442	114
878.614	19.8
878.786	42.32
878.959	32.08
879.131	-6.83
879.303	-55.98
879.476	-15.02
879.648	68.95
879.82	64.85
879.993	-6.83
880.165	-41.64
880.337	-45.74
880.509	75.09
880.681	7.51
880.854	-12.97
881.026	32.08
881.198	36.18
881.37	71
881.542	46.42
881.714	42.32
881.886	-25.26
882.058	-23.21
882.23	17.75
882.402	64.85
882.574	21.85
882.746	5.46
882.918	62.8
883.09	-23.21
883.262	30.04
883.434	-76.46
883.606	5.46
883.778	-31.4
883.95	40.28
884.122	-21.16
884.293	27.99
884.465	60.76
884.637	75.09
884.809	-47.79
884.98	66.9
885.152	27.99
885.324	42.32
885.496	5.46
885.667	15.7
885.839	9.56
886.011	40.28
886.182	71
886.354	71
886.525	38.23
886.697	13.65
886.869	-17.07
887.04	46.42
887.212	27.99
887.383	27.99
887.555	66.9
887.726	58.71
887.897	-25.26
888.069	-4.78
888.24	38.23
888.412	81.24
888.583	-84.65
888.754	-33.45
888.926	-68.27
889.097	-21.16
889.268	1.37
889.44	21.85
889.611	-6.83
889.782	38.23
889.953	5.46
890.125	64.85
890.296	23.89
890.467	13.65
890.638	52.56
890.809	30.04
890.98	-6.83
891.151	11.61
891.323	27.99
891.494	50.52
891.665	-37.55
891.836	1.37
892.007	-33.45
892.178	77.14
892.349	-12.97
892.52	-35.5
892.691	34.13
892.862	-37.55
893.032	58.71
893.203	-84.65
893.374	-6.83
893.545	13.65
893.716	-25.26
893.887	23.89
894.057	36.18
894.228	52.56
894.399	-58.03
894.57	93.52
894.74	83.28
894.911	-12.97
895.082	11.61
895.253	3.41
895.423	-39.59
895.594	-2.73
895.764	54.61
895.935	21.85
896.106	5.46
896.276	-15.02
896.447	-15.02
896.617	48.47
896.788	21.85
896.958	9.56
897.129	5.46
897.299	1.37
897.47	46.42
897.64	27.99
897.81	21.85
897.981	-0.68
898.151	19.8
898.322	56.66
898.492	25.94
898.662	-55.98
898.832	9.56
899.003	-21.16
899.173	32.08
899.343	-27.31
899.513	13.65
