Data from USB4F104151__57__10-23-52-573.txt Node

Date: Wed Mar 12 10:23:52 EDT 2025
User: louis
Spectrometer: USB4F10415
Trigger mode: 4
Integration Time (sec): 3.000000E-2
Scans to average: 1
Electric dark correction enabled: true
Nonlinearity correction enabled: false
Boxcar width: 0
XAxis mode: Wavelengths
Number of Pixels in Spectrum: 3648
>>>>>Begin Spectral Data<<<<<
178.204	-146.43
178.424	-146.43
178.644	-146.43
178.864	-52.22
179.084	-101.37
179.304	-64.51
179.524	19.46
179.744	19.46
179.964	46.08
180.184	50.18
180.404	9.22
180.624	54.27
180.844	-56.32
181.064	-41.98
181.283	19.46
181.503	-27.65
181.723	-27.65
181.943	21.5
182.163	31.74
182.383	17.41
182.602	74.75
182.822	25.6
183.042	13.31
183.262	25.6
183.482	23.55
183.701	5.12
183.921	15.36
184.141	-70.65
184.361	41.98
184.58	82.94
184.8	-7.17
185.02	9.22
185.239	115.71
185.459	23.55
185.679	125.95
185.898	44.03
186.118	68.61
186.338	27.65
186.557	13.31
186.777	78.85
186.997	78.85
187.216	7.17
187.436	21.5
187.655	60.42
187.875	84.99
188.095	19.46
188.314	70.65
188.534	78.85
188.753	41.98
188.973	-7.17
189.192	46.08
189.412	54.27
189.631	60.42
189.851	5.12
190.07	60.42
190.29	48.13
190.509	54.27
190.729	-33.79
190.948	46.08
191.168	87.04
191.387	56.32
191.607	41.98
191.826	48.13
192.045	5.12
192.265	58.37
192.484	-7.17
192.704	105.47
192.923	52.22
193.142	78.85
193.362	37.89
193.581	74.75
193.8	35.84
194.02	142.33
194.239	31.74
194.458	21.5
194.678	82.94
194.897	-11.26
195.116	41.98
195.335	35.84
195.555	31.74
195.774	31.74
195.993	78.85
196.212	-27.65
196.432	60.42
196.651	46.08
196.87	29.7
197.089	93.18
197.308	46.08
197.528	52.22
197.747	35.84
197.966	46.08
198.185	15.36
198.404	27.65
198.623	113.66
198.842	117.76
199.062	101.37
199.281	44.03
199.5	9.22
199.719	29.7
199.938	111.61
200.157	52.22
200.376	21.5
200.595	82.94
200.814	25.6
201.033	-29.7
201.252	70.65
201.471	68.61
201.69	-3.07
201.909	27.65
202.128	64.51
202.347	111.61
202.566	-11.26
202.785	-27.65
203.004	-17.41
203.223	136.19
203.442	35.84
203.661	-11.26
203.879	25.6
204.098	78.85
204.317	66.56
204.536	91.13
204.755	37.89
204.974	48.13
205.193	78.85
205.411	35.84
205.63	115.71
205.849	62.46
206.068	1.02
206.287	93.18
206.505	35.84
206.724	1.02
206.943	17.41
207.162	-9.22
207.381	7.17
207.599	52.22
207.818	39.94
208.037	66.56
208.255	-3.07
208.474	-41.98
208.693	78.85
208.911	29.7
209.13	-1.02
209.349	97.28
209.567	-19.46
209.786	27.65
210.005	33.79
210.223	-7.17
210.442	-11.26
210.661	113.66
210.879	17.41
211.098	5.12
211.316	76.8
211.535	48.13
211.753	17.41
211.972	15.36
212.191	27.65
212.409	91.13
212.628	37.89
212.846	27.65
213.065	72.7
213.283	111.61
213.502	70.65
213.72	-7.17
213.938	5.12
214.157	70.65
214.375	31.74
214.594	97.28
214.812	44.03
215.031	111.61
215.249	5.12
215.467	15.36
215.686	37.89
215.904	25.6
216.122	19.46
216.341	-15.36
216.559	37.89
216.778	177.15
216.996	74.75
217.214	13.31
217.432	-35.84
217.651	35.84
217.869	64.51
218.087	-15.36
218.306	37.89
218.524	64.51
218.742	41.98
218.96	68.61
219.179	76.8
219.397	44.03
219.615	66.56
219.833	52.22
220.051	46.08
220.27	74.75
220.488	52.22
220.706	31.74
220.924	13.31
221.142	37.89
221.36	54.27
221.578	35.84
221.796	37.89
222.015	25.6
222.233	58.37
222.451	84.99
222.669	56.32
222.887	95.23
223.105	70.65
223.323	44.03
223.541	41.98
223.759	68.61
223.977	-70.65
224.195	134.14
224.413	87.04
224.631	62.46
224.849	-5.12
225.067	25.6
225.285	46.08
225.503	70.65
225.721	23.55
225.939	109.57
226.157	54.27
226.375	164.86
226.592	82.94
226.81	46.08
227.028	-5.12
227.246	103.42
227.464	-9.22
227.682	66.56
227.9	64.51
228.117	60.42
228.335	11.26
228.553	54.27
228.771	70.65
228.989	41.98
229.206	50.18
229.424	70.65
229.642	66.56
229.86	-1.02
230.077	15.36
230.295	68.61
230.513	84.99
230.731	97.28
230.948	95.23
231.166	113.66
231.384	41.98
231.601	-1.02
231.819	152.57
232.037	66.56
232.254	-7.17
232.472	80.89
232.689	-41.98
232.907	136.19
233.125	21.5
233.342	41.98
233.56	-39.94
233.777	27.65
233.995	-13.31
234.213	84.99
234.43	-7.17
234.648	60.42
234.865	-39.94
235.083	62.46
235.3	119.81
235.518	70.65
235.735	97.28
235.953	140.29
236.17	74.75
236.388	119.81
236.605	37.89
236.822	52.22
237.04	44.03
237.257	54.27
237.475	144.38
237.692	140.29
237.909	128
238.127	17.41
238.344	5.12
238.562	37.89
238.779	54.27
238.996	52.22
239.214	56.32
239.431	95.23
239.648	9.22
239.865	21.5
240.083	-3.07
240.3	132.09
240.517	-3.07
240.735	13.31
240.952	89.09
241.169	121.85
241.386	72.7
241.603	-15.36
241.821	39.94
242.038	50.18
242.255	82.94
242.472	66.56
242.689	70.65
242.907	23.55
243.124	25.6
243.341	19.46
243.558	-21.5
243.775	29.7
243.992	9.22
244.209	105.47
244.426	72.7
244.643	-23.55
244.86	76.8
245.078	78.85
245.295	13.31
245.512	21.5
245.729	19.46
245.946	115.71
246.163	70.65
246.38	17.41
246.597	33.79
246.814	52.22
247.031	58.37
247.248	17.41
247.464	37.89
247.681	80.89
247.898	87.04
248.115	46.08
248.332	-7.17
248.549	60.42
248.766	101.37
248.983	97.28
249.2	76.8
249.417	99.33
249.633	-7.17
249.85	66.56
250.067	15.36
250.284	50.18
250.501	54.27
250.717	60.42
250.934	-23.55
251.151	11.26
251.368	44.03
251.585	160.77
251.801	91.13
252.018	68.61
252.235	64.51
252.451	52.22
252.668	60.42
252.885	66.56
253.102	37.89
253.318	39.94
253.535	25.6
253.752	46.08
253.968	23.55
254.185	29.7
254.401	70.65
254.618	-5.12
254.835	68.61
255.051	52.22
255.268	91.13
255.484	23.55
255.701	74.75
255.917	60.42
256.134	39.94
256.351	123.9
256.567	29.7
256.784	-3.07
257	29.7
257.217	78.85
257.433	52.22
257.65	60.42
257.866	35.84
258.082	3.07
258.299	7.17
258.515	50.18
258.732	41.98
258.948	23.55
259.165	70.65
259.381	1.02
259.597	52.22
259.814	41.98
260.03	15.36
260.246	39.94
260.463	138.24
260.679	132.09
260.895	-21.5
261.112	72.7
261.328	39.94
261.544	74.75
261.761	80.89
261.977	7.17
262.193	-31.74
262.409	41.98
262.626	62.46
262.842	33.79
263.058	54.27
263.274	91.13
263.49	15.36
263.707	93.18
263.923	-21.5
264.139	11.26
264.355	97.28
264.571	111.61
264.787	29.7
265.004	82.94
265.22	119.81
265.436	66.56
265.652	29.7
265.868	46.08
266.084	5.12
266.3	76.8
266.516	-33.79
266.732	13.31
266.948	3.07
267.164	25.6
267.38	82.94
267.596	-13.31
267.812	93.18
268.028	62.46
268.244	62.46
268.46	66.56
268.676	62.46
268.892	138.24
269.108	72.7
269.324	27.65
269.54	-15.36
269.756	9.22
269.972	5.12
270.188	27.65
270.403	80.89
270.619	17.41
270.835	29.7
271.051	78.85
271.267	39.94
271.483	19.46
271.698	19.46
271.914	54.27
272.13	19.46
272.346	89.09
272.562	35.84
272.777	54.27
272.993	13.31
273.209	60.42
273.425	-3.07
273.64	101.37
273.856	99.33
274.072	64.51
274.287	13.31
274.503	-15.36
274.719	50.18
274.934	91.13
275.15	-3.07
275.366	44.03
275.581	-3.07
275.797	80.89
276.012	76.8
276.228	72.7
276.444	37.89
276.659	109.57
276.875	19.46
277.09	46.08
277.306	-44.03
277.521	76.8
277.737	17.41
277.952	97.28
278.168	17.41
278.383	74.75
278.599	33.79
278.814	17.41
279.03	31.74
279.245	60.42
279.461	111.61
279.676	35.84
279.892	5.12
280.107	80.89
280.322	78.85
280.538	74.75
280.753	87.04
280.969	84.99
281.184	115.71
281.399	74.75
281.615	46.08
281.83	156.67
282.045	60.42
282.26	54.27
282.476	152.57
282.691	93.18
282.906	44.03
283.122	95.23
283.337	62.46
283.552	60.42
283.767	60.42
283.983	68.61
284.198	17.41
284.413	91.13
284.628	54.27
284.843	50.18
285.058	76.8
285.274	-35.84
285.489	41.98
285.704	130.05
285.919	87.04
286.134	78.85
286.349	54.27
286.564	33.79
286.779	52.22
286.995	58.37
287.21	9.22
287.425	70.65
287.64	33.79
287.855	107.52
288.07	119.81
288.285	128
288.5	39.94
288.715	52.22
288.93	-1.02
289.145	46.08
289.36	142.33
289.575	62.46
289.79	66.56
290.004	37.89
290.219	78.85
290.434	46.08
290.649	62.46
290.864	46.08
291.079	5.12
291.294	35.84
291.509	68.61
291.724	62.46
291.938	-5.12
292.153	5.12
292.368	17.41
292.583	37.89
292.798	37.89
293.012	7.17
293.227	29.7
293.442	87.04
293.657	76.8
293.871	111.61
294.086	62.46
294.301	44.03
294.516	148.48
294.73	66.56
294.945	68.61
295.16	117.76
295.374	21.5
295.589	62.46
295.804	101.37
296.018	78.85
296.233	64.51
296.447	50.18
296.662	41.98
296.877	56.32
297.091	52.22
297.306	101.37
297.52	13.31
297.735	29.7
297.949	54.27
298.164	62.46
298.378	84.99
298.593	27.65
298.807	25.6
299.022	87.04
299.236	44.03
299.451	29.7
299.665	50.18
299.88	54.27
300.094	101.37
300.309	70.65
300.523	52.22
300.737	93.18
300.952	82.94
301.166	78.85
301.381	37.89
301.595	48.13
301.809	60.42
302.024	29.7
302.238	46.08
302.452	35.84
302.667	-5.12
302.881	66.56
303.095	48.13
303.309	87.04
303.524	19.46
303.738	9.22
303.952	74.75
304.166	52.22
304.381	87.04
304.595	82.94
304.809	19.46
305.023	35.84
305.237	5.12
305.452	109.57
305.666	125.95
305.88	91.13
306.094	125.95
306.308	89.09
306.522	56.32
306.736	107.52
306.95	52.22
307.164	80.89
307.379	84.99
307.593	107.52
307.807	5.12
308.021	74.75
308.235	91.13
308.449	46.08
308.663	-23.55
308.877	130.05
309.091	130.05
309.305	74.75
309.519	60.42
309.733	74.75
309.947	89.09
310.161	33.79
310.374	46.08
310.588	115.71
310.802	107.52
311.016	-15.36
311.23	13.31
311.444	56.32
311.658	50.18
311.872	78.85
312.085	68.61
312.299	84.99
312.513	99.33
312.727	23.55
312.941	-17.41
313.154	27.65
313.368	70.65
313.582	54.27
313.796	136.19
314.009	50.18
314.223	13.31
314.437	62.46
314.651	64.51
314.864	15.36
315.078	9.22
315.292	-50.18
315.505	17.41
315.719	52.22
315.933	70.65
316.146	46.08
316.36	78.85
316.573	60.42
316.787	62.46
317.001	78.85
317.214	54.27
317.428	84.99
317.641	3.07
317.855	7.17
318.068	119.81
318.282	113.66
318.495	93.18
318.709	62.46
318.922	164.86
319.136	46.08
319.349	62.46
319.563	70.65
319.776	-19.46
319.99	31.74
320.203	21.5
320.417	46.08
320.63	82.94
320.843	138.24
321.057	58.37
321.27	39.94
321.483	109.57
321.697	52.22
321.91	62.46
322.124	54.27
322.337	37.89
322.55	48.13
322.763	70.65
322.977	41.98
323.19	3.07
323.403	3.07
323.617	46.08
323.83	58.37
324.043	52.22
324.256	134.14
324.469	46.08
324.683	140.29
324.896	25.6
325.109	31.74
325.322	-3.07
325.535	37.89
325.748	48.13
325.962	-35.84
326.175	136.19
326.388	89.09
326.601	7.17
326.814	68.61
327.027	41.98
327.24	117.76
327.453	17.41
327.666	7.17
327.879	50.18
328.092	37.89
328.305	29.7
328.518	37.89
328.731	95.23
328.944	109.57
329.157	152.57
329.37	123.9
329.583	107.52
329.796	74.75
330.009	91.13
330.222	78.85
330.435	76.8
330.648	101.37
330.861	27.65
331.073	70.65
331.286	95.23
331.499	13.31
331.712	-15.36
331.925	54.27
332.138	52.22
332.35	111.61
332.563	91.13
332.776	72.7
332.989	35.84
333.202	99.33
333.414	152.57
333.627	99.33
333.84	37.89
334.053	-19.46
334.265	-15.36
334.478	11.26
334.691	35.84
334.903	13.31
335.116	41.98
335.329	60.42
335.541	62.46
335.754	91.13
335.966	91.13
336.179	19.46
336.392	-33.79
336.604	48.13
336.817	156.67
337.029	66.56
337.242	64.51
337.454	125.95
337.667	66.56
337.88	103.42
338.092	74.75
338.305	87.04
338.517	25.6
338.729	37.89
338.942	128
339.154	74.75
339.367	74.75
339.579	-17.41
339.792	-46.08
340.004	-13.31
340.217	76.8
340.429	123.9
340.641	35.84
340.854	99.33
341.066	44.03
341.278	50.18
341.491	62.46
341.703	-37.89
341.915	29.7
342.128	103.42
342.34	87.04
342.552	60.42
342.764	27.65
342.977	56.32
343.189	99.33
343.401	107.52
343.613	19.46
343.826	-9.22
344.038	84.99
344.25	68.61
344.462	-11.26
344.674	78.85
344.886	89.09
345.099	80.89
345.311	105.47
345.523	103.42
345.735	60.42
345.947	9.22
346.159	95.23
346.371	-11.26
346.583	93.18
346.795	109.57
347.007	19.46
347.219	48.13
347.431	-23.55
347.643	160.77
347.855	117.76
348.067	13.31
348.279	-48.13
348.491	123.9
348.703	121.85
348.915	132.09
349.127	52.22
349.339	103.42
349.551	60.42
349.763	25.6
349.975	54.27
350.187	117.76
350.399	78.85
350.61	66.56
350.822	-1.02
351.034	103.42
351.246	84.99
351.458	54.27
351.669	78.85
351.881	205.82
352.093	52.22
352.305	54.27
352.517	23.55
352.728	138.24
352.94	21.5
353.152	52.22
353.363	-7.17
353.575	60.42
353.787	62.46
353.999	101.37
354.21	162.81
354.422	82.94
354.633	82.94
354.845	95.23
355.057	-27.65
355.268	144.38
355.48	82.94
355.692	64.51
355.903	111.61
356.115	9.22
356.326	21.5
356.538	54.27
356.749	46.08
356.961	87.04
357.172	76.8
357.384	9.22
357.595	58.37
357.807	13.31
358.018	41.98
358.23	-3.07
358.441	95.23
358.653	37.89
358.864	111.61
359.075	68.61
359.287	99.33
359.498	60.42
359.709	84.99
359.921	27.65
360.132	101.37
360.344	58.37
360.555	84.99
360.766	105.47
360.977	64.51
361.189	70.65
361.4	48.13
361.611	54.27
361.823	5.12
362.034	35.84
362.245	87.04
362.456	39.94
362.667	37.89
362.879	50.18
363.09	-7.17
363.301	119.81
363.512	84.99
363.723	21.5
363.935	46.08
364.146	117.76
364.357	37.89
364.568	125.95
364.779	3.07
364.99	101.37
365.201	91.13
365.412	82.94
365.623	70.65
365.834	25.6
366.045	70.65
366.256	-39.94
366.467	35.84
366.678	103.42
366.889	87.04
367.1	11.26
367.311	46.08
367.522	74.75
367.733	99.33
367.944	128
368.155	11.26
368.366	50.18
368.577	78.85
368.788	105.47
368.999	29.7
369.209	175.1
369.42	150.53
369.631	156.67
369.842	52.22
370.053	123.9
370.264	19.46
370.474	72.7
370.685	72.7
370.896	70.65
371.107	64.51
371.317	56.32
371.528	52.22
371.739	107.52
371.95	76.8
372.16	70.65
372.371	29.7
372.582	84.99
372.792	136.19
373.003	68.61
373.214	128
373.424	74.75
373.635	19.46
373.846	115.71
374.056	54.27
374.267	29.7
374.477	3.07
374.688	-7.17
374.898	107.52
375.109	33.79
375.319	103.42
375.53	101.37
375.74	52.22
375.951	70.65
376.161	125.95
376.372	144.38
376.582	101.37
376.793	91.13
377.003	74.75
377.214	31.74
377.424	29.7
377.635	62.46
377.845	95.23
378.055	117.76
378.266	52.22
378.476	109.57
378.686	93.18
378.897	128
379.107	54.27
379.317	23.55
379.528	58.37
379.738	46.08
379.948	46.08
380.158	119.81
380.369	82.94
380.579	97.28
380.789	3.07
380.999	123.9
381.21	89.09
381.42	66.56
381.63	130.05
381.84	101.37
382.05	103.42
382.261	91.13
382.471	70.65
382.681	87.04
382.891	128
383.101	21.5
383.311	132.09
383.521	78.85
383.731	72.7
383.941	136.19
384.151	68.61
384.361	103.42
384.571	125.95
384.781	134.14
384.991	148.48
385.201	111.61
385.411	101.37
385.621	64.51
385.831	119.81
386.041	91.13
386.251	119.81
386.461	50.18
386.671	117.76
386.881	146.43
387.091	119.81
387.301	99.33
387.511	101.37
387.72	62.46
387.93	48.13
388.14	64.51
388.35	152.57
388.56	107.52
388.769	91.13
388.979	31.74
389.189	68.61
389.399	103.42
389.609	76.8
389.818	13.31
390.028	82.94
390.238	84.99
390.447	64.51
390.657	140.29
390.867	-7.17
391.076	125.95
391.286	148.48
391.496	91.13
391.705	52.22
391.915	119.81
392.125	138.24
392.334	103.42
392.544	125.95
392.753	115.71
392.963	91.13
393.172	23.55
393.382	113.66
393.591	82.94
393.801	82.94
394.01	91.13
394.22	91.13
394.429	128
394.639	136.19
394.848	187.39
395.058	76.8
395.267	95.23
395.477	91.13
395.686	177.15
395.895	185.34
396.105	89.09
396.314	144.38
396.524	134.14
396.733	64.51
396.942	115.71
397.152	166.91
397.361	99.33
397.57	158.72
397.78	130.05
397.989	62.46
398.198	201.72
398.407	107.52
398.617	189.44
398.826	128
399.035	130.05
399.244	128
399.453	232.44
399.663	179.2
399.872	140.29
400.081	82.94
400.29	207.87
400.499	82.94
400.708	44.03
400.917	103.42
401.127	144.38
401.336	95.23
401.545	144.38
401.754	136.19
401.963	82.94
402.172	130.05
402.381	158.72
402.59	187.39
402.799	134.14
403.008	93.18
403.217	191.49
403.426	132.09
403.635	121.85
403.844	125.95
404.053	168.96
404.262	191.49
404.471	242.68
404.68	152.57
404.888	185.34
405.097	160.77
405.306	193.53
405.515	175.1
405.724	195.58
405.933	289.79
406.142	175.1
406.35	263.16
406.559	271.36
406.768	281.6
406.977	312.32
407.185	259.07
407.394	238.59
407.603	259.07
407.812	254.97
408.02	222.2
408.229	242.68
408.438	308.22
408.646	308.22
408.855	310.27
409.064	300.03
409.272	369.66
409.481	400.38
409.69	300.03
409.898	355.32
410.107	394.23
410.315	420.86
410.524	369.66
410.733	398.33
410.941	427
411.15	502.78
411.358	445.43
411.567	568.31
411.775	445.43
411.984	539.64
412.192	535.54
412.401	539.64
412.609	568.31
412.818	545.78
413.026	635.89
413.234	607.22
413.443	680.95
413.651	672.76
413.86	697.33
414.068	744.44
414.276	783.35
414.485	832.5
414.693	795.64
414.901	795.64
415.11	809.97
415.318	799.73
415.526	969.71
415.734	988.14
415.943	955.38
416.151	1053.68
416.359	1033.2
416.567	1008.62
416.776	1080.3
416.984	1221.61
417.192	1154.03
417.4	1133.55
417.608	1188.85
417.817	1262.57
418.025	1291.24
418.233	1346.54
418.441	1324.01
418.649	1403.88
418.857	1498.09
419.065	1561.58
419.273	1459.18
419.481	1731.56
419.689	1641.45
419.897	1760.23
420.105	1749.99
420.313	1844.2
420.521	1926.11
420.729	1975.27
420.937	1911.78
421.145	2022.37
421.353	2122.72
421.561	2333.66
421.769	2202.59
421.977	2384.86
422.185	2409.44
422.393	2683.86
422.601	2739.16
422.809	2587.61
423.017	2593.75
423.224	2735.06
423.432	2984.91
423.64	2964.43
423.848	3197.9
424.056	3146.7
424.263	3445.71
424.471	3337.17
424.679	3279.82
424.887	3599.31
425.094	3615.69
425.302	3754.95
425.51	3963.84
425.718	3918.79
425.925	4164.54
426.133	4182.98
426.341	4412.35
426.548	4713.4
426.756	4701.11
426.964	4780.98
427.171	4850.61
427.379	5217.2
427.586	5237.68
427.794	5288.88
428.001	5563.31
428.209	5831.59
428.417	5510.06
428.624	6083.49
428.832	6232.99
429.039	6245.28
429.247	6011.81
429.454	6609.82
429.662	6966.17
429.869	6808.47
430.076	6966.17
430.284	6812.57
430.491	7052.18
430.699	7674.76
430.906	7689.1
431.114	7697.29
431.321	7924.62
431.528	8213.38
431.736	8651.64
431.943	9098.1
432.15	8809.34
432.358	8821.63
432.565	9456.5
432.772	9071.48
432.979	10027.88
433.187	9913.19
433.394	10048.36
433.601	10840.92
433.808	10820.44
434.016	10562.4
434.223	11113.3
434.43	11524.94
434.637	11570
434.844	12313.41
435.052	12432.19
435.259	12407.62
435.466	12294.98
435.673	12471.11
435.88	13122.36
436.087	14021.42
436.294	13742.89
436.501	13513.52
436.708	13693.74
436.915	14445.35
437.122	14902.04
437.329	14648.1
437.537	15362.84
437.743	15586.07
437.95	15524.63
438.157	16460.55
438.364	16882.43
438.571	16771.84
438.778	17048.32
438.985	18569.96
439.192	17588.98
439.399	18361.06
439.606	17738.48
439.813	18668.26
440.02	20210.38
440.227	19741.39
440.433	19317.47
440.64	20079.31
440.847	19835.6
441.054	20437.7
441.261	21877.43
441.467	21727.92
441.674	22125.23
441.881	22852.26
442.088	22450.86
442.294	22272.68
442.501	23085.73
442.708	23495.32
442.914	24287.89
443.121	25502.33
443.328	24935.04
443.534	26538.6
443.741	25944.69
443.948	25469.56
444.154	27161.19
444.361	26843.75
444.568	27492.96
444.774	27187.81
444.981	27454.05
445.187	28351.06
445.394	29540.93
445.6	28924.49
445.807	32045.59
446.013	30554.67
446.22	31345.19
446.426	32299.54
446.633	32571.92
446.839	33638.91
447.046	32266.77
447.252	34089.46
447.459	34175.48
447.665	33624.57
447.871	35529.19
448.078	36542.93
448.284	34970.09
448.491	35891.68
448.697	37173.7
448.903	37945.79
449.11	37943.74
449.316	37202.38
449.522	38277.56
449.728	38934.96
449.935	39328.17
450.141	39131.56
450.347	39946.65
450.553	38840.75
450.76	39367.08
450.966	40339.86
451.172	39932.32
451.378	40964.49
451.584	40286.62
451.791	40638.87
451.997	40583.57
452.203	41396.62
452.409	41828.74
452.615	41650.56
452.821	39897.5
453.027	39692.71
453.233	41628.04
453.44	39518.63
453.646	40116.64
453.852	40188.31
454.058	41099.66
454.264	39578.02
454.47	40327.58
454.676	39287.21
454.882	40819.09
455.088	36934.09
455.294	37667.27
455.5	38224.31
455.705	38721.97
455.911	36819.41
456.117	36377.04
456.323	35967.45
456.529	33718.78
456.735	35158.5
456.941	34314.74
457.147	33698.3
457.352	32807.44
457.558	32516.62
457.764	32727.56
457.97	32000.54
458.176	31304.23
458.381	31490.59
458.587	29833.78
458.793	29456.96
458.999	28113.49
459.204	30003.77
459.41	29368.9
459.616	27417.18
459.821	27427.42
460.027	27312.74
460.233	26378.86
460.438	25389.69
460.644	25653.88
460.85	24818.31
461.055	24103.57
461.261	24003.22
461.466	22137.52
461.672	21523.13
461.878	23177.89
462.083	21684.92
462.289	21312.19
462.494	21123.77
462.7	19925.71
462.905	19466.97
463.111	20384.46
463.316	20390.6
463.522	19976.91
463.727	20159.18
463.932	20034.25
464.138	19366.62
464.343	19849.94
464.549	19116.76
464.754	19751.63
464.959	19716.82
465.165	19663.57
465.37	18637.54
465.575	18383.59
465.781	18899.68
465.986	18750.18
466.191	18469.61
466.397	17900.27
466.602	17488.63
466.807	17926.89
467.012	17875.7
467.218	17775.34
467.423	17615.6
467.628	17707.76
467.833	18580.2
468.038	17826.54
468.244	17177.34
468.449	17650.42
468.654	17398.52
468.859	17109.75
469.064	17259.26
469.269	16397.06
469.474	16534.28
469.679	16732.93
469.885	16390.92
470.09	16487.17
470.295	16519.94
470.5	16077.58
470.705	16136.97
470.91	15735.57
471.115	15502.1
471.32	15854.35
471.525	15602.45
471.73	15186.71
471.935	15325.97
472.139	14836.51
472.344	15366.93
472.549	14926.62
472.754	14605.09
472.959	14476.07
473.164	14117.67
473.369	13787.95
473.574	14336.81
473.778	14500.64
473.983	14072.62
474.188	14254.89
474.393	13593.39
474.598	13550.39
474.802	13550.39
475.007	13230.9
475.212	13507.38
475.417	12835.64
475.621	12747.58
475.826	12979
476.031	12571.46
476.235	12317.51
476.44	12593.98
476.645	12415.81
476.849	12424
477.054	12340.04
477.259	12159.81
477.463	12155.72
477.668	11787.08
477.872	12059.46
478.077	11873.1
478.282	11465.55
478.486	11438.93
478.691	11230.04
478.895	11209.56
479.1	11449.17
479.304	11326.29
479.509	10832.73
479.713	10967.9
479.918	10916.7
480.122	10756.96
480.326	10873.69
480.531	10765.15
480.735	10675.04
480.94	10562.4
481.144	10937.18
481.348	10394.47
481.553	10828.63
481.757	10449.76
481.961	10617.69
482.166	10832.73
482.37	10566.49
482.574	10183.52
482.778	10400.61
482.983	10515.3
483.187	10572.64
483.391	10687.32
483.595	10572.64
483.8	10453.86
484.004	10490.72
484.208	10541.92
484.412	10287.97
484.616	10517.34
484.821	10460
485.025	10468.19
485.229	10509.15
485.433	10435.42
485.637	10390.37
485.841	10175.33
486.045	10318.69
486.249	10318.69
486.453	10267.49
486.657	10611.55
486.861	10498.91
487.065	10165.09
487.269	10576.73
487.473	10314.59
487.677	10546.02
487.881	10455.9
488.085	10376.03
488.289	10543.97
488.493	10441.57
488.697	10582.88
488.901	10648.41
489.105	10576.73
489.309	10480.48
489.512	10570.59
489.716	10574.69
489.92	10625.89
490.124	10437.47
490.328	10902.36
490.531	10697.56
490.735	10683.23
490.939	10904.41
491.143	10754.91
491.346	10699.61
491.55	10859.35
491.754	10871.64
491.958	10818.39
492.161	11086.68
492.365	11088.73
492.569	11150.17
492.772	11113.3
492.976	11414.35
493.18	11334.48
493.383	11531.09
493.587	11357.01
493.79	11643.73
493.994	11371.35
494.197	11391.83
494.401	11692.88
494.605	11606.86
494.808	11774.8
495.012	12092.23
495.215	11998.02
495.419	11981.64
495.622	12059.46
495.825	12194.63
496.029	12362.56
496.232	12555.07
496.436	12544.83
496.639	12741.44
496.843	12706.62
497.046	12876.6
497.249	13046.58
497.453	13122.36
497.656	13421.36
497.859	13415.22
498.063	13560.63
498.266	13849.39
498.469	13716.27
498.673	13880.11
498.876	14168.87
499.079	14248.74
499.282	14183.21
499.485	14635.81
499.689	14529.31
499.892	14861.09
500.095	14828.32
500.298	15375.13
500.501	15082.27
500.705	15473.43
500.908	15586.07
501.111	15995.66
501.314	15889.17
501.517	16110.35
501.72	16657.15
501.923	16237.32
502.126	16618.24
502.329	16972.54
502.532	17029.88
502.735	17220.35
502.938	17730.29
503.141	17650.42
503.344	18004.72
503.547	18021.1
503.75	18402.02
503.953	18504.42
504.156	18778.85
504.359	18701.03
504.562	18942.69
504.765	19665.62
504.968	19235.55
505.17	19499.73
505.373	19745.49
505.576	20232.91
505.779	20304.59
505.982	20312.78
506.185	20701.89
506.387	20816.58
506.59	21144.25
506.793	21465.78
506.996	21187.26
507.198	22229.68
507.401	21844.66
507.604	22071.98
507.807	22911.65
508.009	22774.44
508.212	22887.07
508.415	23347.87
508.617	23444.12
508.82	23704.21
509.022	23429.79
509.225	24056.46
509.428	24228.49
509.63	24603.27
509.833	24779.4
510.035	25145.98
510.238	25293.44
510.44	25629.3
510.643	26073.71
510.845	26184.3
511.048	26139.25
511.25	26552.94
511.453	26886.76
511.655	27654.75
511.858	27380.32
512.06	27718.23
512.262	28017.24
512.465	27914.84
512.667	28310.1
512.87	28549.71
513.072	28809.8
513.274	29366.85
513.477	29715
513.679	29778.49
513.881	30126.64
514.084	30499.37
514.286	30808.62
514.488	30505.52
514.69	31423.01
514.893	31861.27
515.095	31554.08
515.297	32066.07
515.499	31988.25
515.701	32498.19
515.904	33153.54
516.106	33438.21
516.308	33581.57
516.51	33991.16
516.712	33911.29
516.914	34232.82
517.116	35224.04
517.318	35121.64
517.52	35301.86
517.722	35578.34
517.925	35617.25
518.127	36295.13
518.329	36592.08
518.531	36553.17
518.733	37085.64
518.935	37603.78
519.136	37919.17
519.338	38234.55
519.54	38158.78
519.742	38607.28
519.944	38767.02
520.146	39213.48
520.348	39420.33
520.55	40020.38
520.752	40307.1
520.954	40505.75
521.155	40286.62
521.357	41099.66
521.559	41365.9
521.761	42072.45
521.963	42092.93
522.164	42092.93
522.366	42574.2
522.568	42924.4
522.77	42750.32
522.971	43532.65
523.173	42936.69
523.375	43856.23
523.576	43637.09
523.778	43784.55
523.98	44767.57
524.181	44441.95
524.383	44947.79
524.584	45381.96
524.786	45250.89
524.988	45750.6
525.189	45685.06
525.391	46344.51
525.592	46373.18
525.794	46311.74
525.995	46950.71
526.197	46881.08
526.398	46989.62
526.6	47460.65
526.801	47565.1
527.003	47561
527.204	47769.9
527.406	48245.02
527.607	48013.6
527.808	48736.54
528.01	47601.96
528.211	48660.76
528.412	49322.26
528.614	49422.61
528.815	49408.27
529.016	49535.24
529.218	49094.93
529.419	49641.74
529.62	49598.73
529.822	50198.79
530.023	49412.37
530.224	50034.95
530.425	50161.92
530.626	49596.68
530.828	49643.79
531.029	50931.96
531.23	50188.55
531.431	50192.64
531.632	50804.98
531.833	50573.56
532.035	50585.85
532.236	50477.31
532.437	51063.03
532.638	50403.58
532.839	51044.6
533.04	51157.24
533.241	50708.73
533.442	51462.38
533.643	51165.43
533.844	50870.52
534.045	51065.08
534.246	51271.92
534.447	51366.13
534.648	51040.5
534.849	51247.35
535.05	51042.55
535.251	51304.69
535.451	51091.7
535.652	51538.16
535.853	51249.39
536.054	51843.3
536.255	51863.78
536.456	51026.17
536.657	51874.02
536.857	51333.36
537.058	50886.9
537.259	51632.36
537.46	51560.69
537.66	51374.32
537.861	51640.56
538.062	51448.05
538.263	51513.58
538.463	51333.36
538.664	51480.81
538.865	51943.66
539.065	52150.5
539.266	51273.97
539.466	51796.2
539.667	51155.19
539.868	52033.77
540.068	51527.92
540.269	51388.66
540.469	51638.51
540.67	51818.73
540.87	51075.32
541.071	51288.31
541.271	51685.61
541.472	51611.88
541.672	51380.46
541.873	51466.48
542.073	51296.5
542.274	51943.66
542.474	51595.5
542.675	51175.67
542.875	51986.66
543.075	51689.71
543.276	50854.14
543.476	51697.9
543.676	51583.21
543.877	51658.99
544.077	51667.18
544.277	51550.45
544.478	51316.98
544.678	51251.44
544.878	51282.16
545.078	51224.82
545.279	51101.94
545.479	51050.74
545.679	51544.3
545.879	51806.44
546.079	50938.1
546.28	51009.78
546.48	51007.73
546.68	51296.5
546.88	50962.68
547.08	51200.24
547.28	51204.34
547.48	50778.36
547.68	50981.11
547.88	50422.01
548.081	51501.29
548.281	50780.41
548.481	50807.03
548.681	50934.01
548.881	51259.63
549.081	50874.62
549.28	50895.1
549.48	51161.33
549.68	50817.27
549.88	51312.88
550.08	50678.01
550.28	50981.11
550.48	50774.27
550.68	50977.01
550.88	50778.36
551.08	50505.98
551.279	51493.1
551.479	50153.73
551.679	50727.16
551.879	50862.33
552.079	50964.73
552.278	50592
552.478	50663.67
552.678	51003.64
552.878	51226.87
553.077	50645.24
553.277	50200.83
553.477	51386.61
553.676	50790.65
553.876	50602.24
554.076	50594.04
554.275	50661.63
554.475	50116.87
554.674	50600.19
554.874	50528.51
555.074	50682.11
555.273	50098.44
555.473	50403.58
555.672	50071.81
555.872	50057.48
556.071	50039.04
556.271	50383.1
556.47	49936.65
556.67	49760.52
556.869	49783.05
557.068	49977.61
557.268	49797.38
557.467	49715.47
557.667	49877.25
557.866	49576.2
558.065	49568.01
558.265	49516.81
558.464	49389.84
558.663	50090.24
558.863	48859.41
559.062	49959.17
559.261	48888.09
559.461	50092.29
559.66	49137.94
559.859	49318.16
560.058	48838.93
560.258	48714.01
560.457	48564.51
560.656	48967.96
560.855	48560.41
561.054	49170.71
561.253	48173.34
561.453	48396.57
561.652	48630.04
561.851	48527.64
562.05	48374.05
562.249	48056.61
562.448	48550.17
562.647	48093.47
562.846	47903.01
563.045	48154.91
563.244	47618.35
563.443	48154.91
563.642	46795.06
563.841	47352.11
564.04	47499.56
564.239	47628.59
564.438	47218.99
564.637	47059.25
564.836	47225.14
565.035	46770.49
565.234	47165.74
565.432	46661.94
565.631	46348.6
565.83	47077.68
566.029	46195.01
566.228	46410.04
566.427	46616.89
566.625	45996.35
566.824	45668.68
567.023	46643.51
567.222	45357.39
567.42	46215.49
567.619	45582.66
567.818	45744.45
568.016	45721.93
568.215	45715.78
568.414	45338.96
568.612	45746.5
568.811	45304.14
569.01	45152.59
569.208	44880.21
569.407	45250.89
569.605	44259.68
569.804	45005.14
570.002	44259.68
570.201	44802.39
570.4	44349.79
570.598	44120.41
570.797	43956.58
570.995	44185.95
571.193	43489.64
571.392	43854.18
571.59	43776.36
571.789	43741.54
571.987	43434.35
572.186	43284.84
572.384	43325.8
572.582	43430.25
572.781	43454.82
572.979	42680.69
573.177	43178.35
573.376	43442.54
573.574	43057.52
573.772	42746.23
573.971	42076.54
574.169	42109.31
574.367	41898.37
574.565	42518.9
574.763	41896.32
574.962	41859.46
575.16	41509.25
575.358	41580.93
575.556	41134.48
575.754	41744.77
575.952	41148.81
576.151	41763.2
576.349	40925.58
576.547	40948.11
576.745	40771.99
576.943	40855.95
577.141	40903.06
577.339	40819.09
577.537	40434.07
577.735	40765.84
577.933	40212.89
578.131	40415.64
578.329	40339.86
578.527	39946.65
578.725	40044.96
578.923	40196.51
579.121	39979.42
579.319	39817.63
579.516	39938.46
579.714	39696.8
579.912	39477.67
580.11	39174.57
580.308	39012.78
580.506	39506.34
580.704	38803.89
580.901	38977.97
581.099	39215.53
581.297	38660.53
581.495	38699.44
581.692	38906.29
581.89	38435.25
582.088	38586.8
582.285	38445.49
582.483	38754.74
582.681	38121.91
582.878	38083
583.076	37773.76
583.274	38222.26
583.471	37517.76
583.669	37994.94
583.866	37401.03
584.064	37648.83
584.262	36837.84
584.459	37525.96
584.657	36860.37
584.854	37403.08
585.052	36630.99
585.249	37276.1
585.447	36956.62
585.644	36690.38
585.841	36678.1
586.039	37169.61
586.236	36100.57
586.434	36565.46
586.631	36360.66
586.828	36078.04
587.026	36391.38
587.223	36176.34
587.42	35525.09
587.618	36057.56
587.815	35531.23
588.012	35535.33
588.21	35084.78
588.407	35801.57
588.604	35420.64
588.801	35064.3
588.999	35076.58
589.196	34941.42
589.393	34712.05
589.59	34951.66
589.787	34783.73
589.984	34527.73
590.182	34269.69
590.379	34615.79
590.576	34277.88
590.773	34124.28
590.97	34187.77
591.167	34648.56
591.364	33696.25
591.561	34120.18
591.758	33714.69
591.955	33708.54
592.152	33874.43
592.349	33485.31
592.546	33368.58
592.743	33663.49
592.94	33012.23
593.137	33171.97
593.334	33257.99
593.531	32528.91
593.727	33233.41
593.924	33067.53
594.121	32444.94
594.318	32784.91
594.515	32012.82
594.712	32709.13
594.908	32397.84
595.105	32393.75
595.302	31988.25
595.499	31939.1
595.696	32061.97
595.892	31760.92
596.089	32010.78
596.286	31410.72
596.482	31431.2
596.679	31885.85
596.876	31463.97
597.072	31412.77
597.269	31203.88
597.466	30728.75
597.662	31310.37
597.859	31210.02
598.055	31218.21
598.252	30587.44
598.448	30693.93
598.645	30642.73
598.841	30376.5
599.038	30753.32
599.234	30712.36
599.431	30077.49
599.627	30153.27
599.824	30233.14
600.02	30210.61
600.217	29921.85
600.413	29794.87
600.609	29655.61
600.806	29755.96
601.002	29770.3
601.198	29631.04
601.395	29162.05
601.591	29299.26
601.787	29313.6
601.984	29067.84
602.18	29340.22
602.376	29004.36
602.572	29211.2
602.769	29071.94
602.965	28435.02
603.161	28793.42
603.357	28762.7
603.553	28566.09
603.75	28701.26
603.946	28500.56
604.142	28555.85
604.338	28189.27
604.534	28211.79
604.73	28052.05
604.926	27775.58
605.122	27933.27
605.318	27581.02
605.514	27775.58
605.71	27408.99
605.906	27583.07
606.102	27587.16
606.298	27036.26
606.494	27011.68
606.69	27470.43
606.886	27263.58
607.082	26960.48
607.278	27126.37
607.474	26593.9
607.67	27030.12
607.866	26573.42
608.062	27224.67
608.257	26835.56
608.453	26602.09
608.649	26745.45
608.845	26360.43
609.041	26503.79
609.236	26587.75
609.432	26503.79
609.628	26374.77
609.824	26335.85
610.019	26137.2
610.215	26276.46
610.411	26217.07
610.606	26172.02
610.802	26135.15
610.998	26346.09
611.193	26086
611.389	25688.7
611.584	25864.82
611.78	25795.19
611.976	25821.81
612.171	25662.07
612.367	25780.85
612.562	25264.77
612.758	25115.26
612.953	25252.48
613.149	25698.94
613.344	24879.75
613.539	25668.22
613.735	25383.55
613.93	25281.15
614.126	25072.26
614.321	25705.08
614.517	25305.73
614.712	25090.69
614.907	24865.41
615.103	24896.13
615.298	24658.57
615.493	24965.76
615.688	24488.59
615.884	24904.32
616.079	24392.33
616.274	24455.82
616.47	24597.13
616.665	24392.33
616.86	24035.99
617.055	24328.84
617.25	24171.15
617.445	24369.8
617.641	23956.11
617.836	23974.55
618.031	23466.65
618.226	24003.22
618.421	23794.32
618.616	24042.13
618.811	23585.43
619.006	24048.27
619.201	23437.98
619.396	23716.5
619.591	23188.13
619.786	23575.19
619.981	22899.36
620.176	23458.46
620.371	22917.79
620.566	23057.06
620.761	22803.11
620.956	22987.43
621.151	22508.2
621.346	22672.04
621.541	22457
621.735	22473.39
621.93	21858.99
622.125	22158
622.32	21658.29
622.515	22057.65
622.709	21918.39
622.904	21973.68
623.099	21467.83
623.294	21433.02
623.488	21303.99
623.683	21568.18
623.878	20841.15
624.072	21174.97
624.267	20972.22
624.462	21027.52
624.656	20628.17
624.851	20732.61
625.046	20341.45
625.24	20681.41
625.435	20245.2
625.629	20411.08
625.824	20015.82
626.018	20124.36
626.213	19763.92
626.407	20048.59
626.602	19682
626.796	19561.17
626.991	19374.81
627.185	19008.22
627.38	19342.04
627.574	19262.17
627.768	19000.03
627.963	18782.95
628.157	18760.42
628.352	18907.87
628.546	18514.66
628.74	18891.49
628.935	18643.68
629.129	18379.5
629.323	18158.31
629.517	18189.03
629.712	18060.01
629.906	18205.42
630.1	17849.07
630.294	17949.42
630.489	17718
630.683	17832.69
630.877	17611.51
631.071	17373.94
631.265	17611.51
631.459	17486.58
631.653	17107.71
631.848	17283.83
632.042	17093.37
632.236	17109.75
632.43	16882.43
632.624	16620.29
632.818	16409.35
633.012	16726.78
633.206	16489.22
633.4	16634.63
633.594	16136.97
633.788	16341.77
633.982	16321.29
634.176	16243.46
634.369	16153.35
634.563	15958.8
634.757	15696.66
634.951	15794.96
635.145	15692.56
635.339	15538.96
635.533	15229.72
635.726	15487.76
635.92	15459.09
636.114	15500.05
636.308	15303.45
636.501	15231.77
636.695	15076.12
636.889	14910.24
637.083	14986.01
637.276	14912.28
637.47	14850.85
637.664	14537.51
637.857	14656.29
638.051	14471.97
638.244	14410.53
638.438	14246.69
638.632	14164.78
638.825	14029.61
639.019	14068.52
639.212	13837.1
639.406	13777.71
639.599	13802.29
639.793	13935.4
639.986	13388.6
640.18	13683.5
640.373	13716.27
640.567	13392.69
640.76	13671.22
640.954	13439.79
641.147	13208.37
641.34	13130.55
641.534	13177.65
641.727	12981.05
641.92	13060.92
642.114	12923.71
642.307	12755.77
642.5	12786.49
642.694	12356.42
642.887	12587.84
643.08	12524.35
643.273	12346.18
643.467	12702.53
643.66	12399.43
643.853	12344.13
644.046	12065.61
644.239	12307.27
644.432	11928.39
644.626	11881.29
644.819	12096.33
645.012	12000.07
645.205	11969.35
645.398	11668.3
645.591	11817.8
645.784	11453.27
645.977	11430.74
646.17	11494.22
646.363	11608.91
646.556	11051.86
646.749	11254.61
646.942	11363.15
647.135	11096.92
647.328	11230.04
647.521	11060.06
647.714	10922.84
647.907	10955.61
648.099	10810.2
648.292	10806.11
648.485	10842.97
648.678	10840.92
648.871	10652.51
649.064	10564.45
649.256	10468.19
649.449	10601.31
649.642	10509.15
649.835	10216.29
650.027	10181.48
650.22	10236.77
650.413	10152.81
650.605	10066.79
650.798	10154.85
650.991	10019.69
651.183	10048.36
651.376	9786.22
651.568	10072.93
651.761	10048.36
651.954	9767.79
652.146	9739.12
652.339	9786.22
652.531	9739.12
652.724	9614.19
652.916	9376.62
653.109	9401.2
653.301	9507.69
653.494	9395.06
653.686	9143.16
653.879	9270.13
654.071	9276.27
654.263	9016.18
654.456	9100.15
654.648	9026.42
654.84	8950.65
655.033	8897.4
655.225	9044.85
655.417	9048.95
655.61	9003.89
655.802	8807.29
655.994	8827.77
656.186	8745.85
656.379	8584.06
656.571	8598.4
656.763	8518.53
656.955	8508.29
657.148	8539.01
657.34	8397.7
657.532	8313.73
657.724	8270.72
657.916	8293.25
658.108	8326.02
658.3	8057.73
658.492	8102.79
658.684	8213.38
658.876	8049.54
659.068	8065.92
659.26	7900.04
659.452	8016.77
659.644	8078.21
659.836	7875.46
660.028	7914.38
660.22	7494.54
660.412	7969.67
660.604	7553.93
660.796	7750.54
660.988	7672.71
661.18	7592.84
661.372	7482.25
661.563	7756.68
661.755	7383.95
661.947	7515.02
662.139	7504.78
662.331	7392.14
662.522	7365.52
662.714	7285.65
662.906	7275.41
663.097	7140.24
663.289	7216.02
663.481	7183.25
663.673	7023.51
663.864	6912.92
664.056	7021.46
664.247	7021.46
664.439	6787.99
664.631	6949.78
664.822	6845.34
665.014	6925.21
665.205	7119.76
665.397	6759.32
665.588	6820.76
665.78	6845.34
665.971	6753.18
666.163	6634.39
666.354	6628.25
666.546	6753.18
666.737	6607.77
666.929	6595.48
667.12	6450.08
667.311	6425.5
667.503	6454.17
667.694	6527.9
667.885	6362.01
668.077	6427.55
668.268	6226.85
668.459	6261.66
668.651	6308.77
668.842	6101.92
669.033	6341.54
669.224	6196.13
669.416	6294.43
669.607	6103.97
669.798	6036.39
669.989	6187.94
670.18	6087.59
670.371	5909.41
670.563	5923.75
670.754	6013.86
670.945	6034.34
671.136	5899.17
671.327	5981.09
671.518	6058.92
671.709	5866.41
671.9	5895.08
672.091	5958.57
672.282	5866.41
672.473	5813.16
672.664	5856.17
672.855	5747.62
673.046	5821.35
673.237	5866.41
673.428	5612.46
673.619	5696.43
673.809	5790.63
674	5632.94
674.191	5723.05
674.382	5749.67
674.573	5591.98
674.764	5467.05
674.954	5512.11
675.145	5518.25
675.336	5350.32
675.527	5493.68
675.717	5442.48
675.908	5493.68
676.099	5479.34
676.289	5413.81
676.48	5499.82
676.671	5510.06
676.861	5327.79
677.052	5305.26
677.243	5215.15
677.433	5327.79
677.624	5260.21
677.814	5364.65
678.005	5219.25
678.195	5383.09
678.386	5305.26
678.576	5333.93
678.767	5184.43
678.957	5213.1
679.148	5262.26
679.338	5206.96
679.529	5127.09
679.719	5256.11
679.909	5254.06
680.1	5340.08
680.29	5215.15
680.481	5133.23
680.671	5295.02
680.861	5229.49
681.052	5153.71
681.242	5247.92
681.432	5139.38
681.622	5022.64
681.813	4955.06
682.003	5069.75
682.193	5059.51
682.383	5086.13
682.573	5028.79
682.764	5159.86
682.954	4961.2
683.144	4883.38
683.334	4985.78
683.524	4973.49
683.714	5022.64
683.904	4989.88
684.094	4899.77
684.284	5030.84
684.474	5020.6
684.664	4955.06
684.854	4852.66
685.044	5022.64
685.234	4795.32
685.424	4996.02
685.614	4731.83
685.804	4946.87
685.994	4852.66
686.184	4727.74
686.374	4905.91
686.564	4768.7
686.753	4725.69
686.943	4666.3
687.133	4805.56
687.323	4697.02
687.513	4793.27
687.702	4629.43
687.892	4582.33
688.082	4527.03
688.272	4774.84
688.461	4676.54
688.651	4527.03
688.841	4641.72
689.03	4637.63
689.22	4602.81
689.41	4457.4
689.599	4473.79
689.789	4539.32
689.979	4463.55
690.168	4459.45
690.358	4357.05
690.547	4387.77
690.737	4322.24
690.926	4465.6
691.116	4340.67
691.305	4344.77
691.495	4352.96
691.684	4369.34
691.874	4246.46
692.063	4348.86
692.252	4150.21
692.442	4391.87
692.631	4137.92
692.82	4115.39
693.01	4170.69
693.199	4150.21
693.388	4096.96
693.578	4027.33
693.767	4234.18
693.956	4096.96
694.146	4162.5
694.335	4256.7
694.524	4131.78
694.713	4115.39
694.902	4072.39
695.092	4096.96
695.281	4088.77
695.47	3953.6
695.659	4121.54
695.848	4017.09
696.037	4094.91
696.226	4133.82
696.415	3828.68
696.604	4082.63
696.793	4025.28
696.982	4000.71
697.171	3988.42
697.36	4002.75
697.549	3904.45
697.738	3746.76
697.927	3922.88
698.116	4060.1
698.305	3988.42
698.494	4021.19
698.683	3818.44
698.872	3933.12
699.061	3832.77
699.25	3914.69
699.438	3986.37
699.627	3853.25
699.816	3883.97
700.005	3847.11
700.193	3845.06
700.382	3847.11
700.571	3761.09
700.76	3914.69
700.948	3806.15
701.137	3830.73
701.326	3775.43
701.514	3677.13
701.703	3892.16
701.892	3912.64
702.08	3939.27
702.269	3828.68
702.457	3609.54
702.646	3840.97
702.834	3744.71
703.023	3787.72
703.212	3775.43
703.4	3759.05
703.589	3767.24
703.777	3650.5
703.965	3793.86
704.154	3808.2
704.342	3765.19
704.531	3812.29
704.719	3722.18
704.907	3812.29
705.096	3703.75
705.284	3849.16
705.472	3787.72
705.661	3675.08
705.849	3849.16
706.037	3677.13
706.226	3765.19
706.414	3732.42
706.602	3785.67
706.79	3593.16
706.979	3691.46
707.167	3867.59
707.355	3709.9
707.543	3707.85
707.731	3738.57
707.919	3783.62
708.107	3724.23
708.296	3777.48
708.484	3668.94
708.672	3646.41
708.86	3701.7
709.048	3812.29
709.236	3640.26
709.424	3787.72
709.612	3648.46
709.8	3607.5
709.988	3713.99
710.176	3646.41
710.364	3660.74
710.551	3556.3
710.739	3691.46
710.927	3699.66
711.115	3722.18
711.303	3748.81
711.491	3666.89
711.679	3666.89
711.866	3705.8
712.054	3697.61
712.242	3568.59
712.43	3711.94
712.617	3666.89
712.805	3673.03
712.993	3660.74
713.181	3703.75
713.368	3658.7
713.556	3632.07
713.744	3650.5
713.931	3687.37
714.119	3757
714.306	3720.14
714.494	3617.74
714.682	3711.94
714.869	3664.84
715.057	3632.07
715.244	3650.5
715.432	3644.36
715.619	3564.49
715.807	3609.54
715.994	3613.64
716.182	3654.6
716.369	3632.07
716.556	3552.2
716.744	3619.78
716.931	3605.45
717.119	3713.99
717.306	3609.54
717.493	3771.33
717.681	3521.48
717.868	3662.79
718.055	3568.59
718.242	3625.93
718.43	3597.26
718.617	3668.94
718.804	3656.65
718.991	3695.56
719.179	3476.43
719.366	3648.46
719.553	3660.74
719.74	3484.62
719.927	3675.08
720.114	3556.3
720.301	3636.17
720.488	3507.15
720.676	3494.86
720.863	3582.92
721.05	3677.13
721.237	3449.8
721.424	3632.07
721.611	3564.49
721.798	3501
721.985	3617.74
722.172	3537.87
722.358	3613.64
722.545	3578.83
722.732	3666.89
722.919	3580.87
723.106	3492.81
723.293	3601.35
723.48	3650.5
723.667	3527.63
723.853	3578.83
724.04	3490.76
724.227	3380.17
724.414	3468.24
724.6	3449.8
724.787	3521.48
724.974	3480.52
725.161	3521.48
725.347	3369.93
725.534	3363.79
725.72	3441.61
725.907	3437.52
726.094	3498.95
726.28	3490.76
726.467	3449.8
726.653	3445.71
726.84	3529.67
727.027	3584.97
727.213	3427.28
727.4	3421.13
727.586	3347.4
727.773	3519.43
727.959	3462.09
728.145	3570.63
728.332	3363.79
728.518	3451.85
728.705	3439.56
728.891	3433.42
729.077	3398.6
729.264	3570.63
729.45	3427.28
729.636	3535.82
729.823	3343.31
730.009	3331.02
730.195	3447.76
730.382	3408.84
730.568	3226.57
730.754	3404.75
730.94	3247.05
731.126	3339.21
731.313	3390.41
731.499	3417.04
731.685	3312.59
731.871	3386.32
732.057	3306.45
732.243	3292.11
732.429	3265.49
732.615	3376.08
732.801	3357.64
732.987	3230.67
733.173	3302.35
733.359	3292.11
733.545	3288.01
733.731	3232.72
733.917	3382.22
734.103	3324.88
734.289	3222.48
734.475	3247.05
734.661	3337.17
734.847	3306.45
735.033	3269.58
735.219	3263.44
735.404	3388.36
735.59	3218.38
735.776	3216.33
735.962	3296.21
736.148	3314.64
736.333	3363.79
736.519	3204.05
736.705	3197.9
736.89	3167.18
737.076	3249.1
737.262	3335.12
737.447	3181.52
737.633	3036.11
737.819	3113.94
738.004	3089.36
738.19	3142.61
738.375	3124.18
738.561	3228.62
738.747	3013.59
738.932	3072.98
739.118	3015.63
739.303	2976.72
739.489	3228.62
739.674	3267.53
739.859	3075.03
740.045	3052.5
740.23	2991.06
740.416	2900.95
740.601	3109.84
740.786	2978.77
740.972	2896.85
741.157	2995.15
741.342	2859.99
741.528	2954.19
741.713	2937.81
741.898	2911.19
742.084	2933.72
742.269	2972.63
742.454	2913.24
742.639	2966.48
742.824	2862.04
743.01	2970.58
743.195	2966.48
743.38	2771.93
743.565	2880.47
743.75	3013.59
743.935	2841.56
744.12	2765.78
744.305	2804.69
744.49	2724.82
744.675	2843.6
744.86	2649.05
745.045	2667.48
745.23	2751.45
745.415	2628.57
745.6	2640.86
745.785	2735.06
745.97	2644.95
746.155	2534.36
746.34	2667.48
746.525	2606.04
746.71	2624.47
746.895	2565.08
747.079	2503.64
747.264	2601.94
747.449	2597.85
747.634	2495.45
747.819	2595.8
748.003	2458.59
748.188	2468.83
748.373	2444.25
748.557	2493.4
748.742	2380.76
748.927	2442.2
749.111	2391
749.296	2216.93
749.481	2372.57
749.665	2397.15
749.85	2247.65
750.034	2286.56
750.219	2327.52
750.404	2391
750.588	2128.86
750.773	2167.77
750.957	2245.6
751.141	2272.22
751.326	2196.45
751.51	2188.25
751.695	2190.3
751.879	2171.87
752.064	2231.26
752.248	2135.01
752.432	2233.31
752.617	2167.77
752.801	2194.4
752.985	2053.09
753.17	2096.1
753.354	2040.8
753.538	2094.05
753.722	1969.12
753.907	2085.86
754.091	1901.54
754.275	1979.36
754.459	2005.99
754.643	2003.94
754.828	1911.78
755.012	1842.15
755.196	1829.86
755.38	1909.73
755.564	1940.45
755.748	1879.01
755.932	1928.16
756.116	1848.29
756.3	1887.2
756.484	1782.76
756.668	1831.91
756.852	1733.61
757.036	1840.1
757.22	1729.51
757.404	1848.29
757.588	1715.17
757.772	1663.97
757.956	1672.17
758.14	1704.93
758.323	1663.97
758.507	1782.76
758.691	1659.88
758.875	1737.7
759.059	1674.21
759.242	1594.34
759.426	1719.27
759.61	1643.49
759.794	1577.96
759.977	1573.86
760.161	1645.54
760.345	1618.92
760.528	1541.1
760.712	1620.97
760.895	1520.62
761.079	1590.25
761.263	1520.62
761.446	1563.62
761.63	1532.9
761.813	1528.81
761.997	1532.9
762.18	1537
762.364	1459.18
762.547	1381.35
762.731	1360.88
762.914	1401.83
763.098	1506.28
763.281	1465.32
763.464	1379.31
763.648	1405.93
763.831	1479.66
764.015	1375.21
764.198	1567.72
764.381	1534.95
764.564	1414.12
764.748	1270.76
764.931	1289.2
765.114	1364.97
765.297	1319.92
765.481	1377.26
765.664	1315.82
765.847	1242.09
766.03	1354.73
766.213	1297.39
766.397	1412.07
766.58	1291.24
766.763	1207.28
766.946	1340.4
767.129	1270.76
767.312	1225.71
767.495	1289.2
767.678	1264.62
767.861	1356.78
768.044	1240.05
768.227	1305.58
768.41	1307.63
768.593	1235.95
768.776	1248.24
768.959	1250.28
769.142	1262.57
769.324	1182.7
769.507	1262.57
769.69	1201.13
769.873	1151.98
770.056	1229.81
770.239	1176.56
770.421	1291.24
770.604	1164.27
770.787	1233.9
770.97	1164.27
771.152	1090.54
771.335	1242.09
771.518	1158.13
771.7	1135.6
771.883	1180.65
772.066	1139.69
772.248	1137.65
772.431	1207.28
772.613	1180.65
772.796	1070.06
772.978	1047.54
773.161	1125.36
773.343	1070.06
773.526	977.91
773.708	1045.49
773.891	984.05
774.073	1080.3
774.256	975.86
774.438	1049.58
774.621	1074.16
774.803	1035.25
774.985	887.79
775.168	967.67
775.35	1018.86
775.532	900.08
775.715	965.62
775.897	982
776.079	1065.97
776.261	947.19
776.444	961.52
776.626	938.99
776.808	988.14
776.99	842.74
777.173	924.66
777.355	906.23
777.537	863.22
777.719	861.17
777.901	918.51
778.083	914.42
778.265	809.97
778.447	830.45
778.629	857.07
778.811	791.54
778.993	797.68
779.175	828.4
779.357	826.36
779.539	836.6
779.721	781.3
779.903	859.12
780.085	807.92
780.267	793.59
780.449	746.48
780.631	787.44
780.812	816.12
780.994	797.68
781.176	726
781.358	816.12
781.54	750.58
781.721	830.45
781.903	791.54
782.085	680.95
782.267	793.59
782.448	709.62
782.63	594.93
782.812	685.05
782.993	658.42
783.175	699.38
783.357	701.43
783.538	701.43
783.72	648.18
783.901	685.05
784.083	703.48
784.264	766.96
784.446	566.26
784.627	642.04
784.809	695.29
784.99	549.88
785.172	637.94
785.353	629.75
785.535	609.27
785.716	646.13
785.897	525.3
786.079	558.07
786.26	586.74
786.441	601.08
786.623	580.6
786.804	639.99
786.985	578.55
787.167	637.94
787.348	523.26
787.529	551.93
787.71	664.57
787.891	588.79
788.073	547.83
788.254	549.88
788.435	527.35
788.616	545.78
788.797	472.06
788.978	541.69
789.159	568.31
789.34	513.02
789.522	451.58
789.703	500.73
789.884	607.22
790.065	515.06
790.246	617.46
790.427	431.1
790.607	492.54
790.788	527.35
790.969	502.78
791.15	478.2
791.331	486.39
791.512	383.99
791.693	502.78
791.874	533.5
792.054	535.54
792.235	490.49
792.416	447.48
792.597	412.67
792.778	492.54
792.958	476.15
793.139	547.83
793.32	482.3
793.5	513.02
793.681	461.82
793.862	510.97
794.042	427
794.223	328.7
794.404	406.52
794.584	390.14
794.765	365.56
794.945	396.28
795.126	424.95
795.306	447.48
795.487	412.67
795.667	398.33
795.848	398.33
796.028	347.13
796.209	412.67
796.389	381.95
796.57	422.91
796.75	308.22
796.93	418.81
797.111	345.08
797.291	367.61
797.471	375.8
797.652	406.52
797.832	392.19
798.012	396.28
798.192	353.27
798.373	361.47
798.553	328.7
798.733	338.94
798.913	338.94
799.093	373.75
799.274	291.84
799.454	371.71
799.634	381.95
799.814	336.89
799.994	312.32
800.174	308.22
800.354	297.98
800.534	371.71
800.714	349.18
800.894	398.33
801.074	340.99
801.254	328.7
801.434	347.13
801.614	375.8
801.794	295.93
801.974	910.32
802.154	318.46
802.334	261.12
802.514	308.22
802.693	306.17
802.873	246.78
803.053	302.08
803.233	334.84
803.413	279.55
803.592	226.3
803.772	234.49
803.952	248.83
804.131	279.55
804.311	375.8
804.491	338.94
804.67	220.16
804.85	240.64
805.03	371.71
805.209	334.84
805.389	242.68
805.568	316.41
805.748	287.74
805.928	232.44
806.107	349.18
806.287	226.3
806.466	314.36
806.646	263.16
806.825	345.08
807.004	287.74
807.184	308.22
807.363	343.03
807.543	240.64
807.722	181.25
807.901	279.55
808.081	302.08
808.26	209.92
808.439	259.07
808.619	232.44
808.798	250.88
808.977	250.88
809.156	250.88
809.336	191.49
809.515	242.68
809.694	259.07
809.873	242.68
810.052	205.82
810.231	201.72
810.411	330.75
810.59	252.92
810.769	246.78
810.948	263.16
811.127	128
811.306	259.07
811.485	164.86
811.664	250.88
811.843	214.01
812.022	279.55
812.201	162.81
812.38	230.4
812.559	261.12
812.737	271.36
812.916	173.05
813.095	252.92
813.274	189.44
813.453	191.49
813.632	218.11
813.811	201.72
813.989	156.67
814.168	207.87
814.347	164.86
814.526	195.58
814.704	232.44
814.883	267.26
815.062	226.3
815.24	246.78
815.419	222.2
815.598	207.87
815.776	162.81
815.955	197.63
816.133	117.76
816.312	195.58
816.49	203.77
816.669	216.06
816.847	199.68
817.026	150.53
817.204	220.16
817.383	181.25
817.561	166.91
817.74	158.72
817.918	189.44
818.097	185.34
818.275	189.44
818.453	195.58
818.632	199.68
818.81	134.14
818.988	132.09
819.167	185.34
819.345	84.99
819.523	242.68
819.701	277.5
819.879	207.87
820.058	175.1
820.236	173.05
820.414	134.14
820.592	181.25
820.77	175.1
820.948	144.38
821.127	84.99
821.305	140.29
821.483	168.96
821.661	140.29
821.839	123.9
822.017	107.52
822.195	185.34
822.373	203.77
822.551	160.77
822.729	234.49
822.907	142.33
823.085	144.38
823.262	171.01
823.44	84.99
823.618	152.57
823.796	123.9
823.974	140.29
824.152	150.53
824.329	93.18
824.507	111.61
824.685	261.12
824.863	189.44
825.04	173.05
825.218	250.88
825.396	199.68
825.574	160.77
825.751	140.29
825.929	254.97
826.107	44.03
826.284	244.73
826.462	103.42
826.639	179.2
826.817	123.9
826.994	164.86
827.172	132.09
827.349	236.54
827.527	93.18
827.704	140.29
827.882	189.44
828.059	134.14
828.237	162.81
828.414	242.68
828.591	74.75
828.769	191.49
828.946	125.95
829.124	259.07
829.301	166.91
829.478	54.27
829.655	95.23
829.833	119.81
830.01	148.48
830.187	156.67
830.364	140.29
830.542	191.49
830.719	156.67
830.896	115.71
831.073	175.1
831.25	115.71
831.427	103.42
831.604	132.09
831.782	117.76
831.959	156.67
832.136	160.77
832.313	101.37
832.49	166.91
832.667	103.42
832.844	52.22
833.021	91.13
833.198	113.66
833.374	130.05
833.551	56.32
833.728	130.05
833.905	160.77
834.082	68.61
834.259	115.71
834.436	95.23
834.612	154.62
834.789	101.37
834.966	97.28
835.143	111.61
835.319	33.79
835.496	150.53
835.673	125.95
835.85	156.67
836.026	52.22
836.203	189.44
836.38	203.77
836.556	107.52
836.733	168.96
836.909	136.19
837.086	29.7
837.262	54.27
837.439	119.81
837.616	138.24
837.792	93.18
837.968	125.95
838.145	-1.02
838.321	72.7
838.498	105.47
838.674	70.65
838.851	164.86
839.027	111.61
839.203	80.89
839.38	87.04
839.556	68.61
839.732	173.05
839.909	91.13
840.085	152.57
840.261	58.37
840.437	111.61
840.614	103.42
840.79	89.09
840.966	84.99
841.142	103.42
841.318	46.08
841.494	123.9
841.671	142.33
841.847	-1.02
842.023	91.13
842.199	123.9
842.375	117.76
842.551	93.18
842.727	1.02
842.903	140.29
843.079	56.32
843.255	209.92
843.431	87.04
843.607	113.66
843.783	50.18
843.959	111.61
844.134	29.7
844.31	142.33
844.486	33.79
844.662	41.98
844.838	105.47
845.013	52.22
845.189	115.71
845.365	130.05
845.541	37.89
845.716	82.94
845.892	27.65
846.068	138.24
846.244	19.46
846.419	111.61
846.595	5.12
846.77	111.61
846.946	134.14
847.122	134.14
847.297	1.02
847.473	125.95
847.648	62.46
847.824	-13.31
847.999	52.22
848.175	87.04
848.35	52.22
848.526	76.8
848.701	68.61
848.876	82.94
849.052	70.65
849.227	84.99
849.403	41.98
849.578	68.61
849.753	62.46
849.929	128
850.104	-3.07
850.279	7.17
850.454	95.23
850.63	62.46
850.805	39.94
850.98	66.56
851.155	78.85
851.33	72.7
851.505	91.13
851.681	89.09
851.856	107.52
852.031	109.57
852.206	121.85
852.381	82.94
852.556	58.37
852.731	78.85
852.906	111.61
853.081	115.71
853.256	138.24
853.431	84.99
853.606	54.27
853.781	25.6
853.956	-37.89
854.131	78.85
854.305	25.6
854.48	66.56
854.655	46.08
854.83	91.13
855.005	27.65
855.18	89.09
855.354	76.8
855.529	105.47
855.704	70.65
855.879	128
856.053	58.37
856.228	60.42
856.403	25.6
856.577	25.6
856.752	-35.84
856.926	125.95
857.101	50.18
857.276	37.89
857.45	107.52
857.625	130.05
857.799	93.18
857.974	39.94
858.148	52.22
858.323	5.12
858.497	31.74
858.672	78.85
858.846	5.12
859.02	101.37
859.195	5.12
859.369	76.8
859.543	76.8
859.718	66.56
859.892	-13.31
860.066	-29.7
860.241	9.22
860.415	52.22
860.589	89.09
860.763	33.79
860.938	99.33
861.112	101.37
861.286	93.18
861.46	-1.02
861.634	41.98
861.808	5.12
861.982	-15.36
862.157	44.03
862.331	9.22
862.505	50.18
862.679	74.75
862.853	64.51
863.027	48.13
863.201	109.57
863.375	58.37
863.549	29.7
863.722	84.99
863.896	41.98
864.07	93.18
864.244	58.37
864.418	37.89
864.592	52.22
864.766	54.27
864.939	78.85
865.113	29.7
865.287	99.33
865.461	31.74
865.634	21.5
865.808	37.89
865.982	103.42
866.156	-13.31
866.329	-15.36
866.503	68.61
866.676	74.75
866.85	25.6
867.024	11.26
867.197	93.18
867.371	-15.36
867.544	111.61
867.718	11.26
867.891	9.22
868.065	23.55
868.238	19.46
868.412	74.75
868.585	-19.46
868.759	1.02
868.932	33.79
869.105	48.13
869.279	78.85
869.452	-7.17
869.625	70.65
869.799	-31.74
869.972	66.56
870.145	39.94
870.319	17.41
870.492	48.13
870.665	19.46
870.838	33.79
871.011	25.6
871.185	27.65
871.358	54.27
871.531	76.8
871.704	-7.17
871.877	113.66
872.05	91.13
872.223	82.94
872.396	13.31
872.569	41.98
872.742	56.32
872.915	44.03
873.088	74.75
873.261	31.74
873.434	-3.07
873.607	41.98
873.78	35.84
873.953	15.36
874.126	95.23
874.299	111.61
874.471	78.85
874.644	5.12
874.817	13.31
874.99	29.7
875.163	82.94
875.335	23.55
875.508	25.6
875.681	82.94
875.853	76.8
876.026	54.27
876.199	62.46
876.371	39.94
876.544	70.65
876.717	52.22
876.889	-11.26
877.062	25.6
877.234	-113.66
877.407	62.46
877.579	62.46
877.752	52.22
877.924	-11.26
878.097	29.7
878.269	29.7
878.442	13.31
878.614	27.65
878.786	74.75
878.959	68.61
879.131	17.41
879.303	21.5
879.476	25.6
879.648	11.26
879.82	1.02
879.993	29.7
880.165	31.74
880.337	-23.55
880.509	44.03
880.681	-1.02
880.854	-31.74
881.026	35.84
881.198	119.81
881.37	-19.46
881.542	7.17
881.714	66.56
881.886	107.52
882.058	23.55
882.23	48.13
882.402	-27.65
882.574	78.85
882.746	68.61
882.918	50.18
883.09	60.42
883.262	-5.12
883.434	1.02
883.606	-21.5
883.778	44.03
883.95	35.84
884.122	27.65
884.293	64.51
884.465	-52.22
884.637	35.84
884.809	60.42
884.98	60.42
885.152	46.08
885.324	82.94
885.496	-35.84
885.667	-27.65
885.839	-52.22
886.011	56.32
886.182	3.07
886.354	87.04
886.525	-15.36
886.697	78.85
886.869	37.89
887.04	70.65
887.212	-21.5
887.383	31.74
887.555	1.02
887.726	-23.55
887.897	13.31
888.069	91.13
888.24	97.28
888.412	23.55
888.583	-15.36
888.754	-46.08
888.926	-1.02
889.097	25.6
889.268	15.36
889.44	35.84
889.611	-11.26
889.782	-5.12
889.953	-84.99
890.125	74.75
890.296	37.89
890.467	-33.79
890.638	13.31
890.809	-19.46
890.98	-3.07
891.151	-5.12
891.323	37.89
891.494	44.03
891.665	54.27
891.836	9.22
892.007	7.17
892.178	-27.65
892.349	-39.94
892.52	13.31
892.691	-3.07
892.862	7.17
893.032	-52.22
893.203	7.17
893.374	39.94
893.545	5.12
893.716	-33.79
893.887	44.03
894.057	37.89
894.228	48.13
894.399	19.46
894.57	23.55
894.74	82.94
894.911	17.41
895.082	7.17
895.253	13.31
895.423	-19.46
895.594	-13.31
895.764	15.36
895.935	27.65
896.106	37.89
896.276	-33.79
896.447	21.5
896.617	-1.02
896.788	-7.17
896.958	7.17
897.129	54.27
897.299	-52.22
897.47	87.04
897.64	13.31
897.81	-46.08
897.981	58.37
898.151	11.26
898.322	-7.17
898.492	17.41
898.662	64.51
898.832	66.56
899.003	25.6
899.173	21.5
899.343	74.75
899.513	-60.42
