Data from USB4F104151__105__10-24-45-968.txt Node

Date: Wed Mar 12 10:24:45 EDT 2025
User: louis
Spectrometer: USB4F10415
Trigger mode: 4
Integration Time (sec): 3.000000E-2
Scans to average: 1
Electric dark correction enabled: true
Nonlinearity correction enabled: false
Boxcar width: 0
XAxis mode: Wavelengths
Number of Pixels in Spectrum: 3648
>>>>>Begin Spectral Data<<<<<
178.204	-92.84
178.424	-92.84
178.644	-92.84
178.864	-119.46
179.084	-113.32
179.304	-47.79
179.524	-37.55
179.744	-10.92
179.964	-10.92
180.184	32.08
180.404	52.56
180.624	-19.11
180.844	-58.03
181.064	40.28
181.283	19.8
181.503	-19.11
181.723	58.71
181.943	-51.88
182.163	27.99
182.383	-45.74
182.602	7.51
182.822	52.56
183.042	-2.73
183.262	-27.31
183.482	3.41
183.701	-2.73
183.921	-0.68
184.141	-55.98
184.361	-4.78
184.58	-6.83
184.8	13.65
185.02	23.89
185.239	71
185.459	54.61
185.679	54.61
185.898	-6.83
186.118	56.66
186.338	62.8
186.557	95.57
186.777	46.42
186.997	-51.88
187.216	-66.22
187.436	97.62
187.655	111.96
187.875	-12.97
188.095	-41.64
188.314	13.65
188.534	38.23
188.753	23.89
188.973	32.08
189.192	40.28
189.412	42.32
189.631	-23.21
189.851	5.46
190.07	38.23
190.29	105.81
190.509	48.47
190.729	36.18
190.948	50.52
191.168	91.48
191.387	-29.35
191.607	-37.55
191.826	40.28
192.045	5.46
192.265	-17.07
192.484	23.89
192.704	34.13
192.923	52.56
193.142	56.66
193.362	23.89
193.581	60.76
193.8	19.8
194.02	15.7
194.239	64.85
194.458	40.28
194.678	58.71
194.897	1.37
195.116	30.04
195.335	34.13
195.555	-12.97
195.774	13.65
195.993	66.9
196.212	15.7
196.432	5.46
196.651	42.32
196.87	-29.35
197.089	64.85
197.308	9.56
197.528	42.32
197.747	60.76
197.966	23.89
198.185	118.1
198.404	3.41
198.623	103.76
198.842	7.51
199.062	-15.02
199.281	13.65
199.5	-31.4
199.719	40.28
199.938	89.43
200.157	23.89
200.376	15.7
200.595	75.09
200.814	23.89
201.033	7.51
201.252	13.65
201.471	13.65
201.69	32.08
201.909	152.92
202.128	73.04
202.347	19.8
202.566	25.94
202.785	-25.26
203.004	-45.74
203.223	154.96
203.442	66.9
203.661	54.61
203.879	46.42
204.098	101.72
204.317	17.75
204.536	89.43
204.755	-12.97
204.974	68.95
205.193	75.09
205.411	107.86
205.63	56.66
205.849	62.8
206.068	27.99
206.287	73.04
206.505	13.65
206.724	-0.68
206.943	34.13
207.162	62.8
207.381	13.65
207.599	13.65
207.818	64.85
208.037	5.46
208.255	40.28
208.474	-0.68
208.693	75.09
208.911	-4.78
209.13	19.8
209.349	36.18
209.567	-6.83
209.786	128.34
210.005	36.18
210.223	9.56
210.442	-10.92
210.661	56.66
210.879	17.75
211.098	-15.02
211.316	15.7
211.535	-8.87
211.753	56.66
211.972	25.94
212.191	3.41
212.409	1.37
212.628	-23.21
212.846	46.42
213.065	71
213.283	13.65
213.502	56.66
213.72	91.48
213.938	79.19
214.157	3.41
214.375	48.47
214.594	27.99
214.812	54.61
215.031	52.56
215.249	40.28
215.467	17.75
215.686	-19.11
215.904	23.89
216.122	-8.87
216.341	34.13
216.559	36.18
216.778	1.37
216.996	46.42
217.214	-19.11
217.432	13.65
217.651	-6.83
217.869	-6.83
218.087	19.8
218.306	38.23
218.524	87.38
218.742	50.52
218.96	34.13
219.179	-82.6
219.397	-2.73
219.615	54.61
219.833	-0.68
220.051	40.28
220.27	3.41
220.488	-4.78
220.706	36.18
220.924	-8.87
221.142	44.37
221.36	-27.31
221.578	7.51
221.796	60.76
222.015	11.61
222.233	44.37
222.451	77.14
222.669	21.85
222.887	3.41
223.105	-49.83
223.323	32.08
223.541	-12.97
223.759	-15.02
223.977	-23.21
224.195	64.85
224.413	-35.5
224.631	62.8
224.849	30.04
225.067	46.42
225.285	13.65
225.503	-31.4
225.721	-21.16
225.939	79.19
226.157	-6.83
226.375	124.24
226.592	-17.07
226.81	34.13
227.028	122.2
227.246	71
227.464	25.94
227.682	-64.17
227.9	-0.68
228.117	-27.31
228.335	-17.07
228.553	23.89
228.771	93.52
228.989	-6.83
229.206	44.37
229.424	7.51
229.642	50.52
229.86	64.85
230.077	85.33
230.295	-4.78
230.513	-39.59
230.731	73.04
230.948	89.43
231.166	27.99
231.384	77.14
231.601	3.41
231.819	62.8
232.037	34.13
232.254	-19.11
232.472	-49.83
232.689	-25.26
232.907	120.15
233.125	13.65
233.342	64.85
233.56	13.65
233.777	52.56
233.995	95.57
234.213	68.95
234.43	-23.21
234.648	-0.68
234.865	19.8
235.083	114
235.3	19.8
235.518	-8.87
235.735	-58.03
235.953	-2.73
236.17	48.47
236.388	-23.21
236.605	-19.11
236.822	107.86
237.04	111.96
237.257	34.13
237.475	46.42
237.692	38.23
237.909	48.47
238.127	32.08
238.344	-33.45
238.562	73.04
238.779	17.75
238.996	19.8
239.214	5.46
239.431	130.39
239.648	-76.46
239.865	5.46
240.083	83.28
240.3	-29.35
240.517	-35.5
240.735	134.48
240.952	62.8
241.169	85.33
241.386	-8.87
241.603	25.94
241.821	11.61
242.038	66.9
242.255	111.96
242.472	-4.78
242.689	40.28
242.907	-4.78
243.124	73.04
243.341	-60.07
243.558	30.04
243.775	-27.31
243.992	-33.45
244.209	19.8
244.426	89.43
244.643	95.57
244.86	38.23
245.078	42.32
245.295	7.51
245.512	1.37
245.729	-4.78
245.946	64.85
246.163	81.24
246.38	58.71
246.597	68.95
246.814	95.57
247.031	89.43
247.248	81.24
247.464	1.37
247.681	15.7
247.898	27.99
248.115	48.47
248.332	-35.5
248.549	30.04
248.766	120.15
248.983	52.56
249.2	25.94
249.417	-8.87
249.633	27.99
249.85	68.95
250.067	-19.11
250.284	56.66
250.501	11.61
250.717	54.61
250.934	15.7
251.151	48.47
251.368	81.24
251.585	62.8
251.801	13.65
252.018	27.99
252.235	27.99
252.451	23.89
252.668	52.56
252.885	21.85
253.102	23.89
253.318	19.8
253.535	-6.83
253.752	21.85
253.968	1.37
254.185	-31.4
254.401	105.81
254.618	30.04
254.835	23.89
255.051	66.9
255.268	27.99
255.484	25.94
255.701	64.85
255.917	62.8
256.134	13.65
256.351	17.75
256.567	15.7
256.784	15.7
257	3.41
257.217	56.66
257.433	9.56
257.65	118.1
257.866	-15.02
258.082	-12.97
258.299	38.23
258.515	38.23
258.732	-15.02
258.948	95.57
259.165	-2.73
259.381	-4.78
259.597	111.96
259.814	-45.74
260.03	-8.87
260.246	-12.97
260.463	11.61
260.679	75.09
260.895	-25.26
261.112	62.8
261.328	56.66
261.544	56.66
261.761	73.04
261.977	-55.98
262.193	-6.83
262.409	15.7
262.626	75.09
262.842	27.99
263.058	-12.97
263.274	62.8
263.49	-6.83
263.707	27.99
263.923	34.13
264.139	62.8
264.355	27.99
264.571	66.9
264.787	32.08
265.004	68.95
265.22	-27.31
265.436	95.57
265.652	30.04
265.868	11.61
266.084	13.65
266.3	44.37
266.516	-35.5
266.732	5.46
266.948	58.71
267.164	60.76
267.38	77.14
267.596	56.66
267.812	114
268.028	48.47
268.244	25.94
268.46	48.47
268.676	17.75
268.892	56.66
269.108	-23.21
269.324	52.56
269.54	9.56
269.756	11.61
269.972	-10.92
270.188	36.18
270.403	48.47
270.619	42.32
270.835	-21.16
271.051	64.85
271.267	38.23
271.483	7.51
271.698	38.23
271.914	-0.68
272.13	15.7
272.346	21.85
272.562	-49.83
272.777	36.18
272.993	25.94
273.209	81.24
273.425	-4.78
273.64	38.23
273.856	34.13
274.072	25.94
274.287	19.8
274.503	79.19
274.719	32.08
274.934	52.56
275.15	5.46
275.366	7.51
275.581	9.56
275.797	36.18
276.012	32.08
276.228	30.04
276.444	-4.78
276.659	101.72
276.875	30.04
277.09	-25.26
277.306	36.18
277.521	15.7
277.737	79.19
277.952	62.8
278.168	64.85
278.383	-4.78
278.599	56.66
278.814	-37.55
279.03	11.61
279.245	89.43
279.461	85.33
279.676	13.65
279.892	-45.74
280.107	-6.83
280.322	-25.26
280.538	44.37
280.753	5.46
280.969	73.04
281.184	17.75
281.399	40.28
281.615	5.46
281.83	30.04
282.045	44.37
282.26	3.41
282.476	50.52
282.691	68.95
282.906	19.8
283.122	75.09
283.337	23.89
283.552	85.33
283.767	52.56
283.983	62.8
284.198	40.28
284.413	89.43
284.628	-0.68
284.843	23.89
285.058	7.51
285.274	-25.26
285.489	-12.97
285.704	15.7
285.919	5.46
286.134	71
286.349	79.19
286.564	23.89
286.779	46.42
286.995	27.99
287.21	15.7
287.425	-31.4
287.64	32.08
287.855	89.43
288.07	66.9
288.285	-37.55
288.5	66.9
288.715	85.33
288.93	56.66
289.145	21.85
289.36	-31.4
289.575	32.08
289.79	83.28
290.004	-49.83
290.219	13.65
290.434	64.85
290.649	-4.78
290.864	40.28
291.079	36.18
291.294	114
291.509	91.48
291.724	11.61
291.938	97.62
292.153	1.37
292.368	46.42
292.583	21.85
292.798	-35.5
293.012	-25.26
293.227	48.47
293.442	-29.35
293.657	40.28
293.871	105.81
294.086	46.42
294.301	9.56
294.516	64.85
294.73	50.52
294.945	38.23
295.16	52.56
295.374	23.89
295.589	89.43
295.804	-15.02
296.018	-33.45
296.233	-21.16
296.447	114
296.662	19.8
296.877	17.75
297.091	11.61
297.306	91.48
297.52	48.47
297.735	13.65
297.949	1.37
298.164	126.29
298.378	19.8
298.593	52.56
298.807	-15.02
299.022	42.32
299.236	64.85
299.451	19.8
299.665	-35.5
299.88	-0.68
300.094	-31.4
300.309	83.28
300.523	83.28
300.737	34.13
300.952	17.75
301.166	11.61
301.381	30.04
301.595	34.13
301.809	-25.26
302.024	-35.5
302.238	23.89
302.452	62.8
302.667	64.85
302.881	81.24
303.095	-8.87
303.309	11.61
303.524	56.66
303.738	23.89
303.952	25.94
304.166	30.04
304.381	-33.45
304.595	52.56
304.809	-31.4
305.023	-15.02
305.237	34.13
305.452	7.51
305.666	66.9
305.88	97.62
306.094	60.76
306.308	50.52
306.522	-0.68
306.736	56.66
306.95	-0.68
307.164	101.72
307.379	7.51
307.593	50.52
307.807	32.08
308.021	68.95
308.235	3.41
308.449	-4.78
308.663	-43.69
308.877	122.2
309.091	-0.68
309.305	71
309.519	58.71
309.733	48.47
309.947	19.8
310.161	15.7
310.374	32.08
310.588	50.52
310.802	-8.87
311.016	-4.78
311.23	5.46
311.444	48.47
311.658	27.99
311.872	163.15
312.085	97.62
312.299	97.62
312.513	-8.87
312.727	27.99
312.941	-29.35
313.154	-0.68
313.368	38.23
313.582	17.75
313.796	56.66
314.009	68.95
314.223	36.18
314.437	87.38
314.651	36.18
314.864	-12.97
315.078	-21.16
315.292	27.99
315.505	66.9
315.719	73.04
315.933	81.24
316.146	17.75
316.36	-49.83
316.573	81.24
316.787	71
317.001	-4.78
317.214	27.99
317.428	-17.07
317.641	-60.07
317.855	-8.87
318.068	13.65
318.282	64.85
318.495	116.05
318.709	73.04
318.922	15.7
319.136	50.52
319.349	83.28
319.563	34.13
319.776	38.23
319.99	-53.93
320.203	3.41
320.417	38.23
320.63	-43.69
320.843	95.57
321.057	54.61
321.27	17.75
321.483	-2.73
321.697	-21.16
321.91	-8.87
322.124	105.81
322.337	32.08
322.55	68.95
322.763	25.94
322.977	68.95
323.19	-0.68
323.403	27.99
323.617	-4.78
323.83	38.23
324.043	54.61
324.256	40.28
324.469	-19.11
324.683	89.43
324.896	3.41
325.109	81.24
325.322	7.51
325.535	27.99
325.748	36.18
325.962	-12.97
326.175	32.08
326.388	101.72
326.601	44.37
326.814	23.89
327.027	11.61
327.24	89.43
327.453	64.85
327.666	50.52
327.879	48.47
328.092	64.85
328.305	46.42
328.518	62.8
328.731	-43.69
328.944	122.2
329.157	7.51
329.37	-12.97
329.583	71
329.796	73.04
330.009	15.7
330.222	21.85
330.435	30.04
330.648	-35.5
330.861	48.47
331.073	66.9
331.286	71
331.499	5.46
331.712	17.75
331.925	7.51
332.138	19.8
332.35	52.56
332.563	44.37
332.776	103.76
332.989	-35.5
333.202	134.48
333.414	-25.26
333.627	66.9
333.84	-41.64
334.053	15.7
334.265	7.51
334.478	75.09
334.691	54.61
334.903	23.89
335.116	23.89
335.329	-21.16
335.541	109.91
335.754	111.96
335.966	73.04
336.179	52.56
336.392	66.9
336.604	-2.73
336.817	81.24
337.029	19.8
337.242	15.7
337.454	52.56
337.667	30.04
337.88	97.62
338.092	68.95
338.305	58.71
338.517	52.56
338.729	1.37
338.942	68.95
339.154	5.46
339.367	58.71
339.579	34.13
339.792	-25.26
340.004	58.71
340.217	48.47
340.429	42.32
340.641	11.61
340.854	-4.78
341.066	99.67
341.278	101.72
341.491	114
341.703	-25.26
341.915	-0.68
342.128	42.32
342.34	89.43
342.552	19.8
342.764	40.28
342.977	-0.68
343.189	81.24
343.401	48.47
343.613	68.95
343.826	-2.73
344.038	-49.83
344.25	38.23
344.462	23.89
344.674	42.32
344.886	-8.87
345.099	81.24
345.311	-21.16
345.523	54.61
345.735	56.66
345.947	5.46
346.159	23.89
346.371	1.37
346.583	44.37
346.795	60.76
347.007	-0.68
347.219	34.13
347.431	30.04
347.643	48.47
347.855	-43.69
348.067	25.94
348.279	27.99
348.491	114
348.703	27.99
348.915	62.8
349.127	30.04
349.339	130.39
349.551	-6.83
349.763	116.05
349.975	44.37
350.187	17.75
350.399	75.09
350.61	60.76
350.822	-2.73
351.034	23.89
351.246	19.8
351.458	93.52
351.669	5.46
351.881	48.47
352.093	1.37
352.305	91.48
352.517	19.8
352.728	138.58
352.94	56.66
353.152	5.46
353.363	-29.35
353.575	64.85
353.787	60.76
353.999	75.09
354.21	124.24
354.422	105.81
354.633	19.8
354.845	75.09
355.057	-6.83
355.268	109.91
355.48	21.85
355.692	36.18
355.903	56.66
356.115	13.65
356.326	-4.78
356.538	93.52
356.749	1.37
356.961	71
357.172	-53.93
357.384	7.51
357.595	93.52
357.807	19.8
358.018	77.14
358.23	54.61
358.441	146.77
358.653	105.81
358.864	89.43
359.075	79.19
359.287	36.18
359.498	40.28
359.709	36.18
359.921	54.61
360.132	-58.03
360.344	11.61
360.555	62.8
360.766	118.1
360.977	32.08
361.189	62.8
361.4	-41.64
361.611	64.85
361.823	77.14
362.034	11.61
362.245	-17.07
362.456	27.99
362.667	79.19
362.879	5.46
363.09	11.61
363.301	85.33
363.512	32.08
363.723	-29.35
363.935	-0.68
364.146	58.71
364.357	3.41
364.568	50.52
364.779	40.28
364.99	40.28
365.201	-12.97
365.412	77.14
365.623	-10.92
365.834	-12.97
366.045	40.28
366.256	-21.16
366.467	81.24
366.678	44.37
366.889	1.37
367.1	56.66
367.311	95.57
367.522	27.99
367.733	136.53
367.944	126.29
368.155	-55.98
368.366	56.66
368.577	44.37
368.788	107.86
368.999	5.46
369.209	32.08
369.42	48.47
369.631	75.09
369.842	-41.64
370.053	3.41
370.264	73.04
370.474	21.85
370.685	40.28
370.896	79.19
371.107	83.28
371.317	101.72
371.528	75.09
371.739	101.72
371.95	13.65
372.16	71
372.371	-4.78
372.582	11.61
372.792	38.23
373.003	27.99
373.214	21.85
373.424	128.34
373.635	-74.41
373.846	-6.83
374.056	66.9
374.267	68.95
374.477	46.42
374.688	99.67
374.898	1.37
375.109	95.57
375.319	71
375.53	97.62
375.74	138.58
375.951	-0.68
376.161	56.66
376.372	60.76
376.582	48.47
376.793	95.57
377.003	17.75
377.214	13.65
377.424	101.72
377.635	34.13
377.845	7.51
378.055	52.56
378.266	-43.69
378.476	23.89
378.686	44.37
378.897	103.76
379.107	89.43
379.317	54.61
379.528	64.85
379.738	54.61
379.948	7.51
380.158	130.39
380.369	62.8
380.579	7.51
380.789	7.51
380.999	111.96
381.21	64.85
381.42	50.52
381.63	-21.16
381.84	85.33
382.05	38.23
382.261	44.37
382.471	52.56
382.681	60.76
382.891	9.56
383.101	7.51
383.311	7.51
383.521	62.8
383.731	48.47
383.941	30.04
384.151	95.57
384.361	9.56
384.571	66.9
384.781	107.86
384.991	60.76
385.201	64.85
385.411	62.8
385.621	-41.64
385.831	54.61
386.041	128.34
386.251	11.61
386.461	99.67
386.671	48.47
386.881	93.52
387.091	64.85
387.301	48.47
387.511	7.51
387.72	146.77
387.93	56.66
388.14	19.8
388.35	50.52
388.56	52.56
388.769	132.44
388.979	144.72
389.189	95.57
389.399	40.28
389.609	27.99
389.818	58.71
390.028	138.58
390.238	130.39
390.447	48.47
390.657	52.56
390.867	75.09
391.076	-4.78
391.286	71
391.496	40.28
391.705	25.94
391.915	27.99
392.125	144.72
392.334	73.04
392.544	91.48
392.753	36.18
392.963	42.32
393.172	89.43
393.382	36.18
393.591	120.15
393.801	68.95
394.01	13.65
394.22	68.95
394.429	38.23
394.639	48.47
394.848	68.95
395.058	56.66
395.267	71
395.477	114
395.686	81.24
395.895	93.52
396.105	109.91
396.314	64.85
396.524	111.96
396.733	68.95
396.942	130.39
397.152	23.89
397.361	122.2
397.57	79.19
397.78	138.58
397.989	50.52
398.198	64.85
398.407	120.15
398.617	93.52
398.826	122.2
399.035	71
399.244	79.19
399.453	138.58
399.663	114
399.872	42.32
400.081	34.13
400.29	91.48
400.499	122.2
400.708	124.24
400.917	32.08
401.127	120.15
401.336	23.89
401.545	146.77
401.754	144.72
401.963	161.11
402.172	23.89
402.381	93.52
402.59	52.56
402.799	189.78
403.008	95.57
403.217	118.1
403.426	95.57
403.635	179.54
403.844	89.43
404.053	185.68
404.262	52.56
404.471	122.2
404.68	152.92
404.888	187.73
405.097	48.47
405.306	109.91
405.515	261.46
405.724	175.44
405.933	202.07
406.142	177.49
406.35	161.11
406.559	177.49
406.768	165.2
406.977	152.92
407.185	179.54
407.394	202.07
407.603	111.96
407.812	214.35
408.02	118.1
408.229	191.83
408.438	210.26
408.646	216.4
408.855	191.83
409.064	279.89
409.272	277.84
409.481	300.37
409.69	259.41
409.898	247.12
410.107	267.6
410.315	372.05
410.524	267.6
410.733	271.7
410.941	343.38
411.15	314.7
411.358	318.8
411.567	361.81
411.775	400.72
411.984	458.06
412.192	374.1
412.401	337.23
412.609	464.21
412.818	400.72
413.026	499.02
413.234	453.97
413.443	470.35
413.651	482.64
413.86	519.5
414.068	648.52
414.276	556.36
414.485	621.9
414.693	523.6
414.901	636.24
415.11	568.65
415.318	562.51
415.526	603.47
415.734	660.81
415.943	699.72
416.151	726.35
416.359	712.01
416.567	873.8
416.776	773.45
416.984	834.89
417.192	914.76
417.4	845.13
417.608	841.03
417.817	914.76
418.025	916.81
418.233	996.68
418.441	982.34
418.649	1017.16
418.857	1146.18
419.065	1181
419.273	1109.32
419.481	1209.67
419.689	1224
419.897	1217.86
420.105	1307.97
420.313	1471.81
420.521	1393.98
420.729	1443.14
420.937	1516.86
421.145	1551.68
421.353	1680.7
421.561	1690.94
421.769	1842.49
421.977	1862.97
422.185	1813.82
422.393	1875.26
422.601	1932.6
422.809	1944.89
423.017	2063.67
423.224	2114.87
423.432	2182.45
423.64	2260.27
423.848	2387.25
424.056	2297.14
424.263	2512.18
424.471	2399.54
424.679	2624.81
424.887	2639.15
425.094	2800.94
425.302	2780.46
425.51	2934.06
425.718	2950.44
425.925	3106.09
426.133	3112.23
426.341	3306.79
426.548	3450.14
426.756	3441.95
426.964	3482.91
427.171	3824.92
427.379	3677.47
427.586	3800.35
427.794	3880.22
428.001	4267.28
428.209	4394.26
428.417	4220.18
428.624	4592.91
428.832	4508.94
429.039	4482.32
429.247	4525.33
429.454	4977.93
429.662	5383.43
429.869	4910.35
430.076	5477.63
430.284	5045.51
430.491	5365
430.699	5754.11
430.906	5600.51
431.114	5854.46
431.321	5893.37
431.528	6108.41
431.736	6462.71
431.943	6720.75
432.15	6462.71
432.358	6618.35
432.565	6999.27
432.772	6962.41
432.979	7361.77
433.187	7558.37
433.394	7460.07
433.601	8125.66
433.808	8066.27
434.016	8025.31
434.223	8426.71
434.43	8797.39
434.637	8565.97
434.844	9317.58
435.052	9356.49
435.259	9284.81
435.466	9485.51
435.673	9432.26
435.88	9874.62
436.087	10622.13
436.294	10413.24
436.501	10194.11
436.708	10415.29
436.915	10642.61
437.122	11228.33
437.329	11252.91
437.537	11369.64
437.743	11908.26
437.95	11500.71
438.157	12297.37
438.364	12553.37
438.571	12530.84
438.778	12606.61
438.985	14017.66
439.192	13233.29
439.399	13767.81
439.606	13636.74
439.813	14214.27
440.02	15017.07
440.227	14730.36
440.433	14728.31
440.64	15174.77
440.847	15230.06
441.054	15508.58
441.261	16436.31
441.467	16028.77
441.674	16675.93
441.881	17200.21
442.088	17028.18
442.294	17046.61
442.501	17269.84
442.708	17783.88
442.914	18596.92
443.121	19072.05
443.328	18850.87
443.534	19858.47
443.741	19487.79
443.948	18887.73
444.154	20378.65
444.361	20038.69
444.568	20304.93
444.774	20538.4
444.981	20691.99
445.187	21357.58
445.394	22019.08
445.6	22062.08
445.807	24202.21
446.013	22981.62
446.22	23380.98
446.426	24298.47
446.633	24482.78
446.839	25160.66
447.046	24411.1
447.252	25621.45
447.459	25869.26
447.665	25736.14
447.871	26749.89
448.078	27464.63
448.284	26170.31
448.491	27147.19
448.697	28279.72
448.903	28724.13
449.11	28797.85
449.316	28402.6
449.522	28728.22
449.728	29158.3
449.935	29817.74
450.141	29551.51
450.347	30319.49
450.553	29260.69
450.76	29621.14
450.966	30645.12
451.172	30319.49
451.378	31032.19
451.584	30215.05
451.791	30851.97
451.997	30837.63
452.203	31316.86
452.409	31042.43
452.615	31374.2
452.821	30049.16
453.027	29655.95
453.233	31286.14
453.44	30049.16
453.646	30481.28
453.852	30403.46
454.058	31226.74
454.264	30016.4
454.47	30608.26
454.676	29782.93
454.882	30313.35
455.088	28269.48
455.294	28386.21
455.5	28996.51
455.705	29010.84
455.911	27986.86
456.117	27302.84
456.323	26993.59
456.529	25717.71
456.735	26667.97
456.941	25748.43
457.147	25709.52
457.352	24941.53
457.558	24628.19
457.764	24706.01
457.97	23985.13
458.176	23247.86
458.381	23557.1
458.587	22404.1
458.793	22424.58
458.999	20775.96
459.204	22576.12
459.41	22010.89
459.616	20491.29
459.821	20673.56
460.027	20575.26
460.233	20098.08
460.438	19379.25
460.644	19584.04
460.85	18422.84
461.055	18035.78
461.261	18205.76
461.466	16874.58
461.672	16323.68
461.878	17538.12
462.083	16471.13
462.289	16032.86
462.494	15887.46
462.7	15178.86
462.905	14851.19
463.111	15189.1
463.316	15346.8
463.522	15213.68
463.727	15154.29
463.932	15031.41
464.138	14851.19
464.343	14849.14
464.549	14576.76
464.754	14785.65
464.959	15078.51
465.165	14736.5
465.37	14085.25
465.575	13696.13
465.781	14070.91
465.986	14357.63
466.191	13765.76
466.397	13468.81
466.602	13124.75
466.807	13350.03
467.012	13530.25
467.218	13491.34
467.423	13196.43
467.628	13458.57
467.833	13829.25
468.038	13284.49
468.244	13126.8
468.449	13853.83
468.654	13173.9
468.859	12858.51
469.064	12835.99
469.269	12373.14
469.474	12596.37
469.679	12588.18
469.885	12346.52
470.09	12481.69
470.295	12326.04
470.5	11945.12
470.705	12113.05
470.91	11750.56
471.115	11836.58
471.32	11818.15
471.525	12045.47
471.73	11519.14
471.935	11590.82
472.139	11216.04
472.344	11271.34
472.549	11379.88
472.754	11021.49
472.959	10771.63
473.164	10603.7
473.369	10429.62
473.574	10904.75
473.778	10869.94
473.983	10572.98
474.188	10867.89
474.393	10323.13
474.598	10319.03
474.802	9979.07
475.007	9968.83
475.212	10063.04
475.417	9774.27
475.621	9567.43
475.826	9682.11
476.031	9428.17
476.235	9340.1
476.44	9661.63
476.645	9436.36
476.849	9401.54
477.054	9161.93
477.259	9010.38
477.463	9170.12
477.668	8731.86
477.872	8922.32
478.077	8756.43
478.282	8742.1
478.486	8719.57
478.691	8514.77
478.895	8451.28
479.1	8416.47
479.304	8428.76
479.509	8154.33
479.713	8260.82
479.918	8244.44
480.122	8023.26
480.326	8062.17
480.531	8244.44
480.735	7998.68
480.94	7894.24
481.144	8230.1
481.348	7900.38
481.553	7914.72
481.757	7855.33
481.961	7961.82
482.166	7877.85
482.37	7929.05
482.574	7927
482.778	7814.37
482.983	7884
483.187	7763.17
483.391	7869.66
483.595	7922.91
483.8	7613.67
484.004	7863.52
484.208	7980.25
484.412	7881.95
484.616	8047.83
484.821	7830.75
485.025	7773.41
485.229	7920.86
485.433	7740.64
485.637	7877.85
485.841	7822.56
486.045	7800.03
486.249	7922.91
486.453	7830.75
486.657	7795.93
486.861	7834.85
487.065	7509.22
487.269	7675.1
487.473	7634.14
487.677	7955.68
487.881	7873.76
488.085	7771.36
488.289	7828.7
488.493	7918.81
488.697	7783.65
488.901	7791.84
489.105	7986.4
489.309	7744.74
489.512	7984.35
489.716	7908.57
489.92	7787.74
490.124	7931.1
490.328	7967.96
490.531	7961.82
490.735	7947.48
490.939	8080.6
491.143	8066.27
491.346	7980.25
491.55	8170.71
491.754	8244.44
491.958	8344.79
492.161	8125.66
492.365	8375.51
492.569	8248.54
492.772	8146.14
492.976	8416.47
493.18	8328.41
493.383	8461.52
493.587	8541.4
493.79	8703.18
493.994	8424.66
494.197	8619.22
494.401	8615.12
494.605	8750.29
494.808	8944.84
495.012	8778.96
495.215	8996.04
495.419	9061.58
495.622	8877.26
495.825	9204.94
496.029	9088.2
496.232	9397.45
496.436	9135.31
496.639	9458.88
496.843	9456.84
497.046	9637.06
497.249	9798.85
497.453	9768.13
497.656	10005.69
497.859	9972.93
498.063	9929.92
498.266	10085.56
498.469	10198.2
498.673	10435.77
498.876	10218.68
499.079	10476.73
499.282	10552.5
499.485	10798.26
499.689	11031.72
499.892	10951.85
500.095	11164.84
500.298	11197.61
500.501	11177.13
500.705	11773.09
500.908	11908.26
501.111	11672.74
501.314	11961.5
501.517	11928.74
501.72	12160.16
501.923	12156.06
502.126	12364.95
502.329	12444.82
502.532	12762.26
502.735	12741.78
502.938	13061.26
503.141	13139.08
503.344	13425.8
503.547	13511.82
503.75	13626.5
503.953	13862.02
504.156	14089.34
504.359	14023.81
504.562	13970.56
504.765	14445.69
504.968	14580.85
505.17	14564.47
505.373	14632.05
505.576	15060.08
505.779	15103.09
505.982	15156.33
506.185	15529.06
506.387	15674.47
506.59	15903.84
506.793	16120.93
506.996	16094.3
507.198	16491.61
507.401	16211.04
507.604	16911.44
507.807	16899.16
508.009	17042.51
508.212	17179.73
508.415	17396.81
508.617	17538.12
508.82	17308.75
509.022	17484.87
509.225	18129.98
509.428	18238.53
509.63	18308.16
509.833	18252.86
510.035	18977.84
510.238	18826.29
510.44	18895.92
510.643	19487.79
510.845	19575.85
511.048	19289.13
511.25	19684.39
511.453	19778.6
511.655	20624.41
511.858	20233.25
512.06	20597.79
512.262	20749.34
512.465	20825.11
512.667	21163.03
512.87	21472.27
513.072	21478.41
513.274	21853.19
513.477	22017.03
513.679	22199.3
513.881	22551.55
514.084	22656
514.286	23043.06
514.488	23124.98
514.69	23596.01
514.893	23600.11
515.095	23788.52
515.297	24062.95
515.499	24157.16
515.701	24515.55
515.904	24427.49
516.106	24939.48
516.308	25113.56
516.51	25699.28
516.712	25400.27
516.914	25822.16
517.116	26176.45
517.318	26422.21
517.52	26244.04
517.722	26678.21
517.925	26866.62
518.127	27208.63
518.329	27386.8
518.531	27331.51
518.733	27687.85
518.935	27853.74
519.136	27929.52
519.338	28720.03
519.54	28742.56
519.742	29152.15
519.944	29416.34
520.146	29709.2
520.348	29877.13
520.55	30004.11
520.752	30182.28
520.954	30583.68
521.155	30196.62
521.357	30546.82
521.559	31425.4
521.761	31462.26
521.963	31765.36
522.164	31902.57
522.366	32338.79
522.568	32377.7
522.77	32740.19
522.971	33389.4
523.173	32721.76
523.375	33117.02
523.576	32883.55
523.778	33389.4
523.98	33440.6
524.181	33809.23
524.383	33917.78
524.584	34339.66
524.786	34771.78
524.988	34491.21
525.189	35121.98
525.391	35031.87
525.592	35476.28
525.794	35427.13
525.995	35685.17
526.197	35507
526.398	36107.05
526.6	36043.57
526.801	36119.34
527.003	36242.22
527.204	36504.36
527.406	36733.73
527.607	36936.48
527.808	37296.92
528.01	36590.38
528.211	36999.97
528.412	38118.16
528.614	37571.35
528.815	37370.65
529.016	38150.93
529.218	37548.82
529.419	37933.84
529.62	37739.29
529.822	38112.02
530.023	38413.07
530.224	38470.41
530.425	38294.28
530.626	38120.21
530.828	37907.22
531.029	38910.72
531.23	38478.6
531.431	38427.4
531.632	39037.7
531.833	38832.9
532.035	38976.26
532.236	38937.35
532.437	38837
532.638	38914.82
532.839	39379.71
533.04	39314.17
533.241	38533.9
533.442	39414.52
533.643	39398.14
533.844	38982.4
534.045	39250.69
534.246	39174.91
534.447	39328.51
534.648	38937.35
534.849	39443.2
535.05	39387.9
535.251	39848.69
535.451	39502.59
535.652	39981.81
535.853	39731.96
536.054	39699.19
536.255	39711.48
536.456	39488.25
536.657	39932.66
536.857	39621.37
537.058	39314.17
537.259	39869.17
537.46	39963.38
537.66	39725.82
537.861	39963.38
538.062	39426.81
538.263	39908.08
538.463	39701.24
538.664	39912.18
538.865	39932.66
539.065	39955.19
539.266	39250.69
539.466	40133.36
539.667	39136
539.868	40252.14
540.068	40006.39
540.269	39822.07
540.469	39680.76
540.67	39588.6
540.87	39684.86
541.071	39815.93
541.271	39975.67
541.472	39506.68
541.672	39672.57
541.873	39287.55
542.073	39201.54
542.274	40069.87
542.474	39756.53
542.675	39377.66
542.875	39500.54
543.075	39289.6
543.276	39402.24
543.476	39981.81
543.676	39541.5
543.877	39602.94
544.077	39768.82
544.277	39863.03
544.478	39576.31
544.678	39674.62
544.878	39351.04
545.078	39510.78
545.279	39435
545.479	39373.56
545.679	39449.34
545.879	39908.08
546.079	39285.5
546.28	39160.58
546.48	39107.33
546.68	39260.93
546.88	39848.69
547.08	39736.06
547.28	39418.62
547.48	39142.14
547.68	39338.75
547.88	39385.85
548.081	39389.95
548.281	39408.38
548.481	39592.7
548.681	39459.58
548.881	39109.38
549.081	39463.68
549.28	39312.13
549.48	39682.81
549.68	39179.01
549.88	39973.62
550.08	39336.7
550.28	39734.01
550.48	39023.36
550.68	39652.09
550.88	38994.69
551.08	39285.5
551.279	39267.07
551.479	39201.54
551.679	39346.94
551.879	38679.3
552.079	39453.44
552.278	38818.56
552.478	38937.35
552.678	38839.04
552.878	39277.31
553.077	38841.09
553.277	38376.2
553.477	39322.37
553.676	38890.24
553.876	39097.09
554.076	39027.46
554.275	38716.17
554.475	38363.92
554.674	38863.62
554.874	38939.4
555.074	38650.63
555.273	38896.39
555.473	38732.55
555.672	38544.14
555.872	38810.37
556.071	38558.47
556.271	38750.98
556.47	38515.47
556.67	38298.38
556.869	38605.58
557.068	38517.51
557.268	38269.71
557.467	38282
557.667	38290.19
557.866	38269.71
558.065	38462.22
558.265	37729.05
558.464	37823.25
558.663	37987.09
558.863	37514.01
559.062	38169.36
559.261	37491.48
559.461	38288.14
559.66	37421.85
559.859	37679.89
560.058	37458.71
560.258	37382.94
560.457	37325.6
560.656	37673.75
560.855	37004.06
561.054	37348.12
561.253	36541.22
561.453	37280.54
561.652	36848.42
561.851	36840.23
562.05	36907.81
562.249	36614.95
562.448	37049.12
562.647	36639.53
562.846	36860.71
563.045	36322.09
563.244	35998.51
563.443	36872.99
563.642	36135.73
563.841	36326.19
564.04	36332.33
564.239	36318
564.438	35922.74
564.637	36453.16
564.836	36217.64
565.035	35365.69
565.234	35777.33
565.432	35384.12
565.631	35392.31
565.83	35752.76
566.029	35392.31
566.228	35095.36
566.427	35328.83
566.625	35076.93
566.824	34687.81
567.023	35304.25
567.222	33954.64
567.42	34935.62
567.619	34831.17
567.818	34280.27
568.016	34292.55
568.215	34898.75
568.414	34302.79
568.612	34388.81
568.811	33928.02
569.01	34308.94
569.208	33987.41
569.407	33891.15
569.605	33489.75
569.804	33919.82
570.002	33397.59
570.201	33579.86
570.4	33545.05
570.598	33395.54
570.797	32985.95
570.995	33155.93
571.193	32906.08
571.392	33141.6
571.59	32826.21
571.789	32867.17
571.987	32848.74
572.186	32592.74
572.384	32363.37
572.582	32641.89
572.781	32449.38
572.979	32107.37
573.177	32086.89
573.376	32420.71
573.574	31923.05
573.772	32162.67
573.971	31572.85
574.169	31617.91
574.367	31394.68
574.565	31683.44
574.763	31329.14
574.962	31724.4
575.16	31005.56
575.358	31527.8
575.556	31185.79
575.754	31042.43
575.952	30837.63
576.151	30989.18
576.349	30432.13
576.547	30532.48
576.745	30714.75
576.943	30487.43
577.141	30485.38
577.339	30536.58
577.537	30565.25
577.735	29916.04
577.933	30274.44
578.131	30139.27
578.329	29690.77
578.527	29684.62
578.725	30139.27
578.923	30079.88
579.121	29684.62
579.319	29653.9
579.516	29713.3
579.714	29463.44
579.912	29356.95
580.11	29148.06
580.308	29217.69
580.506	29412.24
580.704	28760.99
580.901	29143.96
581.099	29373.33
581.297	28998.55
581.495	28660.64
581.692	28847.01
581.89	28464.03
582.088	28615.58
582.285	28263.33
582.483	28402.6
582.681	28459.94
582.878	28240.81
583.076	28076.97
583.274	28359.59
583.471	27866.03
583.669	28105.64
583.866	27462.58
584.064	28111.78
584.262	27284.4
584.459	27691.95
584.657	27190.2
584.854	27763.63
585.052	27065.27
585.249	27509.68
585.447	26768.32
585.644	26940.35
585.841	27235.25
586.039	27327.41
586.236	26565.57
586.434	26553.28
586.631	26821.56
586.828	26594.24
587.026	26424.26
587.223	26285
587.42	26264.52
587.618	26123.21
587.815	26366.91
588.012	26084.3
588.21	26215.37
588.407	26149.83
588.604	26129.35
588.801	25985.99
588.999	25586.64
589.196	25586.64
589.393	25752.52
589.59	25416.66
589.787	25553.87
589.984	25424.85
590.182	25320.4
590.379	25285.59
590.576	25070.55
590.773	25207.76
590.97	24968.15
591.167	24785.88
591.364	24550.37
591.561	24871.9
591.758	24669.15
591.955	24433.63
592.152	25062.36
592.349	24650.72
592.546	24364
592.743	24380.39
592.94	23858.15
593.137	24259.56
593.334	24308.71
593.531	23788.52
593.727	24388.58
593.924	24046.57
594.121	23856.11
594.318	24085.48
594.515	23774.19
594.712	24034.28
594.908	23624.68
595.105	23419.89
595.302	23489.52
595.499	23247.86
595.696	23385.07
595.892	22901.75
596.089	23380.98
596.286	23059.45
596.482	23014.39
596.679	23139.32
596.876	23264.24
597.072	22821.88
597.269	22692.86
597.466	22699
597.662	22750.2
597.859	22502.4
598.055	22635.52
598.252	22363.14
598.448	22520.83
598.645	22553.6
598.841	22141.96
599.038	22256.64
599.234	22275.07
599.431	21885.96
599.627	21664.78
599.824	22066.18
600.02	21933.06
600.217	21603.34
600.413	21779.46
600.609	21777.42
600.806	21414.93
601.002	21535.76
601.198	21404.69
601.395	21240.85
601.591	21333.01
601.787	21337.1
601.984	21191.7
602.18	21373.97
602.376	21132.31
602.572	20888.6
602.769	20726.81
602.965	20837.4
603.161	20769.82
603.357	20458.53
603.553	20747.29
603.75	20515.87
603.946	20290.59
604.142	20718.62
604.338	20177.95
604.534	20470.81
604.73	20167.71
604.926	19960.87
605.122	20038.69
605.318	20116.51
605.514	20163.62
605.71	20055.08
605.906	19946.53
606.102	20143.14
606.298	19895.33
606.494	19643.43
606.69	19659.82
606.886	19825.7
607.082	19491.88
607.278	19878.95
607.474	19080.24
607.67	19686.44
607.866	19217.46
608.062	19825.7
608.257	19321.9
608.453	19420.2
608.649	19465.26
608.845	18793.53
609.041	19188.78
609.236	19100.72
609.432	18953.27
609.628	19024.95
609.824	19233.84
610.019	18957.36
610.215	18723.9
610.411	19090.48
610.606	18863.16
610.802	18803.77
610.998	18717.75
611.193	18545.72
611.389	18459.71
611.584	18564.15
611.78	18289.73
611.976	18375.74
612.171	18414.65
612.367	18517.05
612.562	18347.07
612.758	18285.63
612.953	18007.11
613.149	18129.98
613.344	17994.82
613.539	18490.43
613.735	18236.48
613.93	18379.84
614.126	18242.62
614.321	18322.49
614.517	17984.58
614.712	18158.66
614.907	17722.44
615.103	18035.78
615.298	17853.51
615.493	17812.55
615.688	17820.74
615.884	17851.46
616.079	17448.01
616.274	17685.58
616.47	17464.39
616.665	17536.07
616.86	17757.25
617.055	17327.18
617.25	17519.69
617.445	17548.36
617.641	17331.28
617.836	17525.83
618.031	17122.38
618.226	17132.62
618.421	17151.06
618.616	17228.88
618.811	16833.62
619.006	17204.3
619.201	16749.65
619.396	16944.21
619.591	16673.88
619.786	16716.89
619.981	16505.95
620.176	16712.79
620.371	16325.72
620.566	16583.77
620.761	16462.94
620.956	16440.41
621.151	16147.55
621.346	16440.41
621.541	16051.3
621.735	16231.52
621.93	15912.03
622.125	16200.8
622.32	15656.04
622.515	15987.81
622.709	15543.4
622.904	15537.26
623.099	15465.58
623.294	15508.58
623.488	15453.29
623.683	15365.23
623.878	15131.76
624.072	15103.09
624.267	14828.66
624.462	14916.72
624.656	14916.72
624.851	14679.16
625.046	14611.57
625.24	14824.56
625.435	14535.8
625.629	14877.81
625.824	14482.55
626.018	14558.33
626.213	13941.89
626.407	14275.71
626.602	14064.77
626.796	14204.03
626.991	14128.25
627.185	13870.21
627.38	13745.28
627.574	13761.67
627.768	13929.6
627.963	13538.44
628.157	13409.42
628.352	13536.39
628.546	13450.38
628.74	13253.77
628.935	13212.81
629.129	13296.78
629.323	13063.31
629.517	13102.22
629.712	13200.52
629.906	13034.64
630.1	12620.95
630.294	12762.26
630.489	12653.72
630.683	12924.05
630.877	12479.64
631.071	12625.04
631.265	12301.47
631.459	12229.79
631.653	12428.44
631.848	12391.58
632.042	12377.24
632.236	12223.64
632.43	11848.86
632.624	12149.92
632.818	11799.71
633.012	11842.72
633.206	11873.44
633.4	11893.92
633.594	11566.24
633.788	11508.9
633.982	11545.77
634.176	11541.67
634.369	11506.85
634.563	11377.83
634.757	11248.81
634.951	11431.08
635.145	11357.35
635.339	11170.99
635.533	11017.39
635.726	11050.16
635.92	10871.98
636.114	10904.75
636.308	10874.03
636.501	10550.45
636.695	11027.63
636.889	10751.15
637.083	10366.14
637.276	10550.45
637.47	10458.29
637.664	10437.81
637.857	10439.86
638.051	10435.77
638.244	10327.22
638.438	10218.68
638.632	10304.7
638.825	9977.02
639.019	10099.9
639.212	9915.58
639.406	9972.93
639.599	9942.21
639.793	9794.75
639.986	9604.29
640.18	9778.37
640.373	9743.55
640.567	9462.98
640.76	9723.07
640.954	9549
641.147	9432.26
641.34	9559.24
641.534	9518.28
641.727	9125.07
641.92	9231.56
642.114	9307.34
642.307	9305.29
642.5	9149.64
642.694	9002.19
642.887	8850.64
643.08	9143.5
643.273	8914.13
643.467	8893.65
643.66	8776.91
643.853	8678.61
644.046	8582.35
644.239	8639.7
644.432	8666.32
644.626	8502.48
644.819	8572.11
645.012	8367.32
645.205	8492.24
645.398	8535.25
645.591	8258.78
645.784	8350.93
645.977	8064.22
646.17	8391.89
646.363	8191.19
646.556	8150.23
646.749	8123.61
646.942	8092.89
647.135	7970.01
647.328	7986.4
647.521	7984.35
647.714	7781.6
647.907	7699.68
648.099	7748.83
648.292	7683.3
648.485	7765.21
648.678	7699.68
648.871	7675.1
649.064	7519.46
649.256	7466.21
649.449	7607.52
649.642	7427.3
649.835	7294.18
650.027	7386.34
650.22	7329
650.413	7365.86
650.605	7505.12
650.798	7242.98
650.991	6972.65
651.183	7134.44
651.376	7040.23
651.568	7050.47
651.761	7152.87
651.954	7029.99
652.146	7187.69
652.339	7060.71
652.531	6927.6
652.724	6812.91
652.916	6845.68
653.109	6763.76
653.301	6814.96
653.494	6927.6
653.686	6565.11
653.879	6679.79
654.071	6679.79
654.263	6573.3
654.456	6800.62
654.648	6755.57
654.84	6405.36
655.033	6452.47
655.225	6501.62
655.417	6378.74
655.61	6489.33
655.802	6339.83
655.994	6399.22
656.186	6255.86
656.379	6284.53
656.571	6319.35
656.763	6241.53
656.955	6253.81
657.148	6100.22
657.34	6118.65
657.532	6059.26
657.724	5930.23
657.916	6100.22
658.108	5973.24
658.3	5946.62
658.492	6040.83
658.684	5737.73
658.876	5864.7
659.068	5866.75
659.26	5743.87
659.452	5870.84
659.644	5750.01
659.836	5610.75
660.028	5858.56
660.22	5618.94
660.412	5666.05
660.604	5725.44
660.796	5637.38
660.988	5610.75
661.18	5416.19
661.372	5455.11
661.563	5504.26
661.755	5260.55
661.947	5477.63
662.139	5534.98
662.331	5379.33
662.522	5137.67
662.714	5426.43
662.906	5057.8
663.097	5305.6
663.289	5063.94
663.481	5303.56
663.673	5176.58
663.864	5094.66
664.056	4982.03
664.247	5045.51
664.439	5117.19
664.631	5162.25
664.822	5018.89
665.014	5061.9
665.205	5065.99
665.397	5057.8
665.588	4973.83
665.78	4965.64
665.971	4963.59
666.163	5018.89
666.354	4807.95
666.546	4783.37
666.737	4871.44
666.929	4840.72
667.12	4805.9
667.311	4879.63
667.503	4750.6
667.694	4832.52
667.885	4674.83
668.077	4803.85
668.268	4646.16
668.459	4594.96
668.651	4617.49
668.842	4603.15
669.033	4541.71
669.224	4549.9
669.416	4707.6
669.607	4547.86
669.798	4488.46
669.989	4582.67
670.18	4502.8
670.371	4384.02
670.563	4533.52
670.754	4431.12
670.945	4494.61
671.136	4566.29
671.327	4359.44
671.518	4498.7
671.709	4492.56
671.9	4535.57
672.091	4414.74
672.282	4435.22
672.473	4396.31
672.664	4277.52
672.855	4353.3
673.046	4177.17
673.237	4341.01
673.428	4248.85
673.619	4334.87
673.809	4308.24
674	4136.21
674.191	4238.61
674.382	4248.85
674.573	4234.52
674.764	4291.86
674.954	4263.19
675.145	4347.15
675.336	4377.87
675.527	4103.45
675.717	4259.09
675.908	4248.85
676.099	4193.56
676.289	4134.17
676.48	4158.74
676.671	4052.25
676.861	4037.91
677.052	4119.83
677.243	4103.45
677.433	4168.98
677.624	4101.4
677.814	4152.6
678.005	4064.54
678.195	4246.8
678.386	4218.13
678.576	4267.28
678.767	4255
678.957	4070.68
679.148	4115.73
679.338	4123.93
679.529	4140.31
679.719	3970.33
679.909	4197.65
680.1	4085.02
680.29	4234.52
680.481	4066.58
680.671	4078.87
680.861	4076.82
681.052	4035.86
681.242	3994.9
681.432	3921.18
681.622	4037.91
681.813	4056.34
682.003	4070.68
682.193	4019.48
682.383	4103.45
682.573	4070.68
682.764	4115.73
682.954	4066.58
683.144	3935.51
683.334	4234.52
683.524	4109.59
683.714	3990.81
683.904	4070.68
684.094	4042.01
684.284	4107.54
684.474	4107.54
684.664	4140.31
684.854	4064.54
685.044	4031.77
685.234	4037.91
685.424	3886.36
685.614	3970.33
685.804	3927.32
685.994	4005.14
686.184	4089.11
686.374	3972.38
686.564	3861.79
686.753	4031.77
686.943	3931.42
687.133	3937.56
687.323	3902.75
687.513	3872.03
687.702	3771.68
687.892	3882.27
688.082	3820.83
688.272	3767.58
688.461	3951.9
688.651	3743
688.841	3640.61
689.03	3775.77
689.22	3732.76
689.41	3792.16
689.599	3728.67
689.789	3677.47
689.979	3759.39
690.168	3728.67
690.358	3816.73
690.547	3677.47
690.737	3573.02
690.926	3652.89
691.116	3472.67
691.305	3554.59
691.495	3609.89
691.684	3509.54
691.874	3468.58
692.063	3454.24
692.252	3456.29
692.442	3583.26
692.631	3495.2
692.82	3405.09
693.01	3390.75
693.199	3376.42
693.388	3337.51
693.578	3425.57
693.767	3499.3
693.956	3347.75
694.146	3370.27
694.335	3308.83
694.524	3372.32
694.713	3407.14
694.902	3269.92
695.092	3368.23
695.281	3335.46
695.47	3323.17
695.659	3364.13
695.848	3294.5
696.037	3259.68
696.226	3357.99
696.415	3310.88
696.604	3306.79
696.793	3208.48
696.982	3210.53
697.171	3181.86
697.36	3261.73
697.549	3116.33
697.738	3218.72
697.927	3190.05
698.116	3265.83
698.305	3304.74
698.494	3253.54
698.683	3138.85
698.872	3188
699.061	3122.47
699.25	3181.86
699.438	3095.85
699.627	3247.4
699.816	3233.06
700.005	3071.27
700.193	3136.81
700.382	3271.97
700.571	3226.92
700.76	3198.24
700.948	3081.51
701.137	3210.53
701.326	3194.15
701.514	3282.21
701.703	3169.57
701.892	3118.37
702.08	3167.52
702.269	3124.52
702.457	3288.36
702.646	3173.67
702.834	3089.7
703.023	3140.9
703.212	3188
703.4	3142.95
703.589	3300.64
703.777	3204.39
703.965	3056.93
704.154	3194.15
704.342	3073.32
704.531	3130.66
704.719	3085.61
704.907	3282.21
705.096	3157.29
705.284	3067.17
705.472	3269.92
705.661	3247.4
705.849	3147.05
706.037	3097.89
706.226	3149.09
706.414	3175.72
706.602	3050.79
706.79	3153.19
706.979	3124.52
707.167	3292.45
707.355	3163.43
707.543	3206.44
707.731	3132.71
707.919	3222.82
708.107	3011.88
708.296	3063.08
708.484	3157.29
708.672	3196.2
708.86	3077.41
709.048	3210.53
709.236	3202.34
709.424	3145
709.612	3104.04
709.8	3210.53
709.988	3202.34
710.176	3132.71
710.364	3145
710.551	3050.79
710.739	3220.77
710.927	3200.29
711.115	3136.81
711.303	3208.48
711.491	3276.07
711.679	3095.85
711.866	3120.42
712.054	3169.57
712.242	3124.52
712.43	3208.48
712.617	3271.97
712.805	3128.61
712.993	3206.44
713.181	3058.98
713.368	3132.71
713.556	3204.39
713.744	3091.75
713.931	3263.78
714.119	3147.05
714.306	3239.2
714.494	3263.78
714.682	3288.36
714.869	3239.2
715.057	3101.99
715.244	3155.24
715.432	3147.05
715.619	3177.76
715.807	3235.11
715.994	3278.12
716.182	3255.59
716.369	3259.68
716.556	3099.94
716.744	3206.44
716.931	3233.06
717.119	3327.27
717.306	3372.32
717.493	3179.81
717.681	3247.4
717.868	3188
718.055	3257.64
718.242	3239.2
718.43	3239.2
718.617	3163.43
718.804	3296.55
718.991	3212.58
719.179	3233.06
719.366	3241.25
719.553	3437.86
719.74	3255.59
719.927	3120.42
720.114	3167.52
720.301	3124.52
720.488	3235.11
720.676	3149.09
720.863	3140.9
721.05	3261.73
721.237	3224.87
721.424	3265.83
721.611	3278.12
721.798	3226.92
721.985	3177.76
722.172	3249.44
722.358	3161.38
722.545	3245.35
722.732	3151.14
722.919	3300.64
723.106	3134.76
723.293	3181.86
723.48	3128.61
723.667	3126.57
723.853	3145
724.04	3347.75
724.227	3177.76
724.414	3120.42
724.6	3108.13
724.787	3130.66
724.974	3112.23
725.161	3112.23
725.347	3177.76
725.534	3222.82
725.72	3263.78
725.907	3202.34
726.094	3151.14
726.28	3124.52
726.467	3231.01
726.653	3235.11
726.84	3120.42
727.027	3171.62
727.213	3097.89
727.4	3231.01
727.586	3145
727.773	3126.57
727.959	3214.63
728.145	3165.48
728.332	3183.91
728.518	3282.21
728.705	3128.61
728.891	3253.54
729.077	3202.34
729.264	3126.57
729.45	3097.89
729.636	3241.25
729.823	3214.63
730.009	3196.2
730.195	3083.56
730.382	3149.09
730.568	3095.85
730.754	3263.78
730.94	3188
731.126	3054.89
731.313	3108.13
731.499	3169.57
731.685	3116.33
731.871	3130.66
732.057	3112.23
732.243	3042.6
732.429	3069.22
732.615	3181.86
732.801	3169.57
732.987	3194.15
733.173	3181.86
733.359	3093.8
733.545	3024.17
733.731	3046.69
733.917	3202.34
734.103	3081.51
734.289	3087.65
734.475	2975.02
734.661	3110.18
734.847	2972.97
735.033	3114.28
735.219	3087.65
735.404	3054.89
735.59	3058.98
735.776	2932.01
735.962	3054.89
736.148	3185.96
736.333	2970.92
736.519	2942.25
736.705	2940.2
736.89	3044.65
737.076	2970.92
737.262	3153.19
737.447	3165.48
737.633	2915.62
737.819	2968.87
738.004	2921.77
738.19	2970.92
738.375	2991.4
738.561	2891.05
738.747	2901.29
738.932	3106.09
739.118	2944.3
739.303	3046.69
739.489	3009.83
739.674	2891.05
739.859	2886.95
740.045	2893.1
740.23	2759.98
740.416	2782.51
740.601	2839.85
740.786	2729.26
740.972	2889
741.157	2706.73
741.342	2766.12
741.528	2831.66
741.713	2694.44
741.898	2878.76
742.084	2673.96
742.269	2786.6
742.454	2798.89
742.639	2706.73
742.824	2678.06
743.01	2850.09
743.195	2649.39
743.38	2798.89
743.565	2659.63
743.75	2678.06
743.935	2680.11
744.12	2661.68
744.305	2587.95
744.49	2643.24
744.675	2532.65
744.86	2671.92
745.045	2585.9
745.23	2553.13
745.415	2508.08
745.6	2655.53
745.785	2571.57
745.97	2645.29
746.155	2628.91
746.34	2411.82
746.525	2485.55
746.71	2485.55
746.895	2415.92
747.079	2379.06
747.264	2452.78
747.449	2530.61
747.634	2448.69
747.819	2325.81
748.003	2307.38
748.188	2368.82
748.373	2389.3
748.557	2284.85
748.742	2325.81
748.927	2268.47
749.111	2252.08
749.296	2303.28
749.481	2200.88
749.665	2258.23
749.85	2159.92
750.034	2288.95
750.219	2174.26
750.404	2100.53
750.588	2225.46
750.773	2131.25
750.957	2075.96
751.141	2063.67
751.326	2032.95
751.51	2051.38
751.695	2053.43
751.879	2092.34
752.064	2080.05
752.248	2116.92
752.432	2094.39
752.617	2063.67
752.801	1985.85
752.985	1938.74
753.17	1940.79
753.354	2028.85
753.538	1959.22
753.722	1830.2
753.907	1910.07
754.091	1914.17
754.275	1828.15
754.459	1858.87
754.643	1869.11
754.828	1848.63
755.012	1805.63
755.196	1871.16
755.38	1785.15
755.564	1750.33
755.748	1748.28
755.932	1695.04
756.116	1735.99
756.3	1772.86
756.484	1752.38
756.668	1664.32
756.852	1645.88
757.036	1656.12
757.22	1619.26
757.404	1658.17
757.588	1652.03
757.772	1686.84
757.956	1568.06
758.14	1658.17
758.323	1604.92
758.507	1621.31
758.691	1531.2
758.875	1578.3
759.059	1533.25
759.242	1539.39
759.426	1451.33
759.61	1594.68
759.794	1596.73
759.977	1547.58
760.161	1502.53
760.345	1480
760.528	1545.53
760.712	1457.47
760.895	1369.41
761.079	1441.09
761.263	1459.52
761.446	1365.31
761.63	1455.42
761.813	1320.26
761.997	1389.89
762.18	1318.21
762.364	1316.16
762.547	1246.53
762.731	1441.09
762.914	1443.14
763.098	1408.32
763.281	1365.31
763.464	1293.63
763.648	1324.35
763.831	1332.55
764.015	1305.92
764.198	1209.67
764.381	1289.54
764.564	1264.96
764.748	1303.87
764.931	1324.35
765.114	1318.21
765.297	1277.25
765.481	1234.24
765.664	1256.77
765.847	1285.44
766.03	1256.77
766.213	1129.8
766.397	1150.28
766.58	1088.84
766.763	1228.1
766.946	1185.09
767.129	1211.71
767.312	1213.76
767.495	1211.71
767.678	1195.33
767.861	1226.05
768.044	1178.95
768.227	1092.93
768.41	1172.8
768.593	1146.18
768.776	1144.13
768.959	1185.09
769.142	1119.56
769.324	1051.97
769.507	1088.84
769.69	1060.17
769.873	1002.82
770.056	1121.6
770.239	1125.7
770.421	1185.09
770.604	1121.6
770.787	1060.17
770.97	1154.37
771.152	1041.73
771.335	1070.41
771.518	1109.32
771.7	1144.13
771.883	1035.59
772.066	957.77
772.248	1043.78
772.431	990.53
772.613	1027.4
772.796	1056.07
772.978	974.15
773.161	1062.21
773.343	941.38
773.526	898.38
773.708	937.29
773.891	920.9
774.073	974.15
774.256	920.9
774.438	994.63
774.621	925
774.803	918.86
774.985	884.04
775.168	955.72
775.35	884.04
775.532	935.24
775.715	910.66
775.897	892.23
776.079	816.46
776.261	877.9
776.444	847.18
776.626	859.46
776.808	769.35
776.99	750.92
777.173	759.11
777.355	765.26
777.537	826.7
777.719	838.98
777.901	773.45
778.083	736.59
778.265	806.22
778.447	843.08
778.629	761.16
778.811	761.16
778.993	759.11
779.175	904.52
779.357	761.16
779.539	646.48
779.721	736.59
779.903	728.39
780.085	761.16
780.267	734.54
780.449	777.55
780.631	765.26
780.812	736.59
780.994	712.01
781.176	630.09
781.358	703.82
781.54	644.43
781.721	638.28
781.903	646.48
782.085	558.41
782.267	767.31
782.448	630.09
782.63	609.61
782.812	623.95
782.993	646.48
783.175	693.58
783.357	603.47
783.538	677.2
783.72	630.09
783.901	546.13
784.083	580.94
784.264	582.99
784.446	574.8
784.627	544.08
784.809	531.79
784.99	494.93
785.172	576.84
785.353	564.56
785.535	589.13
785.716	562.51
785.897	544.08
786.079	587.08
786.26	535.89
786.441	601.42
786.623	488.78
786.804	550.22
786.985	544.08
787.167	499.02
787.348	406.86
787.529	529.74
787.71	560.46
787.891	638.28
788.073	427.34
788.254	468.3
788.435	630.09
788.616	531.79
788.797	523.6
788.978	347.47
789.159	468.3
789.34	519.5
789.522	413.01
789.703	533.84
789.884	476.49
790.065	519.5
790.246	539.98
790.427	505.17
790.607	423.25
790.788	429.39
790.969	470.35
791.15	490.83
791.331	359.76
791.512	400.72
791.693	398.67
791.874	447.82
792.054	390.48
792.235	437.58
792.416	380.24
792.597	431.44
792.778	488.78
792.958	404.82
793.139	404.82
793.32	384.34
793.5	324.94
793.681	400.72
793.862	363.86
794.042	406.86
794.223	335.18
794.404	378.19
794.584	421.2
794.765	365.9
794.945	396.62
795.126	335.18
795.306	406.86
795.487	431.44
795.667	339.28
795.848	425.29
796.028	404.82
796.209	363.86
796.389	367.95
796.57	322.9
796.75	267.6
796.93	339.28
797.111	367.95
797.291	306.51
797.471	314.7
797.652	302.42
797.832	255.31
798.012	283.99
798.192	314.7
798.373	372.05
798.553	355.66
798.733	292.18
798.913	269.65
799.093	269.65
799.274	314.7
799.454	339.28
799.634	359.76
799.814	290.13
799.994	345.42
800.174	331.09
800.354	308.56
800.534	329.04
800.714	318.8
800.894	296.27
801.074	290.13
801.254	388.43
801.434	277.84
801.614	265.55
801.794	265.55
801.974	765.26
802.154	304.46
802.334	245.07
802.514	240.98
802.693	308.56
802.873	306.51
803.053	363.86
803.233	214.35
803.413	351.57
803.592	220.5
803.772	249.17
803.952	263.51
804.131	247.12
804.311	312.66
804.491	316.75
804.67	253.27
804.85	306.51
805.03	251.22
805.209	290.13
805.389	224.59
805.568	200.02
805.748	240.98
805.928	204.11
806.107	306.51
806.287	253.27
806.466	195.92
806.646	253.27
806.825	261.46
807.004	251.22
807.184	251.22
807.363	253.27
807.543	200.02
807.722	281.94
807.901	212.31
808.081	324.94
808.26	179.54
808.439	193.87
808.619	251.22
808.798	261.46
808.977	230.74
809.156	195.92
809.336	204.11
809.515	271.7
809.694	193.87
809.873	230.74
810.052	257.36
810.231	240.98
810.411	193.87
810.59	224.59
810.769	187.73
810.948	277.84
811.127	212.31
811.306	236.88
811.485	183.63
811.664	271.7
811.843	165.2
812.022	191.83
812.201	183.63
812.38	142.68
812.559	232.79
812.737	169.3
812.916	212.31
813.095	202.07
813.274	245.07
813.453	169.3
813.632	169.3
813.811	269.65
813.989	120.15
814.168	183.63
814.347	173.39
814.526	146.77
814.704	243.03
814.883	197.97
815.062	218.45
815.24	195.92
815.419	148.82
815.598	132.44
815.776	148.82
815.955	206.16
816.133	185.68
816.312	167.25
816.49	165.2
816.669	204.11
816.847	212.31
817.026	195.92
817.204	161.11
817.383	157.01
817.561	91.48
817.74	134.48
817.918	165.2
818.097	124.24
818.275	73.04
818.453	167.25
818.632	152.92
818.81	175.44
818.988	103.76
819.167	89.43
819.345	181.59
819.523	175.44
819.701	58.71
819.879	179.54
820.058	195.92
820.236	157.01
820.414	191.83
820.592	99.67
820.77	99.67
820.948	111.96
821.127	120.15
821.305	200.02
821.483	157.01
821.661	193.87
821.839	212.31
822.017	222.55
822.195	38.23
822.373	220.5
822.551	103.76
822.729	228.69
822.907	122.2
823.085	116.05
823.262	85.33
823.44	154.96
823.618	152.92
823.796	173.39
823.974	111.96
824.152	226.64
824.329	185.68
824.507	124.24
824.685	114
824.863	171.35
825.04	77.14
825.218	116.05
825.396	111.96
825.574	93.52
825.751	73.04
825.929	206.16
826.107	126.29
826.284	148.82
826.462	175.44
826.639	120.15
826.817	118.1
826.994	120.15
827.172	105.81
827.349	109.91
827.527	44.37
827.704	118.1
827.882	146.77
828.059	171.35
828.237	52.56
828.414	97.62
828.591	71
828.769	68.95
828.946	165.2
829.124	177.49
829.301	126.29
829.478	138.58
829.655	146.77
829.833	159.06
830.01	89.43
830.187	103.76
830.364	103.76
830.542	111.96
830.719	105.81
830.896	193.87
831.073	126.29
831.25	87.38
831.427	107.86
831.604	126.29
831.782	89.43
831.959	99.67
832.136	159.06
832.313	68.95
832.49	38.23
832.667	122.2
832.844	128.34
833.021	101.72
833.198	85.33
833.374	134.48
833.551	161.11
833.728	103.76
833.905	126.29
834.082	138.58
834.259	183.63
834.436	142.68
834.612	64.85
834.789	118.1
834.966	89.43
835.143	81.24
835.319	21.85
835.496	93.52
835.673	138.58
835.85	107.86
836.026	120.15
836.203	71
836.38	48.47
836.556	107.86
836.733	81.24
836.909	118.1
837.086	109.91
837.262	83.28
837.439	81.24
837.616	77.14
837.792	95.57
837.968	89.43
838.145	50.52
838.321	75.09
838.498	130.39
838.674	71
838.851	118.1
839.027	120.15
839.203	77.14
839.38	64.85
839.556	109.91
839.732	103.76
839.909	68.95
840.085	60.76
840.261	195.92
840.437	66.9
840.614	56.66
840.79	130.39
840.966	95.57
841.142	138.58
841.318	48.47
841.494	107.86
841.671	7.51
841.847	81.24
842.023	40.28
842.199	89.43
842.375	91.48
842.551	9.56
842.727	79.19
842.903	83.28
843.079	79.19
843.255	48.47
843.431	77.14
843.607	130.39
843.783	36.18
843.959	68.95
844.134	79.19
844.31	-53.93
844.486	52.56
844.662	81.24
844.838	64.85
845.013	34.13
845.189	46.42
845.365	81.24
845.541	85.33
845.716	83.28
845.892	56.66
846.068	77.14
846.244	-0.68
846.419	89.43
846.595	83.28
846.77	34.13
846.946	54.61
847.122	60.76
847.297	13.65
847.473	25.94
847.648	40.28
847.824	54.61
847.999	9.56
848.175	68.95
848.35	89.43
848.526	109.91
848.701	146.77
848.876	32.08
849.052	97.62
849.227	38.23
849.403	40.28
849.578	73.04
849.753	111.96
849.929	52.56
850.104	27.99
850.279	66.9
850.454	11.61
850.63	81.24
850.805	81.24
850.98	15.7
851.155	99.67
851.33	58.71
851.505	34.13
851.681	99.67
851.856	7.51
852.031	15.7
852.206	27.99
852.381	15.7
852.556	7.51
852.731	107.86
852.906	85.33
853.081	52.56
853.256	40.28
853.431	54.61
853.606	46.42
853.781	-23.21
853.956	27.99
854.131	48.47
854.305	77.14
854.48	46.42
854.655	44.37
854.83	38.23
855.005	15.7
855.18	42.32
855.354	9.56
855.529	89.43
855.704	-15.02
855.879	85.33
856.053	50.52
856.228	54.61
856.403	38.23
856.577	89.43
856.752	48.47
856.926	11.61
857.101	38.23
857.276	5.46
857.45	71
857.625	124.24
857.799	-4.78
857.974	7.51
858.148	81.24
858.323	-0.68
858.497	32.08
858.672	114
858.846	83.28
859.02	75.09
859.195	9.56
859.369	-0.68
859.543	32.08
859.718	40.28
859.892	48.47
860.066	-8.87
860.241	-66.22
860.415	-6.83
860.589	32.08
860.763	52.56
860.938	-12.97
861.112	-10.92
861.286	48.47
861.46	3.41
861.634	71
861.808	38.23
861.982	-4.78
862.157	25.94
862.331	-37.55
862.505	38.23
862.679	40.28
862.853	-8.87
863.027	-41.64
863.201	89.43
863.375	7.51
863.549	122.2
863.722	97.62
863.896	21.85
864.07	19.8
864.244	19.8
864.418	111.96
864.592	50.52
864.766	25.94
864.939	68.95
865.113	89.43
865.287	48.47
865.461	-12.97
865.634	-25.26
865.808	-12.97
865.982	-21.16
866.156	-4.78
866.329	27.99
866.503	44.37
866.676	30.04
866.85	23.89
867.024	-2.73
867.197	93.52
867.371	42.32
867.544	73.04
867.718	21.85
867.891	93.52
868.065	-0.68
868.238	5.46
868.412	13.65
868.585	-35.5
868.759	-64.17
868.932	40.28
869.105	50.52
869.279	68.95
869.452	-8.87
869.625	-4.78
869.799	-25.26
869.972	75.09
870.145	77.14
870.319	-21.16
870.492	-37.55
870.665	17.75
870.838	-25.26
871.011	-39.59
871.185	5.46
871.358	-43.69
871.531	105.81
871.704	-12.97
871.877	17.75
872.05	11.61
872.223	36.18
872.396	79.19
872.569	-41.64
872.742	3.41
872.915	-41.64
873.088	15.7
873.261	-45.74
873.434	60.76
873.607	5.46
873.78	-2.73
873.953	42.32
874.126	11.61
874.299	111.96
874.471	-10.92
874.644	32.08
874.817	34.13
874.99	118.1
875.163	97.62
875.335	97.62
875.508	-0.68
875.681	34.13
875.853	-25.26
876.026	-4.78
876.199	-8.87
876.371	-37.55
876.544	11.61
876.717	48.47
876.889	5.46
877.062	3.41
877.234	48.47
877.407	56.66
877.579	25.94
877.752	23.89
877.924	3.41
878.097	34.13
878.269	40.28
878.442	19.8
878.614	1.37
878.786	44.37
878.959	27.99
879.131	-10.92
879.303	-21.16
879.476	64.85
879.648	13.65
879.82	40.28
879.993	5.46
880.165	-23.21
880.337	40.28
880.509	13.65
880.681	7.51
880.854	23.89
881.026	71
881.198	122.2
881.37	50.52
881.542	-2.73
881.714	7.51
881.886	11.61
882.058	-41.64
882.23	30.04
882.402	9.56
882.574	75.09
882.746	-35.5
882.918	-41.64
883.09	64.85
883.262	-19.11
883.434	40.28
883.606	-19.11
883.778	34.13
883.95	109.91
884.122	15.7
884.293	3.41
884.465	66.9
884.637	89.43
884.809	30.04
884.98	-76.46
885.152	36.18
885.324	46.42
885.496	-19.11
885.667	5.46
885.839	-0.68
886.011	132.44
886.182	48.47
886.354	36.18
886.525	-19.11
886.697	-17.07
886.869	-41.64
887.04	-4.78
887.212	40.28
887.383	50.52
887.555	-4.78
887.726	-17.07
887.897	-2.73
888.069	32.08
888.24	-15.02
888.412	34.13
888.583	11.61
888.754	48.47
888.926	71
889.097	-41.64
889.268	-8.87
889.44	48.47
889.611	25.94
889.782	9.56
889.953	-15.02
890.125	36.18
890.296	30.04
890.467	-19.11
890.638	38.23
890.809	11.61
890.98	-8.87
891.151	42.32
891.323	38.23
891.494	21.85
891.665	44.37
891.836	-6.83
892.007	9.56
892.178	15.7
892.349	-10.92
892.52	15.7
892.691	13.65
892.862	25.94
893.032	1.37
893.203	1.37
893.374	1.37
893.545	120.15
893.716	40.28
893.887	-6.83
894.057	11.61
894.228	-43.69
894.399	40.28
894.57	-8.87
894.74	19.8
894.911	1.37
895.082	23.89
895.253	-10.92
895.423	-68.27
895.594	-2.73
895.764	-8.87
895.935	30.04
896.106	54.61
896.276	19.8
896.447	17.75
896.617	7.51
896.788	62.8
896.958	-19.11
897.129	73.04
897.299	56.66
897.47	-10.92
897.64	-8.87
897.81	15.7
897.981	27.99
898.151	68.95
898.322	-0.68
898.492	52.56
898.662	19.8
898.832	-43.69
899.003	-10.92
899.173	3.41
899.343	-2.73
899.513	3.41
