Data from USB4F104151__280__10-42-08-712.txt Node

Date: Wed Mar 12 10:42:08 EDT 2025
User: louis
Spectrometer: USB4F10415
Trigger mode: 4
Integration Time (sec): 3.000000E-2
Scans to average: 1
Electric dark correction enabled: true
Nonlinearity correction enabled: false
Boxcar width: 0
XAxis mode: Wavelengths
Number of Pixels in Spectrum: 3648
>>>>>Begin Spectral Data<<<<<
178.204	-72.7
178.424	-72.7
178.644	-72.7
178.864	-109.57
179.084	-136.19
179.304	-9.22
179.524	-1.02
179.744	25.6
179.964	66.56
180.184	-7.17
180.404	-1.02
180.624	7.17
180.844	-60.42
181.064	-41.98
181.283	44.03
181.503	-50.18
181.723	27.65
181.943	-76.8
182.163	37.89
182.383	58.37
182.602	76.8
182.822	56.32
183.042	60.42
183.262	25.6
183.482	-25.6
183.701	13.31
183.921	62.46
184.141	-7.17
184.361	37.89
184.58	23.55
184.8	-37.89
185.02	11.26
185.239	29.7
185.459	46.08
185.679	87.04
185.898	-17.41
186.118	113.66
186.338	-9.22
186.557	46.08
186.777	54.27
186.997	74.75
187.216	23.55
187.436	103.42
187.655	9.22
187.875	89.09
188.095	52.22
188.314	35.84
188.534	78.85
188.753	91.13
188.973	35.84
189.192	1.02
189.412	11.26
189.631	44.03
189.851	3.07
190.07	44.03
190.29	-11.26
190.509	48.13
190.729	1.02
190.948	115.71
191.168	111.61
191.387	68.61
191.607	19.46
191.826	41.98
192.045	76.8
192.265	31.74
192.484	35.84
192.704	103.42
192.923	-5.12
193.142	78.85
193.362	27.65
193.581	105.47
193.8	7.17
194.02	50.18
194.239	-19.46
194.458	27.65
194.678	52.22
194.897	64.51
195.116	-3.07
195.335	-35.84
195.555	-15.36
195.774	31.74
195.993	97.28
196.212	62.46
196.432	-31.74
196.651	-25.6
196.87	-7.17
197.089	76.8
197.308	3.07
197.528	48.13
197.747	39.94
197.966	-13.31
198.185	97.28
198.404	15.36
198.623	82.94
198.842	99.33
199.062	23.55
199.281	68.61
199.5	-7.17
199.719	13.31
199.938	15.36
200.157	87.04
200.376	119.81
200.595	52.22
200.814	11.26
201.033	-33.79
201.252	97.28
201.471	-33.79
201.69	-31.74
201.909	54.27
202.128	-72.7
202.347	84.99
202.566	-5.12
202.785	-105.47
203.004	-17.41
203.223	50.18
203.442	19.46
203.661	-37.89
203.879	7.17
204.098	84.99
204.317	11.26
204.536	70.65
204.755	21.5
204.974	48.13
205.193	31.74
205.411	103.42
205.63	52.22
205.849	56.32
206.068	39.94
206.287	39.94
206.505	68.61
206.724	37.89
206.943	-29.7
207.162	41.98
207.381	76.8
207.599	9.22
207.818	23.55
208.037	31.74
208.255	35.84
208.474	39.94
208.693	-35.84
208.911	99.33
209.13	48.13
209.349	78.85
209.567	29.7
209.786	74.75
210.005	29.7
210.223	11.26
210.442	95.23
210.661	31.74
210.879	52.22
211.098	23.55
211.316	52.22
211.535	41.98
211.753	44.03
211.972	64.51
212.191	64.51
212.409	23.55
212.628	164.86
212.846	25.6
213.065	35.84
213.283	113.66
213.502	5.12
213.72	44.03
213.938	-1.02
214.157	60.42
214.375	-5.12
214.594	-19.46
214.812	70.65
215.031	37.89
215.249	-17.41
215.467	39.94
215.686	52.22
215.904	74.75
216.122	64.51
216.341	50.18
216.559	46.08
216.778	29.7
216.996	29.7
217.214	31.74
217.432	21.5
217.651	93.18
217.869	64.51
218.087	37.89
218.306	62.46
218.524	76.8
218.742	3.07
218.96	-1.02
219.179	23.55
219.397	80.89
219.615	66.56
219.833	72.7
220.051	29.7
220.27	154.62
220.488	11.26
220.706	35.84
220.924	80.89
221.142	31.74
221.36	25.6
221.578	58.37
221.796	64.51
222.015	48.13
222.233	-21.5
222.451	99.33
222.669	23.55
222.887	9.22
223.105	-9.22
223.323	19.46
223.541	-23.55
223.759	72.7
223.977	27.65
224.195	125.95
224.413	76.8
224.631	35.84
224.849	44.03
225.067	48.13
225.285	35.84
225.503	31.74
225.721	56.32
225.939	125.95
226.157	39.94
226.375	105.47
226.592	15.36
226.81	46.08
227.028	76.8
227.246	15.36
227.464	11.26
227.682	3.07
227.9	7.17
228.117	-44.03
228.335	76.8
228.553	37.89
228.771	23.55
228.989	-9.22
229.206	9.22
229.424	13.31
229.642	-23.55
229.86	23.55
230.077	-3.07
230.295	15.36
230.513	44.03
230.731	72.7
230.948	111.61
231.166	54.27
231.384	54.27
231.601	-5.12
231.819	84.99
232.037	17.41
232.254	19.46
232.472	-1.02
232.689	-23.55
232.907	84.99
233.125	17.41
233.342	29.7
233.56	3.07
233.777	46.08
233.995	25.6
234.213	15.36
234.43	64.51
234.648	76.8
234.865	-13.31
235.083	19.46
235.3	-41.98
235.518	89.09
235.735	62.46
235.953	76.8
236.17	-41.98
236.388	64.51
236.605	19.46
236.822	107.52
237.04	60.42
237.257	23.55
237.475	15.36
237.692	119.81
237.909	56.32
238.127	80.89
238.344	37.89
238.562	46.08
238.779	-33.79
238.996	9.22
239.214	-17.41
239.431	-5.12
239.648	64.51
239.865	64.51
240.083	23.55
240.3	-7.17
240.517	-35.84
240.735	23.55
240.952	39.94
241.169	46.08
241.386	11.26
241.603	76.8
241.821	-52.22
242.038	27.65
242.255	84.99
242.472	-27.65
242.689	56.32
242.907	144.38
243.124	-23.55
243.341	80.89
243.558	-23.55
243.775	41.98
243.992	62.46
244.209	66.56
244.426	76.8
244.643	-11.26
244.86	-29.7
245.078	27.65
245.295	91.13
245.512	62.46
245.729	-21.5
245.946	23.55
246.163	52.22
246.38	7.17
246.597	70.65
246.814	78.85
247.031	46.08
247.248	21.5
247.464	78.85
247.681	-68.61
247.898	60.42
248.115	39.94
248.332	70.65
248.549	58.37
248.766	144.38
248.983	119.81
249.2	29.7
249.417	60.42
249.633	-11.26
249.85	60.42
250.067	-23.55
250.284	48.13
250.501	39.94
250.717	25.6
250.934	15.36
251.151	76.8
251.368	97.28
251.585	44.03
251.801	50.18
252.018	5.12
252.235	72.7
252.451	11.26
252.668	27.65
252.885	87.04
253.102	91.13
253.318	31.74
253.535	27.65
253.752	27.65
253.968	-17.41
254.185	5.12
254.401	9.22
254.618	-5.12
254.835	107.52
255.051	68.61
255.268	27.65
255.484	23.55
255.701	27.65
255.917	103.42
256.134	-87.04
256.351	-15.36
256.567	15.36
256.784	3.07
257	37.89
257.217	97.28
257.433	37.89
257.65	78.85
257.866	117.76
258.082	-5.12
258.299	7.17
258.515	64.51
258.732	3.07
258.948	-9.22
259.165	46.08
259.381	29.7
259.597	84.99
259.814	48.13
260.03	19.46
260.246	-1.02
260.463	60.42
260.679	58.37
260.895	76.8
261.112	76.8
261.328	27.65
261.544	70.65
261.761	150.53
261.977	15.36
262.193	17.41
262.409	60.42
262.626	27.65
262.842	48.13
263.058	-50.18
263.274	78.85
263.49	80.89
263.707	64.51
263.923	-44.03
264.139	72.7
264.355	111.61
264.571	91.13
264.787	50.18
265.004	13.31
265.22	80.89
265.436	58.37
265.652	11.26
265.868	13.31
266.084	-21.5
266.3	29.7
266.516	-54.27
266.732	-13.31
266.948	56.32
267.164	66.56
267.38	44.03
267.596	107.52
267.812	-13.31
268.028	35.84
268.244	44.03
268.46	19.46
268.676	25.6
268.892	72.7
269.108	-9.22
269.324	72.7
269.54	-23.55
269.756	72.7
269.972	72.7
270.188	-15.36
270.403	15.36
270.619	80.89
270.835	97.28
271.051	23.55
271.267	-27.65
271.483	44.03
271.698	-27.65
271.914	39.94
272.13	37.89
272.346	31.74
272.562	37.89
272.777	84.99
272.993	29.7
273.209	9.22
273.425	64.51
273.64	21.5
273.856	17.41
274.072	50.18
274.287	52.22
274.503	11.26
274.719	62.46
274.934	11.26
275.15	-27.65
275.366	21.5
275.581	107.52
275.797	84.99
276.012	39.94
276.228	-39.94
276.444	44.03
276.659	52.22
276.875	52.22
277.09	91.13
277.306	37.89
277.521	19.46
277.737	103.42
277.952	78.85
278.168	41.98
278.383	74.75
278.599	25.6
278.814	46.08
279.03	37.89
279.245	60.42
279.461	64.51
279.676	70.65
279.892	46.08
280.107	5.12
280.322	70.65
280.538	3.07
280.753	-35.84
280.969	46.08
281.184	60.42
281.399	121.85
281.615	17.41
281.83	23.55
282.045	23.55
282.26	52.22
282.476	-17.41
282.691	109.57
282.906	-1.02
283.122	33.79
283.337	39.94
283.552	105.47
283.767	-19.46
283.983	68.61
284.198	44.03
284.413	39.94
284.628	9.22
284.843	56.32
285.058	9.22
285.274	37.89
285.489	113.66
285.704	3.07
285.919	44.03
286.134	58.37
286.349	27.65
286.564	52.22
286.779	66.56
286.995	25.6
287.21	19.46
287.425	70.65
287.64	54.27
287.855	21.5
288.07	-17.41
288.285	50.18
288.5	15.36
288.715	97.28
288.93	-5.12
289.145	37.89
289.36	101.37
289.575	48.13
289.79	-58.37
290.004	29.7
290.219	74.75
290.434	62.46
290.649	21.5
290.864	64.51
291.079	33.79
291.294	80.89
291.509	21.5
291.724	-1.02
291.938	-39.94
292.153	41.98
292.368	-1.02
292.583	50.18
292.798	72.7
293.012	-31.74
293.227	62.46
293.442	33.79
293.657	29.7
293.871	-13.31
294.086	-9.22
294.301	70.65
294.516	76.8
294.73	64.51
294.945	29.7
295.16	60.42
295.374	107.52
295.589	64.51
295.804	-7.17
296.018	-23.55
296.233	48.13
296.447	19.46
296.662	11.26
296.877	107.52
297.091	23.55
297.306	60.42
297.52	37.89
297.735	121.85
297.949	60.42
298.164	44.03
298.378	31.74
298.593	31.74
298.807	-3.07
299.022	39.94
299.236	13.31
299.451	117.76
299.665	-9.22
299.88	72.7
300.094	46.08
300.309	58.37
300.523	27.65
300.737	1.02
300.952	70.65
301.166	93.18
301.381	3.07
301.595	39.94
301.809	23.55
302.024	130.05
302.238	-9.22
302.452	23.55
302.667	109.57
302.881	109.57
303.095	68.61
303.309	132.09
303.524	25.6
303.738	27.65
303.952	76.8
304.166	82.94
304.381	27.65
304.595	97.28
304.809	76.8
305.023	66.56
305.237	-29.7
305.452	78.85
305.666	-9.22
305.88	44.03
306.094	39.94
306.308	99.33
306.522	97.28
306.736	7.17
306.95	173.05
307.164	44.03
307.379	19.46
307.593	97.28
307.807	-17.41
308.021	89.09
308.235	89.09
308.449	64.51
308.663	52.22
308.877	82.94
309.091	84.99
309.305	84.99
309.519	3.07
309.733	52.22
309.947	46.08
310.161	31.74
310.374	31.74
310.588	101.37
310.802	23.55
311.016	13.31
311.23	27.65
311.444	54.27
311.658	-29.7
311.872	70.65
312.085	66.56
312.299	11.26
312.513	87.04
312.727	82.94
312.941	41.98
313.154	76.8
313.368	35.84
313.582	56.32
313.796	23.55
314.009	48.13
314.223	130.05
314.437	89.09
314.651	39.94
314.864	54.27
315.078	62.46
315.292	-35.84
315.505	15.36
315.719	72.7
315.933	60.42
316.146	58.37
316.36	-11.26
316.573	76.8
316.787	142.33
317.001	76.8
317.214	109.57
317.428	68.61
317.641	-11.26
317.855	82.94
318.068	72.7
318.282	60.42
318.495	62.46
318.709	78.85
318.922	48.13
319.136	21.5
319.349	76.8
319.563	50.18
319.776	23.55
319.99	-13.31
320.203	103.42
320.417	41.98
320.63	54.27
320.843	1.02
321.057	21.5
321.27	13.31
321.483	68.61
321.697	107.52
321.91	35.84
322.124	9.22
322.337	39.94
322.55	-33.79
322.763	91.13
322.977	17.41
323.19	15.36
323.403	68.61
323.617	-5.12
323.83	-27.65
324.043	19.46
324.256	78.85
324.469	17.41
324.683	89.09
324.896	19.46
325.109	58.37
325.322	1.02
325.535	144.38
325.748	52.22
325.962	68.61
326.175	52.22
326.388	27.65
326.601	64.51
326.814	84.99
327.027	56.32
327.24	121.85
327.453	9.22
327.666	48.13
327.879	84.99
328.092	60.42
328.305	-3.07
328.518	72.7
328.731	25.6
328.944	37.89
329.157	89.09
329.37	76.8
329.583	15.36
329.796	109.57
330.009	89.09
330.222	50.18
330.435	-9.22
330.648	27.65
330.861	35.84
331.073	52.22
331.286	89.09
331.499	60.42
331.712	89.09
331.925	52.22
332.138	11.26
332.35	37.89
332.563	-44.03
332.776	68.61
332.989	52.22
333.202	56.32
333.414	-13.31
333.627	68.61
333.84	19.46
334.053	1.02
334.265	-21.5
334.478	87.04
334.691	130.05
334.903	60.42
335.116	48.13
335.329	66.56
335.541	72.7
335.754	37.89
335.966	9.22
336.179	68.61
336.392	48.13
336.604	84.99
336.817	46.08
337.029	7.17
337.242	74.75
337.454	78.85
337.667	44.03
337.88	25.6
338.092	-11.26
338.305	35.84
338.517	21.5
338.729	64.51
338.942	95.23
339.154	17.41
339.367	-15.36
339.579	-29.7
339.792	-15.36
340.004	109.57
340.217	27.65
340.429	136.19
340.641	9.22
340.854	35.84
341.066	66.56
341.278	115.71
341.491	46.08
341.703	82.94
341.915	70.65
342.128	7.17
342.34	80.89
342.552	15.36
342.764	5.12
342.977	64.51
343.189	-46.08
343.401	48.13
343.613	-31.74
343.826	46.08
344.038	50.18
344.25	37.89
344.462	-1.02
344.674	23.55
344.886	58.37
345.099	87.04
345.311	89.09
345.523	62.46
345.735	52.22
345.947	78.85
346.159	23.55
346.371	70.65
346.583	52.22
346.795	185.34
347.007	7.17
347.219	48.13
347.431	89.09
347.643	60.42
347.855	31.74
348.067	97.28
348.279	31.74
348.491	27.65
348.703	1.02
348.915	-1.02
349.127	35.84
349.339	123.9
349.551	5.12
349.763	117.76
349.975	44.03
350.187	52.22
350.399	58.37
350.61	56.32
350.822	-23.55
351.034	74.75
351.246	109.57
351.458	50.18
351.669	111.61
351.881	72.7
352.093	111.61
352.305	35.84
352.517	105.47
352.728	78.85
352.94	64.51
353.152	17.41
353.363	-1.02
353.575	33.79
353.787	99.33
353.999	58.37
354.21	46.08
354.422	74.75
354.633	-11.26
354.845	41.98
355.057	70.65
355.268	97.28
355.48	64.51
355.692	48.13
355.903	7.17
356.115	82.94
356.326	27.65
356.538	109.57
356.749	-25.6
356.961	72.7
357.172	-9.22
357.384	-7.17
357.595	111.61
357.807	97.28
358.018	74.75
358.23	23.55
358.441	115.71
358.653	64.51
358.864	84.99
359.075	76.8
359.287	58.37
359.498	82.94
359.709	27.65
359.921	60.42
360.132	21.5
360.344	89.09
360.555	87.04
360.766	101.37
360.977	101.37
361.189	39.94
361.4	41.98
361.611	48.13
361.823	125.95
362.034	44.03
362.245	48.13
362.456	64.51
362.667	23.55
362.879	50.18
363.09	113.66
363.301	35.84
363.512	130.05
363.723	60.42
363.935	136.19
364.146	27.65
364.357	80.89
364.568	44.03
364.779	19.46
364.99	130.05
365.201	48.13
365.412	72.7
365.623	84.99
365.834	105.47
366.045	33.79
366.256	62.46
366.467	107.52
366.678	48.13
366.889	66.56
367.1	23.55
367.311	64.51
367.522	17.41
367.733	113.66
367.944	105.47
368.155	119.81
368.366	-3.07
368.577	115.71
368.788	76.8
368.999	-21.5
369.209	64.51
369.42	162.81
369.631	136.19
369.842	72.7
370.053	27.65
370.264	62.46
370.474	50.18
370.685	125.95
370.896	37.89
371.107	166.91
371.317	66.56
371.528	78.85
371.739	142.33
371.95	52.22
372.16	121.85
372.371	54.27
372.582	48.13
372.792	76.8
373.003	80.89
373.214	-7.17
373.424	64.51
373.635	39.94
373.846	84.99
374.056	105.47
374.267	11.26
374.477	60.42
374.688	52.22
374.898	46.08
375.109	44.03
375.319	72.7
375.53	46.08
375.74	89.09
375.951	21.5
376.161	60.42
376.372	89.09
376.582	97.28
376.793	64.51
377.003	125.95
377.214	60.42
377.424	72.7
377.635	21.5
377.845	68.61
378.055	15.36
378.266	-1.02
378.476	46.08
378.686	111.61
378.897	35.84
379.107	111.61
379.317	66.56
379.528	72.7
379.738	78.85
379.948	62.46
380.158	15.36
380.369	93.18
380.579	107.52
380.789	46.08
380.999	130.05
381.21	109.57
381.42	113.66
381.63	-31.74
381.84	41.98
382.05	105.47
382.261	54.27
382.471	97.28
382.681	60.42
382.891	103.42
383.101	119.81
383.311	52.22
383.521	48.13
383.731	138.24
383.941	64.51
384.151	105.47
384.361	78.85
384.571	113.66
384.781	95.23
384.991	89.09
385.201	130.05
385.411	103.42
385.621	60.42
385.831	125.95
386.041	84.99
386.251	35.84
386.461	99.33
386.671	78.85
386.881	64.51
387.091	162.81
387.301	125.95
387.511	27.65
387.72	97.28
387.93	64.51
388.14	58.37
388.35	31.74
388.56	113.66
388.769	97.28
388.979	58.37
389.189	70.65
389.399	138.24
389.609	113.66
389.818	31.74
390.028	115.71
390.238	80.89
390.447	5.12
390.657	84.99
390.867	76.8
391.076	48.13
391.286	78.85
391.496	33.79
391.705	107.52
391.915	121.85
392.125	158.72
392.334	33.79
392.544	111.61
392.753	31.74
392.963	56.32
393.172	54.27
393.382	60.42
393.591	29.7
393.801	80.89
394.01	117.76
394.22	101.37
394.429	117.76
394.639	150.53
394.848	101.37
395.058	136.19
395.267	76.8
395.477	76.8
395.686	144.38
395.895	144.38
396.105	154.62
396.314	136.19
396.524	84.99
396.733	119.81
396.942	115.71
397.152	160.77
397.361	140.29
397.57	146.43
397.78	117.76
397.989	134.14
398.198	138.24
398.407	105.47
398.617	121.85
398.826	130.05
399.035	142.33
399.244	99.33
399.453	158.72
399.663	121.85
399.872	128
400.081	187.39
400.29	232.44
400.499	64.51
400.708	146.43
400.917	158.72
401.127	121.85
401.336	109.57
401.545	222.2
401.754	162.81
401.963	166.91
402.172	109.57
402.381	195.58
402.59	121.85
402.799	72.7
403.008	125.95
403.217	138.24
403.426	199.68
403.635	144.38
403.844	138.24
404.053	181.25
404.262	164.86
404.471	269.31
404.68	216.06
404.888	222.2
405.097	201.72
405.306	175.1
405.515	150.53
405.724	156.67
405.933	250.88
406.142	195.58
406.35	248.83
406.559	177.15
406.768	218.11
406.977	205.82
407.185	244.73
407.394	257.02
407.603	250.88
407.812	277.5
408.02	234.49
408.229	191.49
408.438	238.59
408.646	216.06
408.855	308.22
409.064	312.32
409.272	279.55
409.481	316.41
409.69	320.51
409.898	246.78
410.107	367.61
410.315	400.38
410.524	420.86
410.733	472.06
410.941	361.47
411.15	449.53
411.358	422.91
411.567	576.5
411.775	467.96
411.984	492.54
412.192	498.68
412.401	484.34
412.609	601.08
412.818	590.84
413.026	648.18
413.234	596.98
413.443	717.81
413.651	689.14
413.86	660.47
414.068	744.44
414.276	760.82
414.485	793.59
414.693	715.77
414.901	801.78
415.11	875.51
415.318	871.41
415.526	838.64
415.734	963.57
415.943	959.47
416.151	984.05
416.359	1035.25
416.567	1035.25
416.776	1090.54
416.984	1104.88
417.192	1147.89
417.4	1178.61
417.608	1242.09
417.817	1203.18
418.025	1299.44
418.233	1418.22
418.441	1395.69
418.649	1403.88
418.857	1539.05
419.065	1592.3
419.273	1463.27
419.481	1584.1
419.689	1778.66
419.897	1780.71
420.105	1760.23
420.313	1829.86
420.521	1958.88
420.729	2059.23
420.937	1991.65
421.145	2135.01
421.353	2153.44
421.561	2348
421.769	2368.48
421.977	2489.31
422.185	2466.78
422.393	2647
422.601	2845.65
422.809	2759.64
423.017	2755.54
423.224	2816.98
423.432	3003.35
423.64	3066.83
423.848	3271.63
424.056	3122.13
424.263	3421.13
424.471	3494.86
424.679	3580.87
424.887	3828.68
425.094	3861.45
425.302	3724.23
425.51	3847.11
425.718	4041.67
425.925	4185.02
426.133	4271.04
426.341	4504.51
426.548	4711.35
426.756	4744.12
426.964	4660.15
427.171	5024.69
427.379	5340.08
427.586	5311.41
427.794	5481.39
428.001	5561.26
428.209	5909.41
428.417	5794.73
428.624	6364.06
428.832	6386.59
429.039	6128.55
429.247	6421.41
429.454	6773.66
429.662	7283.6
429.869	6808.47
430.076	7324.56
430.284	7054.23
430.491	7478.16
430.699	7715.72
430.906	7764.87
431.114	8024.97
431.321	8180.61
431.528	8469.37
431.736	8817.53
431.943	9233.27
432.15	9018.23
432.358	9075.57
432.565	9689.96
432.772	9694.06
432.979	9810.79
433.187	10386.27
433.394	10441.57
433.601	11139.93
433.808	11098.97
434.016	10867.55
434.223	11436.88
434.43	12211.01
434.637	11983.69
434.844	12653.37
435.052	12985.15
435.259	13009.72
435.466	12968.76
435.673	12843.84
435.88	13824.81
436.087	14570.27
436.294	14463.78
436.501	14023.47
436.708	14218.02
436.915	14881.56
437.122	15721.23
437.329	15315.73
437.537	15854.35
437.743	16392.97
437.95	16227.08
438.157	17171.19
438.364	17459.96
438.571	17335.03
438.778	17679.09
438.985	19241.69
439.192	18596.58
439.399	19116.76
439.606	18832.1
439.813	19618.52
440.02	20937.41
440.227	20366.03
440.433	20130.51
440.64	20861.63
440.847	20505.29
441.054	21414.59
441.261	22653.61
441.467	22471.34
441.674	23114.4
441.881	23812.76
442.088	23814.8
442.294	23483.03
442.501	24337.04
442.708	24771.21
442.914	25727.61
443.121	26628.71
443.328	26194.54
443.534	27648.6
443.741	26952.29
443.948	26292.85
444.154	29002.31
444.361	28592.72
444.568	28803.66
444.774	28707.4
444.981	28748.36
445.187	29686.33
445.394	31492.64
445.6	30753.32
445.807	33538.56
446.013	31998.49
446.22	32696.85
446.426	34214.39
446.633	34111.99
446.839	35260.9
447.046	34009.59
447.252	35852.76
447.459	35930.59
447.665	35258.85
447.871	36995.53
448.078	38345.14
448.284	36610.51
448.491	37706.18
448.697	39537.06
448.903	39772.58
449.11	39879.07
449.316	39035.31
449.522	40026.53
449.728	40837.52
449.935	41281.93
450.141	40794.51
450.347	41757.06
450.553	40602
450.76	40909.2
450.966	42256.76
451.172	42324.35
451.378	43065.71
451.584	42193.28
451.791	42889.59
451.997	42783.09
452.203	43280.75
452.409	43843.94
452.615	43311.47
452.821	41681.28
453.027	40749.46
453.233	43405.67
453.44	41470.34
453.646	41757.06
453.852	42273.15
454.058	42819.95
454.264	40860.05
454.47	42058.11
454.676	40911.25
454.882	42279.29
455.088	38717.87
455.294	39254.44
455.5	39397.8
455.705	40145.31
455.911	38551.99
456.117	37784
456.323	37181.9
456.529	34955.75
456.735	36751.82
456.941	35914.2
457.147	35146.22
457.352	34046.46
457.558	33280.52
457.764	33464.83
457.97	32840.2
458.176	32272.92
458.381	32455.18
458.587	30759.47
458.793	30284.34
458.999	29162.05
459.204	31210.02
459.41	30229.04
459.616	28492.37
459.821	28213.84
460.027	28136.02
460.233	27558.49
460.438	26161.78
460.644	27007.59
460.85	25338.49
461.055	25197.18
461.261	25105.02
461.466	23200.41
461.672	22342.32
461.878	23886.48
462.083	22203.05
462.289	22020.78
462.494	21643.96
462.7	21156.54
462.905	20257.48
463.111	20961.98
463.316	21019.33
463.522	20511.43
463.727	20656.84
463.932	20949.7
464.138	20472.52
464.343	20474.57
464.549	20058.83
464.754	20648.64
464.959	20546.25
465.165	20255.43
465.37	19593.94
465.575	19178.2
465.781	19575.51
465.986	20099.79
466.191	19409.62
466.397	18864.86
466.602	18027.24
466.807	18725.6
467.012	18946.78
467.218	18473.7
467.423	18264.81
467.628	18698.98
467.833	19323.61
468.038	18381.54
468.244	17875.7
468.449	18997.98
468.654	18068.2
468.859	18045.68
469.064	18045.68
469.269	17543.92
469.474	17347.32
469.679	17853.17
469.885	17140.47
470.09	17345.27
470.295	17531.64
470.5	16640.77
470.705	17093.37
470.91	16509.7
471.115	16300.81
471.32	16698.11
471.525	16626.43
471.73	16165.64
471.935	16362.25
472.139	15467.28
472.344	15467.28
472.549	15463.19
472.754	15334.17
472.959	15309.59
473.164	14918.43
473.369	14764.83
473.574	15377.17
473.778	15067.93
473.983	14926.62
474.188	14646.05
474.393	14140.2
474.598	14234.41
474.802	14076.71
475.007	13755.18
475.212	14043.95
475.417	13439.79
475.621	13480.75
475.826	13521.71
476.031	13364.02
476.235	13247.29
476.44	13095.74
476.645	12933.95
476.849	13267.77
477.054	12905.28
477.259	12956.47
477.463	12577.6
477.668	12342.08
477.872	12522.3
478.077	12223.3
478.282	12147.53
478.486	12000.07
478.691	11811.66
478.895	11717.45
479.1	11828.04
479.304	11686.73
479.509	11545.42
479.713	11561.81
479.918	11592.53
480.122	11377.49
480.326	11561.81
480.531	11428.69
480.735	11201.37
480.94	11201.37
481.144	11631.44
481.348	11137.88
481.553	11273.04
481.757	11012.95
481.961	11219.8
482.166	11590.48
482.37	11006.81
482.574	11201.37
482.778	11133.78
482.983	11324.24
483.187	11113.3
483.391	11410.26
483.595	11006.81
483.8	10853.21
484.004	11072.34
484.208	11109.21
484.412	11041.62
484.616	11187.03
484.821	11064.15
485.025	10871.64
485.229	11076.44
485.433	11072.34
485.637	11082.58
485.841	11119.45
486.045	10888.03
486.249	11060.06
486.453	11203.41
486.657	11098.97
486.861	11064.15
487.065	10945.37
487.269	11209.56
487.473	11033.43
487.677	11195.22
487.881	11221.84
488.085	11098.97
488.289	11076.44
488.493	10963.8
488.697	11264.85
488.901	11168.6
489.105	11346.77
489.309	11373.39
489.512	11426.64
489.716	11496.27
489.92	11293.52
490.124	11285.33
490.328	11393.87
490.531	11256.66
490.735	11481.94
490.939	11408.21
491.143	11379.54
491.346	11606.86
491.55	11916.11
491.754	11772.75
491.958	11895.63
492.161	11770.7
492.365	11733.84
492.569	11887.43
492.772	11610.96
492.976	11944.78
493.18	11967.31
493.383	12268.36
493.587	12333.89
493.79	12331.84
493.994	12092.23
494.197	12335.94
494.401	12340.04
494.605	12374.85
494.808	12593.98
495.012	12741.44
495.215	12849.98
495.419	12933.95
495.622	12866.36
495.825	13136.7
496.029	13134.65
496.232	13384.5
496.436	13380.4
496.639	13785.9
496.843	13720.37
497.046	13869.87
497.249	13982.51
497.453	14275.37
497.656	14306.09
497.859	14244.65
498.063	14388
498.266	14572.32
498.469	14687.01
498.673	15110.94
498.876	14852.89
499.079	15495.96
499.282	15371.03
499.485	15858.45
499.689	15579.92
499.892	15893.26
500.095	15686.42
500.298	16403.21
500.501	16196.36
500.705	16755.46
500.908	16685.83
501.111	16997.12
501.314	16972.54
501.517	17263.35
501.72	17593.08
501.923	17529.59
502.126	17877.74
502.329	18121.45
502.532	18352.87
502.735	18305.77
502.938	18778.85
503.141	18838.24
503.344	19081.95
503.547	18954.97
503.75	19530.45
503.953	19821.27
504.156	19811.03
504.359	19981.01
504.562	20148.94
504.765	20507.34
504.968	20961.98
505.17	20888.26
505.373	21041.85
505.576	21459.64
505.779	21523.13
505.982	21734.07
506.185	22203.05
506.387	22342.32
506.59	22450.86
506.793	22950.56
506.996	23083.68
507.198	23607.96
507.401	23347.87
507.604	23462.55
507.807	23937.68
508.009	24339.08
508.212	24560.27
508.415	24777.35
508.617	24953.48
508.82	24832.65
509.022	25285.25
509.225	25791.09
509.428	25705.08
509.63	26264.18
509.833	26081.91
510.035	26907.24
510.238	26557.03
510.44	27144.8
510.643	27394.65
510.845	27847.26
511.048	27374.17
511.25	27904.6
511.453	28002.9
511.655	29207.11
511.858	28774.98
512.06	29018.69
512.262	29047.36
512.465	29362.75
512.667	29944.38
512.87	30331.44
513.072	30333.49
513.274	30814.76
513.477	31115.81
513.679	31081
513.881	31717.92
514.084	32072.21
514.286	31941.14
514.488	32080.41
514.69	32926.22
514.893	33194.5
515.095	33008.14
515.297	33849.85
515.499	33653.25
515.701	33980.92
515.904	34492.91
516.106	34370.04
516.308	34851.31
516.51	35074.54
516.712	35054.06
516.914	35856.86
517.116	36188.63
517.318	36346.33
517.52	36420.05
517.722	36700.62
517.925	37093.83
518.127	37667.27
518.329	38091.19
518.531	37435.84
518.733	38523.32
518.935	38646.19
519.136	38396.34
519.338	39610.79
519.54	39264.68
519.742	39625.12
519.944	39748
520.146	40853.9
520.348	40382.87
520.55	40499.61
520.752	40890.77
520.954	42232.19
521.155	41341.32
521.357	41843.07
521.559	42213.76
521.761	42893.68
521.963	42674.55
522.164	42576.25
522.366	42805.62
522.568	43972.96
522.77	43544.94
522.971	44243.29
523.173	43968.87
523.375	44480.86
523.576	44218.72
523.778	44616.02
523.98	44628.31
524.181	45635.91
524.383	44951.89
524.584	45875.52
524.786	45930.82
524.988	45674.82
525.189	46678.33
525.391	46997.81
525.592	46809.4
525.794	46899.51
525.995	46883.12
526.197	46821.69
526.398	47581.48
526.6	47059.25
526.801	47827.24
527.003	48072.99
527.204	47792.42
527.406	47771.94
527.607	48539.93
527.808	48685.34
528.01	47771.94
528.211	48425.25
528.412	48695.58
528.614	48974.1
528.815	49135.89
529.016	49393.93
529.218	48627.99
529.419	49178.9
529.62	49254.67
529.822	49168.66
530.023	49418.51
530.224	49246.48
530.425	49328.4
530.626	49195.28
530.828	48881.94
531.029	50366.72
531.23	49799.43
531.431	49187.09
531.632	49801.48
531.833	49926.41
532.035	49629.45
532.236	50192.64
532.437	50168.07
532.638	49656.07
532.839	50223.36
533.04	50143.49
533.241	50129.16
533.442	50895.1
533.643	50120.96
533.844	50217.22
534.045	50252.03
534.246	50061.57
534.447	50606.33
534.648	50143.49
534.849	50430.21
535.05	50303.23
535.251	50174.21
535.451	50249.99
535.652	50682.11
535.853	50516.22
536.054	50594.04
536.255	50544.89
536.456	50125.06
536.657	50872.57
536.857	50565.37
537.058	50589.95
537.259	50766.07
537.46	50813.18
537.66	50460.93
537.861	50616.57
538.062	50495.74
538.263	50567.42
538.463	50659.58
538.664	50815.22
538.865	50569.47
539.065	51089.65
539.266	50047.24
539.466	51181.81
539.667	49819.91
539.868	50573.56
540.068	50350.34
540.269	50411.77
540.469	50444.54
540.67	50090.24
540.87	50542.84
541.071	50635
541.271	50821.37
541.472	50684.15
541.672	50141.44
541.873	49914.12
542.073	49967.37
542.274	50682.11
542.474	50225.41
542.675	49873.16
542.875	50483.45
543.075	50553.08
543.276	49502.48
543.476	50415.87
543.676	50118.92
543.877	50405.63
544.077	49838.34
544.277	49781
544.478	50274.56
544.678	50471.17
544.878	50123.01
545.078	50127.11
545.279	49815.82
545.479	50137.35
545.679	50170.11
545.879	50163.97
546.079	50120.96
546.28	49967.37
546.48	49623.31
546.68	50372.86
546.88	50073.86
547.08	50389.25
547.28	50004.23
547.48	49613.07
547.68	49606.92
547.88	49555.72
548.081	50137.35
548.281	49549.58
548.481	49852.68
548.681	50272.51
548.881	49971.46
549.081	49549.58
549.28	49436.94
549.48	50006.28
549.68	49629.45
549.88	50663.67
550.08	49789.19
550.28	50338.05
550.48	49666.31
550.68	50094.34
550.88	49801.48
551.08	49791.24
551.279	49709.32
551.479	48947.48
551.679	49930.5
551.879	49436.94
552.079	49766.66
552.278	49807.62
552.478	49881.35
552.678	49602.83
552.878	50082.05
553.077	49725.71
553.277	49111.31
553.477	50209.03
553.676	49791.24
553.876	49234.19
554.076	48892.18
554.275	49656.07
554.475	48963.86
554.674	49826.06
554.874	49512.72
555.074	49004.82
555.273	49484.04
555.473	49578.25
555.672	48929.05
555.872	49021.2
556.071	49283.34
556.271	49463.57
556.47	48857.37
556.67	48757.02
556.869	48832.79
557.068	49293.58
557.268	49006.87
557.467	49518.86
557.667	48597.27
557.866	48621.85
558.065	48656.67
558.265	48636.19
558.464	47763.75
558.663	49277.2
558.863	48025.89
559.062	48941.33
559.261	48220.45
559.461	49162.51
559.66	48075.04
559.859	48453.92
560.058	47780.13
560.258	48474.4
560.457	48079.14
560.656	48505.12
560.855	47458.6
561.054	48036.13
561.253	47481.13
561.453	47956.26
561.652	48185.63
561.851	48351.52
562.05	47792.42
562.249	47386.92
562.448	48007.46
562.647	47800.61
562.846	47466.8
563.045	47595.82
563.244	47036.72
563.443	47735.08
563.642	46967.09
563.841	47511.85
564.04	46784.82
564.239	47487.28
564.438	46651.7
564.637	47247.66
564.836	46950.71
565.035	46364.99
565.234	46776.63
565.432	46489.91
565.631	46336.32
565.83	46731.57
566.029	46487.87
566.228	46358.84
566.427	46192.96
566.625	46133.57
566.824	45519.18
567.023	46276.93
567.222	45322.57
567.42	46620.98
567.619	45740.36
567.818	46092.61
568.016	45433.16
568.215	46002.5
568.414	45263.18
568.612	46192.96
568.811	45259.09
569.01	45646.15
569.208	44851.54
569.407	45531.47
569.605	44851.54
569.804	45207.89
570.002	44675.41
570.201	44833.11
570.4	45072.72
570.598	44616.02
570.797	43999.58
570.995	44548.44
571.193	44058.98
571.392	44638.55
571.59	44085.6
571.789	44108.13
571.987	44177.76
572.186	44142.94
572.384	43696.49
572.582	43790.69
572.781	44091.74
572.979	43454.82
573.177	43751.78
573.376	43663.72
573.574	43315.56
573.772	43745.64
573.971	42967.41
574.169	43200.88
574.367	42779
574.565	43237.74
574.763	43075.95
574.962	42916.21
575.16	42475.9
575.358	42881.39
575.556	42158.46
575.754	42664.31
575.952	42348.92
576.151	42801.52
576.349	42021.25
576.547	42035.58
576.745	42561.91
576.943	41953.66
577.141	41810.31
577.339	42072.45
577.537	41683.33
577.735	41800.07
577.933	41236.87
578.131	41423.24
578.329	40960.4
578.527	41224.59
578.725	41107.85
578.923	41116.04
579.121	40759.7
579.319	41054.61
579.516	40950.16
579.714	40845.71
579.912	40429.98
580.11	40456.6
580.308	40393.11
580.506	40616.34
580.704	39668.13
580.901	40044.96
581.099	40219.03
581.297	39723.43
581.495	39928.22
581.692	40022.43
581.89	39786.91
582.088	40108.44
582.285	39496.1
582.483	40061.34
582.681	39016.88
582.878	39297.45
583.076	38625.71
583.274	39051.69
583.471	38478.26
583.669	38982.06
583.866	38257.08
584.064	39172.52
584.262	38140.35
584.459	38531.51
584.657	38496.69
584.854	38650.29
585.052	37941.69
585.249	38470.07
585.447	37992.89
585.644	37773.76
585.841	38019.52
586.039	38134.2
586.236	37534.15
586.434	37407.17
586.631	37276.1
586.828	37407.17
587.026	37061.07
587.223	37304.77
587.42	36903.37
587.618	37229
587.815	36901.32
588.012	37155.27
588.21	36843.98
588.407	37235.14
588.604	36213.21
588.801	36381.14
588.999	36688.34
589.196	36336.09
589.393	36057.56
589.59	36073.95
589.787	35953.12
589.984	35793.37
590.182	35215.85
590.379	35824.09
590.576	35168.74
590.773	35682.78
590.97	35226.09
591.167	35373.54
591.364	34927.08
591.561	35326.44
591.758	34810.35
591.955	34992.62
592.152	34865.64
592.349	34796.01
592.546	34777.58
592.743	34691.57
592.94	34392.56
593.137	34138.62
593.334	34451.95
593.531	33921.53
593.727	34234.87
593.924	34087.42
594.121	33776.12
594.318	33804.8
594.515	33464.83
594.712	33774.08
594.908	33286.66
595.105	33610.24
595.302	33229.32
595.499	33206.79
595.696	33083.91
595.892	32866.83
596.089	32797.2
596.286	32956.94
596.482	32651.79
596.679	32729.61
596.876	32725.52
597.072	32305.68
597.269	32502.29
597.466	31773.21
597.662	31990.3
597.859	32393.75
598.055	32150.04
598.252	31775.26
598.448	31812.12
598.645	31603.23
598.841	31363.62
599.038	31390.24
599.234	31316.51
599.431	30853.67
599.627	31181.35
599.824	31232.55
600.02	30786.09
600.217	30845.48
600.413	31162.92
600.609	30673.45
600.806	30759.47
601.002	30898.73
601.198	30593.58
601.395	30216.75
601.591	30106.16
601.787	30503.47
601.984	30173.75
602.18	30673.45
602.376	30048.82
602.572	29639.23
602.769	29884.98
602.965	29633.08
603.161	29663.8
603.357	29479.49
603.553	29403.71
603.75	29579.84
603.946	29076.04
604.142	29727.29
604.338	28443.21
604.534	29051.46
604.73	28951.11
604.926	28576.33
605.122	28783.18
605.318	28418.64
605.514	28260.94
605.71	28242.51
605.906	28342.86
606.102	28303.95
606.298	28119.63
606.494	27812.44
606.69	28246.61
606.886	28148.31
607.082	27925.08
607.278	27605.59
607.474	27753.05
607.67	27497.05
607.866	27370.08
608.062	27859.54
608.257	27505.24
608.453	27595.35
608.649	27484.76
608.845	27128.42
609.041	27253.34
609.236	27306.59
609.432	26913.38
609.628	26808.93
609.824	27071.07
610.019	26696.3
610.215	27044.45
610.411	26806.89
610.606	26542.7
610.802	26956.39
610.998	26354.29
611.193	26696.3
611.389	26673.77
611.584	26391.15
611.78	26206.83
611.976	26507.88
612.171	26126.96
612.367	26409.58
612.562	26317.42
612.758	25971.32
612.953	25723.51
613.149	26354.29
613.344	25907.83
613.539	26296.94
613.735	25862.77
613.93	25909.88
614.126	25864.82
614.321	26151.54
614.517	26004.08
614.712	25850.49
614.907	25361.02
615.103	25629.3
615.298	25662.07
615.493	25965.17
615.688	25334.4
615.884	25721.46
616.079	25084.55
616.274	25293.44
616.47	25150.08
616.665	25383.55
616.86	25023.11
617.055	24853.12
617.25	24666.76
617.445	25086.59
617.641	24484.49
617.836	24896.13
618.031	24494.73
618.226	24466.06
618.421	24134.29
618.616	24535.69
618.811	24068.75
619.006	24834.69
619.201	23827.09
619.396	24255.12
619.591	23761.56
619.786	24115.86
619.981	23786.13
620.176	23997.07
620.371	23274.14
620.566	23472.79
620.761	23249.57
620.956	23370.4
621.151	23341.72
621.346	23304.86
621.541	22684.33
621.735	22895.27
621.93	22536.87
622.125	22835.88
622.32	22354.6
622.515	22293.16
622.709	22045.36
622.904	22170.29
623.099	22076.08
623.294	22135.47
623.488	21762.74
623.683	21717.68
623.878	21918.39
624.072	21691.06
624.267	21330.62
624.462	21066.43
624.656	21129.92
624.851	21226.17
625.046	20810.43
625.24	20888.26
625.435	20648.64
625.629	20861.63
625.824	20523.72
626.018	20380.36
626.213	20200.14
626.407	20153.04
626.602	19960.53
626.796	20007.63
626.991	19821.27
627.185	19602.13
627.38	19565.27
627.574	19514.07
627.768	19215.07
627.963	19653.33
628.157	19131.1
628.352	19327.71
628.546	18858.72
628.74	19153.63
628.935	18711.27
629.129	18684.64
629.323	18311.91
629.517	18635.49
629.712	18397.93
629.906	18494.18
630.1	17933.04
630.294	18320.1
630.489	17883.89
630.683	17965.81
630.877	17660.66
631.071	17603.32
631.265	17603.32
631.459	17349.37
631.653	17588.98
631.848	17388.28
632.042	17193.72
632.236	17251.06
632.43	16962.3
632.624	17072.89
632.818	17165.05
633.012	16855.81
633.206	16444.17
633.4	16630.53
633.594	16268.04
633.788	16560.9
633.982	16265.99
634.176	16130.83
634.369	16055.05
634.563	16102.15
634.757	15928.08
634.951	16001.8
635.145	16155.4
635.339	15784.72
635.533	15395.61
635.726	15756.05
635.92	15459.09
636.114	15375.13
636.308	15280.92
636.501	15411.99
636.695	14967.58
636.889	14918.43
637.083	15018.78
637.276	14963.48
637.47	15096.6
637.664	15086.36
637.857	14912.28
638.051	14844.7
638.244	14627.62
638.438	14754.59
638.632	14258.98
638.825	14347.05
639.019	14480.16
639.212	14027.56
639.406	14146.34
639.599	13953.84
639.793	14013.23
639.986	13749.04
640.18	13724.46
640.373	14013.23
640.567	13785.9
640.76	13777.71
640.954	13292.34
641.147	13390.64
641.34	13484.85
641.534	13361.97
641.727	13484.85
641.92	13286.2
642.114	13224.76
642.307	13120.31
642.5	13081.4
642.694	12733.25
642.887	12708.67
643.08	12976.95
643.273	12774.21
643.467	12710.72
643.66	12741.44
643.853	12524.35
644.046	12249.93
644.239	12411.71
644.432	12139.33
644.626	12202.82
644.819	12174.15
645.012	12026.7
645.205	12108.62
645.398	12165.96
645.591	11998.02
645.784	12006.22
645.977	11588.43
646.17	11942.73
646.363	11606.86
646.556	11322.2
646.749	11664.21
646.942	11717.45
647.135	11430.74
647.328	11344.72
647.521	11326.29
647.714	11121.49
647.907	11080.53
648.099	11291.48
648.292	11117.4
648.485	11107.16
648.678	10810.2
648.871	10890.07
649.064	10935.13
649.256	10969.94
649.449	10713.95
649.642	10767.2
649.835	10589.02
650.027	10589.02
650.22	10265.44
650.413	10378.08
650.605	10300.26
650.798	10351.46
650.991	10242.92
651.183	10206.05
651.376	10244.96
651.568	10193.76
651.761	10197.86
651.954	10109.8
652.146	9900.9
652.339	10105.7
652.531	9622.38
652.724	9943.91
652.916	9692.01
653.109	9681.77
653.301	9630.57
653.494	9569.13
653.686	9343.86
653.879	9542.51
654.071	9653.1
654.263	9257.84
654.456	9421.68
654.648	9304.95
654.84	9257.84
655.033	9321.33
655.225	9259.89
655.417	9100.15
655.61	9089.91
655.802	9251.7
655.994	8876.92
656.186	9014.13
656.379	8795
656.571	8786.81
656.763	8846.2
656.955	8530.81
657.148	8842.11
657.34	8686.46
657.532	8674.17
657.724	8668.03
657.916	8655.74
658.108	8620.92
658.3	8588.16
658.492	8528.77
658.684	8321.92
658.876	8270.72
659.068	8336.26
659.26	8219.52
659.452	8389.5
659.644	8190.85
659.836	8086.4
660.028	7971.72
660.22	7973.77
660.412	7834.5
660.604	7736.2
660.796	8121.22
660.988	7814.02
661.18	7848.84
661.372	7758.73
661.563	7723.91
661.755	7580.56
661.947	7852.94
662.139	7560.08
662.331	7621.52
662.522	7463.82
662.714	7539.6
662.906	7373.71
663.097	7533.45
663.289	7261.07
663.481	7306.13
663.673	7332.75
663.864	7269.27
664.056	7207.83
664.247	7324.56
664.439	7197.59
664.631	7246.74
664.822	7000.98
665.014	7076.76
665.205	7123.86
665.397	7027.6
665.588	6896.53
665.78	6992.79
665.971	6869.91
666.163	6822.81
666.354	6759.32
666.546	6712.22
666.737	6763.42
666.929	6773.66
667.12	6812.57
667.311	6593.44
667.503	6566.81
667.694	6628.25
667.885	6423.45
668.077	6646.68
668.268	6474.65
668.459	6378.4
668.651	6429.6
668.842	6323.1
669.033	6278.05
669.224	6331.3
669.416	6253.47
669.607	6253.47
669.798	6169.51
669.989	6222.75
670.18	6200.23
670.371	6153.12
670.563	6071.2
670.754	6214.56
670.945	6048.68
671.136	6192.03
671.327	6030.24
671.518	5884.84
671.709	6126.5
671.9	5952.42
672.091	6128.55
672.282	6065.06
672.473	5761.96
672.664	5952.42
672.855	5772.2
673.046	5800.87
673.237	6001.57
673.428	5856.17
673.619	5761.96
673.809	5893.03
674	5741.48
674.191	5823.4
674.382	5778.34
674.573	5634.99
674.764	5786.54
674.954	5772.2
675.145	5663.66
675.336	5575.59
675.527	5530.54
675.717	5612.46
675.908	5579.69
676.099	5450.67
676.289	5374.89
676.48	5428.14
676.671	5424.05
676.861	5583.79
677.052	5436.33
677.243	5202.86
677.433	5383.09
677.624	5403.57
677.814	5536.68
678.005	5395.37
678.195	5202.86
678.386	5342.13
678.576	5116.85
678.767	5426.09
678.957	5209.01
679.148	5456.81
679.338	5213.1
679.529	5335.98
679.719	5149.62
679.909	5100.47
680.1	5254.06
680.29	5137.33
680.481	5200.82
680.671	5112.75
680.861	5129.14
681.052	5241.78
681.242	5114.8
681.432	5245.87
681.622	5147.57
681.813	5120.95
682.003	4854.71
682.193	5122.99
682.383	5292.98
682.573	5057.46
682.764	5065.65
682.954	5059.51
683.144	4944.82
683.334	5053.36
683.524	4924.34
683.714	5096.37
683.904	4897.72
684.094	4879.29
684.284	5006.26
684.474	5004.21
684.664	4744.12
684.854	4971.44
685.044	4807.61
685.234	4924.34
685.424	4993.97
685.614	4756.41
685.804	4692.92
685.994	4717.5
686.184	4740.02
686.374	4723.64
686.564	4580.28
686.753	4645.82
686.943	4670.39
687.133	4549.56
687.323	4783.03
687.513	4598.71
687.702	4611
687.892	4586.43
688.082	4670.39
688.272	4697.02
688.461	4604.86
688.651	4619.19
688.841	4416.44
689.03	4395.96
689.22	4330.43
689.41	4344.77
689.599	4383.68
689.789	4260.8
689.979	4332.48
690.168	4332.48
690.358	4371.39
690.547	4254.66
690.737	4391.87
690.926	4158.4
691.116	4223.94
691.305	4201.41
691.495	4115.39
691.684	4154.3
691.874	4099.01
692.063	4076.48
692.252	4170.69
692.442	4111.3
692.631	4086.72
692.82	4107.2
693.01	3857.35
693.199	4105.15
693.388	3933.12
693.578	4035.52
693.767	3814.34
693.956	3969.99
694.146	3849.16
694.335	3724.23
694.524	3990.47
694.713	3824.58
694.902	3957.7
695.092	3820.49
695.281	3779.53
695.47	3734.47
695.659	3769.29
695.848	3720.14
696.037	3779.53
696.226	3806.15
696.415	3738.57
696.604	3775.43
696.793	3517.39
696.982	3697.61
697.171	3847.11
697.36	3666.89
697.549	3677.13
697.738	3589.07
697.927	3654.6
698.116	3615.69
698.305	3576.78
698.494	3695.56
698.683	3630.02
698.872	3664.84
699.061	3623.88
699.25	3400.65
699.438	3554.25
699.627	3525.58
699.816	3623.88
700.005	3460.04
700.193	3523.53
700.382	3544.01
700.571	3472.33
700.76	3380.17
700.948	3435.47
701.137	3455.95
701.326	3437.52
701.514	3435.47
701.703	3496.91
701.892	3378.12
702.08	3517.39
702.269	3406.8
702.457	3339.21
702.646	3535.82
702.834	3259.34
703.023	3320.78
703.212	3326.93
703.4	3394.51
703.589	3423.18
703.777	3292.11
703.965	3226.57
704.154	3464.14
704.342	3316.69
704.531	3421.13
704.719	3259.34
704.907	3341.26
705.096	3230.67
705.284	3345.36
705.472	3292.11
705.661	3251.15
705.849	3226.57
706.037	3363.79
706.226	3312.59
706.414	3263.44
706.602	3206.1
706.79	3347.4
706.979	3193.81
707.167	3392.46
707.355	3208.14
707.543	3290.06
707.731	3189.71
707.919	3197.9
708.107	3232.72
708.296	3173.33
708.484	3240.91
708.672	3210.19
708.86	3181.52
709.048	3216.33
709.236	3214.29
709.424	3283.92
709.612	3302.35
709.8	3238.86
709.988	3234.77
710.176	3204.05
710.364	3210.19
710.551	3158.99
710.739	3232.72
710.927	3152.85
711.115	3115.98
711.303	3261.39
711.491	3128.27
711.679	3161.04
711.866	3167.18
712.054	3099.6
712.242	3146.7
712.43	3062.74
712.617	3077.07
712.805	3218.38
712.993	3007.44
713.181	2989.01
713.368	3161.04
713.556	3113.94
713.744	3083.22
713.931	3138.51
714.119	3068.88
714.306	3089.36
714.494	3152.85
714.682	3087.31
714.869	3146.7
715.057	3214.29
715.244	3089.36
715.432	2923.48
715.619	3021.78
715.807	2997.2
715.994	3029.97
716.182	3128.27
716.369	2933.72
716.556	3120.08
716.744	3060.69
716.931	3025.87
717.119	3099.6
717.306	3036.11
717.493	3105.74
717.681	3169.23
717.868	3093.46
718.055	2991.06
718.242	3017.68
718.43	3148.75
718.617	3048.4
718.804	3017.68
718.991	3001.3
719.179	3029.97
719.366	3038.16
719.553	3042.26
719.74	3001.3
719.927	2894.8
720.114	2876.37
720.301	2966.48
720.488	2915.28
720.676	3019.73
720.863	2927.57
721.05	3058.64
721.237	3046.35
721.424	2935.76
721.611	3109.84
721.798	2991.06
721.985	2900.95
722.172	2948.05
722.358	3007.44
722.545	3046.35
722.732	2784.21
722.919	2958.29
723.106	2950.1
723.293	2925.52
723.48	2989.01
723.667	2919.38
723.853	2880.47
724.04	2931.67
724.227	2958.29
724.414	2890.71
724.6	2862.04
724.787	2939.86
724.974	2870.23
725.161	2864.08
725.347	2900.95
725.534	2927.57
725.72	2804.69
725.907	2874.32
726.094	2894.8
726.28	2857.94
726.467	2872.28
726.653	2802.65
726.84	2880.47
727.027	2956.24
727.213	2862.04
727.4	2890.71
727.586	2878.42
727.773	2900.95
727.959	2751.45
728.145	2829.27
728.332	2874.32
728.518	2862.04
728.705	2898.9
728.891	2747.35
729.077	2778.07
729.264	2745.3
729.45	2708.44
729.636	2890.71
729.823	2839.51
730.009	2823.12
730.195	2724.82
730.382	2896.85
730.568	2796.5
730.754	2749.4
730.94	2851.8
731.126	2741.21
731.313	2929.62
731.499	2864.08
731.685	2829.27
731.871	2780.12
732.057	2671.58
732.243	2857.94
732.429	2640.86
732.615	2659.29
732.801	2786.26
732.987	2741.21
733.173	2720.73
733.359	2784.21
733.545	2698.2
733.731	2700.25
733.917	2769.88
734.103	2710.49
734.289	2612.18
734.475	2841.56
734.661	2692.05
734.847	2653.14
735.033	2587.61
735.219	2728.92
735.404	2546.65
735.59	2683.86
735.776	2638.81
735.962	2735.06
736.148	2698.2
736.333	2724.82
736.519	2696.15
736.705	2579.42
736.89	2603.99
737.076	2726.87
737.262	2438.11
737.447	2608.09
737.633	2626.52
737.819	2554.84
738.004	2655.19
738.19	2581.46
738.375	2608.09
738.561	2710.49
738.747	2542.55
738.932	2421.72
739.118	2493.4
739.303	2522.07
739.489	2505.69
739.674	2501.59
739.859	2466.78
740.045	2483.16
740.23	2397.15
740.416	2505.69
740.601	2603.99
740.786	2348
740.972	2376.67
741.157	2446.3
741.342	2397.15
741.528	2411.48
741.713	2448.35
741.898	2362.33
742.084	2382.81
742.269	2456.54
742.454	2362.33
742.639	2440.15
742.824	2317.28
743.01	2474.97
743.195	2423.77
743.38	2307.04
743.565	2261.98
743.75	2384.86
743.935	2335.71
744.12	2239.45
744.305	2151.39
744.49	2272.22
744.675	2266.08
744.86	2296.8
745.045	2180.06
745.23	2321.37
745.415	2159.58
745.6	2182.11
745.785	2194.4
745.97	2210.78
746.155	2186.21
746.34	2190.3
746.525	2059.23
746.71	2135.01
746.895	2096.1
747.079	1993.7
747.264	2075.62
747.449	2057.18
747.634	2065.38
747.819	2114.53
748.003	2053.09
748.188	1907.68
748.373	1993.7
748.557	1956.83
748.742	1940.45
748.927	2030.56
749.111	1987.55
749.296	1936.35
749.481	1942.5
749.665	1911.78
749.85	1858.53
750.034	1909.73
750.219	1840.1
750.404	1782.76
750.588	1913.83
750.773	1833.96
750.957	1768.42
751.141	1790.95
751.326	1838.05
751.51	1805.28
751.695	1682.41
751.879	1709.03
752.064	1821.67
752.248	1698.79
752.432	1745.89
752.617	1610.73
752.801	1754.09
752.985	1700.84
753.17	1686.5
753.354	1584.1
753.538	1741.8
753.722	1584.1
753.907	1692.65
754.091	1620.97
754.275	1491.95
754.459	1491.95
754.643	1502.19
754.828	1496.04
755.012	1551.34
755.196	1580.01
755.38	1500.14
755.564	1436.65
755.748	1493.99
755.932	1489.9
756.116	1537
756.3	1391.59
756.484	1537
756.668	1436.65
756.852	1377.26
757.036	1428.46
757.22	1389.55
757.404	1512.42
757.588	1371.12
757.772	1389.55
757.956	1412.07
758.14	1328.11
758.323	1319.92
758.507	1416.17
758.691	1315.82
758.875	1401.83
759.059	1326.06
759.242	1379.31
759.426	1336.3
759.61	1270.76
759.794	1250.28
759.977	1305.58
760.161	1354.73
760.345	1262.57
760.528	1297.39
760.712	1244.14
760.895	1190.89
761.079	1248.24
761.263	1221.61
761.446	1182.7
761.63	1330.16
761.813	1262.57
761.997	1223.66
762.18	1258.48
762.364	1203.18
762.547	1190.89
762.731	1145.84
762.914	1252.33
763.098	1176.56
763.281	1172.46
763.464	1170.41
763.648	1139.69
763.831	1092.59
764.015	1121.26
764.198	1049.58
764.381	1176.56
764.564	1123.31
764.748	1080.3
764.931	1178.61
765.114	1072.11
765.297	1076.21
765.481	1084.4
765.664	1123.31
765.847	1080.3
766.03	1176.56
766.213	1033.2
766.397	1012.72
766.58	1000.43
766.763	1125.36
766.946	992.24
767.129	1045.49
767.312	1076.21
767.495	1162.22
767.678	998.38
767.861	1125.36
768.044	1065.97
768.227	990.19
768.41	1049.58
768.593	990.19
768.776	1043.44
768.959	955.38
769.142	1117.17
769.324	982
769.507	990.19
769.69	1053.68
769.873	1006.58
770.056	1055.73
770.239	977.91
770.421	955.38
770.604	1031.15
770.787	920.56
770.97	1076.21
771.152	914.42
771.335	1006.58
771.518	865.27
771.7	969.71
771.883	916.47
772.066	900.08
772.248	893.94
772.431	883.7
772.613	928.75
772.796	889.84
772.978	883.7
773.161	895.99
773.343	900.08
773.526	857.07
773.708	846.84
773.891	803.83
774.073	846.84
774.256	891.89
774.438	945.14
774.621	826.36
774.803	893.94
774.985	842.74
775.168	863.22
775.35	822.26
775.532	863.22
775.715	834.55
775.897	799.73
776.079	807.92
776.261	873.46
776.444	670.71
776.626	869.36
776.808	715.77
776.99	762.87
777.173	734.2
777.355	715.77
777.537	777.2
777.719	726
777.901	703.48
778.083	797.68
778.265	699.38
778.447	683
778.629	740.34
778.811	670.71
778.993	642.04
779.175	809.97
779.357	662.52
779.539	646.13
779.721	814.07
779.903	793.59
780.085	654.33
780.267	648.18
780.449	676.85
780.631	619.51
780.812	678.9
780.994	683
781.176	662.52
781.358	592.89
781.54	639.99
781.721	670.71
781.903	623.61
782.085	574.46
782.267	627.7
782.448	629.75
782.63	576.5
782.812	627.7
782.993	613.37
783.175	662.52
783.357	631.8
783.538	564.22
783.72	537.59
783.901	506.87
784.083	627.7
784.264	594.93
784.446	523.26
784.627	510.97
784.809	527.35
784.99	527.35
785.172	603.13
785.353	525.3
785.535	592.89
785.716	492.54
785.897	461.82
786.079	447.48
786.26	556.02
786.441	506.87
786.623	408.57
786.804	515.06
786.985	500.73
787.167	541.69
787.348	439.29
787.529	429.05
787.71	488.44
787.891	500.73
788.073	465.91
788.254	461.82
788.435	490.49
788.616	467.96
788.797	416.76
788.978	482.3
789.159	418.81
789.34	451.58
789.522	443.39
789.703	422.91
789.884	375.8
790.065	445.43
790.246	482.3
790.427	353.27
790.607	439.29
790.788	447.48
790.969	424.95
791.15	478.2
791.331	424.95
791.512	461.82
791.693	437.24
791.874	422.91
792.054	420.86
792.235	328.7
792.416	381.95
792.597	308.22
792.778	377.85
792.958	363.51
793.139	398.33
793.32	343.03
793.5	338.94
793.681	427
793.862	293.88
794.042	347.13
794.223	277.5
794.404	312.32
794.584	254.97
794.765	371.71
794.945	289.79
795.126	338.94
795.306	410.62
795.487	347.13
795.667	383.99
795.848	320.51
796.028	310.27
796.209	322.56
796.389	340.99
796.57	257.02
796.75	338.94
796.93	261.12
797.111	220.16
797.291	351.23
797.471	232.44
797.652	377.85
797.832	285.69
798.012	381.95
798.192	295.93
798.373	252.92
798.553	259.07
798.733	318.46
798.913	236.54
799.093	300.03
799.274	347.13
799.454	275.45
799.634	353.27
799.814	340.99
799.994	412.67
800.174	324.6
800.354	259.07
800.534	281.6
800.714	250.88
800.894	293.88
801.074	277.5
801.254	304.12
801.434	297.98
801.614	275.45
801.794	283.64
801.974	785.4
802.154	257.02
802.334	320.51
802.514	263.16
802.693	363.51
802.873	283.64
803.053	338.94
803.233	326.65
803.413	257.02
803.592	248.83
803.772	271.36
803.952	283.64
804.131	203.77
804.311	250.88
804.491	263.16
804.67	312.32
804.85	248.83
805.03	285.69
805.209	250.88
805.389	187.39
805.568	254.97
805.748	211.96
805.928	207.87
806.107	234.49
806.287	207.87
806.466	181.25
806.646	214.01
806.825	201.72
807.004	175.1
807.184	175.1
807.363	265.21
807.543	222.2
807.722	203.77
807.901	193.53
808.081	209.92
808.26	158.72
808.439	293.88
808.619	197.63
808.798	142.33
808.977	236.54
809.156	267.26
809.336	246.78
809.515	240.64
809.694	220.16
809.873	259.07
810.052	158.72
810.231	218.11
810.411	189.44
810.59	216.06
810.769	214.01
810.948	187.39
811.127	234.49
811.306	211.96
811.485	146.43
811.664	199.68
811.843	168.96
812.022	197.63
812.201	183.29
812.38	113.66
812.559	185.34
812.737	211.96
812.916	173.05
813.095	119.81
813.274	203.77
813.453	220.16
813.632	158.72
813.811	205.82
813.989	179.2
814.168	197.63
814.347	130.05
814.526	232.44
814.704	168.96
814.883	168.96
815.062	148.48
815.24	244.73
815.419	150.53
815.598	152.57
815.776	195.58
815.955	187.39
816.133	87.04
816.312	113.66
816.49	156.67
816.669	138.24
816.847	193.53
817.026	218.11
817.204	111.61
817.383	113.66
817.561	130.05
817.74	214.01
817.918	173.05
818.097	107.52
818.275	154.62
818.453	105.47
818.632	158.72
818.81	207.87
818.988	136.19
819.167	211.96
819.345	214.01
819.523	134.14
819.701	158.72
819.879	177.15
820.058	193.53
820.236	154.62
820.414	156.67
820.592	168.96
820.77	99.33
820.948	144.38
821.127	74.75
821.305	168.96
821.483	113.66
821.661	113.66
821.839	191.49
822.017	166.91
822.195	152.57
822.373	136.19
822.551	103.42
822.729	154.62
822.907	107.52
823.085	179.2
823.262	175.1
823.44	111.61
823.618	142.33
823.796	134.14
823.974	123.9
824.152	113.66
824.329	179.2
824.507	138.24
824.685	111.61
824.863	136.19
825.04	113.66
825.218	107.52
825.396	105.47
825.574	164.86
825.751	175.1
825.929	187.39
826.107	95.23
826.284	84.99
826.462	101.37
826.639	125.95
826.817	138.24
826.994	125.95
827.172	54.27
827.349	142.33
827.527	113.66
827.704	121.85
827.882	101.37
828.059	117.76
828.237	168.96
828.414	113.66
828.591	74.75
828.769	164.86
828.946	68.61
829.124	87.04
829.301	175.1
829.478	166.91
829.655	158.72
829.833	123.9
830.01	72.7
830.187	150.53
830.364	134.14
830.542	101.37
830.719	185.34
830.896	134.14
831.073	93.18
831.25	109.57
831.427	195.58
831.604	168.96
831.782	179.2
831.959	134.14
832.136	93.18
832.313	111.61
832.49	117.76
832.667	25.6
832.844	154.62
833.021	99.33
833.198	95.23
833.374	103.42
833.551	64.51
833.728	78.85
833.905	103.42
834.082	50.18
834.259	103.42
834.436	89.09
834.612	54.27
834.789	93.18
834.966	80.89
835.143	76.8
835.319	-1.02
835.496	48.13
835.673	113.66
835.85	68.61
836.026	89.09
836.203	117.76
836.38	5.12
836.556	142.33
836.733	82.94
836.909	99.33
837.086	93.18
837.262	17.41
837.439	134.14
837.616	17.41
837.792	62.46
837.968	72.7
838.145	58.37
838.321	29.7
838.498	191.49
838.674	99.33
838.851	64.51
839.027	3.07
839.203	87.04
839.38	142.33
839.556	50.18
839.732	74.75
839.909	95.23
840.085	121.85
840.261	54.27
840.437	54.27
840.614	76.8
840.79	93.18
840.966	89.09
841.142	87.04
841.318	33.79
841.494	70.65
841.671	84.99
841.847	84.99
842.023	-7.17
842.199	33.79
842.375	148.48
842.551	9.22
842.727	66.56
842.903	80.89
843.079	136.19
843.255	62.46
843.431	72.7
843.607	117.76
843.783	66.56
843.959	5.12
844.134	62.46
844.31	113.66
844.486	66.56
844.662	19.46
844.838	54.27
845.013	87.04
845.189	74.75
845.365	68.61
845.541	95.23
845.716	39.94
845.892	89.09
846.068	31.74
846.244	91.13
846.419	115.71
846.595	19.46
846.77	35.84
846.946	31.74
847.122	56.32
847.297	68.61
847.473	56.32
847.648	54.27
847.824	48.13
847.999	-29.7
848.175	80.89
848.35	50.18
848.526	46.08
848.701	23.55
848.876	146.43
849.052	111.61
849.227	29.7
849.403	21.5
849.578	9.22
849.753	62.46
849.929	60.42
850.104	3.07
850.279	54.27
850.454	64.51
850.63	121.85
850.805	5.12
850.98	91.13
851.155	39.94
851.33	35.84
851.505	21.5
851.681	58.37
851.856	64.51
852.031	105.47
852.206	76.8
852.381	-11.26
852.556	87.04
852.731	48.13
852.906	54.27
853.081	152.57
853.256	89.09
853.431	60.42
853.606	-17.41
853.781	109.57
853.956	-7.17
854.131	7.17
854.305	-15.36
854.48	60.42
854.655	-17.41
854.83	105.47
855.005	-13.31
855.18	19.46
855.354	23.55
855.529	87.04
855.704	80.89
855.879	121.85
856.053	1.02
856.228	113.66
856.403	74.75
856.577	117.76
856.752	39.94
856.926	5.12
857.101	1.02
857.276	44.03
857.45	46.08
857.625	-7.17
857.799	9.22
857.974	101.37
858.148	-17.41
858.323	23.55
858.497	33.79
858.672	23.55
858.846	7.17
859.02	48.13
859.195	-33.79
859.369	78.85
859.543	5.12
859.718	125.95
859.892	80.89
860.066	-3.07
860.241	68.61
860.415	-68.61
860.589	80.89
860.763	-17.41
860.938	76.8
861.112	70.65
861.286	-29.7
861.46	64.51
861.634	7.17
861.808	39.94
861.982	23.55
862.157	-13.31
862.331	-29.7
862.505	44.03
862.679	-1.02
862.853	44.03
863.027	19.46
863.201	33.79
863.375	11.26
863.549	35.84
863.722	48.13
863.896	-25.6
864.07	7.17
864.244	54.27
864.418	33.79
864.592	-11.26
864.766	97.28
864.939	-27.65
865.113	48.13
865.287	140.29
865.461	52.22
865.634	-1.02
865.808	-29.7
865.982	50.18
866.156	66.56
866.329	-9.22
866.503	56.32
866.676	64.51
866.85	3.07
867.024	-3.07
867.197	89.09
867.371	62.46
867.544	23.55
867.718	11.26
867.891	15.36
868.065	-62.46
868.238	15.36
868.412	56.32
868.585	7.17
868.759	-25.6
868.932	7.17
869.105	33.79
869.279	39.94
869.452	15.36
869.625	99.33
869.799	35.84
869.972	-9.22
870.145	-13.31
870.319	39.94
870.492	44.03
870.665	29.7
870.838	-7.17
871.011	44.03
871.185	5.12
871.358	-41.98
871.531	103.42
871.704	-11.26
871.877	44.03
872.05	11.26
872.223	-5.12
872.396	60.42
872.569	39.94
872.742	-44.03
872.915	56.32
873.088	-70.65
873.261	72.7
873.434	9.22
873.607	50.18
873.78	-21.5
873.953	29.7
874.126	15.36
874.299	78.85
874.471	-35.84
874.644	68.61
874.817	132.09
874.99	93.18
875.163	58.37
875.335	60.42
875.508	-23.55
875.681	-33.79
875.853	-44.03
876.026	1.02
876.199	13.31
876.371	29.7
876.544	19.46
876.717	5.12
876.889	-62.46
877.062	89.09
877.234	-62.46
877.407	54.27
877.579	-41.98
877.752	15.36
877.924	11.26
878.097	33.79
878.269	46.08
878.442	66.56
878.614	56.32
878.786	11.26
878.959	-9.22
879.131	15.36
879.303	-17.41
879.476	-1.02
879.648	37.89
879.82	-7.17
879.993	-56.32
880.165	70.65
880.337	11.26
880.509	70.65
880.681	-27.65
880.854	84.99
881.026	56.32
881.198	56.32
881.37	19.46
881.542	56.32
881.714	-17.41
881.886	52.22
882.058	-9.22
882.23	-35.84
882.402	48.13
882.574	31.74
882.746	7.17
882.918	-13.31
883.09	70.65
883.262	3.07
883.434	15.36
883.606	72.7
883.778	-37.89
883.95	19.46
884.122	15.36
884.293	-13.31
884.465	-3.07
884.637	41.98
884.809	97.28
884.98	70.65
885.152	-5.12
885.324	-1.02
885.496	41.98
885.667	3.07
885.839	74.75
886.011	64.51
886.182	46.08
886.354	76.8
886.525	13.31
886.697	17.41
886.869	23.55
887.04	-25.6
887.212	48.13
887.383	60.42
887.555	3.07
887.726	35.84
887.897	60.42
888.069	-13.31
888.24	64.51
888.412	-27.65
888.583	-7.17
888.754	-19.46
888.926	-37.89
889.097	23.55
889.268	21.5
889.44	-35.84
889.611	9.22
889.782	-58.37
889.953	-33.79
890.125	48.13
890.296	-15.36
890.467	-62.46
890.638	-78.85
890.809	37.89
890.98	29.7
891.151	11.26
891.323	37.89
891.494	58.37
891.665	31.74
891.836	105.47
892.007	-11.26
892.178	-9.22
892.349	-23.55
892.52	-1.02
892.691	-9.22
892.862	-9.22
893.032	-48.13
893.203	-5.12
893.374	15.36
893.545	41.98
893.716	-7.17
893.887	62.46
894.057	27.65
894.228	23.55
894.399	-1.02
894.57	31.74
894.74	5.12
894.911	72.7
895.082	7.17
895.253	-23.55
895.423	-17.41
895.594	89.09
895.764	52.22
895.935	-21.5
896.106	91.13
896.276	13.31
896.447	-46.08
896.617	-25.6
896.788	17.41
896.958	60.42
897.129	9.22
897.299	11.26
897.47	52.22
897.64	23.55
897.81	1.02
897.981	3.07
898.151	87.04
898.322	76.8
898.492	7.17
898.662	23.55
898.832	23.55
899.003	-17.41
899.173	15.36
899.343	29.7
899.513	-54.27
