Data from USB4F104151__284__10-42-10-423.txt Node

Date: Wed Mar 12 10:42:10 EDT 2025
User: louis
Spectrometer: USB4F10415
Trigger mode: 4
Integration Time (sec): 3.000000E-2
Scans to average: 1
Electric dark correction enabled: true
Nonlinearity correction enabled: false
Boxcar width: 0
XAxis mode: Wavelengths
Number of Pixels in Spectrum: 3648
>>>>>Begin Spectral Data<<<<<
178.204	-66.05
178.424	-66.05
178.644	-66.05
178.864	-162.3
179.084	-137.73
179.304	75.26
179.524	-29.18
179.744	-86.53
179.964	-12.8
180.184	-14.85
180.404	-4.61
180.624	15.87
180.844	17.92
181.064	36.35
181.283	5.63
181.503	-29.18
181.723	26.11
181.943	-39.42
182.163	19.97
182.383	26.11
182.602	19.97
182.822	-6.66
183.042	32.26
183.262	-49.66
183.482	-49.66
183.701	-35.33
183.921	19.97
184.141	-33.28
184.361	108.03
184.58	-53.76
184.8	-4.61
185.02	19.97
185.239	15.87
185.459	-4.61
185.679	13.82
185.898	-4.61
186.118	67.07
186.338	54.78
186.557	3.58
186.777	-53.76
186.997	62.98
187.216	44.54
187.436	13.82
187.655	60.93
187.875	71.17
188.095	1.54
188.314	48.64
188.534	60.93
188.753	46.59
188.973	85.5
189.192	-0.51
189.412	22.02
189.631	-4.61
189.851	30.21
190.07	62.98
190.29	3.58
190.509	11.78
190.729	24.06
190.948	77.31
191.168	161.28
191.387	97.79
191.607	91.65
191.826	30.21
192.045	-8.7
192.265	-33.28
192.484	-20.99
192.704	34.3
192.923	-14.85
193.142	54.78
193.362	44.54
193.581	73.21
193.8	11.78
194.02	-4.61
194.239	-16.9
194.458	110.08
194.678	19.97
194.897	-53.76
195.116	-35.33
195.335	13.82
195.555	28.16
195.774	-2.56
195.993	77.31
196.212	62.98
196.432	34.3
196.651	-29.18
196.87	-0.51
197.089	54.78
197.308	58.88
197.528	54.78
197.747	-20.99
197.966	50.69
198.185	17.92
198.404	13.82
198.623	99.84
198.842	38.4
199.062	38.4
199.281	28.16
199.5	5.63
199.719	-8.7
199.938	-23.04
200.157	108.03
200.376	48.64
200.595	19.97
200.814	34.3
201.033	26.11
201.252	118.27
201.471	28.16
201.69	69.12
201.909	13.82
202.128	85.5
202.347	77.31
202.566	38.4
202.785	40.45
203.004	-72.19
203.223	69.12
203.442	5.63
203.661	-33.28
203.879	36.35
204.098	44.54
204.317	3.58
204.536	-14.85
204.755	89.6
204.974	44.54
205.193	24.06
205.411	56.83
205.63	40.45
205.849	50.69
206.068	17.92
206.287	11.78
206.505	56.83
206.724	-8.7
206.943	36.35
207.162	-47.62
207.381	75.26
207.599	19.97
207.818	36.35
208.037	28.16
208.255	34.3
208.474	-33.28
208.693	95.74
208.911	28.16
209.13	22.02
209.349	15.87
209.567	-16.9
209.786	28.16
210.005	24.06
210.223	56.83
210.442	7.68
210.661	77.31
210.879	52.74
211.098	-0.51
211.316	28.16
211.535	-23.04
211.753	34.3
211.972	-41.47
212.191	97.79
212.409	36.35
212.628	79.36
212.846	-43.52
213.065	101.89
213.283	48.64
213.502	9.73
213.72	44.54
213.938	89.6
214.157	-4.61
214.375	75.26
214.594	89.6
214.812	40.45
215.031	32.26
215.249	15.87
215.467	1.54
215.686	-10.75
215.904	108.03
216.122	-14.85
216.341	44.54
216.559	-35.33
216.778	103.93
216.996	38.4
217.214	-29.18
217.432	7.68
217.651	38.4
217.869	-16.9
218.087	79.36
218.306	-20.99
218.524	22.02
218.742	-39.42
218.96	48.64
219.179	69.12
219.397	58.88
219.615	79.36
219.833	3.58
220.051	69.12
220.27	65.02
220.488	48.64
220.706	32.26
220.924	-0.51
221.142	7.68
221.36	1.54
221.578	22.02
221.796	-10.75
222.015	7.68
222.233	75.26
222.451	56.83
222.669	67.07
222.887	36.35
223.105	5.63
223.323	52.74
223.541	-12.8
223.759	48.64
223.977	1.54
224.195	46.59
224.413	85.5
224.631	-43.52
224.849	7.68
225.067	-16.9
225.285	-53.76
225.503	-57.86
225.721	-18.94
225.939	-45.57
226.157	32.26
226.375	40.45
226.592	24.06
226.81	-37.38
227.028	9.73
227.246	69.12
227.464	-4.61
227.682	58.88
227.9	11.78
228.117	97.79
228.335	34.3
228.553	-20.99
228.771	26.11
228.989	52.74
229.206	71.17
229.424	-27.14
229.642	-25.09
229.86	-0.51
230.077	83.45
230.295	11.78
230.513	-20.99
230.731	77.31
230.948	110.08
231.166	3.58
231.384	44.54
231.601	-55.81
231.819	-14.85
232.037	50.69
232.254	11.78
232.472	32.26
232.689	-43.52
232.907	81.41
233.125	-23.04
233.342	5.63
233.56	-20.99
233.777	-39.42
233.995	77.31
234.213	77.31
234.43	89.6
234.648	65.02
234.865	52.74
235.083	60.93
235.3	-18.94
235.518	40.45
235.735	83.45
235.953	71.17
236.17	85.5
236.388	97.79
236.605	24.06
236.822	81.41
237.04	7.68
237.257	-31.23
237.475	38.4
237.692	48.64
237.909	71.17
238.127	-41.47
238.344	48.64
238.562	99.84
238.779	-12.8
238.996	-45.57
239.214	-4.61
239.431	95.74
239.648	-6.66
239.865	26.11
240.083	32.26
240.3	-104.96
240.517	19.97
240.735	11.78
240.952	54.78
241.169	77.31
241.386	28.16
241.603	-59.9
241.821	24.06
242.038	38.4
242.255	91.65
242.472	48.64
242.689	40.45
242.907	48.64
243.124	-12.8
243.341	28.16
243.558	-72.19
243.775	36.35
243.992	-6.66
244.209	-20.99
244.426	116.22
244.643	-0.51
244.86	52.74
245.078	42.5
245.295	-0.51
245.512	-0.51
245.729	-10.75
245.946	17.92
246.163	17.92
246.38	87.55
246.597	-25.09
246.814	-35.33
247.031	83.45
247.248	46.59
247.464	108.03
247.681	67.07
247.898	65.02
248.115	48.64
248.332	15.87
248.549	15.87
248.766	77.31
248.983	-4.61
249.2	28.16
249.417	65.02
249.633	56.83
249.85	44.54
250.067	50.69
250.284	69.12
250.501	101.89
250.717	24.06
250.934	54.78
251.151	56.83
251.368	48.64
251.585	93.69
251.801	52.74
252.018	26.11
252.235	44.54
252.451	-55.81
252.668	60.93
252.885	17.92
253.102	48.64
253.318	-2.56
253.535	3.58
253.752	69.12
253.968	69.12
254.185	-20.99
254.401	-4.61
254.618	11.78
254.835	7.68
255.051	85.5
255.268	11.78
255.484	13.82
255.701	62.98
255.917	28.16
256.134	-8.7
256.351	40.45
256.567	30.21
256.784	38.4
257	-70.14
257.217	-51.71
257.433	26.11
257.65	54.78
257.866	-8.7
258.082	28.16
258.299	52.74
258.515	9.73
258.732	3.58
258.948	11.78
259.165	38.4
259.381	-12.8
259.597	32.26
259.814	28.16
260.03	17.92
260.246	50.69
260.463	50.69
260.679	22.02
260.895	19.97
261.112	5.63
261.328	3.58
261.544	-14.85
261.761	48.64
261.977	15.87
262.193	-37.38
262.409	62.98
262.626	93.69
262.842	38.4
263.058	65.02
263.274	108.03
263.49	34.3
263.707	118.27
263.923	50.69
264.139	-20.99
264.355	52.74
264.571	19.97
264.787	58.88
265.004	103.93
265.22	32.26
265.436	15.87
265.652	7.68
265.868	48.64
266.084	3.58
266.3	11.78
266.516	13.82
266.732	34.3
266.948	-64
267.164	48.64
267.38	26.11
267.596	24.06
267.812	65.02
268.028	15.87
268.244	-8.7
268.46	89.6
268.676	58.88
268.892	-10.75
269.108	48.64
269.324	-16.9
269.54	56.83
269.756	38.4
269.972	-0.51
270.188	42.5
270.403	7.68
270.619	73.21
270.835	15.87
271.051	71.17
271.267	-78.33
271.483	79.36
271.698	36.35
271.914	-14.85
272.13	60.93
272.346	50.69
272.562	-49.66
272.777	75.26
272.993	22.02
273.209	9.73
273.425	-14.85
273.64	71.17
273.856	24.06
274.072	34.3
274.287	34.3
274.503	73.21
274.719	118.27
274.934	15.87
275.15	15.87
275.366	77.31
275.581	-29.18
275.797	91.65
276.012	26.11
276.228	9.73
276.444	42.5
276.659	28.16
276.875	7.68
277.09	-59.9
277.306	30.21
277.521	5.63
277.737	60.93
277.952	77.31
278.168	15.87
278.383	-6.66
278.599	3.58
278.814	24.06
279.03	-33.28
279.245	79.36
279.461	-16.9
279.676	77.31
279.892	-16.9
280.107	83.45
280.322	56.83
280.538	50.69
280.753	46.59
280.969	56.83
281.184	-27.14
281.399	44.54
281.615	19.97
281.83	24.06
282.045	-20.99
282.26	62.98
282.476	36.35
282.691	62.98
282.906	11.78
283.122	60.93
283.337	-35.33
283.552	56.83
283.767	-57.86
283.983	62.98
284.198	67.07
284.413	15.87
284.628	-27.14
284.843	26.11
285.058	11.78
285.274	54.78
285.489	17.92
285.704	-25.09
285.919	-37.38
286.134	38.4
286.349	60.93
286.564	-41.47
286.779	-2.56
286.995	7.68
287.21	5.63
287.425	56.83
287.64	32.26
287.855	19.97
288.07	54.78
288.285	50.69
288.5	24.06
288.715	134.65
288.93	1.54
289.145	71.17
289.36	15.87
289.575	38.4
289.79	34.3
290.004	110.08
290.219	134.65
290.434	75.26
290.649	34.3
290.864	15.87
291.079	50.69
291.294	-4.61
291.509	32.26
291.724	1.54
291.938	-29.18
292.153	-0.51
292.368	-25.09
292.583	81.41
292.798	36.35
293.012	28.16
293.227	19.97
293.442	36.35
293.657	28.16
293.871	83.45
294.086	15.87
294.301	85.5
294.516	75.26
294.73	99.84
294.945	-68.09
295.16	40.45
295.374	73.21
295.589	34.3
295.804	-33.28
296.018	89.6
296.233	58.88
296.447	40.45
296.662	24.06
296.877	34.3
297.091	85.5
297.306	-37.38
297.52	22.02
297.735	-8.7
297.949	-12.8
298.164	9.73
298.378	77.31
298.593	-2.56
298.807	83.45
299.022	48.64
299.236	85.5
299.451	58.88
299.665	46.59
299.88	54.78
300.094	-41.47
300.309	19.97
300.523	15.87
300.737	17.92
300.952	69.12
301.166	-33.28
301.381	9.73
301.595	-8.7
301.809	13.82
302.024	26.11
302.238	17.92
302.452	99.84
302.667	1.54
302.881	89.6
303.095	87.55
303.309	-20.99
303.524	-6.66
303.738	34.3
303.952	-29.18
304.166	89.6
304.381	50.69
304.595	36.35
304.809	11.78
305.023	110.08
305.237	-2.56
305.452	32.26
305.666	56.83
305.88	9.73
306.094	22.02
306.308	11.78
306.522	48.64
306.736	85.5
306.95	36.35
307.164	-29.18
307.379	24.06
307.593	28.16
307.807	28.16
308.021	32.26
308.235	-12.8
308.449	1.54
308.663	93.69
308.877	146.94
309.091	7.68
309.305	36.35
309.519	-41.47
309.733	56.83
309.947	-8.7
310.161	32.26
310.374	36.35
310.588	28.16
310.802	11.78
311.016	26.11
311.23	5.63
311.444	17.92
311.658	-16.9
311.872	83.45
312.085	130.56
312.299	91.65
312.513	48.64
312.727	19.97
312.941	97.79
313.154	89.6
313.368	42.5
313.582	26.11
313.796	28.16
314.009	26.11
314.223	24.06
314.437	-16.9
314.651	50.69
314.864	9.73
315.078	-0.51
315.292	44.54
315.505	38.4
315.719	105.98
315.933	-12.8
316.146	58.88
316.36	52.74
316.573	73.21
316.787	83.45
317.001	101.89
317.214	-6.66
317.428	-10.75
317.641	-14.85
317.855	1.54
318.068	65.02
318.282	73.21
318.495	79.36
318.709	91.65
318.922	-0.51
319.136	50.69
319.349	65.02
319.563	38.4
319.776	-0.51
319.99	32.26
320.203	69.12
320.417	11.78
320.63	34.3
320.843	153.09
321.057	120.32
321.27	71.17
321.483	81.41
321.697	40.45
321.91	83.45
322.124	-2.56
322.337	-23.04
322.55	75.26
322.763	28.16
322.977	30.21
323.19	-20.99
323.403	19.97
323.617	34.3
323.83	67.07
324.043	56.83
324.256	13.82
324.469	40.45
324.683	71.17
324.896	1.54
325.109	28.16
325.322	-37.38
325.535	48.64
325.748	28.16
325.962	5.63
326.175	38.4
326.388	81.41
326.601	85.5
326.814	73.21
327.027	69.12
327.24	101.89
327.453	7.68
327.666	17.92
327.879	67.07
328.092	69.12
328.305	28.16
328.518	89.6
328.731	77.31
328.944	73.21
329.157	118.27
329.37	44.54
329.583	148.99
329.796	40.45
330.009	-0.51
330.222	44.54
330.435	65.02
330.648	50.69
330.861	-0.51
331.073	69.12
331.286	26.11
331.499	48.64
331.712	17.92
331.925	42.5
332.138	1.54
332.35	75.26
332.563	32.26
332.776	32.26
332.989	5.63
333.202	50.69
333.414	34.3
333.627	50.69
333.84	32.26
334.053	87.55
334.265	46.59
334.478	-25.09
334.691	77.31
334.903	-27.14
335.116	-0.51
335.329	9.73
335.541	-14.85
335.754	103.93
335.966	-14.85
336.179	3.58
336.392	-47.62
336.604	65.02
336.817	44.54
337.029	-6.66
337.242	-20.99
337.454	30.21
337.667	85.5
337.88	69.12
338.092	-39.42
338.305	42.5
338.517	65.02
338.729	79.36
338.942	44.54
339.154	28.16
339.367	13.82
339.579	44.54
339.792	87.55
340.004	65.02
340.217	19.97
340.429	69.12
340.641	-33.28
340.854	65.02
341.066	54.78
341.278	87.55
341.491	52.74
341.703	-10.75
341.915	1.54
342.128	79.36
342.34	-0.51
342.552	-0.51
342.764	52.74
342.977	83.45
343.189	28.16
343.401	116.22
343.613	44.54
343.826	75.26
344.038	42.5
344.25	-12.8
344.462	44.54
344.674	65.02
344.886	85.5
345.099	101.89
345.311	-25.09
345.523	69.12
345.735	40.45
345.947	11.78
346.159	50.69
346.371	58.88
346.583	30.21
346.795	17.92
347.007	73.21
347.219	105.98
347.431	42.5
347.643	69.12
347.855	-18.94
348.067	91.65
348.279	-2.56
348.491	56.83
348.703	-12.8
348.915	65.02
349.127	1.54
349.339	-16.9
349.551	-57.86
349.763	54.78
349.975	54.78
350.187	87.55
350.399	62.98
350.61	103.93
350.822	7.68
351.034	62.98
351.246	13.82
351.458	77.31
351.669	9.73
351.881	87.55
352.093	42.5
352.305	9.73
352.517	44.54
352.728	93.69
352.94	54.78
353.152	32.26
353.363	30.21
353.575	7.68
353.787	118.27
353.999	71.17
354.21	71.17
354.422	24.06
354.633	3.58
354.845	91.65
355.057	32.26
355.268	91.65
355.48	75.26
355.692	34.3
355.903	17.92
356.115	-16.9
356.326	1.54
356.538	65.02
356.749	24.06
356.961	71.17
357.172	17.92
357.384	32.26
357.595	85.5
357.807	-31.23
358.018	19.97
358.23	-10.75
358.441	56.83
358.653	-16.9
358.864	56.83
359.075	24.06
359.287	81.41
359.498	83.45
359.709	79.36
359.921	15.87
360.132	-2.56
360.344	-27.14
360.555	36.35
360.766	13.82
360.977	9.73
361.189	77.31
361.4	28.16
361.611	120.32
361.823	28.16
362.034	42.5
362.245	-23.04
362.456	-23.04
362.667	17.92
362.879	19.97
363.09	-12.8
363.301	5.63
363.512	50.69
363.723	-33.28
363.935	24.06
364.146	-25.09
364.357	87.55
364.568	54.78
364.779	91.65
364.99	34.3
365.201	36.35
365.412	19.97
365.623	-29.18
365.834	126.46
366.045	36.35
366.256	19.97
366.467	48.64
366.678	50.69
366.889	69.12
367.1	19.97
367.311	126.46
367.522	36.35
367.733	77.31
367.944	77.31
368.155	28.16
368.366	46.59
368.577	146.94
368.788	71.17
368.999	-6.66
369.209	48.64
369.42	140.8
369.631	105.98
369.842	44.54
370.053	50.69
370.264	56.83
370.474	11.78
370.685	89.6
370.896	15.87
371.107	75.26
371.317	17.92
371.528	-33.28
371.739	108.03
371.95	97.79
372.16	75.26
372.371	65.02
372.582	48.64
372.792	50.69
373.003	34.3
373.214	-41.47
373.424	54.78
373.635	105.98
373.846	87.55
374.056	93.69
374.267	60.93
374.477	26.11
374.688	30.21
374.898	11.78
375.109	138.75
375.319	22.02
375.53	69.12
375.74	114.17
375.951	15.87
376.161	40.45
376.372	132.61
376.582	24.06
376.793	89.6
377.003	91.65
377.214	48.64
377.424	73.21
377.635	71.17
377.845	65.02
378.055	101.89
378.266	-12.8
378.476	32.26
378.686	146.94
378.897	65.02
379.107	1.54
379.317	73.21
379.528	79.36
379.738	60.93
379.948	58.88
380.158	67.07
380.369	36.35
380.579	44.54
380.789	15.87
380.999	124.41
381.21	93.69
381.42	112.13
381.63	17.92
381.84	46.59
382.05	105.98
382.261	54.78
382.471	81.41
382.681	130.56
382.891	65.02
383.101	13.82
383.311	67.07
383.521	58.88
383.731	69.12
383.941	65.02
384.151	62.98
384.361	75.26
384.571	110.08
384.781	103.93
384.991	62.98
385.201	134.65
385.411	169.47
385.621	108.03
385.831	65.02
386.041	73.21
386.251	-2.56
386.461	79.36
386.671	9.73
386.881	58.88
387.091	52.74
387.301	58.88
387.511	58.88
387.72	50.69
387.93	44.54
388.14	112.13
388.35	60.93
388.56	69.12
388.769	136.7
388.979	81.41
389.189	9.73
389.399	130.56
389.609	-14.85
389.818	175.61
390.028	69.12
390.238	163.33
390.447	120.32
390.657	73.21
390.867	15.87
391.076	81.41
391.286	148.99
391.496	50.69
391.705	93.69
391.915	91.65
392.125	89.6
392.334	65.02
392.544	120.32
392.753	169.47
392.963	36.35
393.172	15.87
393.382	38.4
393.591	97.79
393.801	79.36
394.01	1.54
394.22	124.41
394.429	101.89
394.639	60.93
394.848	118.27
395.058	65.02
395.267	52.74
395.477	58.88
395.686	134.65
395.895	134.65
396.105	163.33
396.314	99.84
396.524	81.41
396.733	44.54
396.942	144.89
397.152	40.45
397.361	169.47
397.57	126.46
397.78	130.56
397.989	101.89
398.198	136.7
398.407	75.26
398.617	71.17
398.826	114.17
399.035	85.5
399.244	204.28
399.453	126.46
399.663	105.98
399.872	189.95
400.081	93.69
400.29	169.47
400.499	13.82
400.708	114.17
400.917	34.3
401.127	151.04
401.336	105.98
401.545	196.09
401.754	142.85
401.963	114.17
402.172	175.61
402.381	148.99
402.59	126.46
402.799	159.23
403.008	118.27
403.217	148.99
403.426	220.67
403.635	130.56
403.844	179.71
404.053	108.03
404.262	118.27
404.471	232.96
404.68	128.51
404.888	183.81
405.097	183.81
405.306	171.52
405.515	126.46
405.724	126.46
405.933	245.24
406.142	175.61
406.35	212.48
406.559	83.45
406.768	226.81
406.977	271.87
407.185	253.44
407.394	228.86
407.603	228.86
407.812	267.77
408.02	226.81
408.229	208.38
408.438	323.07
408.646	216.57
408.855	216.57
409.064	310.78
409.272	333.31
409.481	269.82
409.69	341.5
409.898	288.25
410.107	351.74
410.315	339.45
410.524	321.02
410.733	378.36
410.941	443.9
411.15	480.76
411.358	380.41
411.567	478.71
411.775	525.82
411.984	394.75
412.192	509.43
412.401	630.26
412.609	527.86
412.818	546.3
413.026	542.2
413.234	628.21
413.443	587.26
413.651	568.82
413.86	648.69
414.068	667.13
414.276	732.66
414.485	697.85
414.693	738.8
414.901	839.16
415.11	830.96
415.318	742.9
415.526	884.21
415.734	914.93
415.943	951.79
416.151	994.8
416.359	1033.71
416.567	974.32
416.776	1086.96
416.984	1080.82
417.192	1127.92
417.4	1140.21
417.608	1232.37
417.817	1324.52
418.025	1269.23
418.233	1392.11
418.441	1406.44
418.649	1426.92
418.857	1508.84
419.065	1603.05
419.273	1541.61
419.481	1578.47
419.689	1732.07
419.897	1748.45
420.105	1850.85
420.313	1750.5
420.521	1867.24
420.729	1975.78
420.937	2080.22
421.145	2035.17
421.353	2100.7
421.561	2280.93
421.769	2373.08
421.977	2414.04
422.185	2428.38
422.393	2631.13
422.601	2794.97
422.809	2741.72
423.017	2794.97
423.224	2827.73
423.432	2911.7
423.64	3059.15
423.848	3352.01
424.056	3151.31
424.263	3472.84
424.471	3382.73
424.679	3483.08
424.887	3659.21
425.094	3808.71
425.302	3835.33
425.51	3956.16
425.718	4066.75
425.925	4089.28
426.133	4394.43
426.341	4545.98
426.548	4748.73
426.756	4740.54
426.964	4797.88
427.171	5129.65
427.379	5189.04
427.586	5258.67
427.794	5463.47
428.001	5688.75
428.209	5987.75
428.417	5873.06
428.624	6305.18
428.832	6294.94
429.039	6331.81
429.247	6280.61
429.454	6886.81
429.662	7372.18
429.869	7036.31
430.076	7349.65
430.284	7169.43
430.491	7456.14
430.699	7867.78
430.906	7949.7
431.114	7814.54
431.321	8355.2
431.528	8564.09
431.736	9049.46
431.943	9565.55
432.15	9141.62
432.358	9301.36
432.565	9743.72
432.772	9665.9
432.979	9930.09
433.187	10165.6
433.394	10384.74
433.601	11013.46
433.808	11099.48
434.016	11142.49
434.223	11687.25
434.43	12338.5
434.637	11953.48
434.844	12725.57
435.052	13028.67
435.259	13010.23
435.466	13092.15
435.673	12832.06
435.88	13776.17
436.087	14632.22
436.294	14583.07
436.501	14142.76
436.708	14185.77
436.915	14978.33
437.122	15873.29
437.329	15627.54
437.537	16135.43
437.743	16231.69
437.95	16395.53
438.157	17065.21
438.364	17472.76
438.571	17749.23
438.778	17515.76
438.985	19205.34
439.192	18654.44
439.399	19342.55
439.606	18533.61
439.813	19721.43
440.02	20974.78
440.227	20661.44
440.433	20389.06
440.64	21314.75
440.847	20958.4
441.054	21447.86
441.261	22879.39
441.467	22607.02
441.674	22973.6
441.881	23856.28
442.088	23637.14
442.294	23489.69
442.501	24558.73
442.708	24548.49
442.914	25957.49
443.121	26997.86
443.328	26113.14
443.534	28034.13
443.741	27196.51
443.948	27028.58
444.154	28982.34
444.361	28550.22
444.568	28961.86
444.774	28765.26
444.981	29031.49
445.187	29918.26
445.394	31286.31
445.6	30927.91
445.807	33760.25
446.013	32418.83
446.22	33078.28
446.426	34231.29
446.633	34190.33
446.839	35138.54
447.046	34069.5
447.252	35757.02
447.459	35976.16
447.665	35677.15
447.871	37098.44
448.078	38779.82
448.284	36852.69
448.491	38083.51
448.697	39177.13
448.903	39857.06
449.11	39883.68
449.316	39195.56
449.522	40149.92
449.728	40977.29
449.935	41233.29
450.141	41448.33
450.347	42101.63
450.553	40729.49
450.76	41237.39
450.966	42400.63
451.172	42271.61
451.378	42808.18
451.584	42089.34
451.791	43185.01
451.997	42648.44
452.203	43670.37
452.409	43664.23
452.615	43203.44
452.821	41743.24
453.027	41591.69
453.233	43508.58
453.44	41333.64
453.646	41712.52
453.852	42382.2
454.058	42742.64
454.264	41038.73
454.47	42185.6
454.676	41382.79
454.882	42517.37
455.088	38900.65
455.294	39162.79
455.5	40039.33
455.705	40457.11
455.911	38513.59
456.117	37594.05
456.323	37407.69
456.529	35226.6
456.735	36578.26
456.941	36242.39
457.147	35292.13
457.352	33930.23
457.558	33541.12
457.764	33713.15
457.97	33137.67
458.176	32392.21
458.381	32166.93
458.587	30938.15
458.793	30286.9
458.999	29080.64
459.204	31175.72
459.41	30440.5
459.616	28478.54
459.821	28468.3
460.027	28247.12
460.233	27681.88
460.438	26238.06
460.644	26776.68
460.85	25640.06
461.055	24929.41
461.261	25291.9
461.466	23037.09
461.672	22391.98
461.878	24325.26
462.083	22607.02
462.289	22164.65
462.494	21875.89
462.7	20946.11
462.905	20606.15
463.111	21218.49
463.316	21046.46
463.522	20671.68
463.727	21005.5
463.932	20751.56
464.138	20341.96
464.343	20749.51
464.549	19893.46
464.754	20591.81
464.959	20618.44
465.165	20638.92
465.37	19567.83
465.575	19041.5
465.781	20012.24
465.986	20131.02
466.191	19512.53
466.397	19107.04
466.602	18199.79
466.807	18687.2
467.012	18853.09
467.218	18619.62
467.423	18509.03
467.628	18519.27
467.833	19432.66
468.038	18466.02
468.244	18113.77
468.449	18703.59
468.654	18070.76
468.859	18253.03
469.064	17923.31
469.269	17163.51
469.474	17372.41
469.679	17620.21
469.885	17605.88
470.09	17495.29
470.295	17323.26
470.5	16835.84
470.705	17040.64
470.91	16364.81
471.115	16446.73
471.32	16993.53
471.525	16545.03
471.73	15803.66
471.935	16432.39
472.139	15676.69
472.344	15662.35
472.549	15965.45
472.754	15512.85
472.959	15392.02
473.164	14638.37
473.369	14886.17
473.574	15211.8
473.778	15136.03
473.983	14847.26
474.188	14992.67
474.393	14331.17
474.598	14394.66
474.802	14175.53
475.007	14050.6
475.212	14071.08
475.417	13520.18
475.621	13784.37
475.826	13626.67
476.031	13389.11
476.235	12911.93
476.44	13311.28
476.645	12897.6
476.849	13129.02
477.054	12983.61
477.259	12518.72
477.463	12852.54
477.668	12565.82
477.872	12602.69
478.077	12358.98
478.282	12152.13
478.486	11928.91
478.691	12004.68
478.895	11896.14
479.1	11787.6
479.304	11990.35
479.509	11472.21
479.713	11842.89
479.918	11373.91
480.122	11251.03
480.326	11515.22
480.531	11566.42
480.735	11251.03
480.94	11267.41
481.144	11799.88
481.348	11236.69
481.553	11230.55
481.757	11253.08
481.961	11197.78
482.166	11453.78
482.37	11224.4
482.574	10904.92
482.778	11216.21
482.983	11277.65
483.187	11046.23
483.391	11191.64
483.595	11179.35
483.8	10841.43
484.004	11165.01
484.208	11289.94
484.412	11195.73
484.616	11154.77
484.821	11281.75
485.025	11083.09
485.229	11197.78
485.433	11091.29
485.637	11076.95
485.841	10925.4
486.045	10833.24
486.249	11103.57
486.453	11128.15
486.657	11113.81
486.861	11103.57
487.065	10706.27
487.269	11070.81
487.473	10884.44
487.677	11203.93
487.881	11382.1
488.085	11242.84
488.289	11355.47
488.493	11058.52
488.697	11283.8
488.901	11076.95
489.105	11214.16
489.309	11306.32
489.512	11382.1
489.716	11410.77
489.92	11382.1
490.124	11261.27
490.328	11484.5
490.531	11146.58
490.735	11562.32
490.939	11590.99
491.143	11609.42
491.346	11547.98
491.55	11533.65
491.754	11857.23
491.958	11636.05
492.161	11658.57
492.365	11767.12
492.569	11838.8
492.772	11867.47
492.976	11998.54
493.18	11867.47
493.383	12455.23
493.587	12332.36
493.79	12422.47
493.994	12209.48
494.197	12227.91
494.401	12752.19
494.605	12582.21
494.808	12924.22
495.012	12784.96
495.215	12895.55
495.419	13073.72
495.622	12973.37
495.825	13301.05
496.029	13157.69
496.232	13354.29
496.436	13571.38
496.639	13571.38
496.843	13493.55
497.046	14056.75
497.249	14200.1
497.453	14241.06
497.656	14044.46
497.859	14312.74
498.063	14388.52
498.266	14843.17
498.469	14589.22
498.673	15047.96
498.876	15136.03
499.079	15394.07
499.282	15392.02
499.485	15736.08
499.689	15541.52
499.892	16076.04
500.095	16010.51
500.298	16674.05
500.501	16383.24
500.705	16854.27
500.908	16710.91
501.111	17071.36
501.314	17306.87
501.517	17210.62
501.72	17585.4
501.923	17560.82
502.126	17872.11
502.329	18203.88
502.532	18134.25
502.735	18277.61
502.938	18693.35
503.141	18859.23
503.344	19145.95
503.547	18971.87
503.75	19592.41
503.953	19729.62
504.156	20040.91
504.359	19989.71
504.562	20260.04
504.765	20722.88
504.968	20626.63
505.17	20790.47
505.373	21109.95
505.576	21480.63
505.779	21789.88
505.982	22129.84
506.185	22250.67
506.387	22351.02
506.59	22488.23
506.793	22797.48
506.996	23100.58
507.198	23573.66
507.401	23319.71
507.604	23657.62
507.807	24188.05
508.009	24161.42
508.212	24632.46
508.415	24966.28
508.617	25015.43
508.82	25205.89
509.022	25083.01
509.225	25750.65
509.428	25982.07
509.63	26092.66
509.833	26061.94
510.035	27202.66
510.238	26811.49
510.44	27196.51
510.643	27593.82
510.845	27866.2
511.048	27692.12
511.25	28025.94
511.453	28200.02
511.655	29060.16
511.858	28771.4
512.06	29291.59
512.262	29611.07
512.465	29523.01
512.667	29957.17
512.87	30192.69
513.072	30356.53
513.274	31167.52
513.477	31341.6
513.679	31384.61
513.881	31630.37
514.084	32144.41
514.286	31917.08
514.488	32236.56
514.69	33143.81
514.893	33149.96
515.095	33297.41
515.297	33817.6
515.499	33655.81
515.701	34296.82
515.904	34563.06
516.106	34792.43
516.308	34903.02
516.51	35353.57
516.712	35498.98
516.914	36115.42
517.116	36150.23
517.318	36506.58
517.52	36651.98
517.722	36879.31
517.925	37026.76
518.127	37831.61
518.329	37557.19
518.531	38063.04
518.733	38589.36
518.935	38333.37
519.136	38699.95
519.338	39304.1
519.54	39527.33
519.742	39967.65
519.944	40000.41
520.146	40623
520.348	40573.84
520.55	41139.08
520.752	40967.05
520.954	41499.53
521.155	41405.32
521.357	42161.02
521.559	42169.21
521.761	43015.02
521.963	42937.2
522.164	42918.77
522.366	43240.3
522.568	43668.33
522.77	44016.48
522.971	44921.68
523.173	43979.62
523.375	44618.58
523.576	44512.09
523.778	44528.47
523.98	45581.13
524.181	45564.74
524.383	45421.39
524.584	46224.19
524.786	46175.04
524.988	45777.73
525.189	46764.85
525.391	46555.96
525.592	46854.97
525.794	47047.47
525.995	47256.37
526.197	47416.11
526.398	47375.15
526.6	47672.1
526.801	47495.98
527.003	47891.24
527.204	47944.48
527.406	48241.44
527.607	48462.62
527.808	48816.92
528.01	48063.27
528.211	48329.5
528.412	49427.21
528.614	49165.07
528.815	49107.73
529.016	49652.49
529.218	49056.53
529.419	49414.93
529.62	49410.83
529.822	49040.15
530.023	49476.37
530.224	49828.62
530.425	49541.9
530.626	49478.41
530.828	49689.35
531.029	50391.81
531.23	49931.01
531.431	50027.27
531.632	49701.64
531.833	50051.84
532.035	50260.74
532.236	50049.8
532.437	50785.02
532.638	49857.29
532.839	50273.02
533.04	50643.71
533.241	50070.28
533.442	50922.23
533.643	50615.04
533.844	50520.83
534.045	50402.05
534.246	50268.93
534.447	50705.15
534.648	50512.64
534.849	50477.82
535.05	49879.81
535.251	50578.17
535.451	50303.74
535.652	51065.59
535.853	50443.01
536.054	50664.19
536.255	51155.7
536.456	50457.34
536.657	51065.59
536.857	49969.93
537.058	50533.12
537.259	51028.73
537.46	50901.75
537.66	51016.44
537.861	50701.05
538.062	50887.42
538.263	51000.05
538.463	50680.57
538.664	50471.68
538.865	51084.02
539.065	50762.49
539.266	50137.86
539.466	51131.12
539.667	50264.83
539.868	50619.13
540.068	50942.71
540.269	50375.42
540.469	50955
540.67	50363.14
540.87	50377.47
541.071	50563.84
541.271	50830.07
541.472	50803.45
541.672	50512.64
541.873	50549.5
542.073	49668.87
542.274	50860.79
542.474	50567.93
542.675	50131.72
542.875	50662.14
543.075	50273.02
543.276	49984.26
543.476	50868.98
543.676	50541.31
543.877	50299.65
544.077	50557.69
544.277	50608.89
544.478	50518.78
544.678	50877.18
544.878	50492.16
545.078	50557.69
545.279	50213.63
545.479	49980.17
545.679	50672.38
545.879	50473.73
546.079	50303.74
546.28	50305.79
546.48	50017.03
546.68	50346.75
546.88	50152.19
547.08	50176.77
547.28	50307.84
547.48	49693.45
547.68	50164.48
547.88	49824.52
548.081	50174.72
548.281	50221.83
548.481	50213.63
548.681	50365.18
548.881	50072.32
549.081	50238.21
549.28	49877.77
549.48	50295.55
549.68	49773.32
549.88	50205.44
550.08	49828.62
550.28	50420.48
550.48	49756.94
550.68	49957.64
550.88	49845
551.08	49761.03
551.279	50131.72
551.479	49572.62
551.679	50039.56
551.879	49883.91
552.079	50264.83
552.278	49740.55
552.478	49988.36
552.678	49529.61
552.878	50412.29
553.077	49849.1
553.277	49382.16
553.477	50311.94
553.676	49847.05
553.876	49730.31
554.076	49316.62
554.275	49662.73
554.475	48870.17
554.674	49859.34
554.874	49470.22
555.074	49228.56
555.273	49656.59
555.473	49570.57
555.672	49165.07
555.872	49390.35
556.071	49634.06
556.271	49525.52
556.47	49650.44
556.67	48943.89
556.869	49244.94
557.068	49732.36
557.268	48526.11
557.467	48810.78
557.667	49079.06
557.866	49312.53
558.065	48818.97
558.265	48747.29
558.464	48241.44
558.663	49091.35
558.863	48403.23
559.062	49621.77
559.261	48569.11
559.461	49040.15
559.66	48417.57
559.859	48636.7
560.058	48223.01
560.258	48313.12
560.457	47856.42
560.656	48712.47
560.855	48046.88
561.054	48450.33
561.253	47938.34
561.453	48141.09
561.652	48214.82
561.851	48456.48
562.05	48249.63
562.249	47758.12
562.448	48151.33
562.647	47756.07
562.846	47594.28
563.045	48028.45
563.244	47072.05
563.443	47903.53
563.642	46979.89
563.841	47209.26
564.04	46715.7
564.239	47305.52
564.438	46908.21
564.637	47289.13
564.836	47092.53
565.035	46940.98
565.234	47094.58
565.432	46744.37
565.631	46459.71
565.83	46859.06
566.029	46977.84
566.228	46609.21
566.427	46437.18
566.625	46250.81
566.824	45824.84
567.023	46480.19
567.222	45695.81
567.42	46334.78
567.619	46467.9
567.818	46275.39
568.016	45599.56
568.215	46445.37
568.414	45706.05
568.612	46263.1
568.811	45736.77
569.01	45302.6
569.208	45415.24
569.407	45405
569.605	44929.87
569.804	45480.78
570.002	44958.55
570.201	45714.25
570.4	45099.86
570.598	45116.24
570.797	44426.07
570.995	45194.06
571.193	44223.33
571.392	45077.33
571.59	44481.37
571.789	44335.96
571.987	44204.89
572.186	44309.34
572.384	44077.92
572.582	44155.74
572.781	44231.52
572.979	43389.8
573.177	43701.09
573.376	43834.21
573.574	43461.48
573.772	43692.9
573.971	43242.35
574.169	43332.46
574.367	43168.62
574.565	43408.23
574.763	43148.14
574.962	42924.91
575.16	42492.79
575.358	42908.53
575.556	42353.53
575.754	43113.33
575.952	42605.43
576.151	42775.41
576.349	42064.77
576.547	42335.1
576.745	42013.57
576.943	42527.61
577.141	41843.59
577.339	42191.74
577.537	41780.1
577.735	41812.87
577.933	41335.69
578.131	41929.6
578.329	41366.41
578.527	41218.96
578.725	41071.5
578.923	41853.83
579.121	40911.76
579.319	41370.5
579.516	41010.06
579.714	40727.44
579.912	40774.55
580.11	40792.98
580.308	40670.1
580.506	40522.65
580.704	39828.38
580.901	40844.18
581.099	40297.37
581.297	40053.66
581.495	39812
581.692	40057.76
581.89	39748.51
582.088	40170.4
582.285	39764.9
582.483	39797.66
582.681	39992.22
582.878	39740.32
583.076	39207.85
583.274	39211.95
583.471	39011.24
583.669	39449.51
583.866	38775.73
584.064	38769.58
584.262	38364.09
584.459	38908.85
584.657	38357.94
584.854	39084.97
585.052	37880.77
585.249	38255.54
585.447	38304.7
585.644	37821.37
585.841	38210.49
586.039	37911.49
586.236	37716.93
586.434	37917.63
586.631	37235.66
586.828	37381.06
587.026	37565.38
587.223	37008.33
587.42	37270.47
587.618	37569.47
587.815	36725.71
588.012	37123.02
588.21	36666.32
588.407	37508.04
588.604	36635.6
588.801	36064.22
588.999	36246.49
589.196	36520.91
589.393	36430.8
589.59	35922.91
589.787	36074.46
589.984	36090.84
590.182	35697.63
590.379	36070.36
590.576	35912.67
590.773	35763.17
590.97	35001.32
591.167	35707.87
591.364	35070.95
591.561	35367.91
591.758	34950.12
591.955	34860.01
592.152	34982.89
592.349	34876.4
592.546	34485.23
592.743	35073
592.94	33973.24
593.137	34716.65
593.334	34462.71
593.531	33891.32
593.727	34208.76
593.924	34083.83
594.121	33887.23
594.318	34137.08
594.515	33645.57
594.712	34145.27
594.908	33401.86
595.105	33422.34
595.302	32990.22
595.499	33313.8
595.696	33184.77
595.892	33260.55
596.089	33301.51
596.286	33168.39
596.482	32754.7
596.679	32658.45
596.876	33037.32
597.072	32576.53
597.269	32656.4
597.466	32220.18
597.662	32437.27
597.859	32201.75
598.055	31968.28
598.252	31806.49
598.448	31773.72
598.645	32070.68
598.841	31511.58
599.038	31968.28
599.234	31794.2
599.431	31208.48
599.627	31351.84
599.824	31411.23
600.02	31120.42
600.217	31355.94
600.413	30622.76
600.609	30690.35
600.806	30479.41
601.002	31083.56
601.198	30434.35
601.395	30448.69
601.591	30209.08
601.787	30362.67
601.984	29738.04
602.18	30420.02
602.376	30094.39
602.572	29840.44
602.769	30145.59
602.965	29480
603.161	29578.3
603.357	29400.13
603.553	29537.34
603.75	29543.49
603.946	29545.53
604.142	29404.22
604.338	28726.35
604.534	28972.1
604.73	28701.77
604.926	28851.27
605.122	29166.66
605.318	28632.14
605.514	28662.86
605.71	28572.75
605.906	28658.76
606.102	28345.42
606.298	28486.73
606.494	28490.83
606.69	28204.11
606.886	28167.25
607.082	27810.9
607.278	28122.19
607.474	27520.09
607.67	27710.55
607.866	27464.8
608.062	27925.59
608.257	27565.15
608.453	27610.2
608.649	27524.19
608.845	27327.58
609.041	27169.89
609.236	27356.25
609.432	27188.32
609.628	27137.12
609.824	27044.96
610.019	26715.24
610.215	26825.83
610.411	27104.35
610.606	26733.67
610.802	26856.55
610.998	26647.66
611.193	26922.09
611.389	26766.44
611.584	26555.5
611.78	26346.61
611.976	26330.22
612.171	26225.78
612.367	26588.27
612.562	26143.86
612.758	26197.1
612.953	26039.41
613.149	26301.55
613.344	26016.88
613.539	26520.68
613.735	25877.62
613.93	26240.11
614.126	25740.41
614.321	26225.78
614.517	25375.87
614.712	25865.33
614.907	25605.24
615.103	25861.24
615.298	25703.54
615.493	25681.02
615.688	25293.95
615.884	25805.94
616.079	25023.62
616.274	25504.89
616.47	25304.19
616.665	25275.52
616.86	25195.65
617.055	25087.11
617.25	24923.27
617.445	25455.74
617.641	24296.59
617.836	24822.92
618.031	24579.21
618.226	24845.44
618.421	24650.89
618.616	24638.6
618.811	24376.46
619.006	24542.35
619.201	24206.48
619.396	24642.7
619.591	23665.81
619.786	24147.09
619.981	23368.86
620.176	23882.9
620.371	23422.11
620.566	23321.76
620.761	23358.62
620.956	23493.79
621.151	23061.66
621.346	23313.56
621.541	23155.87
621.735	22879.39
621.93	22820
622.125	22846.63
622.32	22535.34
622.515	22549.67
622.709	22287.53
622.904	22400.17
623.099	22101.17
623.294	22193.33
623.488	21812.4
623.683	22277.29
623.878	21607.61
624.072	21826.74
624.267	21726.39
624.462	21449.91
624.656	21159.1
624.851	21286.08
625.046	21099.71
625.24	21134.53
625.435	21042.37
625.629	20645.06
625.824	20657.35
626.018	20382.92
626.213	20319.43
626.407	20448.46
626.602	20135.12
626.796	19799.25
626.991	19840.21
627.185	19891.41
627.38	19541.21
627.574	19530.97
627.768	19565.78
627.963	19426.52
628.157	19213.53
628.352	19139.8
628.546	18873.57
628.74	19373.27
628.935	18656.48
629.129	18767.07
629.323	18787.55
629.517	18547.94
629.712	18543.85
629.906	18191.59
630.1	18226.41
630.294	18328.81
630.489	18152.68
630.683	18193.64
630.877	17626.36
631.071	17960.17
631.265	17880.3
631.459	17607.92
631.653	17782
631.848	17483
632.042	17460.47
632.236	17513.72
632.43	17194.23
632.624	17390.84
632.818	16846.08
633.012	16694.53
633.206	16803.07
633.4	16665.86
633.594	16702.72
633.788	16395.53
633.982	16323.85
634.176	16499.97
634.369	16266.5
634.563	16315.66
634.757	16018.7
634.951	16387.33
635.145	15944.97
635.339	16055.56
635.533	15623.44
635.726	15742.22
635.92	15381.78
636.114	15783.18
636.308	15215.9
636.501	15283.48
636.695	15168.79
636.889	15078.68
637.083	15050.01
637.276	15195.42
637.47	14925.08
637.664	14886.17
637.857	15113.5
638.051	14800.16
638.244	14611.75
638.438	14656.8
638.632	14615.84
638.825	14322.98
639.019	14445.86
639.212	14138.66
639.406	14052.65
639.599	14109.99
639.793	13950.25
639.986	13796.65
640.18	14032.17
640.373	14034.22
640.567	13643.06
640.76	13669.68
640.954	13505.84
641.147	13405.49
641.34	13194.55
641.534	13434.16
641.727	13337.91
641.92	13210.93
642.114	13145.4
642.307	12944.7
642.5	13067.58
642.694	12807.48
642.887	12780.86
643.08	12717.37
643.273	12746.05
643.467	12729.66
643.66	12584.26
643.853	12506.43
644.046	12449.09
644.239	12375.36
644.432	12457.28
644.626	12121.42
644.819	12330.31
645.012	12199.24
645.205	12227.91
645.398	12107.08
645.591	12008.78
645.784	12025.16
645.977	11677.01
646.17	11892.04
646.363	11693.39
646.556	11738.44
646.749	11851.08
646.942	11717.97
647.135	11507.02
647.328	11650.38
647.521	11451.73
647.714	11283.8
647.907	11218.26
648.099	11191.64
648.292	11232.6
648.485	10986.84
648.678	10870.11
648.871	10911.07
649.064	10886.49
649.256	10954.07
649.449	10724.7
649.642	10839.39
649.835	10675.55
650.027	10542.43
650.22	10497.38
650.413	10478.94
650.605	10528.1
650.798	10356.07
650.991	10206.56
651.183	10286.44
651.376	10124.65
651.568	10231.14
651.761	9928.04
651.954	10018.15
652.146	10003.82
652.339	9829.74
652.531	9864.55
652.724	9878.89
652.916	9653.61
653.109	9641.32
653.301	9827.69
653.494	9915.75
653.686	9489.78
653.879	9626.99
654.071	9434.48
654.263	9305.46
654.456	9596.27
654.648	9375.09
654.84	9219.44
655.033	9188.72
655.225	9108.85
655.417	8979.83
655.61	9033.08
655.802	9145.72
655.994	9180.53
656.186	9055.61
656.379	8885.62
656.571	9035.13
656.763	8777.08
656.955	8809.85
657.148	8752.51
657.34	8603
657.532	8660.35
657.724	8607.1
657.916	8686.97
658.108	8510.85
658.3	8435.07
658.492	8652.16
658.684	8306.05
658.876	8467.84
659.068	8457.6
659.26	8191.36
659.452	8185.22
659.644	8297.86
659.836	8017.29
660.028	8185.22
660.22	7851.4
660.412	8136.07
660.604	7943.56
660.796	7867.78
660.988	8195.46
661.18	7808.39
661.372	7679.37
661.563	7656.84
661.755	7658.89
661.947	7708.04
662.139	7538.06
662.331	7634.32
662.522	7546.25
662.714	7462.29
662.906	7462.29
663.097	7316.88
663.289	7222.67
663.481	7228.82
663.673	7339.41
663.864	7148.95
664.056	7181.71
664.247	7259.54
664.439	6808.98
664.631	7210.39
664.822	7187.86
665.014	7239.06
665.205	7142.8
665.397	6917.53
665.588	6794.65
665.78	6944.15
665.971	6917.53
666.163	6878.62
666.354	6659.48
666.546	6870.42
666.737	6569.37
666.929	6622.62
667.12	6780.31
667.311	6718.87
667.503	6555.04
667.694	6462.88
667.885	6567.32
668.077	6593.95
668.268	6387.1
668.459	6565.28
668.651	6569.37
668.842	6415.77
669.033	6528.41
669.224	6149.54
669.416	6333.86
669.607	6213.03
669.798	6206.88
669.989	6286.75
670.18	6311.33
670.371	6301.09
670.563	6149.54
670.754	6247.84
670.945	6227.36
671.136	6208.93
671.327	6045.09
671.518	6051.24
671.709	6165.92
671.9	6088.1
672.091	6000.04
672.282	5836.2
672.473	5928.36
672.664	5932.45
672.855	5852.58
673.046	5846.44
673.237	5782.95
673.428	5723.56
673.619	5811.62
673.809	5817.77
674	5486
674.191	5764.52
674.382	5662.12
674.573	5711.27
674.764	5744.04
674.954	5832.1
675.145	5346.73
675.336	5524.91
675.527	5531.05
675.717	5590.44
675.908	5518.76
676.099	5494.19
676.289	5342.64
676.48	5488.04
676.671	5342.64
676.861	5471.66
677.052	5363.12
677.243	5350.83
677.433	5332.4
677.624	5361.07
677.814	5252.53
678.005	5440.94
678.195	5399.98
678.386	5447.08
678.576	5354.93
678.767	5152.18
678.957	5254.58
679.148	5350.83
679.338	5197.23
679.529	5213.62
679.719	5234.1
679.909	5232.05
680.1	4955.57
680.29	5127.6
680.481	5060.02
680.671	5186.99
680.861	5129.65
681.052	5176.75
681.242	5125.55
681.432	5017.01
681.622	4943.28
681.813	4887.99
682.003	5012.92
682.193	4873.65
682.383	5035.44
682.573	5148.08
682.764	4836.79
682.954	4865.46
683.144	4879.8
683.334	4904.37
683.524	4955.57
683.714	4939.19
683.904	4814.26
684.094	4851.13
684.284	4922.8
684.474	4951.48
684.664	4816.31
684.854	4812.21
685.044	4758.97
685.234	4697.53
685.424	4709.82
685.614	4746.68
685.804	4724.15
685.994	4662.71
686.184	4722.1
686.374	4593.08
686.564	4785.59
686.753	4724.15
686.943	4586.94
687.133	4570.55
687.323	4558.27
687.513	4472.25
687.702	4511.16
687.892	4433.34
688.082	4359.61
688.272	4533.69
688.461	4484.54
688.651	4474.3
688.841	4388.29
689.03	4249.02
689.22	4222.4
689.41	4500.92
689.599	4294.08
689.789	4257.22
689.979	4212.16
690.168	4218.3
690.358	4287.93
690.547	4244.93
690.737	4230.59
690.926	4079.04
691.116	4050.37
691.305	4255.17
691.495	4107.71
691.684	4113.86
691.874	4017.6
692.063	4177.34
692.252	4126.15
692.442	3990.98
692.631	4099.52
692.82	3954.12
693.01	3997.12
693.199	3888.58
693.388	3958.21
693.578	3886.53
693.767	3702.22
693.956	3849.67
694.146	3880.39
694.335	3784.13
694.524	3853.77
694.713	3829.19
694.902	3818.95
695.092	3915.2
695.281	3806.66
695.47	3726.79
695.659	3845.57
695.848	3722.7
696.037	3737.03
696.226	3687.88
696.415	3802.57
696.604	3714.5
696.793	3755.46
696.982	3657.16
697.171	3610.06
697.36	3610.06
697.549	3655.11
697.738	3614.15
697.927	3616.2
698.116	3548.62
698.305	3558.86
698.494	3657.16
698.683	3585.48
698.872	3575.24
699.061	3526.09
699.25	3347.92
699.438	3489.23
699.627	3536.33
699.816	3601.87
700.005	3565
700.193	3407.31
700.382	3448.27
700.571	3470.8
700.76	3339.73
700.948	3593.67
701.137	3452.36
701.326	3454.41
701.514	3489.23
701.703	3302.86
701.892	3446.22
702.08	3468.75
702.269	3456.46
702.457	3341.77
702.646	3431.88
702.834	3378.64
703.023	3341.77
703.212	3386.83
703.4	3452.36
703.589	3280.33
703.777	3337.68
703.965	3255.76
704.154	3378.64
704.342	3345.87
704.531	3343.82
704.719	3243.47
704.907	3382.73
705.096	3292.62
705.284	3366.35
705.472	3323.34
705.661	3179.98
705.849	3259.85
706.037	3309.01
706.226	3341.77
706.414	3251.66
706.602	3177.94
706.79	3241.42
706.979	3163.6
707.167	3198.42
707.355	3128.78
707.543	3134.93
707.731	3251.66
707.919	3253.71
708.107	3212.75
708.296	2999.76
708.484	3206.61
708.672	3204.56
708.86	3046.87
709.048	3263.95
709.236	3165.65
709.424	3128.78
709.612	3233.23
709.8	3073.49
709.988	3079.63
710.176	3192.27
710.364	3239.37
710.551	3098.06
710.739	3093.97
710.927	3157.46
711.115	3110.35
711.303	3159.5
711.491	3091.92
711.679	3175.89
711.866	3096.02
712.054	3194.32
712.242	3139.02
712.43	3161.55
712.617	3038.67
712.805	3077.59
712.993	3102.16
713.181	3067.35
713.368	3073.49
713.556	3272.14
713.744	2999.76
713.931	3155.41
714.119	3169.74
714.306	3098.06
714.494	3190.22
714.682	3083.73
714.869	3018.19
715.057	3106.26
715.244	3018.19
715.432	3161.55
715.619	3026.39
715.807	3030.48
715.994	3042.77
716.182	3007.95
716.369	3028.43
716.556	3014.1
716.744	2977.23
716.931	2966.99
717.119	3112.4
717.306	2952.66
717.493	3061.2
717.681	2981.33
717.868	2991.57
718.055	2993.62
718.242	3014.1
718.43	2934.23
718.617	2966.99
718.804	2909.65
718.991	3018.19
719.179	2985.43
719.366	2917.84
719.553	3007.95
719.74	3122.64
719.927	2987.47
720.114	3040.72
720.301	2866.64
720.488	2895.32
720.676	2919.89
720.863	3034.58
721.05	3026.39
721.237	2913.75
721.424	2803.16
721.611	2799.06
721.798	2850.26
721.985	2934.23
722.172	2987.47
722.358	2950.61
722.545	3024.34
722.732	2862.55
722.919	2885.08
723.106	2897.36
723.293	2915.8
723.48	2958.8
723.667	2911.7
723.853	2770.39
724.04	2944.47
724.227	2901.46
724.414	2776.53
724.6	2887.12
724.787	2993.62
724.974	2817.49
725.161	2817.49
725.347	2948.56
725.534	2948.56
725.72	2870.74
725.907	2911.7
726.094	2913.75
726.28	2903.51
726.467	2788.82
726.653	2833.88
726.84	2930.13
727.027	3022.29
727.213	2862.55
727.4	2788.82
727.586	2930.13
727.773	2774.49
727.959	2856.4
728.145	2926.04
728.332	2774.49
728.518	2737.62
728.705	2659.8
728.891	2895.32
729.077	2803.16
729.264	2770.39
729.45	2786.77
729.636	2903.51
729.823	2743.77
730.009	2862.55
730.195	2719.19
730.382	2686.42
730.568	2778.58
730.754	2817.49
730.94	2481.63
731.126	2551.26
731.313	2688.47
731.499	2704.85
731.685	2688.47
731.871	2799.06
732.057	2741.72
732.243	2715.09
732.429	2622.94
732.615	2719.19
732.801	2788.82
732.987	2680.28
733.173	2706.9
733.359	2622.94
733.545	2637.27
733.731	2661.85
733.917	2629.08
734.103	2700.76
734.289	2538.97
734.475	2551.26
734.661	2756.05
734.847	2741.72
735.033	2655.7
735.219	2526.68
735.404	2567.64
735.59	2541.02
735.776	2610.65
735.962	2682.33
736.148	2702.81
736.333	2618.84
736.519	2624.98
736.705	2553.31
736.89	2604.5
737.076	2528.73
737.262	2412
737.447	2584.02
737.633	2584.02
737.819	2624.98
738.004	2514.39
738.19	2524.63
738.375	2516.44
738.561	2620.89
738.747	2428.38
738.932	2436.57
739.118	2498.01
739.303	2522.59
739.489	2534.87
739.674	2444.76
739.859	2510.3
740.045	2571.74
740.23	2479.58
740.416	2403.8
740.601	2401.76
740.786	2387.42
740.972	2551.26
741.157	2473.43
741.342	2348.51
741.528	2190.81
741.713	2373.08
741.898	2280.93
742.084	2289.12
742.269	2412
742.454	2315.74
742.639	2338.27
742.824	2307.55
743.01	2250.21
743.195	2209.25
743.38	2223.58
743.565	2268.64
743.75	2252.25
743.935	2258.4
744.12	2330.08
744.305	2119.14
744.49	2133.47
744.675	2213.34
744.86	2172.38
745.045	2162.14
745.23	2164.19
745.415	2162.14
745.6	2080.22
745.785	2104.8
745.97	2145.76
746.155	2125.28
746.34	2106.85
746.525	2106.85
746.71	2160.1
746.895	2143.71
747.079	2024.93
747.264	1973.73
747.449	2022.88
747.634	2149.86
747.819	1957.35
748.003	2012.64
748.188	1949.15
748.373	1983.97
748.557	1998.31
748.742	1893.86
748.927	1889.76
749.111	1842.66
749.296	1897.96
749.481	1908.19
749.665	1908.19
749.85	1836.52
750.034	1943.01
750.219	1918.43
750.404	1838.56
750.588	1805.8
750.773	1707.49
750.957	1701.35
751.141	1852.9
751.326	1859.04
751.51	1746.41
751.695	1723.88
751.879	1668.58
752.064	1746.41
752.248	1672.68
752.432	1764.84
752.617	1680.87
752.801	1553.9
752.985	1627.62
753.17	1621.48
753.354	1678.82
753.538	1586.66
753.722	1508.84
753.907	1527.27
754.091	1590.76
754.275	1535.46
754.459	1588.71
754.643	1555.94
754.828	1637.86
755.012	1510.89
755.196	1508.84
755.38	1480.17
755.564	1568.23
755.748	1467.88
755.932	1553.9
756.116	1463.79
756.3	1525.22
756.484	1512.94
756.668	1467.88
756.852	1363.44
757.036	1349.1
757.22	1385.96
757.404	1471.98
757.588	1265.13
757.772	1375.72
757.956	1342.96
758.14	1285.61
758.323	1281.52
758.507	1306.09
758.691	1306.09
758.875	1287.66
759.059	1299.95
759.242	1273.32
759.426	1244.65
759.61	1324.52
759.794	1222.13
759.977	1232.37
760.161	1304.04
760.345	1252.84
760.528	1285.61
760.712	1191.41
760.895	1136.11
761.079	1220.08
761.263	1236.46
761.446	1199.6
761.63	1154.54
761.813	1220.08
761.997	1207.79
762.18	1125.87
762.364	1324.52
762.547	1129.97
762.731	1201.65
762.914	1127.92
763.098	1150.45
763.281	1113.58
763.464	1129.97
763.648	1170.93
763.831	1101.3
764.015	1103.34
764.198	1123.82
764.381	1127.92
764.564	1103.34
764.748	1048.05
764.931	1142.25
765.114	1093.1
765.297	1189.36
765.481	1136.11
765.664	1121.77
765.847	1060.34
766.03	1048.05
766.213	1035.76
766.397	970.23
766.58	1015.28
766.763	1101.3
766.946	1023.47
767.129	912.88
767.312	1005.04
767.495	1007.09
767.678	1113.58
767.861	1117.68
768.044	1005.04
768.227	1017.33
768.41	980.47
768.593	1025.52
768.776	1015.28
768.959	982.51
769.142	984.56
769.324	990.7
769.507	994.8
769.69	943.6
769.873	925.17
770.056	984.56
770.239	1058.29
770.421	910.83
770.604	1023.47
770.787	1000.94
770.97	896.5
771.152	863.73
771.335	927.22
771.518	937.46
771.7	955.89
771.883	935.41
772.066	837.11
772.248	923.12
772.431	839.16
772.613	898.55
772.796	869.87
772.978	828.92
773.161	847.35
773.343	837.11
773.526	851.44
773.708	873.97
773.891	812.53
774.073	820.72
774.256	835.06
774.438	849.4
774.621	843.25
774.803	853.49
774.985	755.19
775.168	869.87
775.35	855.54
775.532	798.2
775.715	755.19
775.897	749.04
776.079	761.33
776.261	724.47
776.444	740.85
776.626	695.8
776.808	830.96
776.99	714.23
777.173	740.85
777.355	742.9
777.537	726.52
777.719	792.05
777.901	716.28
778.083	695.8
778.265	658.93
778.447	638.45
778.629	675.32
778.811	626.17
778.993	716.28
779.175	679.41
779.357	658.93
779.539	695.8
779.721	609.78
779.903	660.98
780.085	597.49
780.267	679.41
780.449	620.02
780.631	716.28
780.812	667.13
780.994	669.17
781.176	591.35
781.358	660.98
781.54	595.45
781.721	620.02
781.903	648.69
782.085	589.3
782.267	562.68
782.448	572.92
782.63	564.73
782.812	613.88
782.993	554.49
783.175	544.25
783.357	488.95
783.538	577.02
783.72	544.25
783.901	554.49
784.083	599.54
784.264	550.39
784.446	411.13
784.627	574.97
784.809	466.42
784.99	480.76
785.172	562.68
785.353	470.52
785.535	570.87
785.716	429.56
785.897	531.96
786.079	431.61
786.26	536.06
786.441	468.47
786.623	450.04
786.804	456.19
786.985	493.05
787.167	472.57
787.348	419.32
787.529	495.1
787.71	503.29
787.891	417.27
788.073	472.57
788.254	425.47
788.435	421.37
788.616	527.86
788.797	443.9
788.978	427.51
789.159	421.37
789.34	394.75
789.522	431.61
789.703	425.47
789.884	404.99
790.065	382.46
790.246	433.66
790.427	433.66
790.607	421.37
790.788	335.35
790.969	368.12
791.15	429.56
791.331	349.69
791.512	353.79
791.693	384.51
791.874	464.38
792.054	427.51
792.235	445.95
792.416	374.27
792.597	376.31
792.778	396.79
792.958	392.7
793.139	437.75
793.32	321.02
793.5	396.79
793.681	273.92
793.862	341.5
794.042	411.13
794.223	337.4
794.404	335.35
794.584	349.69
794.765	294.4
794.945	239.1
795.126	282.11
795.306	329.21
795.487	355.83
795.667	325.12
795.848	404.99
796.028	298.49
796.209	335.35
796.389	343.55
796.57	374.27
796.75	306.68
796.93	333.31
797.111	265.72
797.291	280.06
797.471	292.35
797.652	310.78
797.832	380.41
798.012	337.4
798.192	257.53
798.373	271.87
798.553	321.02
798.733	306.68
798.913	243.2
799.093	273.92
799.274	278.01
799.454	294.4
799.634	314.88
799.814	337.4
799.994	269.82
800.174	261.63
800.354	312.83
800.534	280.06
800.714	275.96
800.894	245.24
801.074	243.2
801.254	261.63
801.434	237.05
801.614	194.05
801.794	247.29
801.974	701.94
802.154	269.82
802.334	312.83
802.514	269.82
802.693	296.44
802.873	232.96
803.053	194.05
803.233	275.96
803.413	212.48
803.592	251.39
803.772	280.06
803.952	204.28
804.131	232.96
804.311	187.9
804.491	282.11
804.67	204.28
804.85	243.2
805.03	230.91
805.209	280.06
805.389	202.24
805.568	228.86
805.748	208.38
805.928	271.87
806.107	245.24
806.287	175.61
806.466	165.37
806.646	134.65
806.825	212.48
807.004	253.44
807.184	230.91
807.363	253.44
807.543	239.1
807.722	214.52
807.901	183.81
808.081	249.34
808.26	189.95
808.439	185.85
808.619	196.09
808.798	144.89
808.977	214.52
809.156	226.81
809.336	140.8
809.515	222.72
809.694	200.19
809.873	218.62
810.052	202.24
810.231	192
810.411	189.95
810.59	208.38
810.769	132.61
810.948	167.42
811.127	173.57
811.306	220.67
811.485	220.67
811.664	183.81
811.843	114.17
812.022	175.61
812.201	134.65
812.38	204.28
812.559	126.46
812.737	196.09
812.916	126.46
813.095	77.31
813.274	146.94
813.453	181.76
813.632	110.08
813.811	259.58
813.989	146.94
814.168	196.09
814.347	173.57
814.526	183.81
814.704	175.61
814.883	200.19
815.062	56.83
815.24	210.43
815.419	173.57
815.598	183.81
815.776	105.98
815.955	200.19
816.133	103.93
816.312	187.9
816.49	9.73
816.669	105.98
816.847	126.46
817.026	167.42
817.204	87.55
817.383	124.41
817.561	140.8
817.74	177.66
817.918	116.22
818.097	126.46
818.275	208.38
818.453	146.94
818.632	157.18
818.81	114.17
818.988	56.83
819.167	83.45
819.345	159.23
819.523	122.37
819.701	108.03
819.879	198.14
820.058	110.08
820.236	189.95
820.414	105.98
820.592	177.66
820.77	105.98
820.948	179.71
821.127	75.26
821.305	173.57
821.483	163.33
821.661	179.71
821.839	136.7
822.017	69.12
822.195	108.03
822.373	130.56
822.551	56.83
822.729	179.71
822.907	157.18
823.085	153.09
823.262	142.85
823.44	73.21
823.618	19.97
823.796	146.94
823.974	134.65
824.152	126.46
824.329	118.27
824.507	163.33
824.685	114.17
824.863	110.08
825.04	67.07
825.218	151.04
825.396	89.6
825.574	134.65
825.751	126.46
825.929	192
826.107	9.73
826.284	148.99
826.462	32.26
826.639	67.07
826.817	110.08
826.994	77.31
827.172	34.3
827.349	110.08
827.527	50.69
827.704	116.22
827.882	101.89
828.059	189.95
828.237	97.79
828.414	79.36
828.591	-0.51
828.769	19.97
828.946	138.75
829.124	108.03
829.301	198.14
829.478	75.26
829.655	126.46
829.833	155.13
830.01	99.84
830.187	124.41
830.364	128.51
830.542	97.79
830.719	93.69
830.896	60.93
831.073	89.6
831.25	112.13
831.427	30.21
831.604	69.12
831.782	52.74
831.959	140.8
832.136	28.16
832.313	81.41
832.49	114.17
832.667	112.13
832.844	101.89
833.021	122.37
833.198	101.89
833.374	44.54
833.551	52.74
833.728	71.17
833.905	52.74
834.082	93.69
834.259	44.54
834.436	89.6
834.612	15.87
834.789	103.93
834.966	28.16
835.143	126.46
835.319	89.6
835.496	105.98
835.673	118.27
835.85	118.27
836.026	110.08
836.203	165.37
836.38	3.58
836.556	28.16
836.733	71.17
836.909	1.54
837.086	65.02
837.262	77.31
837.439	65.02
837.616	44.54
837.792	83.45
837.968	124.41
838.145	26.11
838.321	110.08
838.498	65.02
838.674	-10.75
838.851	118.27
839.027	112.13
839.203	134.65
839.38	58.88
839.556	77.31
839.732	118.27
839.909	89.6
840.085	60.93
840.261	22.02
840.437	110.08
840.614	36.35
840.79	87.55
840.966	69.12
841.142	101.89
841.318	60.93
841.494	69.12
841.671	60.93
841.847	38.4
842.023	38.4
842.199	108.03
842.375	67.07
842.551	-31.23
842.727	19.97
842.903	44.54
843.079	97.79
843.255	-12.8
843.431	11.78
843.607	81.41
843.783	77.31
843.959	34.3
844.134	101.89
844.31	54.78
844.486	-0.51
844.662	56.83
844.838	36.35
845.013	128.51
845.189	138.75
845.365	73.21
845.541	26.11
845.716	56.83
845.892	93.69
846.068	116.22
846.244	9.73
846.419	79.36
846.595	58.88
846.77	52.74
846.946	52.74
847.122	36.35
847.297	65.02
847.473	75.26
847.648	17.92
847.824	24.06
847.999	19.97
848.175	44.54
848.35	28.16
848.526	110.08
848.701	38.4
848.876	89.6
849.052	54.78
849.227	56.83
849.403	83.45
849.578	85.5
849.753	91.65
849.929	67.07
850.104	22.02
850.279	48.64
850.454	22.02
850.63	24.06
850.805	34.3
850.98	9.73
851.155	44.54
851.33	60.93
851.505	-12.8
851.681	118.27
851.856	48.64
852.031	32.26
852.206	44.54
852.381	28.16
852.556	48.64
852.731	67.07
852.906	71.17
853.081	-0.51
853.256	73.21
853.431	38.4
853.606	36.35
853.781	-64
853.956	-25.09
854.131	3.58
854.305	15.87
854.48	71.17
854.655	-12.8
854.83	7.68
855.005	1.54
855.18	22.02
855.354	75.26
855.529	44.54
855.704	73.21
855.879	79.36
856.053	9.73
856.228	22.02
856.403	52.74
856.577	108.03
856.752	38.4
856.926	58.88
857.101	-4.61
857.276	36.35
857.45	-2.56
857.625	15.87
857.799	24.06
857.974	62.98
858.148	3.58
858.323	44.54
858.497	3.58
858.672	36.35
858.846	-25.09
859.02	48.64
859.195	9.73
859.369	26.11
859.543	-12.8
859.718	22.02
859.892	24.06
860.066	42.5
860.241	11.78
860.415	-10.75
860.589	9.73
860.763	46.59
860.938	36.35
861.112	69.12
861.286	-8.7
861.46	19.97
861.634	-0.51
861.808	122.37
861.982	5.63
862.157	-0.51
862.331	5.63
862.505	30.21
862.679	-18.94
862.853	-41.47
863.027	60.93
863.201	71.17
863.375	62.98
863.549	-10.75
863.722	24.06
863.896	69.12
864.07	9.73
864.244	-23.04
864.418	-0.51
864.592	52.74
864.766	26.11
864.939	-6.66
865.113	9.73
865.287	75.26
865.461	11.78
865.634	19.97
865.808	3.58
865.982	-8.7
866.156	7.68
866.329	79.36
866.503	-33.28
866.676	108.03
866.85	22.02
867.024	-10.75
867.197	-4.61
867.371	105.98
867.544	9.73
867.718	32.26
867.891	71.17
868.065	-82.43
868.238	-25.09
868.412	24.06
868.585	-66.05
868.759	58.88
868.932	-2.56
869.105	-6.66
869.279	15.87
869.452	15.87
869.625	75.26
869.799	-12.8
869.972	-45.57
870.145	101.89
870.319	-18.94
870.492	36.35
870.665	22.02
870.838	-29.18
871.011	28.16
871.185	15.87
871.358	26.11
871.531	-0.51
871.704	38.4
871.877	-41.47
872.05	77.31
872.223	-39.42
872.396	11.78
872.569	26.11
872.742	-43.52
872.915	32.26
873.088	-20.99
873.261	-33.28
873.434	5.63
873.607	5.63
873.78	-4.61
873.953	-33.28
874.126	81.41
874.299	11.78
874.471	26.11
874.644	11.78
874.817	24.06
874.99	17.92
875.163	-57.86
875.335	38.4
875.508	1.54
875.681	77.31
875.853	-61.95
876.026	26.11
876.199	19.97
876.371	36.35
876.544	1.54
876.717	19.97
876.889	54.78
877.062	26.11
877.234	-45.57
877.407	15.87
877.579	-25.09
877.752	15.87
877.924	67.07
878.097	79.36
878.269	3.58
878.442	40.45
878.614	77.31
878.786	52.74
878.959	9.73
879.131	-27.14
879.303	-66.05
879.476	-41.47
879.648	50.69
879.82	17.92
879.993	-12.8
880.165	22.02
880.337	-23.04
880.509	-8.7
880.681	-16.9
880.854	52.74
881.026	-2.56
881.198	93.69
881.37	3.58
881.542	85.5
881.714	99.84
881.886	-29.18
882.058	-31.23
882.23	28.16
882.402	46.59
882.574	19.97
882.746	11.78
882.918	1.54
883.09	24.06
883.262	-57.86
883.434	-29.18
883.606	-82.43
883.778	-20.99
883.95	87.55
884.122	13.82
884.293	60.93
884.465	-33.28
884.637	5.63
884.809	11.78
884.98	62.98
885.152	9.73
885.324	-6.66
885.496	-53.76
885.667	-43.52
885.839	11.78
886.011	-2.56
886.182	44.54
886.354	32.26
886.525	19.97
886.697	-16.9
886.869	-80.38
887.04	-59.9
887.212	22.02
887.383	-39.42
887.555	-35.33
887.726	-25.09
887.897	44.54
888.069	65.02
888.24	-8.7
888.412	44.54
888.583	32.26
888.754	38.4
888.926	-10.75
889.097	-78.33
889.268	-16.9
889.44	-14.85
889.611	9.73
889.782	-45.57
889.953	-70.14
890.125	40.45
890.296	-20.99
890.467	-88.57
890.638	7.68
890.809	-0.51
890.98	-6.66
891.151	-6.66
891.323	-6.66
891.494	40.45
891.665	-47.62
891.836	1.54
892.007	81.41
892.178	85.5
892.349	34.3
892.52	-66.05
892.691	15.87
892.862	-29.18
893.032	-25.09
893.203	5.63
893.374	-18.94
893.545	-53.76
893.716	-29.18
893.887	67.07
894.057	-66.05
894.228	44.54
894.399	-25.09
894.57	65.02
894.74	-23.04
894.911	-25.09
895.082	-6.66
895.253	36.35
895.423	62.98
895.594	22.02
895.764	-4.61
895.935	-53.76
896.106	19.97
896.276	36.35
896.447	-4.61
896.617	34.3
896.788	-31.23
896.958	-18.94
897.129	-0.51
897.299	-80.38
897.47	11.78
897.64	17.92
897.81	48.64
897.981	17.92
898.151	36.35
898.322	11.78
898.492	-29.18
898.662	-10.75
898.832	-45.57
899.003	26.11
899.173	73.21
899.343	-76.29
899.513	-33.28
