Data from USB4F104151__74__10-24-08-501.txt Node

Date: Wed Mar 12 10:24:08 EDT 2025
User: louis
Spectrometer: USB4F10415
Trigger mode: 4
Integration Time (sec): 3.000000E-2
Scans to average: 1
Electric dark correction enabled: true
Nonlinearity correction enabled: false
Boxcar width: 0
XAxis mode: Wavelengths
Number of Pixels in Spectrum: 3648
>>>>>Begin Spectral Data<<<<<
178.204	-124.41
178.424	-124.41
178.644	-124.41
178.864	-124.41
179.084	-116.22
179.304	-26.11
179.524	0.51
179.744	2.56
179.964	12.8
180.184	-5.63
180.404	23.04
180.624	12.8
180.844	37.38
181.064	-60.93
181.283	27.14
181.503	8.7
181.723	-32.26
181.943	-19.97
182.163	10.75
182.383	-17.92
182.602	6.66
182.822	74.24
183.042	16.9
183.262	-11.78
183.482	37.38
183.701	25.09
183.921	43.52
184.141	27.14
184.361	2.56
184.58	33.28
184.8	35.33
185.02	-44.54
185.239	-13.82
185.459	0.51
185.679	12.8
185.898	-1.54
186.118	20.99
186.338	39.42
186.557	117.25
186.777	-19.97
186.997	35.33
187.216	-24.06
187.436	6.66
187.655	18.94
187.875	57.86
188.095	-42.5
188.314	12.8
188.534	31.23
188.753	29.18
188.973	41.47
189.192	-42.5
189.412	-30.21
189.631	123.39
189.851	-34.3
190.07	6.66
190.29	-56.83
190.509	6.66
190.729	-62.98
190.948	70.14
191.168	96.77
191.387	78.33
191.607	-36.35
191.826	-22.02
192.045	18.94
192.265	88.57
192.484	-5.63
192.704	43.52
192.923	-52.74
193.142	47.62
193.362	27.14
193.581	100.86
193.8	61.95
194.02	-19.97
194.239	-22.02
194.458	-62.98
194.678	18.94
194.897	-5.63
195.116	47.62
195.335	39.42
195.555	-9.73
195.774	61.95
195.993	64
196.212	25.09
196.432	-15.87
196.651	43.52
196.87	88.57
197.089	57.86
197.308	27.14
197.528	72.19
197.747	20.99
197.966	-7.68
198.185	20.99
198.404	33.28
198.623	78.33
198.842	33.28
199.062	18.94
199.281	45.57
199.5	-9.73
199.719	35.33
199.938	45.57
200.157	51.71
200.376	72.19
200.595	76.29
200.814	45.57
201.033	10.75
201.252	61.95
201.471	12.8
201.69	137.73
201.909	-30.21
202.128	109.05
202.347	-15.87
202.566	33.28
202.785	23.04
203.004	-5.63
203.223	160.25
203.442	6.66
203.661	-38.4
203.879	-22.02
204.098	16.9
204.317	-7.68
204.536	8.7
204.755	70.14
204.974	18.94
205.193	76.29
205.411	98.81
205.63	113.15
205.849	47.62
206.068	-13.82
206.287	-40.45
206.505	68.09
206.724	104.96
206.943	31.23
207.162	31.23
207.381	49.66
207.599	45.57
207.818	96.77
208.037	27.14
208.255	18.94
208.474	23.04
208.693	59.9
208.911	39.42
209.13	-15.87
209.349	-69.12
209.567	6.66
209.786	16.9
210.005	70.14
210.223	-58.88
210.442	4.61
210.661	20.99
210.879	47.62
211.098	39.42
211.316	-15.87
211.535	10.75
211.753	6.66
211.972	-9.73
212.191	6.66
212.409	8.7
212.628	23.04
212.846	-30.21
213.065	84.48
213.283	35.33
213.502	-40.45
213.72	18.94
213.938	2.56
214.157	-71.17
214.375	6.66
214.594	-19.97
214.812	27.14
215.031	-15.87
215.249	-7.68
215.467	-11.78
215.686	74.24
215.904	94.72
216.122	14.85
216.341	27.14
216.559	14.85
216.778	64
216.996	20.99
217.214	33.28
217.432	-36.35
217.651	10.75
217.869	59.9
218.087	10.75
218.306	-38.4
218.524	70.14
218.742	14.85
218.96	0.51
219.179	-50.69
219.397	25.09
219.615	39.42
219.833	18.94
220.051	12.8
220.27	45.57
220.488	33.28
220.706	61.95
220.924	59.9
221.142	25.09
221.36	78.33
221.578	29.18
221.796	18.94
222.015	90.62
222.233	43.52
222.451	16.9
222.669	10.75
222.887	4.61
223.105	35.33
223.323	-46.59
223.541	-15.87
223.759	86.53
223.977	41.47
224.195	45.57
224.413	23.04
224.631	12.8
224.849	-65.02
225.067	109.05
225.285	-26.11
225.503	27.14
225.721	12.8
225.939	45.57
226.157	0.51
226.375	109.05
226.592	2.56
226.81	29.18
227.028	131.58
227.246	23.04
227.464	14.85
227.682	35.33
227.9	2.56
228.117	10.75
228.335	92.67
228.553	31.23
228.771	37.38
228.989	27.14
229.206	80.38
229.424	90.62
229.642	31.23
229.86	4.61
230.077	96.77
230.295	16.9
230.513	76.29
230.731	27.14
230.948	92.67
231.166	18.94
231.384	27.14
231.601	72.19
231.819	-19.97
232.037	-7.68
232.254	53.76
232.472	33.28
232.689	68.09
232.907	88.57
233.125	-11.78
233.342	16.9
233.56	55.81
233.777	-22.02
233.995	14.85
234.213	61.95
234.43	16.9
234.648	76.29
234.865	39.42
235.083	33.28
235.3	35.33
235.518	49.66
235.735	18.94
235.953	59.9
236.17	27.14
236.388	-65.02
236.605	41.47
236.822	51.71
237.04	31.23
237.257	68.09
237.475	70.14
237.692	61.95
237.909	37.38
238.127	2.56
238.344	90.62
238.562	-1.54
238.779	-5.63
238.996	-48.64
239.214	0.51
239.431	64
239.648	-42.5
239.865	45.57
240.083	70.14
240.3	-28.16
240.517	-11.78
240.735	-3.58
240.952	117.25
241.169	53.76
241.386	92.67
241.603	-32.26
241.821	-75.26
242.038	-30.21
242.255	-15.87
242.472	45.57
242.689	31.23
242.907	61.95
243.124	-3.58
243.341	51.71
243.558	-3.58
243.775	-40.45
243.992	-3.58
244.209	113.15
244.426	37.38
244.643	49.66
244.86	14.85
245.078	27.14
245.295	49.66
245.512	113.15
245.729	-9.73
245.946	74.24
246.163	33.28
246.38	-38.4
246.597	-17.92
246.814	137.73
247.031	80.38
247.248	64
247.464	-1.54
247.681	-15.87
247.898	109.05
248.115	68.09
248.332	27.14
248.549	109.05
248.766	107.01
248.983	35.33
249.2	-50.69
249.417	39.42
249.633	29.18
249.85	131.58
250.067	-5.63
250.284	18.94
250.501	-5.63
250.717	39.42
250.934	-50.69
251.151	-7.68
251.368	25.09
251.585	6.66
251.801	70.14
252.018	12.8
252.235	53.76
252.451	-30.21
252.668	47.62
252.885	104.96
253.102	72.19
253.318	12.8
253.535	-9.73
253.752	10.75
253.968	4.61
254.185	-5.63
254.401	-81.41
254.618	33.28
254.835	43.52
255.051	29.18
255.268	-9.73
255.484	96.77
255.701	23.04
255.917	84.48
256.134	55.81
256.351	-34.3
256.567	-28.16
256.784	10.75
257	41.47
257.217	10.75
257.433	35.33
257.65	102.91
257.866	109.05
258.082	33.28
258.299	-11.78
258.515	-1.54
258.732	113.15
258.948	-1.54
259.165	10.75
259.381	37.38
259.597	51.71
259.814	45.57
260.03	76.29
260.246	-9.73
260.463	51.71
260.679	14.85
260.895	2.56
261.112	10.75
261.328	12.8
261.544	-46.59
261.761	129.53
261.977	23.04
262.193	18.94
262.409	37.38
262.626	68.09
262.842	-9.73
263.058	-22.02
263.274	14.85
263.49	4.61
263.707	72.19
263.923	-50.69
264.139	47.62
264.355	20.99
264.571	61.95
264.787	23.04
265.004	76.29
265.22	37.38
265.436	-7.68
265.652	43.52
265.868	51.71
266.084	-1.54
266.3	64
266.516	4.61
266.732	68.09
266.948	86.53
267.164	31.23
267.38	80.38
267.596	53.76
267.812	82.43
268.028	25.09
268.244	49.66
268.46	-11.78
268.676	35.33
268.892	16.9
269.108	39.42
269.324	47.62
269.54	-17.92
269.756	113.15
269.972	41.47
270.188	33.28
270.403	-52.74
270.619	16.9
270.835	55.81
271.051	4.61
271.267	35.33
271.483	51.71
271.698	18.94
271.914	23.04
272.13	14.85
272.346	-24.06
272.562	33.28
272.777	53.76
272.993	-11.78
273.209	-22.02
273.425	31.23
273.64	53.76
273.856	-1.54
274.072	-36.35
274.287	45.57
274.503	-9.73
274.719	27.14
274.934	35.33
275.15	-44.54
275.366	-5.63
275.581	-22.02
275.797	117.25
276.012	-24.06
276.228	37.38
276.444	-40.45
276.659	76.29
276.875	47.62
277.09	18.94
277.306	59.9
277.521	41.47
277.737	41.47
277.952	76.29
278.168	18.94
278.383	47.62
278.599	37.38
278.814	18.94
279.03	41.47
279.245	76.29
279.461	12.8
279.676	37.38
279.892	-26.11
280.107	27.14
280.322	-42.5
280.538	14.85
280.753	-46.59
280.969	49.66
281.184	-7.68
281.399	57.86
281.615	68.09
281.83	55.81
282.045	-1.54
282.26	78.33
282.476	76.29
282.691	37.38
282.906	66.05
283.122	-15.87
283.337	2.56
283.552	35.33
283.767	78.33
283.983	55.81
284.198	-36.35
284.413	57.86
284.628	23.04
284.843	25.09
285.058	68.09
285.274	8.7
285.489	37.38
285.704	72.19
285.919	70.14
286.134	55.81
286.349	107.01
286.564	33.28
286.779	-5.63
286.995	20.99
287.21	18.94
287.425	35.33
287.64	6.66
287.855	-28.16
288.07	14.85
288.285	76.29
288.5	10.75
288.715	31.23
288.93	-40.45
289.145	18.94
289.36	184.83
289.575	0.51
289.79	64
290.004	55.81
290.219	80.38
290.434	6.66
290.649	-15.87
290.864	78.33
291.079	31.23
291.294	78.33
291.509	51.71
291.724	47.62
291.938	59.9
292.153	68.09
292.368	20.99
292.583	92.67
292.798	74.24
293.012	12.8
293.227	68.09
293.442	23.04
293.657	43.52
293.871	49.66
294.086	47.62
294.301	98.81
294.516	20.99
294.73	98.81
294.945	-19.97
295.16	18.94
295.374	80.38
295.589	88.57
295.804	53.76
296.018	2.56
296.233	61.95
296.447	-46.59
296.662	84.48
296.877	39.42
297.091	10.75
297.306	10.75
297.52	-13.82
297.735	68.09
297.949	104.96
298.164	23.04
298.378	61.95
298.593	-32.26
298.807	14.85
299.022	23.04
299.236	123.39
299.451	27.14
299.665	-28.16
299.88	72.19
300.094	72.19
300.309	8.7
300.523	72.19
300.737	0.51
300.952	-30.21
301.166	6.66
301.381	-9.73
301.595	27.14
301.809	39.42
302.024	72.19
302.238	49.66
302.452	57.86
302.667	-28.16
302.881	100.86
303.095	51.71
303.309	18.94
303.524	-28.16
303.738	68.09
303.952	-40.45
304.166	35.33
304.381	6.66
304.595	18.94
304.809	37.38
305.023	41.47
305.237	6.66
305.452	31.23
305.666	-7.68
305.88	39.42
306.094	14.85
306.308	-7.68
306.522	78.33
306.736	2.56
306.95	37.38
307.164	6.66
307.379	-3.58
307.593	111.1
307.807	76.29
308.021	39.42
308.235	18.94
308.449	-11.78
308.663	18.94
308.877	102.91
309.091	-13.82
309.305	45.57
309.519	-17.92
309.733	-24.06
309.947	37.38
310.161	31.23
310.374	33.28
310.588	90.62
310.802	25.09
311.016	-26.11
311.23	-5.63
311.444	12.8
311.658	18.94
311.872	74.24
312.085	29.18
312.299	43.52
312.513	-1.54
312.727	61.95
312.941	-26.11
313.154	-22.02
313.368	37.38
313.582	96.77
313.796	115.2
314.009	6.66
314.223	39.42
314.437	39.42
314.651	39.42
314.864	-54.78
315.078	88.57
315.292	43.52
315.505	-32.26
315.719	39.42
315.933	29.18
316.146	-1.54
316.36	41.47
316.573	88.57
316.787	39.42
317.001	119.29
317.214	55.81
317.428	111.1
317.641	6.66
317.855	-32.26
318.068	66.05
318.282	23.04
318.495	80.38
318.709	84.48
318.922	-7.68
319.136	143.87
319.349	100.86
319.563	33.28
319.776	18.94
319.99	-1.54
320.203	51.71
320.417	-11.78
320.63	-17.92
320.843	102.91
321.057	8.7
321.27	45.57
321.483	14.85
321.697	64
321.91	59.9
322.124	25.09
322.337	-5.63
322.55	61.95
322.763	102.91
322.977	61.95
323.19	49.66
323.403	59.9
323.617	8.7
323.83	43.52
324.043	-9.73
324.256	20.99
324.469	45.57
324.683	117.25
324.896	47.62
325.109	-7.68
325.322	31.23
325.535	74.24
325.748	78.33
325.962	41.47
326.175	51.71
326.388	61.95
326.601	55.81
326.814	86.53
327.027	4.61
327.24	39.42
327.453	14.85
327.666	31.23
327.879	94.72
328.092	61.95
328.305	43.52
328.518	4.61
328.731	94.72
328.944	31.23
329.157	74.24
329.37	4.61
329.583	37.38
329.796	68.09
330.009	-30.21
330.222	27.14
330.435	45.57
330.648	70.14
330.861	43.52
331.073	45.57
331.286	41.47
331.499	51.71
331.712	-42.5
331.925	12.8
332.138	20.99
332.35	10.75
332.563	33.28
332.776	6.66
332.989	-9.73
333.202	88.57
333.414	-48.64
333.627	49.66
333.84	41.47
334.053	35.33
334.265	72.19
334.478	23.04
334.691	92.67
334.903	64
335.116	14.85
335.329	47.62
335.541	53.76
335.754	59.9
335.966	47.62
336.179	6.66
336.392	45.57
336.604	-19.97
336.817	37.38
337.029	8.7
337.242	23.04
337.454	53.76
337.667	94.72
337.88	35.33
338.092	45.57
338.305	86.53
338.517	-3.58
338.729	55.81
338.942	29.18
339.154	-48.64
339.367	10.75
339.579	84.48
339.792	49.66
340.004	129.53
340.217	53.76
340.429	72.19
340.641	-50.69
340.854	10.75
341.066	10.75
341.278	45.57
341.491	70.14
341.703	61.95
341.915	-58.88
342.128	49.66
342.34	-19.97
342.552	20.99
342.764	33.28
342.977	55.81
343.189	94.72
343.401	47.62
343.613	16.9
343.826	27.14
344.038	92.67
344.25	31.23
344.462	2.56
344.674	45.57
344.886	100.86
345.099	70.14
345.311	-1.54
345.523	-1.54
345.735	-42.5
345.947	68.09
346.159	2.56
346.371	41.47
346.583	0.51
346.795	154.11
347.007	-9.73
347.219	100.86
347.431	78.33
347.643	113.15
347.855	41.47
348.067	96.77
348.279	59.9
348.491	115.2
348.703	59.9
348.915	70.14
349.127	23.04
349.339	27.14
349.551	-58.88
349.763	92.67
349.975	35.33
350.187	98.81
350.399	94.72
350.61	6.66
350.822	31.23
351.034	94.72
351.246	129.53
351.458	86.53
351.669	76.29
351.881	74.24
352.093	66.05
352.305	72.19
352.517	23.04
352.728	55.81
352.94	55.81
353.152	90.62
353.363	55.81
353.575	29.18
353.787	43.52
353.999	102.91
354.21	131.58
354.422	45.57
354.633	-5.63
354.845	10.75
355.057	8.7
355.268	43.52
355.48	43.52
355.692	-15.87
355.903	-38.4
356.115	92.67
356.326	12.8
356.538	43.52
356.749	43.52
356.961	43.52
357.172	4.61
357.384	41.47
357.595	10.75
357.807	23.04
358.018	41.47
358.23	49.66
358.441	96.77
358.653	66.05
358.864	70.14
359.075	33.28
359.287	66.05
359.498	74.24
359.709	51.71
359.921	-1.54
360.132	68.09
360.344	-3.58
360.555	-19.97
360.766	88.57
360.977	8.7
361.189	139.77
361.4	10.75
361.611	35.33
361.823	84.48
362.034	55.81
362.245	-3.58
362.456	51.71
362.667	4.61
362.879	33.28
363.09	72.19
363.301	12.8
363.512	6.66
363.723	84.48
363.935	4.61
364.146	-7.68
364.357	-5.63
364.568	45.57
364.779	41.47
364.99	162.3
365.201	111.1
365.412	102.91
365.623	-5.63
365.834	68.09
366.045	45.57
366.256	61.95
366.467	59.9
366.678	72.19
366.889	20.99
367.1	25.09
367.311	86.53
367.522	-58.88
367.733	12.8
367.944	107.01
368.155	70.14
368.366	119.29
368.577	92.67
368.788	76.29
368.999	47.62
369.209	23.04
369.42	51.71
369.631	84.48
369.842	123.39
370.053	-11.78
370.264	64
370.474	45.57
370.685	59.9
370.896	57.86
371.107	39.42
371.317	31.23
371.528	57.86
371.739	-15.87
371.95	137.73
372.16	39.42
372.371	100.86
372.582	20.99
372.792	90.62
373.003	115.2
373.214	-52.74
373.424	12.8
373.635	-26.11
373.846	31.23
374.056	82.43
374.267	61.95
374.477	94.72
374.688	-3.58
374.898	125.44
375.109	47.62
375.319	64
375.53	139.77
375.74	-9.73
375.951	-19.97
376.161	53.76
376.372	78.33
376.582	25.09
376.793	43.52
377.003	107.01
377.214	51.71
377.424	27.14
377.635	55.81
377.845	2.56
378.055	141.82
378.266	29.18
378.476	86.53
378.686	76.29
378.897	-5.63
379.107	49.66
379.317	64
379.528	51.71
379.738	131.58
379.948	23.04
380.158	94.72
380.369	64
380.579	57.86
380.789	39.42
380.999	166.4
381.21	8.7
381.42	160.25
381.63	57.86
381.84	64
382.05	41.47
382.261	16.9
382.471	90.62
382.681	74.24
382.891	117.25
383.101	18.94
383.311	33.28
383.521	16.9
383.731	43.52
383.941	119.29
384.151	12.8
384.361	53.76
384.571	70.14
384.781	133.63
384.991	182.78
385.201	137.73
385.411	37.38
385.621	20.99
385.831	16.9
386.041	18.94
386.251	12.8
386.461	113.15
386.671	76.29
386.881	96.77
387.091	72.19
387.301	14.85
387.511	2.56
387.72	27.14
387.93	12.8
388.14	18.94
388.35	74.24
388.56	121.34
388.769	39.42
388.979	61.95
389.189	29.18
389.399	8.7
389.609	53.76
389.818	53.76
390.028	74.24
390.238	113.15
390.447	68.09
390.657	133.63
390.867	78.33
391.076	-15.87
391.286	68.09
391.496	86.53
391.705	104.96
391.915	6.66
392.125	113.15
392.334	14.85
392.544	-17.92
392.753	27.14
392.963	-17.92
393.172	72.19
393.382	14.85
393.591	147.97
393.801	49.66
394.01	125.44
394.22	-17.92
394.429	111.1
394.639	86.53
394.848	80.38
395.058	90.62
395.267	92.67
395.477	37.38
395.686	84.48
395.895	156.16
396.105	219.64
396.314	-13.82
396.524	90.62
396.733	80.38
396.942	182.78
397.152	53.76
397.361	80.38
397.57	152.06
397.78	102.91
397.989	137.73
398.198	127.49
398.407	55.81
398.617	115.2
398.826	88.57
399.035	98.81
399.244	141.82
399.453	82.43
399.663	80.38
399.872	143.87
400.081	111.1
400.29	90.62
400.499	61.95
400.708	184.83
400.917	94.72
401.127	49.66
401.336	68.09
401.545	227.84
401.754	160.25
401.963	111.1
402.172	74.24
402.381	102.91
402.59	121.34
402.799	111.1
403.008	80.38
403.217	64
403.426	109.05
403.635	70.14
403.844	137.73
404.053	113.15
404.262	92.67
404.471	145.92
404.68	156.16
404.888	111.1
405.097	145.92
405.306	141.82
405.515	203.26
405.724	201.21
405.933	113.15
406.142	166.4
406.35	279.04
406.559	197.12
406.768	133.63
406.977	205.31
407.185	195.07
407.394	244.22
407.603	176.64
407.812	221.69
408.02	264.7
408.229	250.36
408.438	283.13
408.646	260.6
408.855	242.17
409.064	254.46
409.272	268.8
409.481	309.76
409.69	209.4
409.898	225.79
410.107	338.43
410.315	328.19
410.524	301.56
410.733	358.91
410.941	233.98
411.15	391.67
411.358	373.24
411.567	453.11
411.775	453.11
411.984	442.87
412.192	510.46
412.401	389.63
412.609	428.54
412.818	481.78
413.026	535.03
413.234	512.5
413.443	565.75
413.651	584.18
413.86	547.32
414.068	528.89
414.276	594.42
414.485	643.57
414.693	625.14
414.901	633.33
415.11	762.36
415.318	719.35
415.526	768.5
415.734	713.21
415.943	707.06
416.151	825.84
416.359	780.79
416.567	831.99
416.776	944.63
416.984	930.29
417.192	983.54
417.4	1008.11
417.608	981.49
417.817	956.91
418.025	1110.51
418.233	1278.44
418.441	1169.9
418.649	1200.62
418.857	1241.58
419.065	1360.36
419.273	1319.4
419.481	1370.6
419.689	1368.56
419.897	1468.91
420.105	1501.67
420.313	1599.98
420.521	1690.09
420.729	1608.17
420.937	1759.72
421.145	1761.77
421.353	1886.69
421.561	1929.7
421.769	1993.19
421.977	2054.62
422.185	2161.12
422.393	2259.42
422.601	2308.57
422.809	2240.99
423.017	2398.68
423.224	2484.7
423.432	2619.86
423.64	2574.81
423.848	2865.62
424.056	2703.83
424.263	2953.68
424.471	3002.83
424.679	3045.84
424.887	3072.47
425.094	3328.46
425.302	3224.01
425.51	3398.09
425.718	3412.43
425.925	3365.32
426.133	3713.48
426.341	3912.13
426.548	3963.33
426.756	4035.01
426.964	3996.1
427.171	4368.83
427.379	4315.58
427.586	4577.72
427.794	4530.62
428.001	4823.48
428.209	5015.99
428.417	4860.34
428.624	5271.98
428.832	5263.79
429.039	5108.15
429.247	5411.25
429.454	5681.58
429.662	6074.79
429.869	5732.78
430.076	6044.07
430.284	5933.48
430.491	6224.29
430.699	6496.67
430.906	6476.19
431.114	6656.41
431.321	6961.56
431.528	6936.98
431.736	7674.25
431.943	7833.99
432.15	7547.28
432.358	7803.27
432.565	8219.01
432.772	8184.2
432.979	8235.39
433.187	8497.53
433.394	8841.59
433.601	9384.3
433.808	9257.33
434.016	9150.84
434.223	9548.14
434.43	10307.94
434.637	10019.18
434.844	10508.64
435.052	10805.6
435.259	10746.2
435.466	10461.54
435.673	10766.68
435.88	11346.26
436.087	11854.16
436.294	11913.55
436.501	11749.71
436.708	11915.59
436.915	12450.11
437.122	12896.57
437.329	13093.18
437.537	13064.5
437.743	13515.06
437.95	13209.91
438.157	14102.82
438.364	14225.7
438.571	14582.05
438.778	14645.54
438.985	16046.35
439.192	15468.82
439.399	15679.76
439.606	15382.81
439.813	16161.03
440.02	17213.69
440.227	16926.97
440.433	16922.88
440.64	17373.43
440.847	17103.1
441.054	17787.12
441.261	18536.68
441.467	18933.98
441.674	18907.36
441.881	19615.96
442.088	19486.93
442.294	19222.75
442.501	19742.93
442.708	20271.31
442.914	21000.38
443.121	22124.72
443.328	21205.18
443.534	22665.38
443.741	22202.54
443.948	21622.97
444.154	23621.78
444.361	23316.64
444.568	23500.95
444.774	23548.06
444.981	23771.29
445.187	24440.97
445.394	25434.24
445.6	24987.78
445.807	27785.3
446.013	26198.13
446.22	27052.13
446.426	27684.95
446.633	28387.41
446.839	28647.5
447.046	27777.11
447.252	29270.08
447.459	29315.14
447.665	29378.62
447.871	30517.29
448.078	31686.68
448.284	30201.91
448.491	30949.42
448.697	32055.32
448.903	32456.72
449.11	32776.2
449.316	32098.33
449.522	33026.06
449.728	33730.56
449.935	33642.49
450.141	33949.69
450.347	34719.73
450.553	33437.7
450.76	33808.38
450.966	34512.88
451.172	34123.77
451.378	35379.17
451.584	34867.18
451.791	35297.25
451.997	35153.9
452.203	35612.64
452.409	35805.15
452.615	35483.62
452.821	34252.79
453.027	33939.45
453.233	35481.57
453.44	34017.27
453.646	34607.09
453.852	34783.21
454.058	35205.09
454.264	34185.21
454.47	34701.29
454.676	34062.33
454.882	35028.97
455.088	31784.99
455.294	32514.06
455.5	33239.04
455.705	33161.22
455.911	31645.73
456.117	31387.68
456.323	30890.02
456.529	29188.16
456.735	30535.73
456.941	29519.93
457.147	29225.03
457.352	28291.15
457.558	27938.9
457.764	28174.42
457.97	27074.66
458.176	26703.98
458.381	26548.33
458.587	25454.72
458.793	25292.93
458.999	24238.22
459.204	25647.22
459.41	25452.67
459.616	23406.75
459.821	23599.26
460.027	23371.93
460.233	22864.04
460.438	21719.22
460.644	22321.32
460.85	21088.45
461.055	20959.42
461.261	20631.75
461.466	19155.16
461.672	18526.44
461.878	19808.47
462.083	18655.46
462.289	18485.48
462.494	18114.8
462.7	17471.73
462.905	16830.72
463.111	17385.72
463.316	17668.34
463.522	16931.07
463.727	17180.92
463.932	17162.49
464.138	17006.84
464.343	17056
464.549	16451.84
464.754	17084.67
464.959	17113.34
465.165	16789.76
465.37	16124.17
465.575	15819.02
465.781	16357.64
465.986	16503.04
466.191	15757.58
466.397	15532.31
466.602	15106.33
466.807	15352.09
467.012	15423.76
467.218	15214.87
467.423	15147.29
467.628	15081.75
467.833	15835.41
468.038	15339.8
468.244	14780.7
468.449	15339.8
468.654	14631.2
468.859	15022.36
469.064	14696.74
469.269	14143.78
469.474	14334.25
469.679	14287.14
469.885	13859.12
470.09	14205.22
470.295	14242.09
470.5	13723.95
470.705	13596.98
470.91	13379.89
471.115	13316.4
471.32	13433.14
471.525	13359.41
471.73	13281.59
471.935	13078.84
472.139	12656.96
472.344	12904.76
472.549	12839.23
472.754	12538.18
472.959	12374.34
473.164	12159.3
473.369	12196.17
473.574	12421.44
473.778	12200.26
473.983	12257.6
474.188	11962.7
474.393	11604.3
474.598	11497.81
474.802	11520.34
475.007	11432.27
475.212	11432.27
475.417	11096.41
475.621	11018.58
475.826	11129.17
476.031	10623.33
476.235	10811.74
476.44	10844.51
476.645	10555.74
476.849	10535.26
477.054	10537.31
477.259	10119.53
477.463	10453.34
477.668	10025.32
477.872	10180.96
478.077	9972.07
478.282	9920.87
478.486	9773.42
478.691	9886.06
478.895	9707.88
479.1	9636.2
479.304	9423.22
479.509	9324.91
479.713	9533.81
479.918	9341.3
480.122	9357.68
480.326	9279.86
480.531	9331.06
480.735	9087.35
480.94	9220.47
481.144	9388.4
481.348	9050.49
481.553	8894.84
481.757	8954.23
481.961	8825.21
482.166	9130.36
482.37	9132.4
482.574	8714.62
482.778	8868.22
482.983	9036.15
483.187	8956.28
483.391	8884.6
483.595	8966.52
483.8	8800.63
484.004	8935.8
484.208	9093.49
484.412	8968.57
484.616	9054.58
484.821	9056.63
485.025	8747.39
485.229	9038.2
485.433	8827.26
485.637	9003.38
485.841	8921.46
486.045	8921.46
486.249	8890.74
486.453	8882.55
486.657	8939.9
486.861	9150.84
487.065	8681.85
487.269	8857.98
487.473	8771.96
487.677	8984.95
487.881	8896.89
488.085	8857.98
488.289	9027.96
488.493	8917.37
488.697	8943.99
488.901	8919.42
489.105	9021.81
489.309	8993.14
489.512	9120.12
489.716	9005.43
489.92	8960.38
490.124	9025.91
490.328	9247.09
490.531	9197.94
490.735	9165.17
490.939	9294.19
491.143	9165.17
491.346	9195.89
491.55	9341.3
491.754	9234.8
491.958	9470.32
492.161	9333.11
492.365	9468.27
492.569	9535.85
492.772	9427.31
492.976	9492.85
493.18	9482.61
493.383	9793.9
493.587	9683.31
493.79	9707.88
493.994	9615.73
494.197	9763.18
494.401	9906.54
494.605	9863.53
494.808	10092.9
495.012	10209.64
495.215	10248.55
495.419	10449.25
495.622	10258.79
495.825	10371.43
496.029	10664.29
496.232	10738.01
496.436	10576.22
496.639	11016.54
496.843	10697.05
497.046	11084.12
497.249	11227.48
497.453	11184.47
497.656	11381.07
497.859	11342.16
498.063	11254.1
498.266	11839.82
498.469	11643.21
498.673	11800.91
498.876	12067.14
499.079	12140.87
499.282	12067.14
499.485	12708.16
499.689	12480.83
499.892	12671.29
500.095	12630.34
500.298	13013.31
500.501	12808.51
500.705	13234.49
500.908	13201.72
501.111	13637.94
501.314	13779.25
501.517	13871.4
501.72	13895.98
501.923	14031.15
502.126	14225.7
502.329	14471.46
502.532	14727.46
502.735	14590.24
502.938	14866.72
503.141	14829.85
503.344	15376.66
503.547	15331.61
503.75	15638.8
503.953	15560.98
504.156	15952.14
504.359	15882.51
504.562	16199.94
504.765	16560.39
504.968	16810.24
505.17	16781.57
505.373	16926.97
505.576	17246.46
505.779	17486.07
505.982	17373.43
506.185	17797.36
506.387	17735.92
506.59	17987.82
506.793	18079.98
506.996	18106.6
507.198	18481.38
507.401	18804.96
507.604	19013.85
507.807	19241.18
508.009	19333.34
508.212	19493.08
508.415	19742.93
508.617	19955.92
508.82	19857.62
509.022	20222.16
509.225	20814.02
509.428	20777.15
509.63	20928.7
509.833	21106.88
510.035	21612.73
510.238	21377.21
510.44	21627.06
510.643	22040.75
510.845	22286.51
511.048	22151.34
511.25	22735.01
511.453	22773.92
511.655	23763.09
511.858	23279.77
512.06	23441.56
512.262	23703.7
512.465	23535.77
512.667	24481.93
512.87	24002.71
513.072	24463.5
513.274	25036.93
513.477	25127.04
513.679	25385.08
513.881	25356.41
514.084	26093.68
514.286	25987.19
514.488	26466.41
514.69	26878.05
514.893	26679.4
515.095	26931.3
515.297	27517.02
515.499	27547.74
515.701	27725.91
515.904	28207.19
516.106	28266.58
516.308	28741.71
516.51	29014.09
516.712	28837.96
516.914	29290.56
517.116	29622.33
517.318	30029.88
517.52	30122.04
517.722	30062.65
517.925	30492.72
518.127	30730.28
518.329	31342.63
518.531	30969.9
518.733	31737.88
518.935	31866.91
519.136	32149.53
519.338	32798.73
519.54	32210.96
519.742	33083.4
519.944	33312.77
520.146	33384.45
520.348	33759.23
520.55	33957.88
520.752	34002.94
520.954	34660.34
521.155	34533.36
521.357	35391.46
521.559	35133.42
521.761	36063.19
521.963	35891.16
522.164	36251.61
522.366	36437.97
522.568	36487.12
522.77	36741.07
522.971	37541.83
523.173	37158.86
523.375	37244.87
523.576	37578.69
523.778	37650.37
523.98	38293.43
524.181	38293.43
524.383	38598.58
524.584	38717.36
524.786	38485.94
524.988	38881.2
525.189	39450.53
525.391	39554.98
525.592	39827.36
525.794	39761.83
525.995	39866.27
526.197	40312.73
526.398	40267.67
526.6	40658.84
526.801	40732.56
527.003	40714.13
527.204	40945.55
527.406	41349
527.607	41590.66
527.808	41734.02
528.01	41265.03
528.211	41875.33
528.412	42737.52
528.614	42018.69
528.815	42133.37
529.016	43044.72
529.218	42319.74
529.419	42780.53
529.62	42649.46
529.822	42798.96
530.023	43007.86
530.224	42985.33
530.425	42938.22
530.626	43028.34
530.828	42960.75
531.029	43597.67
531.23	43028.34
531.431	43323.24
531.632	43665.25
531.833	43450.22
532.035	43616.1
532.236	43581.29
532.437	43695.97
532.638	43454.31
532.839	43939.68
533.04	44236.64
533.241	43638.63
533.442	44207.97
533.643	44355.42
533.844	44359.52
534.045	44074.85
534.246	43925.35
534.447	44488.54
534.648	44033.89
534.849	43913.06
535.05	44087.14
535.251	44439.39
535.451	44287.84
535.652	44736.34
535.853	44246.88
536.054	44224.35
536.255	44312.41
536.456	44220.25
536.657	45098.83
536.857	44568.41
537.058	44218.21
537.259	45039.44
537.46	44728.15
537.66	44517.21
537.861	44801.88
538.062	44517.21
538.263	44564.31
538.463	44343.13
538.664	44394.33
538.865	44635.99
539.065	44517.21
539.266	44408.67
539.466	44894.03
539.667	44267.36
539.868	44939.09
540.068	44586.84
540.269	44787.54
540.469	44511.06
540.67	44506.97
540.87	44132.19
541.071	44210.01
541.271	44443.48
541.472	44873.56
541.672	44441.43
541.873	44343.13
542.073	43960.16
542.274	44930.9
542.474	44216.16
542.675	44302.17
542.875	44359.52
543.075	44269.4
543.276	43628.39
543.476	44914.51
543.676	43911.01
543.877	44646.23
544.077	44150.62
544.277	44377.95
544.478	44255.07
544.678	44799.83
544.878	44466.01
545.078	44447.58
545.279	43798.37
545.479	44359.52
545.679	44289.88
545.879	44470.11
546.079	44156.77
546.28	44468.06
546.48	43990.88
546.68	44433.24
546.88	44199.77
547.08	44257.12
547.28	44523.35
547.48	43863.91
547.68	44341.08
547.88	43829.09
548.081	44140.38
548.281	44375.9
548.481	43816.8
548.681	44257.12
548.881	44144.48
549.081	44324.7
549.28	43638.63
549.48	44326.75
549.68	44228.45
549.88	44521.3
550.08	44218.21
550.28	43923.3
550.48	43679.59
550.68	44203.87
550.88	43921.25
551.08	43943.78
551.279	44343.13
551.479	43958.11
551.679	44076.9
551.879	43878.24
552.079	44154.72
552.278	44205.92
552.478	44091.23
552.678	43951.97
552.878	44179.29
553.077	43523.94
553.277	43343.72
553.477	44466.01
553.676	43550.57
553.876	43700.07
554.076	43724.64
554.275	43605.86
554.475	43544.42
554.674	43745.12
554.874	43612.01
555.074	43642.73
555.273	43396.97
555.473	43835.24
555.672	43775.84
555.872	42987.38
556.071	43425.64
556.271	43978.59
556.47	42864.5
556.67	42872.69
556.869	43147.12
557.068	43210.6
557.268	42530.68
557.467	42927.98
557.667	43331.43
557.866	42737.52
558.065	43085.68
558.265	42817.39
558.464	42841.97
558.663	42508.15
558.863	42528.63
559.062	42848.11
559.261	42368.89
559.461	43224.94
559.66	42258.3
559.859	42352.51
560.058	41766.79
560.258	42395.51
560.457	42078.08
560.656	42753.91
560.855	41809.79
561.054	42387.32
561.253	41854.85
561.453	42114.94
561.652	42041.21
561.851	42147.71
562.05	41906.05
562.249	41566.09
562.448	41967.49
562.647	41568.13
562.846	41377.67
563.045	41461.64
563.244	40951.7
563.443	41615.24
563.642	40923.02
563.841	41066.38
564.04	40877.97
564.239	41561.99
564.438	40664.98
564.637	41109.39
564.836	41144.2
565.035	40304.54
565.234	40859.54
565.432	40578.96
565.631	40009.63
565.83	40464.28
566.029	39980.96
566.228	40058.78
566.427	39987.1
566.625	39698.34
566.824	39200.68
567.023	39747.49
567.222	38959.02
567.42	40009.63
567.619	39321.51
567.818	39210.92
568.016	39067.56
568.215	39481.25
568.414	38723.51
568.612	39573.41
568.811	38709.17
569.01	39178.15
569.208	38707.12
569.407	38305.72
569.605	38623.15
569.804	38700.98
570.002	38401.97
570.201	38494.13
570.4	38313.91
570.598	38160.31
570.797	37928.89
570.995	37957.56
571.193	37285.83
571.392	37578.69
571.59	37470.15
571.789	37672.9
571.987	37429.19
572.186	36992.97
572.384	37240.78
572.582	37377.99
572.781	37427.14
572.979	36775.89
573.177	37265.35
573.376	36851.66
573.574	36587.47
573.772	36814.8
573.971	36317.14
574.169	36370.39
574.367	36030.43
574.565	36229.08
574.763	36143.06
574.962	36581.33
575.16	35647.46
575.358	35979.23
575.556	35667.94
575.754	35942.36
575.952	35434.47
576.151	35764.19
576.349	35088.36
576.547	35037.16
576.745	35545.06
576.943	35053.55
577.141	34990.06
577.339	35334.12
577.537	34588.66
577.735	34732.01
577.933	34668.53
578.131	34686.96
578.329	34670.57
578.527	34404.34
578.725	34568.18
578.923	34416.63
579.121	33974.27
579.319	33898.49
579.516	34127.86
579.714	33923.07
579.912	33579.01
580.11	33579.01
580.308	33714.17
580.506	33509.38
580.704	33097.73
580.901	33624.06
581.099	33431.55
581.297	33280
581.495	32800.78
581.692	32997.38
581.89	33130.5
582.088	32974.86
582.285	32718.86
582.483	32866.31
582.681	32438.29
582.878	32604.17
583.076	31959.06
583.274	32401.43
583.471	32243.73
583.669	32188.44
583.866	31981.59
584.064	32090.13
584.262	31625.25
584.459	31866.91
584.657	31815.71
584.854	32077.85
585.052	31150.12
585.249	31680.54
585.447	31631.39
585.644	31223.84
585.841	31010.85
586.039	31447.07
586.236	30873.64
586.434	31035.43
586.631	30750.76
586.828	30769.19
587.026	30660.65
587.223	30748.71
587.42	30423.09
587.618	30670.89
587.815	30195.76
588.012	30191.67
588.21	30042.17
588.407	30361.65
588.604	30048.31
588.801	29806.65
588.999	29882.42
589.196	29761.59
589.393	29765.69
589.59	29505.6
589.787	29300.8
589.984	29507.65
590.182	29452.35
590.379	29227.07
590.576	29208.64
590.773	29194.31
590.97	28788.81
591.167	29007.94
591.364	28510.28
591.561	28684.36
591.758	28360.78
591.955	28545.1
592.152	28794.95
592.349	28416.08
592.546	28532.81
592.743	27959.38
592.94	27611.23
593.137	27854.93
593.334	28076.12
593.531	27705.43
593.727	28010.58
593.924	27961.43
594.121	27609.18
594.318	27922.52
594.515	27594.84
594.712	27709.53
594.908	27293.79
595.105	27070.56
595.302	27179.11
595.499	27162.72
595.696	27299.94
595.892	27193.44
596.089	26818.66
596.286	26796.14
596.482	26675.3
596.679	26650.73
596.876	27033.7
597.072	26529.9
597.269	26652.78
597.466	26212.46
597.662	26155.12
597.859	26499.18
598.055	26402.93
598.252	26085.49
598.448	25821.3
598.645	26165.36
598.841	25690.23
599.038	25733.24
599.234	25804.92
599.431	25596.03
599.627	25663.61
599.824	25598.07
600.02	25596.03
600.217	25262.21
600.413	25086.08
600.609	25051.27
600.806	24836.23
601.002	25045.12
601.198	25069.7
601.395	24926.34
601.591	24909.96
601.787	24752.26
601.984	24602.76
602.18	24582.28
602.376	24434.83
602.572	24418.44
602.769	24385.68
602.965	24002.71
603.161	24264.85
603.357	24295.57
603.553	23845.01
603.75	23789.72
603.946	23871.64
604.142	24107.15
604.338	23226.53
604.534	23842.96
604.73	23806.1
604.926	23503
605.122	23795.86
605.318	23398.55
605.514	23330.97
605.71	22997.15
605.906	23107.74
606.102	23437.47
606.298	23146.65
606.494	23220.38
606.69	22904.99
606.886	23158.94
607.082	22540.46
607.278	22743.2
607.474	22536.36
607.67	22872.23
607.866	22495.4
608.062	22599.85
608.257	22329.52
608.453	22468.78
608.649	22503.59
608.845	22304.94
609.041	22313.13
609.236	22341.8
609.432	22167.73
609.628	22098.09
609.824	22161.58
610.019	22124.72
610.215	21844.15
610.411	22186.16
610.606	21815.48
610.802	21653.69
610.998	22026.42
611.193	21762.23
611.389	21639.35
611.584	21608.63
611.78	21336.25
611.976	21301.43
612.171	21397.69
612.367	21389.5
612.562	21149.89
612.758	20877.51
612.953	20986.05
613.149	21495.99
613.344	20957.38
613.539	21248.19
613.735	20984
613.93	20680.9
614.126	20973.76
614.321	21100.73
614.517	20947.14
614.712	20977.86
614.907	20664.52
615.103	20887.75
615.298	20611.27
615.493	20818.11
615.688	20498.63
615.884	20650.18
616.079	20392.14
616.274	20750.53
616.47	20281.55
616.665	20519.11
616.86	20252.87
617.055	20285.64
617.25	20367.56
617.445	20420.81
617.641	19861.71
617.836	20162.76
618.031	19785.94
618.226	20095.18
618.421	19874
618.616	19552.47
618.811	19726.55
619.006	19732.69
619.201	19362.01
619.396	19808.47
619.591	19470.55
619.786	19503.32
619.981	19206.36
620.176	19189.98
620.371	18938.08
620.566	18968.8
620.761	19040.48
620.956	19235.03
621.151	18882.78
621.346	18792.67
621.541	18567.4
621.735	18759.91
621.93	17885.42
622.125	18622.69
622.32	18077.93
622.515	18149.61
622.709	18047.21
622.904	18319.59
623.099	17785.07
623.294	18039.02
623.488	17789.17
623.683	17615.09
623.878	17443.06
624.072	17375.48
624.267	17281.27
624.462	17277.18
624.656	17441.01
624.851	17084.67
625.046	16906.49
625.24	17086.72
625.435	16754.94
625.629	16625.92
625.824	16623.87
626.018	16822.53
626.213	16206.09
626.407	16406.79
626.602	16261.38
626.796	16331.01
626.991	16072.97
627.185	16224.52
627.38	16062.73
627.574	15956.24
627.768	15694.1
627.963	15630.61
628.157	15649.04
628.352	15722.77
628.546	15202.58
628.74	15620.37
628.935	15104.28
629.129	15255.83
629.323	14973.21
629.517	14965.02
629.712	15020.31
629.906	14989.6
630.1	14831.9
630.294	14743.84
630.489	14772.51
630.683	14530.85
630.877	14713.12
631.071	14358.82
631.265	14475.56
631.459	14192.94
631.653	14047.53
631.848	14174.5
632.042	14264.61
632.236	14133.54
632.43	13848.88
632.624	13930.8
632.818	13803.82
633.012	13494.58
633.206	13744.43
633.4	13629.74
633.594	13314.36
633.788	13293.88
633.982	13416.76
634.176	13302.07
634.369	13109.56
634.563	13527.35
634.757	12966.2
634.951	13084.98
635.145	12896.57
635.339	13019.45
635.533	12740.93
635.726	12607.81
635.92	12654.91
636.114	12650.81
636.308	12550.46
636.501	12540.22
636.695	12441.92
636.889	12228.93
637.083	12339.52
637.276	11954.51
637.47	12128.58
637.664	11899.21
637.857	12151.11
638.051	11848.01
638.244	11542.86
638.438	11616.59
638.632	11831.63
638.825	11344.21
639.019	11387.22
639.212	11364.69
639.406	11256.15
639.599	11694.41
639.793	11241.81
639.986	11145.56
640.18	11100.5
640.373	11237.72
640.567	11084.12
640.76	11057.5
640.954	10963.29
641.147	10803.55
641.34	10819.93
641.534	10738.01
641.727	10711.39
641.92	10787.16
642.114	10420.58
642.307	10502.5
642.5	10393.95
642.694	10334.56
642.887	10348.9
643.08	10484.06
643.273	10242.4
643.467	10180.96
643.66	10111.33
643.853	10031.46
644.046	10033.51
644.239	10142.05
644.432	9963.88
644.626	9726.32
644.819	9720.17
645.012	9746.8
645.205	9478.51
645.398	9507.18
645.591	9632.11
645.784	9550.19
645.977	9365.87
646.17	9402.74
646.363	9275.76
646.556	9255.28
646.749	9226.61
646.942	9232.76
647.135	9253.23
647.328	9171.32
647.521	9159.03
647.714	8864.12
647.907	8663.42
648.099	8964.47
648.292	8829.31
648.485	8921.46
648.678	8675.71
648.871	8720.76
649.064	8448.38
649.256	8575.36
649.449	8608.12
649.642	8468.86
649.835	8376.7
650.027	8262.02
650.22	8393.09
650.413	8321.41
650.605	8294.79
650.798	8305.03
650.991	8180.1
651.183	8130.95
651.376	8126.85
651.568	8266.11
651.761	8163.72
651.954	8073.6
652.146	7967.11
652.339	7903.62
652.531	7958.92
652.724	7889.29
652.916	7844.23
653.109	7741.83
653.301	7688.59
653.494	7739.79
653.686	7455.12
653.879	7684.49
654.071	7534.99
654.263	7516.56
654.456	7399.82
654.648	7680.39
654.84	7432.59
655.033	7379.34
655.225	7477.65
655.417	7172.5
655.61	7285.14
655.802	7240.08
655.994	7219.6
656.186	7174.55
656.379	7125.4
656.571	7197.07
656.763	6926.74
656.955	6984.09
657.148	6963.61
657.34	6984.09
657.532	6830.49
657.724	6982.04
657.916	6893.97
658.108	6805.91
658.3	6707.61
658.492	6703.51
658.684	6699.42
658.876	6615.45
659.068	6502.81
659.26	6519.2
659.452	6533.53
659.644	6527.39
659.836	6404.51
660.028	6402.46
660.22	6381.98
660.412	6443.42
660.604	6359.45
660.796	6468
660.988	6128.03
661.18	6252.96
661.372	6185.38
661.563	6343.07
661.755	6093.22
661.947	6029.73
662.139	5892.52
662.331	5974.44
662.522	5783.98
662.714	5945.77
662.906	5935.53
663.097	5833.13
663.289	5921.19
663.481	5730.73
663.673	5790.12
663.864	5869.99
664.056	5749.16
664.247	5636.52
664.439	5663.15
664.631	5843.37
664.822	5687.72
665.014	5626.28
665.205	5587.37
665.397	5634.47
665.588	5605.8
665.78	5437.87
665.971	5366.19
666.163	5527.98
666.354	5458.35
666.546	5341.61
666.737	5433.77
666.929	5392.81
667.12	5417.39
667.311	5349.81
667.503	5175.73
667.694	5286.32
667.885	5183.92
668.077	5228.98
668.268	5183.92
668.459	5271.98
668.651	5179.82
668.842	5181.87
669.033	5149.11
669.224	4991.41
669.416	5052.85
669.607	5028.28
669.798	5001.65
669.989	5065.14
670.18	5050.8
670.371	5038.52
670.563	4858.29
670.754	5011.89
670.945	4944.31
671.136	4979.12
671.327	4934.07
671.518	4848.05
671.709	4866.49
671.9	5005.75
672.091	4964.79
672.282	4700.6
672.473	4688.31
672.664	4719.03
672.855	4874.68
673.046	4800.95
673.237	4774.33
673.428	4958.64
673.619	4774.33
673.809	4788.66
674	4759.99
674.191	4884.92
674.382	4708.79
674.573	4673.98
674.764	4606.39
674.954	4770.23
675.145	4725.18
675.336	4731.32
675.527	4618.68
675.717	4684.22
675.908	4600.25
676.099	4649.4
676.289	4528.57
676.48	4506.04
676.671	4454.84
676.861	4524.47
677.052	4508.09
677.243	4577.72
677.433	4577.72
677.624	4536.76
677.814	4618.68
678.005	4573.63
678.195	4553.15
678.386	4518.33
678.576	4428.22
678.767	4360.64
678.957	4413.88
679.148	4542.91
679.338	4686.26
679.529	4559.29
679.719	4493.76
679.909	4565.43
680.1	4409.79
680.29	4469.18
680.481	4340.16
680.671	4395.45
680.861	4352.45
681.052	4430.27
681.242	4256.19
681.432	4454.84
681.622	4485.56
681.813	4469.18
682.003	4426.17
682.193	4377.02
682.383	4409.79
682.573	4463.04
682.764	4348.35
682.954	4362.69
683.144	4348.35
683.334	4305.34
683.524	4233.66
683.714	4346.3
683.904	4176.32
684.094	4266.43
684.284	4184.51
684.474	4278.72
684.664	4202.94
684.854	4338.11
685.044	4327.87
685.234	4129.22
685.424	4184.51
685.614	4233.66
685.804	4348.35
685.994	4237.76
686.184	4258.24
686.374	4200.9
686.564	4133.31
686.753	4231.62
686.943	3944.9
687.133	4229.57
687.323	4080.07
687.513	4061.63
687.702	4028.87
687.892	4151.74
688.082	4028.87
688.272	3905.99
688.461	3951.04
688.651	3955.14
688.841	3973.57
689.03	3871.17
689.22	3985.86
689.41	3959.24
689.599	3916.23
689.789	3893.7
689.979	3905.99
690.168	3936.71
690.358	3799.49
690.547	3783.11
690.737	3693
690.926	3865.03
691.116	3754.44
691.305	3693
691.495	3844.55
691.684	3834.31
691.874	3752.39
692.063	3750.34
692.252	3776.97
692.442	3799.49
692.631	3754.44
692.82	3627.46
693.01	3641.8
693.199	3697.1
693.388	3643.85
693.578	3545.55
693.767	3797.45
693.956	3477.96
694.146	3570.12
694.335	3486.15
694.524	3492.3
694.713	3611.08
694.902	3455.44
695.092	3676.62
695.281	3570.12
695.47	3545.55
695.659	3486.15
695.848	3383.76
696.037	3471.82
696.226	3512.78
696.415	3416.52
696.604	3504.59
696.793	3410.38
696.982	3635.66
697.171	3498.44
697.36	3482.06
697.549	3576.27
697.738	3357.13
697.927	3367.37
698.116	3389.9
698.305	3307.98
698.494	3412.43
698.683	3328.46
698.872	3475.91
699.061	3486.15
699.25	3441.1
699.438	3426.76
699.627	3443.15
699.816	3281.36
700.005	3256.78
700.193	3461.58
700.382	3494.35
700.571	3320.27
700.76	3346.89
700.948	3525.07
701.137	3410.38
701.326	3361.23
701.514	3389.9
701.703	3346.89
701.892	3295.69
702.08	3369.42
702.269	3426.76
702.457	3344.84
702.646	3451.34
702.834	3312.08
703.023	3391.95
703.212	3365.32
703.4	3342.8
703.589	3238.35
703.777	3367.37
703.965	3330.51
704.154	3267.02
704.342	3477.96
704.531	3305.93
704.719	3264.97
704.907	3408.33
705.096	3275.21
705.284	3254.73
705.472	3332.56
705.661	3283.41
705.849	3221.97
706.037	3209.68
706.226	3293.65
706.414	3275.21
706.602	3297.74
706.79	3238.35
706.979	3357.13
707.167	3303.89
707.355	3193.3
707.543	3324.37
707.731	3326.41
707.919	3389.9
708.107	3381.71
708.296	3365.32
708.484	3209.68
708.672	3303.89
708.86	3320.27
709.048	3303.89
709.236	3203.54
709.424	3224.01
709.612	3252.69
709.8	3324.37
709.988	3197.39
710.176	3381.71
710.364	3391.95
710.551	3373.52
710.739	3299.79
710.927	3277.26
711.115	3316.17
711.303	3373.52
711.491	3221.97
711.679	3273.17
711.866	3338.7
712.054	3299.79
712.242	3316.17
712.43	3254.73
712.617	3140.05
712.805	3295.69
712.993	3330.51
713.181	3152.34
713.368	3248.59
713.556	3221.97
713.744	3221.97
713.931	3449.29
714.119	3207.63
714.306	3379.66
714.494	3312.08
714.682	3336.65
714.869	3199.44
715.057	3232.21
715.244	3357.13
715.432	3246.54
715.619	3279.31
715.807	3211.73
715.994	3373.52
716.182	3226.06
716.369	3332.56
716.556	3264.97
716.744	3244.49
716.931	3176.91
717.119	3369.42
717.306	3269.07
717.493	3389.9
717.681	3365.32
717.868	3377.61
718.055	3193.3
718.242	3183.06
718.43	3383.76
718.617	3219.92
718.804	3242.45
718.991	3299.79
719.179	3244.49
719.366	3291.6
719.553	3283.41
719.74	3240.4
719.927	3264.97
720.114	3303.89
720.301	3205.58
720.488	3242.45
720.676	3174.86
720.863	3355.08
721.05	3217.87
721.237	3224.01
721.424	3275.21
721.611	3199.44
721.798	3242.45
721.985	3256.78
722.172	3144.14
722.358	3191.25
722.545	3254.73
722.732	3264.97
722.919	3314.13
723.106	3230.16
723.293	3191.25
723.48	3258.83
723.667	3256.78
723.853	3293.65
724.04	3248.59
724.227	3181.01
724.414	3135.95
724.6	3246.54
724.787	3189.2
724.974	3252.69
725.161	3162.58
725.347	3117.52
725.534	3019.22
725.72	3207.63
725.907	3183.06
726.094	3117.52
726.28	3150.29
726.467	3150.29
726.653	3080.66
726.84	3140.05
727.027	3090.9
727.213	3234.25
727.4	3213.77
727.586	3133.9
727.773	3115.47
727.959	3121.62
728.145	3107.28
728.332	3183.06
728.518	3129.81
728.705	3099.09
728.891	3123.66
729.077	3068.37
729.264	3156.43
729.45	3058.13
729.636	3215.82
729.823	3045.84
730.009	3080.66
730.195	3193.3
730.382	3021.27
730.568	3054.03
730.754	3074.51
730.94	3023.31
731.126	3123.66
731.313	2984.4
731.499	3123.66
731.685	3131.86
731.871	3033.55
732.057	3101.14
732.243	3058.13
732.429	3156.43
732.615	3094.99
732.801	3070.42
732.987	3049.94
733.173	3107.28
733.359	3023.31
733.545	3027.41
733.731	3084.75
733.917	3070.42
734.103	3140.05
734.289	3090.9
734.475	3023.31
734.661	2984.4
734.847	2986.45
735.033	3111.38
735.219	2945.49
735.404	2970.07
735.59	2947.54
735.776	2898.39
735.962	2992.59
736.148	3058.13
736.333	2959.83
736.519	2886.1
736.705	3004.88
736.89	2824.66
737.076	2935.25
737.262	2861.52
737.447	3004.88
737.633	2845.14
737.819	2931.16
738.004	2912.72
738.19	2970.07
738.375	2963.92
738.561	2912.72
738.747	2894.29
738.932	2836.95
739.118	2851.28
739.303	2873.81
739.489	2820.56
739.674	2963.92
739.859	2781.65
740.045	2931.16
740.23	2767.32
740.416	2728.41
740.601	2777.56
740.786	2757.08
740.972	2791.89
741.157	2746.84
741.342	2683.35
741.528	2726.36
741.713	2712.02
741.898	2656.73
742.084	2685.4
742.269	2736.6
742.454	2816.47
742.639	2722.26
742.824	2636.25
743.01	2697.69
743.195	2664.92
743.38	2607.58
743.565	2525.66
743.75	2636.25
743.935	2664.92
744.12	2669.02
744.305	2572.76
744.49	2539.99
744.675	2570.71
744.86	2546.14
745.045	2519.51
745.23	2435.55
745.415	2548.19
745.6	2398.68
745.785	2447.83
745.97	2580.95
746.155	2386.4
746.34	2417.12
746.525	2404.83
746.71	2419.16
746.895	2425.31
747.079	2361.82
747.264	2314.72
747.449	2433.5
747.634	2363.87
747.819	2288.09
748.003	2322.91
748.188	2413.02
748.373	2296.28
748.557	2284
748.742	2288.09
748.927	2220.51
749.111	2161.12
749.296	2222.56
749.481	2204.13
749.665	2009.57
749.85	1958.37
750.034	2161.12
750.219	2032.1
750.404	2085.34
750.588	2060.77
750.773	2091.49
750.957	2107.87
751.141	2034.14
751.326	2058.72
751.51	2003.43
751.695	2052.58
751.879	2062.82
752.064	1974.75
752.248	2005.47
752.432	1837.54
752.617	2007.52
752.801	1937.89
752.985	1817.06
753.17	1896.93
753.354	1882.6
753.538	1792.48
753.722	1845.73
753.907	1903.07
754.091	1815.01
754.275	1788.39
754.459	1849.83
754.643	1853.92
754.828	1741.29
755.012	1874.4
755.196	1698.28
755.38	1757.67
755.564	1747.43
755.748	1788.39
755.932	1735.14
756.116	1688.04
756.3	1679.85
756.484	1706.47
756.668	1710.57
756.852	1683.94
757.036	1540.58
757.22	1577.45
757.404	1624.55
757.588	1599.98
757.772	1636.84
757.956	1608.17
758.14	1554.92
758.323	1548.78
758.507	1604.07
758.691	1489.39
758.875	1456.62
759.059	1581.54
759.242	1485.29
759.426	1470.95
759.61	1386.99
759.794	1485.29
759.977	1516.01
760.161	1448.43
760.345	1395.18
760.528	1487.34
760.712	1425.9
760.895	1423.85
761.079	1440.23
761.263	1397.23
761.446	1298.92
761.63	1438.19
761.813	1436.14
761.997	1380.84
762.18	1425.9
762.364	1317.36
762.547	1339.88
762.731	1343.98
762.914	1333.74
763.098	1346.03
763.281	1184.24
763.464	1323.5
763.648	1321.45
763.831	1235.44
764.015	1325.55
764.198	1294.83
764.381	1268.2
764.564	1219.05
764.748	1253.87
764.931	1309.16
765.114	1278.44
765.297	1251.82
765.481	1245.68
765.664	1262.06
765.847	1229.29
766.03	1202.67
766.213	1126.89
766.397	1180.14
766.58	1186.29
766.763	1219.05
766.946	1237.49
767.129	1139.18
767.312	1235.44
767.495	1100.27
767.678	1116.65
767.861	1145.33
768.044	1149.42
768.227	1147.37
768.41	1161.71
768.593	1094.13
768.776	1104.37
768.959	1061.36
769.142	1061.36
769.324	1081.84
769.507	1092.08
769.69	1038.83
769.873	1096.18
770.056	1149.42
770.239	999.92
770.421	1176.05
770.604	1104.37
770.787	1059.31
770.97	1010.16
771.152	1059.31
771.335	1047.02
771.518	956.91
771.7	1028.59
771.883	1038.83
772.066	963.06
772.248	1018.35
772.431	971.25
772.613	1022.45
772.796	1012.21
772.978	977.39
773.161	1073.65
773.343	973.3
773.526	1001.97
773.708	983.54
773.891	848.37
774.073	985.58
774.256	1004.02
774.438	887.28
774.621	915.95
774.803	872.95
774.985	932.34
775.168	858.61
775.35	846.32
775.532	911.86
775.715	829.94
775.897	821.75
776.079	840.18
776.261	842.23
776.444	811.51
776.626	764.4
776.808	774.64
776.99	774.64
777.173	819.7
777.355	745.97
777.537	862.71
777.719	795.12
777.901	842.23
778.083	797.17
778.265	782.84
778.447	782.84
778.629	842.23
778.811	782.84
778.993	727.54
779.175	811.51
779.357	750.07
779.539	696.82
779.721	719.35
779.903	731.64
780.085	764.4
780.267	653.81
780.449	645.62
780.631	715.25
780.812	778.74
780.994	735.73
781.176	686.58
781.358	690.68
781.54	580.09
781.721	662.01
781.903	649.72
782.085	635.38
782.267	672.25
782.448	680.44
782.63	621.05
782.812	616.95
782.993	641.53
783.175	657.91
783.357	557.56
783.538	645.62
783.72	541.18
783.901	567.8
784.083	584.18
784.264	481.78
784.446	551.42
784.627	479.74
784.809	571.9
784.99	512.5
785.172	539.13
785.353	604.66
785.535	530.94
785.716	612.85
785.897	537.08
786.079	608.76
786.26	547.32
786.441	442.87
786.623	416.25
786.804	520.7
786.985	514.55
787.167	492.02
787.348	418.3
787.529	514.55
787.71	598.52
787.891	483.83
788.073	518.65
788.254	408.06
788.435	467.45
788.616	485.88
788.797	463.35
788.978	469.5
789.159	512.5
789.34	432.63
789.522	506.36
789.703	461.3
789.884	489.98
790.065	403.96
790.246	457.21
790.427	422.39
790.607	457.21
790.788	498.17
790.969	430.59
791.15	449.02
791.331	440.83
791.512	444.92
791.693	418.3
791.874	385.53
792.054	489.98
792.235	393.72
792.416	473.59
792.597	446.97
792.778	436.73
792.958	457.21
793.139	350.71
793.32	297.47
793.5	311.8
793.681	418.3
793.862	381.43
794.042	422.39
794.223	375.29
794.404	395.77
794.584	389.63
794.765	334.33
794.945	334.33
795.126	420.35
795.306	375.29
795.487	334.33
795.667	360.95
795.848	434.68
796.028	344.57
796.209	369.15
796.389	432.63
796.57	305.66
796.75	354.81
796.93	358.91
797.111	350.71
797.291	399.87
797.471	393.72
797.652	313.85
797.832	293.37
798.012	326.14
798.192	285.18
798.373	276.99
798.553	254.46
798.733	301.56
798.913	352.76
799.093	260.6
799.274	360.95
799.454	350.71
799.634	301.56
799.814	338.43
799.994	324.09
800.174	330.23
800.354	264.7
800.534	285.18
800.714	326.14
800.894	299.52
801.074	303.61
801.254	311.8
801.434	279.04
801.614	225.79
801.794	195.07
801.974	844.28
802.154	381.43
802.334	272.89
802.514	256.51
802.693	272.89
802.873	274.94
803.053	281.08
803.233	227.84
803.413	236.03
803.592	193.02
803.772	190.97
803.952	297.47
804.131	209.4
804.311	219.64
804.491	256.51
804.67	223.74
804.85	256.51
805.03	262.65
805.209	270.84
805.389	268.8
805.568	188.93
805.748	274.94
805.928	238.08
806.107	254.46
806.287	219.64
806.466	215.55
806.646	285.18
806.825	201.21
807.004	260.6
807.184	268.8
807.363	238.08
807.543	266.75
807.722	186.88
807.901	199.16
808.081	285.18
808.26	223.74
808.439	301.56
808.619	201.21
808.798	276.99
808.977	258.56
809.156	301.56
809.336	186.88
809.515	219.64
809.694	199.16
809.873	295.42
810.052	256.51
810.231	250.36
810.411	190.97
810.59	276.99
810.769	203.26
810.948	231.93
811.127	166.4
811.306	137.73
811.485	188.93
811.664	256.51
811.843	201.21
812.022	184.83
812.201	221.69
812.38	188.93
812.559	190.97
812.737	160.25
812.916	123.39
813.095	182.78
813.274	254.46
813.453	174.59
813.632	213.5
813.811	182.78
813.989	174.59
814.168	207.36
814.347	201.21
814.526	195.07
814.704	160.25
814.883	240.12
815.062	211.45
815.24	160.25
815.419	160.25
815.598	154.11
815.776	143.87
815.955	188.93
816.133	137.73
816.312	184.83
816.49	174.59
816.669	86.53
816.847	137.73
817.026	156.16
817.204	160.25
817.383	170.49
817.561	162.3
817.74	133.63
817.918	180.73
818.097	111.1
818.275	199.16
818.453	197.12
818.632	193.02
818.81	223.74
818.988	121.34
819.167	176.64
819.345	92.67
819.523	199.16
819.701	133.63
819.879	166.4
820.058	139.77
820.236	154.11
820.414	178.69
820.592	143.87
820.77	164.35
820.948	70.14
821.127	145.92
821.305	86.53
821.483	96.77
821.661	98.81
821.839	225.79
822.017	119.29
822.195	145.92
822.373	184.83
822.551	59.9
822.729	166.4
822.907	195.07
823.085	100.86
823.262	113.15
823.44	168.45
823.618	150.01
823.796	160.25
823.974	141.82
824.152	129.53
824.329	125.44
824.507	178.69
824.685	109.05
824.863	154.11
825.04	193.02
825.218	111.1
825.396	145.92
825.574	145.92
825.751	82.43
825.929	195.07
826.107	147.97
826.284	84.48
826.462	115.2
826.639	123.39
826.817	109.05
826.994	133.63
827.172	170.49
827.349	145.92
827.527	121.34
827.704	119.29
827.882	137.73
828.059	111.1
828.237	64
828.414	197.12
828.591	76.29
828.769	107.01
828.946	104.96
829.124	111.1
829.301	96.77
829.478	195.07
829.655	125.44
829.833	170.49
830.01	137.73
830.187	170.49
830.364	109.05
830.542	180.73
830.719	107.01
830.896	139.77
831.073	135.68
831.25	203.26
831.427	129.53
831.604	27.14
831.782	107.01
831.959	113.15
832.136	18.94
832.313	57.86
832.49	107.01
832.667	88.57
832.844	117.25
833.021	152.06
833.198	92.67
833.374	139.77
833.551	64
833.728	96.77
833.905	104.96
834.082	23.04
834.259	137.73
834.436	102.91
834.612	96.77
834.789	88.57
834.966	96.77
835.143	109.05
835.319	31.23
835.496	61.95
835.673	129.53
835.85	59.9
836.026	41.47
836.203	137.73
836.38	96.77
836.556	25.09
836.733	76.29
836.909	76.29
837.086	117.25
837.262	55.81
837.439	96.77
837.616	127.49
837.792	92.67
837.968	117.25
838.145	45.57
838.321	41.47
838.498	123.39
838.674	113.15
838.851	78.33
839.027	29.18
839.203	88.57
839.38	119.29
839.556	117.25
839.732	102.91
839.909	119.29
840.085	123.39
840.261	53.76
840.437	14.85
840.614	55.81
840.79	102.91
840.966	104.96
841.142	76.29
841.318	-17.92
841.494	102.91
841.671	141.82
841.847	33.28
842.023	55.81
842.199	86.53
842.375	92.67
842.551	104.96
842.727	72.19
842.903	115.2
843.079	76.29
843.255	82.43
843.431	55.81
843.607	27.14
843.783	-11.78
843.959	107.01
844.134	23.04
844.31	129.53
844.486	61.95
844.662	35.33
844.838	33.28
845.013	94.72
845.189	109.05
845.365	78.33
845.541	33.28
845.716	125.44
845.892	45.57
846.068	-26.11
846.244	2.56
846.419	96.77
846.595	64
846.77	78.33
846.946	111.1
847.122	64
847.297	96.77
847.473	39.42
847.648	27.14
847.824	35.33
847.999	64
848.175	64
848.35	51.71
848.526	113.15
848.701	72.19
848.876	80.38
849.052	70.14
849.227	20.99
849.403	68.09
849.578	16.9
849.753	55.81
849.929	98.81
850.104	0.51
850.279	55.81
850.454	82.43
850.63	107.01
850.805	-22.02
850.98	59.9
851.155	14.85
851.33	61.95
851.505	29.18
851.681	100.86
851.856	86.53
852.031	125.44
852.206	29.18
852.381	53.76
852.556	23.04
852.731	102.91
852.906	12.8
853.081	92.67
853.256	31.23
853.431	35.33
853.606	-32.26
853.781	0.51
853.956	70.14
854.131	14.85
854.305	20.99
854.48	72.19
854.655	70.14
854.83	39.42
855.005	113.15
855.18	25.09
855.354	55.81
855.529	96.77
855.704	23.04
855.879	45.57
856.053	72.19
856.228	6.66
856.403	29.18
856.577	-22.02
856.752	-3.58
856.926	47.62
857.101	41.47
857.276	61.95
857.45	-71.17
857.625	100.86
857.799	-19.97
857.974	8.7
858.148	51.71
858.323	18.94
858.497	-9.73
858.672	16.9
858.846	57.86
859.02	-9.73
859.195	-5.63
859.369	23.04
859.543	27.14
859.718	72.19
859.892	-11.78
860.066	100.86
860.241	66.05
860.415	92.67
860.589	8.7
860.763	82.43
860.938	14.85
861.112	31.23
861.286	10.75
861.46	31.23
861.634	-9.73
861.808	59.9
861.982	6.66
862.157	25.09
862.331	59.9
862.505	55.81
862.679	-3.58
862.853	-46.59
863.027	59.9
863.201	39.42
863.375	39.42
863.549	-1.54
863.722	61.95
863.896	53.76
864.07	-42.5
864.244	12.8
864.418	53.76
864.592	49.66
864.766	-1.54
864.939	16.9
865.113	57.86
865.287	66.05
865.461	6.66
865.634	10.75
865.808	41.47
865.982	-5.63
866.156	45.57
866.329	-28.16
866.503	-30.21
866.676	76.29
866.85	43.52
867.024	18.94
867.197	-24.06
867.371	64
867.544	-9.73
867.718	-5.63
867.891	16.9
868.065	-9.73
868.238	-46.59
868.412	-58.88
868.585	49.66
868.759	29.18
868.932	-22.02
869.105	72.19
869.279	-5.63
869.452	23.04
869.625	14.85
869.799	-1.54
869.972	-1.54
870.145	72.19
870.319	-13.82
870.492	-9.73
870.665	10.75
870.838	12.8
871.011	-50.69
871.185	16.9
871.358	-5.63
871.531	111.1
871.704	37.38
871.877	-44.54
872.05	-9.73
872.223	51.71
872.396	41.47
872.569	23.04
872.742	-42.5
872.915	0.51
873.088	-58.88
873.261	37.38
873.434	14.85
873.607	31.23
873.78	84.48
873.953	39.42
874.126	14.85
874.299	-34.3
874.471	-67.07
874.644	0.51
874.817	74.24
874.99	70.14
875.163	-9.73
875.335	6.66
875.508	-34.3
875.681	-9.73
875.853	14.85
876.026	31.23
876.199	31.23
876.371	100.86
876.544	25.09
876.717	-26.11
876.889	-36.35
877.062	23.04
877.234	-17.92
877.407	-34.3
877.579	18.94
877.752	6.66
877.924	-52.74
878.097	78.33
878.269	53.76
878.442	-11.78
878.614	6.66
878.786	6.66
878.959	4.61
879.131	45.57
879.303	-19.97
879.476	18.94
879.648	-11.78
879.82	55.81
879.993	4.61
880.165	-7.68
880.337	41.47
880.509	29.18
880.681	-75.26
880.854	-11.78
881.026	-7.68
881.198	57.86
881.37	123.39
881.542	10.75
881.714	10.75
881.886	84.48
882.058	-15.87
882.23	20.99
882.402	51.71
882.574	-3.58
882.746	10.75
882.918	20.99
883.09	57.86
883.262	-58.88
883.434	-60.93
883.606	-58.88
883.778	45.57
883.95	0.51
884.122	74.24
884.293	61.95
884.465	-7.68
884.637	35.33
884.809	-5.63
884.98	53.76
885.152	68.09
885.324	51.71
885.496	12.8
885.667	-19.97
885.839	12.8
886.011	96.77
886.182	45.57
886.354	4.61
886.525	-9.73
886.697	100.86
886.869	10.75
887.04	6.66
887.212	102.91
887.383	33.28
887.555	-36.35
887.726	-42.5
887.897	-22.02
888.069	-34.3
888.24	45.57
888.412	27.14
888.583	16.9
888.754	8.7
888.926	-34.3
889.097	45.57
889.268	-32.26
889.44	59.9
889.611	-44.54
889.782	-62.98
889.953	-34.3
890.125	-1.54
890.296	-15.87
890.467	-30.21
890.638	31.23
890.809	39.42
890.98	45.57
891.151	4.61
891.323	55.81
891.494	-19.97
891.665	2.56
891.836	-11.78
892.007	-13.82
892.178	-65.02
892.349	20.99
892.52	-26.11
892.691	25.09
892.862	51.71
893.032	-17.92
893.203	23.04
893.374	49.66
893.545	-7.68
893.716	-7.68
893.887	33.28
894.057	20.99
894.228	-13.82
894.399	18.94
894.57	49.66
894.74	-3.58
894.911	-5.63
895.082	-24.06
895.253	0.51
895.423	-103.93
895.594	72.19
895.764	55.81
895.935	-71.17
896.106	-13.82
896.276	31.23
896.447	-22.02
896.617	-15.87
896.788	45.57
896.958	39.42
897.129	-22.02
897.299	14.85
897.47	41.47
897.64	23.04
897.81	-5.63
897.981	-5.63
898.151	20.99
898.322	35.33
898.492	41.47
898.662	-44.54
898.832	12.8
899.003	-26.11
899.173	4.61
899.343	53.76
899.513	-1.54
