Data from USB4F104151__272__10-40-48-622.txt Node

Date: Wed Mar 12 10:40:48 EDT 2025
User: louis
Spectrometer: USB4F10415
Trigger mode: 4
Integration Time (sec): 3.000000E-2
Scans to average: 1
Electric dark correction enabled: true
Nonlinearity correction enabled: false
Boxcar width: 0
XAxis mode: Wavelengths
Number of Pixels in Spectrum: 3648
>>>>>Begin Spectral Data<<<<<
178.204	-201.21
178.424	-201.21
178.644	-201.21
178.864	-90.62
179.084	-113.15
179.304	-25.09
179.524	-23.04
179.744	40.45
179.964	-18.94
180.184	56.83
180.404	3.58
180.624	19.97
180.844	-76.29
181.064	-23.04
181.283	38.4
181.503	-18.94
181.723	26.11
181.943	42.5
182.163	-0.51
182.383	-88.57
182.602	87.55
182.822	48.64
183.042	13.82
183.262	50.69
183.482	-43.52
183.701	22.02
183.921	60.93
184.141	-72.19
184.361	48.64
184.58	65.02
184.8	30.21
185.02	-20.99
185.239	36.35
185.459	-10.75
185.679	24.06
185.898	-2.56
186.118	77.31
186.338	-82.43
186.557	52.74
186.777	-25.09
186.997	-29.18
187.216	-6.66
187.436	34.3
187.655	42.5
187.875	-31.23
188.095	24.06
188.314	56.83
188.534	62.98
188.753	40.45
188.973	58.88
189.192	91.65
189.412	56.83
189.631	-2.56
189.851	120.32
190.07	87.55
190.29	40.45
190.509	-16.9
190.729	11.78
190.948	30.21
191.168	58.88
191.387	65.02
191.607	17.92
191.826	17.92
192.045	36.35
192.265	7.68
192.484	32.26
192.704	-0.51
192.923	7.68
193.142	34.3
193.362	24.06
193.581	38.4
193.8	93.69
194.02	15.87
194.239	28.16
194.458	52.74
194.678	46.59
194.897	52.74
195.116	44.54
195.335	30.21
195.555	40.45
195.774	56.83
195.993	95.74
196.212	7.68
196.432	-25.09
196.651	-2.56
196.87	34.3
197.089	75.26
197.308	9.73
197.528	13.82
197.747	-8.7
197.966	1.54
198.185	58.88
198.404	1.54
198.623	-2.56
198.842	48.64
199.062	7.68
199.281	67.07
199.5	69.12
199.719	44.54
199.938	-29.18
200.157	17.92
200.376	85.5
200.595	52.74
200.814	30.21
201.033	-4.61
201.252	24.06
201.471	52.74
201.69	71.17
201.909	11.78
202.128	50.69
202.347	69.12
202.566	89.6
202.785	-16.9
203.004	71.17
203.223	56.83
203.442	-31.23
203.661	7.68
203.879	-33.28
204.098	19.97
204.317	-10.75
204.536	-12.8
204.755	52.74
204.974	52.74
205.193	-20.99
205.411	40.45
205.63	34.3
205.849	-45.57
206.068	-2.56
206.287	40.45
206.505	56.83
206.724	-2.56
206.943	26.11
207.162	46.59
207.381	7.68
207.599	140.8
207.818	-68.09
208.037	-25.09
208.255	11.78
208.474	15.87
208.693	56.83
208.911	19.97
209.13	62.98
209.349	95.74
209.567	56.83
209.786	32.26
210.005	9.73
210.223	65.02
210.442	48.64
210.661	73.21
210.879	15.87
211.098	-27.14
211.316	24.06
211.535	48.64
211.753	-23.04
211.972	-0.51
212.191	-4.61
212.409	-10.75
212.628	30.21
212.846	36.35
213.065	58.88
213.283	112.13
213.502	19.97
213.72	13.82
213.938	13.82
214.157	3.58
214.375	110.08
214.594	7.68
214.812	30.21
215.031	-4.61
215.249	-51.71
215.467	62.98
215.686	89.6
215.904	46.59
216.122	58.88
216.341	17.92
216.559	-39.42
216.778	-29.18
216.996	89.6
217.214	19.97
217.432	15.87
217.651	-80.38
217.869	56.83
218.087	73.21
218.306	40.45
218.524	42.5
218.742	38.4
218.96	103.93
219.179	48.64
219.397	7.68
219.615	19.97
219.833	7.68
220.051	-29.18
220.27	-25.09
220.488	65.02
220.706	42.5
220.924	36.35
221.142	48.64
221.36	38.4
221.578	30.21
221.796	-4.61
222.015	85.5
222.233	46.59
222.451	40.45
222.669	56.83
222.887	15.87
223.105	19.97
223.323	-6.66
223.541	11.78
223.759	30.21
223.977	75.26
224.195	105.98
224.413	36.35
224.631	77.31
224.849	48.64
225.067	48.64
225.285	19.97
225.503	40.45
225.721	-78.33
225.939	56.83
226.157	-2.56
226.375	30.21
226.592	26.11
226.81	-47.62
227.028	-49.66
227.246	103.93
227.464	5.63
227.682	34.3
227.9	17.92
228.117	46.59
228.335	54.78
228.553	7.68
228.771	44.54
228.989	83.45
229.206	11.78
229.424	30.21
229.642	89.6
229.86	-27.14
230.077	-0.51
230.295	99.84
230.513	34.3
230.731	58.88
230.948	44.54
231.166	56.83
231.384	-25.09
231.601	36.35
231.819	46.59
232.037	-10.75
232.254	-16.9
232.472	52.74
232.689	-6.66
232.907	97.79
233.125	48.64
233.342	28.16
233.56	19.97
233.777	32.26
233.995	32.26
234.213	75.26
234.43	-4.61
234.648	48.64
234.865	-8.7
235.083	69.12
235.3	87.55
235.518	3.58
235.735	34.3
235.953	60.93
236.17	15.87
236.388	30.21
236.605	24.06
236.822	60.93
237.04	40.45
237.257	30.21
237.475	-8.7
237.692	13.82
237.909	-12.8
238.127	28.16
238.344	-0.51
238.562	73.21
238.779	-0.51
238.996	44.54
239.214	28.16
239.431	62.98
239.648	-10.75
239.865	26.11
240.083	38.4
240.3	28.16
240.517	-4.61
240.735	13.82
240.952	87.55
241.169	17.92
241.386	30.21
241.603	32.26
241.821	-20.99
242.038	46.59
242.255	32.26
242.472	7.68
242.689	79.36
242.907	87.55
243.124	7.68
243.341	30.21
243.558	11.78
243.775	60.93
243.992	26.11
244.209	-10.75
244.426	36.35
244.643	42.5
244.86	17.92
245.078	-12.8
245.295	75.26
245.512	48.64
245.729	-2.56
245.946	77.31
246.163	-25.09
246.38	54.78
246.597	24.06
246.814	-4.61
247.031	24.06
247.248	11.78
247.464	28.16
247.681	5.63
247.898	42.5
248.115	3.58
248.332	28.16
248.549	83.45
248.766	58.88
248.983	-2.56
249.2	30.21
249.417	62.98
249.633	122.37
249.85	83.45
250.067	42.5
250.284	11.78
250.501	26.11
250.717	46.59
250.934	48.64
251.151	30.21
251.368	15.87
251.585	46.59
251.801	-6.66
252.018	-61.95
252.235	44.54
252.451	-16.9
252.668	77.31
252.885	11.78
253.102	52.74
253.318	60.93
253.535	17.92
253.752	60.93
253.968	79.36
254.185	-23.04
254.401	-37.38
254.618	69.12
254.835	71.17
255.051	36.35
255.268	-27.14
255.484	85.5
255.701	65.02
255.917	13.82
256.134	48.64
256.351	7.68
256.567	44.54
256.784	30.21
257	-47.62
257.217	28.16
257.433	3.58
257.65	89.6
257.866	22.02
258.082	28.16
258.299	60.93
258.515	34.3
258.732	89.6
258.948	52.74
259.165	32.26
259.381	7.68
259.597	-39.42
259.814	67.07
260.03	3.58
260.246	-23.04
260.463	32.26
260.679	-0.51
260.895	-10.75
261.112	32.26
261.328	58.88
261.544	-23.04
261.761	85.5
261.977	13.82
262.193	9.73
262.409	-6.66
262.626	-14.85
262.842	67.07
263.058	-25.09
263.274	62.98
263.49	44.54
263.707	38.4
263.923	65.02
264.139	11.78
264.355	11.78
264.571	85.5
264.787	-20.99
265.004	-8.7
265.22	-8.7
265.436	17.92
265.652	44.54
265.868	73.21
266.084	56.83
266.3	17.92
266.516	-43.52
266.732	32.26
266.948	69.12
267.164	11.78
267.38	22.02
267.596	5.63
267.812	34.3
268.028	13.82
268.244	-2.56
268.46	30.21
268.676	3.58
268.892	38.4
269.108	95.74
269.324	15.87
269.54	-43.52
269.756	26.11
269.972	7.68
270.188	-20.99
270.403	-57.86
270.619	28.16
270.835	-10.75
271.051	-6.66
271.267	-6.66
271.483	60.93
271.698	-23.04
271.914	79.36
272.13	42.5
272.346	32.26
272.562	34.3
272.777	95.74
272.993	36.35
273.209	32.26
273.425	-37.38
273.64	50.69
273.856	42.5
274.072	-0.51
274.287	-4.61
274.503	-47.62
274.719	77.31
274.934	11.78
275.15	67.07
275.366	-8.7
275.581	56.83
275.797	-0.51
276.012	62.98
276.228	-25.09
276.444	30.21
276.659	36.35
276.875	40.45
277.09	-78.33
277.306	50.69
277.521	99.84
277.737	62.98
277.952	132.61
278.168	3.58
278.383	28.16
278.599	15.87
278.814	89.6
279.03	-14.85
279.245	38.4
279.461	69.12
279.676	44.54
279.892	-12.8
280.107	-14.85
280.322	38.4
280.538	15.87
280.753	30.21
280.969	-0.51
281.184	24.06
281.399	114.17
281.615	69.12
281.83	56.83
282.045	19.97
282.26	54.78
282.476	24.06
282.691	30.21
282.906	69.12
283.122	60.93
283.337	24.06
283.552	58.88
283.767	7.68
283.983	40.45
284.198	52.74
284.413	60.93
284.628	1.54
284.843	24.06
285.058	38.4
285.274	60.93
285.489	-27.14
285.704	120.32
285.919	95.74
286.134	-8.7
286.349	19.97
286.564	26.11
286.779	26.11
286.995	-23.04
287.21	40.45
287.425	11.78
287.64	-10.75
287.855	-35.33
288.07	-10.75
288.285	120.32
288.5	85.5
288.715	83.45
288.93	38.4
289.145	24.06
289.36	13.82
289.575	56.83
289.79	58.88
290.004	-23.04
290.219	22.02
290.434	15.87
290.649	13.82
290.864	24.06
291.079	7.68
291.294	81.41
291.509	11.78
291.724	28.16
291.938	36.35
292.153	-18.94
292.368	-4.61
292.583	56.83
292.798	13.82
293.012	48.64
293.227	26.11
293.442	-57.86
293.657	54.78
293.871	54.78
294.086	40.45
294.301	116.22
294.516	32.26
294.73	-20.99
294.945	-10.75
295.16	22.02
295.374	7.68
295.589	73.21
295.804	-10.75
296.018	40.45
296.233	58.88
296.447	60.93
296.662	54.78
296.877	22.02
297.091	11.78
297.306	42.5
297.52	-18.94
297.735	93.69
297.949	-14.85
298.164	50.69
298.378	58.88
298.593	58.88
298.807	60.93
299.022	56.83
299.236	19.97
299.451	-18.94
299.665	48.64
299.88	85.5
300.094	1.54
300.309	28.16
300.523	-18.94
300.737	-4.61
300.952	-16.9
301.166	19.97
301.381	-2.56
301.595	93.69
301.809	3.58
302.024	-4.61
302.238	73.21
302.452	38.4
302.667	-2.56
302.881	11.78
303.095	50.69
303.309	5.63
303.524	71.17
303.738	81.41
303.952	62.98
304.166	30.21
304.381	13.82
304.595	69.12
304.809	79.36
305.023	38.4
305.237	56.83
305.452	46.59
305.666	15.87
305.88	56.83
306.094	30.21
306.308	54.78
306.522	9.73
306.736	60.93
306.95	11.78
307.164	22.02
307.379	15.87
307.593	73.21
307.807	19.97
308.021	62.98
308.235	52.74
308.449	-27.14
308.663	28.16
308.877	34.3
309.091	32.26
309.305	60.93
309.519	40.45
309.733	85.5
309.947	48.64
310.161	38.4
310.374	85.5
310.588	50.69
310.802	67.07
311.016	58.88
311.23	32.26
311.444	15.87
311.658	95.74
311.872	122.37
312.085	85.5
312.299	28.16
312.513	-12.8
312.727	54.78
312.941	-45.57
313.154	60.93
313.368	19.97
313.582	13.82
313.796	5.63
314.009	-12.8
314.223	134.65
314.437	22.02
314.651	48.64
314.864	65.02
315.078	52.74
315.292	13.82
315.505	11.78
315.719	73.21
315.933	56.83
316.146	9.73
316.36	79.36
316.573	40.45
316.787	50.69
317.001	48.64
317.214	9.73
317.428	17.92
317.641	28.16
317.855	110.08
318.068	-31.23
318.282	99.84
318.495	103.93
318.709	32.26
318.922	62.98
319.136	9.73
319.349	32.26
319.563	-25.09
319.776	36.35
319.99	26.11
320.203	73.21
320.417	69.12
320.63	79.36
320.843	73.21
321.057	17.92
321.27	-2.56
321.483	44.54
321.697	26.11
321.91	42.5
322.124	65.02
322.337	48.64
322.55	83.45
322.763	36.35
322.977	69.12
323.19	65.02
323.403	65.02
323.617	99.84
323.83	69.12
324.043	44.54
324.256	19.97
324.469	71.17
324.683	65.02
324.896	50.69
325.109	24.06
325.322	-27.14
325.535	58.88
325.748	110.08
325.962	79.36
326.175	73.21
326.388	36.35
326.601	56.83
326.814	-10.75
327.027	65.02
327.24	101.89
327.453	-59.9
327.666	60.93
327.879	32.26
328.092	28.16
328.305	44.54
328.518	-16.9
328.731	13.82
328.944	44.54
329.157	-20.99
329.37	52.74
329.583	91.65
329.796	50.69
330.009	32.26
330.222	60.93
330.435	97.79
330.648	-4.61
330.861	95.74
331.073	48.64
331.286	-20.99
331.499	69.12
331.712	-57.86
331.925	48.64
332.138	93.69
332.35	89.6
332.563	-0.51
332.776	83.45
332.989	67.07
333.202	-12.8
333.414	79.36
333.627	50.69
333.84	36.35
334.053	54.78
334.265	9.73
334.478	46.59
334.691	67.07
334.903	89.6
335.116	15.87
335.329	71.17
335.541	69.12
335.754	171.52
335.966	-2.56
336.179	60.93
336.392	3.58
336.604	69.12
336.817	142.85
337.029	67.07
337.242	-82.43
337.454	36.35
337.667	65.02
337.88	122.37
338.092	54.78
338.305	52.74
338.517	-4.61
338.729	5.63
338.942	46.59
339.154	28.16
339.367	24.06
339.579	75.26
339.792	19.97
340.004	65.02
340.217	36.35
340.429	11.78
340.641	-23.04
340.854	62.98
341.066	50.69
341.278	81.41
341.491	-41.47
341.703	105.98
341.915	60.93
342.128	50.69
342.34	101.89
342.552	38.4
342.764	101.89
342.977	-2.56
343.189	38.4
343.401	-33.28
343.613	-0.51
343.826	54.78
344.038	56.83
344.25	19.97
344.462	32.26
344.674	122.37
344.886	62.98
345.099	46.59
345.311	54.78
345.523	134.65
345.735	13.82
345.947	30.21
346.159	110.08
346.371	103.93
346.583	110.08
346.795	85.5
347.007	65.02
347.219	44.54
347.431	75.26
347.643	108.03
347.855	-0.51
348.067	65.02
348.279	-4.61
348.491	46.59
348.703	134.65
348.915	67.07
349.127	19.97
349.339	75.26
349.551	5.63
349.763	126.46
349.975	-20.99
350.187	40.45
350.399	65.02
350.61	77.31
350.822	40.45
351.034	40.45
351.246	73.21
351.458	-16.9
351.669	36.35
351.881	40.45
352.093	54.78
352.305	24.06
352.517	69.12
352.728	87.55
352.94	48.64
353.152	3.58
353.363	-33.28
353.575	118.27
353.787	105.98
353.999	62.98
354.21	97.79
354.422	3.58
354.633	22.02
354.845	75.26
355.057	28.16
355.268	81.41
355.48	79.36
355.692	52.74
355.903	42.5
356.115	83.45
356.326	-2.56
356.538	89.6
356.749	32.26
356.961	62.98
357.172	56.83
357.384	99.84
357.595	114.17
357.807	11.78
358.018	91.65
358.23	-10.75
358.441	112.13
358.653	95.74
358.864	62.98
359.075	19.97
359.287	52.74
359.498	32.26
359.709	28.16
359.921	7.68
360.132	26.11
360.344	-25.09
360.555	15.87
360.766	87.55
360.977	7.68
361.189	81.41
361.4	22.02
361.611	122.37
361.823	97.79
362.034	46.59
362.245	7.68
362.456	44.54
362.667	5.63
362.879	28.16
363.09	44.54
363.301	69.12
363.512	17.92
363.723	65.02
363.935	40.45
364.146	60.93
364.357	36.35
364.568	69.12
364.779	17.92
364.99	130.56
365.201	3.58
365.412	97.79
365.623	65.02
365.834	52.74
366.045	75.26
366.256	36.35
366.467	93.69
366.678	48.64
366.889	19.97
367.1	-27.14
367.311	69.12
367.522	56.83
367.733	93.69
367.944	44.54
368.155	91.65
368.366	62.98
368.577	114.17
368.788	83.45
368.999	-2.56
369.209	73.21
369.42	85.5
369.631	151.04
369.842	134.65
370.053	77.31
370.264	32.26
370.474	40.45
370.685	11.78
370.896	65.02
371.107	11.78
371.317	75.26
371.528	48.64
371.739	126.46
371.95	134.65
372.16	26.11
372.371	17.92
372.582	77.31
372.792	97.79
373.003	85.5
373.214	77.31
373.424	81.41
373.635	52.74
373.846	196.09
374.056	65.02
374.267	77.31
374.477	75.26
374.688	97.79
374.898	-12.8
375.109	116.22
375.319	24.06
375.53	126.46
375.74	65.02
375.951	112.13
376.161	60.93
376.372	148.99
376.582	40.45
376.793	36.35
377.003	42.5
377.214	32.26
377.424	77.31
377.635	56.83
377.845	65.02
378.055	28.16
378.266	9.73
378.476	15.87
378.686	126.46
378.897	56.83
379.107	60.93
379.317	1.54
379.528	19.97
379.738	91.65
379.948	3.58
380.158	89.6
380.369	81.41
380.579	99.84
380.789	58.88
380.999	177.66
381.21	110.08
381.42	69.12
381.63	28.16
381.84	95.74
382.05	85.5
382.261	83.45
382.471	65.02
382.681	105.98
382.891	101.89
383.101	40.45
383.311	-14.85
383.521	48.64
383.731	81.41
383.941	69.12
384.151	112.13
384.361	7.68
384.571	48.64
384.781	3.58
384.991	126.46
385.201	105.98
385.411	83.45
385.621	130.56
385.831	44.54
386.041	183.81
386.251	87.55
386.461	3.58
386.671	112.13
386.881	44.54
387.091	-2.56
387.301	97.79
387.511	15.87
387.72	97.79
387.93	32.26
388.14	5.63
388.35	79.36
388.56	79.36
388.769	75.26
388.979	77.31
389.189	105.98
389.399	38.4
389.609	155.13
389.818	87.55
390.028	40.45
390.238	52.74
390.447	101.89
390.657	93.69
390.867	28.16
391.076	22.02
391.286	17.92
391.496	114.17
391.705	73.21
391.915	93.69
392.125	89.6
392.334	95.74
392.544	93.69
392.753	65.02
392.963	122.37
393.172	114.17
393.382	69.12
393.591	91.65
393.801	71.17
394.01	151.04
394.22	130.56
394.429	112.13
394.639	15.87
394.848	103.93
395.058	89.6
395.267	62.98
395.477	142.85
395.686	75.26
395.895	146.94
396.105	179.71
396.314	17.92
396.524	95.74
396.733	142.85
396.942	153.09
397.152	210.43
397.361	136.7
397.57	151.04
397.78	124.41
397.989	97.79
398.198	249.34
398.407	126.46
398.617	151.04
398.826	171.52
399.035	185.85
399.244	183.81
399.453	157.18
399.663	177.66
399.872	112.13
400.081	75.26
400.29	196.09
400.499	97.79
400.708	77.31
400.917	81.41
401.127	249.34
401.336	118.27
401.545	212.48
401.754	44.54
401.963	173.57
402.172	120.32
402.381	206.33
402.59	89.6
402.799	175.61
403.008	116.22
403.217	134.65
403.426	124.41
403.635	163.33
403.844	155.13
404.053	83.45
404.262	126.46
404.471	243.2
404.68	202.24
404.888	136.7
405.097	122.37
405.306	228.86
405.515	157.18
405.724	200.19
405.933	218.62
406.142	169.47
406.35	286.2
406.559	220.67
406.768	288.25
406.977	302.59
407.185	206.33
407.394	294.4
407.603	218.62
407.812	239.1
408.02	257.53
408.229	296.44
408.438	302.59
408.646	331.26
408.855	327.16
409.064	327.16
409.272	310.78
409.481	318.97
409.69	392.7
409.898	323.07
410.107	425.47
410.315	409.08
410.524	357.88
410.733	429.56
410.941	486.9
411.15	486.9
411.358	495.1
411.567	540.15
411.775	540.15
411.984	531.96
412.192	546.3
412.401	605.69
412.609	669.17
412.818	638.45
413.026	642.55
413.234	634.36
413.443	687.61
413.651	695.8
413.86	706.04
414.068	763.38
414.276	800.24
414.485	802.29
414.693	855.54
414.901	953.84
415.11	847.35
415.318	880.11
415.526	1033.71
415.734	1007.09
415.943	1023.47
416.151	1043.95
416.359	1048.05
416.567	1070.58
416.776	1199.6
416.984	1277.42
417.192	1297.9
417.4	1273.32
417.608	1324.52
417.817	1439.21
418.025	1418.73
418.233	1457.64
418.441	1422.83
418.649	1484.27
418.857	1781.22
419.065	1701.35
419.273	1732.07
419.481	1813.99
419.689	1916.39
419.897	2043.36
420.105	2059.74
420.313	2063.84
420.521	2067.94
420.729	2196.96
420.937	2313.69
421.145	2227.68
421.353	2514.39
421.561	2594.26
421.769	2708.95
421.977	2749.91
422.185	2747.86
422.393	2946.52
422.601	3151.31
422.809	2985.43
423.017	3010
423.224	3247.57
423.432	3249.61
423.64	3374.54
423.848	3657.16
424.056	3581.39
424.263	3681.74
424.471	3864.01
424.679	3964.36
424.887	3974.6
425.094	4201.92
425.302	4312.51
425.51	4455.87
425.718	4554.17
425.925	4660.66
426.133	4756.92
426.341	5023.16
426.548	5303.73
426.756	5361.07
426.964	5373.36
427.171	5588.39
427.379	5817.77
427.586	5987.75
427.794	6032.8
428.001	6370.72
428.209	6636.95
428.417	6530.46
428.624	6942.1
428.832	7024.02
429.039	6919.57
429.247	6944.15
429.454	7568.78
429.662	8187.27
429.869	7525.77
430.076	8111.49
430.284	7806.34
430.491	8185.22
430.699	8760.7
430.906	8793.47
431.114	9065.85
431.321	9270.64
431.528	9399.66
431.736	9987.43
431.943	10255.72
432.15	10075.49
432.358	10157.41
432.565	10773.85
432.772	10831.19
432.979	11277.65
433.187	11601.23
433.394	11439.44
433.601	12250.44
433.808	12301.64
434.016	12209.48
434.223	12750.14
434.43	13688.11
434.637	13395.25
434.844	14169.38
435.052	14361.89
435.259	14427.43
435.466	14441.76
435.673	14228.77
435.88	15162.65
436.087	16194.82
436.294	16030.99
436.501	15983.88
436.708	16110.86
436.915	16618.75
437.122	17165.56
437.329	17233.15
437.537	17745.14
437.743	18150.64
437.95	18021.61
438.157	19018.97
438.364	19614.93
438.571	19227.87
438.778	19569.88
438.985	21521.59
439.192	20647.11
439.399	21116.09
439.606	20724.93
439.813	22144.17
440.02	23237.79
440.227	22834.34
440.433	22668.45
440.64	23368.86
440.847	23209.12
441.054	23962.77
441.261	25379.96
441.467	25175.17
441.674	25922.68
441.881	26811.49
442.088	26340.46
442.294	26041.46
442.501	27249.76
442.708	27419.74
442.914	28828.74
443.121	29901.88
443.328	29238.34
443.534	31112.23
443.741	30350.38
443.948	29568.06
444.154	32144.41
444.361	31970.33
444.568	31941.66
444.774	32183.32
444.981	32453.65
445.187	33238.02
445.394	34888.68
445.6	34270.2
445.807	37428.16
446.013	35910.62
446.22	36484.05
446.426	37938.11
446.633	38142.91
446.839	39689.12
447.046	38032.32
447.252	39738.27
447.459	39953.31
447.665	39707.55
447.871	41669.51
448.078	42795.89
448.284	40774.55
448.491	42255.23
448.697	43602.79
448.903	44718.93
449.11	44651.35
449.316	43348.84
449.522	44854.1
449.728	45888.32
449.935	46043.97
450.141	46050.11
450.347	47205.17
450.553	45198.16
450.76	46015.3
450.966	47434.54
451.172	46863.16
451.378	47919.91
451.584	46865.2
451.791	48096.03
451.997	48042.79
452.203	48569.11
452.409	48468.76
452.615	48378.65
452.821	46682.94
453.027	45458.25
453.233	48356.13
453.44	46400.32
453.646	47047.47
453.852	46908.21
454.058	47571.75
454.264	45929.28
454.47	47287.09
454.676	46158.66
454.882	47377.2
455.088	43346.79
455.294	44026.72
455.5	44157.79
455.705	45114.19
455.911	43467.62
456.117	42257.28
456.323	41773.95
456.529	39297.96
456.735	40919.95
456.941	40035.23
457.147	39365.54
457.352	38042.56
457.558	37970.88
457.764	37675.97
457.97	37043.15
458.176	36357.08
458.381	36694.99
458.587	34587.63
458.793	34448.37
458.999	33072.14
459.204	35320.81
459.41	33913.85
459.616	31978.52
459.821	31796.25
460.027	31441.95
460.233	30940.2
460.438	29236.29
460.644	29807.67
460.85	28517.45
461.055	28136.53
461.261	27964.5
461.466	25889.91
461.672	25228.42
461.878	27196.51
462.083	25091.2
462.289	24702.09
462.494	24695.94
462.7	23489.69
462.905	22940.83
463.111	23927.95
463.316	23907.48
463.522	23340.19
463.727	23260.32
463.932	23340.19
464.138	22916.26
464.343	23348.38
464.549	22531.24
464.754	23258.27
464.959	23192.73
465.165	22711.46
465.37	21982.38
465.575	21112
465.781	22068.4
465.986	22500.52
466.191	21595.32
466.397	21007.55
466.602	20415.69
466.807	20782.27
467.012	20980.93
467.218	20937.92
467.423	20614.34
467.628	20624.58
467.833	21701.81
468.038	20704.45
468.244	20229.32
468.449	21298.36
468.654	20292.81
468.859	20141.26
469.064	20143.31
469.269	18930.91
469.474	19311.83
469.679	19750.1
469.885	19115.23
470.09	19612.88
470.295	19449.05
470.5	18898.14
470.705	19004.64
470.91	18619.62
471.115	18463.97
471.32	18644.2
471.525	18666.72
471.73	18226.41
471.935	18207.98
472.139	17319.16
472.344	17515.76
472.549	17399.03
472.754	17231.1
472.959	16977.15
473.164	16545.03
473.369	16282.89
473.574	16932.09
473.778	16743.68
473.983	16665.86
474.188	16502.02
474.393	16110.86
474.598	15975.69
474.802	15650.07
475.007	15801.61
475.212	15781.14
475.417	15322.39
475.621	15217.94
475.826	15146.26
476.031	15007
476.235	14587.17
476.44	14920.99
476.645	14562.59
476.849	14523.68
477.054	14480.68
477.259	14261.54
477.463	14153
477.668	13946.16
477.872	14073.13
478.077	13761.84
478.282	13385.01
478.486	13548.85
478.691	13352.24
478.895	13215.03
479.1	13212.98
479.304	13337.91
479.509	12594.5
479.713	13174.07
479.918	12950.84
480.122	12737.85
480.326	12860.73
480.531	12631.36
480.735	12547.39
480.94	12459.33
481.144	12924.22
481.348	12367.17
481.553	12586.3
481.757	12270.92
481.961	12377.41
482.166	12490.05
482.37	12406.08
482.574	12301.64
482.778	12457.28
482.983	12635.46
483.187	12348.74
483.391	12483.91
483.595	12221.77
483.8	12260.68
484.004	12213.57
484.208	12563.78
484.412	12479.81
484.616	12352.84
484.821	12295.49
485.025	11988.3
485.229	12557.63
485.433	12289.35
485.637	12473.67
485.841	12295.49
486.045	12186.95
486.249	12320.07
486.453	12543.3
486.657	12326.21
486.861	12385.6
487.065	11971.91
487.269	12361.03
487.473	12098.89
487.677	12584.26
487.881	12449.09
488.085	12418.37
488.289	12150.09
488.493	12127.56
488.697	12504.39
488.901	12381.51
489.105	12455.23
489.309	12541.25
489.512	12547.39
489.716	12469.57
489.92	12393.79
490.124	12508.48
490.328	12770.62
490.531	12655.93
490.735	12752.19
490.939	12950.84
491.143	12744
491.346	12817.72
491.55	12961.08
491.754	12721.47
491.958	13036.86
492.161	13116.73
492.365	13102.39
492.569	13045.05
492.772	13204.79
492.976	13186.36
493.18	13475.12
493.383	13397.3
493.587	13233.46
493.79	13491.51
493.994	13436.21
494.197	13659.44
494.401	13800.75
494.605	13776.17
494.808	13845.8
495.012	14064.94
495.215	14232.87
495.419	14282.02
495.622	14535.97
495.825	14415.14
496.029	14527.78
496.232	14730.53
496.436	14648.61
496.639	15273.24
496.843	14906.65
497.046	15344.92
497.249	15525.14
497.453	15668.5
497.656	15508.76
497.859	15633.68
498.063	16041.23
498.266	16090.38
498.469	15953.16
498.673	16227.59
498.876	16362.76
499.079	16637.19
499.282	16852.22
499.485	17212.67
499.689	17116.41
499.892	17368.31
500.095	17427.7
500.298	17751.28
500.501	17927.41
500.705	18160.87
500.908	18625.76
501.111	18656.48
501.314	18390.25
501.517	18898.14
501.72	19125.47
501.923	19234.01
502.126	19520.73
502.329	19653.84
502.532	19913.94
502.735	20053.2
502.938	20557
503.141	20333.77
503.344	20690.12
503.547	20894.91
503.75	21404.86
503.953	21439.67
504.156	21699.76
504.359	21937.33
504.562	22086.83
504.765	22508.71
504.968	22604.97
505.17	22969.51
505.373	22672.55
505.576	23264.41
505.779	23389.34
505.982	23413.91
506.185	24171.66
506.387	24284.3
506.59	24153.23
506.793	24716.42
506.996	24921.22
507.198	25988.21
507.401	25400.44
507.604	25644.15
507.807	26195.06
508.009	26129.52
508.212	26578.03
508.415	26903.65
508.617	27141.22
508.82	27636.83
509.022	27290.72
509.225	27972.69
509.428	28202.07
509.63	28273.74
509.833	28312.66
510.035	29140.04
510.238	28963.91
510.44	29434.94
510.643	29672.51
510.845	29846.58
511.048	30106.68
511.25	30729.26
511.453	30409.78
511.655	31943.7
511.858	30999.59
512.06	31638.56
512.262	31777.82
512.465	31646.75
512.667	32367.63
512.87	32994.31
513.072	32697.36
513.274	33596.42
513.477	33668.09
513.679	34042.87
513.881	34401.27
514.084	34606.06
514.286	34524.15
514.488	35232.74
514.69	36160.47
514.893	35820.51
515.095	35779.55
515.297	36322.26
515.499	36316.12
515.701	36975.56
515.904	37286.86
516.106	37645.25
516.308	37534.66
516.51	38024.12
516.712	38069.18
516.914	38542.26
517.116	39293.86
517.318	39203.75
517.52	39797.66
517.722	39830.43
517.925	40033.18
518.127	41063.31
518.329	40768.4
518.531	40702.87
518.733	41505.67
518.935	41913.22
519.136	41546.63
519.338	42535.8
519.54	42634.1
519.742	43217.77
519.944	43279.21
520.146	43699.05
520.348	43944.8
520.55	43664.23
520.752	44159.84
520.954	45134.67
521.155	44221.28
521.357	45376.33
521.559	45519.69
521.761	46144.32
521.963	45835.08
522.164	46383.93
522.366	46428.99
522.568	46682.94
522.77	47235.89
522.971	47774.5
523.173	47872.81
523.375	48055.07
523.576	47573.8
523.778	48063.27
523.98	48800.54
524.181	48739.1
524.383	49255.18
524.584	49804.04
524.786	49718.03
524.988	49437.45
525.189	49824.52
525.391	50270.98
525.592	50619.13
525.794	51120.88
525.995	51028.73
526.197	50776.83
526.398	50733.82
526.6	51335.92
526.801	51229.43
527.003	51466.99
527.204	51342.06
527.406	52267.75
527.607	52173.54
527.808	52388.58
528.01	51600.11
528.211	52077.29
528.412	53281.49
528.614	52847.32
528.815	53138.13
529.016	53494.48
529.218	52888.28
529.419	53265.11
529.62	53447.38
529.822	53254.87
530.023	53474
530.224	53340.88
530.425	53781.2
530.626	53478.1
530.828	53570.25
531.029	54321.86
531.23	53838.54
531.431	53703.37
531.632	53981.9
531.833	54551.23
532.035	53744.33
532.236	54338.24
532.437	54391.49
532.638	54231.75
532.839	54758.08
533.04	54207.17
533.241	54008.52
533.442	55208.63
533.643	54467.26
533.844	54594.24
534.045	54799.04
534.246	54444.74
534.447	54938.3
534.648	54692.54
534.849	54657.73
535.05	54272.71
535.251	55055.03
535.451	54536.9
535.652	55165.62
535.853	54844.09
536.054	54917.82
536.255	54856.38
536.456	54567.62
536.657	55304.88
536.857	55165.62
537.058	54883
537.259	55186.1
537.46	55460.53
537.66	55050.94
537.861	55214.77
538.062	55100.09
538.263	55089.85
538.463	55050.94
538.664	55009.98
538.865	55126.71
539.065	55034.55
539.266	54702.78
539.466	55618.22
539.667	54641.34
539.868	55280.31
540.068	55055.03
540.269	54805.18
540.469	55147.19
540.67	54852.28
540.87	55116.47
541.071	54723.26
541.271	55485.11
541.472	55026.36
541.672	54962.87
541.873	55020.22
542.073	54407.87
542.274	55470.77
542.474	54854.33
542.675	54641.34
542.875	55233.21
543.075	55040.7
543.276	54268.61
543.476	55403.19
543.676	54717.12
543.877	54846.14
544.077	55157.43
544.277	54680.25
544.478	54891.19
544.678	54932.15
544.878	55036.6
545.078	55022.26
545.279	54698.69
545.479	54313.67
545.679	54921.91
545.879	54891.19
546.079	54887.1
546.28	54772.41
546.48	54174.41
546.68	55114.42
546.88	54895.29
547.08	54631.1
547.28	54293.19
547.48	54565.57
547.68	54899.39
547.88	54278.85
548.081	54952.63
548.281	54508.22
548.481	54600.38
548.681	55153.33
548.881	54657.73
549.081	55044.79
549.28	54110.92
549.48	54780.6
549.68	54512.32
549.88	55169.72
550.08	54543.04
550.28	54813.37
550.48	54604.48
550.68	54665.92
550.88	54727.36
551.08	54207.17
551.279	54665.92
551.479	54452.93
551.679	54481.6
551.879	54254.28
552.079	55044.79
552.278	54584
552.478	54450.88
552.678	54504.13
552.878	54420.16
553.077	54452.93
553.277	54198.98
553.477	54936.25
553.676	54170.31
553.876	54452.93
554.076	53877.45
554.275	54297.28
554.475	53854.92
554.674	54510.27
554.874	54371.01
555.074	54092.49
555.273	54600.38
555.473	54428.35
555.672	54233.8
555.872	54026.95
556.071	54536.9
556.271	54524.61
556.47	54287.04
556.67	53906.12
556.869	53854.92
557.068	53977.8
557.268	53844.68
557.467	53822.15
557.667	53717.71
557.866	53666.51
558.065	53609.17
558.265	53420.75
558.464	53435.09
558.663	54117.06
558.863	52843.23
559.062	54024.9
559.261	53168.85
559.461	54000.33
559.66	52726.49
559.859	53637.84
560.058	52902.62
560.258	53324.5
560.457	52673.24
560.656	53033.69
560.855	52527.84
561.054	52777.69
561.253	52382.43
561.453	52994.78
561.652	52826.84
561.851	52699.87
562.05	52919
562.249	52048.61
562.448	52081.38
562.647	52292.32
562.846	52134.63
563.045	52146.92
563.244	51972.84
563.443	52511.45
563.642	51802.86
563.841	51917.54
564.04	51550.96
564.239	52277.99
564.438	51585.77
564.637	51628.78
564.836	51852.01
565.035	51258.1
565.234	51417.84
565.432	51303.15
565.631	51077.88
565.83	50864.89
566.029	50858.74
566.228	50612.99
566.427	50688.76
566.625	50488.06
566.824	50385.66
567.023	50823.93
567.222	49881.86
567.42	50723.58
567.619	50479.87
567.818	50647.8
568.016	50463.49
568.215	50707.19
568.414	49971.97
568.612	50217.73
568.811	49578.76
569.01	49668.87
569.208	49572.62
569.407	49632.01
569.605	48784.15
569.804	49812.23
570.002	49373.97
570.201	49079.06
570.4	48876.31
570.598	49140.5
570.797	48702.23
570.995	48982.8
571.193	48102.18
571.392	49138.45
571.59	47981.35
571.789	48259.87
571.987	48632.6
572.186	47999.78
572.384	47688.49
572.582	48395.04
572.781	47983.4
572.979	47407.92
573.177	47962.92
573.376	48122.66
573.574	47268.65
573.772	47467.31
573.971	47211.31
574.169	47227.7
574.367	46865.2
574.565	47330.09
574.763	46945.08
574.962	46983.99
575.16	45976.39
575.358	46543.67
575.556	46000.96
575.754	46764.85
575.952	46146.37
576.151	46154.56
576.349	45656.9
576.547	45767.49
576.745	45470.54
576.943	45607.75
577.141	45765.45
577.339	45742.92
577.537	45675.34
577.735	45513.55
577.933	44919.63
578.131	45380.43
578.329	44774.23
578.527	44917.59
578.725	44819.28
578.923	44886.87
579.121	44213.09
579.319	44325.72
579.516	44405.59
579.714	44217.18
579.912	44026.72
580.11	43785.06
580.308	44149.6
580.506	43944.8
580.704	43078.51
580.901	43774.82
581.099	43684.71
581.297	43238.25
581.495	43049.84
581.692	43354.99
581.89	43381.61
582.088	43191.15
582.285	42656.63
582.483	43307.88
582.681	42539.89
582.878	42320.76
583.076	42222.46
583.274	42511.22
583.471	42247.04
583.669	42136.45
583.866	41763.71
584.064	42138.49
584.262	41632.64
584.459	41943.94
584.657	41450.38
584.854	41579.4
585.052	40768.4
585.249	41739.14
585.447	41010.06
585.644	40471.45
585.841	40887.18
586.039	41540.49
586.236	40809.36
586.434	40356.76
586.631	40428.44
586.828	40479.64
587.026	40416.15
587.223	39893.92
587.42	39801.76
587.618	40057.76
587.815	39676.83
588.012	39482.28
588.21	39455.65
588.407	40018.85
588.604	39637.92
588.801	39072.68
588.999	39109.55
589.196	39080.88
589.393	39025.58
589.59	38794.16
589.787	38396.85
589.984	38405.05
590.182	38431.67
590.379	38249.4
590.576	38001.6
590.773	38124.47
590.97	37925.82
591.167	38077.37
591.364	37350.34
591.561	37809.09
591.758	37067.72
591.955	37065.67
592.152	37663.68
592.349	36862.93
592.546	36967.37
592.743	37004.24
592.94	36490.2
593.137	37118.92
593.334	36756.43
593.531	36428.76
593.727	36791.25
593.924	36039.64
594.121	36285.4
594.318	36094.94
594.515	35904.48
594.712	36236.25
594.908	35791.84
595.105	35886.04
595.302	35650.53
595.499	35337.19
595.696	35324.9
595.892	35093.48
596.089	35290.09
596.286	35154.92
596.482	34964.46
596.679	34890.73
596.876	34626.54
597.072	34333.68
597.269	34407.41
597.466	34481.14
597.662	34440.18
597.859	34180.09
598.055	34020.34
598.252	33682.43
598.448	33899.51
598.645	33741.82
598.841	33502.21
599.038	33512.45
599.234	33608.7
599.431	32988.17
599.627	33022.98
599.824	33250.31
600.02	33192.97
600.217	32994.31
600.413	33014.79
600.609	32640.01
600.806	32541.71
601.002	32406.55
601.198	32263.19
601.395	32156.69
601.591	32603.15
601.787	32177.17
601.984	31843.35
602.18	32240.66
602.376	31867.93
602.572	31554.59
602.769	31618.08
602.965	30985.26
603.161	31491.1
603.357	31032.36
603.553	31040.55
603.75	30989.35
603.946	30698.54
604.142	31040.55
604.338	30590
604.534	30690.35
604.73	30178.36
604.926	30368.82
605.122	30379.06
605.318	30243.89
605.514	30125.11
605.71	29963.32
605.906	29832.25
606.102	29953.08
606.298	29985.85
606.494	29901.88
606.69	29568.06
606.886	29660.22
607.082	29197.38
607.278	29494.33
607.474	29197.38
607.67	29420.61
607.866	28519.5
608.062	29334.59
608.257	28892.23
608.453	29045.83
608.649	28804.17
608.845	28791.88
609.041	28576.84
609.236	28773.45
609.432	28568.65
609.628	28597.32
609.824	28232.79
610.019	28384.33
610.215	28650.57
610.411	28429.39
610.606	28181.59
610.802	28337.23
610.998	28120.15
611.193	28054.61
611.389	27960.41
611.584	28005.46
611.78	27530.33
611.976	27675.74
612.171	27786.33
612.367	27589.72
612.562	27518.04
612.758	27268.19
612.953	27065.44
613.149	27505.76
613.344	27192.42
613.539	27585.63
613.735	27225.18
613.93	27042.92
614.126	26825.83
614.321	27395.17
614.517	26961
614.712	26954.85
614.907	26987.62
615.103	26983.52
615.298	26715.24
615.493	26807.4
615.688	26326.13
615.884	27047.01
616.079	26250.35
616.274	26510.44
616.47	26276.98
616.665	26215.54
616.86	26006.64
617.055	25959.54
617.25	26145.91
617.445	26258.54
617.641	25769.08
617.836	25926.77
618.031	25478.27
618.226	26020.98
618.421	25889.91
618.616	26076.27
618.811	25314.43
619.006	25697.4
619.201	24472.71
619.396	25343.1
619.591	25205.89
619.786	25369.72
619.981	24927.36
620.176	25185.41
620.371	24353.93
620.566	24478.86
620.761	24347.79
620.956	24628.36
621.151	23950.48
621.346	24362.12
621.541	23682.2
621.735	24239.25
621.93	23497.88
622.125	23669.91
622.32	23434.39
622.515	23301.28
622.709	23172.25
622.904	23194.78
623.099	23059.62
623.294	22969.51
623.488	22961.31
623.683	22869.16
623.878	22688.93
624.072	22498.47
624.267	22316.2
624.462	22508.71
624.656	22117.55
624.851	22287.53
625.046	22015.15
625.24	21902.51
625.435	21687.48
625.629	21836.98
625.824	21470.39
626.018	21327.03
626.213	20874.43
626.407	21142.72
626.602	20872.39
626.796	20987.07
626.991	20784.32
627.185	20724.93
627.38	20692.16
627.574	20329.67
627.768	20149.45
627.963	20423.88
628.157	19999.95
628.352	20153.55
628.546	19811.54
628.74	20061.39
628.935	19612.88
629.129	19926.22
629.323	19399.9
629.517	19551.45
629.712	19057.89
629.906	19348.7
630.1	18865.38
630.294	18867.42
630.489	18695.39
630.683	18894.05
630.877	18715.87
631.071	18482.41
631.265	18414.82
631.459	18345.19
631.653	18324.71
631.848	18369.77
632.042	18025.71
632.236	18132.2
632.43	17857.78
632.624	18021.61
632.818	17886.45
633.012	17325.3
633.206	17439.99
633.4	17618.16
633.594	17427.7
633.788	17356.02
633.982	17224.95
634.176	17079.55
634.369	16897.28
634.563	17325.3
634.757	16919.81
634.951	17014.01
635.145	16712.96
635.339	16485.64
635.533	16741.63
635.726	16514.31
635.92	16235.78
636.114	16301.32
636.308	16227.59
636.501	16375.05
636.695	16080.14
636.889	15809.81
637.083	15744.27
637.276	15912.21
637.47	15889.68
637.664	15830.29
637.857	15682.83
638.051	15473.94
638.244	15316.25
638.438	15500.56
638.632	15150.36
638.825	15176.98
639.019	15164.7
639.212	14794.01
639.406	15037.72
639.599	14681.38
639.793	14839.07
639.986	14669.09
640.18	14583.07
640.373	14570.79
640.567	14384.42
640.76	14259.49
640.954	14208.3
641.147	14290.21
641.34	14210.34
641.534	14126.38
641.727	13970.73
641.92	13897
642.114	14064.94
642.307	13813.04
642.5	13731.12
642.694	13487.41
642.887	13569.33
643.08	13872.43
643.273	13485.36
643.467	13358.39
643.66	13436.21
643.853	13249.85
644.046	12827.96
644.239	13260.09
644.432	13143.35
644.626	12897.6
644.819	12678.46
645.012	13049.14
645.205	12979.51
645.398	12709.18
645.591	12586.3
645.784	12649.79
645.977	12401.99
646.17	12578.11
646.363	12406.08
646.556	12322.12
646.749	12311.88
646.942	12535.1
647.135	12080.46
647.328	12100.94
647.521	12051.78
647.714	11873.61
647.907	11894.09
648.099	11603.28
648.292	11687.25
648.485	11773.26
648.678	11703.63
648.871	11586.9
649.064	11625.81
649.256	11588.94
649.449	11382.1
649.642	11423.06
649.835	11285.84
650.027	11322.71
650.22	11187.54
650.413	11019.61
650.605	11025.75
650.798	11115.86
650.991	10878.3
651.183	10919.26
651.376	10509.66
651.568	10929.5
651.761	10630.49
651.954	10685.79
652.146	10835.29
652.339	10798.43
652.531	10528.1
652.724	10423.65
652.916	10306.91
653.109	10405.22
653.301	10478.94
653.494	10337.63
653.686	10161.51
653.879	10249.57
654.071	10083.69
654.263	9979.24
654.456	10171.75
654.648	10048.87
654.84	9815.4
655.033	9829.74
655.225	9739.63
655.417	9674.09
655.61	9551.21
655.802	9854.31
655.994	9442.67
656.186	9573.74
656.379	9590.13
656.571	9563.5
656.763	9506.16
656.955	9282.93
657.148	9319.79
657.34	9452.91
657.532	9178.48
657.724	8893.82
657.916	9201.01
658.108	9162.1
658.3	8910.2
658.492	8924.54
658.684	8988.02
658.876	8926.58
659.068	8889.72
659.26	8902.01
659.452	8856.95
659.644	8723.83
659.836	8617.34
660.028	8707.45
660.22	8484.22
660.412	8490.37
660.604	8588.67
660.796	8443.26
660.988	8551.81
661.18	8555.9
661.372	8254.85
661.563	8441.22
661.755	8160.64
661.947	8172.93
662.139	8099.2
662.331	8156.55
662.522	8156.55
662.714	8068.48
662.906	8039.81
663.097	7980.42
663.289	7732.62
663.481	7851.4
663.673	7959.94
663.864	7867.78
664.056	7683.47
664.247	7865.74
664.439	7439.76
664.631	7816.58
664.822	7630.22
665.014	7650.7
665.205	7519.63
665.397	7531.92
665.588	7157.14
665.78	7439.76
665.971	7390.61
666.163	7540.11
666.354	7380.37
666.546	7337.36
666.737	7124.37
666.929	7296.4
667.12	7329.17
667.311	7374.22
667.503	7323.02
667.694	7159.19
667.885	7046.55
668.077	7232.91
668.268	7085.46
668.459	7034.26
668.651	6874.52
668.842	6815.13
669.033	7019.92
669.224	6811.03
669.416	6772.12
669.607	6868.38
669.798	6704.54
669.989	6817.18
670.18	6671.77
670.371	6585.76
670.563	6761.88
670.754	6614.43
670.945	6499.74
671.136	6458.78
671.327	6612.38
671.518	6546.84
671.709	6626.71
671.9	6643.1
672.091	6372.77
672.282	6262.18
672.473	6223.27
672.664	6213.03
672.855	6380.96
673.046	6303.14
673.237	6376.86
673.428	6303.14
673.619	6364.57
673.809	6151.59
674	6143.39
674.191	6061.48
674.382	6116.77
674.573	6135.2
674.764	6053.28
674.954	6206.88
675.145	5942.69
675.336	5971.36
675.527	6038.95
675.717	5920.17
675.908	5903.78
676.099	5877.16
676.289	5750.18
676.48	5811.62
676.671	5815.72
676.861	5989.8
677.052	5803.43
677.243	5860.77
677.433	5649.83
677.624	5885.35
677.814	5696.94
678.005	5598.63
678.195	5670.31
678.386	5610.92
678.576	5488.04
678.767	5623.21
678.957	5688.75
679.148	5529
679.338	5664.17
679.529	5567.92
679.719	5561.77
679.909	5635.5
680.1	5440.94
680.29	5692.84
680.481	5399.98
680.671	5555.63
680.861	5512.62
681.052	5504.43
681.242	5424.56
681.432	5555.63
681.622	5490.09
681.813	5498.28
682.003	5488.04
682.193	5426.61
682.383	5283.25
682.573	5500.33
682.764	5164.47
682.954	5291.44
683.144	5252.53
683.334	5070.26
683.524	5279.15
683.714	5066.16
683.904	5158.32
684.094	5160.37
684.284	5158.32
684.474	5180.85
684.664	5207.47
684.854	5092.79
685.044	5127.6
685.234	5037.49
685.424	5184.94
685.614	4912.57
685.804	5023.16
685.994	5017.01
686.184	5084.59
686.374	4953.52
686.564	4871.61
686.753	4851.13
686.943	4836.79
687.133	4822.45
687.323	4793.78
687.513	4857.27
687.702	4611.51
687.892	4830.65
688.082	4804.02
688.272	4656.57
688.461	4703.67
688.651	4763.06
688.841	4758.97
689.03	4699.58
689.22	4634.04
689.41	4482.49
689.599	4570.55
689.789	4709.82
689.979	4480.44
690.168	4519.36
690.358	4347.33
690.547	4439.48
690.737	4556.22
690.926	4369.85
691.116	4447.68
691.305	4478.4
691.495	4337.09
691.684	4369.85
691.874	4507.07
692.063	4320.7
692.252	4394.43
692.442	4406.72
692.631	4242.88
692.82	4169.15
693.01	4347.33
693.199	4310.46
693.388	4191.68
693.578	4230.59
693.767	4115.91
693.956	4134.34
694.146	4199.87
694.335	4177.34
694.524	4124.1
694.713	3982.79
694.902	4060.61
695.092	4120
695.281	3857.86
695.47	3997.12
695.659	4044.23
695.848	4038.08
696.037	4107.71
696.226	4003.27
696.415	3925.44
696.604	3990.98
696.793	3929.54
696.982	4062.66
697.171	3827.14
697.36	4048.32
697.549	3792.33
697.738	3872.2
697.927	3759.56
698.116	3849.67
698.305	3804.61
698.494	3792.33
698.683	3876.29
698.872	3945.92
699.061	3833.29
699.25	3882.44
699.438	3724.74
699.627	3812.81
699.816	3630.54
700.005	3710.41
700.193	3761.61
700.382	3704.26
700.571	3737.03
700.76	3687.88
700.948	3651.02
701.137	3704.26
701.326	3700.17
701.514	3696.07
701.703	3610.06
701.892	3608.01
702.08	3575.24
702.269	3585.48
702.457	3610.06
702.646	3814.85
702.834	3663.3
703.023	3675.59
703.212	3567.05
703.4	3648.97
703.589	3567.05
703.777	3560.91
703.965	3653.06
704.154	3677.64
704.342	3558.86
704.531	3454.41
704.719	3513.8
704.907	3538.38
705.096	3481.03
705.284	3700.17
705.472	3661.26
705.661	3577.29
705.849	3562.95
706.037	3661.26
706.226	3460.56
706.414	3587.53
706.602	3474.89
706.79	3585.48
706.979	3440.08
707.167	3481.03
707.355	3517.9
707.543	3464.65
707.731	3515.85
707.919	3497.42
708.107	3462.6
708.296	3503.56
708.484	3401.16
708.672	3460.56
708.86	3376.59
709.048	3417.55
709.236	3407.31
709.424	3417.55
709.612	3358.16
709.8	3397.07
709.988	3417.55
710.176	3380.68
710.364	3454.41
710.551	3392.97
710.739	3368.4
710.927	3462.6
711.115	3472.84
711.303	3427.79
711.491	3352.01
711.679	3478.99
711.866	3438.03
712.054	3413.45
712.242	3380.68
712.43	3243.47
712.617	3409.36
712.805	3358.16
712.993	3313.1
713.181	3259.85
713.368	3368.4
713.556	3333.58
713.744	3302.86
713.931	3333.58
714.119	3304.91
714.306	3362.25
714.494	3266
714.682	3259.85
714.869	3169.74
715.057	3386.83
715.244	3235.28
715.432	3280.33
715.619	3411.4
715.807	3282.38
715.994	3218.89
716.182	3395.02
716.369	3227.09
716.556	3317.2
716.744	3386.83
716.931	3206.61
717.119	3286.48
717.306	3300.81
717.493	3214.8
717.681	3292.62
717.868	3321.29
718.055	3249.61
718.242	3222.99
718.43	3309.01
718.617	3253.71
718.804	3339.73
718.991	3231.18
719.179	3261.9
719.366	3165.65
719.553	3259.85
719.74	3247.57
719.927	3194.32
720.114	3245.52
720.301	3179.98
720.488	3210.7
720.676	3216.85
720.863	3130.83
721.05	3290.57
721.237	3120.59
721.424	3257.81
721.611	3257.81
721.798	3169.74
721.985	3171.79
722.172	3036.63
722.358	3130.83
722.545	3173.84
722.732	3280.33
722.919	3143.12
723.106	3071.44
723.293	3083.73
723.48	3159.5
723.667	3190.22
723.853	2993.62
724.04	3145.17
724.227	3040.72
724.414	3110.35
724.6	2989.52
724.787	3194.32
724.974	3089.87
725.161	3038.67
725.347	2868.69
725.534	3163.6
725.72	3030.48
725.907	3028.43
726.094	3139.02
726.28	3007.95
726.467	3046.87
726.653	3071.44
726.84	3110.35
727.027	3208.66
727.213	2950.61
727.4	2958.8
727.586	3038.67
727.773	3063.25
727.959	2946.52
728.145	3055.06
728.332	2981.33
728.518	2964.95
728.705	3016.15
728.891	2940.37
729.077	3079.63
729.264	2997.71
729.45	2960.85
729.636	2962.9
729.823	2985.43
730.009	3022.29
730.195	2999.76
730.382	2973.14
730.568	2926.04
730.754	2932.18
730.94	2913.75
731.126	2913.75
731.313	3022.29
731.499	2981.33
731.685	3110.35
731.871	2995.67
732.057	2878.93
732.243	2938.32
732.429	2831.83
732.615	2856.4
732.801	2948.56
732.987	2850.26
733.173	2876.88
733.359	2772.44
733.545	2958.8
733.731	2874.84
733.917	2891.22
734.103	2825.68
734.289	2870.74
734.475	2805.21
734.661	2919.89
734.847	2727.38
735.033	2891.22
735.219	2852.31
735.404	2797.01
735.59	2973.14
735.776	2813.4
735.962	2880.98
736.148	2760.15
736.333	2784.73
736.519	2751.96
736.705	2772.44
736.89	2723.29
737.076	2655.7
737.262	2807.25
737.447	2633.18
737.633	2688.47
737.819	2670.04
738.004	2651.61
738.19	2684.38
738.375	2780.63
738.561	2602.46
738.747	2663.9
738.932	2686.42
739.118	2715.09
739.303	2696.66
739.489	2643.42
739.674	2581.98
739.859	2528.73
740.045	2631.13
740.23	2645.46
740.416	2547.16
740.601	2528.73
740.786	2557.4
740.972	2532.83
741.157	2602.46
741.342	2391.52
741.528	2571.74
741.713	2471.39
741.898	2430.43
742.084	2414.04
742.269	2409.95
742.454	2438.62
742.639	2661.85
742.824	2424.28
743.01	2491.87
743.195	2469.34
743.38	2477.53
743.565	2493.91
743.75	2432.47
743.935	2393.56
744.12	2436.57
744.305	2477.53
744.49	2276.83
744.675	2444.76
744.86	2457.05
745.045	2424.28
745.23	2303.45
745.415	2412
745.6	2430.43
745.785	2321.88
745.97	2309.6
746.155	2237.92
746.34	2260.45
746.525	2158.05
746.71	2102.75
746.895	2309.6
747.079	2264.54
747.264	2147.81
747.449	2285.02
747.634	2129.38
747.819	2190.81
748.003	2153.95
748.188	2024.93
748.373	2051.55
748.557	2141.66
748.742	2203.1
748.927	2250.21
749.111	2061.79
749.296	2055.65
749.481	1953.25
749.665	2031.07
749.85	2086.37
750.034	1981.92
750.219	2053.6
750.404	1908.19
750.588	1986.02
750.773	1834.47
750.957	1820.13
751.141	1955.3
751.326	1820.13
751.51	1822.18
751.695	1846.76
751.879	1914.34
752.064	1926.63
752.248	1811.94
752.432	1981.92
752.617	1785.32
752.801	1805.8
752.985	1846.76
753.17	1809.89
753.354	1752.55
753.538	1654.25
753.722	1631.72
753.907	1639.91
754.091	1730.02
754.275	1670.63
754.459	1705.45
754.643	1617.38
754.828	1564.14
755.012	1711.59
755.196	1531.37
755.38	1607.14
755.564	1545.7
755.748	1605.1
755.932	1531.37
756.116	1465.83
756.3	1519.08
756.484	1564.14
756.668	1504.75
756.852	1420.78
757.036	1422.83
757.22	1478.12
757.404	1601
757.588	1455.59
757.772	1506.79
757.956	1471.98
758.14	1504.75
758.323	1433.07
758.507	1494.51
758.691	1474.03
758.875	1400.3
759.059	1408.49
759.242	1408.49
759.426	1340.91
759.61	1375.72
759.794	1406.44
759.977	1353.2
760.161	1383.91
760.345	1269.23
760.528	1431.02
760.712	1263.08
760.895	1326.57
761.079	1306.09
761.263	1293.8
761.446	1279.47
761.63	1299.95
761.813	1226.22
761.997	1324.52
762.18	1203.69
762.364	1246.7
762.547	1277.42
762.731	1203.69
762.914	1222.13
763.098	1209.84
763.281	1199.6
763.464	1168.88
763.648	1177.07
763.831	1189.36
764.015	1222.13
764.198	1215.98
764.381	1152.49
764.564	1209.84
764.748	1207.79
764.931	1195.5
765.114	1095.15
765.297	1220.08
765.481	1248.75
765.664	1218.03
765.847	1197.55
766.03	1136.11
766.213	1052.14
766.397	1113.58
766.58	1175.02
766.763	1150.45
766.946	1113.58
767.129	1033.71
767.312	1002.99
767.495	1078.77
767.678	1099.25
767.861	1187.31
768.044	1076.72
768.227	1023.47
768.41	1099.25
768.593	1060.34
768.776	1064.43
768.959	1043.95
769.142	1019.38
769.324	1089.01
769.507	1060.34
769.69	1039.86
769.873	1050.1
770.056	1052.14
770.239	1101.3
770.421	1041.9
770.604	1007.09
770.787	982.51
770.97	957.94
771.152	951.79
771.335	1041.9
771.518	927.22
771.7	964.08
771.883	1037.81
772.066	880.11
772.248	972.27
772.431	880.11
772.613	964.08
772.796	1068.53
772.978	978.42
773.161	884.21
773.343	849.4
773.526	947.7
773.708	818.68
773.891	841.2
774.073	855.54
774.256	869.87
774.438	941.55
774.621	861.68
774.803	906.74
774.985	810.48
775.168	931.31
775.35	908.79
775.532	839.16
775.715	822.77
775.897	822.77
776.079	806.39
776.261	722.42
776.444	800.24
776.626	792.05
776.808	818.68
776.99	712.18
777.173	732.66
777.355	779.76
777.537	728.56
777.719	820.72
777.901	663.03
778.083	652.79
778.265	708.09
778.447	790
778.629	757.24
778.811	765.43
778.993	669.17
779.175	761.33
779.357	687.61
779.539	675.32
779.721	671.22
779.903	630.26
780.085	656.89
780.267	693.75
780.449	654.84
780.631	699.89
780.812	617.97
780.994	609.78
781.176	632.31
781.358	710.13
781.54	601.59
781.721	673.27
781.903	650.74
782.085	703.99
782.267	642.55
782.448	683.51
782.63	607.73
782.812	626.17
782.993	671.22
783.175	626.17
783.357	527.86
783.538	560.63
783.72	579.06
783.901	613.88
784.083	534.01
784.264	660.98
784.446	507.38
784.627	550.39
784.809	550.39
784.99	574.97
785.172	574.97
785.353	497.14
785.535	499.19
785.716	474.62
785.897	579.06
786.079	531.96
786.26	470.52
786.441	507.38
786.623	486.9
786.804	497.14
786.985	607.73
787.167	525.82
787.348	531.96
787.529	480.76
787.71	531.96
787.891	466.42
788.073	407.03
788.254	458.23
788.435	525.82
788.616	417.27
788.797	423.42
788.978	478.71
789.159	415.23
789.34	538.1
789.522	466.42
789.703	407.03
789.884	409.08
790.065	419.32
790.246	437.75
790.427	443.9
790.607	458.23
790.788	450.04
790.969	400.89
791.15	392.7
791.331	376.31
791.512	427.51
791.693	329.21
791.874	380.41
792.054	480.76
792.235	427.51
792.416	384.51
792.597	327.16
792.778	392.7
792.958	335.35
793.139	402.94
793.32	427.51
793.5	382.46
793.681	458.23
793.862	396.79
794.042	339.45
794.223	368.12
794.404	400.89
794.584	267.77
794.765	345.59
794.945	323.07
795.126	378.36
795.306	413.18
795.487	380.41
795.667	259.58
795.848	298.49
796.028	433.66
796.209	382.46
796.389	411.13
796.57	331.26
796.75	253.44
796.93	329.21
797.111	314.88
797.291	370.17
797.471	427.51
797.652	337.4
797.832	308.73
798.012	376.31
798.192	284.16
798.373	306.68
798.553	259.58
798.733	310.78
798.913	273.92
799.093	343.55
799.274	298.49
799.454	271.87
799.634	349.69
799.814	312.83
799.994	269.82
800.174	386.55
800.354	347.64
800.534	249.34
800.714	280.06
800.894	329.21
801.074	294.4
801.254	347.64
801.434	245.24
801.614	230.91
801.794	282.11
801.974	839.16
802.154	253.44
802.334	302.59
802.514	214.52
802.693	249.34
802.873	302.59
803.053	327.16
803.233	261.63
803.413	280.06
803.592	189.95
803.772	206.33
803.952	249.34
804.131	226.81
804.311	228.86
804.491	204.28
804.67	347.64
804.85	241.15
805.03	249.34
805.209	198.14
805.389	261.63
805.568	249.34
805.748	212.48
805.928	212.48
806.107	290.3
806.287	232.96
806.466	302.59
806.646	187.9
806.825	290.3
807.004	282.11
807.184	253.44
807.363	247.29
807.543	239.1
807.722	261.63
807.901	220.67
808.081	247.29
808.26	204.28
808.439	216.57
808.619	237.05
808.798	284.16
808.977	235
809.156	138.75
809.336	159.23
809.515	208.38
809.694	228.86
809.873	226.81
810.052	282.11
810.231	261.63
810.411	192
810.59	218.62
810.769	108.03
810.948	181.76
811.127	142.85
811.306	173.57
811.485	210.43
811.664	208.38
811.843	194.05
812.022	224.76
812.201	243.2
812.38	208.38
812.559	151.04
812.737	142.85
812.916	134.65
813.095	157.18
813.274	136.7
813.453	159.23
813.632	210.43
813.811	208.38
813.989	163.33
814.168	142.85
814.347	187.9
814.526	212.48
814.704	171.52
814.883	208.38
815.062	161.28
815.24	128.51
815.419	202.24
815.598	218.62
815.776	151.04
815.955	212.48
816.133	114.17
816.312	161.28
816.49	183.81
816.669	185.85
816.847	192
817.026	249.34
817.204	146.94
817.383	48.64
817.561	157.18
817.74	194.05
817.918	99.84
818.097	163.33
818.275	144.89
818.453	142.85
818.632	148.99
818.81	134.65
818.988	116.22
819.167	175.61
819.345	114.17
819.523	128.51
819.701	99.84
819.879	171.52
820.058	105.98
820.236	151.04
820.414	146.94
820.592	81.41
820.77	122.37
820.948	161.28
821.127	194.05
821.305	167.42
821.483	89.6
821.661	118.27
821.839	181.76
822.017	155.13
822.195	110.08
822.373	165.37
822.551	65.02
822.729	153.09
822.907	151.04
823.085	212.48
823.262	103.93
823.44	81.41
823.618	155.13
823.796	122.37
823.974	169.47
824.152	50.69
824.329	91.65
824.507	93.69
824.685	142.85
824.863	105.98
825.04	112.13
825.218	226.81
825.396	110.08
825.574	118.27
825.751	91.65
825.929	81.41
826.107	46.59
826.284	189.95
826.462	134.65
826.639	81.41
826.817	73.21
826.994	140.8
827.172	105.98
827.349	151.04
827.527	110.08
827.704	114.17
827.882	77.31
828.059	142.85
828.237	103.93
828.414	161.28
828.591	108.03
828.769	128.51
828.946	58.88
829.124	187.9
829.301	114.17
829.478	81.41
829.655	126.46
829.833	128.51
830.01	73.21
830.187	138.75
830.364	138.75
830.542	87.55
830.719	187.9
830.896	120.32
831.073	105.98
831.25	105.98
831.427	126.46
831.604	46.59
831.782	183.81
831.959	22.02
832.136	52.74
832.313	101.89
832.49	77.31
832.667	122.37
832.844	7.68
833.021	101.89
833.198	60.93
833.374	120.32
833.551	69.12
833.728	134.65
833.905	81.41
834.082	36.35
834.259	87.55
834.436	83.45
834.612	42.5
834.789	58.88
834.966	46.59
835.143	95.74
835.319	-2.56
835.496	155.13
835.673	54.78
835.85	146.94
836.026	146.94
836.203	163.33
836.38	138.75
836.556	116.22
836.733	42.5
836.909	103.93
837.086	60.93
837.262	17.92
837.439	77.31
837.616	52.74
837.792	73.21
837.968	163.33
838.145	9.73
838.321	40.45
838.498	58.88
838.674	116.22
838.851	40.45
839.027	75.26
839.203	62.98
839.38	69.12
839.556	34.3
839.732	142.85
839.909	46.59
840.085	118.27
840.261	85.5
840.437	114.17
840.614	105.98
840.79	56.83
840.966	83.45
841.142	32.26
841.318	89.6
841.494	60.93
841.671	73.21
841.847	87.55
842.023	38.4
842.199	-6.66
842.375	67.07
842.551	-23.04
842.727	26.11
842.903	67.07
843.079	93.69
843.255	38.4
843.431	15.87
843.607	93.69
843.783	-18.94
843.959	44.54
844.134	1.54
844.31	5.63
844.486	118.27
844.662	30.21
844.838	71.17
845.013	26.11
845.189	67.07
845.365	89.6
845.541	32.26
845.716	13.82
845.892	97.79
846.068	24.06
846.244	-0.51
846.419	138.75
846.595	-25.09
846.77	-14.85
846.946	99.84
847.122	58.88
847.297	81.41
847.473	126.46
847.648	-37.38
847.824	73.21
847.999	58.88
848.175	73.21
848.35	79.36
848.526	167.42
848.701	114.17
848.876	54.78
849.052	65.02
849.227	-2.56
849.403	28.16
849.578	30.21
849.753	3.58
849.929	-10.75
850.104	15.87
850.279	95.74
850.454	62.98
850.63	62.98
850.805	15.87
850.98	5.63
851.155	-2.56
851.33	48.64
851.505	36.35
851.681	56.83
851.856	15.87
852.031	77.31
852.206	69.12
852.381	30.21
852.556	7.68
852.731	69.12
852.906	15.87
853.081	19.97
853.256	83.45
853.431	38.4
853.606	17.92
853.781	36.35
853.956	-53.76
854.131	-2.56
854.305	-45.57
854.48	89.6
854.655	11.78
854.83	34.3
855.005	65.02
855.18	30.21
855.354	65.02
855.529	52.74
855.704	17.92
855.879	60.93
856.053	-12.8
856.228	79.36
856.403	-12.8
856.577	52.74
856.752	32.26
856.926	7.68
857.101	52.74
857.276	-10.75
857.45	110.08
857.625	83.45
857.799	34.3
857.974	95.74
858.148	15.87
858.323	50.69
858.497	-14.85
858.672	52.74
858.846	-27.14
859.02	89.6
859.195	-43.52
859.369	-27.14
859.543	42.5
859.718	67.07
859.892	7.68
860.066	56.83
860.241	-33.28
860.415	-2.56
860.589	7.68
860.763	1.54
860.938	-2.56
861.112	79.36
861.286	13.82
861.46	5.63
861.634	95.74
861.808	56.83
861.982	15.87
862.157	81.41
862.331	7.68
862.505	-66.05
862.679	48.64
862.853	44.54
863.027	52.74
863.201	36.35
863.375	15.87
863.549	75.26
863.722	56.83
863.896	26.11
864.07	11.78
864.244	17.92
864.418	48.64
864.592	3.58
864.766	7.68
864.939	50.69
865.113	-33.28
865.287	17.92
865.461	-6.66
865.634	144.89
865.808	54.78
865.982	71.17
866.156	-41.47
866.329	-18.94
866.503	52.74
866.676	19.97
866.85	-2.56
867.024	-18.94
867.197	40.45
867.371	105.98
867.544	71.17
867.718	-16.9
867.891	46.59
868.065	-2.56
868.238	52.74
868.412	11.78
868.585	-41.47
868.759	-25.09
868.932	-10.75
869.105	-51.71
869.279	-25.09
869.452	-6.66
869.625	-33.28
869.799	44.54
869.972	-4.61
870.145	-10.75
870.319	-41.47
870.492	-6.66
870.665	9.73
870.838	44.54
871.011	3.58
871.185	97.79
871.358	48.64
871.531	-0.51
871.704	-2.56
871.877	40.45
872.05	48.64
872.223	-20.99
872.396	73.21
872.569	24.06
872.742	3.58
872.915	-20.99
873.088	-4.61
873.261	-27.14
873.434	-4.61
873.607	58.88
873.78	42.5
873.953	-51.71
874.126	71.17
874.299	36.35
874.471	13.82
874.644	-12.8
874.817	-6.66
874.99	19.97
875.163	-53.76
875.335	9.73
875.508	38.4
875.681	-16.9
875.853	24.06
876.026	52.74
876.199	-49.66
876.371	-14.85
876.544	32.26
876.717	9.73
876.889	15.87
877.062	50.69
877.234	7.68
877.407	52.74
877.579	7.68
877.752	30.21
877.924	19.97
878.097	3.58
878.269	105.98
878.442	-6.66
878.614	48.64
878.786	30.21
878.959	-51.71
879.131	30.21
879.303	-20.99
879.476	-8.7
879.648	7.68
879.82	36.35
879.993	22.02
880.165	65.02
880.337	-41.47
880.509	-82.43
880.681	7.68
880.854	17.92
881.026	-20.99
881.198	7.68
881.37	-0.51
881.542	-10.75
881.714	-20.99
881.886	-27.14
882.058	73.21
882.23	-4.61
882.402	-43.52
882.574	-0.51
882.746	15.87
882.918	46.59
883.09	-35.33
883.262	1.54
883.434	40.45
883.606	-25.09
883.778	-45.57
883.95	5.63
884.122	-8.7
884.293	75.26
884.465	-37.38
884.637	48.64
884.809	-51.71
884.98	30.21
885.152	9.73
885.324	134.65
885.496	-0.51
885.667	-20.99
885.839	13.82
886.011	65.02
886.182	-43.52
886.354	32.26
886.525	15.87
886.697	-49.66
886.869	-35.33
887.04	1.54
887.212	32.26
887.383	46.59
887.555	-6.66
887.726	7.68
887.897	60.93
888.069	28.16
888.24	-25.09
888.412	-4.61
888.583	36.35
888.754	65.02
888.926	-29.18
889.097	-123.39
889.268	19.97
889.44	46.59
889.611	-4.61
889.782	-123.39
889.953	52.74
890.125	50.69
890.296	-39.42
890.467	-14.85
890.638	9.73
890.809	-37.38
890.98	-45.57
891.151	-8.7
891.323	15.87
891.494	-20.99
891.665	50.69
891.836	7.68
892.007	13.82
892.178	-4.61
892.349	-27.14
892.52	1.54
892.691	22.02
892.862	26.11
893.032	-16.9
893.203	89.6
893.374	22.02
893.545	71.17
893.716	-76.29
893.887	32.26
894.057	19.97
894.228	-18.94
894.399	38.4
894.57	99.84
894.74	7.68
894.911	7.68
895.082	7.68
895.253	-6.66
895.423	-78.33
895.594	32.26
895.764	85.5
895.935	-29.18
896.106	-27.14
896.276	11.78
896.447	79.36
896.617	-12.8
896.788	-41.47
896.958	-18.94
897.129	32.26
897.299	44.54
897.47	58.88
897.64	15.87
897.81	30.21
897.981	56.83
898.151	15.87
898.322	-33.28
898.492	5.63
898.662	-45.57
898.832	34.3
899.003	5.63
899.173	30.21
899.343	-49.66
899.513	-8.7
