Data from USB4F104151__194__10-29-27-186.txt Node

Date: Wed Mar 12 10:29:27 EDT 2025
User: louis
Spectrometer: USB4F10415
Trigger mode: 4
Integration Time (sec): 3.000000E-2
Scans to average: 1
Electric dark correction enabled: true
Nonlinearity correction enabled: false
Boxcar width: 0
XAxis mode: Wavelengths
Number of Pixels in Spectrum: 3648
>>>>>Begin Spectral Data<<<<<
178.204	-163.5
178.424	-163.5
178.644	-163.5
178.864	-145.06
179.084	-50.86
179.304	-36.52
179.524	-81.58
179.744	20.82
179.964	96.6
180.184	39.25
180.404	-11.95
180.624	-28.33
180.844	37.2
181.064	-13.99
181.283	31.06
181.503	-9.9
181.723	-42.67
181.943	-54.95
182.163	35.16
182.383	-22.19
182.602	106.84
182.822	55.64
183.042	12.63
183.262	53.59
183.482	74.07
183.701	45.4
183.921	55.64
184.141	-9.9
184.361	37.2
184.58	86.36
184.8	18.77
185.02	31.06
185.239	49.49
185.459	63.83
185.679	12.63
185.898	47.44
186.118	104.79
186.338	-11.95
186.557	37.2
186.777	37.2
186.997	22.87
187.216	-26.28
187.436	115.03
187.655	65.88
187.875	98.64
188.095	63.83
188.314	55.64
188.534	112.98
188.753	10.58
188.973	104.79
189.192	59.73
189.412	10.58
189.631	51.54
189.851	20.82
190.07	84.31
190.29	41.3
190.509	45.4
190.729	14.68
190.948	96.6
191.168	69.97
191.387	92.5
191.607	47.44
191.826	84.31
192.045	41.3
192.265	43.35
192.484	-11.95
192.704	8.53
192.923	-30.38
193.142	76.12
193.362	96.6
193.581	100.69
193.8	8.53
194.02	6.49
194.239	90.45
194.458	45.4
194.678	0.34
194.897	24.92
195.116	41.3
195.335	61.78
195.555	45.4
195.774	14.68
195.993	57.68
196.212	76.12
196.432	65.88
196.651	84.31
196.87	84.31
197.089	96.6
197.308	31.06
197.528	92.5
197.747	-9.9
197.966	6.49
198.185	80.21
198.404	-48.81
198.623	65.88
198.842	74.07
199.062	12.63
199.281	74.07
199.5	72.02
199.719	59.73
199.938	86.36
200.157	14.68
200.376	12.63
200.595	72.02
200.814	45.4
201.033	61.78
201.252	55.64
201.471	53.59
201.69	104.79
201.909	57.68
202.128	72.02
202.347	59.73
202.566	106.84
202.785	51.54
203.004	-3.75
203.223	51.54
203.442	51.54
203.661	55.64
203.879	63.83
204.098	2.39
204.317	12.63
204.536	100.69
204.755	10.58
204.974	78.16
205.193	104.79
205.411	24.92
205.63	37.2
205.849	47.44
206.068	49.49
206.287	35.16
206.505	39.25
206.724	45.4
206.943	53.59
207.162	6.49
207.381	-34.47
207.599	39.25
207.818	53.59
208.037	-22.19
208.255	22.87
208.474	69.97
208.693	78.16
208.911	24.92
209.13	18.77
209.349	49.49
209.567	-24.23
209.786	104.79
210.005	26.96
210.223	69.97
210.442	49.49
210.661	45.4
210.879	80.21
211.098	121.17
211.316	61.78
211.535	80.21
211.753	26.96
211.972	26.96
212.191	29.01
212.409	14.68
212.628	47.44
212.846	55.64
213.065	72.02
213.283	76.12
213.502	69.97
213.72	80.21
213.938	51.54
214.157	123.22
214.375	24.92
214.594	-28.33
214.812	57.68
215.031	-9.9
215.249	100.69
215.467	102.74
215.686	20.82
215.904	-13.99
216.122	112.98
216.341	35.16
216.559	63.83
216.778	39.25
216.996	96.6
217.214	90.45
217.432	14.68
217.651	67.92
217.869	33.11
218.087	88.4
218.306	-34.47
218.524	100.69
218.742	80.21
218.96	112.98
219.179	86.36
219.397	-11.95
219.615	129.36
219.833	-11.95
220.051	-32.43
220.27	92.5
220.488	29.01
220.706	47.44
220.924	61.78
221.142	61.78
221.36	26.96
221.578	20.82
221.796	76.12
222.015	43.35
222.233	74.07
222.451	80.21
222.669	-30.38
222.887	57.68
223.105	20.82
223.323	8.53
223.541	31.06
223.759	49.49
223.977	49.49
224.195	65.88
224.413	80.21
224.631	51.54
224.849	-11.95
225.067	6.49
225.285	78.16
225.503	72.02
225.721	-30.38
225.939	10.58
226.157	24.92
226.375	129.36
226.592	37.2
226.81	80.21
227.028	88.4
227.246	78.16
227.464	47.44
227.682	10.58
227.9	123.22
228.117	59.73
228.335	59.73
228.553	43.35
228.771	80.21
228.989	90.45
229.206	90.45
229.424	-3.75
229.642	53.59
229.86	18.77
230.077	100.69
230.295	94.55
230.513	127.32
230.731	76.12
230.948	104.79
231.166	115.03
231.384	45.4
231.601	78.16
231.819	127.32
232.037	82.26
232.254	18.77
232.472	51.54
232.689	108.88
232.907	14.68
233.125	22.87
233.342	10.58
233.56	76.12
233.777	47.44
233.995	37.2
234.213	143.7
234.43	74.07
234.648	57.68
234.865	47.44
235.083	78.16
235.3	61.78
235.518	10.58
235.735	65.88
235.953	123.22
236.17	47.44
236.388	88.4
236.605	92.5
236.822	47.44
237.04	26.96
237.257	-1.71
237.475	37.2
237.692	45.4
237.909	84.31
238.127	119.12
238.344	51.54
238.562	55.64
238.779	74.07
238.996	-7.85
239.214	100.69
239.431	29.01
239.648	112.98
239.865	84.31
240.083	78.16
240.3	16.73
240.517	88.4
240.735	33.11
240.952	84.31
241.169	-24.23
241.386	67.92
241.603	10.58
241.821	-71.34
242.038	43.35
242.255	22.87
242.472	45.4
242.689	45.4
242.907	63.83
243.124	63.83
243.341	67.92
243.558	57.68
243.775	67.92
243.992	84.31
244.209	67.92
244.426	88.4
244.643	65.88
244.86	29.01
245.078	108.88
245.295	53.59
245.512	61.78
245.729	26.96
245.946	51.54
246.163	96.6
246.38	35.16
246.597	43.35
246.814	49.49
247.031	-28.33
247.248	8.53
247.464	37.2
247.681	35.16
247.898	29.01
248.115	22.87
248.332	51.54
248.549	112.98
248.766	108.88
248.983	18.77
249.2	22.87
249.417	37.2
249.633	61.78
249.85	135.51
250.067	133.46
250.284	18.77
250.501	94.55
250.717	8.53
250.934	45.4
251.151	49.49
251.368	92.5
251.585	63.83
251.801	41.3
252.018	74.07
252.235	82.26
252.451	115.03
252.668	74.07
252.885	-9.9
253.102	131.41
253.318	29.01
253.535	125.27
253.752	-26.28
253.968	26.96
254.185	-22.19
254.401	39.25
254.618	37.2
254.835	31.06
255.051	65.88
255.268	76.12
255.484	55.64
255.701	65.88
255.917	104.79
256.134	39.25
256.351	59.73
256.567	14.68
256.784	76.12
257	-5.8
257.217	22.87
257.433	80.21
257.65	84.31
257.866	43.35
258.082	10.58
258.299	88.4
258.515	80.21
258.732	-16.04
258.948	108.88
259.165	72.02
259.381	61.78
259.597	29.01
259.814	166.23
260.03	8.53
260.246	14.68
260.463	92.5
260.679	43.35
260.895	100.69
261.112	49.49
261.328	86.36
261.544	37.2
261.761	86.36
261.977	76.12
262.193	8.53
262.409	10.58
262.626	92.5
262.842	33.11
263.058	-1.71
263.274	63.83
263.49	4.44
263.707	51.54
263.923	55.64
264.139	47.44
264.355	55.64
264.571	86.36
264.787	90.45
265.004	110.93
265.22	41.3
265.436	-9.9
265.652	59.73
265.868	63.83
266.084	88.4
266.3	86.36
266.516	-13.99
266.732	129.36
266.948	-1.71
267.164	76.12
267.38	61.78
267.596	96.6
267.812	108.88
268.028	31.06
268.244	84.31
268.46	47.44
268.676	69.97
268.892	-3.75
269.108	35.16
269.324	45.4
269.54	65.88
269.756	26.96
269.972	-5.8
270.188	65.88
270.403	29.01
270.619	14.68
270.835	35.16
271.051	76.12
271.267	37.2
271.483	55.64
271.698	119.12
271.914	29.01
272.13	88.4
272.346	22.87
272.562	53.59
272.777	108.88
272.993	59.73
273.209	86.36
273.425	24.92
273.64	29.01
273.856	96.6
274.072	108.88
274.287	98.64
274.503	94.55
274.719	69.97
274.934	94.55
275.15	10.58
275.366	84.31
275.581	69.97
275.797	76.12
276.012	35.16
276.228	20.82
276.444	78.16
276.659	31.06
276.875	24.92
277.09	112.98
277.306	-9.9
277.521	76.12
277.737	67.92
277.952	51.54
278.168	61.78
278.383	16.73
278.599	47.44
278.814	137.56
279.03	37.2
279.245	22.87
279.461	39.25
279.676	98.64
279.892	22.87
280.107	-46.76
280.322	-13.99
280.538	18.77
280.753	35.16
280.969	104.79
281.184	65.88
281.399	100.69
281.615	24.92
281.83	112.98
282.045	41.3
282.26	26.96
282.476	115.03
282.691	72.02
282.906	72.02
283.122	151.89
283.337	82.26
283.552	104.79
283.767	-36.52
283.983	100.69
284.198	2.39
284.413	72.02
284.628	10.58
284.843	92.5
285.058	96.6
285.274	-5.8
285.489	33.11
285.704	31.06
285.919	39.25
286.134	10.58
286.349	72.02
286.564	-18.09
286.779	166.23
286.995	94.55
287.21	37.2
287.425	14.68
287.64	6.49
287.855	104.79
288.07	39.25
288.285	61.78
288.5	80.21
288.715	53.59
288.93	39.25
289.145	84.31
289.36	24.92
289.575	43.35
289.79	80.21
290.004	39.25
290.219	67.92
290.434	16.73
290.649	22.87
290.864	84.31
291.079	80.21
291.294	84.31
291.509	43.35
291.724	37.2
291.938	63.83
292.153	-13.99
292.368	-5.8
292.583	53.59
292.798	-1.71
293.012	24.92
293.227	80.21
293.442	61.78
293.657	-3.75
293.871	31.06
294.086	-22.19
294.301	74.07
294.516	72.02
294.73	2.39
294.945	10.58
295.16	82.26
295.374	41.3
295.589	127.32
295.804	-13.99
296.018	2.39
296.233	88.4
296.447	65.88
296.662	121.17
296.877	90.45
297.091	51.54
297.306	106.84
297.52	57.68
297.735	63.83
297.949	67.92
298.164	84.31
298.378	45.4
298.593	41.3
298.807	-13.99
299.022	88.4
299.236	80.21
299.451	61.78
299.665	-3.75
299.88	123.22
300.094	31.06
300.309	8.53
300.523	102.74
300.737	33.11
300.952	57.68
301.166	45.4
301.381	76.12
301.595	72.02
301.809	149.84
302.024	74.07
302.238	41.3
302.452	117.08
302.667	6.49
302.881	155.99
303.095	6.49
303.309	69.97
303.524	24.92
303.738	51.54
303.952	41.3
304.166	55.64
304.381	6.49
304.595	84.31
304.809	37.2
305.023	72.02
305.237	65.88
305.452	31.06
305.666	82.26
305.88	55.64
306.094	94.55
306.308	127.32
306.522	63.83
306.736	18.77
306.95	55.64
307.164	-13.99
307.379	55.64
307.593	22.87
307.807	102.74
308.021	31.06
308.235	80.21
308.449	2.39
308.663	59.73
308.877	76.12
309.091	39.25
309.305	72.02
309.519	72.02
309.733	106.84
309.947	4.44
310.161	72.02
310.374	82.26
310.588	67.92
310.802	-42.67
311.016	10.58
311.23	88.4
311.444	72.02
311.658	115.03
311.872	94.55
312.085	137.56
312.299	96.6
312.513	61.78
312.727	37.2
312.941	72.02
313.154	45.4
313.368	78.16
313.582	84.31
313.796	88.4
314.009	22.87
314.223	45.4
314.437	96.6
314.651	45.4
314.864	65.88
315.078	47.44
315.292	-24.23
315.505	125.27
315.719	100.69
315.933	55.64
316.146	37.2
316.36	45.4
316.573	100.69
316.787	43.35
317.001	53.59
317.214	-11.95
317.428	14.68
317.641	43.35
317.855	39.25
318.068	-22.19
318.282	145.75
318.495	110.93
318.709	41.3
318.922	-3.75
319.136	47.44
319.349	133.46
319.563	61.78
319.776	104.79
319.99	88.4
320.203	16.73
320.417	39.25
320.63	55.64
320.843	90.45
321.057	65.88
321.27	29.01
321.483	69.97
321.697	33.11
321.91	-3.75
322.124	98.64
322.337	84.31
322.55	69.97
322.763	117.08
322.977	104.79
323.19	43.35
323.403	45.4
323.617	108.88
323.83	33.11
324.043	37.2
324.256	65.88
324.469	-3.75
324.683	63.83
324.896	80.21
325.109	0.34
325.322	35.16
325.535	59.73
325.748	88.4
325.962	6.49
326.175	10.58
326.388	96.6
326.601	149.84
326.814	78.16
327.027	59.73
327.24	84.31
327.453	4.44
327.666	80.21
327.879	129.36
328.092	92.5
328.305	104.79
328.518	69.97
328.731	53.59
328.944	-40.62
329.157	112.98
329.37	12.63
329.583	117.08
329.796	53.59
330.009	102.74
330.222	31.06
330.435	47.44
330.648	-3.75
330.861	41.3
331.073	80.21
331.286	112.98
331.499	94.55
331.712	63.83
331.925	98.64
332.138	20.82
332.35	100.69
332.563	18.77
332.776	96.6
332.989	22.87
333.202	74.07
333.414	20.82
333.627	72.02
333.84	26.96
334.053	16.73
334.265	33.11
334.478	102.74
334.691	82.26
334.903	26.96
335.116	119.12
335.329	86.36
335.541	78.16
335.754	149.84
335.966	26.96
336.179	37.2
336.392	-1.71
336.604	102.74
336.817	96.6
337.029	33.11
337.242	31.06
337.454	61.78
337.667	-44.71
337.88	98.64
338.092	-26.28
338.305	155.99
338.517	63.83
338.729	67.92
338.942	47.44
339.154	61.78
339.367	84.31
339.579	82.26
339.792	45.4
340.004	59.73
340.217	108.88
340.429	84.31
340.641	47.44
340.854	41.3
341.066	63.83
341.278	88.4
341.491	100.69
341.703	110.93
341.915	69.97
342.128	63.83
342.34	49.49
342.552	29.01
342.764	69.97
342.977	47.44
343.189	90.45
343.401	69.97
343.613	63.83
343.826	61.78
344.038	35.16
344.25	31.06
344.462	39.25
344.674	80.21
344.886	92.5
345.099	96.6
345.311	55.64
345.523	4.44
345.735	69.97
345.947	78.16
346.159	47.44
346.371	22.87
346.583	96.6
346.795	69.97
347.007	-18.09
347.219	112.98
347.431	59.73
347.643	82.26
347.855	76.12
348.067	76.12
348.279	43.35
348.491	96.6
348.703	106.84
348.915	102.74
349.127	20.82
349.339	35.16
349.551	18.77
349.763	67.92
349.975	90.45
350.187	63.83
350.399	104.79
350.61	53.59
350.822	119.12
351.034	96.6
351.246	61.78
351.458	80.21
351.669	115.03
351.881	76.12
352.093	115.03
352.305	143.7
352.517	100.69
352.728	37.2
352.94	61.78
353.152	106.84
353.363	90.45
353.575	94.55
353.787	119.12
353.999	67.92
354.21	26.96
354.422	33.11
354.633	29.01
354.845	37.2
355.057	74.07
355.268	76.12
355.48	112.98
355.692	67.92
355.903	55.64
356.115	63.83
356.326	47.44
356.538	96.6
356.749	84.31
356.961	133.46
357.172	-16.04
357.384	72.02
357.595	127.32
357.807	74.07
358.018	100.69
358.23	76.12
358.441	84.31
358.653	86.36
358.864	45.4
359.075	45.4
359.287	84.31
359.498	84.31
359.709	6.49
359.921	59.73
360.132	67.92
360.344	115.03
360.555	96.6
360.766	78.16
360.977	-11.95
361.189	174.42
361.4	88.4
361.611	76.12
361.823	94.55
362.034	61.78
362.245	51.54
362.456	67.92
362.667	106.84
362.879	69.97
363.09	78.16
363.301	110.93
363.512	57.68
363.723	55.64
363.935	67.92
364.146	117.08
364.357	20.82
364.568	18.77
364.779	106.84
364.99	106.84
365.201	22.87
365.412	41.3
365.623	37.2
365.834	74.07
366.045	69.97
366.256	63.83
366.467	104.79
366.678	96.6
366.889	78.16
367.1	57.68
367.311	84.31
367.522	51.54
367.733	162.13
367.944	53.59
368.155	-13.99
368.366	55.64
368.577	47.44
368.788	121.17
368.999	76.12
369.209	55.64
369.42	76.12
369.631	178.51
369.842	35.16
370.053	43.35
370.264	186.71
370.474	57.68
370.685	98.64
370.896	80.21
371.107	47.44
371.317	29.01
371.528	69.97
371.739	69.97
371.95	129.36
372.16	47.44
372.371	-13.99
372.582	94.55
372.792	72.02
373.003	112.98
373.214	69.97
373.424	104.79
373.635	92.5
373.846	110.93
374.056	61.78
374.267	141.65
374.477	84.31
374.688	59.73
374.898	6.49
375.109	84.31
375.319	20.82
375.53	141.65
375.74	139.6
375.951	53.59
376.161	63.83
376.372	82.26
376.582	92.5
376.793	117.08
377.003	92.5
377.214	53.59
377.424	45.4
377.635	94.55
377.845	39.25
378.055	141.65
378.266	-1.71
378.476	117.08
378.686	76.12
378.897	133.46
379.107	96.6
379.317	164.18
379.528	110.93
379.738	80.21
379.948	41.3
380.158	123.22
380.369	84.31
380.579	78.16
380.789	82.26
380.999	112.98
381.21	102.74
381.42	119.12
381.63	-9.9
381.84	104.79
382.05	80.21
382.261	37.2
382.471	69.97
382.681	65.88
382.891	129.36
383.101	92.5
383.311	106.84
383.521	63.83
383.731	92.5
383.941	84.31
384.151	110.93
384.361	31.06
384.571	80.21
384.781	65.88
384.991	49.49
385.201	145.75
385.411	39.25
385.621	119.12
385.831	35.16
386.041	117.08
386.251	151.89
386.461	90.45
386.671	119.12
386.881	129.36
387.091	72.02
387.301	84.31
387.511	117.08
387.72	137.56
387.93	110.93
388.14	43.35
388.35	76.12
388.56	149.84
388.769	31.06
388.979	84.31
389.189	102.74
389.399	127.32
389.609	88.4
389.818	106.84
390.028	94.55
390.238	55.64
390.447	127.32
390.657	86.36
390.867	37.2
391.076	47.44
391.286	131.41
391.496	112.98
391.705	123.22
391.915	158.03
392.125	78.16
392.334	100.69
392.544	129.36
392.753	63.83
392.963	-26.28
393.172	108.88
393.382	92.5
393.591	88.4
393.801	10.58
394.01	117.08
394.22	117.08
394.429	164.18
394.639	86.36
394.848	131.41
395.058	112.98
395.267	96.6
395.477	115.03
395.686	127.32
395.895	176.47
396.105	143.7
396.314	153.94
396.524	166.23
396.733	160.08
396.942	125.27
397.152	112.98
397.361	141.65
397.57	143.7
397.78	196.95
397.989	151.89
398.198	239.95
398.407	133.46
398.617	127.32
398.826	158.03
399.035	82.26
399.244	192.85
399.453	149.84
399.663	153.94
399.872	129.36
400.081	119.12
400.29	205.14
400.499	194.9
400.708	211.28
400.917	139.6
401.127	88.4
401.336	170.32
401.545	254.29
401.754	203.09
401.963	203.09
402.172	209.23
402.381	164.18
402.59	203.09
402.799	131.41
403.008	158.03
403.217	198.99
403.426	141.65
403.635	162.13
403.844	137.56
404.053	137.56
404.262	170.32
404.471	215.38
404.68	248.15
404.888	239.95
405.097	92.5
405.306	237.91
405.515	215.38
405.724	266.58
405.933	158.03
406.142	289.1
406.35	244.05
406.559	280.91
406.768	213.33
406.977	237.91
407.185	364.88
407.394	289.1
407.603	260.43
407.812	260.43
408.02	379.22
408.229	289.1
408.438	325.97
408.646	313.68
408.855	309.58
409.064	340.3
409.272	311.63
409.481	344.4
409.69	352.59
409.898	366.93
410.107	301.39
410.315	434.51
410.524	487.76
410.733	469.33
410.941	371.02
411.15	530.77
411.358	481.61
411.567	551.24
411.775	512.33
411.984	551.24
412.192	545.1
412.401	659.79
412.609	659.79
412.818	686.41
413.026	563.53
413.234	631.12
413.443	674.12
413.651	717.13
413.86	803.15
414.068	717.13
414.276	794.95
414.485	821.58
414.693	880.97
414.901	903.5
415.11	960.84
415.318	1016.13
415.526	983.37
415.734	1116.48
415.943	997.7
416.151	1110.34
416.359	1128.77
416.567	1182.02
416.776	1253.7
416.984	1233.22
417.192	1259.84
417.4	1304.9
417.608	1227.07
417.817	1288.51
418.025	1390.91
418.233	1558.85
418.441	1511.74
418.649	1677.63
418.857	1755.45
419.065	1743.16
419.273	1702.2
419.481	1792.31
419.689	1898.81
419.897	2066.74
420.105	2052.41
420.313	2070.84
420.521	2033.97
420.729	2216.24
420.937	2212.15
421.145	2392.37
421.353	2449.71
421.561	2509.1
421.769	2634.03
421.977	2699.56
422.185	2763.05
422.393	2900.27
422.601	2945.32
422.809	2941.22
423.017	2992.42
423.224	3270.95
423.432	3344.67
423.64	3361.06
423.848	3725.6
424.056	3531.04
424.263	3854.62
424.471	3791.13
424.679	4012.31
424.887	4020.5
425.094	4237.59
425.302	4311.32
425.51	4397.33
425.718	4454.67
425.925	4690.19
426.133	4688.14
426.341	5050.63
426.548	5230.85
426.756	5171.46
426.964	5347.59
427.171	5509.38
427.379	5560.58
427.586	5933.31
427.794	5982.46
428.001	6252.79
428.209	6492.4
428.417	6510.83
428.624	6854.89
428.832	7088.36
429.039	6789.36
429.247	6967.53
429.454	7467.24
429.662	8085.72
429.869	7475.43
430.076	8141.02
430.284	7690.46
430.491	8063.19
430.699	8712.4
430.906	8491.22
431.114	8863.95
431.321	9097.42
431.528	9191.63
431.736	9590.98
431.943	10213.56
432.15	9894.08
432.358	10295.48
432.565	10522.8
432.772	10453.17
432.979	11231.4
433.187	11337.9
433.394	11327.66
433.601	12015.77
433.808	12165.28
434.016	11874.46
434.223	12726.42
434.43	13545.61
434.637	13060.24
434.844	14065.79
435.052	14293.12
435.259	13936.77
435.466	14370.94
435.673	13787.27
435.88	15100.01
436.087	15915.11
436.294	15796.32
436.501	15591.53
436.708	15843.43
436.915	16261.21
437.122	17199.18
437.329	16846.93
437.537	17299.53
437.743	17973.32
437.95	17868.87
438.157	18722.87
438.364	19253.3
438.571	19394.61
438.778	19284.02
438.985	20975.64
439.192	20193.31
439.399	20881.43
439.606	20686.87
439.813	21481.49
440.02	23142.39
440.227	22456.32
440.433	22210.56
440.64	23115.76
440.847	22646.78
441.054	23867.37
441.261	25075.67
441.467	24717.28
441.674	25403.35
441.881	25995.21
442.088	26167.24
442.294	25513.94
442.501	26476.48
442.708	26757.05
442.914	28215.21
443.121	28979.1
443.328	28166.06
443.534	30082.95
443.741	29728.66
443.948	28970.91
444.154	31399.8
444.361	31000.44
444.568	31582.07
444.774	31240.06
444.981	31668.08
445.187	32583.52
445.394	34135.88
445.6	33689.43
445.807	36618.02
446.013	35071.81
446.22	35651.38
446.426	36822.82
446.633	37177.12
446.839	38332.17
447.046	36849.44
447.252	38866.69
447.459	38805.25
447.665	38618.89
447.871	40240.88
448.078	42348.24
448.284	40337.13
448.491	41135.84
448.697	42634.95
448.903	43568.83
449.11	43456.19
449.316	42663.63
449.522	43417.28
449.728	44736.17
449.935	44953.26
450.141	44879.53
450.347	45596.32
450.553	44355.25
450.76	44779.18
450.966	46392.98
451.172	45811.35
451.378	46515.86
451.584	45899.42
451.791	47242.88
451.997	46759.56
452.203	47572.61
452.409	47638.14
452.615	47210.12
452.821	45686.43
453.027	44773.03
453.233	47267.46
453.44	45498.02
453.646	46067.35
453.852	46329.49
454.058	47124.1
454.264	45637.28
454.47	45905.56
454.676	45166.24
454.882	46528.14
455.088	42739.4
455.294	43654.84
455.5	43316.93
455.705	44248.75
455.911	42680.01
456.117	41770.71
456.323	40974.05
456.529	39034.63
456.735	40779.5
456.941	39898.87
457.147	38702.85
457.352	37848.85
457.558	37209.89
457.764	37404.44
457.97	36630.31
458.176	36048.69
458.381	35749.68
458.587	34352.97
458.793	34037.58
458.999	32587.62
459.204	34684.74
459.41	33765.2
459.616	31231.86
459.821	31500.15
460.027	31686.51
460.233	30709.63
460.438	29065.11
460.644	29566.87
460.85	28344.23
461.055	27934.64
461.261	27658.16
461.466	25771.98
461.672	24414.18
461.878	26929.08
462.083	24926.17
462.289	24358.88
462.494	24303.59
462.7	23230.45
462.905	22452.22
463.111	23685.1
463.316	23611.37
463.522	22913.02
463.727	22892.54
463.932	22833.14
464.138	22626.3
464.343	22683.64
464.549	22265.86
464.754	23029.75
464.959	22783.99
465.165	22589.44
465.37	21735.43
465.575	21059.6
465.781	21817.35
465.986	22073.35
466.191	21401.61
466.397	20752.41
466.602	19871.78
466.807	20674.59
467.012	20561.95
467.218	20604.95
467.423	20269.09
467.628	20482.08
467.833	21372.94
468.038	20520.99
468.244	20170.79
468.449	20736.02
468.654	20021.28
468.859	19804.2
469.064	19888.17
469.269	18993.2
469.474	19025.97
469.679	19619.88
469.885	19093.55
470.09	19243.06
470.295	18855.99
470.5	18741.3
470.705	18530.36
470.91	18137.15
471.115	18114.62
471.32	18464.83
471.525	18341.95
471.73	17977.41
471.935	17760.33
472.139	17270.86
472.344	17594.44
472.549	17029.2
472.754	17262.67
472.959	16871.51
473.164	16154.72
473.369	16314.46
473.574	16834.64
473.778	16719.96
473.983	16451.67
474.188	16316.51
474.393	15571.05
474.598	15872.1
474.802	15521.9
475.007	15472.75
475.212	15609.96
475.417	14893.17
475.621	14874.74
475.826	15210.61
476.031	14930.03
476.235	14409.85
476.44	14590.07
476.645	14342.27
476.849	14280.83
477.054	14241.92
477.259	13836.42
477.463	14137.47
477.668	13957.25
477.872	14182.52
478.077	13529.22
478.282	13267.08
478.486	13412.49
478.691	13097.1
478.895	13138.06
479.1	13150.35
479.304	13035.66
479.509	12454.04
479.713	13037.71
479.918	12621.97
480.122	12626.07
480.326	12710.04
480.531	12701.84
480.735	12400.79
480.94	12234.91
481.144	12673.17
481.348	12181.66
481.553	12411.03
481.757	11976.86
481.961	12249.24
482.166	12337.31
482.37	12351.64
482.574	12134.56
482.778	12042.4
482.983	12247.19
483.187	12152.99
483.391	12298.39
483.595	12398.74
483.8	12097.69
484.004	12171.42
484.208	12161.18
484.412	12202.14
484.616	12142.75
484.821	12236.95
485.025	11958.43
485.229	12353.69
485.433	12204.19
485.637	12159.13
485.841	12312.73
486.045	12265.63
486.249	12230.81
486.453	12026.01
486.657	12359.83
486.861	12419.22
487.065	11821.22
487.269	12335.26
487.473	11813.03
487.677	12318.87
487.881	12464.28
488.085	12202.14
488.289	12382.36
488.493	12026.01
488.697	12396.7
488.901	12251.29
489.105	12335.26
489.309	12146.84
489.512	12417.18
489.716	12429.46
489.92	12325.02
490.124	12226.71
490.328	12517.53
490.531	12607.64
490.735	12542.1
490.939	12662.93
491.143	12603.54
491.346	12507.29
491.55	12974.22
491.754	13017.23
491.958	12978.32
492.161	12882.06
492.365	13013.13
492.569	12912.78
492.772	12755.09
492.976	13078.67
493.18	13187.21
493.383	13467.78
493.587	13365.39
493.79	13338.76
493.994	13490.31
494.197	13295.75
494.401	13623.43
494.605	13607.05
494.808	13750.4
495.012	14086.27
495.215	13969.54
495.419	14309.5
495.622	14198.91
495.825	14426.23
496.029	14485.62
496.232	14723.19
496.436	14522.49
496.639	15030.38
496.843	14950.51
497.046	15237.23
497.249	15341.68
497.453	15427.69
497.656	15519.85
497.859	15673.45
498.063	15796.32
498.266	16386.14
498.469	16146.53
498.673	16271.45
498.876	16322.65
499.079	16699.48
499.282	16617.56
499.485	17184.85
499.689	17000.53
499.892	17516.62
500.095	17489.99
500.298	17832.01
500.501	17850.44
500.705	18389.05
500.908	18331.71
501.111	18821.17
501.314	18784.31
501.517	18968.63
501.72	19038.26
501.923	19019.83
502.126	19695.66
502.329	19609.64
502.532	19849.25
502.735	20113.44
502.938	20303.9
503.141	20406.3
503.344	21043.22
503.547	20645.91
503.75	21270.54
503.953	21819.4
504.156	21694.47
504.359	22069.25
504.562	22016.01
504.765	22706.17
504.968	22929.4
505.17	23044.09
505.373	23265.27
505.576	23635.95
505.779	23627.76
505.982	23793.64
506.185	24315.87
506.387	24410.08
506.59	24631.26
506.793	25133.01
506.996	25153.49
507.198	25415.63
507.401	25501.65
507.604	25657.29
507.807	26357.7
508.009	26656.7
508.212	26853.31
508.415	27211.7
508.617	27301.81
508.82	27586.48
509.022	27692.97
509.225	28037.03
509.428	28268.45
509.63	28610.46
509.833	28405.67
510.035	29491.09
510.238	29271.96
510.44	29419.41
510.643	30062.47
510.845	30193.54
511.048	30285.7
511.25	30748.54
511.453	31246.2
511.655	32038.76
511.858	31788.91
512.06	31950.7
512.262	32128.88
512.465	32280.42
512.667	32685.92
512.87	33079.13
513.072	33269.59
513.274	33845.07
513.477	34230.09
513.679	34281.29
513.881	34793.28
514.084	34783.04
514.286	34932.54
514.488	35411.77
514.69	36224.81
514.893	36114.22
515.095	36548.39
515.297	36728.61
515.499	36904.74
515.701	37529.37
515.904	37451.55
516.106	38158.1
516.308	38205.2
516.51	38749.96
516.712	39223.04
516.914	39317.25
517.116	40034.03
517.318	39962.36
517.52	40328.94
517.722	40206.06
517.925	40965.86
518.127	41447.13
518.329	41848.53
518.531	41443.04
518.733	42352.34
518.935	42645.19
519.136	42499.79
519.338	43351.74
519.54	43701.95
519.742	43878.07
519.944	43814.58
520.146	44703.4
520.348	45033.13
520.55	45037.22
520.752	44904.1
520.954	46069.4
521.155	45491.87
521.357	46280.34
521.559	46517.9
521.761	47093.38
521.963	47005.32
522.164	47629.95
522.366	47720.06
522.568	48385.65
522.77	48295.54
522.971	49028.71
523.173	48719.47
523.375	49192.55
523.576	49233.51
523.778	49563.23
523.98	49491.55
524.181	50259.54
524.383	50443.86
524.584	50384.47
524.786	50728.53
524.988	50843.21
525.189	51174.98
525.391	51555.91
525.592	51617.35
525.794	52043.32
525.995	51752.51
526.197	52203.06
526.398	52485.68
526.6	52461.11
526.801	52878.89
527.003	52938.29
527.204	53265.96
527.406	53317.16
527.607	53407.27
527.808	53935.65
528.01	53366.31
528.211	53499.43
528.412	54476.31
528.614	54378.01
528.815	53968.41
529.016	54687.25
529.218	54201.88
529.419	54855.18
529.62	54812.18
529.822	54644.24
530.023	54906.38
530.224	54976.01
530.425	55076.36
530.626	54894.1
530.828	54648.34
531.029	56049.15
531.23	55037.45
531.431	55201.29
531.632	55156.24
531.833	55715.33
532.035	55909.89
532.236	55877.12
532.437	55797.25
532.638	55492.1
532.839	55956.99
533.04	56122.88
533.241	55682.56
533.442	56788.47
533.643	55537.16
533.844	56032.77
534.045	56294.91
534.246	55356.94
534.447	56180.22
534.648	56094.21
534.849	56108.54
535.05	55762.43
535.251	56188.41
535.451	55975.42
535.652	56122.88
535.853	56260.09
536.054	56049.15
536.255	56620.53
536.456	55692.8
536.657	56907.25
536.857	56057.34
537.058	56413.69
537.259	56315.39
537.46	56456.7
537.66	55901.7
537.861	56272.38
538.062	56000
538.263	56466.94
538.463	56012.29
538.664	55956.99
538.865	56196.6
539.065	56632.82
539.266	55819.78
539.466	56704.5
539.667	55813.63
539.868	56749.56
540.068	56190.46
540.269	56010.24
540.469	56389.11
540.67	56315.39
540.87	56043.01
541.071	56131.07
541.271	56149.5
541.472	56370.68
541.672	55817.73
541.873	55909.89
542.073	55469.57
542.274	56483.32
542.474	56094.21
542.675	55522.82
542.875	56716.79
543.075	56028.67
543.276	55721.48
543.476	56638.97
543.676	55731.71
543.877	56206.84
544.077	56319.48
544.277	56282.62
544.478	55830.02
544.678	56043.01
544.878	55610.88
545.078	55911.94
545.279	55588.36
545.479	55877.12
545.679	55934.46
545.879	55639.56
546.079	56391.16
546.28	55688.71
546.48	55430.66
546.68	55731.71
546.88	55780.87
547.08	55920.13
547.28	55567.88
547.48	55201.29
547.68	55819.78
547.88	55223.82
548.081	55778.82
548.281	55600.64
548.481	55508.49
548.681	55557.64
548.881	55713.28
549.081	55746.05
549.28	55287.31
549.48	55850.5
549.68	55373.32
549.88	55883.26
550.08	55209.48
550.28	55442.95
550.48	55508.49
550.68	56002.05
550.88	55334.41
551.08	55180.81
551.279	55342.6
551.479	54894.1
551.679	55174.67
551.879	54887.95
552.079	55594.5
552.278	55176.72
552.478	55283.21
552.678	55352.84
552.878	55518.73
553.077	55131.66
553.277	54765.07
553.477	55594.5
553.676	54926.86
553.876	55504.39
554.076	55131.66
554.275	54699.54
554.475	54484.5
554.674	55029.26
554.874	54939.15
555.074	54935.06
555.273	54961.68
555.473	55041.55
555.672	54730.26
555.872	54693.39
556.071	54496.79
556.271	55205.39
556.47	54519.32
556.67	54189.59
556.869	54738.45
557.068	54722.07
557.268	54578.71
557.467	54541.85
557.667	54705.68
557.866	54357.53
558.065	54464.02
558.265	54138.4
558.464	53429.8
558.663	54332.95
558.863	53698.08
559.062	54636.05
559.261	53534.24
559.461	54068.76
559.66	53120.55
559.859	53917.21
560.058	53712.42
560.258	53476.9
560.457	53333.54
560.656	53800.48
560.855	53345.83
561.054	53964.32
561.253	53315.11
561.453	53083.69
561.652	53546.53
561.851	53517.86
562.05	53237.29
562.249	53347.88
562.448	53317.16
562.647	52739.63
562.846	52493.88
563.045	53087.79
563.244	52432.44
563.443	53323.3
563.642	52323.89
563.841	52512.31
564.04	52563.51
564.239	52536.88
564.438	51856.96
564.637	52483.64
564.836	52260.41
565.035	51813.95
565.234	52260.41
565.432	51785.28
565.631	51666.5
565.83	51863.1
566.029	51285.57
566.228	51490.37
566.427	51484.23
566.625	51279.43
566.824	50970.19
567.023	51848.77
567.222	50359.89
567.42	51500.61
567.619	51267.14
567.818	50929.23
568.016	50835.02
568.215	51082.83
568.414	50523.73
568.612	51011.15
568.811	50298.45
569.01	51021.39
569.208	49966.68
569.407	50167.38
569.605	49581.66
569.804	50470.48
570.002	49655.39
570.201	49725.02
570.4	49569.38
570.598	49524.32
570.797	49282.66
570.995	49417.83
571.193	48893.55
571.392	49741.41
571.59	49118.82
571.789	48991.85
571.987	49145.45
572.186	48971.37
572.384	48475.76
572.582	48774.77
572.781	48832.11
572.979	47935.1
573.177	48180.85
573.376	48529.01
573.574	48266.87
573.772	48434.8
573.971	47855.23
574.169	47455.87
574.367	47763.07
574.565	48219.77
574.763	47646.33
574.962	47595.14
575.16	47136.39
575.358	47574.66
575.556	46927.5
575.754	47836.8
575.952	46499.47
576.151	47466.11
576.349	46290.58
576.547	46534.29
576.745	46704.27
576.943	46802.57
577.141	46444.18
577.339	46603.92
577.537	46153.37
577.735	46057.11
577.933	46022.3
578.131	45569.69
578.329	45842.07
578.527	45409.95
578.725	46005.91
578.923	45672.09
579.121	45592.22
579.319	45049.51
579.516	45819.55
579.714	45031.08
579.912	45117.09
580.11	45067.94
580.308	45094.57
580.506	44988.07
580.704	44183.22
580.901	44711.6
581.099	44711.6
581.297	44400.3
581.495	44416.69
581.692	44789.42
581.89	44048.05
582.088	44408.5
582.285	43654.84
582.483	44474.03
582.681	43933.37
582.878	43826.87
583.076	43183.81
583.274	43728.57
583.471	43419.33
583.669	43296.45
583.866	43097.8
584.064	43343.55
584.262	42817.22
584.459	43144.9
584.657	42819.27
584.854	43525.82
585.052	42350.29
585.249	42565.32
585.447	42559.18
585.644	42139.35
585.841	42421.97
586.039	42518.22
586.236	42114.77
586.434	41793.24
586.631	41787.1
586.828	42008.28
587.026	41434.85
587.223	41621.21
587.42	41604.83
587.618	40990.44
587.815	41176.8
588.012	40738.54
588.21	40666.86
588.407	41170.66
588.604	40695.53
588.801	40451.82
588.999	40285.93
589.196	40668.9
589.393	40111.86
589.59	40228.59
589.787	40214.26
589.984	40343.28
590.182	39700.22
590.379	40027.89
590.576	39481.08
590.773	39411.45
590.97	39212.8
591.167	39563
591.364	39042.82
591.561	39558.91
591.758	39012.1
591.955	38706.95
592.152	39323.39
592.349	38649.61
592.546	38762.25
592.743	38532.87
592.94	38348.56
593.137	38641.42
593.334	38498.06
593.531	37801.75
593.727	38422.28
593.924	38379.28
594.121	38084.37
594.318	38133.52
594.515	37152.54
594.712	38313.74
594.908	37281.56
595.105	37560.09
595.302	37117.73
595.499	37564.18
595.696	36994.85
595.892	36906.79
596.089	37246.75
596.286	36980.51
596.482	36839.2
596.679	36636.45
596.876	36519.72
597.072	36388.65
597.269	36364.07
597.466	36161.33
597.662	35782.45
597.859	35950.38
598.055	36155.18
598.252	35686.2
598.448	35743.54
598.645	35802.93
598.841	35155.77
599.038	35385.15
599.234	35080
599.431	34944.83
599.627	35053.37
599.824	35276.6
600.02	34795.33
600.217	34912.06
600.413	34639.68
600.609	34574.15
600.806	34082.64
601.002	34709.32
601.198	34166.6
601.395	34144.08
601.591	33890.13
601.787	34221.9
601.984	33658.71
602.18	34258.76
602.376	33498.97
602.572	33300.31
602.769	33480.53
602.965	33484.63
603.161	33771.35
603.357	33085.28
603.553	32952.16
603.75	32786.27
603.946	32737.12
604.142	32997.21
604.338	32606.05
604.534	32739.17
604.73	32434.02
604.926	32423.78
605.122	32411.49
605.318	32092.01
605.514	32139.11
605.71	31809.39
605.906	32175.98
606.102	31825.78
606.298	32161.64
606.494	31598.45
606.69	31850.35
606.886	31833.97
607.082	31108.99
607.278	31872.88
607.474	31100.79
607.67	31528.82
607.866	30793.6
608.062	31528.82
608.257	31381.37
608.453	31049.6
608.649	31125.37
608.845	30775.17
609.041	30594.95
609.236	30734.21
609.432	30652.29
609.628	30936.96
609.824	30502.79
610.019	30209.93
610.215	30560.13
610.411	30658.43
610.606	30345.09
610.802	30582.66
610.998	30310.28
611.193	30093.19
611.389	30115.72
611.584	29933.45
611.78	29630.35
611.976	29894.54
612.171	30021.52
612.367	29845.39
612.562	29816.72
612.758	29208.47
612.953	29224.86
613.149	29863.82
613.344	29398.93
613.539	29898.64
613.735	29747.09
613.93	29241.24
614.126	28825.5
614.321	29677.46
614.517	29087.64
614.712	29032.35
614.907	28702.62
615.103	29114.27
615.298	28690.34
615.493	28878.75
615.688	28385.19
615.884	29147.03
616.079	28456.87
616.274	28397.48
616.47	28874.65
616.665	28684.19
616.86	28213.16
617.055	28319.65
617.25	28151.72
617.445	28567.46
617.641	27637.68
617.836	27918.25
618.031	27692.97
618.226	27989.93
618.421	27269.05
618.616	27871.15
618.811	27125.69
619.006	27932.59
619.201	26949.56
619.396	27457.46
619.591	26773.44
619.786	27084.73
619.981	26351.56
620.176	27084.73
620.371	26570.69
620.566	26288.07
620.761	26570.69
620.956	26650.56
621.151	26148.81
621.346	26810.3
621.541	25810.89
621.735	26152.9
621.93	25796.56
622.125	25665.49
622.32	25296.85
622.515	25663.44
622.709	25337.81
622.904	25251.8
623.099	25264.08
623.294	25235.41
623.488	24649.69
623.683	25079.77
623.878	24219.62
624.072	24383.46
624.267	24334.31
624.462	24469.47
624.656	24092.65
624.851	24168.42
625.046	23922.66
625.24	23531.5
625.435	23316.47
625.629	23386.1
625.824	23281.65
626.018	23502.83
626.213	22820.86
626.407	23277.55
626.602	22841.34
626.796	22923.26
626.991	22601.72
627.185	22421.5
627.38	22317.06
627.574	22382.59
627.768	21919.75
627.963	21792.78
628.157	21934.09
628.352	21934.09
628.546	21563.4
628.74	21649.42
628.935	21463.05
629.129	21229.59
629.323	21080.08
629.517	20768.79
629.712	21026.84
629.906	20791.32
630.1	20836.38
630.294	20922.39
630.489	20310.05
630.683	20533.28
630.877	20095.01
631.071	20054.05
631.265	20281.38
631.459	19744.81
631.653	20023.33
631.848	19931.17
632.042	19492.91
632.236	19660.84
632.43	19449.9
632.624	19376.17
632.818	19191.86
633.012	18929.72
633.206	19030.07
633.4	19159.09
633.594	18493.5
633.788	18665.53
633.982	18790.45
634.176	18591.8
634.369	18436.16
634.563	18253.89
634.757	18010.18
634.951	18180.16
635.145	18184.26
635.339	18032.71
635.533	17668.17
635.726	17827.91
635.92	17537.1
636.114	17500.23
636.308	17518.67
636.501	17537.1
636.695	17248.33
636.889	17424.46
637.083	16920.66
637.276	17076.3
637.47	17057.87
637.664	16787.54
637.857	16910.42
638.051	16832.6
638.244	16795.73
638.438	16443.48
638.632	16343.13
638.825	16400.48
639.019	16224.35
639.212	15870.05
639.406	15698.02
639.599	16037.98
639.793	16037.98
639.986	15575.14
640.18	15915.11
640.373	15779.94
640.567	15431.79
640.76	15519.85
640.954	15245.42
641.147	15161.45
641.34	15120.49
641.534	15327.34
641.727	14780.53
641.92	14917.75
642.114	14768.24
642.307	14792.82
642.5	14798.96
642.694	14608.5
642.887	14401.66
643.08	14422.14
643.273	14381.18
643.467	14325.88
643.66	14239.87
643.853	14008.45
644.046	14028.93
644.239	13852.8
644.432	13914.24
644.626	13975.68
644.819	13715.59
645.012	13949.06
645.205	13783.17
645.398	13539.46
645.591	13181.07
645.784	13369.48
645.977	13136.01
646.17	13209.74
646.363	13146.25
646.556	13209.74
646.749	12867.73
646.942	13052.05
647.135	13035.66
647.328	12865.68
647.521	12996.75
647.714	12392.6
647.907	12624.02
648.099	12576.92
648.292	12513.43
648.485	12611.73
648.678	12220.57
648.871	12032.16
649.064	11913.38
649.256	12339.35
649.449	12036.25
649.642	12124.32
649.835	12005.53
650.027	12257.43
650.22	12095.64
650.413	11679.91
650.605	11757.73
650.798	11845.79
650.991	11645.09
651.183	11645.09
651.376	11604.13
651.568	11618.47
651.761	11239.59
651.954	11288.75
652.146	11380.9
652.339	11393.19
652.531	11241.64
652.724	11073.71
652.916	10903.73
653.109	10971.31
653.301	10793.14
653.494	11045.04
653.686	10752.18
653.879	10819.76
654.071	10574
654.263	10610.87
654.456	10627.25
654.648	10608.82
654.84	10410.17
655.033	10410.17
655.225	10238.14
655.417	10309.82
655.61	10385.59
655.802	10111.16
655.994	10207.42
656.186	10111.16
656.379	10100.92
656.571	10137.79
656.763	9969.85
656.955	9801.92
657.148	9947.33
657.34	9980.09
657.532	9830.59
657.724	9547.97
657.916	9750.72
658.108	9568.45
658.3	9537.73
658.492	9490.63
658.684	9103.56
658.876	9291.98
659.068	9494.72
659.26	9304.26
659.452	9248.97
659.644	9312.46
659.836	9078.99
660.028	9095.37
660.22	9101.51
660.412	8933.58
660.604	9005.26
660.796	8954.06
660.988	8796.37
661.18	8722.64
661.372	8685.78
661.563	8743.12
661.755	8790.22
661.947	8933.58
662.139	8542.42
662.331	8599.76
662.522	8560.85
662.714	8429.78
662.906	8411.35
663.097	8399.06
663.289	8501.46
663.481	8237.27
663.673	8337.62
663.864	8151.26
664.056	7991.52
664.247	8114.39
664.439	8124.63
664.631	8143.07
664.822	8028.38
665.014	8036.57
665.205	8052.95
665.397	7942.36
665.588	7809.25
665.78	7743.71
665.971	7874.78
666.163	7780.57
666.354	7543.01
666.546	7739.62
666.737	7743.71
666.929	7413.99
667.12	7551.2
667.311	7645.41
667.503	7528.67
667.694	7538.91
667.885	7311.59
668.077	7348.45
668.268	7305.45
668.459	7479.52
668.651	7153.9
668.842	7121.13
669.033	7012.59
669.224	7201
669.416	7176.42
669.607	7059.69
669.798	7051.5
669.989	7190.76
670.18	6988.01
670.371	7057.64
670.563	7074.03
670.754	6975.72
670.945	7004.39
671.136	6932.72
671.327	6807.79
671.518	6902
671.709	6768.88
671.9	6803.69
672.091	6760.69
672.282	6660.34
672.473	6564.08
672.664	6779.12
672.855	6674.67
673.046	6631.66
673.237	6615.28
673.428	6646
673.619	6764.78
673.809	6363.38
674	6529.27
674.191	6658.29
674.382	6371.57
674.573	6461.68
674.764	6275.32
674.954	6455.54
675.145	6396.15
675.336	6275.32
675.527	6357.24
675.717	6254.84
675.908	6379.76
676.099	6514.93
676.289	6248.69
676.48	6263.03
676.671	6174.97
676.861	6267.13
677.052	6181.11
677.243	6238.45
677.433	6035.71
677.624	6299.89
677.814	6191.35
678.005	6066.42
678.195	6152.44
678.386	6009.08
678.576	6021.37
678.767	6013.18
678.957	5841.15
679.148	6084.86
679.338	5974.27
679.529	6041.85
679.719	6000.89
679.909	6033.66
680.1	5785.85
680.29	5937.4
680.481	5869.82
680.671	5959.93
680.861	5953.79
681.052	5775.61
681.242	5771.52
681.432	5761.28
681.622	5779.71
681.813	5798.14
682.003	5892.35
682.193	5892.35
682.383	5708.03
682.573	5677.31
682.764	5556.48
682.954	5603.58
683.144	5634.3
683.334	5525.76
683.524	5619.97
683.714	5630.21
683.904	5705.98
684.094	5738.75
684.284	5536
684.474	5558.53
684.664	5515.52
684.854	5515.52
685.044	5449.99
685.234	5495.04
685.424	5495.04
685.614	5474.56
685.804	5505.28
685.994	5492.99
686.184	5472.51
686.374	5419.27
686.564	5482.75
686.753	5417.22
686.943	5116.17
687.133	5343.49
687.323	5138.69
687.513	5388.55
687.702	5230.85
687.892	5273.86
688.082	5126.41
688.272	5169.41
688.461	5210.37
688.651	5249.29
688.841	5214.47
689.03	5146.89
689.22	4958.47
689.41	5007.62
689.599	5021.96
689.789	5097.74
689.979	4782.35
690.168	4946.19
690.358	4817.16
690.547	4913.42
690.737	4876.55
690.926	4927.75
691.116	4837.64
691.305	4868.36
691.495	4786.44
691.684	4626.7
691.874	4847.88
692.063	4829.45
692.252	4733.2
692.442	4532.5
692.631	4538.64
692.82	4679.95
693.01	4569.36
693.199	4579.6
693.388	4643.09
693.578	4655.37
693.767	4454.67
693.956	4542.74
694.146	4454.67
694.335	4530.45
694.524	4360.47
694.713	4434.19
694.902	4546.83
695.092	4368.66
695.281	4442.39
695.47	4421.91
695.659	4479.25
695.848	4403.47
696.037	4360.47
696.226	4419.86
696.415	4344.08
696.604	4561.17
696.793	4301.08
696.982	4366.61
697.171	4356.37
697.36	4380.95
697.549	4235.54
697.738	4311.32
697.927	4278.55
698.116	4303.12
698.305	4182.29
698.494	4309.27
698.683	4282.64
698.872	4256.02
699.061	4225.3
699.25	4159.77
699.438	4198.68
699.627	4225.3
699.816	4165.91
700.005	4092.18
700.193	4274.45
700.382	4194.58
700.571	4198.68
700.76	4213.01
700.948	4073.75
701.137	4036.89
701.326	4012.31
701.514	4043.03
701.703	3926.3
701.892	3944.73
702.08	4206.87
702.269	4182.29
702.457	4067.61
702.646	4102.42
702.834	4077.85
703.023	4059.42
703.212	4038.94
703.4	4069.66
703.589	4061.46
703.777	4051.22
703.965	4002.07
704.154	4102.42
704.342	3780.89
704.531	3957.02
704.719	3993.88
704.907	3854.62
705.096	3977.5
705.284	3971.35
705.472	3875.1
705.661	3971.35
705.849	3930.39
706.037	3922.2
706.226	3928.35
706.414	3934.49
706.602	3811.61
706.79	3930.39
706.979	3901.72
707.167	3875.1
707.355	3850.52
707.543	4000.02
707.731	3918.11
707.919	3959.06
708.107	3729.69
708.296	3864.86
708.484	3789.08
708.672	3916.06
708.86	3967.26
709.048	3727.64
709.236	3926.3
709.424	3868.95
709.612	3768.6
709.8	3758.36
709.988	3713.31
710.176	3940.63
710.364	3967.26
710.551	3889.43
710.739	3741.98
710.927	3928.35
711.115	3844.38
711.303	3832.09
711.491	3946.78
711.679	3873.05
711.866	3875.1
712.054	3772.7
712.242	3762.46
712.43	3864.86
712.617	3690.78
712.805	3807.52
712.993	3827.99
713.181	3555.62
713.368	3770.65
713.556	3762.46
713.744	3776.8
713.931	3698.97
714.119	3780.89
714.306	3787.04
714.494	3774.75
714.682	3942.68
714.869	3619.1
715.057	3705.12
715.244	3737.88
715.432	3737.88
715.619	3703.07
715.807	3774.75
715.994	3756.32
716.182	3787.04
716.369	3709.21
716.556	3676.45
716.744	3662.11
716.931	3752.22
717.119	3801.37
717.306	3690.78
717.493	3701.02
717.681	3672.35
717.868	3715.36
718.055	3701.02
718.242	3789.08
718.43	3635.49
718.617	3676.45
718.804	3701.02
718.991	3698.97
719.179	3746.08
719.366	3586.33
719.553	3658.01
719.74	3610.91
719.927	3676.45
720.114	3674.4
720.301	3643.68
720.488	3547.42
720.676	3674.4
720.863	3668.25
721.05	3481.89
721.237	3647.77
721.424	3631.39
721.611	3643.68
721.798	3553.57
721.985	3647.77
722.172	3596.57
722.358	3453.22
722.545	3549.47
722.732	3549.47
722.919	3533.09
723.106	3508.51
723.293	3516.7
723.48	3645.73
723.667	3461.41
723.853	3531.04
724.04	3641.63
724.227	3537.18
724.414	3377.44
724.6	3442.98
724.787	3680.54
724.974	3508.51
725.161	3451.17
725.347	3416.35
725.534	3606.81
725.72	3508.51
725.907	3406.11
726.094	3461.41
726.28	3539.23
726.467	3459.36
726.653	3539.23
726.84	3500.32
727.027	3528.99
727.213	3361.06
727.4	3506.46
727.586	3404.07
727.773	3283.24
727.959	3561.76
728.145	3508.51
728.332	3391.78
728.518	3475.74
728.705	3324.19
728.891	3412.26
729.077	3475.74
729.264	3254.56
729.45	3297.57
729.636	3369.25
729.823	3234.08
730.009	3305.76
730.195	3330.34
730.382	3459.36
730.568	3408.16
730.754	3436.83
730.94	3399.97
731.126	3397.92
731.313	3483.94
731.499	3324.19
731.685	3371.3
731.871	3359.01
732.057	3344.67
732.243	3404.07
732.429	3305.76
732.615	3320.1
732.801	3393.83
732.987	3307.81
733.173	3184.93
733.359	3252.52
733.545	3268.9
733.731	3365.15
733.917	3219.75
734.103	3356.96
734.289	3332.39
734.475	3270.95
734.661	3268.9
734.847	3266.85
735.033	3299.62
735.219	3246.37
735.404	3158.31
735.59	3225.89
735.776	3252.52
735.962	3295.52
736.148	3273
736.333	3234.08
736.519	3178.79
736.705	3076.39
736.89	3217.7
737.076	3303.71
737.262	3223.84
737.447	3135.78
737.633	3055.91
737.819	3094.82
738.004	3107.11
738.19	3148.07
738.375	3103.01
738.561	3172.64
738.747	3107.11
738.932	3037.48
739.118	3037.48
739.303	3111.21
739.489	3084.58
739.674	3060.01
739.859	3156.26
740.045	3037.48
740.23	2969.9
740.416	3012.9
740.601	3021.1
740.786	3029.29
740.972	2906.41
741.157	2857.26
741.342	2933.03
741.528	2912.55
741.713	2810.15
741.898	2861.35
742.084	2910.5
742.269	2855.21
742.454	2877.74
742.639	2906.41
742.824	2826.54
743.01	2887.98
743.195	2783.53
743.38	2758.96
743.565	2738.48
743.75	2865.45
743.935	2687.28
744.12	2763.05
744.305	2681.13
744.49	2656.56
744.675	2699.56
744.86	2734.38
745.045	2668.84
745.23	2748.72
745.415	2718
745.6	2654.51
745.785	2617.65
745.97	2634.03
746.155	2615.6
746.34	2613.55
746.525	2486.58
746.71	2631.98
746.895	2490.67
747.079	2429.23
747.264	2341.17
747.449	2552.11
747.634	2558.25
747.819	2545.97
748.003	2490.67
748.188	2287.92
748.373	2433.33
748.557	2443.57
748.742	2543.92
748.927	2373.94
749.111	2314.55
749.296	2316.59
749.481	2253.11
749.665	2314.55
749.85	2318.64
750.034	2226.48
750.219	2322.74
750.404	2259.25
750.588	2324.79
750.773	2175.28
750.957	2304.31
751.141	2214.2
751.326	2115.89
751.51	2091.32
751.695	2189.62
751.879	2115.89
752.064	2206
752.248	2036.02
752.432	2091.32
752.617	2068.79
752.801	2019.64
752.985	2031.93
753.17	1947.96
753.354	2050.36
753.538	2079.03
753.722	1945.91
753.907	1917.24
754.091	2081.08
754.275	1939.77
754.459	1968.44
754.643	1970.49
754.828	1868.09
755.012	1954.1
755.196	1737.02
755.38	1814.84
755.564	1845.56
755.748	1816.89
755.932	1859.9
756.116	1896.76
756.3	1849.66
756.484	1771.83
756.668	1730.87
756.852	1646.91
757.036	1696.06
757.22	1708.35
757.404	1675.58
757.588	1734.97
757.772	1741.11
757.956	1605.95
758.14	1730.87
758.323	1591.61
758.507	1612.09
758.691	1583.42
758.875	1626.43
759.059	1696.06
759.242	1624.38
759.426	1601.85
759.61	1567.04
759.794	1691.96
759.977	1519.93
760.161	1618.24
760.345	1655.1
760.528	1554.75
760.712	1571.13
760.895	1517.89
761.079	1497.41
761.263	1472.83
761.446	1384.77
761.63	1554.75
761.813	1530.17
761.997	1419.58
762.18	1325.38
762.364	1505.6
762.547	1411.39
762.731	1448.26
762.914	1462.59
763.098	1392.96
763.281	1352
763.464	1464.64
763.648	1458.5
763.831	1481.02
764.015	1308.99
764.198	1452.35
764.381	1286.47
764.564	1438.02
764.748	1317.19
764.931	1300.8
765.114	1270.08
765.297	1296.71
765.481	1448.26
765.664	1317.19
765.847	1300.8
766.03	1407.3
766.213	1255.75
766.397	1333.57
766.58	1325.38
766.763	1395.01
766.946	1249.6
767.129	1339.71
767.312	1218.88
767.495	1229.12
767.678	1235.27
767.861	1231.17
768.044	1159.49
768.227	1143.11
768.41	1130.82
768.593	1239.36
768.776	1255.75
768.959	1243.46
769.142	1239.36
769.324	1190.21
769.507	1251.65
769.69	1237.31
769.873	1231.17
770.056	1247.55
770.239	1163.59
770.421	1227.07
770.604	1163.59
770.787	1216.83
770.97	1143.11
771.152	1048.9
771.335	1085.76
771.518	1182.02
771.7	1063.24
771.883	1216.83
772.066	1077.57
772.248	1073.48
772.431	1014.09
772.613	1028.42
772.796	1087.81
772.978	975.17
773.161	1139.01
773.343	1124.68
773.526	1061.19
773.708	919.88
773.891	1016.13
774.073	1044.81
774.256	1026.37
774.438	1059.14
774.621	1020.23
774.803	966.98
774.985	954.69
775.168	960.84
775.35	903.5
775.532	993.61
775.715	940.36
775.897	1026.37
776.079	874.82
776.261	1075.52
776.444	948.55
776.626	973.13
776.808	874.82
776.99	829.77
777.173	907.59
777.355	862.54
777.537	891.21
777.719	919.88
777.901	934.22
778.083	878.92
778.265	821.58
778.447	899.4
778.629	807.24
778.811	817.48
778.993	842.06
779.175	760.14
779.357	784.71
779.539	805.19
779.721	858.44
779.903	698.7
780.085	844.1
780.267	837.96
780.449	811.34
780.631	782.67
780.812	797
780.994	784.71
781.176	682.31
781.358	817.48
781.54	735.56
781.721	807.24
781.903	655.69
782.085	733.51
782.267	745.8
782.448	713.03
782.63	774.47
782.812	727.37
782.993	770.38
783.175	731.47
783.357	686.41
783.538	653.64
783.72	657.74
783.901	586.06
784.083	637.26
784.264	661.84
784.446	651.6
784.627	676.17
784.809	717.13
784.99	649.55
785.172	682.31
785.353	700.75
785.535	584.01
785.716	598.35
785.897	526.67
786.079	500.05
786.26	629.07
786.441	622.92
786.623	608.59
786.804	622.92
786.985	600.4
787.167	596.3
787.348	590.16
787.529	596.3
787.71	641.36
787.891	579.92
788.073	454.99
788.254	489.81
788.435	522.57
788.616	479.57
788.797	524.62
788.978	620.88
789.159	563.53
789.34	534.86
789.522	489.81
789.703	551.24
789.884	514.38
790.065	426.32
790.246	536.91
790.427	508.24
790.607	479.57
790.788	547.15
790.969	467.28
791.15	475.47
791.331	493.9
791.512	483.66
791.693	459.09
791.874	541.01
792.054	481.61
792.235	487.76
792.416	444.75
792.597	432.46
792.778	498
792.958	448.85
793.139	420.17
793.32	409.94
793.5	409.94
793.681	481.61
793.862	440.65
794.042	446.8
794.223	381.26
794.404	473.42
794.584	407.89
794.765	461.13
794.945	416.08
795.126	432.46
795.306	409.94
795.487	405.84
795.667	377.17
795.848	334.16
796.028	440.65
796.209	434.51
796.389	465.23
796.57	391.5
796.75	424.27
796.93	430.41
797.111	354.64
797.291	411.98
797.471	432.46
797.652	416.08
797.832	393.55
798.012	356.69
798.192	301.39
798.373	346.45
798.553	307.54
798.733	299.34
798.913	381.26
799.093	315.73
799.274	346.45
799.454	389.46
799.634	375.12
799.814	397.65
799.994	403.79
800.174	299.34
800.354	342.35
800.534	301.39
800.714	346.45
800.894	342.35
801.074	248.15
801.254	311.63
801.434	405.84
801.614	319.82
801.794	319.82
801.974	895.3
802.154	305.49
802.334	356.69
802.514	239.95
802.693	295.25
802.873	317.78
803.053	352.59
803.233	317.78
803.413	301.39
803.592	262.48
803.772	280.91
803.952	346.45
804.131	237.91
804.311	358.74
804.491	346.45
804.67	278.87
804.85	256.34
805.03	325.97
805.209	303.44
805.389	293.2
805.568	268.63
805.748	227.67
805.928	276.82
806.107	272.72
806.287	274.77
806.466	250.19
806.646	256.34
806.825	264.53
807.004	260.43
807.184	268.63
807.363	244.05
807.543	217.43
807.722	278.87
807.901	270.67
808.081	311.63
808.26	229.71
808.439	317.78
808.619	254.29
808.798	278.87
808.977	237.91
809.156	321.87
809.336	219.47
809.515	293.2
809.694	250.19
809.873	203.09
810.052	184.66
810.231	280.91
810.411	203.09
810.59	252.24
810.769	346.45
810.948	266.58
811.127	131.41
811.306	244.05
811.485	242
811.664	287.06
811.843	348.5
812.022	266.58
812.201	301.39
812.38	207.19
812.559	237.91
812.737	207.19
812.916	192.85
813.095	215.38
813.274	268.63
813.453	155.99
813.632	248.15
813.811	260.43
813.989	205.14
814.168	272.72
814.347	207.19
814.526	285.01
814.704	264.53
814.883	227.67
815.062	211.28
815.24	211.28
815.419	239.95
815.598	160.08
815.776	131.41
815.955	215.38
816.133	133.46
816.312	182.61
816.49	233.81
816.669	237.91
816.847	155.99
817.026	244.05
817.204	217.43
817.383	137.56
817.561	190.8
817.74	217.43
817.918	280.91
818.097	205.14
818.275	252.24
818.453	153.94
818.632	217.43
818.81	186.71
818.988	143.7
819.167	211.28
819.345	211.28
819.523	252.24
819.701	80.21
819.879	268.63
820.058	141.65
820.236	190.8
820.414	137.56
820.592	162.13
820.77	235.86
820.948	227.67
821.127	186.71
821.305	151.89
821.483	205.14
821.661	172.37
821.839	129.36
822.017	190.8
822.195	168.27
822.373	198.99
822.551	141.65
822.729	205.14
822.907	211.28
823.085	160.08
823.262	141.65
823.44	133.46
823.618	176.47
823.796	123.22
823.974	248.15
824.152	135.51
824.329	92.5
824.507	248.15
824.685	209.23
824.863	131.41
825.04	170.32
825.218	104.79
825.396	219.47
825.574	149.84
825.751	170.32
825.929	80.21
826.107	160.08
826.284	168.27
826.462	108.88
826.639	176.47
826.817	121.17
826.994	160.08
827.172	129.36
827.349	133.46
827.527	131.41
827.704	190.8
827.882	158.03
828.059	102.74
828.237	119.12
828.414	178.51
828.591	106.84
828.769	151.89
828.946	53.59
829.124	145.75
829.301	131.41
829.478	151.89
829.655	196.95
829.833	155.99
830.01	84.31
830.187	201.04
830.364	145.75
830.542	182.61
830.719	194.9
830.896	108.88
831.073	147.8
831.25	174.42
831.427	145.75
831.604	119.12
831.782	88.4
831.959	92.5
832.136	110.93
832.313	94.55
832.49	129.36
832.667	117.08
832.844	129.36
833.021	139.6
833.198	133.46
833.374	151.89
833.551	100.69
833.728	158.03
833.905	125.27
834.082	162.13
834.259	119.12
834.436	143.7
834.612	57.68
834.789	10.58
834.966	121.17
835.143	106.84
835.319	69.97
835.496	190.8
835.673	166.23
835.85	129.36
836.026	133.46
836.203	94.55
836.38	57.68
836.556	47.44
836.733	90.45
836.909	153.94
837.086	76.12
837.262	74.07
837.439	117.08
837.616	147.8
837.792	65.88
837.968	123.22
838.145	90.45
838.321	45.4
838.498	129.36
838.674	78.16
838.851	139.6
839.027	59.73
839.203	90.45
839.38	149.84
839.556	49.49
839.732	76.12
839.909	96.6
840.085	51.54
840.261	123.22
840.437	80.21
840.614	37.2
840.79	104.79
840.966	84.31
841.142	47.44
841.318	37.2
841.494	112.98
841.671	160.08
841.847	33.11
842.023	69.97
842.199	117.08
842.375	115.03
842.551	55.64
842.727	63.83
842.903	141.65
843.079	37.2
843.255	117.08
843.431	125.27
843.607	96.6
843.783	14.68
843.959	110.93
844.134	39.25
844.31	57.68
844.486	4.44
844.662	57.68
844.838	96.6
845.013	112.98
845.189	63.83
845.365	102.74
845.541	106.84
845.716	16.73
845.892	63.83
846.068	104.79
846.244	67.92
846.419	143.7
846.595	82.26
846.77	63.83
846.946	153.94
847.122	119.12
847.297	55.64
847.473	108.88
847.648	-5.8
847.824	88.4
847.999	31.06
848.175	61.78
848.35	78.16
848.526	117.08
848.701	43.35
848.876	55.64
849.052	90.45
849.227	57.68
849.403	76.12
849.578	55.64
849.753	65.88
849.929	31.06
850.104	88.4
850.279	78.16
850.454	72.02
850.63	59.73
850.805	84.31
850.98	92.5
851.155	61.78
851.33	119.12
851.505	47.44
851.681	61.78
851.856	22.87
852.031	55.64
852.206	-1.71
852.381	57.68
852.556	86.36
852.731	115.03
852.906	55.64
853.081	69.97
853.256	47.44
853.431	39.25
853.606	31.06
853.781	37.2
853.956	18.77
854.131	127.32
854.305	26.96
854.48	65.88
854.655	61.78
854.83	2.39
855.005	86.36
855.18	67.92
855.354	12.63
855.529	16.73
855.704	22.87
855.879	166.23
856.053	33.11
856.228	35.16
856.403	39.25
856.577	80.21
856.752	63.83
856.926	49.49
857.101	110.93
857.276	67.92
857.45	14.68
857.625	57.68
857.799	10.58
857.974	18.77
858.148	10.58
858.323	51.54
858.497	22.87
858.672	29.01
858.846	-13.99
859.02	90.45
859.195	18.77
859.369	92.5
859.543	102.74
859.718	14.68
859.892	37.2
860.066	96.6
860.241	12.63
860.415	-26.28
860.589	24.92
860.763	86.36
860.938	84.31
861.112	37.2
861.286	-18.09
861.46	96.6
861.634	26.96
861.808	94.55
861.982	14.68
862.157	57.68
862.331	12.63
862.505	10.58
862.679	35.16
862.853	-11.95
863.027	6.49
863.201	45.4
863.375	61.78
863.549	92.5
863.722	72.02
863.896	96.6
864.07	26.96
864.244	2.39
864.418	76.12
864.592	2.39
864.766	74.07
864.939	78.16
865.113	39.25
865.287	65.88
865.461	-5.8
865.634	80.21
865.808	61.78
865.982	82.26
866.156	16.73
866.329	63.83
866.503	47.44
866.676	59.73
866.85	47.44
867.024	-9.9
867.197	84.31
867.371	57.68
867.544	45.4
867.718	-16.04
867.891	86.36
868.065	74.07
868.238	55.64
868.412	12.63
868.585	76.12
868.759	33.11
868.932	69.97
869.105	18.77
869.279	6.49
869.452	6.49
869.625	55.64
869.799	92.5
869.972	14.68
870.145	16.73
870.319	51.54
870.492	43.35
870.665	31.06
870.838	51.54
871.011	-34.47
871.185	10.58
871.358	-16.04
871.531	51.54
871.704	76.12
871.877	59.73
872.05	-40.62
872.223	24.92
872.396	59.73
872.569	129.36
872.742	45.4
872.915	14.68
873.088	37.2
873.261	16.73
873.434	53.59
873.607	53.59
873.78	96.6
873.953	39.25
874.126	10.58
874.299	39.25
874.471	2.39
874.644	80.21
874.817	37.2
874.99	69.97
875.163	6.49
875.335	6.49
875.508	39.25
875.681	43.35
875.853	76.12
876.026	47.44
876.199	39.25
876.371	35.16
876.544	24.92
876.717	26.96
876.889	31.06
877.062	63.83
877.234	45.4
877.407	35.16
877.579	45.4
877.752	76.12
877.924	72.02
878.097	-13.99
878.269	-1.71
878.442	90.45
878.614	6.49
878.786	35.16
878.959	12.63
879.131	35.16
879.303	-13.99
879.476	-16.04
879.648	37.2
879.82	-5.8
879.993	20.82
880.165	-22.19
880.337	-46.76
880.509	43.35
880.681	20.82
880.854	14.68
881.026	88.4
881.198	86.36
881.37	55.64
881.542	39.25
881.714	47.44
881.886	26.96
882.058	31.06
882.23	78.16
882.402	57.68
882.574	37.2
882.746	45.4
882.918	-9.9
883.09	59.73
883.262	76.12
883.434	76.12
883.606	18.77
883.778	65.88
883.95	92.5
884.122	59.73
884.293	33.11
884.465	43.35
884.637	63.83
884.809	31.06
884.98	22.87
885.152	43.35
885.324	-13.99
885.496	-5.8
885.667	39.25
885.839	26.96
886.011	-9.9
886.182	-13.99
886.354	72.02
886.525	57.68
886.697	16.73
886.869	-3.75
887.04	20.82
887.212	31.06
887.383	88.4
887.555	18.77
887.726	-7.85
887.897	55.64
888.069	41.3
888.24	47.44
888.412	-30.38
888.583	-20.14
888.754	59.73
888.926	-11.95
889.097	-75.43
889.268	4.44
889.44	37.2
889.611	-5.8
889.782	-5.8
889.953	20.82
890.125	18.77
890.296	-11.95
890.467	43.35
890.638	8.53
890.809	98.64
890.98	22.87
891.151	24.92
891.323	26.96
891.494	61.78
891.665	47.44
891.836	49.49
892.007	37.2
892.178	74.07
892.349	31.06
892.52	67.92
892.691	61.78
892.862	39.25
893.032	26.96
893.203	-24.23
893.374	22.87
893.545	102.74
893.716	-36.52
893.887	72.02
894.057	10.58
894.228	26.96
894.399	55.64
894.57	37.2
894.74	39.25
894.911	18.77
895.082	45.4
895.253	49.49
895.423	10.58
895.594	63.83
895.764	51.54
895.935	37.2
896.106	74.07
896.276	-48.81
896.447	59.73
896.617	-36.52
896.788	-9.9
896.958	55.64
897.129	4.44
897.299	10.58
897.47	12.63
897.64	12.63
897.81	-26.28
897.981	-9.9
898.151	-42.67
898.322	51.54
898.492	-9.9
898.662	94.55
898.832	24.92
899.003	67.92
899.173	37.2
899.343	-44.71
899.513	35.16
