Data from USB4F104151__150__10-26-40-104.txt Node

Date: Wed Mar 12 10:26:40 EDT 2025
User: louis
Spectrometer: USB4F10415
Trigger mode: 4
Integration Time (sec): 3.000000E-2
Scans to average: 1
Electric dark correction enabled: true
Nonlinearity correction enabled: false
Boxcar width: 0
XAxis mode: Wavelengths
Number of Pixels in Spectrum: 3648
>>>>>Begin Spectral Data<<<<<
178.204	-131.92
178.424	-131.92
178.644	-131.92
178.864	-136.02
179.084	-64.34
179.304	23.72
179.524	40.11
179.744	25.77
179.964	17.58
180.184	11.43
180.404	-13.14
180.624	-17.24
180.844	-76.63
181.064	-37.72
181.283	13.48
181.503	-7
181.723	19.63
181.943	1.19
182.163	19.63
182.383	42.15
182.602	42.15
182.822	72.87
183.042	74.92
183.262	-2.9
183.482	36.01
183.701	-11.09
183.921	-0.85
184.141	48.3
184.361	130.22
184.58	40.11
184.8	64.68
185.02	74.92
185.239	7.34
185.459	109.74
185.679	3.24
185.898	-47.96
186.118	-0.85
186.338	70.83
186.557	85.16
186.777	11.43
186.997	9.39
187.216	3.24
187.436	81.07
187.655	15.53
187.875	3.24
188.095	81.07
188.314	3.24
188.534	72.87
188.753	38.06
188.973	19.63
189.192	15.53
189.412	23.72
189.631	27.82
189.851	15.53
190.07	56.49
190.29	23.72
190.509	40.11
190.729	29.87
190.948	74.92
191.168	66.73
191.387	60.59
191.607	42.15
191.826	-0.85
192.045	-29.52
192.265	44.2
192.484	48.3
192.704	38.06
192.923	-19.29
193.142	68.78
193.362	72.87
193.581	31.91
193.8	64.68
194.02	42.15
194.239	17.58
194.458	27.82
194.678	-68.44
194.897	15.53
195.116	21.67
195.335	48.3
195.555	46.25
195.774	48.3
195.993	68.78
196.212	48.3
196.432	40.11
196.651	9.39
196.87	48.3
197.089	85.16
197.308	-29.52
197.528	23.72
197.747	111.78
197.966	74.92
198.185	54.44
198.404	33.96
198.623	7.34
198.842	70.83
199.062	3.24
199.281	40.11
199.5	60.59
199.719	91.31
199.938	70.83
200.157	64.68
200.376	33.96
200.595	23.72
200.814	-21.33
201.033	-45.91
201.252	62.63
201.471	83.11
201.69	36.01
201.909	33.96
202.128	27.82
202.347	42.15
202.566	7.34
202.785	-0.85
203.004	-37.72
203.223	64.68
203.442	-13.14
203.661	72.87
203.879	-25.43
204.098	5.29
204.317	40.11
204.536	115.88
204.755	19.63
204.974	79.02
205.193	52.39
205.411	160.94
205.63	42.15
205.849	-0.85
206.068	85.16
206.287	44.2
206.505	89.26
206.724	62.63
206.943	29.87
207.162	15.53
207.381	31.91
207.599	9.39
207.818	74.92
208.037	46.25
208.255	31.91
208.474	56.49
208.693	13.48
208.911	93.35
209.13	44.2
209.349	42.15
209.567	66.73
209.786	62.63
210.005	9.39
210.223	1.19
210.442	-29.52
210.661	50.35
210.879	13.48
211.098	46.25
211.316	3.24
211.535	40.11
211.753	36.01
211.972	23.72
212.191	60.59
212.409	91.31
212.628	29.87
212.846	27.82
213.065	124.07
213.283	111.78
213.502	68.78
213.72	15.53
213.938	15.53
214.157	-2.9
214.375	-19.29
214.594	-15.19
214.812	7.34
215.031	99.5
215.249	-15.19
215.467	27.82
215.686	74.92
215.904	81.07
216.122	83.11
216.341	72.87
216.559	81.07
216.778	5.29
216.996	72.87
217.214	-43.86
217.432	-52.05
217.651	76.97
217.869	33.96
218.087	-0.85
218.306	46.25
218.524	36.01
218.742	19.63
218.96	-21.33
219.179	68.78
219.397	36.01
219.615	89.26
219.833	44.2
220.051	31.91
220.27	79.02
220.488	60.59
220.706	68.78
220.924	9.39
221.142	1.19
221.36	21.67
221.578	89.26
221.796	72.87
222.015	99.5
222.233	-33.62
222.451	25.77
222.669	-74.58
222.887	79.02
223.105	23.72
223.323	5.29
223.541	11.43
223.759	21.67
223.977	11.43
224.195	115.88
224.413	19.63
224.631	115.88
224.849	-4.95
225.067	146.6
225.285	7.34
225.503	52.39
225.721	76.97
225.939	44.2
226.157	19.63
226.375	148.65
226.592	25.77
226.81	42.15
227.028	68.78
227.246	38.06
227.464	74.92
227.682	31.91
227.9	48.3
228.117	3.24
228.335	19.63
228.553	-7
228.771	68.78
228.989	148.65
229.206	-4.95
229.424	60.59
229.642	68.78
229.86	-4.95
230.077	101.55
230.295	13.48
230.513	40.11
230.731	83.11
230.948	31.91
231.166	11.43
231.384	25.77
231.601	-7
231.819	72.87
232.037	66.73
232.254	29.87
232.472	142.5
232.689	-27.48
232.907	117.93
233.125	66.73
233.342	44.2
233.56	-0.85
233.777	15.53
233.995	50.35
234.213	58.54
234.43	103.59
234.648	50.35
234.865	66.73
235.083	64.68
235.3	33.96
235.518	105.64
235.735	87.21
235.953	15.53
236.17	38.06
236.388	-15.19
236.605	140.46
236.822	52.39
237.04	31.91
237.257	44.2
237.475	-33.62
237.692	93.35
237.909	27.82
238.127	-25.43
238.344	19.63
238.562	44.2
238.779	-4.95
238.996	23.72
239.214	15.53
239.431	97.45
239.648	-17.24
239.865	42.15
240.083	122.02
240.3	-17.24
240.517	23.72
240.735	44.2
240.952	52.39
241.169	89.26
241.386	17.58
241.603	-17.24
241.821	46.25
242.038	76.97
242.255	36.01
242.472	38.06
242.689	40.11
242.907	140.46
243.124	68.78
243.341	23.72
243.558	11.43
243.775	42.15
243.992	5.29
244.209	31.91
244.426	70.83
244.643	52.39
244.86	52.39
245.078	85.16
245.295	19.63
245.512	27.82
245.729	48.3
245.946	66.73
246.163	44.2
246.38	3.24
246.597	27.82
246.814	79.02
247.031	9.39
247.248	85.16
247.464	-13.14
247.681	36.01
247.898	15.53
248.115	68.78
248.332	-4.95
248.549	50.35
248.766	148.65
248.983	64.68
249.2	-23.38
249.417	85.16
249.633	21.67
249.85	46.25
250.067	-2.9
250.284	66.73
250.501	25.77
250.717	68.78
250.934	9.39
251.151	44.2
251.368	44.2
251.585	46.25
251.801	13.48
252.018	27.82
252.235	52.39
252.451	40.11
252.668	31.91
252.885	25.77
253.102	40.11
253.318	68.78
253.535	-56.15
253.752	-23.38
253.968	46.25
254.185	-39.76
254.401	36.01
254.618	60.59
254.835	52.39
255.051	44.2
255.268	19.63
255.484	-11.09
255.701	-29.52
255.917	58.54
256.134	5.29
256.351	68.78
256.567	36.01
256.784	-33.62
257	36.01
257.217	31.91
257.433	85.16
257.65	60.59
257.866	134.31
258.082	-4.95
258.299	40.11
258.515	72.87
258.732	130.22
258.948	17.58
259.165	40.11
259.381	46.25
259.597	58.54
259.814	40.11
260.03	60.59
260.246	52.39
260.463	95.4
260.679	31.91
260.895	44.2
261.112	36.01
261.328	60.59
261.544	11.43
261.761	107.69
261.977	-21.33
262.193	-23.38
262.409	42.15
262.626	29.87
262.842	60.59
263.058	13.48
263.274	128.17
263.49	95.4
263.707	72.87
263.923	15.53
264.139	72.87
264.355	9.39
264.571	109.74
264.787	-0.85
265.004	85.16
265.22	5.29
265.436	11.43
265.652	62.63
265.868	72.87
266.084	-13.14
266.3	40.11
266.516	81.07
266.732	105.64
266.948	76.97
267.164	64.68
267.38	27.82
267.596	89.26
267.812	89.26
268.028	50.35
268.244	29.87
268.46	85.16
268.676	99.5
268.892	-70.48
269.108	52.39
269.324	15.53
269.54	-11.09
269.756	50.35
269.972	19.63
270.188	3.24
270.403	56.49
270.619	76.97
270.835	83.11
271.051	31.91
271.267	11.43
271.483	3.24
271.698	3.24
271.914	44.2
272.13	111.78
272.346	85.16
272.562	76.97
272.777	33.96
272.993	33.96
273.209	7.34
273.425	36.01
273.64	38.06
273.856	58.54
274.072	29.87
274.287	-7
274.503	103.59
274.719	27.82
274.934	15.53
275.15	-13.14
275.366	-21.33
275.581	-45.91
275.797	52.39
276.012	15.53
276.228	109.74
276.444	11.43
276.659	3.24
276.875	15.53
277.09	50.35
277.306	-41.81
277.521	27.82
277.737	83.11
277.952	38.06
278.168	52.39
278.383	33.96
278.599	52.39
278.814	124.07
279.03	-0.85
279.245	117.93
279.461	52.39
279.676	50.35
279.892	36.01
280.107	25.77
280.322	56.49
280.538	56.49
280.753	-13.14
280.969	36.01
281.184	19.63
281.399	25.77
281.615	-9.05
281.83	44.2
282.045	-17.24
282.26	-27.48
282.476	117.93
282.691	5.29
282.906	72.87
283.122	105.64
283.337	13.48
283.552	11.43
283.767	-43.86
283.983	9.39
284.198	19.63
284.413	54.44
284.628	44.2
284.843	-19.29
285.058	23.72
285.274	117.93
285.489	-17.24
285.704	107.69
285.919	-13.14
286.134	58.54
286.349	52.39
286.564	93.35
286.779	21.67
286.995	60.59
287.21	76.97
287.425	48.3
287.64	11.43
287.855	27.82
288.07	-11.09
288.285	89.26
288.5	87.21
288.715	31.91
288.93	31.91
289.145	-33.62
289.36	93.35
289.575	44.2
289.79	79.02
290.004	56.49
290.219	99.5
290.434	91.31
290.649	-7
290.864	66.73
291.079	-19.29
291.294	60.59
291.509	83.11
291.724	13.48
291.938	1.19
292.153	36.01
292.368	44.2
292.583	130.22
292.798	113.83
293.012	66.73
293.227	52.39
293.442	27.82
293.657	23.72
293.871	101.55
294.086	13.48
294.301	68.78
294.516	83.11
294.73	119.98
294.945	-0.85
295.16	-0.85
295.374	99.5
295.589	38.06
295.804	-39.76
296.018	52.39
296.233	52.39
296.447	83.11
296.662	85.16
296.877	68.78
297.091	-21.33
297.306	42.15
297.52	70.83
297.735	15.53
297.949	56.49
298.164	89.26
298.378	29.87
298.593	126.12
298.807	23.72
299.022	-19.29
299.236	33.96
299.451	23.72
299.665	79.02
299.88	83.11
300.094	89.26
300.309	27.82
300.523	44.2
300.737	66.73
300.952	48.3
301.166	36.01
301.381	11.43
301.595	68.78
301.809	-0.85
302.024	13.48
302.238	91.31
302.452	109.74
302.667	-39.76
302.881	144.55
303.095	58.54
303.309	111.78
303.524	-11.09
303.738	40.11
303.952	1.19
304.166	85.16
304.381	85.16
304.595	117.93
304.809	-33.62
305.023	38.06
305.237	-27.48
305.452	27.82
305.666	72.87
305.88	87.21
306.094	93.35
306.308	19.63
306.522	85.16
306.736	15.53
306.95	-11.09
307.164	-56.15
307.379	23.72
307.593	124.07
307.807	15.53
308.021	50.35
308.235	76.97
308.449	-0.85
308.663	21.67
308.877	64.68
309.091	48.3
309.305	79.02
309.519	5.29
309.733	66.73
309.947	-31.57
310.161	66.73
310.374	74.92
310.588	42.15
310.802	19.63
311.016	52.39
311.23	25.77
311.444	66.73
311.658	66.73
311.872	111.78
312.085	83.11
312.299	52.39
312.513	60.59
312.727	56.49
312.941	91.31
313.154	101.55
313.368	-9.05
313.582	122.02
313.796	83.11
314.009	44.2
314.223	66.73
314.437	101.55
314.651	56.49
314.864	44.2
315.078	-4.95
315.292	66.73
315.505	36.01
315.719	130.22
315.933	-15.19
316.146	15.53
316.36	68.78
316.573	74.92
316.787	21.67
317.001	52.39
317.214	107.69
317.428	36.01
317.641	-9.05
317.855	40.11
318.068	21.67
318.282	56.49
318.495	101.55
318.709	72.87
318.922	85.16
319.136	119.98
319.349	11.43
319.563	52.39
319.776	33.96
319.99	7.34
320.203	62.63
320.417	-23.38
320.63	17.58
320.843	70.83
321.057	19.63
321.27	52.39
321.483	83.11
321.697	126.12
321.91	60.59
322.124	46.25
322.337	9.39
322.55	5.29
322.763	60.59
322.977	44.2
323.19	56.49
323.403	97.45
323.617	60.59
323.83	48.3
324.043	-9.05
324.256	89.26
324.469	36.01
324.683	132.26
324.896	44.2
325.109	74.92
325.322	74.92
325.535	87.21
325.748	58.54
325.962	-45.91
326.175	48.3
326.388	113.83
326.601	44.2
326.814	44.2
327.027	31.91
327.24	46.25
327.453	21.67
327.666	27.82
327.879	66.73
328.092	36.01
328.305	58.54
328.518	-43.86
328.731	66.73
328.944	1.19
329.157	-4.95
329.37	-4.95
329.583	144.55
329.796	113.83
330.009	-4.95
330.222	99.5
330.435	25.77
330.648	68.78
330.861	66.73
331.073	87.21
331.286	44.2
331.499	44.2
331.712	60.59
331.925	33.96
332.138	27.82
332.35	85.16
332.563	-27.48
332.776	79.02
332.989	89.26
333.202	11.43
333.414	42.15
333.627	44.2
333.84	19.63
334.053	-70.48
334.265	58.54
334.478	115.88
334.691	138.41
334.903	76.97
335.116	76.97
335.329	27.82
335.541	87.21
335.754	58.54
335.966	52.39
336.179	-2.9
336.392	52.39
336.604	27.82
336.817	29.87
337.029	27.82
337.242	56.49
337.454	76.97
337.667	7.34
337.88	38.06
338.092	23.72
338.305	-4.95
338.517	115.88
338.729	36.01
338.942	130.22
339.154	13.48
339.367	79.02
339.579	70.83
339.792	25.77
340.004	89.26
340.217	5.29
340.429	40.11
340.641	33.96
340.854	29.87
341.066	13.48
341.278	56.49
341.491	52.39
341.703	89.26
341.915	66.73
342.128	64.68
342.34	17.58
342.552	44.2
342.764	74.92
342.977	113.83
343.189	-41.81
343.401	68.78
343.613	-56.15
343.826	76.97
344.038	31.91
344.25	64.68
344.462	68.78
344.674	54.44
344.886	54.44
345.099	58.54
345.311	58.54
345.523	42.15
345.735	-70.48
345.947	-0.85
346.159	113.83
346.371	52.39
346.583	62.63
346.795	81.07
347.007	31.91
347.219	97.45
347.431	48.3
347.643	105.64
347.855	13.48
348.067	109.74
348.279	-41.81
348.491	76.97
348.703	-11.09
348.915	-33.62
349.127	70.83
349.339	36.01
349.551	25.77
349.763	132.26
349.975	15.53
350.187	91.31
350.399	109.74
350.61	89.26
350.822	64.68
351.034	99.5
351.246	76.97
351.458	-58.2
351.669	81.07
351.881	79.02
352.093	72.87
352.305	156.84
352.517	31.91
352.728	152.74
352.94	109.74
353.152	-7
353.363	50.35
353.575	81.07
353.787	107.69
353.999	9.39
354.21	74.92
354.422	52.39
354.633	-0.85
354.845	109.74
355.057	15.53
355.268	31.91
355.48	38.06
355.692	-0.85
355.903	60.59
356.115	1.19
356.326	31.91
356.538	142.5
356.749	31.91
356.961	150.7
357.172	7.34
357.384	83.11
357.595	76.97
357.807	9.39
358.018	97.45
358.23	62.63
358.441	99.5
358.653	171.18
358.864	54.44
359.075	13.48
359.287	50.35
359.498	52.39
359.709	66.73
359.921	99.5
360.132	38.06
360.344	3.24
360.555	42.15
360.766	54.44
360.977	9.39
361.189	93.35
361.4	13.48
361.611	91.31
361.823	-0.85
362.034	128.17
362.245	33.96
362.456	60.59
362.667	58.54
362.879	60.59
363.09	60.59
363.301	99.5
363.512	17.58
363.723	54.44
363.935	81.07
364.146	27.82
364.357	76.97
364.568	62.63
364.779	64.68
364.99	15.53
365.201	11.43
365.412	122.02
365.623	52.39
365.834	107.69
366.045	19.63
366.256	124.07
366.467	31.91
366.678	33.96
366.889	66.73
367.1	15.53
367.311	60.59
367.522	91.31
367.733	130.22
367.944	36.01
368.155	36.01
368.366	31.91
368.577	140.46
368.788	101.55
368.999	85.16
369.209	25.77
369.42	148.65
369.631	105.64
369.842	52.39
370.053	101.55
370.264	-9.05
370.474	27.82
370.685	93.35
370.896	126.12
371.107	-15.19
371.317	50.35
371.528	111.78
371.739	126.12
371.95	48.3
372.16	99.5
372.371	11.43
372.582	46.25
372.792	74.92
373.003	83.11
373.214	36.01
373.424	91.31
373.635	44.2
373.846	105.64
374.056	107.69
374.267	9.39
374.477	68.78
374.688	52.39
374.898	27.82
375.109	36.01
375.319	70.83
375.53	109.74
375.74	40.11
375.951	126.12
376.161	156.84
376.372	89.26
376.582	72.87
376.793	76.97
377.003	31.91
377.214	74.92
377.424	44.2
377.635	113.83
377.845	54.44
378.055	113.83
378.266	23.72
378.476	89.26
378.686	87.21
378.897	19.63
379.107	117.93
379.317	44.2
379.528	56.49
379.738	54.44
379.948	11.43
380.158	58.54
380.369	66.73
380.579	142.5
380.789	15.53
380.999	29.87
381.21	56.49
381.42	103.59
381.63	89.26
381.84	83.11
382.05	72.87
382.261	167.08
382.471	62.63
382.681	107.69
382.891	89.26
383.101	81.07
383.311	44.2
383.521	85.16
383.731	83.11
383.941	85.16
384.151	99.5
384.361	56.49
384.571	-13.14
384.781	36.01
384.991	130.22
385.201	76.97
385.411	83.11
385.621	70.83
385.831	1.19
386.041	15.53
386.251	68.78
386.461	140.46
386.671	97.45
386.881	83.11
387.091	40.11
387.301	81.07
387.511	56.49
387.72	60.59
387.93	76.97
388.14	50.35
388.35	33.96
388.56	50.35
388.769	64.68
388.979	38.06
389.189	38.06
389.399	83.11
389.609	150.7
389.818	70.83
390.028	85.16
390.238	74.92
390.447	74.92
390.657	81.07
390.867	165.03
391.076	99.5
391.286	107.69
391.496	56.49
391.705	115.88
391.915	99.5
392.125	105.64
392.334	95.4
392.544	64.68
392.753	74.92
392.963	-19.29
393.172	130.22
393.382	1.19
393.591	132.26
393.801	27.82
394.01	148.65
394.22	117.93
394.429	85.16
394.639	79.02
394.848	89.26
395.058	95.4
395.267	173.22
395.477	148.65
395.686	107.69
395.895	128.17
396.105	154.79
396.314	38.06
396.524	44.2
396.733	148.65
396.942	148.65
397.152	119.98
397.361	87.21
397.57	134.31
397.78	93.35
397.989	132.26
398.198	154.79
398.407	48.3
398.617	85.16
398.826	130.22
399.035	150.7
399.244	85.16
399.453	113.83
399.663	138.41
399.872	79.02
400.081	97.45
400.29	130.22
400.499	171.18
400.708	169.13
400.917	154.79
401.127	105.64
401.336	62.63
401.545	208.04
401.754	160.94
401.963	142.5
402.172	81.07
402.381	144.55
402.59	113.83
402.799	97.45
403.008	134.31
403.217	148.65
403.426	122.02
403.635	113.83
403.844	103.59
404.053	83.11
404.262	150.7
404.471	255.14
404.68	117.93
404.888	185.51
405.097	173.22
405.306	216.23
405.515	251.05
405.724	189.61
405.933	185.51
406.142	173.22
406.35	185.51
406.559	216.23
406.768	124.07
406.977	249
407.185	210.09
407.394	224.42
407.603	253.09
407.812	253.09
408.02	234.66
408.229	224.42
408.438	246.95
408.646	205.99
408.855	310.44
409.064	332.97
409.272	302.25
409.481	308.39
409.69	275.62
409.898	287.91
410.107	427.17
410.315	378.02
410.524	308.39
410.733	357.54
410.941	433.32
411.15	332.97
411.358	429.22
411.567	478.37
411.775	371.88
411.984	427.17
412.192	480.42
412.401	511.14
412.609	588.96
412.818	502.95
413.026	599.2
413.234	543.91
413.443	554.15
413.651	689.31
413.86	619.68
414.068	679.07
414.276	677.02
414.485	691.36
414.693	713.89
414.901	732.32
415.11	748.7
415.318	773.28
415.526	783.52
415.734	916.64
415.943	967.84
416.151	849.05
416.359	928.92
416.567	982.17
416.776	937.12
416.984	1103
417.192	1113.24
417.4	1115.29
417.608	1096.86
417.817	1125.53
418.025	1250.46
418.233	1318.04
418.441	1186.97
418.649	1354.9
418.857	1369.24
419.065	1559.7
419.273	1391.77
419.481	1547.41
419.689	1629.33
419.897	1625.23
420.105	1723.54
420.313	1715.34
420.521	1682.58
420.729	1852.56
420.937	1866.89
421.145	2032.78
421.353	2081.93
421.561	2124.94
421.769	2102.41
421.977	2251.91
422.185	2245.77
422.393	2335.88
422.601	2491.52
422.809	2376.84
423.017	2550.92
423.224	2669.7
423.432	2780.29
423.64	2866.3
423.848	2788.48
424.056	2847.87
424.263	3112.06
424.471	3056.76
424.679	3196.03
424.887	3351.67
425.094	3468.41
425.302	3464.31
425.51	3515.51
425.718	3566.71
425.925	3773.55
426.133	3927.15
426.341	4201.58
426.548	4430.95
426.756	4451.43
426.964	4279.4
427.171	4682.85
427.379	4541.54
427.586	4861.02
427.794	4934.75
428.001	5180.51
428.209	5332.06
428.417	5260.38
428.624	5618.77
428.832	5612.63
429.039	5620.82
429.247	5696.6
429.454	6278.22
429.662	6618.18
429.869	6093.9
430.076	6605.89
430.284	6573.13
430.491	6687.81
430.699	7060.54
430.906	7035.97
431.114	7105.6
431.321	7390.27
431.528	7654.45
431.736	7992.37
431.943	8375.34
432.15	8205.36
432.358	8109.1
432.565	8643.62
432.772	8711.21
432.979	9047.07
433.187	9135.14
433.394	9253.92
433.601	9980.95
433.808	9905.17
434.016	10044.43
434.223	10263.57
434.43	10961.92
434.637	10890.24
434.844	11308.03
435.052	11465.72
435.259	11439.1
435.466	11793.4
435.673	11553.79
435.88	12268.53
436.087	12848.1
436.294	13001.7
436.501	12350.45
436.708	13075.43
436.915	13388.77
437.122	13900.76
437.329	13888.47
437.537	14347.22
437.743	14363.6
437.95	14283.73
438.157	15053.76
438.364	15524.8
438.571	15676.35
438.778	15698.88
438.985	16970.66
439.192	16464.82
439.399	16608.17
439.606	16520.11
439.813	17687.45
440.02	18660.24
440.227	18260.88
440.433	18318.23
440.64	18494.35
440.847	18559.89
441.054	19020.68
441.261	20511.6
441.467	19852.16
441.674	20169.59
441.881	21214.05
442.088	21146.47
442.294	20640.62
442.501	21754.72
442.708	21713.76
442.914	22793.04
443.121	23577.41
443.328	23065.42
443.534	25135.92
443.741	24107.83
443.948	23704.38
444.154	25373.48
444.361	25039.66
444.568	25715.49
444.774	25271.08
444.981	25602.85
445.187	26237.72
445.394	27230.99
445.6	26989.33
445.807	29629.16
446.013	28240.64
446.22	28863.22
446.426	30325.47
446.633	30315.23
446.839	30978.77
447.046	29649.64
447.252	31234.77
447.459	31412.94
447.665	31537.87
447.871	32899.76
448.078	34226.85
448.284	32699.06
448.491	33596.07
448.697	34325.15
448.903	35105.43
449.11	35404.43
449.316	34534.04
449.522	35705.48
449.728	36348.54
449.935	36649.6
450.141	36450.94
450.347	37339.76
450.553	35834.5
450.76	36817.53
450.966	38109.8
451.172	37259.89
451.378	37997.16
451.584	37436.02
451.791	38019.69
451.997	38134.37
452.203	38482.53
452.409	38877.79
452.615	38421.09
452.821	36913.78
453.027	36143.75
453.233	38572.64
453.44	36684.41
453.646	37192.31
453.852	37417.58
454.058	37894.76
454.264	36698.75
454.47	37212.79
454.676	36584.06
454.882	37888.62
455.088	34697.88
455.294	34904.73
455.5	35287.7
455.705	35928.71
455.911	34249.38
456.117	33819.3
456.323	33274.54
456.529	31240.91
456.735	32717.5
456.941	32041.67
457.147	31431.37
457.352	30388.95
457.558	29930.21
457.764	30415.58
457.97	29905.63
458.176	28879.6
458.381	28855.03
458.587	27403.02
458.793	27435.78
458.999	26051.36
459.204	27755.27
459.41	26913.55
459.616	25631.52
459.821	25410.34
460.027	25185.07
460.233	24705.84
460.438	23331.65
460.644	23954.24
460.85	22684.5
461.055	22496.08
461.261	22307.67
461.466	20724.59
461.672	20128.63
461.878	21384.04
462.083	20136.82
462.289	19606.4
462.494	19573.63
462.7	18627.47
462.905	18008.98
463.111	18785.16
463.316	19137.41
463.522	18557.84
463.727	18484.11
463.932	18662.29
464.138	18303.89
464.343	18111.38
464.549	17886.11
464.754	18369.43
464.959	18396.05
465.165	17959.83
465.37	17353.63
465.575	16829.35
465.781	17671.07
465.986	17791.9
466.191	16870.31
466.397	16835.5
466.602	16001.97
466.807	16604.08
467.012	16499.63
467.218	16386.99
467.423	16300.98
467.628	16391.09
467.833	17064.87
468.038	16407.47
468.244	15854.52
468.449	16573.36
468.654	15926.2
468.859	15954.87
469.064	15989.69
469.269	15406.02
469.474	15264.71
469.679	15555.52
469.885	15246.27
470.09	15395.78
470.295	15324.1
470.5	14814.15
470.705	15055.81
470.91	14418.89
471.115	14576.59
471.32	14844.87
471.525	14724.04
471.73	14128.08
471.935	14113.75
472.139	13599.71
472.344	14193.62
472.549	13634.52
472.754	13595.61
472.959	13464.54
473.164	13016.04
473.369	12780.52
473.574	13380.57
473.778	13339.62
473.983	13067.24
474.188	12956.64
474.393	12489.71
474.598	12514.28
474.802	12471.28
475.007	12471.28
475.212	12553.2
475.417	11787.25
475.621	11889.65
475.826	11930.61
476.031	11531.26
476.235	11660.28
476.44	11723.77
476.645	11432.96
476.849	11514.87
477.054	11340.8
477.259	11172.86
477.463	11125.76
477.668	10732.55
477.872	11070.47
478.077	11054.08
478.282	10476.55
478.486	10597.38
478.691	10413.07
478.895	10492.94
479.1	10259.47
479.304	10411.02
479.509	10040.34
479.713	10300.43
479.918	10105.87
480.122	10046.48
480.326	9903.12
480.531	9960.47
480.735	9929.75
480.94	10062.87
481.144	10245.13
481.348	9520.15
481.553	9669.66
481.757	9290.78
481.961	9749.53
482.166	9995.28
482.37	9843.73
482.574	9501.72
482.778	9694.23
482.983	9800.73
483.187	9724.95
483.391	9597.98
483.595	9319.45
483.8	9526.3
484.004	9577.5
484.208	9800.73
484.412	9618.46
484.616	9743.38
484.821	9657.37
485.025	9657.37
485.229	9702.42
485.433	9544.73
485.637	9665.56
485.841	9677.85
486.045	9657.37
486.249	9800.73
486.453	9337.88
486.657	9751.57
486.861	9847.83
487.065	9536.54
487.269	9669.66
487.473	9331.74
487.677	9673.75
487.881	9696.28
488.085	9640.98
488.289	9708.57
488.493	9657.37
488.697	9839.64
488.901	9819.16
489.105	9927.7
489.309	9925.65
489.512	9686.04
489.716	9497.63
489.92	9925.65
490.124	9776.15
490.328	9856.02
490.531	9819.16
490.735	9817.11
490.939	9880.6
491.143	9915.41
491.346	10124.3
491.55	10124.3
491.754	10079.25
491.958	10275.85
492.161	10222.61
492.365	10224.65
492.569	10206.22
492.772	10408.97
492.976	10290.19
493.18	10396.68
493.383	10472.46
493.587	10542.09
493.79	10660.87
493.994	10384.4
494.197	10705.93
494.401	10834.95
494.605	10705.93
494.808	10957.83
495.012	10947.59
495.215	11068.42
495.419	11078.66
495.622	10908.68
495.825	11207.68
496.029	11334.65
496.232	11590.65
496.436	11385.85
496.639	11879.41
496.843	11684.86
497.046	11910.13
497.249	12145.65
497.453	12186.61
497.656	12336.11
497.859	12495.85
498.063	12233.71
498.266	12891.11
498.469	12860.39
498.673	12766.18
498.876	13007.84
499.079	13024.23
499.282	13100
499.485	13554.65
499.689	13356
499.892	13751.26
500.095	13745.11
500.298	14132.18
500.501	14062.55
500.705	14369.74
500.908	14275.54
501.111	14533.58
501.314	14656.46
501.517	15006.66
501.72	15113.16
501.923	15070.15
502.126	15514.56
502.329	15604.67
502.532	15668.16
502.735	15991.73
502.938	16206.77
503.141	16217.01
503.344	16401.33
503.547	16458.67
503.75	16632.75
503.953	17085.35
504.156	17013.67
504.359	17501.09
504.562	17515.42
504.765	17695.64
504.968	17873.82
505.17	18056.09
505.373	18187.16
505.576	18604.94
505.779	18625.42
505.982	18670.48
506.185	19237.77
506.387	19039.11
506.59	19463.04
506.793	19891.07
506.996	19522.43
507.198	20224.89
507.401	20159.35
507.604	20265.85
507.807	20765.55
508.009	20714.35
508.212	21121.9
508.415	21365.6
508.617	21859.17
508.82	21793.63
509.022	21918.56
509.225	22444.88
509.428	22401.88
509.63	22502.23
509.833	22735.7
510.035	23237.45
510.238	23049.03
510.44	23341.89
510.643	23774.02
510.845	24109.88
511.048	23696.19
511.25	24257.34
511.453	24513.33
511.655	25522.98
511.858	25275.18
512.06	25518.89
512.262	25936.67
512.465	25658.15
512.667	26018.59
512.87	26374.94
513.072	26657.56
513.274	26874.64
513.477	27214.6
513.679	27536.13
513.881	27816.71
514.084	28056.32
514.286	27818.75
514.488	28003.07
514.69	29227.76
514.893	28893.94
515.095	28928.75
515.297	29487.85
515.499	29500.14
515.701	30038.75
515.904	30120.67
516.106	30530.26
516.308	30601.94
516.51	31005.39
516.712	31015.63
516.914	31584.97
517.116	32113.34
517.318	32045.76
517.52	32545.47
517.722	32441.02
517.925	33008.31
518.127	33176.24
518.329	33673.9
518.531	33356.46
518.733	34118.31
518.935	34513.56
519.136	34411.17
519.338	34986.64
519.54	35209.87
519.742	35484.3
519.944	35873.42
520.146	36729.47
520.348	36661.88
520.55	36555.39
520.752	36608.64
520.954	37356.14
521.155	37139.06
521.357	37720.68
521.559	38062.69
521.761	38591.07
521.963	38687.32
522.164	38670.94
522.366	38888.03
522.568	39514.7
522.77	39543.38
522.971	40028.74
523.173	39789.13
523.375	40094.28
523.576	40391.23
523.778	40477.25
523.98	40903.23
524.181	41044.54
524.383	41431.6
524.584	41855.53
524.786	41910.83
524.988	41773.61
525.189	42687.01
525.391	42527.27
525.592	42981.91
525.794	42824.22
525.995	43246.1
526.197	43254.29
526.398	43135.51
526.6	43672.08
526.801	44247.56
527.003	44116.49
527.204	44075.53
527.406	44898.81
527.607	44456.45
527.808	44495.36
528.01	44167.69
528.211	44702.21
528.412	45246.97
528.614	45343.22
528.815	44927.49
529.016	45699.57
529.218	45558.26
529.419	45429.24
529.62	46084.59
529.822	45998.57
530.023	45945.33
530.224	45896.17
530.425	46008.81
530.626	46205.42
530.828	46068.2
531.029	46924.25
531.23	45953.52
531.431	46453.22
531.632	46789.09
531.833	46821.86
532.035	46946.78
532.236	47190.49
532.437	47499.73
532.638	46598.63
532.839	47073.76
533.04	47682
533.241	46481.89
533.442	47952.33
533.643	47276.51
533.844	46885.34
534.045	47634.9
534.246	46592.48
534.447	47806.93
534.648	47145.44
534.849	47440.34
535.05	47253.98
535.251	47645.14
535.451	47454.68
535.652	47892.94
535.853	47575.51
536.054	47417.82
536.255	48036.3
536.456	47595.99
536.657	48181.71
536.857	47639
537.058	47550.93
537.259	47624.66
537.46	47999.44
537.66	47366.62
537.861	47673.81
538.062	47741.39
538.263	47829.46
538.463	47194.59
538.664	47645.14
538.865	47772.11
539.065	47708.63
539.266	46973.41
539.466	48050.64
539.667	47294.94
539.868	48333.26
540.068	47477.21
540.269	47776.21
540.469	47948.24
540.67	47659.48
540.87	47598.04
541.071	47573.46
541.271	47587.8
541.472	47692.24
541.672	47329.75
541.873	47624.66
542.073	47135.2
542.274	47976.91
542.474	47534.55
542.675	47514.07
542.875	47606.23
543.075	47102.43
543.276	46991.84
543.476	47608.28
543.676	47634.9
543.877	47882.7
544.077	47921.62
544.277	47399.38
544.478	47583.7
544.678	47641.04
544.878	47520.21
545.078	47905.23
545.279	47598.04
545.479	47219.16
545.679	47497.69
545.879	47731.15
546.079	47460.82
546.28	47262.17
546.48	46889.44
546.68	47372.76
546.88	47628.76
547.08	47137.24
547.28	47417.82
547.48	46901.73
547.68	47501.78
547.88	47006.17
548.081	47503.83
548.281	47397.34
548.481	47184.35
548.681	47882.7
548.881	47253.98
549.081	47161.82
549.28	46911.97
549.48	47446.49
549.68	47337.94
549.88	47712.72
550.08	46887.39
550.28	47292.89
550.48	47010.27
550.68	47174.11
550.88	47061.47
551.08	47034.84
551.279	47383
551.479	46825.95
551.679	46832.1
551.879	46969.31
552.079	47358.42
552.278	46922.21
552.478	46682.59
552.678	47182.3
552.878	47696.34
553.077	46922.21
553.277	46635.49
553.477	47407.58
553.676	46729.7
553.876	46961.12
554.076	46752.23
554.275	46608.87
554.475	46354.92
554.674	46801.38
554.874	46944.73
555.074	46045.68
555.273	46920.16
555.473	46735.84
555.672	46311.91
555.872	46580.2
556.071	46750.18
556.271	46813.66
556.47	46297.58
556.67	46100.97
556.869	45990.38
557.068	46387.69
557.268	46213.61
557.467	46354.92
557.667	46545.38
557.866	46191.08
558.065	45943.28
558.265	45617.65
558.464	45388.28
558.663	46307.82
558.863	45482.48
559.062	46275.05
559.261	45222.39
559.461	46279.14
559.66	44569.09
559.859	45294.07
560.058	45115.9
560.258	45611.51
560.457	45095.42
560.656	45615.6
560.855	44794.37
561.054	45541.88
561.253	44759.55
561.453	44947.96
561.652	44927.49
561.851	45070.84
562.05	44646.91
562.249	44286.47
562.448	44759.55
562.647	44614.15
562.846	44356.1
563.045	44290.57
563.244	43727.38
563.443	44392.97
563.642	43827.73
563.841	44372.49
564.04	43596.31
564.239	44145.16
564.438	43725.33
564.637	43776.53
564.836	43768.33
565.035	43620.88
565.234	43121.18
565.432	42924.57
565.631	43176.47
565.83	43444.76
566.029	43155.99
566.228	42897.95
566.427	42529.31
566.625	42795.55
566.824	42598.94
567.023	42707.49
567.222	41773.61
567.42	42873.37
567.619	42439.2
567.818	42211.88
568.016	42037.8
568.215	42545.7
568.414	41910.83
568.612	42252.84
568.811	41708.08
569.01	41417.27
569.208	41316.92
569.407	41486.9
569.605	41089.59
569.804	41554.48
570.002	40989.24
570.201	41132.6
570.4	40806.97
570.598	40538.69
570.797	40686.14
570.995	40741.44
571.193	40485.44
571.392	40378.95
571.59	40243.78
571.789	40206.92
571.987	40219.2
572.186	40041.03
572.384	39815.76
572.582	39938.63
572.781	39752.27
572.979	39244.37
573.177	39570
573.376	39787.08
573.574	38761.05
573.772	39391.83
573.971	38744.67
574.169	38623.84
574.367	38484.58
574.565	39015
574.763	38490.72
574.962	38564.45
575.16	38173.28
575.358	38625.89
575.556	38062.69
575.754	38398.56
575.952	37960.3
576.151	38861.4
576.349	37681.77
576.547	37921.38
576.745	37919.34
576.943	37606
577.141	37515.89
577.339	37796.46
577.537	37319.28
577.735	37360.24
577.933	36891.26
578.131	37016.18
578.329	37100.15
578.527	36829.82
578.725	37089.91
578.923	37063.29
579.121	36915.83
579.319	36729.47
579.516	36516.48
579.714	36696.7
579.912	36369.02
580.11	36135.56
580.308	36029.06
580.506	35873.42
580.704	35560.08
580.901	35975.81
581.099	36086.4
581.297	35752.59
581.495	35269.26
581.692	35846.79
581.89	35252.88
582.088	35363.47
582.285	35195.54
582.483	35291.79
582.681	35082.9
582.878	35093.14
583.076	34579.1
583.274	34917.01
583.471	34247.33
583.669	35062.42
583.866	34552.48
584.064	34564.76
584.262	33845.93
584.459	34464.41
584.657	34095.78
584.854	34482.84
585.052	33344.17
585.249	33974.95
585.447	33727.14
585.644	33444.52
585.841	33542.83
586.039	33790.63
586.236	33372.85
586.434	33356.46
586.631	33114.8
586.828	33108.66
587.026	33082.03
587.223	33131.19
587.42	32608.95
587.618	33047.22
587.815	32273.09
588.012	32680.63
588.21	32236.22
588.407	32658.1
588.604	32385.72
588.801	32264.89
588.999	32023.23
589.196	32053.95
589.393	32223.93
589.59	31863.49
589.787	31802.05
589.984	31820.49
590.182	31603.4
590.379	31736.52
590.576	31632.07
590.773	31300.3
590.97	30950.1
591.167	31511.24
591.364	30935.76
591.561	31240.91
591.758	30733.01
591.955	30843.6
592.152	30886.61
592.349	30589.66
592.546	30241.5
592.743	30730.97
592.94	30057.18
593.137	30538.46
593.334	30307.04
593.531	29942.5
593.727	30350.04
593.924	30208.73
594.121	29518.57
594.318	29551.34
594.515	29244.14
594.712	29926.11
594.908	29395.69
595.105	29637.35
595.302	29358.83
595.499	29512.42
595.696	29360.87
595.892	29172.46
596.089	29102.83
596.286	29094.64
596.482	28740.34
596.679	28846.83
596.876	28998.38
597.072	28586.74
597.269	28648.18
597.466	28412.67
597.662	28240.64
597.859	28246.78
598.055	28373.75
598.252	27941.63
598.448	27863.81
598.645	27921.15
598.841	27851.52
599.038	28123.9
599.234	27740.93
599.431	27390.73
599.627	27568.9
599.824	27648.77
600.02	27198.22
600.217	27208.46
600.413	27177.74
600.609	26833.68
600.806	27005.71
601.002	26860.3
601.198	26915.6
601.395	26985.23
601.591	26868.5
601.787	26788.63
601.984	26434.33
602.18	26706.71
602.376	26624.79
602.572	26452.76
602.769	26293.02
602.965	25797.41
603.161	26014.49
603.357	26178.33
603.553	26006.3
603.75	26137.37
603.946	25821.98
604.142	25699.11
604.338	25518.89
604.534	25705.25
604.73	25510.69
604.926	25174.83
605.122	25492.26
605.318	25162.54
605.514	25189.16
605.71	25033.52
605.906	25166.63
606.102	24974.13
606.298	24896.3
606.494	24765.23
606.69	24933.17
606.886	24736.56
607.082	24404.79
607.278	24642.35
607.474	24322.87
607.67	24619.83
607.866	24337.21
608.062	24611.64
608.257	24111.93
608.453	24089.4
608.649	24146.75
608.845	24363.83
609.041	24003.39
609.236	24367.93
609.432	23946.05
609.628	23870.27
609.824	23688
610.019	23841.6
610.215	23763.78
610.411	23851.84
610.606	23464.77
610.802	23532.36
610.998	23358.28
611.193	23573.31
611.389	23395.14
611.584	23270.22
611.78	23257.93
611.976	23145.29
612.171	23540.55
612.367	23237.45
612.562	23098.19
612.758	22877.01
612.953	22719.31
613.149	23352.13
613.344	22834
613.539	23163.72
613.735	22829.9
613.93	22770.51
614.126	22573.91
614.321	22743.89
614.517	22657.87
614.712	22416.21
614.907	22518.61
615.103	22874.96
615.298	22180.7
615.493	22883.15
615.688	22334.29
615.884	22614.87
616.079	22338.39
616.274	22166.36
616.47	22066.01
616.665	22012.76
616.86	21865.31
617.055	22154.07
617.25	21642.08
617.445	22057.82
617.641	21570.4
617.836	21846.88
618.031	21488.48
618.226	21982.04
618.421	21482.34
618.616	21699.42
618.811	21324.65
619.006	21629.79
619.201	21103.46
619.396	21332.84
619.591	20800.37
619.786	21465.96
619.981	20792.17
620.176	21212.01
620.371	20751.21
620.566	20876.14
620.761	20515.7
620.956	20728.69
621.151	20185.97
621.346	20466.55
621.541	20288.37
621.735	20177.78
621.93	20011.9
622.125	20310.9
622.32	19962.75
622.515	20022.14
622.709	19553.15
622.904	19587.97
623.099	19366.79
623.294	19477.38
623.488	19065.74
623.683	19143.56
623.878	19006.34
624.072	18959.24
624.267	19127.17
624.462	18709.39
624.656	18627.47
624.851	18527.12
625.046	18520.98
625.24	18527.12
625.435	18281.36
625.629	18260.88
625.824	18142.1
626.018	18119.57
626.213	17658.78
626.407	17849.24
626.602	17662.88
626.796	17748.89
626.991	17607.58
627.185	17343.39
627.38	17290.15
627.574	17241
627.768	16944.04
627.963	17132.45
628.157	17085.35
628.352	16810.92
628.546	16683.95
628.74	16892.84
628.935	16579.5
629.129	16538.54
629.323	16323.51
629.517	16333.75
629.712	16329.65
629.906	16253.87
630.1	16024.5
630.294	16055.22
630.489	15879.1
630.683	15997.88
630.877	15788.99
631.071	15827.9
631.265	15543.23
631.459	15358.91
631.653	15578.04
631.848	15324.1
632.042	15279.04
632.236	15254.47
632.43	15100.87
632.624	15418.3
632.818	14924.74
633.012	15086.53
633.206	15023.05
633.4	14928.84
633.594	14629.84
633.788	14513.1
633.982	14496.72
634.176	14707.66
634.369	14228.43
634.563	14216.15
634.757	14089.17
634.951	14291.92
635.145	14060.5
635.339	14298.06
635.533	13767.64
635.726	13915.09
635.92	13687.77
636.114	13601.76
636.308	13683.67
636.501	13568.99
636.695	13519.84
636.889	13337.57
637.083	13302.75
637.276	13435.87
637.47	13106.15
637.664	13214.69
637.857	13034.47
638.051	13057
638.244	13022.18
638.438	12719.08
638.632	12717.03
638.825	12614.63
639.019	12485.61
639.212	12538.86
639.406	12471.28
639.599	12479.47
639.793	12391.41
639.986	12147.7
640.18	12291.06
640.373	12035.06
640.567	12020.72
640.76	12020.72
640.954	11957.24
641.147	11914.23
641.34	11951.09
641.534	11926.52
641.727	11703.29
641.92	11645.94
642.114	11590.65
642.307	11602.94
642.5	11269.12
642.694	11326.46
642.887	11492.35
643.08	11203.58
643.273	11004.93
643.467	11115.52
643.66	10841.09
643.853	10947.59
644.046	10935.3
644.239	10789.89
644.432	10890.24
644.626	10583.05
644.819	10533.9
645.012	10578.95
645.205	10472.46
645.398	10572.81
645.591	10556.43
645.784	10451.98
645.977	10245.13
646.17	10378.25
646.363	10175.5
646.556	10034.19
646.749	10165.26
646.942	10193.94
647.135	9972.75
647.328	9958.42
647.521	9794.58
647.714	9749.53
647.907	9688.09
648.099	9595.93
648.292	9575.45
648.485	9536.54
648.678	9643.03
648.871	9411.61
649.064	9516.06
649.256	9636.89
649.449	9223.2
649.642	9460.76
649.835	9223.2
650.027	9321.5
650.22	9217.05
650.413	9163.81
650.605	9024.54
650.798	9108.51
650.991	9059.36
651.183	8961.06
651.376	8707.11
651.568	8997.92
651.761	8789.03
651.954	8746.02
652.146	8561.7
652.339	8547.37
652.531	8707.11
652.724	8645.67
652.916	8420.39
653.109	8328.24
653.301	8655.91
653.494	8483.88
653.686	8272.94
653.879	8457.26
654.071	8199.21
654.263	7943.22
654.456	8191.02
654.648	8197.17
654.84	8064.05
655.033	8191.02
655.225	7965.75
655.417	7828.53
655.61	7863.35
655.802	7969.84
655.994	7719.99
656.186	7818.29
656.379	7636.02
656.571	7744.56
656.763	7781.43
656.955	7597.11
657.148	7496.76
657.34	7615.54
657.532	7529.53
657.724	7404.6
657.916	7359.55
658.108	7451.7
658.3	7412.79
658.492	7318.59
658.684	7148.61
658.876	7259.2
659.068	7134.27
659.26	7242.81
659.452	7144.51
659.644	7167.04
659.836	6974.53
660.028	7138.37
660.22	6882.37
660.412	6917.19
660.604	6874.18
660.796	6935.62
660.988	6900.8
661.18	6722.63
661.372	6597.7
661.563	6855.75
661.755	6540.36
661.947	6609.99
662.139	6589.51
662.331	6562.89
662.522	6552.65
662.714	6597.7
662.906	6513.74
663.097	6560.84
663.289	6450.25
663.481	6472.78
663.673	6280.27
663.864	6169.68
664.056	6245.45
664.247	6356.04
664.439	6339.66
664.631	6204.49
664.822	6061.13
665.014	6261.84
665.205	6024.27
665.397	5979.22
665.588	6001.74
665.78	6024.27
665.971	5932.11
666.163	6005.84
666.354	5839.95
666.546	5942.35
666.737	5950.54
666.929	5983.31
667.12	5897.3
667.311	5755.99
667.503	5770.32
667.694	5780.56
667.885	5708.88
668.077	5708.88
668.268	5504.09
668.459	5659.73
668.651	5688.4
668.842	5645.4
669.033	5688.4
669.224	5510.23
669.416	5594.2
669.607	5440.6
669.798	5522.52
669.989	5592.15
670.18	5325.91
670.371	5430.36
670.563	5256.28
670.754	5346.39
670.945	5395.54
671.136	5299.29
671.327	5307.48
671.518	5311.58
671.709	5446.74
671.9	5270.62
672.091	5368.92
672.282	5307.48
672.473	5131.36
672.664	5125.21
672.855	5112.92
673.046	5194.84
673.237	5149.79
673.428	5135.45
673.619	5074.01
673.809	5076.06
674	4971.61
674.191	5112.92
674.382	4910.18
674.573	4981.85
674.764	4893.79
674.954	5028.96
675.145	4940.9
675.336	4787.3
675.527	4940.9
675.717	4961.37
675.908	4734.05
676.099	4953.18
676.289	4910.18
676.48	5049.44
676.671	4856.93
676.861	4748.39
677.052	4785.25
677.243	4711.52
677.433	4750.43
677.624	4807.78
677.814	4672.61
678.005	4705.38
678.195	4725.86
678.386	4656.23
678.576	4525.16
678.767	4613.22
678.957	4621.41
679.148	4713.57
679.338	4693.09
679.529	4699.23
679.719	4734.05
679.909	4641.89
680.1	4760.67
680.29	4672.61
680.481	4602.98
680.671	4617.32
680.861	4652.13
681.052	4547.69
681.242	4549.73
681.432	4594.79
681.622	4598.88
681.813	4572.26
682.003	4656.23
682.193	4445.29
682.383	4519.01
682.573	4435.05
682.764	4398.18
682.954	4689
683.144	4639.84
683.334	4443.24
683.524	4486.25
683.714	4437.09
683.904	4392.04
684.094	4531.3
684.284	4445.29
684.474	4508.77
684.664	4363.37
684.854	4254.83
685.044	4328.55
685.234	4377.7
685.424	4349.03
685.614	4316.26
685.804	4326.5
685.994	4433
686.184	4318.31
686.374	4408.42
686.564	4369.51
686.753	4308.07
686.943	4246.63
687.133	4142.19
687.323	4209.77
687.513	4338.79
687.702	4189.29
687.892	4129.9
688.082	4320.36
688.272	4224.11
688.461	4183.15
688.651	4174.95
688.841	4033.65
689.03	4031.6
689.22	4088.94
689.41	3984.49
689.599	4009.07
689.789	3964.01
689.979	4078.7
690.168	3951.73
690.358	3994.73
690.547	4017.26
690.737	3935.34
690.926	3982.45
691.116	3875.95
691.305	3865.71
691.495	3902.58
691.684	3898.48
691.874	4017.26
692.063	3783.79
692.252	3701.87
692.442	3925.1
692.631	3800.18
692.82	3884.14
693.01	3867.76
693.199	3728.5
693.388	3703.92
693.578	3730.55
693.767	3753.07
693.956	3757.17
694.146	3728.5
694.335	3658.87
694.524	3697.78
694.713	3783.79
694.902	3806.32
695.092	3718.26
695.281	3685.49
695.47	3714.16
695.659	3607.67
695.848	3738.74
696.037	3634.29
696.226	3728.5
696.415	3669.11
696.604	3542.13
696.793	3482.74
696.982	3464.31
697.171	3630.2
697.36	3546.23
697.549	3509.37
697.738	3538.04
697.927	3525.75
698.116	3509.37
698.305	3654.77
698.494	3531.89
698.683	3464.31
698.872	3683.44
699.061	3544.18
699.25	3597.43
699.438	3525.75
699.627	3544.18
699.816	3613.81
700.005	3488.89
700.193	3550.32
700.382	3695.73
700.571	3503.22
700.76	3400.82
700.948	3382.39
701.137	3517.56
701.326	3517.56
701.514	3507.32
701.703	3458.17
701.892	3525.75
702.08	3576.95
702.269	3351.67
702.457	3437.69
702.646	3499.13
702.834	3538.04
703.023	3497.08
703.212	3447.93
703.4	3521.65
703.589	3302.52
703.777	3462.26
703.965	3429.49
704.154	3378.3
704.342	3515.51
704.531	3470.45
704.719	3482.74
704.907	3445.88
705.096	3576.95
705.284	3337.34
705.472	3468.41
705.661	3484.79
705.849	3511.41
706.037	3503.22
706.226	3519.6
706.414	3509.37
706.602	3472.5
706.79	3538.04
706.979	3357.82
707.167	3595.38
707.355	3308.66
707.543	3484.79
707.731	3441.78
707.919	3507.32
708.107	3411.06
708.296	3318.9
708.484	3425.4
708.672	3441.78
708.86	3411.06
709.048	3515.51
709.236	3294.33
709.424	3499.13
709.612	3456.12
709.8	3431.54
709.988	3495.03
710.176	3574.9
710.364	3484.79
710.551	3421.3
710.739	3386.49
710.927	3398.77
711.115	3411.06
711.303	3546.23
711.491	3503.22
711.679	3359.86
711.866	3466.36
712.054	3386.49
712.242	3482.74
712.43	3490.93
712.617	3476.6
712.805	3419.25
712.993	3341.43
713.181	3452.02
713.368	3531.89
713.556	3497.08
713.744	3333.24
713.931	3499.13
714.119	3419.25
714.306	3361.91
714.494	3470.45
714.682	3423.35
714.869	3486.84
715.057	3388.53
715.244	3458.17
715.432	3558.52
715.619	3535.99
715.807	3316.86
715.994	3435.64
716.182	3347.58
716.369	3433.59
716.556	3396.73
716.744	3413.11
716.931	3343.48
717.119	3517.56
717.306	3480.69
717.493	3398.77
717.681	3484.79
717.868	3325.05
718.055	3394.68
718.242	3388.53
718.43	3417.21
718.617	3415.16
718.804	3327.1
718.991	3402.87
719.179	3452.02
719.366	3378.3
719.553	3452.02
719.74	3370.1
719.927	3417.21
720.114	3482.74
720.301	3421.3
720.488	3394.68
720.676	3384.44
720.863	3271.8
721.05	3441.78
721.237	3380.34
721.424	3470.45
721.611	3351.67
721.798	3263.61
721.985	3261.56
722.172	3202.17
722.358	3402.87
722.545	3437.69
722.732	3398.77
722.919	3458.17
723.106	3302.52
723.293	3380.34
723.48	3320.95
723.667	3236.99
723.853	3222.65
724.04	3282.04
724.227	3337.34
724.414	3384.44
724.6	3245.18
724.787	3239.03
724.974	3357.82
725.161	3279.99
725.347	3224.7
725.534	3339.38
725.72	3243.13
725.907	3279.99
726.094	3314.81
726.28	3259.51
726.467	3234.94
726.653	3357.82
726.84	3259.51
727.027	3343.48
727.213	3228.79
727.4	3279.99
727.586	3335.29
727.773	3304.57
727.959	3284.09
728.145	3214.46
728.332	3148.92
728.518	3329.14
728.705	3343.48
728.891	3191.93
729.077	3353.72
729.264	3236.99
729.45	3150.97
729.636	3251.32
729.823	3138.68
730.009	3259.51
730.195	3279.99
730.382	3275.9
730.568	3118.2
730.754	3239.03
730.94	3171.45
731.126	3241.08
731.313	3171.45
731.499	3067
731.685	3257.46
731.871	3126.39
732.057	3236.99
732.243	3196.03
732.429	3085.44
732.615	3200.12
732.801	3081.34
732.987	3064.96
733.173	3243.13
733.359	3128.44
733.545	3161.21
733.731	3230.84
733.917	3214.46
734.103	3247.23
734.289	3067
734.475	3157.11
734.661	3224.7
734.847	3251.32
735.033	3013.76
735.219	3105.92
735.404	3114.11
735.59	3064.96
735.776	2978.94
735.962	3073.15
736.148	3204.22
736.333	2993.28
736.519	3007.61
736.705	3001.47
736.89	3009.66
737.076	3013.76
737.262	2907.26
737.447	2980.99
737.633	2944.13
737.819	3107.96
738.004	2882.69
738.19	2997.37
738.375	3011.71
738.561	3081.34
738.747	2987.13
738.932	3013.76
739.118	2931.84
739.303	2958.46
739.489	2962.56
739.674	2753.66
739.859	2770.05
740.045	2919.55
740.23	2884.73
740.416	2794.62
740.601	2829.44
740.786	2882.69
740.972	2759.81
741.157	2772.1
741.342	2876.54
741.528	2753.66
741.713	2821.25
741.898	2774.14
742.084	2870.4
742.269	2708.61
742.454	2878.59
742.639	2755.71
742.824	2638.98
743.01	2800.77
743.195	2804.86
743.38	2653.31
743.565	2774.14
743.75	2727.04
743.935	2608.26
744.12	2751.62
744.305	2628.74
744.49	2598.02
744.675	2563.2
744.86	2673.79
745.045	2698.37
745.23	2636.93
745.415	2530.44
745.6	2475.14
745.785	2495.62
745.97	2606.21
746.155	2606.21
746.34	2514.05
746.525	2370.69
746.71	2385.03
746.895	2403.46
747.079	2469
747.264	2372.74
747.449	2499.72
747.634	2321.54
747.819	2329.74
748.003	2337.93
748.188	2299.02
748.373	2370.69
748.557	2346.12
748.742	2182.28
748.927	2280.58
749.111	2364.55
749.296	2288.78
749.481	2286.73
749.665	2256.01
749.85	2210.95
750.034	2204.81
750.219	2206.86
750.404	2196.62
750.588	2161.8
750.773	2008.2
750.957	2008.2
751.141	2092.17
751.326	2131.08
751.51	2110.6
751.695	2067.6
751.879	2116.75
752.064	2049.16
752.248	1907.85
752.432	2077.83
752.617	2030.73
752.801	2059.4
752.985	2018.44
753.17	1981.58
753.354	1934.48
753.538	1901.71
753.722	1877.13
753.907	1895.57
754.091	1981.58
754.275	1815.69
754.459	1866.89
754.643	1850.51
754.828	1815.69
755.012	1776.78
755.196	1782.93
755.38	1805.46
755.564	1739.92
755.748	1809.55
755.932	1737.87
756.116	1711.25
756.3	1744.02
756.484	1676.43
756.668	1717.39
756.852	1746.06
757.036	1668.24
757.22	1600.66
757.404	1629.33
757.588	1594.51
757.772	1643.67
757.956	1723.54
758.14	1741.97
758.323	1635.47
758.507	1541.27
758.691	1465.49
758.875	1617.04
759.059	1455.25
759.242	1445.01
759.426	1475.73
759.61	1526.93
759.794	1608.85
759.977	1463.44
760.161	1614.99
760.345	1455.25
760.528	1522.84
760.712	1510.55
760.895	1516.69
761.079	1449.11
761.263	1510.55
761.446	1418.39
761.63	1442.96
761.813	1426.58
761.997	1367.19
762.18	1330.33
762.364	1459.35
762.547	1434.77
762.731	1385.62
762.914	1395.86
763.098	1307.8
763.281	1379.48
763.464	1287.32
763.648	1438.87
763.831	1371.29
764.015	1318.04
764.198	1324.18
764.381	1383.57
764.564	1305.75
764.748	1359
764.931	1330.33
765.114	1381.53
765.297	1322.13
765.481	1303.7
765.664	1365.14
765.847	1238.17
766.03	1387.67
766.213	1166.49
766.397	1289.37
766.58	1375.38
766.763	1234.07
766.946	1242.26
767.129	1281.18
767.312	1160.34
767.495	1240.22
767.678	1160.34
767.861	1186.97
768.044	1199.26
768.227	1162.39
768.41	1197.21
768.593	1154.2
768.776	1168.54
768.959	1127.58
769.142	1197.21
769.324	1186.97
769.507	1191.06
769.69	1131.67
769.873	1113.24
770.056	1105.05
770.239	1172.63
770.421	1141.91
770.604	1139.87
770.787	1010.84
770.97	1129.63
771.152	1051.8
771.335	1002.65
771.518	1109.15
771.7	1068.19
771.883	1242.26
772.066	978.08
772.248	1049.75
772.431	1162.39
772.613	1031.32
772.796	1004.7
772.978	1002.65
773.161	1068.19
773.343	1014.94
773.526	1035.42
773.708	1037.47
773.891	937.12
774.073	1062.04
774.256	1039.51
774.438	1047.71
774.621	951.45
774.803	949.4
774.985	881.82
775.168	916.64
775.35	879.77
775.532	959.64
775.715	869.53
775.897	937.12
776.079	896.16
776.261	920.73
776.444	937.12
776.626	873.63
776.808	871.58
776.99	824.48
777.173	810.14
777.355	906.4
777.537	855.2
777.719	859.29
777.901	859.29
778.083	847.01
778.265	824.48
778.447	928.92
778.629	779.42
778.811	765.09
778.993	824.48
779.175	808.09
779.357	820.38
779.539	681.12
779.721	816.29
779.903	810.14
780.085	863.39
780.267	769.18
780.449	658.59
780.631	801.95
780.812	793.76
780.994	752.8
781.176	777.37
781.358	781.47
781.54	726.18
781.721	715.94
781.903	722.08
782.085	666.78
782.267	732.32
782.448	668.83
782.63	595.11
782.812	775.33
782.993	705.7
783.175	693.41
783.357	672.93
783.538	611.49
783.72	597.15
783.901	625.83
784.083	666.78
784.264	564.39
784.446	560.29
784.627	564.39
784.809	672.93
784.99	631.97
785.172	613.54
785.353	615.59
785.535	672.93
785.716	607.39
785.897	554.15
786.079	498.85
786.26	554.15
786.441	584.87
786.623	541.86
786.804	519.33
786.985	525.47
787.167	502.95
787.348	554.15
787.529	511.14
787.71	515.23
787.891	588.96
788.073	511.14
788.254	492.71
788.435	560.29
788.616	488.61
788.797	433.32
788.978	425.12
789.159	431.27
789.34	537.76
789.522	498.85
789.703	515.23
789.884	410.79
790.065	429.22
790.246	519.33
790.427	490.66
790.607	470.18
790.788	457.89
790.969	410.79
791.15	494.76
791.331	474.28
791.512	443.56
791.693	548
791.874	500.9
792.054	502.95
792.235	410.79
792.416	396.45
792.597	412.84
792.778	453.8
792.958	414.88
793.139	480.42
793.32	425.12
793.5	445.6
793.681	476.32
793.862	378.02
794.042	408.74
794.223	371.88
794.404	402.6
794.584	347.3
794.765	392.36
794.945	345.25
795.126	421.03
795.306	425.12
795.487	396.45
795.667	318.63
795.848	396.45
796.028	398.5
796.209	337.06
796.389	394.4
796.57	390.31
796.75	345.25
796.93	431.27
797.111	359.59
797.291	396.45
797.471	363.69
797.652	328.87
797.832	261.29
798.012	386.21
798.192	361.64
798.373	355.49
798.553	382.12
798.733	355.49
798.913	353.45
799.093	349.35
799.274	322.73
799.454	378.02
799.634	326.82
799.814	359.59
799.994	345.25
800.174	349.35
800.354	310.44
800.534	320.68
800.714	363.69
800.894	308.39
801.074	314.53
801.254	335.01
801.434	343.21
801.614	308.39
801.794	341.16
801.974	857.25
802.154	226.47
802.334	324.77
802.514	289.96
802.693	298.15
802.873	289.96
803.053	283.81
803.233	314.53
803.413	326.82
803.592	337.06
803.772	242.85
803.952	373.92
804.131	214.18
804.311	359.59
804.491	304.29
804.67	199.85
804.85	232.62
805.03	392.36
805.209	386.21
805.389	253.09
805.568	246.95
805.748	273.57
805.928	230.57
806.107	302.25
806.287	275.62
806.466	281.77
806.646	277.67
806.825	265.38
807.004	253.09
807.184	228.52
807.363	277.67
807.543	369.83
807.722	271.53
807.901	201.9
808.081	277.67
808.26	224.42
808.439	230.57
808.619	281.77
808.798	285.86
808.977	236.71
809.156	337.06
809.336	298.15
809.515	249
809.694	259.24
809.873	277.67
810.052	281.77
810.231	183.46
810.411	208.04
810.59	312.49
810.769	181.42
810.948	222.38
811.127	240.81
811.306	261.29
811.485	212.14
811.664	277.67
811.843	224.42
812.022	179.37
812.201	195.75
812.38	214.18
812.559	203.94
812.737	195.75
812.916	175.27
813.095	185.51
813.274	257.19
813.453	210.09
813.632	324.77
813.811	230.57
813.989	238.76
814.168	246.95
814.347	148.65
814.526	136.36
814.704	205.99
814.883	251.05
815.062	191.66
815.24	216.23
815.419	99.5
815.598	175.27
815.776	177.32
815.955	177.32
816.133	189.61
816.312	165.03
816.49	146.6
816.669	154.79
816.847	150.7
817.026	193.7
817.204	185.51
817.383	187.56
817.561	191.66
817.74	187.56
817.918	171.18
818.097	203.94
818.275	183.46
818.453	150.7
818.632	224.42
818.81	128.17
818.988	191.66
819.167	230.57
819.345	218.28
819.523	156.84
819.701	191.66
819.879	197.8
820.058	232.62
820.236	132.26
820.414	167.08
820.592	167.08
820.77	115.88
820.948	222.38
821.127	144.55
821.305	232.62
821.483	220.33
821.661	246.95
821.839	183.46
822.017	154.79
822.195	191.66
822.373	195.75
822.551	205.99
822.729	197.8
822.907	158.89
823.085	177.32
823.262	142.5
823.44	126.12
823.618	103.59
823.796	122.02
823.974	126.12
824.152	126.12
824.329	105.64
824.507	203.94
824.685	74.92
824.863	134.31
825.04	175.27
825.218	126.12
825.396	142.5
825.574	97.45
825.751	130.22
825.929	236.71
826.107	115.88
826.284	181.42
826.462	136.36
826.639	148.65
826.817	162.98
826.994	165.03
827.172	83.11
827.349	87.21
827.527	132.26
827.704	156.84
827.882	122.02
828.059	126.12
828.237	62.63
828.414	150.7
828.591	76.97
828.769	107.69
828.946	210.09
829.124	132.26
829.301	115.88
829.478	134.31
829.655	138.41
829.833	126.12
830.01	154.79
830.187	177.32
830.364	81.07
830.542	117.93
830.719	142.5
830.896	115.88
831.073	66.73
831.25	115.88
831.427	173.22
831.604	109.74
831.782	130.22
831.959	109.74
832.136	11.43
832.313	175.27
832.49	107.69
832.667	95.4
832.844	126.12
833.021	203.94
833.198	74.92
833.374	136.36
833.551	60.59
833.728	95.4
833.905	130.22
834.082	23.72
834.259	89.26
834.436	146.6
834.612	107.69
834.789	105.64
834.966	89.26
835.143	136.36
835.319	91.31
835.496	124.07
835.673	132.26
835.85	79.02
836.026	97.45
836.203	173.22
836.38	99.5
836.556	95.4
836.733	93.35
836.909	25.77
837.086	74.92
837.262	74.92
837.439	107.69
837.616	105.64
837.792	150.7
837.968	85.16
838.145	44.2
838.321	124.07
838.498	142.5
838.674	158.89
838.851	124.07
839.027	165.03
839.203	119.98
839.38	93.35
839.556	74.92
839.732	136.36
839.909	68.78
840.085	52.39
840.261	79.02
840.437	124.07
840.614	44.2
840.79	107.69
840.966	130.22
841.142	105.64
841.318	58.54
841.494	115.88
841.671	60.59
841.847	68.78
842.023	83.11
842.199	109.74
842.375	148.65
842.551	-7
842.727	29.87
842.903	169.13
843.079	21.67
843.255	162.98
843.431	85.16
843.607	76.97
843.783	3.24
843.959	60.59
844.134	117.93
844.31	27.82
844.486	64.68
844.662	-19.29
844.838	62.63
845.013	130.22
845.189	40.11
845.365	79.02
845.541	107.69
845.716	105.64
845.892	124.07
846.068	70.83
846.244	50.35
846.419	124.07
846.595	46.25
846.77	15.53
846.946	68.78
847.122	111.78
847.297	58.54
847.473	15.53
847.648	64.68
847.824	40.11
847.999	60.59
848.175	19.63
848.35	74.92
848.526	81.07
848.701	99.5
848.876	27.82
849.052	152.74
849.227	-0.85
849.403	56.49
849.578	42.15
849.753	83.11
849.929	101.55
850.104	-2.9
850.279	56.49
850.454	23.72
850.63	40.11
850.805	128.17
850.98	38.06
851.155	7.34
851.33	44.2
851.505	38.06
851.681	38.06
851.856	42.15
852.031	103.59
852.206	19.63
852.381	52.39
852.556	119.98
852.731	81.07
852.906	99.5
853.081	93.35
853.256	138.41
853.431	62.63
853.606	-2.9
853.781	83.11
853.956	21.67
854.131	124.07
854.305	31.91
854.48	36.01
854.655	81.07
854.83	36.01
855.005	85.16
855.18	113.83
855.354	25.77
855.529	74.92
855.704	-21.33
855.879	64.68
856.053	36.01
856.228	89.26
856.403	70.83
856.577	93.35
856.752	-13.14
856.926	83.11
857.101	7.34
857.276	-7
857.45	52.39
857.625	113.83
857.799	27.82
857.974	99.5
858.148	13.48
858.323	40.11
858.497	-0.85
858.672	40.11
858.846	25.77
859.02	81.07
859.195	25.77
859.369	33.96
859.543	64.68
859.718	48.3
859.892	9.39
860.066	56.49
860.241	-39.76
860.415	17.58
860.589	40.11
860.763	19.63
860.938	60.59
861.112	-31.57
861.286	48.3
861.46	33.96
861.634	52.39
861.808	46.25
861.982	1.19
862.157	58.54
862.331	-9.05
862.505	3.24
862.679	93.35
862.853	11.43
863.027	36.01
863.201	95.4
863.375	-70.48
863.549	-7
863.722	17.58
863.896	50.35
864.07	7.34
864.244	74.92
864.418	52.39
864.592	58.54
864.766	-4.95
864.939	29.87
865.113	38.06
865.287	36.01
865.461	-50
865.634	29.87
865.808	-52.05
865.982	126.12
866.156	54.44
866.329	-39.76
866.503	85.16
866.676	126.12
866.85	-17.24
867.024	48.3
867.197	-9.05
867.371	117.93
867.544	52.39
867.718	-37.72
867.891	48.3
868.065	76.97
868.238	29.87
868.412	79.02
868.585	-4.95
868.759	38.06
868.932	-4.95
869.105	-47.96
869.279	27.82
869.452	13.48
869.625	31.91
869.799	68.78
869.972	58.54
870.145	72.87
870.319	52.39
870.492	64.68
870.665	-11.09
870.838	-33.62
871.011	-37.72
871.185	-37.72
871.358	50.35
871.531	25.77
871.704	122.02
871.877	15.53
872.05	44.2
872.223	11.43
872.396	60.59
872.569	85.16
872.742	25.77
872.915	58.54
873.088	-56.15
873.261	5.29
873.434	19.63
873.607	27.82
873.78	76.97
873.953	-7
874.126	25.77
874.299	-31.57
874.471	36.01
874.644	15.53
874.817	19.63
874.99	79.02
875.163	-41.81
875.335	132.26
875.508	11.43
875.681	66.73
875.853	-0.85
876.026	52.39
876.199	7.34
876.371	25.77
876.544	1.19
876.717	54.44
876.889	60.59
877.062	7.34
877.234	56.49
877.407	50.35
877.579	74.92
877.752	146.6
877.924	23.72
878.097	58.54
878.269	79.02
878.442	-31.57
878.614	79.02
878.786	7.34
878.959	91.31
879.131	33.96
879.303	-45.91
879.476	44.2
879.648	60.59
879.82	1.19
879.993	15.53
880.165	1.19
880.337	-0.85
880.509	48.3
880.681	29.87
880.854	42.15
881.026	36.01
881.198	62.63
881.37	17.58
881.542	-25.43
881.714	31.91
881.886	46.25
882.058	29.87
882.23	-13.14
882.402	-15.19
882.574	-7
882.746	3.24
882.918	56.49
883.09	134.31
883.262	13.48
883.434	97.45
883.606	-47.96
883.778	64.68
883.95	79.02
884.122	19.63
884.293	76.97
884.465	-9.05
884.637	81.07
884.809	66.73
884.98	31.91
885.152	44.2
885.324	64.68
885.496	9.39
885.667	23.72
885.839	-37.72
886.011	50.35
886.182	3.24
886.354	48.3
886.525	3.24
886.697	3.24
886.869	-21.33
887.04	-29.52
887.212	89.26
887.383	52.39
887.555	42.15
887.726	48.3
887.897	17.58
888.069	99.5
888.24	64.68
888.412	23.72
888.583	42.15
888.754	97.45
888.926	-0.85
889.097	44.2
889.268	5.29
889.44	-17.24
889.611	-54.1
889.782	-11.09
889.953	13.48
890.125	40.11
890.296	-78.68
890.467	58.54
890.638	-4.95
890.809	40.11
890.98	-47.96
891.151	93.35
891.323	140.46
891.494	115.88
891.665	-11.09
891.836	3.24
892.007	5.29
892.178	-25.43
892.349	-31.57
892.52	40.11
892.691	9.39
892.862	15.53
893.032	9.39
893.203	91.31
893.374	62.63
893.545	56.49
893.716	-25.43
893.887	11.43
894.057	99.5
894.228	-11.09
894.399	-2.9
894.57	101.55
894.74	-7
894.911	56.49
895.082	-31.57
895.253	46.25
895.423	9.39
895.594	79.02
895.764	-43.86
895.935	5.29
896.106	15.53
896.276	15.53
896.447	93.35
896.617	31.91
896.788	15.53
896.958	38.06
897.129	48.3
897.299	19.63
897.47	60.59
897.64	-7
897.81	-2.9
897.981	11.43
898.151	3.24
898.322	7.34
898.492	15.53
898.662	-9.05
898.832	-21.33
899.003	38.06
899.173	3.24
899.343	-29.52
899.513	-13.14
