Data from USB4F104151__55__10-23-43-814.txt Node

Date: Wed Mar 12 10:23:43 EDT 2025
User: louis
Spectrometer: USB4F10415
Trigger mode: 4
Integration Time (sec): 3.000000E-2
Scans to average: 1
Electric dark correction enabled: true
Nonlinearity correction enabled: false
Boxcar width: 0
XAxis mode: Wavelengths
Number of Pixels in Spectrum: 3648
>>>>>Begin Spectral Data<<<<<
178.204	-52.56
178.424	-52.56
178.644	-52.56
178.864	-134.48
179.084	-136.53
179.304	45.74
179.524	-95.57
179.744	33.45
179.964	-54.61
180.184	-52.56
180.404	-23.89
180.624	45.74
180.844	35.5
181.064	-58.71
181.283	58.03
181.503	-19.8
181.723	86.7
181.943	-27.99
182.163	82.6
182.383	53.93
182.602	66.22
182.822	62.12
183.042	6.83
183.262	-21.84
183.482	58.03
183.701	-23.89
183.921	37.55
184.141	21.16
184.361	12.97
184.58	8.87
184.8	39.59
185.02	-36.18
185.239	37.55
185.459	-7.51
185.679	51.88
185.898	-15.7
186.118	31.4
186.338	25.26
186.557	17.07
186.777	17.07
186.997	27.31
187.216	-11.61
187.436	39.59
187.655	76.46
187.875	23.21
188.095	10.92
188.314	23.21
188.534	39.59
188.753	-54.61
188.973	29.35
189.192	15.02
189.412	84.65
189.631	25.26
189.851	74.41
190.07	23.21
190.29	21.16
190.509	33.45
190.729	76.46
190.948	25.26
191.168	217.77
191.387	68.27
191.607	45.74
191.826	105.13
192.045	-15.7
192.265	2.73
192.484	-3.41
192.704	66.22
192.923	-64.85
193.142	94.89
193.362	62.12
193.581	8.87
193.8	74.41
194.02	78.51
194.239	49.83
194.458	2.73
194.678	12.97
194.897	-30.04
195.116	103.08
195.335	53.93
195.555	90.79
195.774	58.03
195.993	35.5
196.212	23.21
196.432	-11.61
196.651	31.4
196.87	88.75
197.089	17.07
197.308	96.94
197.528	0.68
197.747	-17.75
197.966	43.69
198.185	-3.41
198.404	68.27
198.623	33.45
198.842	60.07
199.062	-3.41
199.281	62.12
199.5	25.26
199.719	35.5
199.938	17.07
200.157	68.27
200.376	76.46
200.595	92.84
200.814	6.83
201.033	6.83
201.252	12.97
201.471	15.02
201.69	21.16
201.909	-13.65
202.128	2.73
202.347	58.03
202.566	29.35
202.785	12.97
203.004	47.79
203.223	82.6
203.442	21.16
203.661	33.45
203.879	-3.41
204.098	2.73
204.317	37.55
204.536	29.35
204.755	68.27
204.974	-25.94
205.193	17.07
205.411	101.03
205.63	-5.46
205.849	4.78
206.068	2.73
206.287	39.59
206.505	103.08
206.724	49.83
206.943	-40.28
207.162	19.11
207.381	-9.56
207.599	27.31
207.818	60.07
208.037	43.69
208.255	31.4
208.474	15.02
208.693	92.84
208.911	84.65
209.13	68.27
209.349	86.7
209.567	53.93
209.786	111.27
210.005	-3.41
210.223	-32.08
210.442	8.87
210.661	78.51
210.879	45.74
211.098	-44.37
211.316	35.5
211.535	29.35
211.753	27.31
211.972	21.16
212.191	-30.04
212.409	15.02
212.628	41.64
212.846	-5.46
213.065	29.35
213.283	86.7
213.502	51.88
213.72	74.41
213.938	33.45
214.157	90.79
214.375	62.12
214.594	64.17
214.812	45.74
215.031	80.55
215.249	78.51
215.467	-11.61
215.686	43.69
215.904	60.07
216.122	17.07
216.341	15.02
216.559	51.88
216.778	101.03
216.996	21.16
217.214	-13.65
217.432	0.68
217.651	62.12
217.869	-25.94
218.087	-58.71
218.306	-38.23
218.524	25.26
218.742	-36.18
218.96	-19.8
219.179	86.7
219.397	43.69
219.615	58.03
219.833	121.51
220.051	2.73
220.27	84.65
220.488	4.78
220.706	103.08
220.924	8.87
221.142	-30.04
221.36	4.78
221.578	10.92
221.796	8.87
222.015	31.4
222.233	78.51
222.451	17.07
222.669	-13.65
222.887	29.35
223.105	15.02
223.323	15.02
223.541	-13.65
223.759	35.5
223.977	37.55
224.195	84.65
224.413	41.64
224.631	8.87
224.849	-9.56
225.067	129.7
225.285	-21.84
225.503	35.5
225.721	29.35
225.939	17.07
226.157	84.65
226.375	62.12
226.592	17.07
226.81	-38.23
227.028	12.97
227.246	41.64
227.464	-1.37
227.682	33.45
227.9	53.93
228.117	10.92
228.335	45.74
228.553	41.64
228.771	41.64
228.989	31.4
229.206	12.97
229.424	60.07
229.642	45.74
229.86	25.26
230.077	0.68
230.295	-3.41
230.513	17.07
230.731	35.5
230.948	88.75
231.166	101.03
231.384	-13.65
231.601	25.26
231.819	31.4
232.037	35.5
232.254	-46.42
232.472	27.31
232.689	-15.7
232.907	66.22
233.125	43.69
233.342	35.5
233.56	-21.84
233.777	25.26
233.995	25.26
234.213	2.73
234.43	19.11
234.648	-9.56
234.865	19.11
235.083	88.75
235.3	92.84
235.518	84.65
235.735	17.07
235.953	39.59
236.17	21.16
236.388	80.55
236.605	51.88
236.822	58.03
237.04	8.87
237.257	62.12
237.475	-3.41
237.692	92.84
237.909	-13.65
238.127	35.5
238.344	53.93
238.562	43.69
238.779	-36.18
238.996	-30.04
239.214	-1.37
239.431	37.55
239.648	43.69
239.865	12.97
240.083	8.87
240.3	33.45
240.517	19.11
240.735	58.03
240.952	47.79
241.169	41.64
241.386	-52.56
241.603	-27.99
241.821	25.26
242.038	33.45
242.255	43.69
242.472	23.21
242.689	78.51
242.907	45.74
243.124	55.98
243.341	111.27
243.558	-62.8
243.775	12.97
243.992	-19.8
244.209	-15.7
244.426	94.89
244.643	115.37
244.86	-23.89
245.078	21.16
245.295	25.26
245.512	-13.65
245.729	31.4
245.946	66.22
246.163	103.08
246.38	88.75
246.597	29.35
246.814	94.89
247.031	37.55
247.248	10.92
247.464	53.93
247.681	70.31
247.898	-27.99
248.115	12.97
248.332	-36.18
248.549	123.56
248.766	94.89
248.983	6.83
249.2	60.07
249.417	33.45
249.633	12.97
249.85	12.97
250.067	-23.89
250.284	15.02
250.501	62.12
250.717	37.55
250.934	25.26
251.151	49.83
251.368	27.31
251.585	23.21
251.801	86.7
252.018	103.08
252.235	51.88
252.451	-30.04
252.668	0.68
252.885	41.64
253.102	41.64
253.318	92.84
253.535	23.21
253.752	10.92
253.968	103.08
254.185	19.11
254.401	-71
254.618	33.45
254.835	15.02
255.051	-5.46
255.268	-38.23
255.484	62.12
255.701	-19.8
255.917	43.69
256.134	-15.7
256.351	-3.41
256.567	4.78
256.784	21.16
257	33.45
257.217	80.55
257.433	19.11
257.65	33.45
257.866	-32.08
258.082	-27.99
258.299	8.87
258.515	53.93
258.732	8.87
258.948	-5.46
259.165	23.21
259.381	-52.56
259.597	-23.89
259.814	19.11
260.03	37.55
260.246	70.31
260.463	98.99
260.679	53.93
260.895	6.83
261.112	58.03
261.328	29.35
261.544	62.12
261.761	107.18
261.977	12.97
262.193	-25.94
262.409	55.98
262.626	94.89
262.842	62.12
263.058	-25.94
263.274	15.02
263.49	27.31
263.707	8.87
263.923	-66.9
264.139	-3.41
264.355	45.74
264.571	94.89
264.787	25.26
265.004	17.07
265.22	51.88
265.436	82.6
265.652	17.07
265.868	68.27
266.084	66.22
266.3	-5.46
266.516	10.92
266.732	58.03
266.948	-71
267.164	-23.89
267.38	146.09
267.596	8.87
267.812	117.42
268.028	107.18
268.244	35.5
268.46	107.18
268.676	17.07
268.892	109.23
269.108	-30.04
269.324	37.55
269.54	60.07
269.756	98.99
269.972	-1.37
270.188	31.4
270.403	-34.13
270.619	60.07
270.835	-44.37
271.051	51.88
271.267	-1.37
271.483	49.83
271.698	62.12
271.914	51.88
272.13	0.68
272.346	74.41
272.562	41.64
272.777	70.31
272.993	37.55
273.209	37.55
273.425	-7.51
273.64	10.92
273.856	53.93
274.072	80.55
274.287	17.07
274.503	27.31
274.719	2.73
274.934	49.83
275.15	6.83
275.366	68.27
275.581	-5.46
275.797	51.88
276.012	107.18
276.228	-3.41
276.444	76.46
276.659	84.65
276.875	-5.46
277.09	29.35
277.306	51.88
277.521	74.41
277.737	66.22
277.952	43.69
278.168	-27.99
278.383	45.74
278.599	35.5
278.814	76.46
279.03	60.07
279.245	80.55
279.461	25.26
279.676	37.55
279.892	-7.51
280.107	-27.99
280.322	49.83
280.538	47.79
280.753	53.93
280.969	74.41
281.184	-3.41
281.399	6.83
281.615	66.22
281.83	-73.04
282.045	-11.61
282.26	49.83
282.476	6.83
282.691	80.55
282.906	29.35
283.122	51.88
283.337	113.32
283.552	37.55
283.767	45.74
283.983	68.27
284.198	2.73
284.413	78.51
284.628	-36.18
284.843	0.68
285.058	4.78
285.274	64.17
285.489	4.78
285.704	43.69
285.919	33.45
286.134	-3.41
286.349	29.35
286.564	33.45
286.779	53.93
286.995	15.02
287.21	15.02
287.425	-3.41
287.64	4.78
287.855	37.55
288.07	29.35
288.285	29.35
288.5	80.55
288.715	12.97
288.93	74.41
289.145	15.02
289.36	64.17
289.575	-52.56
289.79	60.07
290.004	15.02
290.219	74.41
290.434	12.97
290.649	0.68
290.864	45.74
291.079	-27.99
291.294	96.94
291.509	74.41
291.724	12.97
291.938	53.93
292.153	58.03
292.368	127.66
292.583	103.08
292.798	115.37
293.012	101.03
293.227	74.41
293.442	29.35
293.657	12.97
293.871	101.03
294.086	76.46
294.301	8.87
294.516	29.35
294.73	53.93
294.945	-66.9
295.16	98.99
295.374	90.79
295.589	66.22
295.804	27.31
296.018	47.79
296.233	39.59
296.447	35.5
296.662	23.21
296.877	19.11
297.091	92.84
297.306	8.87
297.52	70.31
297.735	17.07
297.949	-19.8
298.164	86.7
298.378	62.12
298.593	6.83
298.807	29.35
299.022	25.26
299.236	37.55
299.451	72.36
299.665	23.21
299.88	8.87
300.094	4.78
300.309	15.02
300.523	62.12
300.737	47.79
300.952	62.12
301.166	35.5
301.381	21.16
301.595	78.51
301.809	29.35
302.024	43.69
302.238	70.31
302.452	62.12
302.667	-3.41
302.881	127.66
303.095	-3.41
303.309	88.75
303.524	19.11
303.738	12.97
303.952	53.93
304.166	53.93
304.381	45.74
304.595	90.79
304.809	-3.41
305.023	70.31
305.237	49.83
305.452	25.26
305.666	21.16
305.88	29.35
306.094	94.89
306.308	148.14
306.522	74.41
306.736	70.31
306.95	76.46
307.164	33.45
307.379	-27.99
307.593	49.83
307.807	74.41
308.021	58.03
308.235	10.92
308.449	43.69
308.663	-30.04
308.877	49.83
309.091	121.51
309.305	86.7
309.519	-11.61
309.733	53.93
309.947	58.03
310.161	37.55
310.374	25.26
310.588	60.07
310.802	-58.71
311.016	74.41
311.23	-40.28
311.444	-56.66
311.658	-7.51
311.872	55.98
312.085	-66.9
312.299	31.4
312.513	35.5
312.727	64.17
312.941	-27.99
313.154	6.83
313.368	78.51
313.582	-52.56
313.796	74.41
314.009	6.83
314.223	-17.75
314.437	68.27
314.651	86.7
314.864	-3.41
315.078	-25.94
315.292	33.45
315.505	-13.65
315.719	82.6
315.933	35.5
316.146	23.21
316.36	33.45
316.573	4.78
316.787	94.89
317.001	45.74
317.214	2.73
317.428	-3.41
317.641	31.4
317.855	41.64
318.068	62.12
318.282	27.31
318.495	68.27
318.709	-11.61
318.922	35.5
319.136	76.46
319.349	43.69
319.563	8.87
319.776	101.03
319.99	-11.61
320.203	105.13
320.417	86.7
320.63	70.31
320.843	86.7
321.057	29.35
321.27	8.87
321.483	74.41
321.697	84.65
321.91	-40.28
322.124	103.08
322.337	139.94
322.55	58.03
322.763	43.69
322.977	-5.46
323.19	25.26
323.403	96.94
323.617	49.83
323.83	66.22
324.043	76.46
324.256	0.68
324.469	4.78
324.683	66.22
324.896	43.69
325.109	17.07
325.322	-7.51
325.535	131.75
325.748	78.51
325.962	6.83
326.175	66.22
326.388	92.84
326.601	74.41
326.814	86.7
327.027	66.22
327.24	-11.61
327.453	2.73
327.666	58.03
327.879	35.5
328.092	8.87
328.305	78.51
328.518	37.55
328.731	84.65
328.944	-30.04
329.157	33.45
329.37	15.02
329.583	121.51
329.796	113.32
330.009	31.4
330.222	6.83
330.435	45.74
330.648	-36.18
330.861	68.27
331.073	10.92
331.286	35.5
331.499	53.93
331.712	-5.46
331.925	58.03
332.138	68.27
332.35	17.07
332.563	66.22
332.776	70.31
332.989	21.16
333.202	51.88
333.414	96.94
333.627	35.5
333.84	31.4
334.053	35.5
334.265	-38.23
334.478	-5.46
334.691	74.41
334.903	-27.99
335.116	-7.51
335.329	98.99
335.541	8.87
335.754	51.88
335.966	37.55
336.179	45.74
336.392	76.46
336.604	92.84
336.817	107.18
337.029	21.16
337.242	33.45
337.454	70.31
337.667	21.16
337.88	70.31
338.092	60.07
338.305	96.94
338.517	6.83
338.729	68.27
338.942	41.64
339.154	25.26
339.367	21.16
339.579	123.56
339.792	-3.41
340.004	94.89
340.217	70.31
340.429	68.27
340.641	12.97
340.854	29.35
341.066	10.92
341.278	66.22
341.491	92.84
341.703	41.64
341.915	12.97
342.128	25.26
342.34	72.36
342.552	-3.41
342.764	53.93
342.977	51.88
343.189	62.12
343.401	33.45
343.613	-11.61
343.826	45.74
344.038	0.68
344.25	0.68
344.462	43.69
344.674	70.31
344.886	10.92
345.099	86.7
345.311	62.12
345.523	25.26
345.735	37.55
345.947	68.27
346.159	-7.51
346.371	47.79
346.583	43.69
346.795	107.18
347.007	29.35
347.219	62.12
347.431	-11.61
347.643	72.36
347.855	33.45
348.067	90.79
348.279	0.68
348.491	66.22
348.703	107.18
348.915	45.74
349.127	2.73
349.339	-3.41
349.551	21.16
349.763	10.92
349.975	41.64
350.187	33.45
350.399	84.65
350.61	64.17
350.822	-40.28
351.034	41.64
351.246	19.11
351.458	125.61
351.669	82.6
351.881	37.55
352.093	92.84
352.305	78.51
352.517	33.45
352.728	-21.84
352.94	72.36
353.152	76.46
353.363	-71
353.575	51.88
353.787	60.07
353.999	109.23
354.21	12.97
354.422	0.68
354.633	39.59
354.845	4.78
355.057	98.99
355.268	76.46
355.48	129.7
355.692	-3.41
355.903	55.98
356.115	-19.8
356.326	4.78
356.538	98.99
356.749	-5.46
356.961	80.55
357.172	-48.47
357.384	43.69
357.595	49.83
357.807	78.51
358.018	21.16
358.23	-5.46
358.441	68.27
358.653	43.69
358.864	10.92
359.075	-13.65
359.287	19.11
359.498	33.45
359.709	41.64
359.921	58.03
360.132	62.12
360.344	49.83
360.555	15.02
360.766	17.07
360.977	74.41
361.189	84.65
361.4	23.21
361.611	94.89
361.823	70.31
362.034	19.11
362.245	2.73
362.456	41.64
362.667	62.12
362.879	78.51
363.09	29.35
363.301	-7.51
363.512	101.03
363.723	62.12
363.935	98.99
364.146	62.12
364.357	66.22
364.568	23.21
364.779	4.78
364.99	43.69
365.201	98.99
365.412	49.83
365.623	84.65
365.834	135.85
366.045	43.69
366.256	35.5
366.467	23.21
366.678	0.68
366.889	96.94
367.1	10.92
367.311	51.88
367.522	19.11
367.733	72.36
367.944	51.88
368.155	62.12
368.366	80.55
368.577	8.87
368.788	125.61
368.999	60.07
369.209	43.69
369.42	74.41
369.631	98.99
369.842	98.99
370.053	19.11
370.264	-23.89
370.474	-19.8
370.685	29.35
370.896	35.5
371.107	74.41
371.317	64.17
371.528	33.45
371.739	84.65
371.95	123.56
372.16	33.45
372.371	6.83
372.582	88.75
372.792	101.03
373.003	-9.56
373.214	105.13
373.424	119.46
373.635	70.31
373.846	31.4
374.056	137.9
374.267	58.03
374.477	43.69
374.688	17.07
374.898	88.75
375.109	78.51
375.319	64.17
375.53	78.51
375.74	68.27
375.951	98.99
376.161	-5.46
376.372	90.79
376.582	70.31
376.793	74.41
377.003	45.74
377.214	55.98
377.424	45.74
377.635	12.97
377.845	51.88
378.055	86.7
378.266	43.69
378.476	15.02
378.686	53.93
378.897	58.03
379.107	6.83
379.317	53.93
379.528	62.12
379.738	2.73
379.948	27.31
380.158	78.51
380.369	55.98
380.579	127.66
380.789	31.4
380.999	123.56
381.21	121.51
381.42	115.37
381.63	70.31
381.84	96.94
382.05	41.64
382.261	82.6
382.471	103.08
382.681	41.64
382.891	53.93
383.101	62.12
383.311	8.87
383.521	62.12
383.731	64.17
383.941	127.66
384.151	60.07
384.361	105.13
384.571	80.55
384.781	98.99
384.991	25.26
385.201	53.93
385.411	135.85
385.621	78.51
385.831	39.59
386.041	55.98
386.251	37.55
386.461	111.27
386.671	37.55
386.881	98.99
387.091	84.65
387.301	119.46
387.511	103.08
387.72	74.41
387.93	78.51
388.14	15.02
388.35	98.99
388.56	51.88
388.769	70.31
388.979	58.03
389.189	31.4
389.399	53.93
389.609	137.9
389.818	115.37
390.028	82.6
390.238	111.27
390.447	29.35
390.657	-3.41
390.867	33.45
391.076	86.7
391.286	43.69
391.496	98.99
391.705	98.99
391.915	103.08
392.125	58.03
392.334	58.03
392.544	139.94
392.753	70.31
392.963	101.03
393.172	74.41
393.382	66.22
393.591	125.61
393.801	103.08
394.01	144.04
394.22	66.22
394.429	35.5
394.639	90.79
394.848	64.17
395.058	82.6
395.267	58.03
395.477	94.89
395.686	135.85
395.895	123.56
396.105	158.38
396.314	131.75
396.524	80.55
396.733	166.57
396.942	199.34
397.152	144.04
397.361	88.75
397.57	47.79
397.78	47.79
397.989	109.23
398.198	139.94
398.407	103.08
398.617	135.85
398.826	88.75
399.035	88.75
399.244	113.32
399.453	41.64
399.663	129.7
399.872	135.85
400.081	148.14
400.29	133.8
400.499	197.29
400.708	193.19
400.917	156.33
401.127	144.04
401.336	131.75
401.545	176.81
401.754	139.94
401.963	156.33
402.172	103.08
402.381	166.57
402.59	135.85
402.799	139.94
403.008	129.7
403.217	115.37
403.426	185
403.635	185
403.844	223.91
404.053	74.41
404.262	144.04
404.471	217.77
404.68	139.94
404.888	185
405.097	185
405.306	207.53
405.515	193.19
405.724	211.62
405.933	250.53
406.142	242.34
406.35	174.76
406.559	213.67
406.768	191.14
406.977	301.73
407.185	264.87
407.394	279.21
407.603	240.3
407.812	330.41
408.02	299.69
408.229	248.49
408.438	209.58
408.646	207.53
408.855	297.64
409.064	318.12
409.272	359.08
409.481	352.93
409.69	361.13
409.898	314.02
410.107	320.17
410.315	420.52
410.524	344.74
410.733	387.75
410.941	463.52
411.15	467.62
411.358	438.95
411.567	463.52
411.775	461.48
411.984	504.48
412.192	545.44
412.401	510.63
412.609	590.5
412.818	541.35
413.026	586.4
413.234	660.13
413.443	627.36
413.651	559.78
413.86	651.94
414.068	750.24
414.276	701.09
414.485	744.1
414.693	807.58
414.901	787.1
415.11	830.11
415.318	783.01
415.526	873.12
415.734	903.84
415.943	895.64
416.151	1008.28
416.359	936.6
416.567	1045.15
416.776	1114.78
416.984	1131.16
417.192	1133.21
417.4	1233.56
417.608	1077.91
417.817	1217.18
418.025	1307.29
418.233	1397.4
418.441	1397.4
418.649	1413.78
418.857	1507.99
419.065	1626.77
419.273	1520.28
419.481	1512.08
419.689	1749.65
419.897	1792.66
420.105	1827.47
420.313	1866.38
420.521	1933.97
420.729	1999.5
420.937	1976.97
421.145	2171.53
421.353	2265.74
421.561	2314.89
421.769	2407.05
421.977	2454.15
422.185	2382.47
422.393	2491.01
422.601	2732.67
422.809	2744.96
423.017	2681.47
423.224	2814.59
423.432	2910.85
423.64	2921.09
423.848	3230.33
424.056	3119.74
424.263	3381.88
424.471	3445.37
424.679	3492.47
424.887	3684.98
425.094	3764.85
425.302	3846.77
425.51	3994.22
425.718	3986.03
425.925	4141.68
426.133	4182.63
426.341	4409.96
426.548	4637.28
426.756	4692.58
426.964	4911.71
427.171	5108.32
427.379	5206.62
427.586	5180
427.794	5438.04
428.001	5575.25
428.209	6023.76
428.417	5747.28
428.624	6199.88
428.832	6206.03
429.039	6201.93
429.247	6328.91
429.454	6931.01
429.662	7064.13
429.869	6773.32
430.076	7365.18
430.284	6959.68
430.491	7268.92
430.699	7934.51
430.906	7787.06
431.114	7918.13
431.321	8340.01
431.528	8366.63
431.736	8827.43
431.943	9163.29
432.15	8962.59
432.358	9151.01
432.565	9554.46
432.772	9431.58
432.979	9957.91
433.187	10160.66
433.394	10273.29
433.601	11035.14
433.808	10908.16
434.016	10797.57
434.223	11446.78
434.43	12018.16
434.637	11653.62
434.844	12282.35
435.052	12798.44
435.259	12517.87
435.466	12806.63
435.673	12526.06
435.88	13560.28
436.087	14086.61
436.294	14059.99
436.501	13621.72
436.708	14303.7
436.915	14344.66
437.122	15374.78
437.329	15204.8
437.537	15616.44
437.743	15825.34
437.95	15727.03
438.157	16576.94
438.364	17273.25
438.571	17035.69
438.778	17123.75
438.985	18661.77
439.192	18002.33
439.399	18776.46
439.606	17990.04
439.813	18997.64
440.02	20291.96
440.227	20402.55
440.433	19904.89
440.64	20666.74
440.847	20320.63
441.054	20937.07
441.261	22227.29
441.467	22061.4
441.674	22337.88
441.881	23130.44
442.088	23245.13
442.294	22956.36
442.501	23658.82
442.708	24224.06
442.914	25108.78
443.121	26108.19
443.328	25241.9
443.534	27085.07
443.741	26431.77
443.948	25868.58
444.154	27781.38
444.361	27490.57
444.568	27826.43
444.774	27640.07
444.981	28260.6
445.187	28860.66
445.394	30257.37
445.6	29464.81
445.807	32471.23
446.013	30937.3
446.22	31621.32
446.426	33200.3
446.633	33505.45
446.839	34154.66
447.046	33149.1
447.252	34494.62
447.459	34576.54
447.665	34891.93
447.871	36163.71
448.078	37347.44
448.284	35764.36
448.491	36685.95
448.697	37914.73
448.903	38731.87
449.11	38615.13
449.316	38260.83
449.522	38893.66
449.728	40087.62
449.935	40239.17
450.141	39960.65
450.347	41105.46
450.553	39721.04
450.76	40243.27
450.966	41324.6
451.172	40689.73
451.378	41697.33
451.584	41187.38
451.791	42051.62
451.997	41895.98
452.203	42354.72
452.409	42485.79
452.615	42104.87
452.821	40826.94
453.027	40114.25
453.233	42248.23
453.44	40339.52
453.646	41123.9
453.852	40976.44
454.058	42184.74
454.264	40347.72
454.47	41359.41
454.676	40204.36
454.882	41789.49
455.088	37544.05
455.294	38445.15
455.5	38676.57
455.705	39381.07
455.911	38033.51
456.117	37296.24
456.323	36407.42
456.529	34773.14
456.735	36313.22
456.941	35405.97
457.147	34642.07
457.352	33845.41
457.558	33284.27
457.764	33042.61
457.97	32440.51
458.176	31688.9
458.381	31748.29
458.587	30222.56
458.793	30120.16
458.999	28780.79
459.204	30888.15
459.41	30081.25
459.616	27986.18
459.821	28094.72
460.027	28000.51
460.233	27416.84
460.438	25893.15
460.644	26394.9
460.85	25143.59
461.055	24729.91
461.261	24928.56
461.466	22782.29
461.672	22278.49
461.878	23595.33
462.083	22294.87
462.289	21928.28
462.494	21490.02
462.7	20664.69
462.905	19986.81
463.111	20746.61
463.316	20797.81
463.522	20679.02
463.727	20136.31
463.932	20402.55
464.138	20238.71
464.343	20218.23
464.549	19571.07
464.754	20556.14
464.959	20420.98
465.165	19724.67
465.37	19200.39
465.575	18557.33
465.781	19362.18
465.986	19693.95
466.191	18708.88
466.397	18475.41
466.602	17641.89
466.807	18637.2
467.012	18358.67
467.218	18219.41
467.423	18364.82
467.628	18002.33
467.833	19059.08
468.038	18065.81
468.244	17793.44
468.449	18225.56
468.654	17713.56
468.859	17682.84
469.064	17412.51
469.269	16929.19
469.474	16892.33
469.679	17406.37
469.885	16626.09
470.09	17025.45
470.295	16576.94
470.5	16454.06
470.705	16689.58
470.91	16290.23
471.115	16306.61
471.32	16198.07
471.525	16187.83
471.73	15620.54
471.935	15698.36
472.139	15202.75
472.344	15532.48
472.549	15456.7
472.754	14922.18
472.959	14854.6
473.164	14549.45
473.369	14391.76
473.574	14862.79
473.778	14545.36
473.983	14428.62
474.188	14574.03
474.393	13885.91
474.598	13810.14
474.802	13890.01
475.007	13482.46
475.212	13701.59
475.417	13308.38
475.621	13273.57
475.826	13322.72
476.031	13109.73
476.235	12610.03
476.44	12888.55
476.645	12587.5
476.849	12861.93
477.054	12409.33
477.259	12339.69
477.463	12550.64
477.668	12188.14
477.872	12190.19
478.077	11919.86
478.282	11848.18
478.486	11637.24
478.691	11637.24
478.895	11452.92
479.1	11493.88
479.304	11280.89
479.509	11004.42
479.713	11420.16
479.918	11219.46
480.122	10899.97
480.326	11022.85
480.531	11239.94
480.735	11020.8
480.94	10895.88
481.144	11147.78
481.348	10729.99
481.553	10926.6
481.757	10738.18
481.961	10592.78
482.166	11192.83
482.37	10936.84
482.574	10611.21
482.778	10650.12
482.983	11012.61
483.187	10568.2
483.391	10793.48
483.595	10674.7
483.8	10641.93
484.004	10615.3
484.208	10942.98
484.412	10697.22
484.616	10637.83
484.821	10822.15
485.025	10666.5
485.229	10732.04
485.433	10555.91
485.637	10717.7
485.841	10701.32
486.045	10551.82
486.249	10592.78
486.453	10650.12
486.657	10621.45
486.861	10695.18
487.065	10457.61
487.269	10846.73
487.473	10549.77
487.677	10682.89
487.881	10732.04
488.085	10703.37
488.289	10799.62
488.493	10910.21
488.697	11037.19
488.901	10861.06
489.105	10836.49
489.309	10811.91
489.512	10807.81
489.716	10842.63
489.92	10762.76
490.124	10859.01
490.328	11145.73
490.531	11069.95
490.735	10971.65
490.939	10887.68
491.143	11041.28
491.346	11121.15
491.55	11178.5
491.754	11131.39
491.958	11303.42
492.161	11147.78
492.365	11526.65
492.569	11196.93
492.772	11342.33
492.976	11477.5
493.18	11497.98
493.383	11725.3
493.587	11682.3
493.79	11842.04
493.994	11637.24
494.197	12026.36
494.401	11913.72
494.605	11811.32
494.808	11981.3
495.012	12431.85
495.215	12286.45
495.419	12550.64
495.622	12358.13
495.825	12519.92
496.029	12671.47
496.232	12851.69
496.436	12823.01
496.639	13236.7
496.843	12927.46
497.046	13201.89
497.249	13558.24
497.453	13345.25
497.656	13435.36
497.859	13861.34
498.063	13822.42
498.266	14152.15
498.469	14043.6
498.673	14215.63
498.876	14514.64
499.079	14602.7
499.282	14494.16
499.485	14907.85
499.689	15047.11
499.892	15307.2
500.095	15286.72
500.298	15780.28
500.501	15397.31
500.705	15905.21
500.908	16161.2
501.111	16380.34
501.314	16189.88
501.517	16761.26
501.72	16744.88
501.923	16662.96
502.126	17086.89
502.329	17514.91
502.532	17355.17
502.735	17535.39
502.938	17973.66
503.141	18119.06
503.344	18413.97
503.547	18278.8
503.75	18471.31
503.953	18966.92
504.156	19104.14
504.359	18991.5
504.562	19294.6
504.765	19802.49
504.968	19941.75
505.17	19931.51
505.373	20212.09
505.576	20556.14
505.779	20588.91
505.982	21137.77
506.185	21442.92
506.387	21616.99
506.59	21483.87
506.793	22337.88
506.996	21961.05
507.198	22473.04
507.401	22258.01
507.604	22681.94
507.807	23279.94
508.009	23200.07
508.212	23451.97
508.415	23773.5
508.617	23712.06
508.82	23984.44
509.022	24054.08
509.225	24660.27
509.428	24965.42
509.63	25291.05
509.833	25096.49
510.035	25944.35
510.238	25536.8
510.44	26120.48
510.643	26355.99
510.845	26532.12
511.048	26548.5
511.25	27128.08
511.453	27404.55
511.655	28319.99
511.858	27863.3
512.06	28338.43
512.262	28733.68
512.465	28457.21
512.667	28788.98
512.87	29280.49
513.072	29225.2
513.274	30185.69
513.477	30279.9
513.679	30243.04
513.881	30808.28
514.084	31303.88
514.286	31013.07
514.488	31307.98
514.69	32344.25
514.893	32252.09
515.095	32475.32
515.297	32970.93
515.499	33044.66
515.701	33165.49
515.904	33632.43
516.106	33974.44
516.308	34048.16
516.51	34396.32
516.712	34633.88
516.914	35154.07
517.116	35715.21
517.318	35311.76
517.52	35764.36
517.722	35807.37
517.925	36907.13
518.127	36960.37
518.329	37234.8
518.531	37206.13
518.733	38158.44
518.935	38176.87
519.136	38258.79
519.338	38740.06
519.54	38930.52
519.742	39403.6
519.944	39327.83
520.146	40464.45
520.348	40196.17
520.55	40769.6
520.752	40990.78
520.954	41769.01
521.155	41084.98
521.357	41977.9
521.559	42139.69
521.761	42762.27
521.963	42655.78
522.164	43157.53
522.366	43216.92
522.568	43581.46
522.77	43800.59
522.971	44546.05
523.173	43972.62
523.375	44632.07
523.576	44697.6
523.778	44974.08
523.98	45066.24
524.181	45678.58
524.383	45502.45
524.584	46290.92
524.786	46362.6
524.988	46264.3
525.189	46915.55
525.391	46909.41
525.592	47245.27
525.794	47232.99
525.995	47886.29
526.197	47687.64
526.398	47405.02
526.6	48097.23
526.801	48310.22
527.003	48611.27
527.204	48494.53
527.406	48883.65
527.607	48973.76
527.808	49096.64
528.01	48818.11
528.211	49096.64
528.412	50302.89
528.614	49782.71
528.815	49659.83
529.016	50710.44
529.218	50321.32
529.419	50851.75
529.62	50573.22
529.822	50567.08
530.023	50845.6
530.224	50608.04
530.425	51068.83
530.626	50759.59
530.828	50255.79
531.029	51713.94
531.23	51175.33
531.431	51171.23
531.632	51142.56
531.833	51277.72
532.035	51685.27
532.236	51836.82
532.437	51888.02
532.638	51488.67
532.839	51693.46
533.04	51914.64
533.241	51988.37
533.442	52551.56
533.643	51701.65
533.844	51992.47
534.045	52627.34
534.246	51627.93
534.447	52281.23
534.648	51894.16
534.849	52086.67
535.05	51939.22
535.251	52516.75
535.451	51859.35
535.652	52115.34
535.853	52156.3
536.054	52486.03
536.255	52553.61
536.456	51914.64
536.657	53018.5
536.857	52082.58
537.058	51791.76
537.259	52385.68
537.46	52703.11
537.66	52393.87
537.861	52402.06
538.062	52123.54
538.263	52479.88
538.463	52283.28
538.664	52311.95
538.865	52402.06
539.065	52733.83
539.266	52027.28
539.466	52920.2
539.667	52223.89
539.868	52934.53
540.068	52844.42
540.269	52178.83
540.469	52457.35
540.67	52275.08
540.87	52115.34
541.071	52459.4
541.271	52586.38
541.472	52647.82
541.672	52504.46
541.873	51986.32
542.073	51951.51
542.274	52782.98
542.474	52477.83
542.675	51935.12
542.875	52516.75
543.075	52498.31
543.276	51797.91
543.476	53059.46
543.676	52094.86
543.877	52823.94
544.077	52352.91
544.277	52379.53
544.478	52434.83
544.678	52164.49
544.878	52426.63
545.078	52615.05
545.279	51744.66
545.479	52397.96
545.679	52520.84
545.879	52240.27
546.079	52262.8
546.28	52117.39
546.48	51396.51
546.68	51953.55
546.88	52043.66
547.08	52426.63
547.28	52309.9
547.48	51578.78
547.68	52393.87
547.88	51877.78
548.081	52457.35
548.281	52010.9
548.481	51812.24
548.681	51994.51
548.881	52490.12
549.081	51971.99
549.28	52414.35
549.48	52436.87
549.68	51935.12
549.88	52496.27
550.08	51767.19
550.28	52082.58
550.48	51496.86
550.68	52117.39
550.88	51781.52
551.08	51703.7
551.279	52316.04
551.479	51333.02
551.679	52082.58
551.879	51701.65
552.079	52047.76
552.278	51748.76
552.478	51787.67
552.678	51636.12
552.878	51863.44
553.077	51713.94
553.277	51165.09
553.477	52074.38
553.676	51564.44
553.876	51533.72
554.076	51529.62
554.275	51300.25
554.475	51312.54
554.674	51511.19
554.874	51890.07
555.074	50948
555.273	51699.61
555.473	51550.1
555.672	50943.91
555.872	50927.52
556.071	51550.1
556.271	51607.45
556.47	51603.35
556.67	50704.29
556.869	50878.37
557.068	50874.27
557.268	50608.04
557.467	51009.44
557.667	50829.22
557.866	50833.32
558.065	50743.2
558.265	50608.04
558.464	50284.46
558.663	51173.28
558.863	50112.43
559.062	51154.85
559.261	50026.42
559.461	51066.78
559.66	49786.8
559.859	50608.04
560.058	49668.02
560.258	50567.08
560.457	49627.06
560.656	50171.82
560.855	49571.77
561.054	50147.25
561.253	49539
561.453	49561.53
561.652	50018.22
561.851	50001.84
562.05	49409.98
562.249	48728
562.448	49743.8
562.647	49299.39
562.846	49207.23
563.045	49334.2
563.244	48394.18
563.443	49495.99
563.642	48322.51
563.841	48545.73
564.04	48619.46
564.239	48777.15
564.438	48185.29
564.637	48605.12
564.836	48605.12
565.035	47882.19
565.234	48320.46
565.432	47771.6
565.631	47833.04
565.83	47699.92
566.029	47501.27
566.228	47658.96
566.427	47339.48
566.625	47196.12
566.824	46933.98
567.023	47425.5
567.222	46544.87
567.42	47577.04
567.619	47187.93
567.818	46815.2
568.016	46624.74
568.215	47028.19
568.414	46436.33
568.612	46933.98
568.811	46196.71
569.01	46299.11
569.208	45512.69
569.407	46217.19
569.605	45537.27
569.804	46276.58
570.002	45361.14
570.201	45504.5
570.4	45398.01
570.598	45332.47
570.797	45043.71
570.995	45490.16
571.193	44333.06
571.392	45084.67
571.59	44638.21
571.789	44910.59
571.987	44324.87
572.186	44488.71
572.384	44439.56
572.582	44673.03
572.781	44558.34
572.979	43427.86
573.177	43866.13
573.376	44107.79
573.574	43706.38
573.772	43962.38
573.971	43800.59
574.169	43237.4
574.367	43216.92
574.565	43829.26
574.763	43384.85
574.962	42782.75
575.16	42655.78
575.358	43038.75
575.556	42629.15
575.754	43038.75
575.952	42360.87
576.151	42754.08
576.349	42375.2
576.547	42334.24
576.745	42080.3
576.943	42289.19
577.141	41977.9
577.339	42016.81
577.537	41404.47
577.735	42139.69
577.933	41410.61
578.131	41670.7
578.329	40941.63
578.527	41027.64
578.725	41068.6
578.923	41138.23
579.121	41125.94
579.319	40783.93
579.516	40927.29
579.714	40990.78
579.912	40470.59
580.11	40538.18
580.308	40409.15
580.506	40634.43
580.704	39567.44
580.901	40835.13
581.099	40089.67
581.297	39796.81
581.495	39434.32
581.692	39888.97
581.89	39487.57
582.088	39794.76
582.285	39577.68
582.483	39475.28
582.681	39125.08
582.878	39047.25
583.076	39000.15
583.274	39274.58
583.471	38576.22
583.669	38781.02
583.866	38471.78
584.064	38944.86
584.262	38084.71
584.459	38623.33
584.657	38027.37
584.854	38185.06
585.052	37580.91
585.249	37869.67
585.447	38051.94
585.644	37560.43
585.841	37779.56
586.039	38013.03
586.236	37523.57
586.434	37249.14
586.631	37175.41
586.828	36782.2
587.026	36804.73
587.223	37288.05
587.42	36860.02
587.618	37001.33
587.815	35956.87
588.012	36210.82
588.21	36046.98
588.407	36618.36
588.604	36053.12
588.801	36092.04
588.999	35909.77
589.196	35735.69
589.393	35963.01
589.59	35788.94
589.787	35711.11
589.984	35330.19
590.182	35367.06
590.379	35674.25
590.576	34674.84
590.773	35432.59
590.97	34723.99
591.167	35164.31
591.364	34214.05
591.561	34779.29
591.758	34760.86
591.955	34513.05
592.152	34560.16
592.349	34490.52
592.546	34365.6
592.743	34646.17
592.94	33798.31
593.137	34123.94
593.334	33904.81
593.531	33624.23
593.727	33640.62
593.924	33632.43
594.121	33536.17
594.318	33781.93
594.515	33249.46
594.712	33466.54
594.908	33061.04
595.105	33444.01
595.302	32725.18
595.499	32790.71
595.696	32835.77
595.892	32432.32
596.089	32794.81
596.286	32594.11
596.482	32356.54
596.679	32434.36
596.876	32190.66
597.072	32098.5
597.269	31920.32
597.466	32135.36
597.662	31656.14
597.859	31727.81
598.055	31832.26
598.252	31527.11
598.448	31633.61
598.645	31566.02
598.841	31103.18
599.038	31496.39
599.234	31105.23
599.431	30992.59
599.627	30767.32
599.824	30992.59
600.02	30865.62
600.217	30929.11
600.413	30740.69
600.609	30327
600.806	30271.71
601.002	30617.82
601.198	30253.28
601.395	29872.35
601.591	29866.21
601.787	30128.35
601.984	29890.79
602.18	30021.86
602.376	29892.83
602.572	29509.86
602.769	29509.86
602.965	29204.72
603.161	29130.99
603.357	29286.64
603.553	29214.96
603.75	29135.09
603.946	28977.39
604.142	28961.01
604.338	28391.67
604.534	28729.59
604.73	28702.96
604.926	28440.82
605.122	28604.66
605.318	28190.97
605.514	28303.61
605.71	28500.22
605.906	28328.19
606.102	27953.41
606.298	27797.76
606.494	27801.86
606.69	28066.05
606.886	28092.67
607.082	27578.63
607.278	27758.85
607.474	26806.55
607.67	27615.49
607.866	26960.14
608.062	27717.89
608.257	27099.41
608.453	27230.48
608.649	27232.52
608.845	26867.98
609.041	27011.34
609.236	27207.95
609.432	26980.62
609.628	26765.59
609.824	26878.22
610.019	26505.49
610.215	26534.17
610.411	26859.79
610.606	26251.55
610.802	26665.24
610.998	26519.83
611.193	26470.68
611.389	26108.19
611.584	26290.46
611.78	25923.87
611.976	26081.56
612.171	26118.43
612.367	25387.3
612.562	26229.02
612.758	25919.78
612.953	25680.16
613.149	25790.75
613.344	25686.31
613.539	25784.61
613.735	25616.68
613.93	25749.79
614.126	25409.83
614.321	25678.11
614.517	25454.89
614.712	25686.31
614.907	25409.83
615.103	25694.5
615.298	24881.45
615.493	25166.12
615.688	24746.29
615.884	25614.63
616.079	24746.29
616.274	24697.14
616.47	24842.54
616.665	24785.2
616.86	24994.09
617.055	24955.18
617.25	24449.33
617.445	24713.52
617.641	24578.36
617.836	24248.63
618.031	24142.14
618.226	24226.1
618.421	24174.91
618.616	24154.43
618.811	23607.62
619.006	24494.39
619.201	23529.8
619.396	23570.75
619.591	23345.48
619.786	23603.52
619.981	23361.86
620.176	23437.64
620.371	22952.27
620.566	23329.09
620.761	22866.25
620.956	23083.34
621.151	22733.14
621.346	23052.62
621.541	22475.09
621.735	22995.28
621.93	22464.85
622.125	22217.05
622.32	22049.11
622.515	22231.38
622.709	21975.39
622.904	21793.12
623.099	22122.84
623.294	21729.63
623.488	21397.86
623.683	21870.94
623.878	21279.08
624.072	21242.21
624.267	21199.21
624.462	21154.15
624.656	21043.56
624.851	21170.54
625.046	20515.19
625.24	20756.85
625.435	20287.86
625.629	20492.66
625.824	20576.62
626.018	20087.16
626.213	19933.56
626.407	20091.26
626.602	19753.34
626.796	19894.65
626.991	19722.62
627.185	19728.77
627.38	19501.44
627.574	19184.01
627.768	19091.85
627.963	18995.59
628.157	18749.84
628.352	19179.91
628.546	18741.64
628.74	18837.9
628.935	18717.07
629.129	18629.01
629.323	18190.74
629.517	18258.32
629.712	18227.6
629.906	18338.19
630.1	18229.65
630.294	17994.14
630.489	17682.84
630.683	17959.32
630.877	17508.77
631.071	17629.6
631.265	17555.87
631.459	17342.88
631.653	17244.58
631.848	17480.1
632.042	17260.96
632.236	17105.32
632.43	17133.99
632.624	17215.91
632.818	16990.63
633.012	16734.64
633.206	16595.37
633.4	16515.5
633.594	16458.16
633.788	16343.47
633.982	16183.73
634.176	16282.03
634.369	15921.59
634.563	16150.96
634.757	16089.53
634.951	15894.97
635.145	15935.93
635.339	15892.92
635.533	15841.72
635.726	15466.94
635.92	15090.12
636.114	15335.87
636.308	15301.06
636.501	15266.24
636.695	15051.2
636.889	14889.42
637.083	15034.82
637.276	14907.85
637.47	14975.43
637.664	14596.56
637.857	14651.85
638.051	14725.58
638.244	14356.94
638.438	14449.1
638.632	14197.2
638.825	14148.05
639.019	14156.24
639.212	13996.5
639.406	14074.32
639.599	13959.64
639.793	14078.42
639.986	13683.16
640.18	13824.47
640.373	13640.15
640.567	13490.65
640.76	13294.05
640.954	13267.42
641.147	13138.4
641.34	13410.78
641.534	13195.75
641.727	13324.77
641.92	12890.6
642.114	12802.54
642.307	12939.75
642.5	12925.41
642.694	12454.38
642.887	12659.18
643.08	12657.13
643.273	12610.03
643.467	12478.96
643.66	12399.09
643.853	12171.76
644.046	12048.88
644.239	12302.83
644.432	11831.8
644.626	12155.38
644.819	11776.5
645.012	11874.81
645.205	11807.22
645.398	11936.24
645.591	11690.49
645.784	11780.6
645.977	11438.59
646.17	11467.26
646.363	11485.69
646.556	11452.92
646.749	11305.47
646.942	11348.48
647.135	11237.89
647.328	11158.02
647.521	11235.84
647.714	10918.4
647.907	10910.21
648.099	10834.44
648.292	10875.4
648.485	10711.56
648.678	10676.74
648.871	10600.97
649.064	10312.21
649.256	10705.42
649.449	10541.58
649.642	10367.5
649.835	10322.45
650.027	10426.89
650.22	10215.95
650.413	10203.66
650.605	10226.19
650.798	9955.86
650.991	10029.59
651.183	10045.97
651.376	9855.51
651.568	9779.73
651.761	9826.84
651.954	10023.44
652.146	9804.31
652.339	9839.12
652.531	9366.04
652.724	9644.57
652.916	9501.21
653.109	9419.29
653.301	9419.29
653.494	9546.26
653.686	9204.25
653.879	9273.89
654.071	9327.13
654.263	9134.62
654.456	9189.92
654.648	9175.58
654.84	8854.05
655.033	8876.58
655.225	8765.99
655.417	8735.27
655.61	8708.65
655.802	8776.23
655.994	8679.97
656.186	8757.8
656.379	8768.04
656.571	8743.46
656.763	8544.81
656.955	8477.23
657.148	8331.82
657.34	8469.03
657.532	8188.46
657.724	8344.11
657.916	8368.68
658.108	8270.38
658.3	8243.76
658.492	8194.61
658.684	8151.6
658.876	8196.65
659.068	8018.48
659.26	7934.51
659.452	8096.3
659.644	8006.19
659.836	7778.87
660.028	7834.16
660.22	7785.01
660.412	7840.31
660.604	7782.96
660.796	7817.78
660.988	7678.52
661.18	7647.8
661.372	7578.17
661.563	7621.17
661.755	7514.68
661.947	7443
662.139	7486.01
662.331	7404.09
662.522	7404.09
662.714	7369.27
662.906	7311.93
663.097	7293.5
663.289	7107.13
663.481	7041.6
663.673	7193.15
663.864	7121.47
664.056	7062.08
664.247	7000.64
664.439	6847.04
664.631	7053.89
664.822	7070.27
665.014	6861.38
665.205	6750.79
665.397	6822.47
665.588	6885.95
665.78	6801.99
665.971	6625.86
666.163	6742.6
666.354	6670.92
666.546	6513.22
666.737	6650.44
666.929	6650.44
667.12	6648.39
667.311	6492.74
667.503	6431.3
667.694	6453.83
667.885	6357.58
668.077	6582.85
668.268	6287.95
668.459	6384.2
668.651	6339.15
668.842	6359.63
669.033	6275.66
669.224	6246.99
669.416	6341.19
669.607	6277.71
669.798	6210.12
669.989	6091.34
670.18	6171.21
670.371	6070.86
670.563	5988.94
670.754	5984.85
670.945	5884.5
671.136	5917.26
671.327	5993.04
671.518	5898.83
671.709	5956.18
671.9	5821.01
672.091	5974.61
672.282	5827.15
672.473	6029.9
672.664	5829.2
672.855	5644.88
673.046	5786.19
673.237	5780.05
673.428	5818.96
673.619	5726.8
673.809	5673.56
674	5632.6
674.191	5657.17
674.382	5622.36
674.573	5646.93
674.764	5538.39
674.954	5554.77
675.145	5685.84
675.336	5589.59
675.527	5663.32
675.717	5706.32
675.908	5474.9
676.099	5567.06
676.289	5444.18
676.48	5466.71
676.671	5485.14
676.861	5489.24
677.052	5517.91
677.243	5251.67
677.433	5321.31
677.624	5489.24
677.814	5442.14
678.005	5419.61
678.195	5255.77
678.386	5468.76
678.576	5167.71
678.767	5468.76
678.957	5382.74
679.148	5235.29
679.338	5249.63
679.529	5268.06
679.719	5300.83
679.909	5378.65
680.1	5235.29
680.29	5288.54
680.481	5253.72
680.671	5263.96
680.861	5169.76
681.052	5370.46
681.242	5268.06
681.432	5272.15
681.622	5223
681.813	5263.96
682.003	5157.47
682.193	5081.69
682.383	5255.77
682.573	5163.61
682.764	5188.19
682.954	5134.94
683.144	5186.14
683.334	5151.32
683.524	5122.65
683.714	5106.27
683.904	5067.36
684.094	5071.45
684.284	4983.39
684.474	5087.84
684.664	5126.75
684.854	5089.89
685.044	5057.12
685.234	4964.96
685.424	4960.86
685.614	5046.88
685.804	4928.1
685.994	4913.76
686.184	4807.27
686.374	4905.57
686.564	4905.57
686.753	4846.18
686.943	4803.17
687.133	4756.07
687.323	4844.13
687.513	4799.07
687.702	4682.34
687.892	4950.62
688.082	4625
688.272	4899.42
688.461	4729.44
688.651	4715.11
688.841	4723.3
689.03	4686.44
689.22	4788.83
689.41	4596.32
689.599	4715.11
689.789	4690.53
689.979	4647.52
690.168	4579.94
690.358	4520.55
690.547	4573.8
690.737	4424.3
690.926	4575.84
691.116	4440.68
691.305	4510.31
691.495	4436.58
691.684	4371.05
691.874	4375.14
692.063	4389.48
692.252	4323.94
692.442	4305.51
692.631	4461.16
692.82	4217.45
693.01	4280.94
693.199	4282.99
693.388	4162.16
693.578	4223.59
693.767	4262.51
693.956	4174.44
694.146	4248.17
694.335	4151.92
694.524	4225.64
694.713	4225.64
694.902	4246.12
695.092	4194.92
695.281	4059.76
695.47	4094.57
695.659	4137.58
695.848	4149.87
696.037	4026.99
696.226	4047.47
696.415	3992.17
696.604	4145.77
696.793	4143.72
696.982	4270.7
697.171	4033.13
697.36	4072.04
697.549	4018.8
697.738	4002.41
697.927	3951.21
698.116	4049.52
698.305	3969.65
698.494	4010.61
698.683	4098.67
698.872	3957.36
699.061	3936.88
699.25	3992.17
699.438	3953.26
699.627	3975.79
699.816	4125.29
700.005	3943.02
700.193	4016.75
700.382	3977.84
700.571	3943.02
700.76	3922.54
700.948	3891.82
701.137	3926.64
701.326	3947.12
701.514	3885.68
701.703	3957.36
701.892	4094.57
702.08	3938.93
702.269	4010.61
702.457	3875.44
702.646	3986.03
702.834	3809.9
703.023	3814
703.212	3906.16
703.4	3854.96
703.589	3781.23
703.777	3947.12
703.965	3725.94
704.154	3738.23
704.342	3945.07
704.531	3891.82
704.719	3777.14
704.907	3926.64
705.096	3691.12
705.284	3885.68
705.472	3732.08
705.661	3818.1
705.849	4026.99
706.037	3805.81
706.226	3967.6
706.414	3859.06
706.602	3914.35
706.79	3863.15
706.979	3809.9
707.167	3715.7
707.355	3902.06
707.543	3865.2
707.731	3820.14
707.919	3877.49
708.107	3854.96
708.296	3701.36
708.484	3777.14
708.672	3799.66
708.86	3885.68
709.048	3887.73
709.236	3859.06
709.424	3773.04
709.612	3863.15
709.8	3719.79
709.988	3748.47
710.176	3766.9
710.364	3863.15
710.551	3793.52
710.739	3842.67
710.927	3738.23
711.115	3691.12
711.303	3814
711.491	3760.75
711.679	3830.38
711.866	3721.84
712.054	3760.75
712.242	3711.6
712.43	3840.62
712.617	3725.94
712.805	3760.75
712.993	3797.62
713.181	3566.2
713.368	3701.36
713.556	3809.9
713.744	3785.33
713.931	3705.46
714.119	3830.38
714.306	3871.34
714.494	3695.22
714.682	3795.57
714.869	3713.65
715.057	3695.22
715.244	3676.79
715.432	3658.35
715.619	3666.55
715.807	3699.31
715.994	3756.66
716.182	3676.79
716.369	3783.28
716.556	3756.66
716.744	3715.7
716.931	3713.65
717.119	3678.83
717.306	3797.62
717.493	3654.26
717.681	3873.39
717.868	3740.27
718.055	3693.17
718.242	3650.16
718.43	3801.71
718.617	3687.03
718.804	3730.03
718.991	3641.97
719.179	3689.07
719.366	3703.41
719.553	3588.72
719.74	3502.71
719.927	3637.88
720.114	3684.98
720.301	3613.3
720.488	3576.44
720.676	3715.7
720.863	3553.91
721.05	3662.45
721.237	3508.85
721.424	3730.03
721.611	3603.06
721.798	3594.87
721.985	3541.62
722.172	3605.11
722.358	3621.49
722.545	3527.28
722.732	3641.97
722.919	3697.27
723.106	3613.3
723.293	3560.05
723.48	3437.17
723.667	3578.48
723.853	3578.48
724.04	3592.82
724.227	3535.48
724.414	3515
724.6	3545.72
724.787	3558
724.974	3576.44
725.161	3670.64
725.347	3558
725.534	3455.61
725.72	3656.31
725.907	3727.99
726.094	3570.29
726.28	3453.56
726.467	3474.04
726.653	3422.84
726.84	3555.96
727.027	3617.4
727.213	3373.69
727.4	3521.14
727.586	3621.49
727.773	3553.91
727.959	3449.46
728.145	3564.15
728.332	3363.45
728.518	3388.02
728.705	3484.28
728.891	3396.21
729.077	3451.51
729.264	3340.92
729.45	3330.68
729.636	3414.65
729.823	3428.98
730.009	3474.04
730.195	3383.93
730.382	3551.86
730.568	3402.36
730.754	3453.56
730.94	3361.4
731.126	3453.56
731.313	3318.39
731.499	3310.2
731.685	3402.36
731.871	3369.59
732.057	3412.6
732.243	3345.02
732.429	3218.04
732.615	3400.31
732.801	3371.64
732.987	3443.32
733.173	3334.78
733.359	3371.64
733.545	3426.93
733.731	3256.95
733.917	3338.87
734.103	3394.17
734.289	3439.22
734.475	3310.2
734.661	3398.26
734.847	3316.34
735.033	3259
735.219	3365.5
735.404	3277.43
735.59	3353.21
735.776	3193.47
735.962	3302.01
736.148	3345.02
736.333	3439.22
736.519	3246.71
736.705	3213.95
736.89	3213.95
737.076	3201.66
737.262	3211.9
737.447	3230.33
737.633	3132.03
737.819	3132.03
738.004	3132.03
738.19	3252.86
738.375	3172.99
738.561	3195.51
738.747	3127.93
738.932	3127.93
739.118	3154.55
739.303	3050.11
739.489	3121.79
739.674	3029.63
739.859	3244.67
740.045	3183.23
740.23	3177.08
740.416	2957.95
740.601	3003
740.786	3146.36
740.972	3105.4
741.157	2988.67
741.342	2953.85
741.528	2996.86
741.713	3058.3
741.898	3029.63
742.084	2984.57
742.269	3005.05
742.454	2845.31
742.639	2910.85
742.824	2978.43
743.01	2900.61
743.195	2957.95
743.38	2830.98
743.565	2896.51
743.75	2916.99
743.935	2787.97
744.12	2998.91
744.305	2808.45
744.49	2828.93
744.675	2804.35
744.86	2732.67
745.045	2773.63
745.23	2800.26
745.415	2654.85
745.6	2790.02
745.785	2749.06
745.97	2724.48
746.155	2648.71
746.34	2640.51
746.525	2667.14
746.71	2620.03
746.895	2648.71
747.079	2615.94
747.264	2509.44
747.449	2626.18
747.634	2562.69
747.819	2611.84
748.003	2577.03
748.188	2538.12
748.373	2556.55
748.557	2568.84
748.742	2425.48
748.927	2511.49
749.111	2282.12
749.296	2355.85
749.481	2431.62
749.665	2282.12
749.85	2353.8
750.034	2351.75
750.219	2263.69
750.404	2359.94
750.588	2259.59
750.773	2183.82
750.957	2167.43
751.141	2280.07
751.326	2153.1
751.51	2077.32
751.695	2206.34
751.879	2120.33
752.064	2226.82
752.248	2216.58
752.432	2175.63
752.617	2118.28
752.801	2183.82
752.985	2142.86
753.17	2155.15
753.354	2054.8
753.538	2095.75
753.722	2062.99
753.907	2026.12
754.091	2001.55
754.275	2007.69
754.459	1907.34
754.643	1948.3
754.828	1899.15
755.012	2054.8
755.196	1913.49
755.38	1893.01
755.564	1841.81
755.748	1817.23
755.932	1940.11
756.116	1804.94
756.3	1931.92
756.484	1761.94
756.668	1903.25
756.852	1876.62
757.036	1829.52
757.22	1806.99
757.404	1829.52
757.588	1743.5
757.772	1741.46
757.956	1692.3
758.14	1720.98
758.323	1782.42
758.507	1659.54
758.691	1688.21
758.875	1661.59
759.059	1735.31
759.242	1682.07
759.426	1600.15
759.61	1626.77
759.794	1598.1
759.977	1657.49
760.161	1673.87
760.345	1626.77
760.528	1577.62
760.712	1518.23
760.895	1518.23
761.079	1483.41
761.263	1624.72
761.446	1510.04
761.63	1499.8
761.813	1538.71
761.997	1444.5
762.18	1411.73
762.364	1497.75
762.547	1360.53
762.731	1446.55
762.914	1534.61
763.098	1370.77
763.281	1442.45
763.464	1405.59
763.648	1430.16
763.831	1454.74
764.015	1370.77
764.198	1411.73
764.381	1467.03
764.564	1350.29
764.748	1274.52
764.931	1381.01
765.114	1462.93
765.297	1446.55
765.481	1301.14
765.664	1299.09
765.847	1374.87
766.03	1344.15
766.213	1262.23
766.397	1272.47
766.58	1270.42
766.763	1313.43
766.946	1309.33
767.129	1223.32
767.312	1313.43
767.495	1268.38
767.678	1282.71
767.861	1213.08
768.044	1292.95
768.227	1292.95
768.41	1249.94
768.593	1307.29
768.776	1305.24
768.959	1217.18
769.142	1299.09
769.324	1262.23
769.507	1206.94
769.69	1225.37
769.873	1194.65
770.056	1305.24
770.239	1172.12
770.421	1211.03
770.604	1254.04
770.787	1241.75
770.97	1159.83
771.152	1135.26
771.335	1131.16
771.518	1180.31
771.7	1170.07
771.883	1180.31
772.066	1127.07
772.248	1018.52
772.431	1063.58
772.613	1090.2
772.796	963.23
772.978	1034.91
773.161	1045.15
773.343	996
773.526	1004.19
773.708	993.95
773.891	983.71
774.073	1053.34
774.256	1012.38
774.438	1112.73
774.621	967.32
774.803	1030.81
774.985	952.99
775.168	967.32
775.35	996
775.532	961.18
775.715	922.27
775.897	916.12
776.079	930.46
776.261	934.56
776.444	891.55
776.626	920.22
776.808	883.36
776.99	807.58
777.173	920.22
777.355	918.17
777.537	881.31
777.719	840.35
777.901	889.5
778.083	856.73
778.265	856.73
778.447	799.39
778.629	889.5
778.811	883.36
778.993	766.62
779.175	844.45
779.357	844.45
779.539	823.97
779.721	756.38
779.903	830.11
780.085	815.77
780.267	807.58
780.449	707.23
780.631	737.95
780.812	774.81
780.994	805.53
781.176	707.23
781.358	699.04
781.54	717.47
781.721	774.81
781.903	688.8
782.085	615.07
782.267	658.08
782.448	676.51
782.63	750.24
782.812	791.2
782.993	682.66
783.175	713.38
783.357	717.47
783.538	643.74
783.72	629.41
783.901	656.03
784.083	699.04
784.264	666.27
784.446	582.31
784.627	668.32
784.809	705.18
784.99	582.31
785.172	580.26
785.353	602.79
785.535	672.42
785.716	553.63
785.897	635.55
786.079	557.73
786.26	647.84
786.441	520.87
786.623	502.44
786.804	572.07
786.985	543.39
787.167	602.79
787.348	484
787.529	565.92
787.71	469.67
787.891	527.01
788.073	586.4
788.254	549.54
788.435	565.92
788.616	580.26
788.797	502.44
788.978	481.96
789.159	475.81
789.34	522.91
789.522	527.01
789.703	533.15
789.884	598.69
790.065	549.54
790.246	518.82
790.427	387.75
790.607	570.02
790.788	518.82
790.969	475.81
791.15	475.81
791.331	447.14
791.512	424.61
791.693	465.57
791.874	492.2
792.054	516.77
792.235	488.1
792.416	445.09
792.597	395.94
792.778	391.84
792.958	434.85
793.139	430.76
793.32	441
793.5	389.8
793.681	397.99
793.862	443.04
794.042	402.08
794.223	357.03
794.404	426.66
794.584	357.03
794.765	486.05
794.945	305.83
795.126	465.57
795.306	410.28
795.487	406.18
795.667	404.13
795.848	408.23
796.028	434.85
796.209	406.18
796.389	379.56
796.57	357.03
796.75	365.22
796.93	416.42
797.111	299.69
797.291	338.6
797.471	402.08
797.652	371.37
797.832	352.93
798.012	395.94
798.192	352.93
798.373	297.64
798.553	281.25
798.733	400.04
798.913	303.78
799.093	383.65
799.274	346.79
799.454	361.13
799.634	391.84
799.814	334.5
799.994	307.88
800.174	373.41
800.354	330.41
800.534	324.26
800.714	350.89
800.894	299.69
801.074	299.69
801.254	244.39
801.434	361.13
801.614	336.55
801.794	217.77
801.974	885.41
802.154	328.36
802.334	305.83
802.514	318.12
802.693	406.18
802.873	295.59
803.053	361.13
803.233	266.92
803.413	279.21
803.592	271.01
803.772	258.73
803.952	283.3
804.131	322.21
804.311	307.88
804.491	281.25
804.67	291.49
804.85	307.88
805.03	340.65
805.209	283.3
805.389	363.17
805.568	301.73
805.748	207.53
805.928	275.11
806.107	246.44
806.287	320.17
806.466	309.93
806.646	221.86
806.825	311.97
807.004	225.96
807.184	281.25
807.363	293.54
807.543	248.49
807.722	166.57
807.901	264.87
808.081	248.49
808.26	209.58
808.439	236.2
808.619	252.58
808.798	242.34
808.977	213.67
809.156	328.36
809.336	262.82
809.515	236.2
809.694	252.58
809.873	185
810.052	230.06
810.231	330.41
810.411	262.82
810.59	238.25
810.769	203.43
810.948	256.68
811.127	211.62
811.306	213.67
811.485	219.82
811.664	225.96
811.843	240.3
812.022	258.73
812.201	213.67
812.38	195.24
812.559	256.68
812.737	197.29
812.916	139.94
813.095	166.57
813.274	164.52
813.453	234.15
813.632	232.1
813.811	223.91
813.989	166.57
814.168	170.66
814.347	223.91
814.526	160.42
814.704	279.21
814.883	236.2
815.062	199.34
815.24	185
815.419	133.8
815.598	209.58
815.776	213.67
815.955	160.42
816.133	152.23
816.312	189.1
816.49	199.34
816.669	109.23
816.847	160.42
817.026	250.53
817.204	152.23
817.383	117.42
817.561	127.66
817.74	248.49
817.918	191.14
818.097	152.23
818.275	127.66
818.453	236.2
818.632	174.76
818.81	197.29
818.988	107.18
819.167	168.62
819.345	215.72
819.523	119.46
819.701	123.56
819.879	199.34
820.058	182.95
820.236	139.94
820.414	127.66
820.592	84.65
820.77	113.32
820.948	131.75
821.127	137.9
821.305	139.94
821.483	107.18
821.661	195.24
821.839	105.13
822.017	131.75
822.195	139.94
822.373	217.77
822.551	127.66
822.729	193.19
822.907	207.53
823.085	199.34
823.262	207.53
823.44	121.51
823.618	141.99
823.796	199.34
823.974	111.27
824.152	78.51
824.329	207.53
824.507	144.04
824.685	189.1
824.863	131.75
825.04	199.34
825.218	189.1
825.396	158.38
825.574	238.25
825.751	141.99
825.929	125.61
826.107	129.7
826.284	199.34
826.462	170.66
826.639	82.6
826.817	170.66
826.994	139.94
827.172	103.08
827.349	141.99
827.527	135.85
827.704	154.28
827.882	107.18
828.059	119.46
828.237	105.13
828.414	174.76
828.591	58.03
828.769	168.62
828.946	70.31
829.124	168.62
829.301	199.34
829.478	96.94
829.655	180.9
829.833	135.85
830.01	74.41
830.187	150.18
830.364	111.27
830.542	107.18
830.719	94.89
830.896	129.7
831.073	84.65
831.25	125.61
831.427	109.23
831.604	29.35
831.782	127.66
831.959	105.13
832.136	117.42
832.313	178.86
832.49	158.38
832.667	158.38
832.844	37.55
833.021	58.03
833.198	123.56
833.374	86.7
833.551	101.03
833.728	201.38
833.905	156.33
834.082	60.07
834.259	66.22
834.436	119.46
834.612	92.84
834.789	109.23
834.966	-21.84
835.143	113.32
835.319	90.79
835.496	78.51
835.673	64.17
835.85	127.66
836.026	107.18
836.203	90.79
836.38	127.66
836.556	105.13
836.733	6.83
836.909	123.56
837.086	70.31
837.262	25.26
837.439	111.27
837.616	111.27
837.792	58.03
837.968	111.27
838.145	51.88
838.321	98.99
838.498	164.52
838.674	117.42
838.851	70.31
839.027	88.75
839.203	60.07
839.38	21.16
839.556	94.89
839.732	129.7
839.909	90.79
840.085	68.27
840.261	74.41
840.437	-9.56
840.614	94.89
840.79	164.52
840.966	123.56
841.142	70.31
841.318	49.83
841.494	55.98
841.671	115.37
841.847	37.55
842.023	76.46
842.199	109.23
842.375	29.35
842.551	111.27
842.727	66.22
842.903	160.42
843.079	29.35
843.255	84.65
843.431	82.6
843.607	105.13
843.783	-21.84
843.959	137.9
844.134	49.83
844.31	92.84
844.486	39.59
844.662	119.46
844.838	76.46
845.013	105.13
845.189	88.75
845.365	90.79
845.541	90.79
845.716	107.18
845.892	82.6
846.068	78.51
846.244	78.51
846.419	76.46
846.595	137.9
846.77	33.45
846.946	78.51
847.122	53.93
847.297	29.35
847.473	127.66
847.648	47.79
847.824	74.41
847.999	37.55
848.175	82.6
848.35	35.5
848.526	86.7
848.701	101.03
848.876	70.31
849.052	43.69
849.227	27.31
849.403	45.74
849.578	111.27
849.753	35.5
849.929	103.08
850.104	-17.75
850.279	23.21
850.454	109.23
850.63	37.55
850.805	80.55
850.98	25.26
851.155	37.55
851.33	62.12
851.505	51.88
851.681	74.41
851.856	60.07
852.031	21.16
852.206	-5.46
852.381	0.68
852.556	37.55
852.731	133.8
852.906	41.64
853.081	51.88
853.256	64.17
853.431	74.41
853.606	-19.8
853.781	41.64
853.956	62.12
854.131	58.03
854.305	66.22
854.48	60.07
854.655	33.45
854.83	47.79
855.005	66.22
855.18	72.36
855.354	29.35
855.529	92.84
855.704	-3.41
855.879	25.26
856.053	29.35
856.228	123.56
856.403	-27.99
856.577	72.36
856.752	-15.7
856.926	76.46
857.101	0.68
857.276	4.78
857.45	74.41
857.625	25.26
857.799	60.07
857.974	60.07
858.148	2.73
858.323	8.87
858.497	33.45
858.672	51.88
858.846	19.11
859.02	-3.41
859.195	33.45
859.369	25.26
859.543	39.59
859.718	-34.13
859.892	25.26
860.066	86.7
860.241	-60.76
860.415	-27.99
860.589	29.35
860.763	86.7
860.938	33.45
861.112	43.69
861.286	-27.99
861.46	17.07
861.634	12.97
861.808	72.36
861.982	29.35
862.157	66.22
862.331	8.87
862.505	37.55
862.679	12.97
862.853	-13.65
863.027	10.92
863.201	58.03
863.375	82.6
863.549	68.27
863.722	82.6
863.896	4.78
864.07	29.35
864.244	82.6
864.418	58.03
864.592	70.31
864.766	25.26
864.939	-19.8
865.113	-7.51
865.287	39.59
865.461	-3.41
865.634	58.03
865.808	27.31
865.982	35.5
866.156	45.74
866.329	6.83
866.503	-19.8
866.676	103.08
866.85	4.78
867.024	-27.99
867.197	66.22
867.371	-38.23
867.544	62.12
867.718	-46.42
867.891	107.18
868.065	45.74
868.238	60.07
868.412	19.11
868.585	41.64
868.759	6.83
868.932	8.87
869.105	-9.56
869.279	25.26
869.452	2.73
869.625	17.07
869.799	31.4
869.972	-25.94
870.145	45.74
870.319	53.93
870.492	60.07
870.665	-36.18
870.838	-15.7
871.011	-1.37
871.185	80.55
871.358	-56.66
871.531	0.68
871.704	-23.89
871.877	0.68
872.05	62.12
872.223	21.16
872.396	33.45
872.569	64.17
872.742	-44.37
872.915	-73.04
873.088	2.73
873.261	-21.84
873.434	2.73
873.607	68.27
873.78	33.45
873.953	-36.18
874.126	-3.41
874.299	23.21
874.471	19.11
874.644	-19.8
874.817	-27.99
874.99	156.33
875.163	66.22
875.335	64.17
875.508	23.21
875.681	37.55
875.853	10.92
876.026	66.22
876.199	21.16
876.371	6.83
876.544	82.6
876.717	35.5
876.889	-21.84
877.062	25.26
877.234	-68.95
877.407	-27.99
877.579	-21.84
877.752	107.18
877.924	-9.56
878.097	58.03
878.269	49.83
878.442	29.35
878.614	21.16
878.786	45.74
878.959	10.92
879.131	-15.7
879.303	-36.18
879.476	51.88
879.648	-7.51
879.82	-9.56
879.993	-19.8
880.165	62.12
880.337	45.74
880.509	-36.18
880.681	33.45
880.854	21.16
881.026	45.74
881.198	19.11
881.37	-3.41
881.542	21.16
881.714	62.12
881.886	2.73
882.058	-5.46
882.23	-9.56
882.402	6.83
882.574	-68.95
882.746	55.98
882.918	107.18
883.09	2.73
883.262	-3.41
883.434	2.73
883.606	12.97
883.778	-7.51
883.95	6.83
884.122	-73.04
884.293	49.83
884.465	8.87
884.637	0.68
884.809	-44.37
884.98	53.93
885.152	12.97
885.324	-15.7
885.496	-3.41
885.667	41.64
885.839	49.83
886.011	80.55
886.182	-3.41
886.354	-7.51
886.525	8.87
886.697	62.12
886.869	-15.7
887.04	-62.8
887.212	64.17
887.383	-13.65
887.555	2.73
887.726	-5.46
887.897	25.26
888.069	-7.51
888.24	-27.99
888.412	-3.41
888.583	-3.41
888.754	31.4
888.926	0.68
889.097	39.59
889.268	-9.56
889.44	-36.18
889.611	-46.42
889.782	45.74
889.953	-13.65
890.125	23.21
890.296	29.35
890.467	94.89
890.638	21.16
890.809	12.97
890.98	58.03
891.151	4.78
891.323	-9.56
891.494	-21.84
891.665	4.78
891.836	23.21
892.007	29.35
892.178	29.35
892.349	25.26
892.52	35.5
892.691	-7.51
892.862	-1.37
893.032	-44.37
893.203	-1.37
893.374	-11.61
893.545	10.92
893.716	-13.65
893.887	60.07
894.057	10.92
894.228	-9.56
894.399	43.69
894.57	-17.75
894.74	4.78
894.911	-38.23
895.082	-23.89
895.253	41.64
895.423	45.74
895.594	43.69
895.764	35.5
895.935	12.97
896.106	-42.32
896.276	25.26
896.447	-11.61
896.617	2.73
896.788	-19.8
896.958	62.12
897.129	37.55
897.299	-11.61
897.47	-3.41
897.64	29.35
897.81	-11.61
897.981	-21.84
898.151	-7.51
898.322	35.5
898.492	39.59
898.662	-64.85
898.832	-27.99
899.003	45.74
899.173	53.93
899.343	-9.56
899.513	-71
