Data from USB4F104151__203__10-29-35-878.txt Node

Date: Wed Mar 12 10:29:35 EDT 2025
User: louis
Spectrometer: USB4F10415
Trigger mode: 4
Integration Time (sec): 3.000000E-2
Scans to average: 1
Electric dark correction enabled: true
Nonlinearity correction enabled: false
Boxcar width: 0
XAxis mode: Wavelengths
Number of Pixels in Spectrum: 3648
>>>>>Begin Spectral Data<<<<<
178.204	-136.02
178.424	-136.02
178.644	-136.02
178.864	-103.25
179.084	-172.88
179.304	11.43
179.524	-2.9
179.744	-56.15
179.964	31.91
180.184	-29.52
180.404	3.24
180.624	17.58
180.844	-13.14
181.064	9.39
181.283	29.87
181.503	5.29
181.723	-7
181.943	-43.86
182.163	132.26
182.383	27.82
182.602	48.3
182.822	-47.96
183.042	70.83
183.262	-41.81
183.482	76.97
183.701	-2.9
183.921	60.59
184.141	-19.29
184.361	-43.86
184.58	52.39
184.8	29.87
185.02	-31.57
185.239	70.83
185.459	-15.19
185.679	9.39
185.898	-45.91
186.118	54.44
186.338	38.06
186.557	46.25
186.777	-47.96
186.997	5.29
187.216	-29.52
187.436	-11.09
187.655	21.67
187.875	56.49
188.095	-31.57
188.314	29.87
188.534	79.02
188.753	-15.19
188.973	3.24
189.192	103.59
189.412	52.39
189.631	9.39
189.851	13.48
190.07	97.45
190.29	27.82
190.509	-2.9
190.729	-47.96
190.948	95.4
191.168	93.35
191.387	91.31
191.607	11.43
191.826	3.24
192.045	-29.52
192.265	50.35
192.484	54.44
192.704	-39.76
192.923	-21.33
193.142	-2.9
193.362	3.24
193.581	68.78
193.8	46.25
194.02	-72.53
194.239	29.87
194.458	27.82
194.678	-15.19
194.897	-21.33
195.116	27.82
195.335	-43.86
195.555	-45.91
195.774	-17.24
195.993	122.02
196.212	-25.43
196.432	-58.2
196.651	-17.24
196.87	-103.25
197.089	25.77
197.308	-33.62
197.528	-19.29
197.747	-11.09
197.966	-37.72
198.185	3.24
198.404	13.48
198.623	40.11
198.842	66.73
199.062	40.11
199.281	44.2
199.5	58.54
199.719	-2.9
199.938	27.82
200.157	93.35
200.376	-43.86
200.595	38.06
200.814	11.43
201.033	-86.87
201.252	68.78
201.471	21.67
201.69	1.19
201.909	21.67
202.128	-45.91
202.347	-19.29
202.566	36.01
202.785	5.29
203.004	-15.19
203.223	11.43
203.442	21.67
203.661	60.59
203.879	-15.19
204.098	-13.14
204.317	29.87
204.536	72.87
204.755	48.3
204.974	15.53
205.193	-21.33
205.411	119.98
205.63	38.06
205.849	21.67
206.068	-9.05
206.287	19.63
206.505	-21.33
206.724	-54.1
206.943	-11.09
207.162	-4.95
207.381	95.4
207.599	-7
207.818	-31.57
208.037	-29.52
208.255	29.87
208.474	13.48
208.693	11.43
208.911	83.11
209.13	60.59
209.349	-47.96
209.567	74.92
209.786	54.44
210.005	76.97
210.223	9.39
210.442	-15.19
210.661	-45.91
210.879	29.87
211.098	-25.43
211.316	-4.95
211.535	64.68
211.753	-15.19
211.972	21.67
212.191	-17.24
212.409	9.39
212.628	-19.29
212.846	46.25
213.065	-37.72
213.283	38.06
213.502	-11.09
213.72	54.44
213.938	11.43
214.157	48.3
214.375	-19.29
214.594	19.63
214.812	29.87
215.031	15.53
215.249	-9.05
215.467	36.01
215.686	19.63
215.904	62.63
216.122	23.72
216.341	-56.15
216.559	13.48
216.778	146.6
216.996	5.29
217.214	-19.29
217.432	-27.48
217.651	-29.52
217.869	27.82
218.087	29.87
218.306	58.54
218.524	29.87
218.742	-13.14
218.96	72.87
219.179	29.87
219.397	25.77
219.615	52.39
219.833	44.2
220.051	-76.63
220.27	-64.34
220.488	13.48
220.706	27.82
220.924	-0.85
221.142	-0.85
221.36	19.63
221.578	21.67
221.796	-19.29
222.015	-13.14
222.233	87.21
222.451	64.68
222.669	21.67
222.887	29.87
223.105	9.39
223.323	38.06
223.541	19.63
223.759	25.77
223.977	38.06
224.195	42.15
224.413	54.44
224.631	21.67
224.849	-15.19
225.067	62.63
225.285	44.2
225.503	29.87
225.721	-23.38
225.939	60.59
226.157	17.58
226.375	99.5
226.592	-56.15
226.81	27.82
227.028	-23.38
227.246	19.63
227.464	-27.48
227.682	-35.67
227.9	107.69
228.117	91.31
228.335	36.01
228.553	62.63
228.771	5.29
228.989	-0.85
229.206	44.2
229.424	-33.62
229.642	11.43
229.86	19.63
230.077	-0.85
230.295	19.63
230.513	113.83
230.731	113.83
230.948	25.77
231.166	58.54
231.384	21.67
231.601	85.16
231.819	15.53
232.037	-62.29
232.254	15.53
232.472	21.67
232.689	-29.52
232.907	-23.38
233.125	-2.9
233.342	68.78
233.56	15.53
233.777	-21.33
233.995	9.39
234.213	7.34
234.43	72.87
234.648	-2.9
234.865	66.73
235.083	19.63
235.3	50.35
235.518	13.48
235.735	76.97
235.953	74.92
236.17	-2.9
236.388	64.68
236.605	-41.81
236.822	103.59
237.04	68.78
237.257	13.48
237.475	70.83
237.692	54.44
237.909	17.58
238.127	44.2
238.344	21.67
238.562	-4.95
238.779	-64.34
238.996	36.01
239.214	29.87
239.431	40.11
239.648	124.07
239.865	42.15
240.083	-80.72
240.3	-7
240.517	-23.38
240.735	-52.05
240.952	85.16
241.169	46.25
241.386	-29.52
241.603	-15.19
241.821	-39.76
242.038	33.96
242.255	-60.24
242.472	11.43
242.689	128.17
242.907	13.48
243.124	70.83
243.341	33.96
243.558	85.16
243.775	7.34
243.992	-35.67
244.209	44.2
244.426	99.5
244.643	48.3
244.86	27.82
245.078	25.77
245.295	44.2
245.512	91.31
245.729	-2.9
245.946	50.35
246.163	-54.1
246.38	56.49
246.597	15.53
246.814	-0.85
247.031	70.83
247.248	-13.14
247.464	76.97
247.681	50.35
247.898	54.44
248.115	9.39
248.332	52.39
248.549	27.82
248.766	128.17
248.983	5.29
249.2	3.24
249.417	11.43
249.633	19.63
249.85	9.39
250.067	97.45
250.284	-58.2
250.501	83.11
250.717	33.96
250.934	-41.81
251.151	-25.43
251.368	-41.81
251.585	66.73
251.801	-4.95
252.018	29.87
252.235	-2.9
252.451	5.29
252.668	38.06
252.885	15.53
253.102	27.82
253.318	-27.48
253.535	-35.67
253.752	3.24
253.968	36.01
254.185	44.2
254.401	52.39
254.618	3.24
254.835	27.82
255.051	72.87
255.268	76.97
255.484	-13.14
255.701	107.69
255.917	44.2
256.134	3.24
256.351	-27.48
256.567	54.44
256.784	70.83
257	27.82
257.217	79.02
257.433	21.67
257.65	-13.14
257.866	-2.9
258.082	52.39
258.299	15.53
258.515	-43.86
258.732	-25.43
258.948	50.35
259.165	-19.29
259.381	5.29
259.597	42.15
259.814	38.06
260.03	-52.05
260.246	38.06
260.463	27.82
260.679	91.31
260.895	54.44
261.112	60.59
261.328	-29.52
261.544	-35.67
261.761	21.67
261.977	13.48
262.193	17.58
262.409	42.15
262.626	117.93
262.842	23.72
263.058	13.48
263.274	72.87
263.49	9.39
263.707	19.63
263.923	-39.76
264.139	-4.95
264.355	-13.14
264.571	66.73
264.787	5.29
265.004	44.2
265.22	38.06
265.436	-4.95
265.652	-33.62
265.868	21.67
266.084	13.48
266.3	9.39
266.516	-17.24
266.732	68.78
266.948	-15.19
267.164	-43.86
267.38	68.78
267.596	13.48
267.812	9.39
268.028	19.63
268.244	31.91
268.46	21.67
268.676	50.35
268.892	58.54
269.108	3.24
269.324	7.34
269.54	19.63
269.756	46.25
269.972	-4.95
270.188	-11.09
270.403	9.39
270.619	-19.29
270.835	9.39
271.051	-33.62
271.267	-19.29
271.483	48.3
271.698	62.63
271.914	17.58
272.13	-19.29
272.346	50.35
272.562	-15.19
272.777	122.02
272.993	33.96
273.209	-7
273.425	95.4
273.64	11.43
273.856	33.96
274.072	66.73
274.287	17.58
274.503	-13.14
274.719	-13.14
274.934	29.87
275.15	5.29
275.366	29.87
275.581	-15.19
275.797	-45.91
276.012	-23.38
276.228	66.73
276.444	-41.81
276.659	-15.19
276.875	-15.19
277.09	5.29
277.306	9.39
277.521	83.11
277.737	25.77
277.952	83.11
278.168	29.87
278.383	15.53
278.599	-19.29
278.814	5.29
279.03	44.2
279.245	62.63
279.461	-25.43
279.676	97.45
279.892	-23.38
280.107	50.35
280.322	1.19
280.538	38.06
280.753	27.82
280.969	33.96
281.184	29.87
281.399	46.25
281.615	-35.67
281.83	52.39
282.045	50.35
282.26	42.15
282.476	31.91
282.691	21.67
282.906	54.44
283.122	23.72
283.337	13.48
283.552	38.06
283.767	19.63
283.983	70.83
284.198	11.43
284.413	60.59
284.628	-23.38
284.843	58.54
285.058	-27.48
285.274	44.2
285.489	58.54
285.704	74.92
285.919	13.48
286.134	85.16
286.349	5.29
286.564	-19.29
286.779	11.43
286.995	42.15
287.21	-35.67
287.425	44.2
287.64	-15.19
287.855	27.82
288.07	9.39
288.285	109.74
288.5	-15.19
288.715	107.69
288.93	-21.33
289.145	-35.67
289.36	60.59
289.575	1.19
289.79	3.24
290.004	85.16
290.219	-50
290.434	62.63
290.649	-2.9
290.864	23.72
291.079	85.16
291.294	64.68
291.509	58.54
291.724	-4.95
291.938	15.53
292.153	72.87
292.368	72.87
292.583	-11.09
292.798	5.29
293.012	-21.33
293.227	-17.24
293.442	-4.95
293.657	-7
293.871	23.72
294.086	46.25
294.301	19.63
294.516	29.87
294.73	33.96
294.945	21.67
295.16	40.11
295.374	-31.57
295.589	70.83
295.804	-23.38
296.018	62.63
296.233	-27.48
296.447	15.53
296.662	56.49
296.877	-4.95
297.091	44.2
297.306	70.83
297.52	-2.9
297.735	74.92
297.949	-2.9
298.164	76.97
298.378	13.48
298.593	-7
298.807	-37.72
299.022	15.53
299.236	36.01
299.451	25.77
299.665	-15.19
299.88	91.31
300.094	23.72
300.309	5.29
300.523	-11.09
300.737	29.87
300.952	-4.95
301.166	19.63
301.381	50.35
301.595	-7
301.809	9.39
302.024	27.82
302.238	-19.29
302.452	31.91
302.667	81.07
302.881	76.97
303.095	111.78
303.309	87.21
303.524	21.67
303.738	36.01
303.952	-60.24
304.166	-4.95
304.381	-35.67
304.595	76.97
304.809	7.34
305.023	60.59
305.237	9.39
305.452	95.4
305.666	9.39
305.88	21.67
306.094	15.53
306.308	40.11
306.522	85.16
306.736	124.07
306.95	64.68
307.164	13.48
307.379	38.06
307.593	15.53
307.807	56.49
308.021	89.26
308.235	113.83
308.449	46.25
308.663	27.82
308.877	42.15
309.091	62.63
309.305	117.93
309.519	-7
309.733	76.97
309.947	-35.67
310.161	-7
310.374	36.01
310.588	101.55
310.802	7.34
311.016	44.2
311.23	5.29
311.444	-41.81
311.658	44.2
311.872	-23.38
312.085	44.2
312.299	64.68
312.513	29.87
312.727	13.48
312.941	33.96
313.154	9.39
313.368	50.35
313.582	91.31
313.796	1.19
314.009	85.16
314.223	21.67
314.437	44.2
314.651	44.2
314.864	7.34
315.078	-29.52
315.292	-29.52
315.505	-11.09
315.719	-7
315.933	-7
316.146	9.39
316.36	97.45
316.573	36.01
316.787	-35.67
317.001	-15.19
317.214	17.58
317.428	48.3
317.641	113.83
317.855	-27.48
318.068	68.78
318.282	13.48
318.495	87.21
318.709	46.25
318.922	27.82
319.136	87.21
319.349	132.26
319.563	42.15
319.776	9.39
319.99	9.39
320.203	42.15
320.417	29.87
320.63	31.91
320.843	83.11
321.057	-2.9
321.27	50.35
321.483	29.87
321.697	29.87
321.91	36.01
322.124	103.59
322.337	93.35
322.55	13.48
322.763	-0.85
322.977	36.01
323.19	-0.85
323.403	54.44
323.617	38.06
323.83	21.67
324.043	48.3
324.256	25.77
324.469	-47.96
324.683	87.21
324.896	40.11
325.109	91.31
325.322	29.87
325.535	66.73
325.748	5.29
325.962	79.02
326.175	38.06
326.388	66.73
326.601	17.58
326.814	13.48
327.027	33.96
327.24	-0.85
327.453	13.48
327.666	21.67
327.879	11.43
328.092	171.18
328.305	25.77
328.518	25.77
328.731	54.44
328.944	44.2
329.157	1.19
329.37	70.83
329.583	91.31
329.796	126.12
330.009	-62.29
330.222	19.63
330.435	72.87
330.648	54.44
330.861	38.06
331.073	36.01
331.286	81.07
331.499	-21.33
331.712	5.29
331.925	54.44
332.138	46.25
332.35	95.4
332.563	50.35
332.776	48.3
332.989	-7
333.202	5.29
333.414	-19.29
333.627	23.72
333.84	33.96
334.053	68.78
334.265	17.58
334.478	1.19
334.691	-35.67
334.903	46.25
335.116	97.45
335.329	-27.48
335.541	66.73
335.754	17.58
335.966	1.19
336.179	33.96
336.392	-27.48
336.604	50.35
336.817	48.3
337.029	81.07
337.242	40.11
337.454	31.91
337.667	52.39
337.88	21.67
338.092	38.06
338.305	3.24
338.517	46.25
338.729	64.68
338.942	29.87
339.154	-60.24
339.367	-4.95
339.579	76.97
339.792	-2.9
340.004	119.98
340.217	42.15
340.429	60.59
340.641	107.69
340.854	17.58
341.066	46.25
341.278	119.98
341.491	93.35
341.703	50.35
341.915	-47.96
342.128	62.63
342.34	9.39
342.552	36.01
342.764	9.39
342.977	54.44
343.189	9.39
343.401	13.48
343.613	11.43
343.826	-7
344.038	72.87
344.25	21.67
344.462	5.29
344.674	58.54
344.886	-15.19
345.099	58.54
345.311	33.96
345.523	29.87
345.735	72.87
345.947	-45.91
346.159	19.63
346.371	54.44
346.583	66.73
346.795	95.4
347.007	19.63
347.219	103.59
347.431	36.01
347.643	109.74
347.855	9.39
348.067	52.39
348.279	21.67
348.491	36.01
348.703	64.68
348.915	46.25
349.127	13.48
349.339	91.31
349.551	21.67
349.763	27.82
349.975	5.29
350.187	23.72
350.399	23.72
350.61	107.69
350.822	36.01
351.034	3.24
351.246	42.15
351.458	11.43
351.669	93.35
351.881	70.83
352.093	72.87
352.305	95.4
352.517	7.34
352.728	101.55
352.94	-31.57
353.152	58.54
353.363	15.53
353.575	48.3
353.787	27.82
353.999	142.5
354.21	101.55
354.422	29.87
354.633	25.77
354.845	60.59
355.057	38.06
355.268	15.53
355.48	38.06
355.692	81.07
355.903	72.87
356.115	48.3
356.326	19.63
356.538	60.59
356.749	38.06
356.961	40.11
357.172	27.82
357.384	62.63
357.595	70.83
357.807	5.29
358.018	42.15
358.23	38.06
358.441	38.06
358.653	29.87
358.864	21.67
359.075	48.3
359.287	5.29
359.498	105.64
359.709	76.97
359.921	74.92
360.132	-7
360.344	79.02
360.555	11.43
360.766	11.43
360.977	3.24
361.189	105.64
361.4	-27.48
361.611	66.73
361.823	83.11
362.034	13.48
362.245	5.29
362.456	70.83
362.667	40.11
362.879	81.07
363.09	66.73
363.301	54.44
363.512	62.63
363.723	19.63
363.935	111.78
364.146	36.01
364.357	-19.29
364.568	87.21
364.779	-13.14
364.99	68.78
365.201	60.59
365.412	113.83
365.623	38.06
365.834	91.31
366.045	36.01
366.256	42.15
366.467	95.4
366.678	58.54
366.889	29.87
367.1	19.63
367.311	87.21
367.522	21.67
367.733	85.16
367.944	109.74
368.155	54.44
368.366	23.72
368.577	-17.24
368.788	83.11
368.999	29.87
369.209	74.92
369.42	74.92
369.631	54.44
369.842	23.72
370.053	68.78
370.264	97.45
370.474	29.87
370.685	7.34
370.896	29.87
371.107	52.39
371.317	-4.95
371.528	81.07
371.739	115.88
371.95	-25.43
372.16	50.35
372.371	62.63
372.582	72.87
372.792	58.54
373.003	56.49
373.214	-17.24
373.424	81.07
373.635	-7
373.846	52.39
374.056	50.35
374.267	-15.19
374.477	66.73
374.688	70.83
374.898	42.15
375.109	11.43
375.319	46.25
375.53	40.11
375.74	3.24
375.951	62.63
376.161	38.06
376.372	48.3
376.582	62.63
376.793	1.19
377.003	60.59
377.214	9.39
377.424	50.35
377.635	62.63
377.845	23.72
378.055	9.39
378.266	99.5
378.476	70.83
378.686	74.92
378.897	124.07
379.107	60.59
379.317	66.73
379.528	31.91
379.738	25.77
379.948	5.29
380.158	64.68
380.369	142.5
380.579	50.35
380.789	-33.62
380.999	83.11
381.21	105.64
381.42	42.15
381.63	50.35
381.84	119.98
382.05	89.26
382.261	54.44
382.471	99.5
382.681	29.87
382.891	38.06
383.101	38.06
383.311	5.29
383.521	46.25
383.731	62.63
383.941	87.21
384.151	105.64
384.361	-23.38
384.571	97.45
384.781	64.68
384.991	46.25
385.201	128.17
385.411	70.83
385.621	87.21
385.831	48.3
386.041	33.96
386.251	21.67
386.461	9.39
386.671	50.35
386.881	95.4
387.091	64.68
387.301	38.06
387.511	56.49
387.72	119.98
387.93	138.41
388.14	48.3
388.35	33.96
388.56	93.35
388.769	156.84
388.979	68.78
389.189	60.59
389.399	87.21
389.609	29.87
389.818	68.78
390.028	58.54
390.238	38.06
390.447	-37.72
390.657	79.02
390.867	31.91
391.076	56.49
391.286	40.11
391.496	79.02
391.705	113.83
391.915	87.21
392.125	79.02
392.334	101.55
392.544	79.02
392.753	58.54
392.963	140.46
393.172	93.35
393.382	99.5
393.591	148.65
393.801	66.73
394.01	115.88
394.22	33.96
394.429	29.87
394.639	111.78
394.848	64.68
395.058	99.5
395.267	95.4
395.477	70.83
395.686	113.83
395.895	228.52
396.105	181.42
396.314	87.21
396.524	138.41
396.733	56.49
396.942	177.32
397.152	128.17
397.361	19.63
397.57	126.12
397.78	42.15
397.989	101.55
398.198	117.93
398.407	48.3
398.617	56.49
398.826	111.78
399.035	124.07
399.244	79.02
399.453	101.55
399.663	140.46
399.872	150.7
400.081	128.17
400.29	132.26
400.499	70.83
400.708	144.55
400.917	140.46
401.127	107.69
401.336	33.96
401.545	115.88
401.754	134.31
401.963	146.6
402.172	70.83
402.381	83.11
402.59	165.03
402.799	126.12
403.008	156.84
403.217	126.12
403.426	122.02
403.635	87.21
403.844	203.94
404.053	85.16
404.262	175.27
404.471	236.71
404.68	150.7
404.888	183.46
405.097	150.7
405.306	177.32
405.515	205.99
405.724	138.41
405.933	201.9
406.142	224.42
406.35	236.71
406.559	193.7
406.768	191.66
406.977	267.43
407.185	279.72
407.394	304.29
407.603	238.76
407.812	238.76
408.02	324.77
408.229	353.45
408.438	308.39
408.646	316.58
408.855	308.39
409.064	289.96
409.272	314.53
409.481	255.14
409.69	341.16
409.898	335.01
410.107	355.49
410.315	332.97
410.524	480.42
410.733	418.98
410.941	328.87
411.15	474.28
411.358	455.84
411.567	562.34
411.775	533.67
411.984	464.04
412.192	480.42
412.401	576.67
412.609	543.91
412.818	611.49
413.026	586.91
413.234	586.91
413.443	564.39
413.651	636.06
413.86	677.02
414.068	799.9
414.276	767.13
414.485	699.55
414.693	826.53
414.901	926.88
415.11	816.29
415.318	892.06
415.526	910.49
415.734	941.21
415.943	935.07
416.151	1051.8
416.359	1027.23
416.567	976.03
416.776	1115.29
416.984	1203.35
417.192	1277.08
417.4	1340.57
417.608	1139.87
417.817	1172.63
418.025	1315.99
418.233	1418.39
418.441	1348.76
418.649	1475.73
418.857	1602.71
419.065	1541.27
419.273	1559.7
419.481	1688.72
419.689	1735.82
419.897	1928.33
420.105	1844.37
420.313	1995.92
420.521	1930.38
420.729	1954.96
420.937	2122.89
421.145	2143.37
421.353	2256.01
421.561	2313.35
421.769	2460.81
421.977	2608.26
422.185	2509.96
422.393	2665.6
422.601	2856.06
422.809	2929.79
423.017	2817.15
423.224	2995.32
423.432	3083.39
423.64	3048.57
423.848	3249.27
424.056	3271.8
424.263	3544.18
424.471	3568.76
424.679	3552.37
424.887	3863.66
425.094	4013.17
425.302	4023.41
425.51	4095.08
425.718	4224.11
425.925	4269.16
426.133	4437.09
426.341	4705.38
426.548	4848.74
426.756	5022.81
426.964	4973.66
427.171	5108.83
427.379	5307.48
427.586	5397.59
427.794	5540.95
428.001	5829.71
428.209	6026.32
428.417	5983.31
428.624	6413.38
428.832	6583.37
429.039	6343.75
429.247	6454.34
429.454	7085.12
429.662	7560.25
429.869	6917.19
430.076	7558.2
430.284	7355.45
430.491	7588.92
430.699	7920.69
430.906	7963.7
431.114	8053.81
431.321	8545.32
431.528	8721.45
431.736	9296.92
431.943	9673.75
432.15	9417.75
432.358	9430.04
432.565	9786.39
432.772	9864.21
432.979	10466.31
433.187	10892.29
433.394	10660.87
433.601	11359.23
433.808	11443.2
434.016	11187.2
434.223	11803.64
434.43	12663.79
434.637	12385.26
434.844	13134.82
435.052	13415.39
435.259	13208.55
435.466	13308.9
435.673	13274.08
435.88	14144.47
436.087	15117.25
436.294	14814.15
436.501	14420.94
436.708	14760.91
436.915	15174.6
437.122	15827.9
437.329	16006.07
437.537	16104.37
437.743	16608.17
437.95	16219.06
438.157	17292.19
438.364	17947.54
438.571	17906.59
438.778	18105.24
438.985	19471.23
439.192	18756.49
439.399	19342.21
439.606	19108.74
439.813	20249.46
440.02	21261.16
440.227	21146.47
440.433	20556.66
440.64	21582.69
440.847	21459.81
441.054	22176.6
441.261	23395.14
441.467	23204.68
441.674	23747.39
441.881	24369.97
442.088	24144.7
442.294	23882.56
442.501	24744.75
442.708	25320.23
442.914	26096.41
443.121	27273.99
443.328	26714.9
443.534	28207.87
443.741	27575.05
443.948	26934.03
444.154	29291.24
444.361	28840.69
444.568	29012.72
444.774	28887.79
444.981	29389.55
445.187	30350.04
445.394	31533.77
445.6	31347.4
445.807	34192.03
446.013	32729.78
446.22	33215.15
446.426	34527.9
446.633	34718.36
446.839	35707.53
447.046	34966.17
447.252	36381.31
447.459	36575.87
447.665	36258.43
447.871	37984.87
448.078	39180.88
448.284	37405.3
448.491	38165.09
448.697	39871.05
448.903	40794.68
449.11	40262.21
449.316	40182.34
449.522	40397.38
449.728	41364.02
449.935	41728.56
450.141	41845.29
450.347	42768.93
450.553	41220.66
450.76	41871.92
450.966	43092.51
451.172	42355.24
451.378	43538.96
451.584	42869.28
451.791	43735.57
451.997	43489.81
452.203	44501.51
452.409	44274.18
452.615	44100.11
452.821	42486.31
453.027	42035.75
453.233	44284.42
453.44	42361.38
453.646	43043.35
453.852	42699.3
454.058	43745.81
454.264	42164.78
454.47	42934.81
454.676	41804.33
454.882	43366.93
455.088	39813.71
455.294	40368.71
455.5	40663.61
455.705	41785.9
455.911	39600.72
456.117	38906.46
456.323	38199.91
456.529	36342.4
456.735	37802.6
456.941	36981.37
457.147	35990.15
457.352	35203.73
457.558	34755.22
457.764	34654.87
457.97	34273.95
458.176	33764.01
458.381	33356.46
458.587	31746.76
458.793	31566.54
458.999	30317.28
459.204	32469.69
459.41	31548.11
459.616	29348.59
459.821	29186.8
460.027	29299.44
460.233	28877.55
460.438	26997.52
460.644	27669.25
460.85	26096.41
461.055	26073.88
461.261	26082.08
461.466	23933.76
461.672	23348.04
461.878	24951.6
462.083	23333.7
462.289	23026.51
462.494	22604.63
462.7	21926.75
462.905	21121.9
463.111	21947.23
463.316	21920.6
463.522	21406.56
463.727	21732.19
463.932	21396.32
464.138	21355.36
464.343	21425
464.549	20601.71
464.754	21449.57
464.959	21177.19
465.165	21076.84
465.37	20312.95
465.575	19784.57
465.781	20333.43
465.986	20552.56
466.191	19889.02
466.397	19678.08
466.602	18281.36
466.807	19266.44
467.012	19213.19
467.218	19084.17
467.423	19037.06
467.628	18822.03
467.833	19995.51
468.038	19139.46
468.244	18561.94
468.449	19506.05
468.654	18613.13
468.859	18379.67
469.064	18627.47
469.269	17683.36
469.474	17845.15
469.679	18170.77
469.885	17818.52
470.09	18125.72
470.295	17748.89
470.5	17163.17
470.705	17341.35
470.91	17304.48
471.115	16817.07
471.32	17345.44
471.525	17068.97
471.73	16681.9
471.935	16694.19
472.139	16255.92
472.344	16409.52
472.549	16090.04
472.754	15926.2
472.959	15707.07
473.164	15274.95
473.369	15320
473.574	15754.17
473.778	15537.09
473.983	15307.71
474.188	15512.51
474.393	14832.58
474.598	14654.41
474.802	14578.64
475.007	14590.92
475.212	14398.41
475.417	14080.98
475.621	13929.43
475.826	13960.15
476.031	13712.35
476.235	13534.17
476.44	13679.58
476.645	13583.32
476.849	13507.55
477.054	13286.37
477.259	13181.92
477.463	13362.14
477.668	12880.87
477.872	13085.67
478.077	12784.62
478.282	12432.36
478.486	12260.34
478.691	12295.15
478.895	12176.37
479.1	12114.93
479.304	12256.24
479.509	11779.06
479.713	11953.14
479.918	11854.84
480.122	11797.49
480.326	11721.72
480.531	11922.42
480.735	11701.24
480.94	11496.44
481.144	11828.21
481.348	11340.8
481.553	11594.75
481.757	11281.41
481.961	11529.21
482.166	11609.08
482.37	11508.73
482.574	11240.45
482.778	11398.14
482.983	11308.03
483.187	11543.55
483.391	11611.13
483.595	11445.24
483.8	11166.72
484.004	11330.56
484.208	11414.52
484.412	11160.58
484.616	11422.72
484.821	11445.24
485.025	11133.95
485.229	11396.09
485.433	11332.61
485.637	11592.7
485.841	11211.78
486.045	11176.96
486.249	11426.81
486.453	11283.45
486.657	11252.73
486.861	11291.65
487.065	11275.26
487.269	11387.9
487.473	11279.36
487.677	11267.07
487.881	11496.44
488.085	11277.31
488.289	11561.98
488.493	11205.63
488.697	11662.33
488.901	11285.5
489.105	11430.91
489.309	11568.12
489.512	11482.11
489.716	11711.48
489.92	11725.82
490.124	11613.18
490.328	11947
490.531	11588.6
490.735	11826.17
490.939	11916.28
491.143	11789.3
491.346	11725.82
491.55	11871.22
491.754	11840.5
491.958	12071.92
492.161	12108.79
492.365	12014.58
492.569	11953.14
492.772	12186.61
492.976	12178.42
493.18	12295.15
493.383	12561.39
493.587	12413.93
493.79	12450.8
493.994	12358.64
494.197	12786.66
494.401	12598.25
494.605	12749.8
494.808	12993.51
495.012	12897.25
495.215	13016.04
495.419	13073.38
495.622	13192.16
495.825	13407.2
496.029	13202.4
496.232	13403.1
496.436	13626.33
496.639	13806.55
496.843	13755.35
497.046	14093.27
497.249	14326.74
497.453	14109.65
497.656	14236.63
497.859	14678.99
498.063	14490.57
498.266	14934.98
498.469	14795.72
498.673	15010.76
498.876	15535.04
499.079	15453.12
499.282	15530.94
499.485	15825.85
499.689	15492.03
499.892	16020.41
500.095	16245.68
500.298	16642.99
500.501	16548.78
500.705	17064.87
500.908	16939.94
501.111	17445.79
501.314	17251.24
501.517	17505.18
501.72	17785.76
501.923	17570.72
502.126	18340.75
502.329	18449.3
502.532	18420.63
502.735	18535.31
502.938	19037.06
503.141	19078.02
503.344	19340.16
503.547	19260.29
503.75	19622.78
503.953	19975.03
504.156	19854.2
504.359	20265.85
504.562	20337.52
504.765	20689.77
504.968	20765.55
505.17	21201.77
505.373	21394.28
505.576	21543.78
505.779	21656.42
505.982	22131.54
506.185	22373.21
506.387	22485.84
506.59	23102.28
506.793	23071.56
506.996	23178.06
507.198	23638.85
507.401	23393.09
507.604	24228.66
507.807	24372.02
508.009	24707.89
508.212	24384.31
508.415	24779.57
508.617	25230.12
508.82	24996.65
509.022	25330.47
509.225	25942.81
509.428	25893.66
509.63	26120.99
509.833	26217.24
510.035	26708.76
510.238	26731.28
510.44	27108.11
510.643	27794.18
510.845	27986.69
511.048	27429.64
511.25	28144.38
511.453	28158.72
511.655	29420.27
511.858	28605.17
512.06	29145.84
512.262	29731.56
512.465	29496.04
512.667	30073.57
512.87	30393.05
513.072	30855.89
513.274	30616.28
513.477	31525.58
513.679	31365.84
513.881	32006.85
514.084	31871.68
514.286	31996.61
514.488	32361.15
514.69	33325.74
514.893	33163.95
515.095	33141.42
515.297	33669.8
515.499	34171.55
515.701	34073.25
515.904	34478.75
516.106	34947.73
516.308	35256.98
516.51	35551.88
516.712	35646.09
516.914	36121.22
517.116	36344.45
517.318	36362.88
517.52	36676.22
517.722	37194.36
517.925	37315.19
518.127	37796.46
518.329	38048.36
518.531	37769.83
518.733	38701.66
518.935	39129.69
519.136	38746.72
519.338	39756.36
519.54	39674.45
519.742	40077.9
519.944	40297.03
520.146	41024.06
520.348	40970.81
520.55	41118.26
520.752	41343.54
520.954	42191.4
521.155	41828.91
521.357	42572.32
521.559	42738.21
521.761	43100.7
521.963	43242.01
522.164	43395.6
522.366	43600.4
522.568	44296.71
522.77	44362.25
522.971	44866.05
523.173	44630.53
523.375	45183.48
523.576	44898.81
523.778	45656.56
523.98	45488.63
524.181	45930.99
524.383	45865.45
524.584	46907.87
524.786	46418.41
524.988	46213.61
525.189	47032.8
525.391	47325.66
525.592	47530.45
525.794	47299.03
525.995	47561.17
526.197	47974.86
526.398	48183.76
526.6	48288.2
526.801	48626.12
527.003	48888.26
527.204	48785.86
527.406	48906.69
527.607	48835.01
527.808	49793.46
528.01	48888.26
528.211	48767.43
528.412	49830.32
528.614	49887.67
528.815	49785.27
529.016	50569.64
529.218	49709.49
529.419	50366.89
529.62	50444.71
529.822	50065.84
530.023	50350.51
530.224	50239.92
530.425	50291.12
530.626	50352.55
530.828	50727.33
531.029	51405.21
531.23	50848.16
531.431	51169.69
531.632	50971.04
531.833	51349.92
532.035	51128.73
532.236	51175.84
532.437	51689.88
532.638	51069.34
532.839	51628.44
533.04	51667.35
533.241	50790.82
533.442	52183.44
533.643	51567
533.844	51542.42
534.045	51632.53
534.246	51126.69
534.447	51945.87
534.648	51734.93
534.849	51966.35
535.05	51028.38
535.251	51628.44
535.451	51585.43
535.652	51816.85
535.853	51820.95
536.054	52062.61
536.255	52001.17
536.456	51425.69
536.657	52418.95
536.857	52066.7
537.058	51292.57
537.259	52351.37
537.46	52210.06
537.66	51386.78
537.861	52066.7
538.062	51782.04
538.263	52222.35
538.463	51648.92
538.664	51714.45
538.865	52396.43
539.065	52267.41
539.266	51493.27
539.466	52210.06
539.667	50938.27
539.868	52627.85
540.068	51968.4
540.269	51786.13
540.469	52040.08
540.67	51919.25
540.87	51886.48
541.071	52179.34
541.271	52369.8
541.472	51843.48
541.672	51716.5
541.873	51734.93
542.073	51093.92
542.274	52126.1
542.474	51700.12
542.675	51245.47
542.875	52115.86
543.075	51659.16
543.276	51370.39
543.476	52353.42
543.676	51632.53
543.877	52033.94
544.077	51734.93
544.277	51575.19
544.478	51790.23
544.678	52357.52
544.878	51847.57
545.078	52519.31
545.279	51196.32
545.479	51304.86
545.679	51882.39
545.879	51392.92
546.079	51509.66
546.28	51992.98
546.48	51433.88
546.68	51554.71
546.88	52001.17
547.08	51573.14
547.28	51542.42
547.48	51173.79
547.68	51448.22
547.88	51376.54
548.081	51526.04
548.281	51390.87
548.481	51661.21
548.681	52124.05
548.881	51831.19
549.081	51739.03
549.28	51544.47
549.48	52152.72
549.68	51550.62
549.88	51626.39
550.08	51272.09
550.28	51605.91
550.48	51499.42
550.68	51960.21
550.88	51222.94
551.08	51665.3
551.279	51503.51
551.479	51499.42
551.679	51427.74
551.879	50813.35
552.079	51290.52
552.278	51163.55
552.478	51415.45
552.678	51415.45
552.878	51476.89
553.077	51202.46
553.277	51206.56
553.477	51806.61
553.676	51448.22
553.876	50964.9
554.076	50930.08
554.275	51022.24
554.475	50389.42
554.674	51173.79
554.874	50950.56
555.074	50946.47
555.273	51583.38
555.473	51296.67
555.672	50903.46
555.872	50776.48
556.071	51229.08
556.271	51192.22
556.47	50846.11
556.67	50469.29
556.869	50747.81
557.068	50946.47
557.268	50616.74
557.467	50901.41
557.667	50741.67
557.866	50669.99
558.065	50563.5
558.265	50645.41
558.464	50125.23
558.663	50651.56
558.863	50241.96
559.062	50907.55
559.261	49936.82
559.461	50358.7
559.66	49338.81
559.859	49611.19
560.058	49787.31
560.258	49781.17
560.457	49664.44
560.656	50168.24
560.855	49752.5
561.054	49752.5
561.253	49359.29
561.453	49666.48
561.652	49469.88
561.851	49387.96
562.05	49656.24
562.249	49041.85
562.448	49586.61
562.647	49562.04
562.846	49283.51
563.045	49197.5
563.244	48644.55
563.443	49357.24
563.642	48986.56
563.841	48490.95
564.04	48458.18
564.239	49160.64
564.438	47962.57
564.637	48437.7
564.836	48642.5
565.035	48523.72
565.234	48265.67
565.432	48095.69
565.631	47856.08
565.83	48361.93
566.029	47778.26
566.228	47997.39
566.427	47989.2
566.625	47141.34
566.824	47325.66
567.023	47684.05
567.222	46658.02
567.42	47712.72
567.619	47104.48
567.818	47321.56
568.016	47239.64
568.215	47442.39
568.414	47116.76
568.612	47225.31
568.811	46844.38
569.01	46750.18
569.208	45945.33
569.407	46940.64
569.605	46004.72
569.804	46637.54
570.002	46201.32
570.201	46703.07
570.4	46027.24
570.598	45906.41
570.797	45795.82
570.995	46356.97
571.193	45054.46
571.392	46221.8
571.59	45392.37
571.789	45457.91
571.987	45191.67
572.186	45345.27
572.384	45421.05
572.582	45212.15
572.781	45044.22
572.979	44734.98
573.177	44614.15
573.376	45148.67
573.574	44628.48
573.772	45070.84
573.971	44612.1
574.169	44055.05
574.367	43819.53
574.565	44263.94
574.763	43907.6
574.962	43809.29
575.16	43891.21
575.358	43907.6
575.556	43588.11
575.754	43960.84
575.952	43254.29
576.151	43966.99
576.349	42885.66
576.547	43131.42
576.745	43166.23
576.943	43276.82
577.141	43022.87
577.339	42949.15
577.537	42711.58
577.735	42871.32
577.933	42467.87
578.131	42367.52
578.329	42502.69
578.527	41984.55
578.725	41953.83
578.923	42531.36
579.121	42215.97
579.319	41843.24
579.516	41959.98
579.714	41665.07
579.912	41407.03
580.11	41525.81
580.308	41435.7
580.506	41400.88
580.704	40901.18
580.901	41441.84
581.099	41196.09
581.297	40884.79
581.495	40686.14
581.692	41097.78
581.89	40286.79
582.088	40573.5
582.285	40342.08
582.483	40645.18
582.681	40475.2
582.878	39936.59
583.076	40125
583.274	40165.96
583.471	39985.74
583.669	39653.97
583.866	39473.74
584.064	39709.26
584.262	39469.65
584.459	39764.56
584.657	39273.04
584.854	39721.55
585.052	38754.91
585.249	39168.6
585.447	38711.9
585.644	38675.04
585.841	38781.53
586.039	38967.9
586.236	38361.7
586.434	38275.68
586.631	38240.87
586.828	38586.97
587.026	38369.89
587.223	38074.98
587.42	37685.87
587.618	37866.09
587.815	37874.28
588.012	37653.1
588.21	37909.1
588.407	37948.01
588.604	37350
588.801	37175.92
588.999	37180.02
589.196	36903.54
589.393	37059.19
589.59	36819.58
589.787	36280.96
589.984	36463.23
590.182	36190.85
590.379	36487.81
590.576	35912.33
590.773	36483.71
590.97	35916.42
591.167	36192.9
591.364	35486.35
591.561	36051.59
591.758	35625.61
591.955	35670.67
592.152	35832.46
592.349	35259.02
592.546	35388.05
592.743	35408.53
592.94	34622.11
593.137	35177.11
593.334	35013.27
593.531	34587.29
593.727	34837.14
593.924	34765.46
594.121	34333.34
594.318	34474.65
594.515	34103.97
594.712	34245.28
594.908	33985.19
595.105	34359.97
595.302	33503.92
595.499	33864.36
595.696	33663.66
595.892	33856.17
596.089	33612.46
596.286	33659.56
596.482	33245.87
596.679	33512.11
596.876	33424.04
597.072	32705.21
597.269	33012.4
597.466	32803.51
597.662	32680.63
597.859	32680.63
598.055	32967.35
598.252	31933.12
598.448	31998.66
598.645	32189.12
598.841	32234.17
599.038	32066.24
599.234	31773.38
599.431	31853.25
599.627	31576.78
599.824	32015.04
600.02	31713.99
600.217	31697.61
600.413	31328.97
600.609	30964.43
600.806	31032.02
601.002	31111.89
601.198	31021.78
601.395	30857.94
601.591	30747.35
601.787	30935.76
601.984	30178.01
602.18	30878.42
602.376	30479.07
602.572	30264.03
602.769	30280.41
602.965	30012.13
603.161	30188.25
603.357	29919.97
603.553	30020.32
603.75	29700.84
603.946	29768.42
604.142	29866.72
604.338	29580.01
604.534	29872.87
604.73	29233.9
604.926	29496.04
605.122	29442.79
605.318	29025.01
605.514	28572.41
605.71	29014.77
605.906	28822.26
606.102	28769.01
606.298	29278.96
606.494	28834.55
606.69	28736.24
606.886	29086.45
607.082	28553.97
607.278	28496.63
607.474	28136.19
607.67	28353.27
607.866	27757.32
608.062	28447.48
608.257	27960.06
608.453	28107.52
608.649	27810.56
608.845	27804.42
609.041	27642.63
609.236	27794.18
609.432	27476.74
609.628	27732.74
609.824	27790.08
610.019	27423.5
610.215	27515.65
610.411	27808.51
610.606	27433.74
610.802	27040.53
610.998	27269.9
611.193	26979.09
611.389	27026.19
611.584	27339.53
611.78	26929.94
611.976	26972.94
612.171	26667.8
612.367	26784.53
612.562	26671.89
612.758	26215.19
612.953	26362.65
613.149	26809.11
613.344	26512.15
613.539	26784.53
613.735	26284.83
613.93	26522.39
614.126	26235.67
614.321	26325.78
614.517	26254.11
614.712	25895.71
614.907	25815.84
615.103	26172.19
615.298	25862.94
615.493	26053.41
615.688	25494.31
615.884	26055.45
616.079	25385.77
616.274	25785.12
616.47	25498.41
616.665	25740.07
616.86	25232.17
617.055	25197.35
617.25	25285.42
617.445	25383.72
617.641	24902.45
617.836	25445.16
618.031	25002.8
618.226	25023.28
618.421	24906.54
618.616	24933.17
618.811	24521.52
619.006	25019.18
619.201	24666.93
619.396	24455.99
619.591	24298.3
619.786	24435.51
619.981	24021.82
620.176	24374.07
620.371	23704.38
620.566	24183.61
620.761	23810.88
620.956	23896.89
621.151	23554.88
621.346	23565.12
621.541	23300.94
621.735	23329.61
621.93	22987.6
622.125	23206.73
622.32	22790.99
622.515	22772.56
622.709	22463.32
622.904	22653.78
623.099	22498.13
623.294	22309.72
623.488	22197.08
623.683	22256.47
623.878	21818.21
624.072	21707.62
624.267	22143.83
624.462	21773.15
624.656	21494.63
624.851	21560.16
625.046	21406.56
625.24	21312.36
625.435	20970.35
625.629	21351.27
625.824	21177.19
626.018	20706.16
626.213	20247.41
626.407	20691.82
626.602	20429.68
626.796	20581.23
626.991	20134.78
627.185	20179.83
627.38	19846.01
627.574	19874.68
627.768	19878.78
627.963	19637.12
628.157	19469.19
628.352	19688.32
628.546	19268.48
628.74	19440.51
628.935	19233.67
629.129	19338.12
629.323	18733.96
629.517	18946.95
629.712	18830.22
629.906	18789.26
630.1	18490.26
630.294	18477.97
630.489	18320.28
630.683	18516.88
630.877	18082.71
631.071	18236.31
631.265	18217.88
631.459	17873.82
631.653	17886.11
631.848	17652.64
632.042	17501.09
632.236	17572.77
632.43	17587.1
632.624	17408.93
632.818	17466.27
633.012	17109.93
633.206	17081.25
633.4	17116.07
633.594	16655.28
633.788	16855.98
633.982	16858.03
634.176	16667.56
634.369	16419.76
634.563	16825.26
634.757	16352.18
634.951	16382.9
635.145	16427.95
635.339	16307.12
635.533	16065.46
635.726	16182.2
635.92	15979.45
636.114	16020.41
636.308	15875
636.501	15819.71
636.695	15725.5
636.889	15494.08
637.083	15530.94
637.276	15406.02
637.47	15231.94
637.664	15219.65
637.857	15055.81
638.051	15088.58
638.244	14949.32
638.438	14969.8
638.632	14783.43
638.825	14504.91
639.019	14658.51
639.212	14681.03
639.406	14703.56
639.599	14431.18
639.793	14603.21
639.986	14207.95
640.18	14197.71
640.373	14277.58
640.567	13966.29
640.76	13874.13
640.954	13814.74
641.147	13708.25
641.34	13550.56
641.534	13923.29
641.727	13720.54
641.92	13683.67
642.114	13392.86
642.307	13427.68
642.5	13497.31
642.694	13054.95
642.887	13063.14
643.08	13163.49
643.273	13083.62
643.467	13102.05
643.66	12755.94
643.853	12862.44
644.046	12827.62
644.239	12567.53
644.432	12483.56
644.626	12565.48
644.819	12669.93
645.012	12557.29
645.205	12538.86
645.398	12391.41
645.591	12225.52
645.784	12078.07
645.977	12057.59
646.17	11846.65
646.363	11957.24
646.556	11547.64
646.749	11777.01
646.942	11744.25
647.135	11906.04
647.328	11480.06
647.521	11641.85
647.714	11359.23
647.907	11660.28
648.099	11512.83
648.292	11373.57
648.485	11594.75
648.678	11111.43
648.871	11146.24
649.064	11189.25
649.256	11209.73
649.449	10961.92
649.642	11045.89
649.835	11064.32
650.027	10650.63
650.22	10736.65
650.413	10867.72
650.605	10734.6
650.798	10660.87
650.991	10595.34
651.183	10392.59
651.376	10456.08
651.568	10425.36
651.761	10511.37
651.954	10376.2
652.146	10058.77
652.339	10138.64
652.531	10286.09
652.724	10245.13
652.916	9942.03
653.109	10030.1
653.301	9966.61
653.494	10048.53
653.686	9876.5
653.879	10071.06
654.071	9790.49
654.263	9825.3
654.456	9589.78
654.648	9731.09
654.84	9544.73
655.033	9456.67
655.225	9595.93
655.417	9346.08
655.61	9331.74
655.802	9399.32
655.994	9323.55
656.186	9450.52
656.379	9323.55
656.571	9215.01
656.763	8907.81
656.955	9186.33
657.148	9006.11
657.34	9047.07
657.532	8873
657.724	8827.94
657.916	8809.51
658.108	8795.17
658.3	8776.74
658.492	8670.25
658.684	8676.39
658.876	8555.56
659.068	8498.22
659.26	8612.9
659.452	8498.22
659.644	8455.21
659.836	8346.67
660.028	8234.03
660.22	7943.22
660.412	8260.65
660.604	8074.29
660.796	8148.01
660.988	8193.07
661.18	8051.76
661.372	7851.06
661.563	8010.8
661.755	7924.79
661.947	7914.55
662.139	7865.39
662.331	7947.31
662.522	7828.53
662.714	7877.68
662.906	7820.34
663.097	7844.91
663.289	7648.31
663.481	7584.82
663.673	7449.66
663.864	7570.49
664.056	7289.92
664.247	7586.87
664.439	7302.2
664.631	7502.9
664.822	7474.23
665.014	7400.51
665.205	7365.69
665.397	7111.74
665.588	7210.04
665.78	7183.42
665.971	7068.73
666.163	7181.37
666.354	7144.51
666.546	7087.17
666.737	6952
666.929	7040.06
667.12	6945.86
667.311	6886.47
667.503	6841.41
667.694	6788.16
667.885	6822.98
668.077	6642.76
668.268	6704.2
668.459	6820.93
668.651	6769.73
668.842	6681.67
669.033	6669.38
669.224	6528.07
669.416	6696
669.607	6693.96
669.798	6591.56
669.989	6564.93
670.18	6554.69
670.371	6517.83
670.563	6458.44
670.754	6351.95
670.945	6421.58
671.136	6358.09
671.327	6237.26
671.518	6261.84
671.709	6259.79
671.9	6368.33
672.091	6218.83
672.282	6032.46
672.473	6153.29
672.664	6018.13
672.855	6020.17
673.046	6063.18
673.237	5991.5
673.428	6116.43
673.619	6020.17
673.809	5964.88
674	6014.03
674.191	5985.36
674.382	5895.25
674.573	6079.57
674.764	5825.62
674.954	5891.15
675.145	5667.92
675.336	5854.29
675.527	5821.52
675.717	5731.41
675.908	5676.12
676.099	5889.1
676.289	5721.17
676.48	5743.7
676.671	5661.78
676.861	5825.62
677.052	5581.91
677.243	5653.59
677.433	5588.05
677.624	5502.04
677.814	5575.77
678.005	5543
678.195	5612.63
678.386	5557.33
678.576	5485.65
678.767	5499.99
678.957	5520.47
679.148	5463.13
679.338	5448.79
679.529	5522.52
679.719	5454.94
679.909	5508.18
680.1	5323.87
680.29	5323.87
680.481	5391.45
680.671	5401.69
680.861	5416.02
681.052	5432.41
681.242	5407.83
681.432	5422.17
681.622	5362.78
681.813	5352.54
682.003	5258.33
682.193	5198.94
682.383	5330.01
682.573	5282.91
682.764	5172.32
682.954	5153.88
683.144	5174.36
683.334	5172.32
683.524	5233.75
683.714	5229.66
683.904	5260.38
684.094	5176.41
684.284	5055.58
684.474	5086.3
684.664	5043.29
684.854	5084.25
685.044	4955.23
685.234	5041.25
685.424	4988
685.614	4963.42
685.804	4926.56
685.994	4951.14
686.184	4963.42
686.374	4775.01
686.564	4793.44
686.753	4779.11
686.943	4781.15
687.133	4824.16
687.323	4770.91
687.513	4748.39
687.702	4746.34
687.892	4744.29
688.082	4711.52
688.272	4658.28
688.461	4795.49
688.651	4748.39
688.841	4609.12
689.03	4641.89
689.22	4502.63
689.41	4668.52
689.599	4637.8
689.789	4514.92
689.979	4437.09
690.168	4435.05
690.358	4371.56
690.547	4508.77
690.737	4387.94
690.926	4445.29
691.116	4295.79
691.305	4359.27
691.495	4426.86
691.684	4220.01
691.874	4320.36
692.063	4215.91
692.252	4242.54
692.442	4344.94
692.631	4158.57
692.82	4199.53
693.01	4082.8
693.199	4197.48
693.388	4113.52
693.578	4142.19
693.767	4267.11
693.956	4346.98
694.146	4093.04
694.335	4070.51
694.524	4158.57
694.713	4213.87
694.902	4138.09
695.092	4086.89
695.281	4004.97
695.47	4082.8
695.659	4074.6
695.848	3961.97
696.037	4080.75
696.226	3982.45
696.415	4017.26
696.604	4027.5
696.793	3906.67
696.982	3851.38
697.171	4086.89
697.36	3914.86
697.549	3708.02
697.738	3888.24
697.927	3832.94
698.116	3976.3
698.305	3814.51
698.494	3800.18
698.683	3738.74
698.872	3794.03
699.061	3896.43
699.25	3779.7
699.438	3834.99
699.627	3902.58
699.816	3769.46
700.005	3638.39
700.193	3898.48
700.382	3789.94
700.571	3722.35
700.76	3804.27
700.948	3617.91
701.137	3708.02
701.326	3765.36
701.514	3812.46
701.703	3775.6
701.892	3724.4
702.08	3843.18
702.269	3808.37
702.457	3662.96
702.646	3638.39
702.834	3689.59
703.023	3748.98
703.212	3726.45
703.4	3574.9
703.589	3523.7
703.777	3615.86
703.965	3525.75
704.154	3652.72
704.342	3503.22
704.531	3587.19
704.719	3472.5
704.907	3671.15
705.096	3425.4
705.284	3658.87
705.472	3687.54
705.661	3564.66
705.849	3540.08
706.037	3558.52
706.226	3724.4
706.414	3482.74
706.602	3562.61
706.79	3619.96
706.979	3495.03
707.167	3542.13
707.355	3538.04
707.543	3568.76
707.731	3544.18
707.919	3605.62
708.107	3443.83
708.296	3527.8
708.484	3396.73
708.672	3601.52
708.86	3509.37
709.048	3589.24
709.236	3415.16
709.424	3519.6
709.612	3540.08
709.8	3378.3
709.988	3404.92
710.176	3533.94
710.364	3435.64
710.551	3454.07
710.739	3413.11
710.927	3519.6
711.115	3443.83
711.303	3400.82
711.491	3517.56
711.679	3374.2
711.866	3400.82
712.054	3460.21
712.242	3517.56
712.43	3535.99
712.617	3447.93
712.805	3435.64
712.993	3378.3
713.181	3581.04
713.368	3454.07
713.556	3456.12
713.744	3382.39
713.931	3435.64
714.119	3394.68
714.306	3527.8
714.494	3339.38
714.682	3339.38
714.869	3386.49
715.057	3353.72
715.244	3200.12
715.432	3361.91
715.619	3437.69
715.807	3386.49
715.994	3513.46
716.182	3347.58
716.369	3329.14
716.556	3218.55
716.744	3314.81
716.931	3411.06
717.119	3476.6
717.306	3228.79
717.493	3292.28
717.681	3312.76
717.868	3269.75
718.055	3331.19
718.242	3409.01
718.43	3466.36
718.617	3398.77
718.804	3288.18
718.991	3314.81
719.179	3458.17
719.366	3247.23
719.553	3300.47
719.74	3339.38
719.927	3239.03
720.114	3294.33
720.301	3298.42
720.488	3181.69
720.676	3333.24
720.863	3331.19
721.05	3251.32
721.237	3236.99
721.424	3259.51
721.611	3296.38
721.798	3150.97
721.985	3169.4
722.172	3230.84
722.358	3234.94
722.545	3327.1
722.732	3200.12
722.919	3241.08
723.106	3144.83
723.293	3202.17
723.48	3196.03
723.667	3234.94
723.853	3220.6
724.04	3200.12
724.227	3232.89
724.414	3130.49
724.6	3169.4
724.787	3249.27
724.974	3130.49
725.161	3110.01
725.347	3097.72
725.534	3163.26
725.72	3116.16
725.907	3118.2
726.094	3159.16
726.28	3253.37
726.467	3193.98
726.653	3097.72
726.84	3134.59
727.027	3230.84
727.213	3071.1
727.4	3091.58
727.586	3128.44
727.773	3157.11
727.959	3042.43
728.145	3200.12
728.332	3064.96
728.518	3159.16
728.705	3087.48
728.891	3124.35
729.077	3077.24
729.264	3189.88
729.45	3175.55
729.636	3030.14
729.823	3101.82
730.009	2997.37
730.195	2964.61
730.382	3062.91
730.568	3024
730.754	2995.32
730.94	3036.28
731.126	3028.09
731.313	3077.24
731.499	3021.95
731.685	2989.18
731.871	2995.32
732.057	2962.56
732.243	3028.09
732.429	2962.56
732.615	3044.48
732.801	2978.94
732.987	2919.55
733.173	2962.56
733.359	2937.98
733.545	3052.67
733.731	2901.12
733.917	3079.29
734.103	2944.13
734.289	3030.14
734.475	2937.98
734.661	2980.99
734.847	2960.51
735.033	2841.73
735.219	2925.69
735.404	2858.11
735.59	2874.49
735.776	2880.64
735.962	2907.26
736.148	2868.35
736.333	2892.93
736.519	2894.97
736.705	2774.14
736.89	2892.93
737.076	2884.73
737.262	2858.11
737.447	2901.12
737.633	2759.81
737.819	2753.66
738.004	2823.3
738.19	2802.82
738.375	2776.19
738.561	2862.21
738.747	2737.28
738.932	2741.38
739.118	2782.34
739.303	2716.8
739.489	2821.25
739.674	2704.51
739.859	2774.14
740.045	2714.75
740.23	2686.08
740.416	2616.45
740.601	2706.56
740.786	2610.31
740.972	2677.89
741.157	2616.45
741.342	2536.58
741.528	2684.03
741.713	2618.5
741.898	2675.84
742.084	2591.88
742.269	2667.65
742.454	2606.21
742.639	2657.41
742.824	2552.96
743.01	2581.64
743.195	2663.55
743.38	2585.73
743.565	2475.14
743.75	2477.19
743.935	2456.71
744.12	2591.88
744.305	2460.81
744.49	2442.37
744.675	2440.33
744.86	2387.08
745.045	2374.79
745.23	2450.57
745.415	2485.38
745.6	2385.03
745.785	2337.93
745.97	2389.13
746.155	2368.65
746.34	2276.49
746.525	2319.5
746.71	2286.73
746.895	2305.16
747.079	2247.82
747.264	2346.12
747.449	2290.82
747.634	2202.76
747.819	2327.69
748.003	2266.25
748.188	2141.32
748.373	2299.02
748.557	2276.49
748.742	2135.18
748.927	2106.51
749.111	2129.03
749.296	2118.79
749.481	2118.79
749.665	2049.16
749.85	2069.64
750.034	2061.45
750.219	2059.4
750.404	2061.45
750.588	2067.6
750.773	1993.87
750.957	1977.48
751.141	2075.79
751.326	2002.06
751.51	1950.86
751.695	1846.41
751.879	2010.25
752.064	1950.86
752.248	1823.89
752.432	1914
752.617	1846.41
752.801	1916.05
752.985	1748.11
753.17	1819.79
753.354	1746.06
753.538	1782.93
753.722	1760.4
753.907	1766.54
754.091	1676.43
754.275	1674.39
754.459	1660.05
754.643	1727.63
754.828	1674.39
755.012	1641.62
755.196	1723.54
755.38	1662.1
755.564	1619.09
755.748	1701.01
755.932	1694.86
756.116	1637.52
756.3	1533.08
756.484	1602.71
756.668	1660.05
756.852	1528.98
757.036	1596.56
757.22	1541.27
757.404	1574.03
757.588	1479.83
757.772	1592.47
757.956	1463.44
758.14	1479.83
758.323	1393.81
758.507	1500.31
758.691	1399.96
758.875	1410.2
759.059	1416.34
759.242	1434.77
759.426	1377.43
759.61	1420.44
759.794	1307.8
759.977	1363.09
760.161	1371.29
760.345	1279.13
760.528	1416.34
760.712	1377.43
760.895	1305.75
761.079	1315.99
761.263	1289.37
761.446	1277.08
761.63	1219.74
761.813	1346.71
761.997	1254.55
762.18	1330.33
762.364	1264.79
762.547	1383.57
762.731	1172.63
762.914	1264.79
763.098	1248.41
763.281	1160.34
763.464	1209.5
763.648	1193.11
763.831	1285.27
764.015	1180.82
764.198	1219.74
764.381	1217.69
764.564	1184.92
764.748	1172.63
764.931	1197.21
765.114	1201.3
765.297	1184.92
765.481	1205.4
765.664	1174.68
765.847	1191.06
766.03	1180.82
766.213	1201.3
766.397	1150.11
766.58	1074.33
766.763	1139.87
766.946	1156.25
767.129	1207.45
767.312	1137.82
767.495	1121.43
767.678	1049.75
767.861	1113.24
768.044	1170.58
768.227	1037.47
768.41	1066.14
768.593	1184.92
768.776	1100.95
768.959	1049.75
769.142	1088.67
769.324	1074.33
769.507	1107.1
769.69	1090.71
769.873	1037.47
770.056	1162.39
770.239	1033.37
770.421	1010.84
770.604	986.27
770.787	1074.33
770.97	1012.89
771.152	1031.32
771.335	1045.66
771.518	959.64
771.7	984.22
771.883	976.03
772.066	910.49
772.248	933.02
772.431	1125.53
772.613	912.54
772.796	947.36
772.978	865.44
773.161	920.73
773.343	947.36
773.526	1029.27
773.708	935.07
773.891	918.68
774.073	930.97
774.256	867.49
774.438	959.64
774.621	894.11
774.803	930.97
774.985	801.95
775.168	953.5
775.35	953.5
775.532	816.29
775.715	758.94
775.897	855.2
776.079	908.44
776.261	701.6
776.444	840.86
776.626	785.57
776.808	806.05
776.99	806.05
777.173	836.77
777.355	742.56
777.537	818.33
777.719	775.33
777.901	758.94
778.083	771.23
778.265	783.52
778.447	804
778.629	709.79
778.811	650.4
778.993	775.33
779.175	699.55
779.357	699.55
779.539	724.13
779.721	668.83
779.903	693.41
780.085	685.22
780.267	736.42
780.449	699.55
780.631	707.74
780.812	666.78
780.994	703.65
781.176	627.87
781.358	707.74
781.54	607.39
781.721	658.59
781.903	652.45
782.085	646.3
782.267	490.66
782.448	629.92
782.63	578.72
782.812	562.34
782.993	599.2
783.175	634.02
783.357	556.19
783.538	634.02
783.72	545.95
783.901	543.91
784.083	578.72
784.264	599.2
784.446	472.23
784.627	570.53
784.809	584.87
784.99	652.45
785.172	545.95
785.353	611.49
785.535	527.52
785.716	541.86
785.897	435.36
786.079	466.08
786.26	492.71
786.441	570.53
786.623	414.88
786.804	488.61
786.985	476.32
787.167	500.9
787.348	486.56
787.529	478.37
787.71	529.57
787.891	525.47
788.073	535.71
788.254	480.42
788.435	541.86
788.616	427.17
788.797	468.13
788.978	486.56
789.159	349.35
789.34	447.65
789.522	423.08
789.703	472.23
789.884	429.22
790.065	443.56
790.246	431.27
790.427	509.09
790.607	498.85
790.788	421.03
790.969	365.73
791.15	492.71
791.331	431.27
791.512	402.6
791.693	418.98
791.874	378.02
792.054	453.8
792.235	414.88
792.416	382.12
792.597	365.73
792.778	386.21
792.958	281.77
793.139	363.69
793.32	373.92
793.5	388.26
793.681	367.78
793.862	390.31
794.042	382.12
794.223	353.45
794.404	371.88
794.584	298.15
794.765	314.53
794.945	310.44
795.126	361.64
795.306	408.74
795.487	367.78
795.667	408.74
795.848	275.62
796.028	341.16
796.209	375.97
796.389	294.05
796.57	433.32
796.75	265.38
796.93	357.54
797.111	326.82
797.291	304.29
797.471	296.1
797.652	341.16
797.832	308.39
798.012	298.15
798.192	287.91
798.373	244.9
798.553	289.96
798.733	281.77
798.913	273.57
799.093	205.99
799.274	302.25
799.454	330.92
799.634	312.49
799.814	298.15
799.994	328.87
800.174	283.81
800.354	242.85
800.534	238.76
800.714	341.16
800.894	279.72
801.074	314.53
801.254	255.14
801.434	304.29
801.614	273.57
801.794	306.34
801.974	849.05
802.154	281.77
802.334	326.82
802.514	292.01
802.693	306.34
802.873	189.61
803.053	294.05
803.233	328.87
803.413	267.43
803.592	228.52
803.772	232.62
803.952	203.94
804.131	273.57
804.311	181.42
804.491	216.23
804.67	193.7
804.85	226.47
805.03	226.47
805.209	244.9
805.389	214.18
805.568	236.71
805.748	273.57
805.928	279.72
806.107	226.47
806.287	201.9
806.466	275.62
806.646	279.72
806.825	212.14
807.004	177.32
807.184	228.52
807.363	242.85
807.543	222.38
807.722	259.24
807.901	218.28
808.081	261.29
808.26	255.14
808.439	210.09
808.619	212.14
808.798	230.57
808.977	195.75
809.156	230.57
809.336	220.33
809.515	253.09
809.694	238.76
809.873	150.7
810.052	173.22
810.231	197.8
810.411	193.7
810.59	195.75
810.769	201.9
810.948	251.05
811.127	203.94
811.306	185.51
811.485	152.74
811.664	218.28
811.843	93.35
812.022	267.43
812.201	234.66
812.38	261.29
812.559	132.26
812.737	224.42
812.916	152.74
813.095	152.74
813.274	218.28
813.453	238.76
813.632	214.18
813.811	216.23
813.989	154.79
814.168	167.08
814.347	191.66
814.526	208.04
814.704	216.23
814.883	181.42
815.062	107.69
815.24	285.86
815.419	193.7
815.598	158.89
815.776	101.55
815.955	111.78
816.133	97.45
816.312	185.51
816.49	195.75
816.669	197.8
816.847	103.59
817.026	160.94
817.204	111.78
817.383	179.37
817.561	152.74
817.74	187.56
817.918	158.89
818.097	117.93
818.275	83.11
818.453	177.32
818.632	160.94
818.81	113.83
818.988	138.41
819.167	136.36
819.345	97.45
819.523	187.56
819.701	83.11
819.879	124.07
820.058	25.77
820.236	128.17
820.414	122.02
820.592	162.98
820.77	154.79
820.948	107.69
821.127	142.5
821.305	150.7
821.483	91.31
821.661	242.85
821.839	189.61
822.017	136.36
822.195	83.11
822.373	171.18
822.551	162.98
822.729	152.74
822.907	60.59
823.085	152.74
823.262	165.03
823.44	113.83
823.618	81.07
823.796	185.51
823.974	103.59
824.152	111.78
824.329	142.5
824.507	160.94
824.685	76.97
824.863	115.88
825.04	134.31
825.218	134.31
825.396	115.88
825.574	117.93
825.751	117.93
825.929	158.89
826.107	101.55
826.284	72.87
826.462	83.11
826.639	91.31
826.817	74.92
826.994	148.65
827.172	117.93
827.349	119.98
827.527	99.5
827.704	119.98
827.882	87.21
828.059	31.91
828.237	76.97
828.414	212.14
828.591	29.87
828.769	197.8
828.946	97.45
829.124	136.36
829.301	185.51
829.478	62.63
829.655	117.93
829.833	66.73
830.01	-2.9
830.187	70.83
830.364	136.36
830.542	115.88
830.719	79.02
830.896	146.6
831.073	44.2
831.25	74.92
831.427	15.53
831.604	38.06
831.782	64.68
831.959	95.4
832.136	70.83
832.313	144.55
832.49	52.39
832.667	58.54
832.844	87.21
833.021	76.97
833.198	87.21
833.374	21.67
833.551	23.72
833.728	74.92
833.905	111.78
834.082	66.73
834.259	122.02
834.436	91.31
834.612	50.35
834.789	72.87
834.966	81.07
835.143	107.69
835.319	103.59
835.496	111.78
835.673	101.55
835.85	124.07
836.026	134.31
836.203	136.36
836.38	68.78
836.556	40.11
836.733	48.3
836.909	119.98
837.086	36.01
837.262	44.2
837.439	66.73
837.616	58.54
837.792	79.02
837.968	154.79
838.145	56.49
838.321	134.31
838.498	126.12
838.674	85.16
838.851	46.25
839.027	79.02
839.203	103.59
839.38	54.44
839.556	117.93
839.732	117.93
839.909	50.35
840.085	68.78
840.261	17.58
840.437	95.4
840.614	62.63
840.79	46.25
840.966	1.19
841.142	25.77
841.318	36.01
841.494	89.26
841.671	62.63
841.847	50.35
842.023	72.87
842.199	-15.19
842.375	81.07
842.551	5.29
842.727	9.39
842.903	76.97
843.079	68.78
843.255	134.31
843.431	56.49
843.607	79.02
843.783	-25.43
843.959	52.39
844.134	72.87
844.31	156.84
844.486	62.63
844.662	13.48
844.838	144.55
845.013	44.2
845.189	95.4
845.365	25.77
845.541	64.68
845.716	140.46
845.892	21.67
846.068	27.82
846.244	-37.72
846.419	36.01
846.595	76.97
846.77	101.55
846.946	1.19
847.122	13.48
847.297	17.58
847.473	68.78
847.648	-60.24
847.824	-33.62
847.999	29.87
848.175	54.44
848.35	33.96
848.526	74.92
848.701	99.5
848.876	56.49
849.052	91.31
849.227	54.44
849.403	54.44
849.578	76.97
849.753	85.16
849.929	79.02
850.104	-29.52
850.279	50.35
850.454	79.02
850.63	99.5
850.805	29.87
850.98	25.77
851.155	19.63
851.33	29.87
851.505	33.96
851.681	111.78
851.856	50.35
852.031	21.67
852.206	-4.95
852.381	38.06
852.556	1.19
852.731	-25.43
852.906	46.25
853.081	-4.95
853.256	46.25
853.431	119.98
853.606	29.87
853.781	21.67
853.956	29.87
854.131	-4.95
854.305	7.34
854.48	19.63
854.655	-0.85
854.83	31.91
855.005	56.49
855.18	38.06
855.354	-11.09
855.529	66.73
855.704	52.39
855.879	66.73
856.053	-50
856.228	19.63
856.403	-13.14
856.577	50.35
856.752	-4.95
856.926	-2.9
857.101	58.54
857.276	-41.81
857.45	-23.38
857.625	23.72
857.799	33.96
857.974	50.35
858.148	-25.43
858.323	58.54
858.497	-31.57
858.672	27.82
858.846	1.19
859.02	95.4
859.195	1.19
859.369	-21.33
859.543	46.25
859.718	89.26
859.892	-35.67
860.066	50.35
860.241	25.77
860.415	31.91
860.589	-13.14
860.763	9.39
860.938	-19.29
861.112	50.35
861.286	11.43
861.46	1.19
861.634	31.91
861.808	40.11
861.982	13.48
862.157	-13.14
862.331	54.44
862.505	13.48
862.679	1.19
862.853	23.72
863.027	11.43
863.201	-4.95
863.375	17.58
863.549	27.82
863.722	-7
863.896	-11.09
864.07	44.2
864.244	-2.9
864.418	13.48
864.592	36.01
864.766	21.67
864.939	-7
865.113	-41.81
865.287	33.96
865.461	31.91
865.634	-2.9
865.808	29.87
865.982	44.2
866.156	7.34
866.329	-54.1
866.503	48.3
866.676	5.29
866.85	42.15
867.024	-13.14
867.197	62.63
867.371	31.91
867.544	-13.14
867.718	-13.14
867.891	11.43
868.065	3.24
868.238	7.34
868.412	103.59
868.585	17.58
868.759	-15.19
868.932	-37.72
869.105	-15.19
869.279	9.39
869.452	-19.29
869.625	91.31
869.799	-9.05
869.972	-27.48
870.145	48.3
870.319	13.48
870.492	-19.29
870.665	5.29
870.838	-52.05
871.011	-97.11
871.185	-15.19
871.358	95.4
871.531	13.48
871.704	-23.38
871.877	17.58
872.05	3.24
872.223	-19.29
872.396	33.96
872.569	-11.09
872.742	-15.19
872.915	62.63
873.088	-37.72
873.261	-11.09
873.434	-4.95
873.607	-13.14
873.78	44.2
873.953	15.53
874.126	1.19
874.299	5.29
874.471	-23.38
874.644	-2.9
874.817	-17.24
874.99	25.77
875.163	1.19
875.335	29.87
875.508	15.53
875.681	-23.38
875.853	-58.2
876.026	-13.14
876.199	15.53
876.371	-19.29
876.544	29.87
876.717	44.2
876.889	56.49
877.062	-7
877.234	-2.9
877.407	-72.53
877.579	60.59
877.752	19.63
877.924	-29.52
878.097	62.63
878.269	-2.9
878.442	-19.29
878.614	7.34
878.786	23.72
878.959	3.24
879.131	38.06
879.303	-45.91
879.476	29.87
879.648	-21.33
879.82	-43.86
879.993	-2.9
880.165	7.34
880.337	-41.81
880.509	-27.48
880.681	-76.63
880.854	13.48
881.026	-23.38
881.198	74.92
881.37	15.53
881.542	38.06
881.714	-21.33
881.886	-35.67
882.058	9.39
882.23	-56.15
882.402	-27.48
882.574	-11.09
882.746	3.24
882.918	93.35
883.09	15.53
883.262	9.39
883.434	-11.09
883.606	5.29
883.778	-54.1
883.95	17.58
884.122	-29.52
884.293	-11.09
884.465	13.48
884.637	-2.9
884.809	40.11
884.98	48.3
885.152	3.24
885.324	-41.81
885.496	3.24
885.667	29.87
885.839	3.24
886.011	5.29
886.182	-2.9
886.354	-68.44
886.525	-11.09
886.697	-19.29
886.869	-52.05
887.04	56.49
887.212	70.83
887.383	36.01
887.555	27.82
887.726	3.24
887.897	-47.96
888.069	5.29
888.24	-29.52
888.412	29.87
888.583	-9.05
888.754	-11.09
888.926	19.63
889.097	-43.86
889.268	-66.39
889.44	36.01
889.611	-9.05
889.782	36.01
889.953	-45.91
890.125	48.3
890.296	54.44
890.467	-23.38
890.638	5.29
890.809	1.19
890.98	-17.24
891.151	-43.86
891.323	13.48
891.494	-43.86
891.665	25.77
891.836	31.91
892.007	-2.9
892.178	33.96
892.349	-7
892.52	-35.67
892.691	23.72
892.862	-23.38
893.032	-25.43
893.203	-29.52
893.374	3.24
893.545	19.63
893.716	-41.81
893.887	44.2
894.057	-2.9
894.228	15.53
894.399	-64.34
894.57	93.35
894.74	-52.05
894.911	29.87
895.082	66.73
895.253	-64.34
895.423	17.58
895.594	64.68
895.764	-58.2
895.935	3.24
896.106	25.77
896.276	-0.85
896.447	9.39
896.617	-72.53
896.788	3.24
896.958	17.58
897.129	-72.53
897.299	-56.15
897.47	42.15
897.64	46.25
897.81	81.07
897.981	29.87
898.151	-60.24
898.322	5.29
898.492	21.67
898.662	3.24
898.832	-7
899.003	52.39
899.173	52.39
899.343	-27.48
899.513	-72.53
