Data from USB4F104151__159__10-27-09-861.txt Node

Date: Wed Mar 12 10:27:09 EDT 2025
User: louis
Spectrometer: USB4F10415
Trigger mode: 4
Integration Time (sec): 3.000000E-2
Scans to average: 1
Electric dark correction enabled: true
Nonlinearity correction enabled: false
Boxcar width: 0
XAxis mode: Wavelengths
Number of Pixels in Spectrum: 3648
>>>>>Begin Spectral Data<<<<<
178.204	-187.9
178.424	-187.9
178.644	-187.9
178.864	-114.17
179.084	-99.84
179.304	-5.63
179.524	31.23
179.744	0.51
179.964	25.09
180.184	-69.12
180.404	-15.87
180.624	8.7
180.844	33.28
181.064	-42.5
181.283	0.51
181.503	20.99
181.723	12.8
181.943	-5.63
182.163	-26.11
182.383	12.8
182.602	-65.02
182.822	82.43
183.042	20.99
183.262	-26.11
183.482	-95.74
183.701	-48.64
183.921	4.61
184.141	-17.92
184.361	57.86
184.58	-11.78
184.8	2.56
185.02	-34.3
185.239	70.14
185.459	37.38
185.679	14.85
185.898	-48.64
186.118	-40.45
186.338	39.42
186.557	-9.73
186.777	35.33
186.997	-3.58
187.216	-28.16
187.436	4.61
187.655	33.28
187.875	68.09
188.095	4.61
188.314	-38.4
188.534	27.14
188.753	57.86
188.973	104.96
189.192	74.24
189.412	61.95
189.631	18.94
189.851	23.04
190.07	78.33
190.29	-13.82
190.509	-7.68
190.729	-36.35
190.948	6.66
191.168	84.48
191.387	-3.58
191.607	2.56
191.826	-17.92
192.045	-81.41
192.265	49.66
192.484	-65.02
192.704	49.66
192.923	-13.82
193.142	8.7
193.362	27.14
193.581	70.14
193.8	-15.87
194.02	20.99
194.239	12.8
194.458	-3.58
194.678	-11.78
194.897	-42.5
195.116	-3.58
195.335	49.66
195.555	57.86
195.774	-3.58
195.993	-56.83
196.212	14.85
196.432	29.18
196.651	-5.63
196.87	14.85
197.089	78.33
197.308	25.09
197.528	25.09
197.747	-65.02
197.966	39.42
198.185	113.15
198.404	4.61
198.623	14.85
198.842	111.1
199.062	43.52
199.281	45.57
199.5	27.14
199.719	45.57
199.938	47.62
200.157	33.28
200.376	-26.11
200.595	-34.3
200.814	100.86
201.033	-40.45
201.252	4.61
201.471	64
201.69	72.19
201.909	-1.54
202.128	107.01
202.347	66.05
202.566	-46.59
202.785	-17.92
203.004	-3.58
203.223	74.24
203.442	-28.16
203.661	-13.82
203.879	-75.26
204.098	29.18
204.317	0.51
204.536	121.34
204.755	25.09
204.974	35.33
205.193	47.62
205.411	10.75
205.63	53.76
205.849	-9.73
206.068	-7.68
206.287	18.94
206.505	37.38
206.724	14.85
206.943	-44.54
207.162	31.23
207.381	-13.82
207.599	49.66
207.818	53.76
208.037	-3.58
208.255	-28.16
208.474	74.24
208.693	25.09
208.911	-9.73
209.13	-44.54
209.349	-15.87
209.567	8.7
209.786	20.99
210.005	2.56
210.223	39.42
210.442	-46.59
210.661	41.47
210.879	16.9
211.098	16.9
211.316	-1.54
211.535	47.62
211.753	100.86
211.972	-30.21
212.191	18.94
212.409	49.66
212.628	-24.06
212.846	18.94
213.065	35.33
213.283	70.14
213.502	-24.06
213.72	92.67
213.938	68.09
214.157	68.09
214.375	2.56
214.594	-40.45
214.812	4.61
215.031	23.04
215.249	-54.78
215.467	-13.82
215.686	-9.73
215.904	66.05
216.122	27.14
216.341	55.81
216.559	-28.16
216.778	-13.82
216.996	70.14
217.214	25.09
217.432	-3.58
217.651	-46.59
217.869	-15.87
218.087	-19.97
218.306	-32.26
218.524	-22.02
218.742	-65.02
218.96	8.7
219.179	10.75
219.397	37.38
219.615	72.19
219.833	90.62
220.051	20.99
220.27	-5.63
220.488	47.62
220.706	45.57
220.924	16.9
221.142	-11.78
221.36	2.56
221.578	104.96
221.796	-28.16
222.015	-26.11
222.233	53.76
222.451	-19.97
222.669	0.51
222.887	33.28
223.105	-28.16
223.323	31.23
223.541	-15.87
223.759	-5.63
223.977	10.75
224.195	61.95
224.413	31.23
224.631	10.75
224.849	10.75
225.067	107.01
225.285	-5.63
225.503	39.42
225.721	-38.4
225.939	-26.11
226.157	70.14
226.375	35.33
226.592	-34.3
226.81	-46.59
227.028	61.95
227.246	64
227.464	20.99
227.682	94.72
227.9	86.53
228.117	2.56
228.335	-22.02
228.553	78.33
228.771	6.66
228.989	45.57
229.206	18.94
229.424	-24.06
229.642	78.33
229.86	-28.16
230.077	12.8
230.295	18.94
230.513	10.75
230.731	14.85
230.948	0.51
231.166	49.66
231.384	-22.02
231.601	-77.31
231.819	57.86
232.037	4.61
232.254	-15.87
232.472	-15.87
232.689	-26.11
232.907	53.76
233.125	18.94
233.342	-36.35
233.56	14.85
233.777	-17.92
233.995	-3.58
234.213	25.09
234.43	0.51
234.648	8.7
234.865	29.18
235.083	-1.54
235.3	-30.21
235.518	43.52
235.735	72.19
235.953	39.42
236.17	18.94
236.388	16.9
236.605	-62.98
236.822	12.8
237.04	31.23
237.257	-11.78
237.475	43.52
237.692	-9.73
237.909	8.7
238.127	-60.93
238.344	70.14
238.562	-28.16
238.779	10.75
238.996	-40.45
239.214	47.62
239.431	64
239.648	-17.92
239.865	31.23
240.083	18.94
240.3	31.23
240.517	-7.68
240.735	0.51
240.952	16.9
241.169	45.57
241.386	-15.87
241.603	-17.92
241.821	-36.35
242.038	51.71
242.255	39.42
242.472	-65.02
242.689	66.05
242.907	10.75
243.124	-26.11
243.341	20.99
243.558	8.7
243.775	33.28
243.992	18.94
244.209	74.24
244.426	51.71
244.643	45.57
244.86	-13.82
245.078	68.09
245.295	80.38
245.512	47.62
245.729	14.85
245.946	66.05
246.163	61.95
246.38	-28.16
246.597	20.99
246.814	35.33
247.031	12.8
247.248	-3.58
247.464	-32.26
247.681	37.38
247.898	-7.68
248.115	92.67
248.332	-13.82
248.549	41.47
248.766	43.52
248.983	47.62
249.2	43.52
249.417	82.43
249.633	72.19
249.85	53.76
250.067	-46.59
250.284	10.75
250.501	45.57
250.717	37.38
250.934	53.76
251.151	29.18
251.368	88.57
251.585	-15.87
251.801	16.9
252.018	-56.83
252.235	0.51
252.451	-3.58
252.668	-13.82
252.885	10.75
253.102	-34.3
253.318	-3.58
253.535	-73.21
253.752	27.14
253.968	-1.54
254.185	16.9
254.401	0.51
254.618	25.09
254.835	-44.54
255.051	119.29
255.268	18.94
255.484	45.57
255.701	0.51
255.917	70.14
256.134	8.7
256.351	-19.97
256.567	43.52
256.784	70.14
257	-60.93
257.217	49.66
257.433	-3.58
257.65	41.47
257.866	8.7
258.082	-1.54
258.299	20.99
258.515	-34.3
258.732	-36.35
258.948	35.33
259.165	68.09
259.381	4.61
259.597	43.52
259.814	-42.5
260.03	20.99
260.246	-19.97
260.463	66.05
260.679	-5.63
260.895	29.18
261.112	82.43
261.328	51.71
261.544	-11.78
261.761	35.33
261.977	33.28
262.193	10.75
262.409	55.81
262.626	-17.92
262.842	39.42
263.058	-17.92
263.274	53.76
263.49	-40.45
263.707	102.91
263.923	86.53
264.139	25.09
264.355	10.75
264.571	23.04
264.787	33.28
265.004	78.33
265.22	8.7
265.436	47.62
265.652	6.66
265.868	23.04
266.084	-19.97
266.3	37.38
266.516	-28.16
266.732	-11.78
266.948	33.28
267.164	39.42
267.38	-44.54
267.596	59.9
267.812	45.57
268.028	-13.82
268.244	-67.07
268.46	-30.21
268.676	27.14
268.892	20.99
269.108	18.94
269.324	33.28
269.54	-9.73
269.756	-44.54
269.972	-56.83
270.188	-40.45
270.403	-3.58
270.619	49.66
270.835	49.66
271.051	-3.58
271.267	-69.12
271.483	2.56
271.698	57.86
271.914	59.9
272.13	-46.59
272.346	-13.82
272.562	27.14
272.777	-11.78
272.993	37.38
273.209	61.95
273.425	16.9
273.64	39.42
273.856	33.28
274.072	20.99
274.287	-28.16
274.503	-5.63
274.719	6.66
274.934	61.95
275.15	-3.58
275.366	41.47
275.581	-15.87
275.797	20.99
276.012	0.51
276.228	43.52
276.444	2.56
276.659	49.66
276.875	-22.02
277.09	0.51
277.306	16.9
277.521	35.33
277.737	0.51
277.952	0.51
278.168	51.71
278.383	72.19
278.599	4.61
278.814	43.52
279.03	-50.69
279.245	90.62
279.461	-7.68
279.676	59.9
279.892	-7.68
280.107	8.7
280.322	-60.93
280.538	-48.64
280.753	-24.06
280.969	82.43
281.184	4.61
281.399	2.56
281.615	0.51
281.83	70.14
282.045	-19.97
282.26	61.95
282.476	35.33
282.691	0.51
282.906	23.04
283.122	31.23
283.337	-7.68
283.552	25.09
283.767	-30.21
283.983	-13.82
284.198	-3.58
284.413	18.94
284.628	-50.69
284.843	80.38
285.058	33.28
285.274	29.18
285.489	4.61
285.704	51.71
285.919	4.61
286.134	84.48
286.349	6.66
286.564	-13.82
286.779	-32.26
286.995	10.75
287.21	-36.35
287.425	23.04
287.64	-40.45
287.855	29.18
288.07	23.04
288.285	-3.58
288.5	-52.74
288.715	45.57
288.93	-15.87
289.145	2.56
289.36	41.47
289.575	88.57
289.79	92.67
290.004	4.61
290.219	43.52
290.434	-48.64
290.649	4.61
290.864	-15.87
291.079	55.81
291.294	57.86
291.509	14.85
291.724	70.14
291.938	8.7
292.153	12.8
292.368	-60.93
292.583	53.76
292.798	25.09
293.012	10.75
293.227	-46.59
293.442	37.38
293.657	25.09
293.871	-1.54
294.086	-3.58
294.301	25.09
294.516	64
294.73	43.52
294.945	-79.36
295.16	25.09
295.374	18.94
295.589	49.66
295.804	31.23
296.018	4.61
296.233	45.57
296.447	27.14
296.662	-13.82
296.877	-7.68
297.091	-60.93
297.306	61.95
297.52	20.99
297.735	18.94
297.949	25.09
298.164	-9.73
298.378	45.57
298.593	14.85
298.807	-26.11
299.022	39.42
299.236	80.38
299.451	27.14
299.665	-26.11
299.88	8.7
300.094	0.51
300.309	66.05
300.523	6.66
300.737	-5.63
300.952	-28.16
301.166	16.9
301.381	-65.02
301.595	0.51
301.809	74.24
302.024	0.51
302.238	-22.02
302.452	109.05
302.667	23.04
302.881	49.66
303.095	-19.97
303.309	-1.54
303.524	-19.97
303.738	-9.73
303.952	6.66
304.166	84.48
304.381	4.61
304.595	47.62
304.809	0.51
305.023	-17.92
305.237	4.61
305.452	57.86
305.666	86.53
305.88	-26.11
306.094	-73.21
306.308	53.76
306.522	-11.78
306.736	49.66
306.95	-7.68
307.164	57.86
307.379	-7.68
307.593	86.53
307.807	76.29
308.021	31.23
308.235	12.8
308.449	-15.87
308.663	53.76
308.877	53.76
309.091	18.94
309.305	45.57
309.519	-22.02
309.733	84.48
309.947	-32.26
310.161	12.8
310.374	23.04
310.588	98.81
310.802	-22.02
311.016	-28.16
311.23	74.24
311.444	6.66
311.658	61.95
311.872	-17.92
312.085	-11.78
312.299	10.75
312.513	35.33
312.727	94.72
312.941	-44.54
313.154	74.24
313.368	10.75
313.582	102.91
313.796	76.29
314.009	-56.83
314.223	49.66
314.437	45.57
314.651	2.56
314.864	4.61
315.078	25.09
315.292	37.38
315.505	-34.3
315.719	31.23
315.933	100.86
316.146	33.28
316.36	-73.21
316.573	64
316.787	33.28
317.001	61.95
317.214	-22.02
317.428	6.66
317.641	23.04
317.855	-19.97
318.068	74.24
318.282	29.18
318.495	57.86
318.709	8.7
318.922	25.09
319.136	61.95
319.349	78.33
319.563	102.91
319.776	20.99
319.99	-40.45
320.203	74.24
320.417	61.95
320.63	45.57
320.843	70.14
321.057	18.94
321.27	-26.11
321.483	33.28
321.697	49.66
321.91	61.95
322.124	-13.82
322.337	51.71
322.55	35.33
322.763	-1.54
322.977	33.28
323.19	-28.16
323.403	-13.82
323.617	14.85
323.83	-15.87
324.043	-54.78
324.256	82.43
324.469	-30.21
324.683	-34.3
324.896	-17.92
325.109	23.04
325.322	0.51
325.535	20.99
325.748	0.51
325.962	2.56
326.175	59.9
326.388	78.33
326.601	10.75
326.814	41.47
327.027	45.57
327.24	33.28
327.453	-54.78
327.666	49.66
327.879	127.49
328.092	80.38
328.305	29.18
328.518	-81.41
328.731	16.9
328.944	35.33
329.157	55.81
329.37	2.56
329.583	14.85
329.796	86.53
330.009	-42.5
330.222	12.8
330.435	66.05
330.648	43.52
330.861	8.7
331.073	16.9
331.286	51.71
331.499	37.38
331.712	12.8
331.925	18.94
332.138	35.33
332.35	-13.82
332.563	-48.64
332.776	-5.63
332.989	37.38
333.202	-1.54
333.414	8.7
333.627	53.76
333.84	8.7
334.053	-1.54
334.265	2.56
334.478	10.75
334.691	41.47
334.903	27.14
335.116	-48.64
335.329	31.23
335.541	20.99
335.754	53.76
335.966	-17.92
336.179	86.53
336.392	-38.4
336.604	-11.78
336.817	76.29
337.029	-30.21
337.242	6.66
337.454	35.33
337.667	57.86
337.88	53.76
338.092	20.99
338.305	0.51
338.517	57.86
338.729	57.86
338.942	-3.58
339.154	-11.78
339.367	18.94
339.579	25.09
339.792	29.18
340.004	84.48
340.217	-71.17
340.429	39.42
340.641	-15.87
340.854	23.04
341.066	39.42
341.278	80.38
341.491	2.56
341.703	61.95
341.915	12.8
342.128	37.38
342.34	109.05
342.552	41.47
342.764	0.51
342.977	84.48
343.189	20.99
343.401	45.57
343.613	74.24
343.826	86.53
344.038	-69.12
344.25	90.62
344.462	31.23
344.674	61.95
344.886	4.61
345.099	57.86
345.311	70.14
345.523	-42.5
345.735	29.18
345.947	4.61
346.159	29.18
346.371	-9.73
346.583	76.29
346.795	53.76
347.007	-67.07
347.219	84.48
347.431	64
347.643	12.8
347.855	-22.02
348.067	147.97
348.279	-67.07
348.491	39.42
348.703	-34.3
348.915	12.8
349.127	35.33
349.339	25.09
349.551	51.71
349.763	66.05
349.975	-9.73
350.187	43.52
350.399	61.95
350.61	-11.78
350.822	-22.02
351.034	37.38
351.246	35.33
351.458	61.95
351.669	8.7
351.881	2.56
352.093	33.28
352.305	51.71
352.517	29.18
352.728	37.38
352.94	27.14
353.152	-19.97
353.363	4.61
353.575	88.57
353.787	74.24
353.999	14.85
354.21	55.81
354.422	-1.54
354.633	-3.58
354.845	64
355.057	76.29
355.268	16.9
355.48	29.18
355.692	41.47
355.903	10.75
356.115	-5.63
356.326	27.14
356.538	107.01
356.749	-17.92
356.961	68.09
357.172	37.38
357.384	33.28
357.595	94.72
357.807	55.81
358.018	64
358.23	-19.97
358.441	88.57
358.653	55.81
358.864	39.42
359.075	-17.92
359.287	16.9
359.498	94.72
359.709	41.47
359.921	8.7
360.132	-15.87
360.344	57.86
360.555	78.33
360.766	123.39
360.977	-46.59
361.189	61.95
361.4	20.99
361.611	8.7
361.823	12.8
362.034	45.57
362.245	8.7
362.456	70.14
362.667	16.9
362.879	10.75
363.09	20.99
363.301	4.61
363.512	20.99
363.723	12.8
363.935	59.9
364.146	139.77
364.357	76.29
364.568	18.94
364.779	0.51
364.99	92.67
365.201	88.57
365.412	20.99
365.623	-22.02
365.834	64
366.045	14.85
366.256	47.62
366.467	74.24
366.678	-13.82
366.889	35.33
367.1	115.2
367.311	43.52
367.522	25.09
367.733	0.51
367.944	74.24
368.155	84.48
368.366	86.53
368.577	102.91
368.788	72.19
368.999	29.18
369.209	41.47
369.42	129.53
369.631	16.9
369.842	20.99
370.053	66.05
370.264	45.57
370.474	-26.11
370.685	78.33
370.896	55.81
371.107	131.58
371.317	4.61
371.528	-40.45
371.739	29.18
371.95	8.7
372.16	-3.58
372.371	-3.58
372.582	35.33
372.792	74.24
373.003	82.43
373.214	66.05
373.424	16.9
373.635	45.57
373.846	23.04
374.056	51.71
374.267	47.62
374.477	-32.26
374.688	27.14
374.898	12.8
375.109	12.8
375.319	-79.36
375.53	51.71
375.74	59.9
375.951	14.85
376.161	41.47
376.372	74.24
376.582	-40.45
376.793	0.51
377.003	14.85
377.214	-38.4
377.424	10.75
377.635	61.95
377.845	27.14
378.055	94.72
378.266	31.23
378.476	86.53
378.686	-9.73
378.897	57.86
379.107	31.23
379.317	29.18
379.528	74.24
379.738	29.18
379.948	4.61
380.158	41.47
380.369	12.8
380.579	90.62
380.789	33.28
380.999	80.38
381.21	49.66
381.42	109.05
381.63	8.7
381.84	-36.35
382.05	-15.87
382.261	102.91
382.471	53.76
382.681	6.66
382.891	59.9
383.101	53.76
383.311	25.09
383.521	64
383.731	115.2
383.941	96.77
384.151	74.24
384.361	-28.16
384.571	8.7
384.781	92.67
384.991	51.71
385.201	72.19
385.411	66.05
385.621	25.09
385.831	-30.21
386.041	41.47
386.251	45.57
386.461	57.86
386.671	20.99
386.881	68.09
387.091	33.28
387.301	88.57
387.511	51.71
387.72	98.81
387.93	53.76
388.14	61.95
388.35	33.28
388.56	100.86
388.769	90.62
388.979	-28.16
389.189	10.75
389.399	98.81
389.609	82.43
389.818	57.86
390.028	70.14
390.238	119.29
390.447	59.9
390.657	27.14
390.867	37.38
391.076	92.67
391.286	20.99
391.496	39.42
391.705	29.18
391.915	76.29
392.125	141.82
392.334	107.01
392.544	135.68
392.753	86.53
392.963	29.18
393.172	66.05
393.382	14.85
393.591	20.99
393.801	37.38
394.01	150.01
394.22	53.76
394.429	27.14
394.639	12.8
394.848	121.34
395.058	123.39
395.267	35.33
395.477	74.24
395.686	98.81
395.895	115.2
396.105	111.1
396.314	59.9
396.524	121.34
396.733	43.52
396.942	82.43
397.152	156.16
397.361	104.96
397.57	123.39
397.78	156.16
397.989	78.33
398.198	107.01
398.407	53.76
398.617	135.68
398.826	49.66
399.035	90.62
399.244	88.57
399.453	72.19
399.663	61.95
399.872	143.87
400.081	53.76
400.29	139.77
400.499	100.86
400.708	119.29
400.917	64
401.127	45.57
401.336	98.81
401.545	135.68
401.754	180.73
401.963	195.07
402.172	35.33
402.381	70.14
402.59	98.81
402.799	90.62
403.008	121.34
403.217	100.86
403.426	184.83
403.635	74.24
403.844	98.81
404.053	125.44
404.262	64
404.471	78.33
404.68	176.64
404.888	129.53
405.097	156.16
405.306	184.83
405.515	129.53
405.724	127.49
405.933	184.83
406.142	166.4
406.35	236.03
406.559	178.69
406.768	162.3
406.977	279.04
407.185	152.06
407.394	238.08
407.603	170.49
407.812	182.78
408.02	244.22
408.229	168.45
408.438	276.99
408.646	207.36
408.855	176.64
409.064	168.45
409.272	236.03
409.481	258.56
409.69	274.94
409.898	291.32
410.107	336.38
410.315	328.19
410.524	262.65
410.733	322.04
410.941	365.05
411.15	424.44
411.358	373.24
411.567	465.4
411.775	369.15
411.984	358.91
412.192	432.63
412.401	414.2
412.609	440.83
412.818	549.37
413.026	479.74
413.234	455.16
413.443	481.78
413.651	584.18
413.86	459.26
414.068	619
414.276	657.91
414.485	741.88
414.693	616.95
414.901	721.4
415.11	760.31
415.318	698.87
415.526	754.16
415.734	811.51
415.943	848.37
416.151	868.85
416.359	799.22
416.567	938.48
416.776	938.48
416.984	948.72
417.192	1024.5
417.4	952.82
417.608	1053.17
417.817	1141.23
418.025	1157.61
418.233	1266.16
418.441	1159.66
418.649	1354.22
418.857	1288.68
419.065	1343.98
419.273	1315.31
419.481	1483.24
419.689	1511.91
419.897	1509.86
420.105	1581.54
420.313	1597.93
420.521	1642.98
420.729	1708.52
420.937	1749.48
421.145	1946.08
421.353	1976.8
421.561	2060.77
421.769	2130.4
421.977	2173.41
422.185	2134.5
422.393	2228.7
422.601	2425.31
422.809	2382.3
423.017	2472.41
423.224	2367.96
423.432	2640.34
423.64	2783.7
423.848	2765.27
424.056	2691.54
424.263	3027.41
424.471	3004.88
424.679	2980.31
424.887	3279.31
425.094	3420.62
425.302	3312.08
425.51	3541.45
425.718	3584.46
425.925	3582.41
426.133	3740.1
426.341	4018.63
426.548	4114.88
426.756	4071.87
426.964	4125.12
427.171	4301.25
427.379	4538.81
427.586	4493.76
427.794	4686.26
428.001	4854.2
428.209	5061.04
428.417	5020.08
428.624	5513.64
428.832	5421.49
429.039	5464.49
429.247	5310.89
429.454	5999.01
429.662	6408.61
429.869	5773.74
430.076	6328.74
430.284	6119.84
430.491	6502.81
430.699	6791.58
430.906	6834.58
431.114	6775.19
431.321	7006.61
431.528	7244.18
431.736	7811.46
431.943	8003.97
432.15	7862.66
432.358	7954.82
432.565	8268.16
432.772	8255.87
432.979	8831.35
433.187	8788.35
433.394	9030.01
433.601	9539.95
433.808	9464.18
434.016	9572.72
434.223	9849.19
434.43	10412.39
434.637	10189.16
434.844	10756.44
435.052	11088.21
435.259	11184.47
435.466	11145.56
435.673	10912.09
435.88	11762
436.087	12390.72
436.294	12372.29
436.501	12110.15
436.708	12341.57
436.915	12958.01
437.122	13138.23
437.329	13437.23
437.537	13746.48
437.743	14008.62
437.95	14016.81
438.157	14395.68
438.364	14874.91
438.571	15042.84
438.778	14962.97
438.985	16427.27
439.192	15896.85
439.399	16333.06
439.606	16097.55
439.813	16941.31
440.02	17772.78
440.227	17553.65
440.433	17410.29
440.64	18094.32
440.847	17926.38
441.054	18241.77
441.261	19499.22
441.467	19169.5
441.674	19769.55
441.881	20328.65
442.088	20220.11
442.294	20074.7
442.501	20265.16
442.708	20994.24
442.914	21872.82
443.121	22911.14
443.328	21895.35
443.534	23726.23
443.741	22923.43
443.948	22737.06
444.154	24404.11
444.361	23984.27
444.568	24574.09
444.774	24244.37
444.981	24465.55
445.187	25247.87
445.394	26273.9
445.6	26163.31
445.807	28481.61
446.013	27506.78
446.22	27797.59
446.426	28751.95
446.633	29161.54
446.839	29792.31
447.046	28780.62
447.252	29954.1
447.459	30273.59
447.665	29939.77
447.871	31459.36
448.078	32636.94
448.284	31229.99
448.491	32274.45
448.697	33396.74
448.903	33921.02
449.11	33789.95
449.316	33529.86
449.522	33544.19
449.728	34717.68
449.935	34629.62
450.141	34951.15
450.347	35833.82
450.553	34494.45
450.76	34889.71
450.966	35618.78
451.172	35487.71
451.378	36169.69
451.584	36372.44
451.791	36466.64
451.997	36415.44
452.203	36984.78
452.409	36736.98
452.615	36947.92
452.821	35524.58
453.027	34883.56
453.233	36732.88
453.44	35297.25
453.646	35461.09
453.852	35942.36
454.058	36247.51
454.264	35317.73
454.47	35991.51
454.676	34822.12
454.882	36532.18
455.088	33153.03
455.294	33468.42
455.5	33900.54
455.705	34205.69
455.911	32604.17
456.117	32538.64
456.323	31733.79
456.529	29900.86
456.735	31268.9
456.941	30384.18
457.147	29661.24
457.352	28764.23
457.558	28524.62
457.764	28715.08
457.97	28092.5
458.176	27510.88
458.381	27666.52
458.587	25962.61
458.793	26288.24
458.999	24905.86
459.204	26458.22
459.41	26191.98
459.616	24135.82
459.821	24285.33
460.027	24209.55
460.233	23632.02
460.438	22309.04
460.644	22702.25
460.85	21749.94
461.055	21270.72
461.261	21129.41
461.466	19732.69
461.672	19212.51
461.878	20691.14
462.083	19284.19
462.289	19050.72
462.494	18657.51
462.7	18165.99
462.905	17346.81
463.111	17944.81
463.316	18039.02
463.522	17502.45
463.727	17453.3
463.932	17666.29
464.138	17299.7
464.343	17508.6
464.549	16965.89
464.754	17664.24
464.959	17412.34
465.165	17328.38
465.37	16791.81
465.575	16122.12
465.781	16855.29
465.986	16957.69
466.191	16269.58
466.397	16027.92
466.602	15118.62
466.807	15700.24
467.012	15802.64
467.218	15665.42
467.423	15667.47
467.628	15681.81
467.833	16023.82
468.038	15976.72
468.244	15186.2
468.449	15943.95
468.654	15147.29
468.859	15077.66
469.064	15044.89
469.269	14588.19
469.474	14567.71
469.679	14899.48
469.885	14479.65
470.09	14520.61
470.295	14625.06
470.5	14272.81
470.705	14405.92
470.91	13975.85
471.115	13830.44
471.32	14201.13
471.525	13736.24
471.73	13648.18
471.935	13359.41
472.139	13123.9
472.344	13242.68
472.549	13173.05
472.754	12855.61
472.959	12513.6
473.164	12310.85
473.369	12169.54
473.574	12652.86
473.778	12572.99
473.983	12386.63
474.188	12335.43
474.393	11940.17
474.598	12044.62
474.802	11845.96
475.007	11837.77
475.212	11774.28
475.417	11243.86
475.621	11428.18
475.826	11370.83
476.031	11442.51
476.235	10981.72
476.44	11098.45
476.645	10967.38
476.849	11055.45
477.054	10907.99
477.259	10674.53
477.463	10674.53
477.668	10318.18
477.872	10639.71
478.077	10324.32
478.282	10086.76
478.486	10117.48
478.691	9988.46
478.895	10183.01
479.1	10002.79
479.304	9965.93
479.509	9595.25
479.713	9714.03
479.918	9554.29
480.122	9566.57
480.326	9711.98
480.531	9441.65
480.735	9501.04
480.94	9468.27
481.144	9759.08
481.348	9333.11
481.553	9382.26
481.757	9249.14
481.961	9412.98
482.166	9443.7
482.37	9382.26
482.574	9124.21
482.778	9148.79
482.983	9408.88
483.187	9326.96
483.391	9290.1
483.595	9173.36
483.8	9019.77
484.004	9273.71
484.208	9367.92
484.412	9382.26
484.616	9451.89
484.821	9283.95
485.025	9109.88
485.229	9185.65
485.433	9103.73
485.637	9238.9
485.841	9185.65
486.045	9150.84
486.249	9464.18
486.453	9122.16
486.657	9249.14
486.861	9306.48
487.065	9306.48
487.269	9036.15
487.473	9118.07
487.677	9343.35
487.881	9236.85
488.085	9214.32
488.289	9220.47
488.493	9286
488.697	9482.61
488.901	9496.94
489.105	9509.23
489.309	9400.69
489.512	9290.1
489.716	9365.87
489.92	9415.02
490.124	9384.3
490.328	9683.31
490.531	9415.02
490.735	9484.66
490.939	9711.98
491.143	9492.85
491.346	9693.55
491.55	9771.37
491.754	9660.78
491.958	9875.82
492.161	9822.57
492.365	9972.07
492.569	9625.97
492.772	9845.1
492.976	9689.45
493.18	10035.56
493.383	10076.52
493.587	9990.5
493.79	10314.08
493.994	10125.67
494.197	10295.65
494.401	10365.28
494.605	10287.46
494.808	10338.66
495.012	10596.7
495.215	10443.1
495.419	10721.63
495.622	10768.73
495.825	10838.36
496.029	10785.12
496.232	11018.58
496.436	11147.61
496.639	11325.78
496.843	11462.99
497.046	11618.64
497.249	11878.73
497.453	11747.66
497.656	11514.19
497.859	11805
498.063	11931.98
498.266	12198.21
498.469	12228.93
498.673	12247.37
498.876	12474.69
499.079	12630.34
499.282	12630.34
499.485	12808.51
499.689	13029.69
499.892	13033.79
500.095	13226.29
500.298	13703.47
500.501	13316.4
500.705	13500.72
500.908	13973.8
501.111	14154.02
501.314	14184.74
501.517	14426.4
501.72	14555.43
501.923	14518.56
502.126	14831.9
502.329	15046.94
502.532	15247.64
502.735	15218.97
502.938	15530.26
503.141	15456.53
503.344	15868.17
503.547	15708.43
503.75	16038.16
503.953	16337.16
504.156	16437.51
504.359	16646.4
504.562	16804.1
504.765	16888.06
504.968	17180.92
505.17	17481.97
505.373	17309.94
505.576	17914.09
505.779	17879.28
505.982	18155.75
506.185	18282.73
506.387	18409.7
506.59	18733.28
506.793	18833.63
506.996	18866.4
507.198	19581.14
507.401	19349.72
507.604	19755.22
507.807	19988.69
508.009	20177.1
508.212	20107.47
508.415	20539.59
508.617	20619.46
508.82	20842.69
509.022	20863.17
509.225	21383.35
509.428	21635.25
509.63	21653.69
509.833	21534.9
510.035	22055.09
510.238	22079.66
510.44	22624.42
510.643	22931.62
510.845	23173.28
511.048	22993.06
511.25	23556.25
511.453	23314.59
511.655	24600.71
511.858	23888.02
512.06	24088.72
512.262	24404.11
512.465	24490.12
512.667	24813.7
512.87	25301.12
513.072	25176.19
513.274	25733.24
513.477	25757.81
513.679	26402.93
513.881	26456.17
514.084	26583.15
514.286	26749.03
514.488	26904.68
514.69	27730.01
514.893	27881.56
515.095	27551.84
515.297	28381.26
515.499	28266.58
515.701	28837.96
515.904	28682.31
516.106	29007.94
516.308	29696.06
516.51	29907
516.712	29831.22
516.914	30236.72
517.116	30697.52
517.318	30654.51
517.52	30670.89
517.722	30930.98
517.925	31348.77
518.127	32391.19
518.329	31561.76
518.531	31651.87
518.733	32520.21
518.935	32909.32
519.136	32860.17
519.338	33294.34
519.54	33243.14
519.742	33665.02
519.944	33998.84
520.146	34351.09
520.348	34224.12
520.55	34883.56
520.752	35071.98
520.954	35753.95
521.155	35307.49
521.357	35850.2
521.559	36321.24
521.761	36820.94
521.963	36300.76
522.164	37093.32
522.366	37083.08
522.568	37242.82
522.77	37253.06
522.971	37849.02
523.173	37799.87
523.375	38514.61
523.576	38244.28
523.778	38254.52
523.98	38913.97
524.181	39454.63
524.383	39317.42
524.584	39610.28
524.786	40044.44
524.988	39630.76
525.189	40263.58
525.391	40478.61
525.592	40718.23
525.794	41183.12
525.995	40945.55
526.197	40837.01
526.398	41125.77
526.6	41183.12
526.801	41863.04
527.003	41760.64
527.204	41846.66
527.406	41842.56
527.607	42407.8
527.808	42516.34
528.01	41631.62
528.211	41953.15
528.412	43067.25
528.614	42780.53
528.815	42727.28
529.016	43390.83
529.218	43001.71
529.419	43128.69
529.62	43009.9
529.822	43140.97
530.023	43554.66
530.224	43362.15
530.425	43542.38
530.626	43489.13
530.828	43290.48
531.029	44250.97
531.23	43861.86
531.431	43769.7
531.632	44027.74
531.833	44336.99
532.035	43730.79
532.236	44156.77
532.437	44291.93
532.638	44193.63
532.839	44484.44
533.04	44896.08
533.241	44214.11
533.442	45086.54
533.643	44922.71
533.844	44396.38
534.045	44695.38
534.246	43943.78
534.447	44967.76
534.648	44623.7
534.849	44461.91
535.05	44844.88
535.251	45041.49
535.451	44861.27
535.652	44996.43
535.853	44762.96
536.054	44957.52
536.255	44926.8
536.456	44336.99
536.657	45037.39
536.857	44646.23
537.058	44967.76
537.259	45408.08
537.46	44664.66
537.66	44742.49
537.861	44941.14
538.062	44402.52
538.263	44830.55
538.463	44818.26
538.664	44814.16
538.865	44599.13
539.065	45234
539.266	44846.93
539.466	45061.97
539.667	44250.97
539.868	44871.51
540.068	45256.53
540.269	44502.87
540.469	45225.81
540.67	44332.89
540.87	44840.79
541.071	44930.9
541.271	45078.35
541.472	44638.04
541.672	44601.18
541.873	44502.87
542.073	43919.2
542.274	44681.05
542.474	44627.8
542.675	44640.09
542.875	44789.59
543.075	44795.73
543.276	44433.24
543.476	45219.66
543.676	44580.7
543.877	44967.76
544.077	44644.18
544.277	44660.57
544.478	44590.94
544.678	44771.16
544.878	44410.71
545.078	44808.02
545.279	44535.64
545.479	44201.82
545.679	44390.23
545.879	45262.67
546.079	44244.83
546.28	44425.05
546.48	44050.27
546.68	44445.53
546.88	44629.85
547.08	44605.27
547.28	44285.79
547.48	44087.14
547.68	44521.3
547.88	44103.52
548.081	44717.91
548.281	44226.4
548.481	44117.85
548.681	44730.2
548.881	44554.07
549.081	44210.01
549.28	44306.27
549.48	44531.54
549.68	43943.78
549.88	44670.81
550.08	44355.42
550.28	44328.8
550.48	44263.26
550.68	44728.15
550.88	44070.75
551.08	44349.28
551.279	44257.12
551.479	44072.8
551.679	44291.93
551.879	43521.9
552.079	44394.33
552.278	44169.05
552.478	44562.26
552.678	44328.8
552.878	44382.04
553.077	43718.5
553.277	43749.22
553.477	44365.66
553.676	43771.75
553.876	43767.65
554.076	43951.97
554.275	44195.68
554.475	43319.15
554.674	44048.22
554.874	43650.92
555.074	43708.26
555.273	44062.56
555.473	44357.47
555.672	43624.29
555.872	43849.57
556.071	43804.52
556.271	43958.11
556.47	43423.59
556.67	42887.03
556.869	43282.28
557.068	43372.39
557.268	43120.49
557.467	43245.42
557.667	43265.9
557.866	43558.76
558.065	43161.45
558.265	42923.89
558.464	42985.33
558.663	43474.79
558.863	42413.94
559.062	43190.12
559.261	42614.65
559.461	42895.22
559.66	42450.81
559.859	43083.63
560.058	42264.44
560.258	42596.21
560.457	42254.2
560.656	42860.4
560.855	42006.4
561.054	42350.46
561.253	42129.28
561.453	42475.38
561.652	42346.36
561.851	42235.77
562.05	41942.91
562.249	41940.86
562.448	41951.1
562.647	41899.9
562.846	41551.75
563.045	41904
563.244	41371.53
563.443	41895.81
563.642	40802.19
563.841	41428.87
564.04	41346.95
564.239	41445.26
564.438	40783.76
564.637	41019.28
564.836	40853.39
565.035	40292.25
565.234	41205.64
565.432	40718.23
565.631	40470.42
565.83	40755.09
566.029	40413.08
566.228	40564.63
566.427	40318.87
566.625	39853.98
566.824	39559.08
567.023	40325.02
567.222	39501.73
567.42	39888.8
567.619	39899.04
567.818	39780.26
568.016	39583.65
568.215	39772.07
568.414	39600.04
568.612	39946.14
568.811	39196.59
569.01	39188.39
569.208	38901.68
569.407	39198.63
569.605	38690.74
569.804	39002.03
570.002	38197.18
570.201	38778.8
570.4	38467.51
570.598	38477.75
570.797	38391.73
570.995	38463.41
571.193	37615.55
571.392	38410.17
571.59	37926.85
571.789	38041.53
571.987	37916.61
572.186	37928.89
572.384	37535.68
572.582	37558.21
572.781	37550.02
572.979	36962.25
573.177	37517.25
573.376	37392.33
573.574	36614.1
573.772	36638.67
573.971	36958.16
574.169	36612.05
574.367	36558.8
574.565	36984.78
574.763	36710.35
574.962	36349.91
575.16	36204.5
575.358	36095.96
575.556	35936.22
575.754	36409.3
575.952	36091.87
576.151	36364.25
576.349	35489.76
576.547	35420.13
576.745	35842.01
576.943	35473.38
577.141	35586.02
577.339	35799.01
577.537	34949.1
577.735	35561.44
577.933	34758.64
578.131	35110.89
578.329	34988.01
578.527	34613.23
578.725	34699.25
578.923	35006.44
579.121	34584.56
579.319	34590.7
579.516	34830.32
579.714	34123.77
579.912	34508.79
580.11	34228.21
580.308	33970.17
580.506	33957.88
580.704	33462.27
580.901	33945.59
581.099	34109.43
581.297	33617.92
581.495	33689.6
581.692	33705.98
581.89	33280
582.088	33523.71
582.285	33327.11
582.483	33323.01
582.681	33132.55
582.878	32808.97
583.076	32735.24
583.274	33089.54
583.471	32616.46
583.669	32579.6
583.866	32446.48
584.064	32626.7
584.262	32393.23
584.459	32878.6
584.657	32528.4
584.854	32278.55
585.052	32159.77
585.249	32018.46
585.447	32047.13
585.644	31748.12
585.841	31875.1
586.039	32002.07
586.236	31422.5
586.434	31346.72
586.631	31242.28
586.828	31635.49
587.026	31664.16
587.223	31029.29
587.42	30945.32
587.618	31191.08
587.815	31021.09
588.012	30969.9
588.21	30867.5
588.407	30973.99
588.604	30672.94
588.801	30218.29
588.999	30324.79
589.196	30498.86
589.393	30480.43
589.59	29907
589.787	30222.39
589.984	30165.04
590.182	29593.66
590.379	29941.82
590.576	29325.38
590.773	29661.24
590.97	29896.76
591.167	29849.66
591.364	29517.89
591.561	29517.89
591.758	29374.53
591.955	29134.92
592.152	29222.98
592.349	28899.4
592.546	29145.16
592.743	28983.37
592.94	28733.51
593.137	28893.26
593.334	29005.89
593.531	28442.7
593.727	28395.6
593.924	28713.03
594.121	28395.6
594.318	28506.19
594.515	28008.53
594.712	28381.26
594.908	27828.31
595.105	27947.09
595.302	27879.51
595.499	27719.77
595.696	27953.24
595.892	27807.83
596.089	27594.84
596.286	27732.06
596.482	27424.86
596.679	27627.61
596.876	27711.58
597.072	27469.92
597.269	27422.81
597.466	26665.07
597.662	26902.63
597.859	26966.12
598.055	26996.84
598.252	26597.48
598.448	26583.15
598.645	26658.92
598.841	26280.05
599.038	26447.98
599.234	26341.49
599.431	26069.11
599.627	26015.86
599.824	26638.44
600.02	25921.65
600.217	26073.2
600.413	26034.29
600.609	25534.59
600.806	25530.49
601.002	25653.37
601.198	25462.91
601.395	25272.45
601.591	25237.63
601.787	25770.1
601.984	25301.12
602.18	25178.24
602.376	25358.46
602.572	25168
602.769	25190.53
602.965	24656.01
603.161	24686.73
603.357	25077.89
603.553	24445.07
603.75	24385.68
603.946	24725.64
604.142	24557.71
604.338	24488.07
604.534	24811.65
604.73	23926.93
604.926	24098.96
605.122	24103.06
605.318	23699.61
605.514	24027.28
605.71	23777.43
605.906	23672.98
606.102	23718.04
606.298	23879.83
606.494	23967.89
606.69	23527.58
606.886	23482.52
607.082	23421.08
607.278	23406.75
607.474	22970.53
607.67	23562.39
607.866	23498.91
608.062	23320.73
608.257	23103.65
608.453	23304.35
608.649	23183.52
608.845	23074.98
609.041	22812.84
609.236	23001.25
609.432	22993.06
609.628	22821.03
609.824	22624.42
610.019	22683.81
610.215	22802.6
610.411	22919.33
610.606	22347.95
610.802	22413.48
610.998	22440.11
611.193	22620.33
611.389	22263.98
611.584	22585.51
611.78	22198.45
611.976	22315.18
612.171	22069.42
612.367	21903.54
612.562	21950.64
612.758	21874.87
612.953	21838
613.149	22167.73
613.344	21721.27
613.539	21903.54
613.735	22116.53
613.93	22079.66
614.126	21741.75
614.321	21725.36
614.517	21739.7
614.712	21625.01
614.907	21553.34
615.103	21661.88
615.298	21450.94
615.493	21313.72
615.688	21018.82
615.884	21708.98
616.079	21381.31
616.274	21143.74
616.47	20957.38
616.665	21055.68
616.86	20998.34
617.055	20867.27
617.25	20510.92
617.445	20961.47
617.641	20549.83
617.836	20979.9
618.031	20218.06
618.226	20678.85
618.421	20461.77
618.616	20924.61
618.811	20246.73
619.006	20619.46
619.201	20027.6
619.396	20355.27
619.591	20048.08
619.786	20119.76
619.981	19957.97
620.176	20048.08
620.371	19693.78
620.566	19947.73
620.761	19755.22
620.956	19620.05
621.151	19544.28
621.346	19542.23
621.541	19448.02
621.735	19611.86
621.93	19103.96
622.125	19056.86
622.32	18829.54
622.515	18831.58
622.709	18764
622.904	18903.26
623.099	18448.61
623.294	18692.32
623.488	18338.02
623.683	18657.51
623.878	18022.64
624.072	18139.37
624.267	17873.14
624.462	17977.58
624.656	17565.94
624.851	18063.6
625.046	17680.63
625.24	17676.53
625.435	17543.41
625.629	17666.29
625.824	17430.77
626.018	17301.75
626.213	16931.07
626.407	17006.84
626.602	16548.1
626.796	16976.12
626.991	16986.36
627.185	16630.02
627.38	16486.66
627.574	16695.55
627.768	16064.78
627.963	16431.37
628.157	16048.4
628.352	16132.36
628.546	15976.72
628.74	15866.13
628.935	15804.69
629.129	15874.32
629.323	15632.66
629.517	15552.79
629.712	15460.63
629.906	15511.83
630.1	15612.18
630.294	15495.44
630.489	15302.93
630.683	15458.58
630.877	14983.45
631.071	14790.94
631.265	14944.54
631.459	14782.75
631.653	14709.02
631.848	14792.99
632.042	14586.15
632.236	14508.32
632.43	14426.4
632.624	14569.76
632.818	14100.78
633.012	13910.32
633.206	14301.48
633.4	14168.36
633.594	13990.19
633.788	14111.02
633.982	13783.34
634.176	13932.84
634.369	13676.85
634.563	13519.15
634.757	13535.54
634.951	13543.73
635.145	13488.43
635.339	13306.16
635.533	13277.49
635.726	13205.81
635.92	13025.59
636.114	13111.61
636.308	12931.39
636.501	13015.35
636.695	12906.81
636.889	12749.12
637.083	12833.08
637.276	12671.29
637.47	12380.48
637.664	12237.13
637.857	12456.26
638.051	12523.84
638.244	12388.67
638.438	12214.6
638.632	12304.71
638.825	12114.25
639.019	11829.58
639.212	12001.61
639.406	11888.97
639.599	11739.47
639.793	11753.8
639.986	11551.06
640.18	11829.58
640.373	11712.85
640.567	11399.51
640.76	11448.66
640.954	11250
641.147	11235.67
641.34	11207
641.534	11080.02
641.727	11100.5
641.92	11243.86
642.114	11018.58
642.307	10907.99
642.5	10795.36
642.694	10537.31
642.887	10817.88
643.08	10549.6
643.273	10725.72
643.467	10658.14
643.66	10453.34
643.853	10441.06
644.046	10420.58
644.239	10135.91
644.432	10094.95
644.626	10250.6
644.819	10232.16
645.012	10144.1
645.205	10086.76
645.398	10105.19
645.591	9908.58
645.784	9781.61
645.977	9767.27
646.17	9744.75
646.363	9716.08
646.556	9697.64
646.749	9519.47
646.942	9552.24
647.135	9601.39
647.328	9376.11
647.521	9517.42
647.714	9267.57
647.907	9384.3
648.099	9253.23
648.292	9202.04
648.485	9220.47
648.678	8862.07
648.871	9046.39
649.064	8966.52
649.256	9070.97
649.449	8810.87
649.642	8728.95
649.835	8659.32
650.027	8587.64
650.22	8663.42
650.413	8741.24
650.605	8636.8
650.798	8481.15
650.991	8503.68
651.183	8579.45
651.376	8300.93
651.568	8632.7
651.761	8243.59
651.954	8315.27
652.146	8122.76
652.339	8317.31
652.531	8161.67
652.724	8212.87
652.916	8020.36
653.109	8075.65
653.301	7940.49
653.494	8042.89
653.686	7858.57
653.879	7872.9
654.071	7614.86
654.263	7829.9
654.456	7860.62
654.648	7686.54
654.84	7571.85
655.033	7518.61
655.225	7588.24
655.417	7491.98
655.61	7596.43
655.802	7532.94
655.994	7215.51
656.186	7487.89
656.379	7336.34
656.571	7403.92
656.763	7299.47
656.955	6990.23
657.148	7240.08
657.34	7129.49
657.532	6975.89
657.724	6951.32
657.916	6959.51
658.108	6965.65
658.3	6836.63
658.492	6812.06
658.684	6822.3
658.876	6748.57
659.068	6777.24
659.26	6730.14
659.452	6793.62
659.644	6635.93
659.836	6613.4
660.028	6734.23
660.22	6556.06
660.412	6394.27
660.604	6422.94
660.796	6371.74
660.988	6525.34
661.18	6298.02
661.372	6281.63
661.563	6345.12
661.755	6162.85
661.947	6347.17
662.139	6377.89
662.331	6246.82
662.522	6082.98
662.714	6056.36
662.906	6007.2
663.097	6087.08
663.289	5915.05
663.481	5964.2
663.673	5853.61
663.864	5728.68
664.056	5673.39
664.247	5859.75
664.439	5638.57
664.631	5722.54
664.822	5722.54
665.014	5747.11
665.205	5650.86
665.397	5525.93
665.588	5591.47
665.78	5403.05
665.971	5476.78
666.163	5456.3
666.354	5401.01
666.546	5339.57
666.737	5333.42
666.929	5419.44
667.12	5396.91
667.311	5409.2
667.503	5216.69
667.694	5329.33
667.885	5312.94
668.077	5253.55
668.268	5204.4
668.459	5208.5
668.651	5239.22
668.842	5153.2
669.033	5149.11
669.224	4966.84
669.416	5120.43
669.607	5099.95
669.798	5030.32
669.989	5030.32
670.18	5030.32
670.371	4944.31
670.563	4893.11
670.754	4958.64
670.945	4684.22
671.136	4819.38
671.327	4884.92
671.518	4702.65
671.709	4702.65
671.9	4655.54
672.091	4782.52
672.282	4727.22
672.473	4585.91
672.664	4600.25
672.855	4633.02
673.046	4598.2
673.237	4641.21
673.428	4475.32
673.619	4395.45
673.809	4547
674	4563.39
674.191	4444.6
674.382	4551.1
674.573	4444.6
674.764	4319.68
674.954	4485.56
675.145	4186.56
675.336	4256.19
675.527	4379.07
675.717	4170.18
675.908	4235.71
676.099	4358.59
676.289	4166.08
676.48	4186.56
676.671	4080.07
676.861	4350.4
677.052	4123.07
677.243	4188.61
677.433	4125.12
677.624	4059.59
677.814	4131.26
678.005	4174.27
678.195	4037.06
678.386	4116.93
678.576	4055.49
678.767	3967.43
678.957	3969.48
679.148	3998.15
679.338	3977.67
679.529	4000.19
679.719	3959.24
679.909	3926.47
680.1	3842.5
680.29	3893.7
680.481	3787.21
680.671	3873.22
680.861	3879.36
681.052	3873.22
681.242	3682.76
681.432	3854.79
681.622	3738.05
681.813	3705.29
682.003	3756.49
682.193	3670.47
682.383	3770.82
682.573	3682.76
682.764	3760.58
682.954	3719.62
683.144	3615.18
683.334	3649.99
683.524	3715.53
683.714	3697.1
683.904	3559.88
684.094	3652.04
684.284	3731.91
684.474	3629.51
684.664	3641.8
684.854	3682.76
685.044	3750.34
685.234	3617.22
685.424	3516.87
685.614	3518.92
685.804	3553.74
685.994	3586.51
686.184	3402.19
686.374	3467.72
686.564	3418.57
686.753	3273.17
686.943	3359.18
687.133	3488.2
687.323	3359.18
687.513	3373.52
687.702	3244.49
687.892	3320.27
688.082	3275.21
688.272	3318.22
688.461	3199.44
688.651	3482.06
688.841	3267.02
689.03	3301.84
689.22	3144.14
689.41	3291.6
689.599	3178.96
689.789	3224.01
689.979	3207.63
690.168	3217.87
690.358	3039.7
690.547	3133.9
690.737	3221.97
690.926	3256.78
691.116	3099.09
691.305	3111.38
691.495	3056.08
691.684	3041.75
691.874	3109.33
692.063	3035.6
692.252	3051.99
692.442	3051.99
692.631	2927.06
692.82	3103.18
693.01	2935.25
693.199	2886.1
693.388	2912.72
693.578	2916.82
693.767	3109.33
693.956	2974.16
694.146	3019.22
694.335	2873.81
694.524	2992.59
694.713	2949.59
694.902	2949.59
695.092	2951.63
695.281	2982.35
695.47	2773.46
695.659	2900.44
695.848	2836.95
696.037	2830.8
696.226	2865.62
696.415	2802.13
696.604	2888.15
696.793	2892.24
696.982	2798.04
697.171	2843.09
697.36	2922.96
697.549	2824.66
697.738	2847.19
697.927	2769.37
698.116	2689.49
698.305	2841.04
698.494	2920.92
698.683	2843.09
698.872	2681.3
699.061	2816.47
699.25	2904.53
699.438	2804.18
699.627	2689.49
699.816	2916.82
700.005	2626.01
700.193	2861.52
700.382	2906.58
700.571	2791.89
700.76	2867.67
700.948	2783.7
701.137	2859.48
701.326	2845.14
701.514	2834.9
701.703	2763.22
701.892	2828.76
702.08	2875.86
702.269	2806.23
702.457	2820.56
702.646	2781.65
702.834	2839
703.023	2904.53
703.212	2793.94
703.4	2820.56
703.589	2839
703.777	2818.52
703.965	2877.91
704.154	2867.67
704.342	2759.13
704.531	2855.38
704.719	2769.37
704.907	2787.8
705.096	2841.04
705.284	2683.35
705.472	2834.9
705.661	2767.32
705.849	2818.52
706.037	2810.33
706.226	2818.52
706.414	2795.99
706.602	2671.06
706.79	2773.46
706.979	2830.8
707.167	2879.96
707.355	2779.61
707.543	2828.76
707.731	2617.82
707.919	2724.31
708.107	2742.74
708.296	2748.89
708.484	2697.69
708.672	2816.47
708.86	2755.03
709.048	2724.31
709.236	2714.07
709.424	2802.13
709.612	2810.33
709.8	2787.8
709.988	2697.69
710.176	2748.89
710.364	2793.94
710.551	2755.03
710.739	2691.54
710.927	2777.56
711.115	2795.99
711.303	2820.56
711.491	2730.45
711.679	2839
711.866	2757.08
712.054	2689.49
712.242	2771.41
712.43	2785.75
712.617	2814.42
712.805	2658.78
712.993	2736.6
713.181	2646.49
713.368	2757.08
713.556	2802.13
713.744	2726.36
713.931	2781.65
714.119	2734.55
714.306	2859.48
714.494	2742.74
714.682	2728.41
714.869	2628.06
715.057	2798.04
715.244	2648.54
715.432	2691.54
715.619	2683.35
715.807	2583
715.994	2728.41
716.182	2650.58
716.369	2587.1
716.556	2752.98
716.744	2660.82
716.931	2580.95
717.119	2699.73
717.306	2519.51
717.493	2734.55
717.681	2712.02
717.868	2675.16
718.055	2669.02
718.242	2677.21
718.43	2654.68
718.617	2601.43
718.804	2664.92
718.991	2613.72
719.179	2695.64
719.366	2712.02
719.553	2601.43
719.74	2642.39
719.927	2537.95
720.114	2673.11
720.301	2523.61
720.488	2525.66
720.676	2464.22
720.863	2755.03
721.05	2490.84
721.237	2666.97
721.424	2601.43
721.611	2578.9
721.798	2560.47
721.985	2693.59
722.172	2585.05
722.358	2609.62
722.545	2587.1
722.732	2423.26
722.919	2589.14
723.106	2578.9
723.293	2603.48
723.48	2548.19
723.667	2554.33
723.853	2490.84
724.04	2613.72
724.227	2539.99
724.414	2527.71
724.6	2482.65
724.787	2517.47
724.974	2421.21
725.161	2599.38
725.347	2476.51
725.534	2576.86
725.72	2533.85
725.907	2406.88
726.094	2566.62
726.28	2511.32
726.467	2439.64
726.653	2460.12
726.84	2679.26
727.027	2531.8
727.213	2380.25
727.4	2519.51
727.586	2404.83
727.773	2398.68
727.959	2458.07
728.145	2558.42
728.332	2396.64
728.518	2415.07
728.705	2361.82
728.891	2363.87
729.077	2417.12
729.264	2427.35
729.45	2304.48
729.636	2308.57
729.823	2296.28
730.009	2542.04
730.195	2470.36
730.382	2370.01
730.568	2300.38
730.754	2343.39
730.94	2329.05
731.126	2329.05
731.313	2374.11
731.499	2191.84
731.685	2435.55
731.871	2337.24
732.057	2402.78
732.243	2353.63
732.429	2286.05
732.615	2314.72
732.801	2413.02
732.987	2343.39
733.173	2300.38
733.359	2312.67
733.545	2290.14
733.731	2265.57
733.917	2253.28
734.103	2232.8
734.289	2372.06
734.475	2204.13
734.661	2359.77
734.847	2312.67
735.033	2195.93
735.219	2157.02
735.404	2261.47
735.59	2185.69
735.776	2111.97
735.962	2236.89
736.148	2120.16
736.333	2197.98
736.519	2138.59
736.705	2222.56
736.89	2300.38
737.076	2163.17
737.262	2132.45
737.447	2148.83
737.633	2173.41
737.819	2167.26
738.004	2154.98
738.19	2015.71
738.375	2130.4
738.561	2095.58
738.747	2034.14
738.932	2165.21
739.118	2109.92
739.303	2132.45
739.489	2105.82
739.674	2060.77
739.859	1876.45
740.045	2128.35
740.23	1929.7
740.416	1933.79
740.601	2071.01
740.786	2042.34
740.972	2038.24
741.157	1929.7
741.342	1929.7
741.528	1925.6
741.713	1984.99
741.898	1915.36
742.084	2028
742.269	1927.65
742.454	1993.19
742.639	1929.7
742.824	1958.37
743.01	1876.45
743.195	2042.34
743.38	1968.61
743.565	1825.25
743.75	1839.59
743.935	1755.62
744.12	1892.84
744.305	1796.58
744.49	1796.58
744.675	1876.45
744.86	1792.48
745.045	1796.58
745.23	1755.62
745.415	1724.9
745.6	1792.48
745.785	1761.77
745.97	1853.92
746.155	1796.58
746.34	1806.82
746.525	1759.72
746.71	1774.05
746.895	1626.6
747.079	1776.1
747.264	1645.03
747.449	1724.9
747.634	1718.76
747.819	1589.74
748.003	1591.78
748.188	1683.94
748.373	1626.6
748.557	1573.35
748.742	1550.82
748.927	1602.02
749.111	1530.34
749.296	1507.82
749.481	1464.81
749.665	1475.05
749.85	1487.34
750.034	1538.54
750.219	1520.1
750.404	1434.09
750.588	1473
750.773	1440.23
750.957	1335.79
751.141	1423.85
751.326	1380.84
751.51	1413.61
751.695	1452.52
751.879	1438.19
752.064	1417.71
752.248	1464.81
752.432	1456.62
752.617	1413.61
752.801	1446.38
752.985	1323.5
753.17	1378.79
753.354	1339.88
753.538	1294.83
753.722	1305.07
753.907	1290.73
754.091	1331.69
754.275	1346.03
754.459	1260.01
754.643	1286.64
754.828	1243.63
755.012	1305.07
755.196	1212.91
755.38	1280.49
755.564	1145.33
755.748	1159.66
755.932	1157.61
756.116	1200.62
756.3	1182.19
756.484	1274.35
756.668	1161.71
756.852	1094.13
757.036	1194.48
757.22	1153.52
757.404	1139.18
757.588	1157.61
757.772	1184.24
757.956	1112.56
758.14	1174
758.323	1219.05
758.507	1118.7
758.691	944.63
758.875	1061.36
759.059	1124.85
759.242	1092.08
759.426	1071.6
759.61	1214.96
759.794	1110.51
759.977	1149.42
760.161	1051.12
760.345	1106.42
760.528	1012.21
760.712	1030.64
760.895	1012.21
761.079	1073.65
761.263	967.15
761.446	952.82
761.63	954.87
761.813	1018.35
761.997	1001.97
762.18	961.01
762.364	944.63
762.547	1001.97
762.731	997.87
762.914	918
763.098	946.67
763.281	856.56
763.464	1024.5
763.648	977.39
763.831	995.82
764.015	950.77
764.198	909.81
764.381	950.77
764.564	946.67
764.748	918
764.931	963.06
765.114	995.82
765.297	901.62
765.481	879.09
765.664	893.43
765.847	956.91
766.03	901.62
766.213	997.87
766.397	887.28
766.58	946.67
766.763	944.63
766.946	844.28
767.129	846.32
767.312	905.71
767.495	930.29
767.678	838.13
767.861	975.35
768.044	936.43
768.227	903.67
768.41	872.95
768.593	885.23
768.776	770.55
768.959	887.28
769.142	862.71
769.324	786.93
769.507	805.36
769.69	801.27
769.873	786.93
770.056	846.32
770.239	750.07
770.421	909.81
770.604	803.32
770.787	795.12
770.97	795.12
771.152	707.06
771.335	819.7
771.518	762.36
771.7	862.71
771.883	860.66
772.066	846.32
772.248	805.36
772.431	793.08
772.613	850.42
772.796	705.01
772.978	782.84
773.161	791.03
773.343	772.6
773.526	676.34
773.708	678.39
773.891	637.43
774.073	766.45
774.256	696.82
774.438	737.78
774.621	680.44
774.803	696.82
774.985	698.87
775.168	754.16
775.35	651.77
775.532	702.97
775.715	676.34
775.897	664.05
776.079	678.39
776.261	778.74
776.444	684.53
776.626	627.19
776.808	657.91
776.99	664.05
777.173	584.18
777.355	627.19
777.537	657.91
777.719	698.87
777.901	639.48
778.083	565.75
778.265	578.04
778.447	610.81
778.629	668.15
778.811	664.05
778.993	549.37
779.175	631.29
779.357	535.03
779.539	608.76
779.721	575.99
779.903	655.86
780.085	571.9
780.267	621.05
780.449	561.66
780.631	584.18
780.812	596.47
780.994	590.33
781.176	586.23
781.358	475.64
781.54	565.75
781.721	563.7
781.903	543.22
782.085	530.94
782.267	475.64
782.448	532.98
782.63	467.45
782.812	526.84
782.993	512.5
783.175	508.41
783.357	481.78
783.538	428.54
783.72	471.54
783.901	512.5
784.083	438.78
784.264	494.07
784.446	410.11
784.627	440.83
784.809	530.94
784.99	530.94
785.172	420.35
785.353	487.93
785.535	432.63
785.716	428.54
785.897	354.81
786.079	510.46
786.26	406.01
786.441	420.35
786.623	451.07
786.804	406.01
786.985	436.73
787.167	414.2
787.348	403.96
787.529	356.86
787.71	393.72
787.891	401.91
788.073	387.58
788.254	401.91
788.435	479.74
788.616	479.74
788.797	397.82
788.978	324.09
789.159	320
789.34	348.67
789.522	350.71
789.703	381.43
789.884	391.67
790.065	354.81
790.246	350.71
790.427	348.67
790.607	418.3
790.788	406.01
790.969	338.43
791.15	320
791.331	336.38
791.512	375.29
791.693	242.17
791.874	293.37
792.054	418.3
792.235	307.71
792.416	289.28
792.597	354.81
792.778	377.34
792.958	369.15
793.139	311.8
793.32	344.57
793.5	295.42
793.681	389.63
793.862	268.8
794.042	256.51
794.223	315.9
794.404	346.62
794.584	299.52
794.765	287.23
794.945	303.61
795.126	258.56
795.306	381.43
795.487	231.93
795.667	365.05
795.848	309.76
796.028	256.51
796.209	291.32
796.389	289.28
796.57	320
796.75	274.94
796.93	254.46
797.111	246.27
797.291	320
797.471	244.22
797.652	285.18
797.832	358.91
798.012	315.9
798.192	252.41
798.373	217.6
798.553	242.17
798.733	291.32
798.913	213.5
799.093	246.27
799.274	223.74
799.454	313.85
799.634	236.03
799.814	238.08
799.994	221.69
800.174	154.11
800.354	227.84
800.534	242.17
800.714	193.02
800.894	281.08
801.074	238.08
801.254	262.65
801.434	240.12
801.614	217.6
801.794	178.69
801.974	756.21
802.154	158.21
802.334	258.56
802.514	160.25
802.693	190.97
802.873	254.46
803.053	180.73
803.233	215.55
803.413	199.16
803.592	260.6
803.772	162.3
803.952	242.17
804.131	147.97
804.311	199.16
804.491	233.98
804.67	172.54
804.85	178.69
805.03	244.22
805.209	162.3
805.389	199.16
805.568	182.78
805.748	143.87
805.928	231.93
806.107	250.36
806.287	201.21
806.466	229.88
806.646	127.49
806.825	193.02
807.004	160.25
807.184	125.44
807.363	123.39
807.543	141.82
807.722	156.16
807.901	150.01
808.081	141.82
808.26	141.82
808.439	109.05
808.619	193.02
808.798	190.97
808.977	188.93
809.156	129.53
809.336	115.2
809.515	231.93
809.694	102.91
809.873	133.63
810.052	152.06
810.231	221.69
810.411	127.49
810.59	172.54
810.769	104.96
810.948	168.45
811.127	168.45
811.306	123.39
811.485	201.21
811.664	205.31
811.843	156.16
812.022	223.74
812.201	133.63
812.38	80.38
812.559	113.15
812.737	121.34
812.916	57.86
813.095	156.16
813.274	168.45
813.453	162.3
813.632	160.25
813.811	166.4
813.989	94.72
814.168	109.05
814.347	100.86
814.526	76.29
814.704	94.72
814.883	168.45
815.062	213.5
815.24	164.35
815.419	127.49
815.598	84.48
815.776	82.43
815.955	133.63
816.133	57.86
816.312	127.49
816.49	45.57
816.669	160.25
816.847	92.67
817.026	168.45
817.204	61.95
817.383	139.77
817.561	111.1
817.74	160.25
817.918	131.58
818.097	92.67
818.275	160.25
818.453	170.49
818.632	94.72
818.81	150.01
818.988	143.87
819.167	80.38
819.345	82.43
819.523	119.29
819.701	107.01
819.879	172.54
820.058	139.77
820.236	82.43
820.414	137.73
820.592	66.05
820.77	74.24
820.948	84.48
821.127	184.83
821.305	37.38
821.483	74.24
821.661	102.91
821.839	174.59
822.017	86.53
822.195	82.43
822.373	131.58
822.551	53.76
822.729	152.06
822.907	90.62
823.085	141.82
823.262	135.68
823.44	137.73
823.618	66.05
823.796	111.1
823.974	78.33
824.152	119.29
824.329	96.77
824.507	117.25
824.685	59.9
824.863	117.25
825.04	119.29
825.218	135.68
825.396	51.71
825.574	133.63
825.751	84.48
825.929	117.25
826.107	70.14
826.284	49.66
826.462	102.91
826.639	-34.3
826.817	98.81
826.994	70.14
827.172	20.99
827.349	129.53
827.527	107.01
827.704	88.57
827.882	31.23
828.059	57.86
828.237	111.1
828.414	147.97
828.591	6.66
828.769	82.43
828.946	37.38
829.124	55.81
829.301	119.29
829.478	31.23
829.655	88.57
829.833	90.62
830.01	59.9
830.187	107.01
830.364	61.95
830.542	27.14
830.719	107.01
830.896	66.05
831.073	86.53
831.25	-11.78
831.427	68.09
831.604	82.43
831.782	53.76
831.959	76.29
832.136	66.05
832.313	90.62
832.49	82.43
832.667	76.29
832.844	49.66
833.021	74.24
833.198	45.57
833.374	111.1
833.551	14.85
833.728	127.49
833.905	102.91
834.082	16.9
834.259	37.38
834.436	55.81
834.612	8.7
834.789	43.52
834.966	-9.73
835.143	55.81
835.319	-44.54
835.496	-9.73
835.673	92.67
835.85	80.38
836.026	49.66
836.203	59.9
836.38	64
836.556	-9.73
836.733	53.76
836.909	107.01
837.086	51.71
837.262	70.14
837.439	121.34
837.616	66.05
837.792	104.96
837.968	80.38
838.145	4.61
838.321	70.14
838.498	59.9
838.674	76.29
838.851	29.18
839.027	49.66
839.203	88.57
839.38	66.05
839.556	12.8
839.732	53.76
839.909	96.77
840.085	78.33
840.261	-30.21
840.437	86.53
840.614	-30.21
840.79	39.42
840.966	70.14
841.142	92.67
841.318	66.05
841.494	-15.87
841.671	-22.02
841.847	115.2
842.023	45.57
842.199	49.66
842.375	70.14
842.551	-9.73
842.727	2.56
842.903	127.49
843.079	27.14
843.255	53.76
843.431	-11.78
843.607	31.23
843.783	-69.12
843.959	-17.92
844.134	16.9
844.31	70.14
844.486	2.56
844.662	80.38
844.838	43.52
845.013	43.52
845.189	119.29
845.365	10.75
845.541	-3.58
845.716	-9.73
845.892	92.67
846.068	4.61
846.244	33.28
846.419	27.14
846.595	-5.63
846.77	41.47
846.946	80.38
847.122	47.62
847.297	4.61
847.473	27.14
847.648	20.99
847.824	-3.58
847.999	-11.78
848.175	45.57
848.35	-26.11
848.526	68.09
848.701	64
848.876	94.72
849.052	23.04
849.227	104.96
849.403	12.8
849.578	18.94
849.753	2.56
849.929	23.04
850.104	27.14
850.279	39.42
850.454	35.33
850.63	43.52
850.805	37.38
850.98	111.1
851.155	55.81
851.33	-15.87
851.505	-17.92
851.681	37.38
851.856	23.04
852.031	84.48
852.206	20.99
852.381	-5.63
852.556	47.62
852.731	55.81
852.906	-36.35
853.081	104.96
853.256	37.38
853.431	4.61
853.606	0.51
853.781	4.61
853.956	-7.68
854.131	33.28
854.305	25.09
854.48	84.48
854.655	-22.02
854.83	74.24
855.005	-34.3
855.18	43.52
855.354	37.38
855.529	31.23
855.704	-9.73
855.879	78.33
856.053	70.14
856.228	27.14
856.403	-81.41
856.577	29.18
856.752	6.66
856.926	-36.35
857.101	-85.5
857.276	-3.58
857.45	29.18
857.625	8.7
857.799	-1.54
857.974	0.51
858.148	2.56
858.323	66.05
858.497	-11.78
858.672	29.18
858.846	-58.88
859.02	59.9
859.195	-26.11
859.369	-34.3
859.543	18.94
859.718	61.95
859.892	57.86
860.066	20.99
860.241	-15.87
860.415	-11.78
860.589	-24.06
860.763	-3.58
860.938	-48.64
861.112	-52.74
861.286	4.61
861.46	27.14
861.634	0.51
861.808	8.7
861.982	10.75
862.157	-28.16
862.331	29.18
862.505	-13.82
862.679	-9.73
862.853	31.23
863.027	-44.54
863.201	66.05
863.375	31.23
863.549	-7.68
863.722	49.66
863.896	55.81
864.07	-9.73
864.244	4.61
864.418	-11.78
864.592	18.94
864.766	-15.87
864.939	-30.21
865.113	70.14
865.287	39.42
865.461	-28.16
865.634	68.09
865.808	6.66
865.982	2.56
866.156	-5.63
866.329	-26.11
866.503	-52.74
866.676	-24.06
866.85	10.75
867.024	45.57
867.197	-40.45
867.371	70.14
867.544	25.09
867.718	12.8
867.891	31.23
868.065	55.81
868.238	-1.54
868.412	55.81
868.585	66.05
868.759	-83.45
868.932	-34.3
869.105	-7.68
869.279	84.48
869.452	-38.4
869.625	74.24
869.799	41.47
869.972	-3.58
870.145	-24.06
870.319	-32.26
870.492	-58.88
870.665	-67.07
870.838	-5.63
871.011	-32.26
871.185	2.56
871.358	2.56
871.531	-11.78
871.704	-60.93
871.877	-22.02
872.05	-42.5
872.223	45.57
872.396	82.43
872.569	39.42
872.742	-42.5
872.915	-34.3
873.088	16.9
873.261	33.28
873.434	-13.82
873.607	-28.16
873.78	-13.82
873.953	-91.65
874.126	-89.6
874.299	51.71
874.471	0.51
874.644	-40.45
874.817	74.24
874.99	25.09
875.163	-11.78
875.335	-50.69
875.508	27.14
875.681	29.18
875.853	-50.69
876.026	-7.68
876.199	-3.58
876.371	53.76
876.544	-17.92
876.717	-24.06
876.889	29.18
877.062	33.28
877.234	12.8
877.407	-65.02
877.579	57.86
877.752	-65.02
877.924	-38.4
878.097	-13.82
878.269	-11.78
878.442	47.62
878.614	33.28
878.786	25.09
878.959	-19.97
879.131	20.99
879.303	-58.88
879.476	-58.88
879.648	-7.68
879.82	49.66
879.993	-15.87
880.165	-40.45
880.337	61.95
880.509	49.66
880.681	10.75
880.854	61.95
881.026	16.9
881.198	72.19
881.37	29.18
881.542	16.9
881.714	-7.68
881.886	12.8
882.058	0.51
882.23	35.33
882.402	18.94
882.574	8.7
882.746	4.61
882.918	70.14
883.09	76.29
883.262	-11.78
883.434	23.04
883.606	-19.97
883.778	-67.07
883.95	61.95
884.122	27.14
884.293	20.99
884.465	39.42
884.637	-71.17
884.809	-46.59
884.98	33.28
885.152	0.51
885.324	-19.97
885.496	-19.97
885.667	-9.73
885.839	-11.78
886.011	41.47
886.182	14.85
886.354	-15.87
886.525	-30.21
886.697	-85.5
886.869	-44.54
887.04	12.8
887.212	0.51
887.383	-46.59
887.555	-54.78
887.726	25.09
887.897	8.7
888.069	-7.68
888.24	-56.83
888.412	20.99
888.583	18.94
888.754	53.76
888.926	-5.63
889.097	-11.78
889.268	2.56
889.44	25.09
889.611	-52.74
889.782	10.75
889.953	4.61
890.125	8.7
890.296	27.14
890.467	76.29
890.638	-50.69
890.809	-28.16
890.98	-28.16
891.151	-32.26
891.323	-3.58
891.494	29.18
891.665	39.42
891.836	-42.5
892.007	45.57
892.178	29.18
892.349	-65.02
892.52	-3.58
892.691	-58.88
892.862	-13.82
893.032	-79.36
893.203	0.51
893.374	12.8
893.545	-28.16
893.716	0.51
893.887	53.76
894.057	-9.73
894.228	35.33
894.399	-28.16
894.57	18.94
894.74	-26.11
894.911	-3.58
895.082	-42.5
895.253	-5.63
895.423	31.23
895.594	12.8
895.764	74.24
895.935	27.14
896.106	-52.74
896.276	25.09
896.447	64
896.617	-28.16
896.788	-36.35
896.958	-48.64
897.129	-56.83
897.299	27.14
897.47	33.28
897.64	51.71
897.81	-65.02
897.981	10.75
898.151	-24.06
898.322	-28.16
898.492	33.28
898.662	4.61
898.832	-15.87
899.003	-11.78
899.173	35.33
899.343	-19.97
899.513	-77.31
