Data from USB4F104151__196__10-29-28-506.txt Node

Date: Wed Mar 12 10:29:28 EDT 2025
User: louis
Spectrometer: USB4F10415
Trigger mode: 4
Integration Time (sec): 3.000000E-2
Scans to average: 1
Electric dark correction enabled: true
Nonlinearity correction enabled: false
Boxcar width: 0
XAxis mode: Wavelengths
Number of Pixels in Spectrum: 3648
>>>>>Begin Spectral Data<<<<<
178.204	-142.68
178.424	-142.68
178.644	-142.68
178.864	-60.76
179.084	-181.59
179.304	-9.56
179.524	-77.14
179.744	2.73
179.964	2.73
180.184	17.07
180.404	41.64
180.624	15.02
180.844	43.69
181.064	10.92
181.283	-1.37
181.503	-1.37
181.723	-44.37
181.943	-52.56
182.163	29.35
182.383	-13.65
182.602	96.94
182.822	66.22
183.042	86.7
183.262	17.07
183.482	88.75
183.701	15.02
183.921	76.46
184.141	41.64
184.361	31.4
184.58	72.36
184.8	117.42
185.02	33.45
185.239	70.31
185.459	-9.56
185.679	123.56
185.898	-83.28
186.118	31.4
186.338	78.51
186.557	-17.75
186.777	58.03
186.997	47.79
187.216	-13.65
187.436	88.75
187.655	103.08
187.875	123.56
188.095	78.51
188.314	133.8
188.534	84.65
188.753	39.59
188.973	51.88
189.192	66.22
189.412	45.74
189.631	68.27
189.851	66.22
190.07	31.4
190.29	10.92
190.509	25.26
190.729	58.03
190.948	109.22
191.168	92.84
191.387	51.88
191.607	27.31
191.826	121.51
192.045	41.64
192.265	55.98
192.484	45.74
192.704	45.74
192.923	25.26
193.142	185
193.362	68.27
193.581	98.99
193.8	4.78
194.02	86.7
194.239	-32.08
194.458	27.31
194.678	27.31
194.897	-50.52
195.116	6.83
195.335	37.55
195.555	8.87
195.774	33.45
195.993	43.69
196.212	60.07
196.432	43.69
196.651	31.4
196.87	2.73
197.089	70.31
197.308	-9.56
197.528	43.69
197.747	-3.41
197.966	60.07
198.185	58.03
198.404	0.68
198.623	2.73
198.842	60.07
199.062	31.4
199.281	68.27
199.5	39.59
199.719	47.79
199.938	74.41
200.157	101.03
200.376	60.07
200.595	96.94
200.814	37.55
201.033	-17.75
201.252	60.07
201.471	68.27
201.69	58.03
201.909	84.65
202.128	10.92
202.347	41.64
202.566	2.73
202.785	29.35
203.004	74.41
203.223	80.55
203.442	72.36
203.661	62.12
203.879	-13.65
204.098	70.31
204.317	47.79
204.536	47.79
204.755	68.27
204.974	78.51
205.193	84.65
205.411	88.75
205.63	0.68
205.849	2.73
206.068	70.31
206.287	66.22
206.505	58.03
206.724	-13.65
206.943	76.46
207.162	76.46
207.381	51.88
207.599	31.4
207.818	33.45
208.037	47.79
208.255	101.03
208.474	-5.46
208.693	113.32
208.911	123.56
209.13	64.17
209.349	74.41
209.567	45.74
209.786	139.94
210.005	68.27
210.223	111.27
210.442	-21.85
210.661	-5.46
210.879	41.64
211.098	25.26
211.316	84.65
211.535	-21.85
211.753	68.27
211.972	70.31
212.191	60.07
212.409	25.26
212.628	-7.51
212.846	51.88
213.065	68.27
213.283	103.08
213.502	12.97
213.72	21.16
213.938	-7.51
214.157	0.68
214.375	-9.56
214.594	19.11
214.812	15.02
215.031	25.26
215.249	39.59
215.467	98.99
215.686	66.22
215.904	25.26
216.122	109.22
216.341	96.94
216.559	15.02
216.778	80.55
216.996	51.88
217.214	51.88
217.432	35.5
217.651	0.68
217.869	8.87
218.087	29.35
218.306	8.87
218.524	17.07
218.742	-13.65
218.96	8.87
219.179	0.68
219.397	68.27
219.615	49.83
219.833	119.46
220.051	-23.89
220.27	-19.8
220.488	68.27
220.706	80.55
220.924	80.55
221.142	90.79
221.36	19.11
221.578	60.07
221.796	66.22
222.015	-7.51
222.233	41.64
222.451	98.99
222.669	6.83
222.887	96.94
223.105	78.51
223.323	60.07
223.541	23.21
223.759	25.26
223.977	37.55
224.195	131.75
224.413	10.92
224.631	33.45
224.849	66.22
225.067	113.32
225.285	98.99
225.503	60.07
225.721	62.12
225.939	-27.99
226.157	17.07
226.375	146.09
226.592	43.69
226.81	88.75
227.028	92.84
227.246	101.03
227.464	64.17
227.682	96.94
227.9	55.98
228.117	74.41
228.335	43.69
228.553	-42.32
228.771	47.79
228.989	55.98
229.206	60.07
229.424	94.89
229.642	31.4
229.86	17.07
230.077	-15.7
230.295	80.55
230.513	-9.56
230.731	58.03
230.948	62.12
231.166	6.83
231.384	-9.56
231.601	8.87
231.819	92.84
232.037	12.97
232.254	12.97
232.472	27.31
232.689	6.83
232.907	84.65
233.125	51.88
233.342	-25.94
233.56	64.17
233.777	-17.75
233.995	62.12
234.213	76.46
234.43	17.07
234.648	82.6
234.865	6.83
235.083	10.92
235.3	15.02
235.518	10.92
235.735	125.61
235.953	47.79
236.17	-17.75
236.388	35.5
236.605	25.26
236.822	115.37
237.04	86.7
237.257	39.59
237.475	-62.8
237.692	8.87
237.909	131.75
238.127	137.9
238.344	49.83
238.562	60.07
238.779	-7.51
238.996	-3.41
239.214	55.98
239.431	35.5
239.648	43.69
239.865	113.32
240.083	23.21
240.3	29.35
240.517	74.41
240.735	66.22
240.952	92.84
241.169	35.5
241.386	4.78
241.603	64.17
241.821	-7.51
242.038	76.46
242.255	84.65
242.472	37.55
242.689	78.51
242.907	68.27
243.124	43.69
243.341	90.79
243.558	55.98
243.775	-30.04
243.992	17.07
244.209	29.35
244.426	31.4
244.643	62.12
244.86	-38.23
245.078	78.51
245.295	107.18
245.512	64.17
245.729	70.31
245.946	109.22
246.163	-7.51
246.38	25.26
246.597	-7.51
246.814	6.83
247.031	2.73
247.248	84.65
247.464	88.75
247.681	19.11
247.898	80.55
248.115	58.03
248.332	-5.46
248.549	76.46
248.766	31.4
248.983	27.31
249.2	72.36
249.417	-30.04
249.633	2.73
249.85	90.79
250.067	29.35
250.284	53.93
250.501	111.27
250.717	19.11
250.934	41.64
251.151	68.27
251.368	10.92
251.585	62.12
251.801	60.07
252.018	53.93
252.235	76.46
252.451	70.31
252.668	47.79
252.885	53.93
253.102	37.55
253.318	17.07
253.535	55.98
253.752	2.73
253.968	35.5
254.185	-56.66
254.401	49.83
254.618	37.55
254.835	4.78
255.051	101.03
255.268	27.31
255.484	33.45
255.701	49.83
255.917	51.88
256.134	58.03
256.351	88.75
256.567	33.45
256.784	17.07
257	82.6
257.217	64.17
257.433	113.32
257.65	68.27
257.866	74.41
258.082	31.4
258.299	10.92
258.515	78.51
258.732	12.97
258.948	-21.85
259.165	98.99
259.381	-34.13
259.597	47.79
259.814	92.84
260.03	43.69
260.246	43.69
260.463	31.4
260.679	58.03
260.895	53.93
261.112	2.73
261.328	49.83
261.544	-1.37
261.761	64.17
261.977	-42.32
262.193	19.11
262.409	49.83
262.626	10.92
262.842	35.5
263.058	31.4
263.274	82.6
263.49	82.6
263.707	64.17
263.923	0.68
264.139	21.16
264.355	15.02
264.571	92.84
264.787	23.21
265.004	70.31
265.22	39.59
265.436	51.88
265.652	27.31
265.868	49.83
266.084	31.4
266.3	25.26
266.516	-13.65
266.732	21.16
266.948	12.97
267.164	25.26
267.38	125.61
267.596	66.22
267.812	121.51
268.028	19.11
268.244	12.97
268.46	60.07
268.676	51.88
268.892	12.97
269.108	-15.7
269.324	-17.75
269.54	25.26
269.756	135.85
269.972	72.36
270.188	37.55
270.403	39.59
270.619	51.88
270.835	80.55
271.051	41.64
271.267	58.03
271.483	19.11
271.698	74.41
271.914	31.4
272.13	72.36
272.346	-5.46
272.562	80.55
272.777	84.65
272.993	15.02
273.209	17.07
273.425	43.69
273.64	21.16
273.856	66.22
274.072	66.22
274.287	-34.13
274.503	15.02
274.719	62.12
274.934	19.11
275.15	60.07
275.366	94.89
275.581	-5.46
275.797	88.75
276.012	10.92
276.228	84.65
276.444	47.79
276.659	103.08
276.875	53.93
277.09	109.22
277.306	43.69
277.521	115.37
277.737	55.98
277.952	19.11
278.168	88.75
278.383	92.84
278.599	92.84
278.814	0.68
279.03	49.83
279.245	96.94
279.461	27.31
279.676	41.64
279.892	10.92
280.107	35.5
280.322	-13.65
280.538	129.7
280.753	60.07
280.969	137.9
281.184	51.88
281.399	-15.7
281.615	92.84
281.83	12.97
282.045	33.45
282.26	31.4
282.476	55.98
282.691	90.79
282.906	64.17
283.122	0.68
283.337	27.31
283.552	64.17
283.767	55.98
283.983	15.02
284.198	41.64
284.413	115.37
284.628	39.59
284.843	43.69
285.058	35.5
285.274	70.31
285.489	43.69
285.704	74.41
285.919	88.75
286.134	101.03
286.349	51.88
286.564	17.07
286.779	47.79
286.995	96.94
287.21	4.78
287.425	41.64
287.64	33.45
287.855	64.17
288.07	-13.65
288.285	74.41
288.5	60.07
288.715	45.74
288.93	19.11
289.145	-34.13
289.36	105.13
289.575	-9.56
289.79	115.37
290.004	37.55
290.219	33.45
290.434	49.83
290.649	39.59
290.864	35.5
291.079	-1.37
291.294	53.93
291.509	88.75
291.724	33.45
291.938	35.5
292.153	35.5
292.368	35.5
292.583	60.07
292.798	76.46
293.012	-64.85
293.227	80.55
293.442	58.03
293.657	84.65
293.871	109.22
294.086	88.75
294.301	80.55
294.516	33.45
294.73	-5.46
294.945	-9.56
295.16	43.69
295.374	98.99
295.589	78.51
295.804	43.69
296.018	90.79
296.233	74.41
296.447	74.41
296.662	21.16
296.877	72.36
297.091	41.64
297.306	43.69
297.52	39.59
297.735	-42.32
297.949	82.6
298.164	74.41
298.378	131.75
298.593	19.11
298.807	64.17
299.022	105.13
299.236	82.6
299.451	72.36
299.665	43.69
299.88	131.75
300.094	60.07
300.309	47.79
300.523	12.97
300.737	88.75
300.952	94.89
301.166	64.17
301.381	37.55
301.595	43.69
301.809	58.03
302.024	2.73
302.238	10.92
302.452	150.18
302.667	41.64
302.881	19.11
303.095	92.84
303.309	105.13
303.524	2.73
303.738	39.59
303.952	23.21
304.166	78.51
304.381	-13.65
304.595	33.45
304.809	37.55
305.023	72.36
305.237	55.98
305.452	39.59
305.666	-5.46
305.88	39.59
306.094	29.35
306.308	31.4
306.522	84.65
306.736	41.64
306.95	41.64
307.164	39.59
307.379	60.07
307.593	76.46
307.807	111.27
308.021	43.69
308.235	84.65
308.449	58.03
308.663	27.31
308.877	101.03
309.091	35.5
309.305	51.88
309.519	35.5
309.733	117.42
309.947	-23.89
310.161	12.97
310.374	129.7
310.588	58.03
310.802	6.83
311.016	43.69
311.23	29.35
311.444	162.47
311.658	84.65
311.872	74.41
312.085	10.92
312.299	82.6
312.513	117.42
312.727	68.27
312.941	68.27
313.154	76.46
313.368	-7.51
313.582	35.5
313.796	119.46
314.009	64.17
314.223	98.99
314.437	33.45
314.651	82.6
314.864	27.31
315.078	78.51
315.292	43.69
315.505	47.79
315.719	35.5
315.933	58.03
316.146	84.65
316.36	19.11
316.573	72.36
316.787	60.07
317.001	82.6
317.214	-5.46
317.428	92.84
317.641	37.55
317.855	98.99
318.068	25.26
318.282	37.55
318.495	148.14
318.709	121.51
318.922	66.22
319.136	41.64
319.349	98.99
319.563	27.31
319.776	25.26
319.99	29.35
320.203	-17.75
320.417	86.7
320.63	66.22
320.843	117.42
321.057	-15.7
321.27	-1.37
321.483	43.69
321.697	23.21
321.91	92.84
322.124	103.08
322.337	39.59
322.55	33.45
322.763	117.42
322.977	105.13
323.19	74.41
323.403	78.51
323.617	156.33
323.83	25.26
324.043	62.12
324.256	74.41
324.469	47.79
324.683	53.93
324.896	117.42
325.109	88.75
325.322	27.31
325.535	96.94
325.748	117.42
325.962	0.68
326.175	51.88
326.388	53.93
326.601	17.07
326.814	19.11
327.027	92.84
327.24	115.37
327.453	8.87
327.666	43.69
327.879	103.08
328.092	129.7
328.305	72.36
328.518	37.55
328.731	27.31
328.944	58.03
329.157	4.78
329.37	4.78
329.583	70.31
329.796	74.41
330.009	25.26
330.222	115.37
330.435	35.5
330.648	146.09
330.861	19.11
331.073	78.51
331.286	51.88
331.499	-1.37
331.712	76.46
331.925	33.45
332.138	105.13
332.35	21.16
332.563	72.36
332.776	-32.08
332.989	39.59
333.202	55.98
333.414	84.65
333.627	-7.51
333.84	43.69
334.053	74.41
334.265	70.31
334.478	25.26
334.691	6.83
334.903	19.11
335.116	141.99
335.329	41.64
335.541	144.04
335.754	74.41
335.966	29.35
336.179	58.03
336.392	92.84
336.604	82.6
336.817	84.65
337.029	137.9
337.242	148.14
337.454	43.69
337.667	-13.65
337.88	47.79
338.092	15.02
338.305	88.75
338.517	6.83
338.729	94.89
338.942	31.4
339.154	55.98
339.367	23.21
339.579	66.22
339.792	29.35
340.004	62.12
340.217	41.64
340.429	55.98
340.641	8.87
340.854	47.79
341.066	0.68
341.278	66.22
341.491	156.33
341.703	82.6
341.915	101.03
342.128	117.42
342.34	86.7
342.552	27.31
342.764	94.89
342.977	64.17
343.189	64.17
343.401	117.42
343.613	-7.51
343.826	60.07
344.038	117.42
344.25	72.36
344.462	27.31
344.674	152.23
344.886	78.51
345.099	80.55
345.311	109.22
345.523	47.79
345.735	31.4
345.947	39.59
346.159	72.36
346.371	80.55
346.583	23.21
346.795	180.9
347.007	74.41
347.219	27.31
347.431	76.46
347.643	107.18
347.855	19.11
348.067	90.79
348.279	78.51
348.491	125.61
348.703	111.27
348.915	37.55
349.127	17.07
349.339	82.6
349.551	29.35
349.763	148.14
349.975	98.99
350.187	101.03
350.399	84.65
350.61	49.83
350.822	68.27
351.034	135.85
351.246	66.22
351.458	92.84
351.669	111.27
351.881	80.55
352.093	103.08
352.305	58.03
352.517	51.88
352.728	107.18
352.94	72.36
353.152	103.08
353.363	55.98
353.575	8.87
353.787	139.94
353.999	84.65
354.21	49.83
354.422	47.79
354.633	109.22
354.845	39.59
355.057	66.22
355.268	84.65
355.48	49.83
355.692	43.69
355.903	96.94
356.115	92.84
356.326	29.35
356.538	80.55
356.749	58.03
356.961	117.42
357.172	135.85
357.384	23.21
357.595	82.6
357.807	35.5
358.018	41.64
358.23	92.84
358.441	125.61
358.653	43.69
358.864	92.84
359.075	51.88
359.287	182.95
359.498	129.7
359.709	64.17
359.921	92.84
360.132	23.21
360.344	68.27
360.555	35.5
360.766	55.98
360.977	39.59
361.189	101.03
361.4	72.36
361.611	148.14
361.823	45.74
362.034	72.36
362.245	2.73
362.456	25.26
362.667	125.61
362.879	72.36
363.09	98.99
363.301	117.42
363.512	90.79
363.723	58.03
363.935	0.68
364.146	60.07
364.357	80.55
364.568	23.21
364.779	150.18
364.99	92.84
365.201	51.88
365.412	152.23
365.623	8.87
365.834	144.04
366.045	92.84
366.256	121.51
366.467	39.59
366.678	31.4
366.889	98.99
367.1	64.17
367.311	86.7
367.522	133.8
367.733	80.55
367.944	113.32
368.155	96.94
368.366	125.61
368.577	31.4
368.788	154.28
368.999	-7.51
369.209	137.9
369.42	158.38
369.631	178.86
369.842	72.36
370.053	51.88
370.264	72.36
370.474	60.07
370.685	62.12
370.896	127.66
371.107	107.18
371.317	60.07
371.528	25.26
371.739	107.18
371.95	105.13
372.16	72.36
372.371	125.61
372.582	82.6
372.792	35.5
373.003	131.75
373.214	88.75
373.424	125.61
373.635	53.93
373.846	152.23
374.056	23.21
374.267	123.56
374.477	4.78
374.688	86.7
374.898	55.98
375.109	76.46
375.319	92.84
375.53	101.03
375.74	60.07
375.951	154.28
376.161	92.84
376.372	164.52
376.582	19.11
376.793	35.5
377.003	111.27
377.214	68.27
377.424	88.75
377.635	70.31
377.845	117.42
378.055	60.07
378.266	58.03
378.476	53.93
378.686	135.85
378.897	43.69
379.107	139.94
379.317	23.21
379.528	66.22
379.738	125.61
379.948	35.5
380.158	82.6
380.369	111.27
380.579	111.27
380.789	23.21
380.999	150.18
381.21	158.38
381.42	80.55
381.63	107.18
381.84	129.7
382.05	123.56
382.261	129.7
382.471	62.12
382.681	107.18
382.891	51.88
383.101	88.75
383.311	25.26
383.521	41.64
383.731	29.35
383.941	107.18
384.151	80.55
384.361	96.94
384.571	62.12
384.781	94.89
384.991	80.55
385.201	92.84
385.411	82.6
385.621	111.27
385.831	60.07
386.041	88.75
386.251	123.56
386.461	53.93
386.671	45.74
386.881	90.79
387.091	74.41
387.301	107.18
387.511	152.23
387.72	82.6
387.93	84.65
388.14	72.36
388.35	154.28
388.56	76.46
388.769	141.99
388.979	107.18
389.189	84.65
389.399	66.22
389.609	139.94
389.818	103.08
390.028	172.71
390.238	76.46
390.447	90.79
390.657	60.07
390.867	72.36
391.076	60.07
391.286	66.22
391.496	129.7
391.705	76.46
391.915	174.76
392.125	66.22
392.334	10.92
392.544	123.56
392.753	158.38
392.963	58.03
393.172	131.75
393.382	117.42
393.591	215.72
393.801	41.64
394.01	205.48
394.22	88.75
394.429	82.6
394.639	150.18
394.848	84.65
395.058	72.36
395.267	141.99
395.477	172.71
395.686	127.66
395.895	180.9
396.105	78.51
396.314	129.7
396.524	117.42
396.733	178.86
396.942	121.51
397.152	109.22
397.361	109.22
397.57	76.46
397.78	156.33
397.989	152.23
398.198	176.81
398.407	111.27
398.617	217.77
398.826	187.05
399.035	123.56
399.244	107.18
399.453	109.22
399.663	180.9
399.872	199.34
400.081	72.36
400.29	154.28
400.499	162.47
400.708	228.01
400.917	146.09
401.127	162.47
401.336	182.95
401.545	152.23
401.754	185
401.963	191.14
402.172	131.75
402.381	152.23
402.59	182.95
402.799	191.14
403.008	256.68
403.217	187.05
403.426	185
403.635	191.14
403.844	152.23
404.053	344.74
404.262	178.86
404.471	195.24
404.68	131.75
404.888	223.91
405.097	141.99
405.306	232.1
405.515	268.97
405.724	191.14
405.933	285.35
406.142	248.49
406.35	230.06
406.559	322.21
406.768	256.68
406.977	336.55
407.185	236.2
407.394	301.73
407.603	311.97
407.812	281.25
408.02	377.51
408.229	350.89
408.438	357.03
408.646	352.93
408.855	314.02
409.064	365.22
409.272	318.12
409.481	344.74
409.69	369.32
409.898	422.56
410.107	445.09
410.315	410.28
410.524	408.23
410.733	502.43
410.941	481.96
411.15	467.62
411.358	488.1
411.567	582.31
411.775	504.48
411.984	492.2
412.192	653.98
412.401	643.74
412.609	617.12
412.818	795.29
413.026	662.18
413.234	684.7
413.443	699.04
413.651	696.99
413.86	742.05
414.068	752.29
414.276	844.45
414.485	834.21
414.693	922.27
414.901	893.6
415.11	930.46
415.318	934.56
415.526	965.28
415.734	1073.82
415.943	1090.2
416.151	1239.7
416.359	1100.44
416.567	1170.07
416.776	1288.85
416.984	1278.62
417.192	1376.92
417.4	1288.85
417.608	1319.57
417.817	1319.57
418.025	1569.43
418.233	1680.02
418.441	1641.11
418.649	1540.76
418.857	1690.26
419.065	1729.17
419.273	1768.08
419.481	1782.42
419.689	1952.4
419.897	2058.89
420.105	2161.29
420.313	2075.27
420.521	2132.62
420.729	2267.78
420.937	2304.65
421.145	2361.99
421.353	2458.25
421.561	2529.92
421.769	2675.33
421.977	2812.54
422.185	2824.83
422.393	2794.11
422.601	3066.49
422.809	3027.58
423.017	3084.92
423.224	3115.64
423.432	3304.06
423.64	3396.21
423.848	3734.13
424.056	3570.29
424.263	3846.77
424.471	3754.61
424.679	3848.82
424.887	4270.7
425.094	4268.65
425.302	4446.82
425.51	4403.82
425.718	4614.76
425.925	4612.71
426.133	4819.55
426.341	5028.45
426.548	5331.55
426.756	5317.21
426.964	5401.18
427.171	5710.42
427.379	5743.19
427.586	5950.03
427.794	6232.65
428.001	6310.47
428.209	6668.87
428.417	6597.19
428.624	6994.5
428.832	7162.43
429.039	6961.73
429.247	6969.92
429.454	7553.59
429.662	8192.56
429.869	7758.39
430.076	8239.66
430.284	7963.19
430.491	8213.04
430.699	8802.85
430.906	8591.91
431.114	8710.69
431.321	9134.62
431.528	9288.22
431.736	9908.76
431.943	10322.45
432.15	10172.94
432.358	10242.57
432.565	10779.14
432.772	10594.83
432.979	11289.09
433.187	11670.01
433.394	11571.71
433.601	12323.31
433.808	12356.08
434.016	12028.4
434.223	12761.58
434.43	13427.17
434.637	13353.44
434.844	14039.51
435.052	14436.81
435.259	14242.26
435.466	14420.43
435.673	14346.7
435.88	15337.92
436.087	16204.21
436.294	16255.41
436.501	15647.16
436.708	16097.72
436.915	16452.02
437.122	17301.92
437.329	17088.93
437.537	17805.72
437.743	17990.04
437.95	17858.97
438.157	18833.8
438.364	19720.57
438.571	19607.94
438.778	19665.28
438.985	21291.37
439.192	20654.45
439.399	21205.35
439.606	20666.74
439.813	21803.36
440.02	23312.71
440.227	22649.17
440.433	22573.39
440.64	23392.58
440.847	23124.3
441.054	23908.67
441.261	25229.61
441.467	25102.64
441.674	25690.4
441.881	26464.53
442.088	26304.79
442.294	26378.52
442.501	26759.44
442.708	27406.6
442.914	28457.21
443.121	30058.72
443.328	29014.26
443.534	30855.38
443.741	29825.25
443.948	29907.17
444.154	31772.87
444.361	31625.42
444.568	31572.17
444.774	31916.23
444.981	32393.4
445.187	33153.2
445.394	34347.17
445.6	34056.36
445.807	37455.98
446.013	35475.6
446.22	36114.56
446.426	37675.12
446.633	38074.47
446.839	38826.07
447.046	37425.26
447.252	39325.78
447.459	39542.86
447.665	39211.09
447.871	41525.3
448.078	42729.5
448.284	40996.92
448.491	42141.74
448.697	43294.74
448.903	44322.82
449.11	43839.5
449.316	43487.25
449.522	44228.62
449.728	45260.79
449.935	45688.82
450.141	45725.68
450.347	46288.87
450.553	45369.33
450.76	45584.37
450.966	47159.26
451.172	46378.98
451.378	47626.2
451.584	46542.82
451.791	47796.18
451.997	47843.28
452.203	48119.76
452.409	48304.07
452.615	47968.21
452.821	46469.09
453.027	45959.15
453.233	48023.5
453.44	46032.88
453.646	46319.59
453.852	47218.65
454.058	47458.26
454.264	45981.68
454.47	47267.8
454.676	45895.66
454.882	47153.12
455.088	43161.62
455.294	43649.04
455.5	44615.68
455.705	45213.69
455.911	43141.14
456.117	42342.44
456.323	41715.76
456.529	39284.82
456.735	41218.1
456.941	40081.48
457.147	39424.08
457.352	38049.89
457.558	37896.3
457.764	38002.79
457.97	36927.61
458.176	36298.88
458.381	35909.77
458.587	34437.28
458.793	34259.1
458.999	32762.04
459.204	35338.38
459.41	34191.52
459.616	31944.9
459.821	32135.36
460.027	31942.85
460.233	31027.41
460.438	29630.69
460.644	29927.65
460.85	28575.99
461.055	28473.59
461.261	28297.47
461.466	26067.23
461.672	25256.23
461.878	26765.59
462.083	25299.24
462.289	25121.07
462.494	24787.25
462.7	23558.47
462.905	23042.38
463.111	23746.88
463.316	24027.45
463.522	23349.57
463.727	23380.29
463.932	23126.35
464.138	22702.42
464.343	23124.3
464.549	22530.39
464.754	23568.71
464.959	23296.33
465.165	22886.73
465.37	21899.61
465.575	21457.25
465.781	22221.14
465.986	22471
466.191	21760.35
466.397	21492.07
466.602	19978.62
466.807	20961.64
467.012	20998.51
467.218	20877.68
467.423	20498.8
467.628	20746.61
467.833	21655.9
468.038	20738.41
468.244	20199.8
468.449	20846.96
468.654	20259.19
468.859	20085.11
469.064	20289.91
469.269	19132.81
469.474	18887.05
469.679	19693.95
469.885	19018.12
470.09	19317.12
470.295	19569.02
470.5	18743.69
470.705	19216.77
470.91	18723.21
471.115	18393.49
471.32	18416.02
471.525	18409.87
471.73	17820.06
471.935	17942.94
472.139	17492.38
472.344	17547.68
472.549	17699.23
472.754	17275.3
472.959	16914.86
473.164	16626.09
473.369	16517.55
473.574	17140.13
473.778	16810.41
473.983	16517.55
474.188	16443.82
474.393	15780.28
474.598	16067
474.802	15616.44
475.007	15602.11
475.212	15651.26
475.417	15264.19
475.621	15206.85
475.826	15253.95
476.031	14877.13
476.235	14645.71
476.44	15092.16
476.645	14723.53
476.849	14696.91
477.054	14408.14
477.259	14195.15
477.463	14178.77
477.668	13887.96
477.872	14168.53
478.077	13642.2
478.282	13535.71
478.486	13504.99
478.691	13251.04
478.895	13238.75
479.1	13279.71
479.304	13242.85
479.509	12810.73
479.713	13033.96
479.918	12974.56
480.122	12751.34
480.326	12937.7
480.531	12823.01
480.735	12753.38
480.94	12755.43
481.144	13003.24
481.348	12528.11
481.553	12583.4
481.757	12567.02
481.961	12372.46
482.166	12712.42
482.37	12534.25
482.574	12188.14
482.778	12452.33
482.983	12558.83
483.187	12507.63
483.391	12466.67
483.595	12278.26
483.8	12208.62
484.004	12327.41
484.208	12540.4
484.412	12177.9
484.616	12415.47
484.821	12485.1
485.025	12323.31
485.229	12274.16
485.433	12294.64
485.637	12413.42
485.841	12106.23
486.045	12225.01
486.249	12368.37
486.453	12364.27
486.657	12192.24
486.861	12532.2
487.065	12122.61
487.269	12278.26
487.473	12159.47
487.677	12483.05
487.881	12542.44
488.085	11989.49
488.289	12470.76
488.493	12208.62
488.697	12540.4
488.901	12372.46
489.105	12562.92
489.309	12638.7
489.512	12526.06
489.716	12667.37
489.92	12489.2
490.124	12528.11
490.328	12751.34
490.531	12622.31
490.735	12757.48
490.939	12853.73
491.143	12804.58
491.346	12798.44
491.55	13083.11
491.754	13261.28
491.958	13316.58
492.161	13025.76
492.365	13281.76
492.569	13140.45
492.772	13261.28
492.976	13244.9
493.18	13251.04
493.383	13558.24
493.587	13789.66
493.79	13912.53
493.994	13406.69
494.197	13642.2
494.401	14033.36
494.605	13863.38
494.808	14150.1
495.012	14369.23
495.215	14391.76
495.419	14330.32
495.622	14383.57
495.825	14629.32
496.029	14377.42
496.232	14993.86
496.436	14858.7
496.639	15354.3
496.843	15188.42
497.046	15385.02
497.249	15894.97
497.453	15776.19
497.656	16128.44
497.859	15911.35
498.063	15876.54
498.266	16439.73
498.469	16359.86
498.673	16495.02
498.876	16716.2
499.079	17060.26
499.282	16976.3
499.485	17250.72
499.689	17555.87
499.892	17514.91
500.095	17506.72
500.298	18250.13
500.501	17908.12
500.705	18422.16
500.908	18700.69
501.111	18829.71
501.314	19016.07
501.517	19118.47
501.72	19360.13
501.923	19399.04
502.126	19992.95
502.329	20472.18
502.532	20169.08
502.735	20498.8
502.938	20879.72
503.141	21057.9
503.344	21256.55
503.547	21307.75
503.75	21475.68
503.953	21850.46
504.156	22296.92
504.359	22258.01
504.562	22413.65
504.765	23007.56
504.968	23058.76
505.17	23292.23
505.373	23329.09
505.576	23710.02
505.779	23832.89
505.982	23855.42
506.185	24604.98
506.387	24428.85
506.59	25266.47
506.793	25516.33
506.996	25325.86
507.198	25983.26
507.401	26284.31
507.604	26155.29
507.807	26611.99
508.009	27074.83
508.212	27013.39
508.415	27371.78
508.617	27685.12
508.82	28135.68
509.022	28117.25
509.225	28563.7
509.428	28602.61
509.63	28946.67
509.833	29012.21
510.035	29886.69
510.238	29618.41
510.44	30331.1
510.643	30429.4
510.845	30529.75
511.048	30896.34
511.25	31158.48
511.453	31580.36
511.655	32612.54
511.858	32082.11
512.06	32207.04
512.262	32764.09
512.465	32700.6
512.667	33403.05
512.87	33849.51
513.072	33814.69
513.274	34357.41
513.477	34631.83
513.679	34775.19
513.881	34967.7
514.084	35453.07
514.286	35213.46
514.488	35729.55
514.69	36837.5
514.893	37187.7
515.095	36614.27
515.297	37279.86
515.499	37320.82
515.701	38047.85
515.904	38301.79
516.106	38551.65
516.308	38881.37
516.51	39379.03
516.712	39546.96
516.914	39770.19
517.116	40859.71
517.318	40249.41
517.52	40736.83
517.722	40720.45
517.925	41668.65
518.127	42160.17
518.329	42151.98
518.531	42233.89
518.733	43005.98
518.935	43286.55
519.136	43165.72
519.338	43554.83
519.54	43745.3
519.742	44314.63
519.944	44501
520.146	45203.45
520.348	45367.29
520.55	45883.37
520.752	45891.57
520.954	46729.19
521.155	46272.49
521.357	47155.16
521.559	47308.76
521.761	48185.29
521.963	47742.93
522.164	48191.44
522.366	48160.72
522.568	48682.95
522.77	48795.59
522.971	49446.84
523.173	49176.51
523.375	49549.24
523.576	49582.01
523.778	50040.75
523.98	50300.84
524.181	50769.83
524.383	51210.14
524.584	51535.77
524.786	50753.44
524.988	51318.68
525.189	51781.52
525.391	52402.06
525.592	52457.35
525.794	52490.12
525.995	52803.46
526.197	52981.63
526.398	53159.81
526.6	53211.01
526.801	53895.03
527.003	53661.56
527.204	54071.15
527.406	54194.03
527.607	53841.78
527.808	54255.47
528.01	53964.66
528.211	54581.1
528.412	55498.59
528.614	55271.26
528.815	55170.91
529.016	55652.19
529.218	55455.58
529.419	55496.54
529.62	55451.48
529.822	54986.6
530.023	55545.69
530.224	55570.27
530.425	55496.54
530.626	55480.16
530.828	55201.63
531.029	56698.7
531.23	56139.6
531.431	56084.31
531.632	56192.85
531.833	56500.04
532.035	56321.87
532.236	56596.3
532.437	57159.49
532.638	56151.89
532.839	56885.06
533.04	56758.09
533.241	56055.64
533.442	57460.54
533.643	57282.37
533.844	56870.73
534.045	56964.93
534.246	56223.57
534.447	57098.05
534.648	56450.89
534.849	57124.68
535.05	56768.33
535.251	56850.25
535.451	56868.68
535.652	57175.87
535.853	56667.98
536.054	56690.51
536.255	57096
536.456	56559.44
536.657	57796.41
536.857	57061.19
537.058	57073.48
537.259	57235.27
537.46	56885.06
537.66	57143.11
537.861	57110.34
538.062	56823.62
538.263	57519.93
538.463	56655.69
538.664	57167.68
538.865	57057.09
539.065	56893.25
539.266	56414.03
539.466	56979.27
539.667	56567.63
539.868	57732.92
540.068	56823.62
540.269	56620.87
540.469	57323.33
540.67	56813.38
540.87	56960.84
541.071	56782.66
541.271	57370.43
541.472	56741.7
541.672	56780.62
541.873	56293.2
542.073	56579.92
542.274	56977.22
542.474	56465.23
542.675	56500.04
542.875	57257.79
543.075	56926.02
543.276	56434.51
543.476	57120.58
543.676	56817.48
543.877	57311.04
544.077	56581.96
544.277	56360.78
544.478	56299.34
544.678	57091.91
544.878	56743.75
545.078	56727.37
545.279	56147.79
545.479	56379.21
545.679	56807.24
545.879	56700.75
546.079	56479.56
546.28	56409.93
546.48	56024.92
546.68	56667.98
546.88	56942.41
547.08	56495.95
547.28	56336.21
547.48	56162.13
547.68	56686.41
547.88	55957.33
548.081	56414.03
548.281	56278.86
548.481	55687
548.681	56242
548.881	56418.13
549.081	56395.6
549.28	55865.17
549.48	56727.37
549.68	56258.38
549.88	57251.65
550.08	55885.65
550.28	56608.59
550.48	56399.69
550.68	56827.72
550.88	55947.09
551.08	56051.54
551.279	56315.73
551.479	55893.85
551.679	56213.33
551.879	55938.9
552.079	56373.07
552.278	56133.46
552.478	55947.09
552.678	56086.35
552.878	56215.38
553.077	56143.7
553.277	55433.05
553.477	56379.21
553.676	55932.76
553.876	55818.07
554.076	55996.24
554.275	55719.77
554.475	55508.83
554.674	55775.06
554.874	55836.5
555.074	55770.97
555.273	55703.38
555.473	56209.23
555.672	55287.65
555.872	55293.79
556.071	55301.98
556.271	55930.71
556.47	55148.39
556.67	54841.19
556.869	54951.78
557.068	55406.43
557.268	55162.72
557.467	55105.38
557.667	55121.76
557.866	55064.42
558.065	54769.51
558.265	55000.93
558.464	54689.64
558.663	55299.93
558.863	54613.87
559.062	55148.39
559.261	54474.6
559.461	55428.96
559.66	54237.04
559.859	54607.72
560.058	54026.1
560.258	54265.71
560.457	53956.47
560.656	54292.33
560.855	54114.16
561.054	54173.55
561.253	53651.32
561.453	54157.17
561.652	54030.19
561.851	54210.42
562.05	53755.77
562.249	53387.13
562.448	54153.07
562.647	53919.6
562.846	53202.81
563.045	53686.14
563.244	53593.98
563.443	54081.39
563.642	52670.34
563.841	53446.52
564.04	52531.08
564.239	53247.87
564.438	52694.92
564.637	53430.14
564.836	53251.97
565.035	52604.81
565.234	52563.85
565.432	52408.2
565.631	52469.64
565.83	52924.29
566.029	52209.55
566.228	52475.79
566.427	52088.72
566.625	51949.46
566.824	51267.48
567.023	51914.64
567.222	51335.07
567.42	51908.5
567.619	51818.39
567.818	51791.76
568.016	51074.98
568.215	51769.24
568.414	51431.32
568.612	51736.47
568.811	50747.3
569.01	51775.38
569.208	50548.65
569.407	51156.89
569.605	50327.47
569.804	50931.62
570.002	50042.8
570.201	50321.32
570.4	50112.43
570.598	49973.17
570.797	50091.95
570.995	50300.84
571.193	49725.36
571.392	50130.86
571.59	49541.05
571.789	50036.66
571.987	49258.43
572.186	49428.41
572.384	49495.99
572.582	49319.87
572.781	49455.03
572.979	48404.42
573.177	49094.59
573.376	48986.05
573.574	48951.23
573.772	48914.37
573.971	48650.18
574.169	48445.38
574.367	47787.99
574.565	48203.72
574.763	48148.43
574.962	48082.89
575.16	47855.57
575.358	48070.61
575.556	47599.57
575.754	48426.95
575.952	47611.86
576.151	48082.89
576.349	47093.72
576.547	47595.48
576.745	47478.74
576.943	47349.72
577.141	47153.12
577.339	47124.44
577.537	46819.3
577.735	46759.91
577.933	46354.41
578.131	46452.71
578.329	46559.2
578.527	46024.68
578.725	46305.26
578.923	46544.87
579.121	46020.59
579.319	45875.18
579.516	45969.39
579.714	46276.58
579.912	45518.84
580.11	45576.18
580.308	45598.71
580.506	45676.53
580.704	44746.75
580.901	45355
581.099	45395.96
581.297	45025.28
581.495	44779.52
581.692	45416.44
581.89	44427.27
582.088	45166.59
582.285	44589.06
582.483	44707.84
582.681	44394.5
582.878	44130.31
583.076	43874.32
583.274	43917.32
583.471	43708.43
583.669	43624.46
583.866	43632.66
584.064	43855.89
584.262	43640.85
584.459	43532.31
584.657	43051.03
584.854	43556.88
585.052	42838.04
585.249	43522.07
585.447	43188.25
585.644	42434.6
585.841	42678.3
586.039	42905.63
586.236	42604.58
586.434	42514.47
586.631	42201.13
586.828	42303.53
587.026	42258.47
587.223	42334.24
587.42	41887.79
587.618	42137.64
587.815	41580.59
588.012	41605.17
588.21	41830.44
588.407	41676.85
588.604	41091.13
588.801	40898.62
588.999	41015.35
589.196	41168.95
589.393	40951.87
589.59	40851.52
589.787	40200.26
589.984	40429.63
590.182	40370.24
590.379	40714.3
590.576	40226.88
590.773	40259.65
590.97	40050.76
591.167	40153.16
591.364	39716.94
591.561	39895.11
591.758	39458.9
591.955	39569.49
592.152	39581.77
592.349	39340.11
592.546	39467.09
592.743	39413.84
592.94	38600.8
593.137	39342.16
593.334	39219.28
593.531	38334.56
593.727	38232.16
593.924	38608.99
594.121	38457.44
594.318	38664.28
594.515	37660.78
594.712	38776.92
594.908	37992.55
595.105	37875.82
595.302	37701.74
595.499	38051.94
595.696	37496.94
595.892	37269.62
596.089	37640.3
596.286	37542
596.482	37056.63
596.679	37394.54
596.876	37496.94
597.072	36767.87
597.269	36905.08
597.466	36823.16
597.662	36329.6
597.859	36569.21
598.055	36292.74
598.252	36169.86
598.448	36323.46
598.645	36151.43
598.841	35477.65
599.038	35729.55
599.234	35815.56
599.431	35766.41
599.627	35494.03
599.824	35621
600.02	35041.43
600.217	35690.63
600.413	35045.52
600.609	35098.77
600.806	34979.99
601.002	35049.62
601.198	34846.87
601.395	34650.27
601.591	34541.72
601.787	34603.16
601.984	34535.58
602.18	34490.52
602.376	34109.6
602.572	34023.59
602.769	33878.18
602.965	33609.9
603.161	34052.26
603.357	33808.55
603.553	33616.04
603.75	33577.13
603.946	33581.23
604.142	33517.74
604.338	32958.64
604.534	33355.95
604.73	33030.32
604.926	32895.16
605.122	32874.68
605.318	32508.09
605.514	32596.15
605.71	32297.15
605.906	32417.98
606.102	32501.95
606.298	32340.16
606.494	32307.39
606.69	32415.93
606.886	32059.59
607.082	31584.46
607.278	31932.61
607.474	31617.22
607.67	32024.77
607.866	31574.22
608.062	31680.71
608.257	31748.29
608.453	31301.84
608.649	31760.58
608.845	31191.25
609.041	31486.15
609.236	31101.14
609.432	30951.63
609.628	31156.43
609.824	31125.71
610.019	30914.77
610.215	30896.34
610.411	31178.96
610.606	30570.71
610.802	30834.9
610.998	30847.19
611.193	30703.83
611.389	30265.56
611.584	30425.31
611.78	30269.66
611.976	30263.52
612.171	30394.59
612.367	29970.66
612.562	30251.23
612.758	29712.61
612.953	29579.5
613.149	30114.02
613.344	29339.88
613.539	30105.82
613.735	29565.16
613.93	29726.95
614.126	29368.55
614.321	29929.7
614.517	29413.61
614.712	29335.79
614.907	29159.66
615.103	29464.81
615.298	29051.12
615.493	29124.85
615.688	28881.14
615.884	29491.43
616.079	28799.22
616.274	29319.4
616.47	28948.72
616.665	29180.14
616.86	28768.5
617.055	28836.08
617.25	28549.37
617.445	28739.83
617.641	28258.56
617.836	28479.74
618.031	27943.17
618.226	28383.48
618.421	27980.03
618.616	28416.25
618.811	27943.17
619.006	28137.73
619.201	27441.42
619.396	27728.13
619.591	27191.56
619.786	27695.36
619.981	27228.43
620.176	27275.53
620.371	27013.39
620.566	27250.95
620.761	27056.4
620.956	26857.74
621.151	26534.17
621.346	26525.97
621.541	26276.12
621.735	26552.6
621.93	25811.23
622.125	25821.47
622.32	25442.6
622.515	25735.46
622.709	25379.11
622.904	25571.62
623.099	25245.99
623.294	25327.91
623.488	25231.66
623.683	24994.09
623.878	24738.1
624.072	24779.06
624.267	24703.28
624.462	24523.06
624.656	24072.51
624.851	24557.88
625.046	24271.16
625.24	23923.01
625.435	23980.35
625.629	23667.01
625.824	23720.26
626.018	23677.25
626.213	22950.22
626.407	23673.15
626.602	23095.63
626.796	23097.67
626.991	23048.52
627.185	22675.79
627.38	22585.68
627.574	22528.34
627.768	22305.11
627.963	22321.49
628.157	21989.72
628.352	22243.67
628.546	21965.15
628.74	21940.57
628.935	21432.68
629.129	21631.33
629.323	21209.45
629.517	21035.37
629.712	21031.27
629.906	21092.71
630.1	20887.92
630.294	21076.33
630.489	20758.89
630.683	20644.21
630.877	20445.55
631.071	20611.44
631.265	20404.6
631.459	19980.67
631.653	20105.59
631.848	20169.08
632.042	19755.39
632.236	19984.76
632.43	19775.87
632.624	19732.86
632.818	19276.16
633.012	19243.4
633.206	19044.74
633.4	19087.75
633.594	18891.15
633.788	18817.42
633.982	18878.86
634.176	18999.69
634.369	18895.24
634.563	18518.42
634.757	18479.5
634.951	18723.21
635.145	18323.86
635.339	18221.46
635.533	18147.73
635.726	18289.04
635.92	17811.87
636.114	17656.22
636.308	17566.11
636.501	17705.37
636.695	17471.9
636.889	17476
637.083	17609.12
637.276	17359.27
637.47	17174.95
637.664	17062.31
637.857	17004.97
638.051	16785.83
638.244	16787.88
638.438	16679.34
638.632	16552.37
638.825	16400.82
639.019	16316.85
639.212	16089.53
639.406	16372.14
639.599	16204.21
639.793	16382.38
639.986	16064.95
640.18	16028.09
640.373	15972.79
640.567	15444.41
640.76	15727.03
640.954	15583.68
641.147	15516.09
641.34	15217.09
641.534	15514.05
641.727	15448.51
641.92	15196.61
642.114	15118.79
642.307	14985.67
642.5	14967.24
642.694	14578.12
642.887	14698.95
643.08	14766.54
643.273	14744.01
643.467	14637.52
643.66	14524.88
643.853	14477.77
644.046	13988.31
644.239	14129.62
644.432	14133.72
644.626	13976.02
644.819	14205.39
645.012	14057.94
645.205	13900.25
645.398	13783.51
645.591	13634.01
645.784	13803.99
645.977	13408.73
646.17	13373.92
646.363	13355.49
646.556	13150.69
646.749	13425.12
646.942	13316.58
647.135	13160.93
647.328	12859.88
647.521	12816.87
647.714	12874.21
647.907	12728.81
648.099	12767.72
648.292	12753.38
648.485	12526.06
648.678	12583.4
648.871	12380.65
649.064	12511.72
649.256	12198.38
649.449	12370.41
649.642	12235.25
649.835	12138.99
650.027	12130.8
650.22	11762.17
650.413	11971.06
650.605	11971.06
650.798	11811.32
650.991	11825.65
651.183	11878.9
651.376	11561.47
651.568	11729.4
651.761	11373.05
651.954	11446.78
652.146	11407.87
652.339	11553.27
652.531	11241.98
652.724	11289.09
652.916	11086.34
653.109	11094.53
653.301	11028.99
653.494	11119.1
653.686	10721.8
653.879	10897.92
654.071	10746.37
654.263	10697.22
654.456	10627.59
654.648	10889.73
654.84	10439.18
655.033	10603.02
655.225	10273.29
655.417	10521.1
655.61	10512.91
655.802	10451.47
655.994	10293.77
656.186	10426.89
656.379	10218
656.571	10187.28
656.763	9888.28
656.955	9929.24
657.148	10005.01
657.34	9996.82
657.532	9828.88
657.724	9706.01
657.916	9740.82
658.108	9798.17
658.3	9593.37
658.492	9570.84
658.684	9529.88
658.876	9562.65
659.068	9404.96
659.26	9361.95
659.452	9161.25
659.644	9310.75
659.836	9237.02
660.028	9189.92
660.22	8911.39
660.412	8999.46
660.604	8929.83
660.796	9169.44
660.988	8876.58
661.18	8892.96
661.372	8907.3
661.563	8741.41
661.755	8602.15
661.947	8974.88
662.139	8616.49
662.331	8393.26
662.522	8542.76
662.714	8499.75
662.906	8610.34
663.097	8579.62
663.289	8464.94
663.481	8299.05
663.673	8378.92
663.864	8210.99
664.056	8165.93
664.247	8180.27
664.439	8059.44
664.631	8086.06
664.822	8200.75
665.014	8172.08
665.205	7979.57
665.397	7998
665.588	7981.62
665.78	7754.29
665.971	7899.7
666.163	7954.99
666.354	7727.67
666.546	7723.57
666.737	7651.89
666.929	7744.05
667.12	7799.35
667.311	7608.89
667.503	7631.41
667.694	7639.61
667.885	7680.57
668.077	7494.2
668.268	7576.12
668.459	7236.16
668.651	7326.27
668.842	7408.19
669.033	7189.05
669.224	7273.02
669.416	7361.08
669.607	7344.7
669.798	7080.51
669.989	7213.63
670.18	7146.05
670.371	7033.41
670.563	7084.61
670.754	7045.7
670.945	6990.4
671.136	7039.55
671.327	6801.99
671.518	6881.86
671.709	7008.83
671.9	6906.43
672.091	7068.22
672.282	6777.41
672.473	6801.99
672.664	6654.53
672.855	6736.45
673.046	6711.88
673.237	6730.31
673.428	6689.35
673.619	6525.51
673.809	6658.63
674	6531.65
674.191	6722.12
674.382	6472.26
674.573	6646.34
674.764	6509.13
674.954	6509.13
675.145	6421.06
675.336	6474.31
675.527	6142.54
675.717	6388.3
675.908	6339.15
676.099	6238.8
676.289	6378.06
676.48	6255.18
676.671	6093.39
676.861	6294.09
677.052	6064.72
677.243	6244.94
677.433	6199.88
677.624	6171.21
677.814	6251.08
678.005	6179.4
678.195	6126.16
678.386	6238.8
678.576	6193.74
678.767	6038.09
678.957	6097.49
679.148	5997.14
679.338	6183.5
679.529	5945.94
679.719	5892.69
679.909	5874.26
680.1	5972.56
680.29	6048.33
680.481	5937.74
680.671	5888.59
680.861	5904.98
681.052	5984.85
681.242	5753.43
681.432	5990.99
681.622	5841.49
681.813	5802.58
682.003	5808.72
682.193	5616.21
682.383	5728.85
682.573	5855.83
682.764	5628.5
682.954	5610.07
683.144	5767.76
683.334	5560.92
683.524	5517.91
683.714	5745.23
683.904	5712.47
684.094	5536.34
684.284	5665.36
684.474	5605.97
684.664	5644.88
684.854	5474.9
685.044	5528.15
685.234	5356.12
685.424	5495.38
685.614	5587.54
685.804	5472.86
685.994	5423.7
686.184	5538.39
686.374	5468.76
686.564	5343.83
686.753	5511.77
686.943	5347.93
687.133	5403.22
687.323	5366.36
687.513	5354.07
687.702	5229.15
687.892	5165.66
688.082	5323.35
688.272	5247.58
688.461	5253.72
688.651	5253.72
688.841	5257.82
689.03	5069.41
689.22	5143.13
689.41	5044.83
689.599	5180
689.789	5024.35
689.979	4889.18
690.168	4981.34
690.358	4932.19
690.547	4823.65
690.737	4938.34
690.926	4979.29
691.116	4950.62
691.305	4770.4
691.495	4794.98
691.684	4715.11
691.874	4905.57
692.063	4618.85
692.252	4690.53
692.442	4835.94
692.631	4598.37
692.82	4606.56
693.01	4629.09
693.199	4518.5
693.388	4618.85
693.578	4592.23
693.767	4612.71
693.956	4604.52
694.146	4590.18
694.335	4446.82
694.524	4518.5
694.713	4631.14
694.902	4577.89
695.092	4432.49
695.281	4321.9
695.47	4457.06
695.659	4371.05
695.848	4356.71
696.037	4446.82
696.226	4487.78
696.415	4387.43
696.604	4467.3
696.793	4307.56
696.982	4395.62
697.171	4344.42
697.36	4383.34
697.549	4217.45
697.738	4223.59
697.927	4260.46
698.116	4168.3
698.305	4352.62
698.494	4278.89
698.683	4282.99
698.872	4311.66
699.061	4221.55
699.25	4156.01
699.438	4438.63
699.627	4188.78
699.816	4342.38
700.005	4221.55
700.193	4096.62
700.382	4135.53
700.571	4192.87
700.76	4168.3
700.948	4266.6
701.137	4147.82
701.326	4143.72
701.514	4049.52
701.703	4090.48
701.892	4268.65
702.08	4239.98
702.269	4217.45
702.457	4004.46
702.646	4170.35
702.834	4063.85
703.023	4176.49
703.212	4246.12
703.4	4033.13
703.589	4010.61
703.777	4037.23
703.965	3953.26
704.154	4082.28
704.342	4110.96
704.531	4002.41
704.719	4051.56
704.907	4057.71
705.096	3912.3
705.284	4002.41
705.472	3926.64
705.661	3988.08
705.849	4072.04
706.037	4033.13
706.226	3848.82
706.414	4016.75
706.602	3879.54
706.79	4219.5
706.979	3981.93
707.167	3928.69
707.355	4070
707.543	3951.21
707.731	3979.89
707.919	4012.65
708.107	3902.06
708.296	3885.68
708.484	3957.36
708.672	3881.58
708.86	3828.34
709.048	3945.07
709.236	3990.13
709.424	3943.02
709.612	3861.1
709.8	3971.69
709.988	3961.45
710.176	4010.61
710.364	3951.21
710.551	4082.28
710.739	3779.18
710.927	3750.51
711.115	3861.1
711.303	4033.13
711.491	3803.76
711.679	3783.28
711.866	3797.62
712.054	3814
712.242	3859.06
712.43	3932.78
712.617	3895.92
712.805	3828.34
712.993	3811.95
713.181	3775.09
713.368	3732.08
713.556	3768.95
713.744	3762.8
713.931	3885.68
714.119	3838.58
714.306	3922.54
714.494	3750.51
714.682	3746.42
714.869	3793.52
715.057	3756.66
715.244	3781.23
715.432	3959.41
715.619	3742.32
715.807	3770.99
715.994	3875.44
716.182	3646.07
716.369	3746.42
716.556	3816.05
716.744	3836.53
716.931	3703.41
717.119	3717.75
717.306	3742.32
717.493	3850.86
717.681	3816.05
717.868	3857.01
718.055	3760.75
718.242	3801.71
718.43	3646.07
718.617	3568.24
718.804	3715.7
718.991	3533.43
719.179	3777.14
719.366	3773.04
719.553	3631.73
719.74	3666.55
719.927	3748.47
720.114	3652.21
720.301	3545.72
720.488	3715.7
720.676	3703.41
720.863	3656.31
721.05	3787.38
721.237	3693.17
721.424	3492.47
721.611	3566.2
721.798	3668.59
721.985	3684.98
722.172	3631.73
722.358	3658.35
722.545	3598.96
722.732	3525.24
722.919	3629.68
723.106	3705.46
723.293	3490.42
723.48	3641.97
723.667	3633.78
723.853	3426.93
724.04	3590.77
724.227	3494.52
724.414	3635.83
724.6	3662.45
724.787	3641.97
724.974	3504.76
725.161	3584.63
725.347	3578.48
725.534	3617.4
725.72	3508.85
725.907	3652.21
726.094	3574.39
726.28	3435.13
726.467	3621.49
726.653	3410.55
726.84	3459.7
727.027	3539.57
727.213	3531.38
727.4	3582.58
727.586	3504.76
727.773	3558
727.959	3474.04
728.145	3476.09
728.332	3447.41
728.518	3400.31
728.705	3439.22
728.891	3469.94
729.077	3402.36
729.264	3365.5
729.45	3312.25
729.636	3418.74
729.823	3359.35
730.009	3359.35
730.195	3467.89
730.382	3385.97
730.568	3543.67
730.754	3351.16
730.94	3394.17
731.126	3467.89
731.313	3422.84
731.499	3439.22
731.685	3510.9
731.871	3379.83
732.057	3306.1
732.243	3453.56
732.429	3388.02
732.615	3285.62
732.801	3406.45
732.987	3369.59
733.173	3347.06
733.359	3185.27
733.545	3287.67
733.731	3269.24
733.917	3224.19
734.103	3494.52
734.289	3330.68
734.475	3224.19
734.661	3299.96
734.847	3342.97
735.033	3371.64
735.219	3312.25
735.404	3302.01
735.59	3336.82
735.776	3127.93
735.962	3295.86
736.148	3308.15
736.333	3197.56
736.519	3218.04
736.705	3306.1
736.89	3056.25
737.076	3228.28
737.262	3140.22
737.447	3132.03
737.633	3070.59
737.819	3226.23
738.004	3074.68
738.19	3099.26
738.375	3156.6
738.561	3074.68
738.747	3070.59
738.932	3064.44
739.118	2998.91
739.303	3132.03
739.489	3029.63
739.674	3046.01
739.859	3068.54
740.045	3062.4
740.23	3082.88
740.416	2955.9
740.601	3074.68
740.786	3037.82
740.972	2947.71
741.157	2947.71
741.342	2968.19
741.528	2919.04
741.713	2947.71
741.898	2962.05
742.084	2841.22
742.269	2804.35
742.454	2865.79
742.639	2939.52
742.824	2867.84
743.01	2964.09
743.195	2890.37
743.38	2841.22
743.565	2822.78
743.75	2759.3
743.935	2742.91
744.12	2685.57
744.305	2685.57
744.49	2783.87
744.675	2669.19
744.86	2701.95
745.045	2802.3
745.23	2609.79
745.415	2714.24
745.6	2738.82
745.785	2626.18
745.97	2706.05
746.155	2697.86
746.34	2640.51
746.525	2437.77
746.71	2550.4
746.895	2591.36
747.079	2445.96
747.264	2548.36
747.449	2499.2
747.634	2466.44
747.819	2525.83
748.003	2431.62
748.188	2361.99
748.373	2454.15
748.557	2427.53
748.742	2474.63
748.927	2366.09
749.111	2448.01
749.296	2405
749.481	2255.5
749.665	2349.7
749.85	2271.88
750.034	2458.25
750.219	2314.89
750.404	2198.15
750.588	2116.23
750.773	2177.67
750.957	2312.84
751.141	2206.34
751.326	2296.46
751.51	2153.1
751.695	2157.19
751.879	2163.34
752.064	2128.52
752.248	2175.63
752.432	2138.76
752.617	2034.32
752.801	2089.61
752.985	2058.89
753.17	2040.46
753.354	2022.03
753.538	2060.94
753.722	1966.73
753.907	1929.87
754.091	1976.97
754.275	2009.74
754.459	1936.01
754.643	1841.81
754.828	1870.48
755.012	1952.4
755.196	1936.01
755.38	1811.09
755.564	1850
755.748	1761.94
755.932	1878.67
756.116	1817.23
756.3	1759.89
756.484	1782.42
756.668	1708.69
756.852	1770.13
757.036	1706.64
757.22	1751.7
757.404	1614.48
757.588	1723.02
757.772	1778.32
757.956	1645.2
758.14	1811.09
758.323	1630.87
758.507	1682.06
758.691	1745.55
758.875	1669.78
759.059	1665.68
759.242	1651.35
759.426	1698.45
759.61	1534.61
759.794	1550.99
759.977	1524.37
760.161	1589.91
760.345	1604.24
760.528	1520.28
760.712	1540.76
760.895	1522.32
761.079	1524.37
761.263	1430.16
761.446	1600.15
761.63	1467.03
761.813	1542.8
761.997	1483.41
762.18	1501.84
762.364	1485.46
762.547	1436.31
762.731	1440.4
762.914	1366.68
763.098	1378.97
763.281	1438.36
763.464	1358.49
763.648	1354.39
763.831	1297.05
764.015	1352.34
764.198	1378.97
764.381	1391.25
764.564	1338.01
764.748	1391.25
764.931	1409.69
765.114	1481.36
765.297	1376.92
765.481	1288.85
765.664	1329.81
765.847	1354.39
766.03	1344.15
766.213	1284.76
766.397	1383.06
766.58	1280.66
766.763	1333.91
766.946	1301.14
767.129	1208.98
767.312	1338.01
767.495	1309.33
767.678	1223.32
767.861	1360.53
768.044	1235.61
768.227	1303.19
768.41	1292.95
768.593	1251.99
768.776	1149.59
768.959	1196.7
769.142	1333.91
769.324	1239.7
769.507	1254.04
769.69	1131.16
769.873	1213.08
770.056	1286.81
770.239	1297.05
770.421	1182.36
770.604	1221.27
770.787	1135.26
770.97	1127.07
771.152	1106.59
771.335	1157.78
771.518	1036.95
771.7	1116.83
771.883	1180.31
772.066	1182.36
772.248	1075.87
772.431	1067.67
772.613	1057.43
772.796	1094.3
772.978	1010.33
773.161	1065.63
773.343	1057.43
773.526	981.66
773.708	959.13
773.891	1020.57
774.073	981.66
774.256	1026.71
774.438	1008.28
774.621	1098.39
774.803	1106.59
774.985	1047.19
775.168	936.6
775.35	1075.87
775.532	981.66
775.715	899.74
775.897	1026.71
776.079	903.84
776.261	942.75
776.444	926.36
776.626	866.97
776.808	952.99
776.99	940.7
777.173	955.04
777.355	922.27
777.537	715.42
777.719	924.32
777.901	916.12
778.083	944.8
778.265	838.3
778.447	887.45
778.629	907.93
778.811	942.75
778.993	830.11
779.175	774.81
779.357	828.06
779.539	793.25
779.721	785.05
779.903	862.88
780.085	926.36
780.267	801.44
780.449	817.82
780.631	758.43
780.812	897.69
780.994	850.59
781.176	766.62
781.358	729.76
781.54	729.76
781.721	797.34
781.903	758.43
782.085	639.65
782.267	793.25
782.448	703.14
782.63	764.57
782.812	721.57
782.993	811.68
783.175	680.61
783.357	610.98
783.538	684.7
783.72	670.37
783.901	672.42
784.083	621.22
784.264	580.26
784.446	635.55
784.627	545.44
784.809	641.7
784.99	606.88
785.172	670.37
785.353	670.37
785.535	610.98
785.716	621.22
785.897	621.22
786.079	633.5
786.26	610.98
786.441	582.31
786.623	445.09
786.804	543.39
786.985	594.59
787.167	535.2
787.348	567.97
787.529	574.11
787.71	547.49
787.891	576.16
788.073	539.3
788.254	463.52
788.435	547.49
788.616	531.11
788.797	551.59
788.978	502.43
789.159	557.73
789.34	533.15
789.522	492.2
789.703	541.35
789.884	567.97
790.065	488.1
790.246	492.2
790.427	522.91
790.607	535.2
790.788	535.2
790.969	410.28
791.15	524.96
791.331	539.3
791.512	469.67
791.693	496.29
791.874	467.62
792.054	469.67
792.235	488.1
792.416	436.9
792.597	459.43
792.778	570.02
792.958	490.15
793.139	490.15
793.32	428.71
793.5	512.67
793.681	484
793.862	451.24
794.042	459.43
794.223	352.93
794.404	359.08
794.584	354.98
794.765	400.04
794.945	330.41
795.126	459.43
795.306	393.89
795.487	424.61
795.667	375.46
795.848	484
796.028	330.41
796.209	410.28
796.389	391.84
796.57	393.89
796.75	375.46
796.93	395.94
797.111	443.04
797.291	430.76
797.471	451.24
797.652	426.66
797.832	330.41
798.012	422.56
798.192	363.17
798.373	354.98
798.553	318.12
798.733	361.13
798.913	303.78
799.093	430.76
799.274	338.6
799.454	365.22
799.634	326.31
799.814	318.12
799.994	412.32
800.174	311.97
800.354	363.17
800.534	297.64
800.714	318.12
800.894	342.69
801.074	279.21
801.254	338.6
801.434	289.45
801.614	193.19
801.794	311.97
801.974	866.97
802.154	264.87
802.334	271.01
802.514	295.59
802.693	279.21
802.873	264.87
803.053	336.55
803.233	254.63
803.413	203.43
803.592	426.66
803.772	289.45
803.952	285.35
804.131	258.73
804.311	283.3
804.491	299.69
804.67	258.73
804.85	221.86
805.03	289.45
805.209	322.21
805.389	340.65
805.568	244.39
805.748	334.5
805.928	256.68
806.107	311.97
806.287	234.15
806.466	250.53
806.646	230.06
806.825	350.89
807.004	330.41
807.184	232.1
807.363	297.64
807.543	248.49
807.722	273.06
807.901	275.11
808.081	244.39
808.26	295.59
808.439	305.83
808.619	240.29
808.798	228.01
808.977	293.54
809.156	246.44
809.336	314.02
809.515	254.63
809.694	166.57
809.873	223.91
810.052	262.82
810.231	256.68
810.411	273.06
810.59	318.12
810.769	240.29
810.948	279.21
811.127	221.86
811.306	207.53
811.485	195.24
811.664	330.41
811.843	211.62
812.022	297.64
812.201	228.01
812.38	219.82
812.559	207.53
812.737	305.83
812.916	133.8
813.095	201.38
813.274	211.62
813.453	209.58
813.632	244.39
813.811	191.14
813.989	156.33
814.168	287.4
814.347	166.57
814.526	166.57
814.704	219.82
814.883	260.77
815.062	187.05
815.24	162.47
815.419	146.09
815.598	150.18
815.776	207.53
815.955	174.76
816.133	131.75
816.312	234.15
816.49	225.96
816.669	154.28
816.847	213.67
817.026	197.29
817.204	191.14
817.383	170.66
817.561	176.81
817.74	250.53
817.918	164.52
818.097	205.48
818.275	158.38
818.453	244.39
818.632	174.76
818.81	127.66
818.988	164.52
819.167	156.33
819.345	199.34
819.523	144.04
819.701	187.05
819.879	172.71
820.058	199.34
820.236	191.14
820.414	223.91
820.592	135.85
820.77	236.2
820.948	127.66
821.127	101.03
821.305	197.29
821.483	133.8
821.661	182.95
821.839	178.86
822.017	158.38
822.195	92.84
822.373	154.28
822.551	115.37
822.729	166.57
822.907	84.65
823.085	225.96
823.262	133.8
823.44	160.42
823.618	137.9
823.796	94.89
823.974	170.66
824.152	135.85
824.329	78.51
824.507	84.65
824.685	121.51
824.863	115.37
825.04	207.53
825.218	193.19
825.396	137.9
825.574	166.57
825.751	141.99
825.929	141.99
826.107	148.14
826.284	131.75
826.462	150.18
826.639	139.94
826.817	135.85
826.994	125.61
827.172	82.6
827.349	160.42
827.527	144.04
827.704	195.24
827.882	172.71
828.059	133.8
828.237	197.29
828.414	62.12
828.591	125.61
828.769	127.66
828.946	119.46
829.124	133.8
829.301	150.18
829.478	101.03
829.655	90.79
829.833	168.62
830.01	58.03
830.187	141.99
830.364	121.51
830.542	195.24
830.719	123.56
830.896	119.46
831.073	123.56
831.25	127.66
831.427	129.7
831.604	86.7
831.782	51.88
831.959	98.99
832.136	129.7
832.313	133.8
832.49	80.55
832.667	228.01
832.844	115.37
833.021	84.65
833.198	129.7
833.374	117.42
833.551	84.65
833.728	178.86
833.905	141.99
834.082	78.51
834.259	150.18
834.436	58.03
834.612	92.84
834.789	144.04
834.966	141.99
835.143	172.71
835.319	92.84
835.496	137.9
835.673	150.18
835.85	74.41
836.026	152.23
836.203	94.89
836.38	49.83
836.556	82.6
836.733	74.41
836.909	129.7
837.086	80.55
837.262	127.66
837.439	94.89
837.616	82.6
837.792	127.66
837.968	43.69
838.145	25.26
838.321	115.37
838.498	74.41
838.674	121.51
838.851	41.64
839.027	125.61
839.203	137.9
839.38	133.8
839.556	96.94
839.732	105.13
839.909	86.7
840.085	137.9
840.261	25.26
840.437	80.55
840.614	80.55
840.79	88.75
840.966	68.27
841.142	55.98
841.318	113.32
841.494	-7.51
841.671	121.51
841.847	62.12
842.023	15.02
842.199	127.66
842.375	146.09
842.551	49.83
842.727	29.35
842.903	101.03
843.079	45.74
843.255	90.79
843.431	43.69
843.607	107.18
843.783	19.11
843.959	101.03
844.134	98.99
844.31	127.66
844.486	92.84
844.662	-34.13
844.838	86.7
845.013	84.65
845.189	94.89
845.365	76.46
845.541	166.57
845.716	35.5
845.892	84.65
846.068	29.35
846.244	80.55
846.419	90.79
846.595	70.31
846.77	123.56
846.946	4.78
847.122	76.46
847.297	109.22
847.473	88.75
847.648	60.07
847.824	84.65
847.999	90.79
848.175	76.46
848.35	-21.85
848.526	90.79
848.701	121.51
848.876	144.04
849.052	70.31
849.227	41.64
849.403	17.07
849.578	25.26
849.753	96.94
849.929	62.12
850.104	109.22
850.279	25.26
850.454	68.27
850.63	90.79
850.805	109.22
850.98	125.61
851.155	84.65
851.33	76.46
851.505	2.73
851.681	74.41
851.856	45.74
852.031	84.65
852.206	41.64
852.381	88.75
852.556	123.56
852.731	64.17
852.906	139.94
853.081	131.75
853.256	68.27
853.431	45.74
853.606	70.31
853.781	-5.46
853.956	55.98
854.131	141.99
854.305	68.27
854.48	37.55
854.655	33.45
854.83	80.55
855.005	17.07
855.18	49.83
855.354	19.11
855.529	47.79
855.704	109.22
855.879	135.85
856.053	47.79
856.228	55.98
856.403	27.31
856.577	133.8
856.752	-9.56
856.926	80.55
857.101	98.99
857.276	80.55
857.45	0.68
857.625	72.36
857.799	31.4
857.974	113.32
858.148	12.97
858.323	96.94
858.497	39.59
858.672	41.64
858.846	-23.89
859.02	111.27
859.195	78.51
859.369	41.64
859.543	129.7
859.718	68.27
859.892	47.79
860.066	37.55
860.241	25.26
860.415	-7.51
860.589	-7.51
860.763	23.21
860.938	-32.08
861.112	49.83
861.286	19.11
861.46	80.55
861.634	-15.7
861.808	55.98
861.982	66.22
862.157	103.08
862.331	27.31
862.505	8.87
862.679	-13.65
862.853	-3.41
863.027	90.79
863.201	37.55
863.375	35.5
863.549	12.97
863.722	96.94
863.896	-17.75
864.07	6.83
864.244	-1.37
864.418	49.83
864.592	37.55
864.766	51.88
864.939	74.41
865.113	17.07
865.287	80.55
865.461	-21.85
865.634	51.88
865.808	37.55
865.982	-32.08
866.156	76.46
866.329	19.11
866.503	51.88
866.676	53.93
866.85	-3.41
867.024	21.16
867.197	68.27
867.371	98.99
867.544	105.13
867.718	-7.51
867.891	68.27
868.065	-3.41
868.238	10.92
868.412	84.65
868.585	55.98
868.759	92.84
868.932	27.31
869.105	15.02
869.279	86.7
869.452	29.35
869.625	12.97
869.799	60.07
869.972	12.97
870.145	-17.75
870.319	-46.42
870.492	55.98
870.665	39.59
870.838	-46.42
871.011	-38.23
871.185	-15.7
871.358	-25.94
871.531	129.7
871.704	6.83
871.877	58.03
872.05	-25.94
872.223	55.98
872.396	53.93
872.569	25.26
872.742	27.31
872.915	60.07
873.088	-56.66
873.261	-7.51
873.434	47.79
873.607	-5.46
873.78	43.69
873.953	19.11
874.126	58.03
874.299	78.51
874.471	19.11
874.644	-27.99
874.817	29.35
874.99	156.33
875.163	-48.47
875.335	-7.51
875.508	-25.94
875.681	33.45
875.853	53.93
876.026	-3.41
876.199	-46.42
876.371	4.78
876.544	41.64
876.717	84.65
876.889	51.88
877.062	-1.37
877.234	66.22
877.407	27.31
877.579	8.87
877.752	-1.37
877.924	45.74
878.097	31.4
878.269	31.4
878.442	-32.08
878.614	117.42
878.786	121.51
878.959	17.07
879.131	29.35
879.303	-25.94
879.476	58.03
879.648	21.16
879.82	-34.13
879.993	-46.42
880.165	6.83
880.337	49.83
880.509	-36.18
880.681	-15.7
880.854	-5.46
881.026	58.03
881.198	121.51
881.37	41.64
881.542	84.65
881.714	8.87
881.886	55.98
882.058	27.31
882.23	94.89
882.402	-34.13
882.574	27.31
882.746	8.87
882.918	49.83
883.09	31.4
883.262	92.84
883.434	-48.47
883.606	49.83
883.778	-30.04
883.95	23.21
884.122	10.92
884.293	39.59
884.465	-13.65
884.637	39.59
884.809	19.11
884.98	43.69
885.152	60.07
885.324	55.98
885.496	2.73
885.667	12.97
885.839	-32.08
886.011	94.89
886.182	94.89
886.354	47.79
886.525	37.55
886.697	-15.7
886.869	41.64
887.04	47.79
887.212	111.27
887.383	23.21
887.555	-27.99
887.726	68.27
887.897	47.79
888.069	47.79
888.24	21.16
888.412	-13.65
888.583	19.11
888.754	25.26
888.926	-38.23
889.097	-17.75
889.268	19.11
889.44	-27.99
889.611	-36.18
889.782	64.17
889.953	12.97
890.125	115.37
890.296	-46.42
890.467	64.17
890.638	43.69
890.809	23.21
890.98	19.11
891.151	39.59
891.323	53.93
891.494	86.7
891.665	0.68
891.836	27.31
892.007	68.27
892.178	23.21
892.349	10.92
892.52	37.55
892.691	35.5
892.862	51.88
893.032	-1.37
893.203	60.07
893.374	-38.23
893.545	53.93
893.716	10.92
893.887	-7.51
894.057	-66.9
894.228	-30.04
894.399	21.16
894.57	33.45
894.74	25.26
894.911	4.78
895.082	-21.85
895.253	66.22
895.423	6.83
895.594	115.37
895.764	2.73
895.935	-7.51
896.106	33.45
896.276	23.21
896.447	31.4
896.617	21.16
896.788	0.68
896.958	-40.28
897.129	-27.99
897.299	-40.28
897.47	6.83
897.64	21.16
897.81	8.87
897.981	6.83
898.151	-21.85
898.322	2.73
898.492	8.87
898.662	-21.85
898.832	31.4
899.003	43.69
899.173	51.88
899.343	33.45
899.513	-21.85
