Data from USB4F104151__255__10-39-45-208.txt Node

Date: Wed Mar 12 10:39:45 EDT 2025
User: louis
Spectrometer: USB4F10415
Trigger mode: 4
Integration Time (sec): 3.000000E-2
Scans to average: 1
Electric dark correction enabled: true
Nonlinearity correction enabled: false
Boxcar width: 0
XAxis mode: Wavelengths
Number of Pixels in Spectrum: 3648
>>>>>Begin Spectral Data<<<<<
178.204	-116.22
178.424	-116.22
178.644	-116.22
178.864	-60.93
179.084	-32.26
179.304	41.47
179.524	-34.3
179.744	0.51
179.964	31.23
180.184	-24.06
180.404	-50.69
180.624	27.14
180.844	45.57
181.064	-36.35
181.283	-30.21
181.503	10.75
181.723	18.94
181.943	6.66
182.163	152.06
182.383	53.76
182.602	57.86
182.822	92.67
183.042	25.09
183.262	100.86
183.482	76.29
183.701	84.48
183.921	100.86
184.141	35.33
184.361	41.47
184.58	80.38
184.8	80.38
185.02	47.62
185.239	82.43
185.459	107.01
185.679	88.57
185.898	-30.21
186.118	129.53
186.338	55.81
186.557	115.2
186.777	-13.82
186.997	8.7
187.216	53.76
187.436	102.91
187.655	117.25
187.875	129.53
188.095	33.28
188.314	4.61
188.534	51.71
188.753	29.18
188.973	23.04
189.192	90.62
189.412	68.09
189.631	55.81
189.851	72.19
190.07	80.38
190.29	0.51
190.509	84.48
190.729	49.66
190.948	127.49
191.168	147.97
191.387	115.2
191.607	61.95
191.826	102.91
192.045	72.19
192.265	76.29
192.484	37.38
192.704	64
192.923	41.47
193.142	176.64
193.362	86.53
193.581	18.94
193.8	152.06
194.02	47.62
194.239	90.62
194.458	113.15
194.678	35.33
194.897	2.56
195.116	61.95
195.335	141.82
195.555	43.52
195.774	10.75
195.993	72.19
196.212	100.86
196.432	43.52
196.651	59.9
196.87	-30.21
197.089	160.25
197.308	20.99
197.528	51.71
197.747	-22.02
197.966	90.62
198.185	94.72
198.404	-7.68
198.623	113.15
198.842	113.15
199.062	109.05
199.281	137.73
199.5	84.48
199.719	76.29
199.938	10.75
200.157	57.86
200.376	88.57
200.595	-17.92
200.814	78.33
201.033	20.99
201.252	55.81
201.471	59.9
201.69	100.86
201.909	55.81
202.128	37.38
202.347	43.52
202.566	111.1
202.785	66.05
203.004	12.8
203.223	98.81
203.442	55.81
203.661	72.19
203.879	100.86
204.098	78.33
204.317	29.18
204.536	123.39
204.755	37.38
204.974	37.38
205.193	45.57
205.411	107.01
205.63	64
205.849	61.95
206.068	51.71
206.287	49.66
206.505	31.23
206.724	109.05
206.943	-11.78
207.162	76.29
207.381	37.38
207.599	133.63
207.818	82.43
208.037	31.23
208.255	139.77
208.474	76.29
208.693	72.19
208.911	37.38
209.13	117.25
209.349	45.57
209.567	86.53
209.786	37.38
210.005	154.11
210.223	33.28
210.442	59.9
210.661	88.57
210.879	166.4
211.098	35.33
211.316	10.75
211.535	102.91
211.753	43.52
211.972	117.25
212.191	27.14
212.409	41.47
212.628	37.38
212.846	20.99
213.065	109.05
213.283	90.62
213.502	121.34
213.72	66.05
213.938	-38.4
214.157	29.18
214.375	43.52
214.594	86.53
214.812	59.9
215.031	23.04
215.249	74.24
215.467	74.24
215.686	39.42
215.904	72.19
216.122	61.95
216.341	61.95
216.559	90.62
216.778	143.87
216.996	61.95
217.214	84.48
217.432	31.23
217.651	-77.31
217.869	20.99
218.087	49.66
218.306	59.9
218.524	25.09
218.742	53.76
218.96	25.09
219.179	68.09
219.397	92.67
219.615	135.68
219.833	96.77
220.051	18.94
220.27	55.81
220.488	125.44
220.706	72.19
220.924	137.73
221.142	80.38
221.36	47.62
221.578	25.09
221.796	55.81
222.015	20.99
222.233	59.9
222.451	96.77
222.669	-9.73
222.887	121.34
223.105	117.25
223.323	-22.02
223.541	90.62
223.759	43.52
223.977	14.85
224.195	49.66
224.413	53.76
224.631	90.62
224.849	25.09
225.067	115.2
225.285	27.14
225.503	33.28
225.721	41.47
225.939	98.81
226.157	117.25
226.375	137.73
226.592	45.57
226.81	25.09
227.028	43.52
227.246	135.68
227.464	6.66
227.682	82.43
227.9	72.19
228.117	14.85
228.335	51.71
228.553	123.39
228.771	59.9
228.989	80.38
229.206	43.52
229.424	47.62
229.642	76.29
229.86	29.18
230.077	74.24
230.295	154.11
230.513	145.92
230.731	145.92
230.948	92.67
231.166	84.48
231.384	107.01
231.601	43.52
231.819	78.33
232.037	88.57
232.254	57.86
232.472	133.63
232.689	43.52
232.907	72.19
233.125	80.38
233.342	8.7
233.56	-67.07
233.777	104.96
233.995	113.15
234.213	117.25
234.43	178.69
234.648	41.47
234.865	41.47
235.083	86.53
235.3	55.81
235.518	37.38
235.735	70.14
235.953	64
236.17	115.2
236.388	152.06
236.605	125.44
236.822	-15.87
237.04	33.28
237.257	53.76
237.475	61.95
237.692	6.66
237.909	70.14
238.127	-9.73
238.344	123.39
238.562	72.19
238.779	59.9
238.996	90.62
239.214	88.57
239.431	35.33
239.648	-3.58
239.865	18.94
240.083	76.29
240.3	111.1
240.517	125.44
240.735	70.14
240.952	115.2
241.169	98.81
241.386	78.33
241.603	76.29
241.821	64
242.038	27.14
242.255	90.62
242.472	20.99
242.689	141.82
242.907	137.73
243.124	109.05
243.341	68.09
243.558	76.29
243.775	68.09
243.992	-15.87
244.209	203.26
244.426	123.39
244.643	31.23
244.86	23.04
245.078	121.34
245.295	109.05
245.512	92.67
245.729	68.09
245.946	66.05
246.163	90.62
246.38	49.66
246.597	55.81
246.814	109.05
247.031	41.47
247.248	127.49
247.464	133.63
247.681	72.19
247.898	57.86
248.115	45.57
248.332	43.52
248.549	107.01
248.766	96.77
248.983	180.73
249.2	25.09
249.417	176.64
249.633	72.19
249.85	80.38
250.067	82.43
250.284	109.05
250.501	45.57
250.717	43.52
250.934	55.81
251.151	55.81
251.368	96.77
251.585	55.81
251.801	53.76
252.018	98.81
252.235	64
252.451	51.71
252.668	-19.97
252.885	45.57
253.102	43.52
253.318	-13.82
253.535	88.57
253.752	4.61
253.968	96.77
254.185	16.9
254.401	100.86
254.618	68.09
254.835	43.52
255.051	133.63
255.268	96.77
255.484	47.62
255.701	107.01
255.917	139.77
256.134	18.94
256.351	68.09
256.567	0.51
256.784	80.38
257	76.29
257.217	119.29
257.433	117.25
257.65	45.57
257.866	51.71
258.082	115.2
258.299	49.66
258.515	43.52
258.732	84.48
258.948	143.87
259.165	102.91
259.381	49.66
259.597	78.33
259.814	80.38
260.03	25.09
260.246	8.7
260.463	20.99
260.679	43.52
260.895	86.53
261.112	53.76
261.328	18.94
261.544	35.33
261.761	76.29
261.977	68.09
262.193	68.09
262.409	78.33
262.626	53.76
262.842	68.09
263.058	35.33
263.274	96.77
263.49	53.76
263.707	117.25
263.923	113.15
264.139	66.05
264.355	131.58
264.571	152.06
264.787	102.91
265.004	55.81
265.22	55.81
265.436	-15.87
265.652	104.96
265.868	39.42
266.084	-15.87
266.3	113.15
266.516	64
266.732	98.81
266.948	47.62
267.164	135.68
267.38	84.48
267.596	59.9
267.812	104.96
268.028	43.52
268.244	35.33
268.46	109.05
268.676	57.86
268.892	80.38
269.108	27.14
269.324	61.95
269.54	64
269.756	125.44
269.972	33.28
270.188	49.66
270.403	49.66
270.619	76.29
270.835	43.52
271.051	49.66
271.267	94.72
271.483	111.1
271.698	76.29
271.914	45.57
272.13	49.66
272.346	43.52
272.562	68.09
272.777	94.72
272.993	66.05
273.209	80.38
273.425	57.86
273.64	70.14
273.856	166.4
274.072	59.9
274.287	59.9
274.503	33.28
274.719	84.48
274.934	135.68
275.15	33.28
275.366	123.39
275.581	84.48
275.797	133.63
276.012	39.42
276.228	68.09
276.444	16.9
276.659	100.86
276.875	31.23
277.09	4.61
277.306	23.04
277.521	51.71
277.737	41.47
277.952	104.96
278.168	70.14
278.383	160.25
278.599	88.57
278.814	109.05
279.03	59.9
279.245	84.48
279.461	86.53
279.676	102.91
279.892	59.9
280.107	78.33
280.322	76.29
280.538	41.47
280.753	-5.63
280.969	72.19
281.184	57.86
281.399	113.15
281.615	94.72
281.83	127.49
282.045	45.57
282.26	39.42
282.476	80.38
282.691	92.67
282.906	88.57
283.122	94.72
283.337	-17.92
283.552	72.19
283.767	78.33
283.983	94.72
284.198	47.62
284.413	55.81
284.628	0.51
284.843	31.23
285.058	131.58
285.274	43.52
285.489	102.91
285.704	82.43
285.919	100.86
286.134	88.57
286.349	23.04
286.564	88.57
286.779	229.88
286.995	27.14
287.21	6.66
287.425	94.72
287.64	76.29
287.855	90.62
288.07	94.72
288.285	47.62
288.5	76.29
288.715	129.53
288.93	43.52
289.145	33.28
289.36	96.77
289.575	45.57
289.79	141.82
290.004	113.15
290.219	141.82
290.434	16.9
290.649	-5.63
290.864	37.38
291.079	131.58
291.294	84.48
291.509	84.48
291.724	43.52
291.938	94.72
292.153	82.43
292.368	33.28
292.583	94.72
292.798	27.14
293.012	41.47
293.227	84.48
293.442	43.52
293.657	147.97
293.871	117.25
294.086	92.67
294.301	70.14
294.516	84.48
294.73	100.86
294.945	72.19
295.16	6.66
295.374	121.34
295.589	150.01
295.804	45.57
296.018	-5.63
296.233	98.81
296.447	53.76
296.662	-13.82
296.877	113.15
297.091	25.09
297.306	51.71
297.52	16.9
297.735	104.96
297.949	27.14
298.164	127.49
298.378	123.39
298.593	135.68
298.807	94.72
299.022	119.29
299.236	39.42
299.451	92.67
299.665	10.75
299.88	129.53
300.094	43.52
300.309	23.04
300.523	66.05
300.737	152.06
300.952	16.9
301.166	133.63
301.381	98.81
301.595	98.81
301.809	41.47
302.024	115.2
302.238	45.57
302.452	78.33
302.667	80.38
302.881	109.05
303.095	84.48
303.309	111.1
303.524	27.14
303.738	64
303.952	82.43
304.166	104.96
304.381	47.62
304.595	154.11
304.809	-5.63
305.023	125.44
305.237	78.33
305.452	76.29
305.666	0.51
305.88	137.73
306.094	121.34
306.308	127.49
306.522	115.2
306.736	14.85
306.95	119.29
307.164	23.04
307.379	20.99
307.593	115.2
307.807	182.78
308.021	90.62
308.235	150.01
308.449	72.19
308.663	121.34
308.877	51.71
309.091	43.52
309.305	51.71
309.519	104.96
309.733	47.62
309.947	119.29
310.161	113.15
310.374	113.15
310.588	109.05
310.802	39.42
311.016	33.28
311.23	68.09
311.444	68.09
311.658	14.85
311.872	61.95
312.085	64
312.299	86.53
312.513	43.52
312.727	27.14
312.941	41.47
313.154	129.53
313.368	80.38
313.582	162.3
313.796	76.29
314.009	113.15
314.223	94.72
314.437	100.86
314.651	100.86
314.864	76.29
315.078	27.14
315.292	47.62
315.505	78.33
315.719	156.16
315.933	55.81
316.146	2.56
316.36	20.99
316.573	76.29
316.787	119.29
317.001	143.87
317.214	33.28
317.428	102.91
317.641	100.86
317.855	39.42
318.068	59.9
318.282	104.96
318.495	113.15
318.709	121.34
318.922	111.1
319.136	94.72
319.349	78.33
319.563	92.67
319.776	4.61
319.99	72.19
320.203	199.16
320.417	86.53
320.63	156.16
320.843	147.97
321.057	86.53
321.27	70.14
321.483	61.95
321.697	70.14
321.91	104.96
322.124	12.8
322.337	104.96
322.55	31.23
322.763	164.35
322.977	96.77
323.19	49.66
323.403	80.38
323.617	59.9
323.83	117.25
324.043	121.34
324.256	59.9
324.469	72.19
324.683	64
324.896	72.19
325.109	121.34
325.322	104.96
325.535	74.24
325.748	-7.68
325.962	66.05
326.175	90.62
326.388	84.48
326.601	147.97
326.814	100.86
327.027	139.77
327.24	90.62
327.453	66.05
327.666	131.58
327.879	55.81
328.092	141.82
328.305	51.71
328.518	92.67
328.731	88.57
328.944	115.2
329.157	70.14
329.37	45.57
329.583	113.15
329.796	76.29
330.009	88.57
330.222	37.38
330.435	92.67
330.648	57.86
330.861	35.33
331.073	113.15
331.286	74.24
331.499	88.57
331.712	45.57
331.925	74.24
332.138	16.9
332.35	88.57
332.563	23.04
332.776	111.1
332.989	47.62
333.202	80.38
333.414	100.86
333.627	109.05
333.84	158.21
334.053	88.57
334.265	31.23
334.478	84.48
334.691	139.77
334.903	53.76
335.116	70.14
335.329	131.58
335.541	143.87
335.754	43.52
335.966	55.81
336.179	76.29
336.392	80.38
336.604	141.82
336.817	31.23
337.029	47.62
337.242	59.9
337.454	90.62
337.667	68.09
337.88	82.43
338.092	133.63
338.305	145.92
338.517	107.01
338.729	104.96
338.942	129.53
339.154	102.91
339.367	107.01
339.579	115.2
339.792	90.62
340.004	55.81
340.217	131.58
340.429	145.92
340.641	100.86
340.854	39.42
341.066	109.05
341.278	104.96
341.491	123.39
341.703	61.95
341.915	49.66
342.128	107.01
342.34	100.86
342.552	25.09
342.764	92.67
342.977	31.23
343.189	127.49
343.401	66.05
343.613	25.09
343.826	90.62
344.038	61.95
344.25	150.01
344.462	-26.11
344.674	117.25
344.886	117.25
345.099	80.38
345.311	145.92
345.523	72.19
345.735	-9.73
345.947	119.29
346.159	53.76
346.371	-1.54
346.583	76.29
346.795	16.9
347.007	90.62
347.219	166.4
347.431	53.76
347.643	141.82
347.855	117.25
348.067	107.01
348.279	59.9
348.491	90.62
348.703	37.38
348.915	190.97
349.127	55.81
349.339	98.81
349.551	88.57
349.763	90.62
349.975	92.67
350.187	96.77
350.399	88.57
350.61	129.53
350.822	109.05
351.034	90.62
351.246	72.19
351.458	74.24
351.669	61.95
351.881	76.29
352.093	164.35
352.305	190.97
352.517	45.57
352.728	125.44
352.94	76.29
353.152	123.39
353.363	61.95
353.575	121.34
353.787	180.73
353.999	55.81
354.21	172.54
354.422	76.29
354.633	84.48
354.845	139.77
355.057	47.62
355.268	64
355.48	117.25
355.692	80.38
355.903	70.14
356.115	20.99
356.326	68.09
356.538	76.29
356.749	98.81
356.961	160.25
357.172	76.29
357.384	100.86
357.595	133.63
357.807	98.81
358.018	66.05
358.23	8.7
358.441	178.69
358.653	145.92
358.864	125.44
359.075	31.23
359.287	139.77
359.498	41.47
359.709	80.38
359.921	127.49
360.132	76.29
360.344	90.62
360.555	8.7
360.766	92.67
360.977	-1.54
361.189	129.53
361.4	68.09
361.611	109.05
361.823	33.28
362.034	82.43
362.245	68.09
362.456	123.39
362.667	74.24
362.879	25.09
363.09	115.2
363.301	100.86
363.512	2.56
363.723	68.09
363.935	76.29
364.146	39.42
364.357	43.52
364.568	107.01
364.779	102.91
364.99	125.44
365.201	-1.54
365.412	86.53
365.623	-1.54
365.834	82.43
366.045	111.1
366.256	92.67
366.467	100.86
366.678	131.58
366.889	111.1
367.1	29.18
367.311	123.39
367.522	37.38
367.733	104.96
367.944	133.63
368.155	80.38
368.366	76.29
368.577	127.49
368.788	123.39
368.999	55.81
369.209	68.09
369.42	143.87
369.631	158.21
369.842	133.63
370.053	84.48
370.264	143.87
370.474	59.9
370.685	64
370.896	147.97
371.107	113.15
371.317	98.81
371.528	70.14
371.739	121.34
371.95	129.53
372.16	133.63
372.371	55.81
372.582	150.01
372.792	47.62
373.003	127.49
373.214	45.57
373.424	90.62
373.635	10.75
373.846	117.25
374.056	39.42
374.267	68.09
374.477	92.67
374.688	59.9
374.898	57.86
375.109	80.38
375.319	80.38
375.53	141.82
375.74	72.19
375.951	100.86
376.161	59.9
376.372	111.1
376.582	121.34
376.793	49.66
377.003	170.49
377.214	119.29
377.424	174.59
377.635	82.43
377.845	84.48
378.055	82.43
378.266	78.33
378.476	96.77
378.686	109.05
378.897	80.38
379.107	109.05
379.317	133.63
379.528	68.09
379.738	100.86
379.948	59.9
380.158	154.11
380.369	111.1
380.579	158.21
380.789	49.66
380.999	82.43
381.21	25.09
381.42	145.92
381.63	92.67
381.84	129.53
382.05	129.53
382.261	211.45
382.471	123.39
382.681	125.44
382.891	49.66
383.101	92.67
383.311	104.96
383.521	109.05
383.731	133.63
383.941	2.56
384.151	107.01
384.361	145.92
384.571	107.01
384.781	82.43
384.991	72.19
385.201	115.2
385.411	86.53
385.621	150.01
385.831	57.86
386.041	145.92
386.251	74.24
386.461	84.48
386.671	166.4
386.881	82.43
387.091	141.82
387.301	184.83
387.511	86.53
387.72	107.01
387.93	213.5
388.14	86.53
388.35	147.97
388.56	74.24
388.769	78.33
388.979	39.42
389.189	96.77
389.399	84.48
389.609	133.63
389.818	96.77
390.028	121.34
390.238	211.45
390.447	182.78
390.657	104.96
390.867	66.05
391.076	94.72
391.286	111.1
391.496	123.39
391.705	84.48
391.915	109.05
392.125	203.26
392.334	107.01
392.544	147.97
392.753	59.9
392.963	59.9
393.172	147.97
393.382	170.49
393.591	158.21
393.801	107.01
394.01	125.44
394.22	90.62
394.429	139.77
394.639	162.3
394.848	115.2
395.058	147.97
395.267	166.4
395.477	96.77
395.686	92.67
395.895	209.4
396.105	213.5
396.314	137.73
396.524	162.3
396.733	207.36
396.942	227.84
397.152	242.17
397.361	117.25
397.57	135.68
397.78	147.97
397.989	182.78
398.198	147.97
398.407	215.55
398.617	205.31
398.826	156.16
399.035	176.64
399.244	135.68
399.453	135.68
399.663	166.4
399.872	236.03
400.081	197.12
400.29	195.07
400.499	109.05
400.708	205.31
400.917	240.12
401.127	225.79
401.336	227.84
401.545	199.16
401.754	219.64
401.963	182.78
402.172	141.82
402.381	125.44
402.59	236.03
402.799	156.16
403.008	211.45
403.217	266.75
403.426	160.25
403.635	264.7
403.844	170.49
404.053	328.19
404.262	176.64
404.471	281.08
404.68	262.65
404.888	186.88
405.097	215.55
405.306	268.8
405.515	270.84
405.724	233.98
405.933	383.48
406.142	233.98
406.35	291.32
406.559	236.03
406.768	270.84
406.977	365.05
407.185	301.56
407.394	301.56
407.603	236.03
407.812	313.85
408.02	256.51
408.229	313.85
408.438	293.37
408.646	219.64
408.855	346.62
409.064	389.63
409.272	328.19
409.481	471.54
409.69	401.91
409.898	412.15
410.107	440.83
410.315	494.07
410.524	528.89
410.733	428.54
410.941	467.45
411.15	539.13
411.358	545.27
411.567	553.46
411.775	520.7
411.984	565.75
412.192	598.52
412.401	598.52
412.609	608.76
412.818	653.81
413.026	719.35
413.234	782.84
413.443	676.34
413.651	760.31
413.86	811.51
414.068	862.71
414.276	903.67
414.485	829.94
414.693	813.56
414.901	973.3
415.11	956.91
415.318	973.3
415.526	920.05
415.734	1042.93
415.943	1133.04
416.151	1096.18
416.359	1151.47
416.567	1165.81
416.776	1227.25
416.984	1255.92
417.192	1364.46
417.4	1389.03
417.608	1341.93
417.817	1376.75
418.025	1456.62
418.233	1655.27
418.441	1559.02
418.649	1663.46
418.857	1741.29
419.065	1669.61
419.273	1749.48
419.481	1804.77
419.689	1923.55
419.897	2054.62
420.105	2142.69
420.313	2154.98
420.521	2099.68
420.729	2204.13
420.937	2333.15
421.145	2492.89
421.353	2492.89
421.561	2658.78
421.769	2750.93
421.977	2836.95
422.185	2677.21
422.393	2783.7
422.601	3135.95
422.809	3117.52
423.017	3152.34
423.224	3430.86
423.432	3469.77
423.64	3500.49
423.848	3832.26
424.056	3848.65
424.263	3873.22
424.471	3893.7
424.679	4080.07
424.887	4399.55
425.094	4405.69
425.302	4487.61
425.51	4612.54
425.718	4823.48
425.925	4796.85
426.133	5087.67
426.341	5013.94
426.548	5294.51
426.756	5358
426.964	5544.36
427.171	5759.4
427.379	6021.54
427.586	5972.39
427.794	6351.26
428.001	6601.12
428.209	6721.95
428.417	6599.07
428.624	7137.68
428.832	7399.82
429.039	7266.71
429.247	7192.98
429.454	7930.25
429.662	8251.78
429.869	7860.62
430.076	8257.92
430.284	8221.06
430.491	8530.3
430.699	8939.9
430.906	9079.16
431.114	9195.89
431.321	9439.6
431.528	9742.7
431.736	10121.57
431.943	10652
432.15	10463.58
432.358	10764.64
432.565	11256.15
432.772	11018.58
432.979	11522.38
433.187	11866.44
433.394	11983.18
433.601	12908.86
433.808	12839.23
434.016	12605.76
434.223	13379.89
434.43	13996.33
434.637	13957.42
434.844	14690.59
435.052	14854.43
435.259	14879
435.466	15147.29
435.673	14852.38
435.88	15911.18
436.087	16539.91
436.294	16709.89
436.501	16390.41
436.708	16539.91
436.915	17209.59
437.122	17950.96
437.329	18063.6
437.537	18499.81
437.743	18907.36
437.95	18737.38
438.157	19478.74
438.364	20261.07
438.571	20299.98
438.778	20336.84
438.985	22116.53
439.192	21485.75
439.399	22161.58
439.606	21475.51
439.813	22681.77
440.02	24092.82
440.227	23918.74
440.433	23525.53
440.64	24588.42
440.847	24297.61
441.054	25041.03
441.261	26306.67
441.467	26230.9
441.674	26482.8
441.881	27508.83
442.088	27474.01
442.294	27306.08
442.501	27992.15
442.708	28776.52
442.914	29896.76
443.121	30971.94
443.328	30197.81
443.534	32507.92
443.741	31371.3
443.948	30830.63
444.154	33431.55
444.361	32804.88
444.568	33380.35
444.774	33515.52
444.981	33798.14
445.187	35137.51
445.394	36024.28
445.6	35508.19
445.807	38866.86
446.013	37605.31
446.22	38313.91
446.426	39210.92
446.633	39772.07
446.839	41295.75
447.046	39548.84
447.252	42006.4
447.459	41875.33
447.665	40986.51
447.871	43329.39
448.078	44687.19
448.284	42993.52
448.491	44167.01
448.697	45672.26
448.903	46331.71
449.11	46466.87
449.316	45514.57
449.522	46300.99
449.728	47712.04
449.935	47812.39
450.141	47468.33
450.347	48936.73
450.553	47488.81
450.76	47804.2
450.966	48901.91
451.172	48844.57
451.378	49733.39
451.584	48928.53
451.791	49940.23
451.997	49698.57
452.203	50671.35
452.409	50149.12
452.615	50052.87
452.821	48281.38
453.027	47800.1
453.233	50134.79
453.44	47994.66
453.646	48553.76
453.852	48283.42
454.058	49182.48
454.264	47454
454.47	48369.44
454.676	47019.83
454.882	48764.7
455.088	44535.64
455.294	44722.01
455.5	45963.07
455.705	46272.32
455.911	44339.04
456.117	43274.09
456.323	43093.87
456.529	40669.08
456.735	42014.59
456.941	41078.67
457.147	40578.96
457.352	39309.22
457.558	38602.67
457.764	38252.47
457.97	37777.34
458.176	37492.68
458.381	36997.07
458.587	35631.07
458.793	35571.68
458.999	33374.21
459.204	35975.13
459.41	34848.75
459.616	32620.56
459.821	32557.07
460.027	32610.32
460.233	31936.54
460.438	30337.07
460.644	30722.09
460.85	29288.51
461.055	28821.58
461.261	28592.2
461.466	26028.15
461.672	25581.69
461.878	27746.39
462.083	26015.86
462.289	25137.28
462.494	24995.97
462.7	23926.93
462.905	23316.64
463.111	24232.08
463.316	24053.9
463.522	23601.3
463.727	23681.17
463.932	23640.22
464.138	23484.57
464.343	23666.84
464.549	23068.83
464.754	23871.64
464.959	23560.34
465.165	23218.33
465.37	22438.06
465.575	21696.69
465.781	22593.7
465.986	22589.61
466.191	21905.59
466.397	21692.6
466.602	20539.59
466.807	21375.16
467.012	21227.71
467.218	21319.87
467.423	21065.92
467.628	21141.69
467.833	22192.3
468.038	21008.58
468.244	20678.85
468.449	21463.22
468.654	20695.24
468.859	20447.43
469.064	20422.86
469.269	19749.07
469.474	19689.68
469.679	20293.83
469.885	19374.3
470.09	19806.42
470.295	19828.95
470.5	19304.67
470.705	19634.39
470.91	18850.02
471.115	18542.82
471.32	18823.39
471.525	18915.55
471.73	18432.23
471.935	18225.39
472.139	17881.33
472.344	18043.12
472.549	17752.31
472.754	17238.26
472.959	17156.35
473.164	16576.77
473.369	16791.81
473.574	17377.53
473.778	16910.59
473.983	17012.99
474.188	16566.53
474.393	16083.21
474.598	16333.06
474.802	15679.76
475.007	15937.8
475.212	15755.54
475.417	15436.05
475.621	15171.86
475.826	15235.35
476.031	15030.55
476.235	14758.17
476.44	15108.38
476.645	14481.7
476.849	14694.69
477.054	14582.05
477.259	14307.62
477.463	14358.82
477.668	13916.46
477.872	14147.88
478.077	13859.12
478.282	13568.3
478.486	13347.12
478.691	13410.61
478.895	13343.03
479.1	13099.32
479.304	13375.8
479.509	13005.11
479.713	13345.08
479.918	13031.74
480.122	12593.47
480.326	12986.68
480.531	12802.36
480.735	12669.25
480.94	12929.34
481.144	12806.46
481.348	12491.07
481.553	12577.09
481.757	12302.66
481.961	12659.01
482.166	12828.99
482.37	12540.22
482.574	12441.92
482.778	12468.55
482.983	12665.15
483.187	12468.55
483.391	12544.32
483.595	12491.07
483.8	12435.78
484.004	12429.63
484.208	12681.53
484.412	12542.27
484.616	12562.75
484.821	12683.58
485.025	12360
485.229	12505.41
485.433	12304.71
485.637	12685.63
485.841	12476.74
486.045	12388.67
486.249	12697.92
486.453	12384.58
486.657	12456.26
486.861	12552.51
487.065	12046.66
487.269	12403.01
487.473	12405.06
487.677	12716.35
487.881	12521.79
488.085	12482.88
488.289	12656.96
488.493	12478.79
488.697	12554.56
488.901	12601.66
489.105	12595.52
489.309	12636.48
489.512	12542.27
489.716	12904.76
489.92	12771.65
490.124	12992.83
490.328	12906.81
490.531	12499.27
490.735	12915
490.939	12996.92
491.143	12878.14
491.346	12669.25
491.55	12888.38
491.754	13041.98
491.958	13054.26
492.161	13240.63
492.365	13209.91
492.569	13281.59
492.772	13291.83
492.976	13527.35
493.18	13480.24
493.383	13537.59
493.587	13672.75
493.79	13881.64
493.994	13801.77
494.197	13867.31
494.401	14027.05
494.605	14053.67
494.808	14197.03
495.012	14199.08
495.215	14328.1
495.419	14594.34
495.622	14543.14
495.825	14680.35
496.029	14807.33
496.232	14836
496.436	15016.22
496.639	15167.77
496.843	15227.16
497.046	15579.41
497.249	15706.38
497.453	15737.1
497.656	15964.43
497.859	15888.65
498.063	16163.08
498.266	16490.76
498.469	16648.45
498.673	16761.09
498.876	17021.18
499.079	16888.06
499.282	17129.72
499.485	17627.38
499.689	17727.73
499.892	18204.91
500.095	18094.32
500.298	18399.46
500.501	17950.96
500.705	18845.92
500.908	18850.02
501.111	19235.03
501.314	19075.29
501.517	19445.98
501.72	19773.65
501.923	19636.44
502.126	20437.19
502.329	20160.72
502.532	20517.06
502.735	20859.07
502.938	20719.81
503.141	21229.76
503.344	21336.25
503.547	21641.4
503.75	21983.41
503.953	22159.53
504.156	22288.56
504.359	22356.14
504.562	22802.6
504.765	23335.07
504.968	23392.41
505.17	23662.74
505.373	23855.25
505.576	24402.06
505.779	24547.47
505.982	24516.75
506.185	25002.11
506.387	25305.21
506.59	25514.11
506.793	25872.5
506.996	25737.34
507.198	26546.28
507.401	26488.94
507.604	26792.04
507.807	27234.4
508.009	27177.06
508.212	27928.66
508.415	27691.1
508.617	28223.57
508.82	28430.41
509.022	28211.28
509.225	28956.74
509.428	29132.87
509.63	29503.55
509.833	29478.97
510.035	30148.66
510.238	29954.1
510.44	30666.8
510.643	30885.93
510.845	31172.64
511.048	30914.6
511.25	31782.94
511.453	31461.41
511.655	33198.09
511.858	32374.8
512.06	32772.11
512.262	33198.09
512.465	33355.78
512.667	33839.1
512.87	34039.8
513.072	34107.38
513.274	34926.57
513.477	35442.66
513.679	35438.56
513.881	36083.67
514.084	36311
514.286	35887.07
514.488	36403.16
514.69	37590.98
514.893	37423.04
515.095	37453.76
515.297	38025.15
515.499	38176.7
515.701	38469.56
515.904	39223.21
516.106	39663.52
516.308	39544.74
516.51	40011.68
516.712	40193.95
516.914	40316.82
517.116	41303.95
517.318	41328.52
517.52	41656.2
517.722	41938.82
517.925	42448.76
518.127	42725.24
518.329	43069.29
518.531	43036.53
518.733	44003.17
518.935	44044.13
519.136	44332.89
519.338	44959.57
519.54	45088.59
519.742	45518.67
519.944	45637.45
520.146	46276.41
520.348	46690.1
520.55	46618.42
520.752	47066.93
520.954	47361.84
521.155	47554.35
521.357	48377.63
521.559	48434.97
521.761	49643.27
521.963	48916.25
522.164	49483.53
522.366	49635.08
522.568	49794.82
522.77	50544.38
522.971	50833.14
523.173	50859.77
523.375	51232.5
523.576	51228.4
523.778	51621.61
523.98	52293.35
524.181	52768.47
524.383	52547.29
524.584	53219.03
524.786	52639.45
524.988	53311.19
525.189	53929.67
525.391	54030.02
525.592	54228.68
525.794	54048.46
525.995	54556.35
526.197	54851.26
526.398	54646.46
526.6	55686.83
526.801	55271.09
527.003	56049.32
527.204	55522.99
527.406	55987.88
527.607	56098.47
527.808	56258.21
528.01	55479.99
528.211	56077.99
528.412	57253.53
528.614	56729.25
528.815	56823.45
529.016	57568.91
529.218	57364.12
529.419	57656.98
529.62	57726.61
529.822	57732.75
530.023	57513.62
530.224	57773.71
530.425	57740.94
530.626	57706.13
530.828	57654.93
531.029	58730.11
531.23	58109.58
531.431	58410.63
531.632	58515.08
531.833	58777.22
532.035	58631.81
532.236	58388.1
532.437	58781.31
532.638	58267.27
532.839	59002.49
533.04	59397.75
533.241	58478.21
533.442	59289.21
533.643	59256.44
533.844	59309.69
534.045	59350.65
534.246	58807.93
534.447	59600.5
534.648	59061.88
534.849	59577.97
535.05	59080.31
535.251	59407.99
535.451	59088.51
535.652	59313.78
535.853	59373.17
536.054	59553.4
536.255	59631.22
536.456	58908.29
536.657	60474.98
536.857	59012.73
537.058	59100.79
537.259	59584.11
537.46	59440.76
537.66	59147.9
537.861	60028.52
538.062	59188.86
538.263	59858.54
538.463	59563.64
538.664	59244.15
538.865	59649.65
539.065	59518.58
539.266	58971.77
539.466	59780.72
539.667	59088.51
539.868	59557.49
540.068	59684.47
540.269	58924.67
540.469	59756.14
540.67	58922.62
540.87	59190.9
541.071	59362.93
541.271	59477.62
541.472	59106.94
541.672	58771.07
541.873	59027.07
542.073	58642.05
542.274	60034.67
542.474	59108.99
542.675	59262.58
542.875	59205.24
543.075	58926.72
543.276	58240.65
543.476	59043.45
543.676	58842.75
543.877	58850.94
544.077	59166.33
544.277	58953.34
544.478	58830.46
544.678	59469.43
544.878	58773.12
545.078	59100.79
545.279	58736.26
545.479	58535.55
545.679	58965.63
545.879	59248.25
546.079	59039.36
546.28	58838.65
546.48	58355.33
546.68	58699.39
546.88	58707.58
547.08	58971.77
547.28	58424.96
547.48	58248.84
547.68	58801.79
547.88	58252.94
548.081	58644.1
548.281	58887.81
548.481	58510.98
548.681	58713.73
548.881	58199.69
549.081	58617.47
549.28	58107.53
549.48	58625.67
549.68	58449.54
549.88	59008.64
550.08	58011.27
550.28	58328.71
550.48	58625.67
550.68	58875.52
550.88	57953.93
551.08	58343.05
551.279	58519.17
551.479	57716.37
551.679	58162.82
551.879	58097.29
552.079	58826.37
552.278	58056.33
552.478	58054.28
552.678	58087.05
552.878	58502.79
553.077	58551.94
553.277	57769.61
553.477	58582.66
553.676	57912.97
553.876	58306.18
554.076	57622.16
554.275	57978.51
554.475	57816.72
554.674	58379.91
554.874	58144.39
555.074	57519.76
555.273	57859.73
555.473	58146.44
555.672	57699.98
555.872	57450.13
556.071	58056.33
556.271	58068.62
556.47	57644.69
556.67	57194.14
556.869	57009.82
557.068	58072.71
557.268	56854.17
557.467	57409.17
557.667	57040.54
557.866	56839.84
558.065	57290.39
558.265	57042.59
558.464	56811.17
558.663	57368.21
558.863	56233.64
559.062	57134.74
559.261	56557.22
559.461	56960.67
559.66	56184.49
559.859	57251.48
560.058	55938.73
560.258	56276.65
560.457	56176.29
560.656	56446.63
560.855	55936.68
561.054	56491.68
561.253	55975.59
561.453	56041.13
561.652	56188.58
561.851	56034.98
562.05	55430.83
562.249	55602.86
562.448	55871.15
562.647	55772.84
562.846	55490.23
563.045	55672.49
563.244	54775.48
563.443	55406.26
563.642	54587.07
563.841	55078.58
564.04	54613.69
564.239	55303.86
564.438	54628.03
564.637	54820.54
564.836	55062.2
565.035	54261.44
565.234	54218.44
565.432	54161.09
565.631	53808.84
565.83	54093.51
566.029	53593.81
566.228	54107.85
566.427	53821.13
566.625	53202.64
566.824	52879.07
567.023	53380.82
567.222	52489.95
567.42	53511.89
567.619	53520.08
567.818	52768.47
568.016	53098.2
568.215	52768.47
568.414	52479.71
568.612	53051.09
568.811	52334.31
569.01	52403.94
569.208	51633.9
569.407	51814.12
569.605	51678.96
569.804	52285.15
570.002	51564.27
570.201	51957.48
570.4	51273.46
570.598	51449.58
570.797	51072.76
570.995	51007.22
571.193	50886.39
571.392	50898.68
571.59	50884.34
571.789	50278.14
571.987	50394.88
572.186	50718.46
572.384	50353.92
572.582	50374.4
572.781	50515.71
572.979	49585.93
573.177	49645.32
573.376	49970.95
573.574	49696.52
573.772	49889.03
573.971	49446.67
574.169	48924.44
574.367	48647.96
574.565	49207.06
574.763	48543.52
574.962	48768.79
575.16	48308
575.358	48918.29
575.556	48176.93
575.754	48910.1
575.952	48162.59
576.151	48568.09
576.349	47890.21
576.547	47726.38
576.745	47804.2
576.943	47968.04
577.141	48238.37
577.339	47824.68
577.537	47628.07
577.735	47632.17
577.933	46817.08
578.131	47312.69
578.329	47132.46
578.527	46833.46
578.725	47132.46
578.923	46956.34
579.121	46663.48
579.319	46264.13
579.516	46985.01
579.714	46675.77
579.912	46223.17
580.11	45768.52
580.308	46008.13
580.506	45635.4
580.704	45356.88
580.901	46022.47
581.099	45977.41
581.297	45274.96
581.495	45094.74
581.692	45322.06
581.89	45043.54
582.088	45481.8
582.285	44775.25
582.483	44980.05
582.681	44486.49
582.878	44519.26
583.076	44078.94
583.274	44662.61
583.471	44056.42
583.669	44244.83
583.866	44048.22
584.064	44191.58
584.262	43372.39
584.459	43816.8
584.657	43612.01
584.854	44150.62
585.052	42710.9
585.249	43261.8
585.447	43188.08
585.644	42790.77
585.841	42727.28
586.039	42620.79
586.236	42289.02
586.434	42733.43
586.631	42561.4
586.828	42604.41
587.026	42463.1
587.223	42129.28
587.42	42147.71
587.618	41938.82
587.815	41471.88
588.012	41144.2
588.21	41512.84
588.407	41992.06
588.604	41568.13
588.801	41160.59
588.999	41420.68
589.196	41076.62
589.393	40871.82
589.59	41140.11
589.787	40697.75
589.984	40724.37
590.182	40267.67
590.379	40693.65
590.576	40458.13
590.773	40146.84
590.97	39772.07
591.167	40171.42
591.364	39229.35
591.561	39942.05
591.758	39597.99
591.955	39727.01
592.152	39612.32
592.349	39049.13
592.546	39182.25
592.743	39229.35
592.94	38883.25
593.137	38928.3
593.334	39178.15
593.531	38584.24
593.727	38444.98
593.924	38520.76
594.121	38213.56
594.318	38205.37
594.515	38064.06
594.712	37887.93
594.908	37842.88
595.105	37801.92
595.302	37765.06
595.499	37851.07
595.696	37539.78
595.892	37138.38
596.089	37165
596.286	37507.01
596.482	36894.67
596.679	37130.19
596.876	37027.79
597.072	36835.28
597.269	36708.3
597.466	36317.14
597.662	36356.05
597.859	36423.64
598.055	36198.36
598.252	35721.18
598.448	36368.34
598.645	35950.56
598.841	35608.54
599.038	35295.21
599.234	35887.07
599.431	35534.82
599.627	35459.04
599.824	35340.26
600.02	35016.68
600.217	35524.58
600.413	35162.09
600.609	35057.64
600.806	34893.8
601.002	34992.11
601.198	34858.99
601.395	34072.57
601.591	34105.34
601.787	33994.75
601.984	34076.66
602.18	34338.8
602.376	33857.53
602.572	33658.88
602.769	33923.07
602.965	33728.51
603.161	33759.23
603.357	33552.38
603.553	33423.36
603.75	33591.3
603.946	33167.37
604.142	33241.09
604.338	32542.74
604.534	33069.06
604.73	32538.64
604.926	32534.54
605.122	32784.4
605.318	32188.44
605.514	32569.36
605.71	32436.24
605.906	32532.5
606.102	32344.08
606.298	32028.7
606.494	31989.78
606.69	31907.87
606.886	31871
607.082	31606.81
607.278	31924.25
607.474	31256.61
607.67	31576.09
607.866	31023.14
608.062	31715.36
608.257	31297.57
608.453	31121.45
608.649	31598.62
608.845	30834.73
609.041	30847.02
609.236	31049.77
609.432	30738.47
609.628	30779.43
609.824	30732.33
610.019	30511.15
610.215	30713.9
610.411	30353.46
610.606	30447.66
610.802	30578.73
610.998	30212.15
611.193	30455.86
611.389	30015.54
611.584	30347.31
611.78	29913.14
611.976	30056.5
612.171	29765.69
612.367	29872.18
612.562	29823.03
612.758	29136.96
612.953	29345.86
613.149	29806.65
613.344	29190.21
613.539	29863.99
613.735	29734.97
613.93	29573.18
614.126	29524.03
614.321	29743.16
614.517	29106.24
614.712	29098.05
614.907	28975.17
615.103	29450.3
615.298	28887.11
615.493	29372.48
615.688	28772.42
615.884	29184.07
616.079	28596.3
616.274	28928.07
616.47	28749.9
616.665	28790.86
616.86	28459.09
617.055	28350.54
617.25	28467.28
617.445	28579.92
617.641	28055.64
617.836	28074.07
618.031	28037.2
618.226	28438.61
618.421	27648.09
618.616	27963.48
618.811	27420.77
619.006	27951.19
619.201	27037.8
619.396	27697.24
619.591	27070.56
619.786	27312.22
619.981	26785.9
620.176	27428.96
620.371	26824.81
620.566	26714.22
620.761	26701.93
620.956	26812.52
621.151	26142.83
621.346	26284.14
621.541	25921.65
621.735	26075.25
621.93	25489.53
622.125	25723
622.32	25559.16
622.515	25479.29
622.709	25280.64
622.904	25561.21
623.099	25239.68
623.294	24995.97
623.488	24801.41
623.683	25004.16
623.878	24420.49
624.072	24608.9
624.267	24469.64
624.462	24393.87
624.656	23974.03
624.851	24162.45
625.046	23806.1
625.24	23799.96
625.435	23621.78
625.629	23642.26
625.824	23134.37
626.018	23423.13
626.213	22818.98
626.407	23222.43
626.602	22567.08
626.796	22665.38
626.991	22702.25
627.185	22646.95
627.38	22423.72
627.574	22335.66
627.768	22050.99
627.963	21964.98
628.157	21817.52
628.352	22071.47
628.546	21704.88
628.74	21606.58
628.935	21311.67
629.129	21432.5
629.323	21141.69
629.517	20943.04
629.712	20777.15
629.906	20861.12
630.1	20445.38
630.294	20752.58
630.489	20486.34
630.683	20541.64
630.877	20164.81
631.071	19853.52
631.265	20072.65
631.459	19792.08
631.653	19695.83
631.848	19880.14
632.042	19476.69
632.236	19460.31
632.43	19525.85
632.624	19554.52
632.818	19112.16
633.012	19040.48
633.206	18972.89
633.4	19110.11
633.594	18376.94
633.788	18712.8
633.982	18594.02
634.176	18645.22
634.369	18143.47
634.563	18284.78
634.757	18151.66
634.951	18276.59
635.145	18047.21
635.339	17928.43
635.533	17852.66
635.726	17727.73
635.92	17473.78
636.114	17694.96
636.308	17486.07
636.501	17412.34
636.695	17338.62
636.889	16959.74
637.083	16951.55
637.276	17316.09
637.47	16877.82
637.664	16808.19
637.857	16736.51
638.051	16589.06
638.244	16333.06
638.438	16732.42
638.632	16142.6
638.825	16238.86
639.019	15937.8
639.212	15718.67
639.406	16179.47
639.599	15933.71
639.793	15855.89
639.986	15655.19
640.18	15485.2
640.373	15477.01
640.567	15173.91
640.76	15319.32
640.954	15280.41
641.147	15296.79
641.34	15071.51
641.534	15055.13
641.727	15081.75
641.92	14956.83
642.114	14719.26
642.307	14813.47
642.5	14528.8
642.694	14305.57
642.887	14354.72
643.08	14289.19
643.273	14240.04
643.467	14194.98
643.66	14008.62
643.853	13975.85
644.046	13832.49
644.239	13977.9
644.432	13541.68
644.626	13576.5
644.819	13625.65
645.012	13658.42
645.205	13578.54
645.398	13365.56
645.591	13179.19
645.784	13209.91
645.977	13121.85
646.17	13105.46
646.363	12923.19
646.556	12742.97
646.749	12955.96
646.942	12665.15
647.135	12980.54
647.328	12659.01
647.521	12540.22
647.714	12321.09
647.907	12550.46
648.099	12376.39
648.292	12593.47
648.485	12243.27
648.678	12128.58
648.871	12153.16
649.064	11934.03
649.256	12020.04
649.449	11835.72
649.642	11958.6
649.835	11897.16
650.027	11721.04
650.22	11442.51
650.413	11577.68
650.605	11518.29
650.798	11477.33
650.991	11454.8
651.183	11309.4
651.376	11133.27
651.568	11368.79
651.761	11084.12
651.954	11190.61
652.146	11104.6
652.339	10996.06
652.531	10926.43
652.724	10985.82
652.916	10674.53
653.109	10725.72
653.301	10744.16
653.494	10697.05
653.686	10631.52
653.879	10889.56
654.071	10418.53
654.263	10273.12
654.456	10516.83
654.648	10322.27
654.84	10185.06
655.033	10148.2
655.225	10219.88
655.417	9912.68
655.61	10107.24
655.802	10142.05
655.994	9998.7
656.186	9910.63
656.379	9888.11
656.571	9736.56
656.763	9761.13
656.955	9582.96
657.148	9695.6
657.34	9486.7
657.532	9361.78
657.724	9410.93
657.916	9496.94
658.108	9394.54
658.3	9271.67
658.492	9472.37
658.684	9103.73
658.876	9343.35
659.068	9091.45
659.26	9038.2
659.452	9007.48
659.644	9068.92
659.836	8833.4
660.028	8870.26
660.22	8741.24
660.412	8929.66
660.604	8665.47
660.796	8599.93
660.988	8694.14
661.18	8606.08
661.372	8384.9
661.563	8554.88
661.755	8407.42
661.947	8366.46
662.139	8376.7
662.331	8225.15
662.522	8102.28
662.714	8245.63
662.906	8159.62
663.097	7985.54
663.289	7999.88
663.481	8055.17
663.673	8032.65
663.864	7895.43
664.056	7907.72
664.247	7862.66
664.439	7762.31
664.631	7872.9
664.822	7799.18
665.014	7889.29
665.205	7608.72
665.397	7532.94
665.588	7518.61
665.78	7547.28
665.971	7506.32
666.163	7516.56
666.354	7367.06
666.546	7514.51
666.737	7227.79
666.929	7235.99
667.12	7319.95
667.311	7399.82
667.503	7160.21
667.694	7401.87
667.885	7266.71
668.077	7209.36
668.268	7025.04
668.459	7217.55
668.651	6936.98
668.842	7049.62
669.033	6955.41
669.224	6920.6
669.416	6939.03
669.607	6738.33
669.798	6777.24
669.989	7006.61
670.18	6615.45
670.371	6695.32
670.563	6752.66
670.754	6769.05
670.945	6619.55
671.136	6812.06
671.327	6490.52
671.518	6728.09
671.709	6529.44
671.9	6476.19
672.091	6619.55
672.282	6420.89
672.473	6332.83
672.664	6562.2
672.855	6289.82
673.046	6420.89
673.237	6275.49
673.428	6506.91
673.619	6269.34
673.809	6267.3
674	6259.1
674.191	6314.4
674.382	6238.62
674.573	6216.1
674.764	6300.06
674.954	6207.91
675.145	6261.15
675.336	6103.46
675.527	6148.51
675.717	6119.84
675.908	5956.01
676.099	5953.96
676.289	6097.31
676.48	5960.1
676.671	5966.24
676.861	5869.99
677.052	5874.09
677.243	5945.77
677.433	5779.88
677.624	5941.67
677.814	5900.71
678.005	5876.13
678.195	5869.99
678.386	5689.77
678.576	5708.2
678.767	5740.97
678.957	5814.7
679.148	5951.91
679.338	5654.95
679.529	5738.92
679.719	5458.35
679.909	5753.26
680.1	5716.39
680.29	5874.09
680.481	5589.42
680.671	5738.92
680.861	5564.84
681.052	5659.05
681.242	5441.96
681.432	5683.63
681.622	5482.92
681.813	5575.08
682.003	5527.98
682.193	5585.32
682.383	5568.94
682.573	5644.71
682.764	5394.86
682.954	5532.08
683.144	5525.93
683.334	5390.77
683.524	5278.13
683.714	5302.7
683.904	5306.8
684.094	5444.01
684.284	5337.52
684.474	5335.47
684.664	5421.49
684.854	5290.42
685.044	5245.36
685.234	5204.4
685.424	5366.19
685.614	5265.84
685.804	5271.98
685.994	5261.74
686.184	5245.36
686.374	5192.11
686.564	5159.35
686.753	5071.28
686.943	5108.15
687.133	5175.73
687.323	5065.14
687.513	5147.06
687.702	5097.91
687.892	4966.84
688.082	4923.83
688.272	4985.27
688.461	4925.88
688.651	4932.02
688.841	4788.66
689.03	4966.84
689.22	4952.5
689.41	4993.46
689.599	4784.57
689.789	4848.05
689.979	4723.13
690.168	4739.51
690.358	4751.8
690.547	4884.92
690.737	4747.7
690.926	4604.35
691.116	4725.18
691.305	4807.09
691.495	4616.63
691.684	4690.36
691.874	4620.73
692.063	4528.57
692.252	4653.5
692.442	4639.16
692.631	4512.19
692.82	4628.92
693.01	4432.32
693.199	4542.91
693.388	4532.67
693.578	4362.69
693.767	4598.2
693.956	4377.02
694.146	4493.76
694.335	4547
694.524	4448.7
694.713	4446.65
694.902	4348.35
695.092	4602.3
695.281	4399.55
695.47	4327.87
695.659	4340.16
695.848	4329.92
696.037	4258.24
696.226	4254.14
696.415	4409.79
696.604	4381.12
696.793	4313.53
696.982	4237.76
697.171	4274.62
697.36	4295.1
697.549	4315.58
697.738	4223.42
697.927	4241.86
698.116	4272.57
698.305	4233.66
698.494	4311.49
698.683	4233.66
698.872	4274.62
699.061	4211.14
699.25	4211.14
699.438	4211.14
699.627	4139.46
699.816	4272.57
700.005	4157.89
700.193	4176.32
700.382	4342.21
700.571	4225.47
700.76	4241.86
700.948	4190.66
701.137	4299.2
701.326	4334.01
701.514	4366.78
701.703	4108.74
701.892	4243.9
702.08	4252.1
702.269	4204.99
702.457	4116.93
702.646	4202.94
702.834	4372.93
703.023	4153.79
703.212	4037.06
703.4	4178.37
703.589	4235.71
703.777	4215.23
703.965	4172.22
704.154	4276.67
704.342	4149.7
704.531	3979.72
704.719	4135.36
704.907	4217.28
705.096	4131.26
705.284	4131.26
705.472	4182.46
705.661	4057.54
705.849	4131.26
706.037	4071.87
706.226	4168.13
706.414	4125.12
706.602	4196.8
706.79	4069.83
706.979	4137.41
707.167	4116.93
707.355	4102.59
707.543	4209.09
707.731	4200.9
707.919	4008.39
708.107	4131.26
708.296	4135.36
708.484	3959.24
708.672	3908.04
708.86	4002.24
709.048	3975.62
709.236	4022.72
709.424	4065.73
709.612	4159.94
709.8	4145.6
709.988	4008.39
710.176	4084.16
710.364	4123.07
710.551	3979.72
710.739	4088.26
710.927	4131.26
711.115	4047.3
711.303	4184.51
711.491	4049.35
711.679	4053.44
711.866	4061.63
712.054	4094.4
712.242	4073.92
712.43	4123.07
712.617	3971.52
712.805	4104.64
712.993	4092.35
713.181	4063.68
713.368	4065.73
713.556	4141.5
713.744	3959.24
713.931	4131.26
714.119	4000.19
714.306	4106.69
714.494	3967.43
714.682	4039.11
714.869	4047.3
715.057	4118.98
715.244	3932.61
715.432	4012.48
715.619	3930.56
715.807	4041.15
715.994	4037.06
716.182	3983.81
716.369	4024.77
716.556	4159.94
716.744	4053.44
716.931	4078.02
717.119	4153.79
717.306	4000.19
717.493	3985.86
717.681	4065.73
717.868	3946.95
718.055	3979.72
718.242	3967.43
718.43	4069.83
718.617	3928.52
718.804	3953.09
718.991	3953.09
719.179	3932.61
719.366	3996.1
719.553	4022.72
719.74	3992
719.927	3953.09
720.114	3967.43
720.301	3922.37
720.488	3910.08
720.676	3940.8
720.863	3967.43
721.05	3936.71
721.237	3951.04
721.424	3832.26
721.611	3860.93
721.798	3891.65
721.985	3871.17
722.172	3873.22
722.358	4006.34
722.545	3903.94
722.732	3930.56
722.919	3963.33
723.106	3965.38
723.293	3801.54
723.48	3830.21
723.667	3916.23
723.853	3875.27
724.04	3822.02
724.227	3879.36
724.414	3846.6
724.6	3860.93
724.787	3779.01
724.974	3795.4
725.161	3936.71
725.347	3785.16
725.534	3807.69
725.72	3762.63
725.907	3783.11
726.094	3803.59
726.28	3854.79
726.467	3807.69
726.653	3813.83
726.84	3914.18
727.027	3922.37
727.213	3858.89
727.4	3795.4
727.586	3852.74
727.773	3670.47
727.959	3756.49
728.145	3951.04
728.332	3680.71
728.518	3768.77
728.705	3770.82
728.891	3701.19
729.077	3707.34
729.264	3752.39
729.45	3713.48
729.636	3846.6
729.823	3787.21
730.009	3807.69
730.195	3647.94
730.382	3713.48
730.568	3713.48
730.754	3840.45
730.94	3742.15
731.126	3832.26
731.313	3729.86
731.499	3660.23
731.685	3705.29
731.871	3637.7
732.057	3684.81
732.243	3543.5
732.429	3740.1
732.615	3738.05
732.801	3639.75
732.987	3531.21
733.173	3604.94
733.359	3727.82
733.545	3514.83
733.731	3563.98
733.917	3721.67
734.103	3680.71
734.289	3633.61
734.475	3576.27
734.661	3578.31
734.847	3705.29
735.033	3525.07
735.219	3682.76
735.404	3588.55
735.59	3443.15
735.776	3658.18
735.962	3512.78
736.148	3586.51
736.333	3535.31
736.519	3471.82
736.705	3551.69
736.89	3469.77
737.076	3541.45
737.262	3443.15
737.447	3434.96
737.633	3529.16
737.819	3453.39
738.004	3377.61
738.19	3406.28
738.375	3396.04
738.561	3457.48
738.747	3459.53
738.932	3269.07
739.118	3428.81
739.303	3426.76
739.489	3332.56
739.674	3447.24
739.859	3377.61
740.045	3238.35
740.23	3279.31
740.416	3152.34
740.601	3275.21
740.786	3387.85
740.972	3191.25
741.157	3312.08
741.342	3250.64
741.528	3250.64
741.713	3305.93
741.898	3105.23
742.084	3099.09
742.269	3211.73
742.454	3191.25
742.639	3207.63
742.824	3181.01
743.01	3211.73
743.195	3181.01
743.38	3078.61
743.565	3076.56
743.75	3125.71
743.935	2982.35
744.12	3148.24
744.305	2914.77
744.49	3008.98
744.675	2974.16
744.86	2990.55
745.045	2961.87
745.23	2912.72
745.415	2961.87
745.6	2947.54
745.785	3023.31
745.97	2861.52
746.155	2955.73
746.34	2931.16
746.525	2808.28
746.71	2949.59
746.895	2871.76
747.079	2814.42
747.264	2798.04
747.449	2845.14
747.634	2677.21
747.819	2630.1
748.003	2630.1
748.188	2703.83
748.373	2740.69
748.557	2705.88
748.742	2632.15
748.927	2693.59
749.111	2615.77
749.296	2611.67
749.481	2572.76
749.665	2558.42
749.85	2556.38
750.034	2605.53
750.219	2537.95
750.404	2552.28
750.588	2484.7
750.773	2392.54
750.957	2447.83
751.141	2511.32
751.326	2335.2
751.51	2327
751.695	2398.68
751.879	2439.64
752.064	2363.87
752.248	2359.77
752.432	2304.48
752.617	2240.99
752.801	2351.58
752.985	2329.05
753.17	2433.5
753.354	2243.04
753.538	2214.37
753.722	2140.64
753.907	2169.31
754.091	2175.45
754.275	2097.63
754.459	2054.62
754.643	2140.64
754.828	2083.3
755.012	2089.44
755.196	2003.43
755.38	2099.68
755.564	2015.71
755.748	2093.54
755.932	2157.02
756.116	2015.71
756.3	1935.84
756.484	1925.6
756.668	1878.5
756.852	1849.83
757.036	1853.92
757.22	1862.12
757.404	1894.88
757.588	1909.22
757.772	1892.84
757.956	1915.36
758.14	1970.66
758.323	1800.68
758.507	1845.73
758.691	1767.91
758.875	1798.63
759.059	1743.33
759.242	1751.53
759.426	1757.67
759.61	1726.95
759.794	1794.53
759.977	1706.47
760.161	1739.24
760.345	1819.11
760.528	1778.15
760.712	1769.96
760.895	1825.25
761.079	1722.85
761.263	1698.28
761.446	1606.12
761.63	1653.22
761.813	1653.22
761.997	1585.64
762.18	1595.88
762.364	1593.83
762.547	1606.12
762.731	1679.85
762.914	1628.65
763.098	1559.02
763.281	1636.84
763.464	1569.26
763.648	1460.71
763.831	1485.29
764.015	1554.92
764.198	1522.15
764.381	1497.58
764.564	1626.6
764.748	1602.02
764.931	1493.48
765.114	1538.54
765.297	1454.57
765.481	1524.2
765.664	1526.25
765.847	1376.75
766.03	1497.58
766.213	1536.49
766.397	1452.52
766.58	1393.13
766.763	1470.95
766.946	1423.85
767.129	1366.51
767.312	1475.05
767.495	1440.23
767.678	1382.89
767.861	1411.56
768.044	1446.38
768.227	1395.18
768.41	1395.18
768.593	1389.03
768.776	1401.32
768.959	1479.15
769.142	1393.13
769.324	1380.84
769.507	1294.83
769.69	1378.79
769.873	1288.68
770.056	1421.8
770.239	1378.79
770.421	1333.74
770.604	1401.32
770.787	1335.79
770.97	1380.84
771.152	1223.15
771.335	1464.81
771.518	1219.05
771.7	1370.6
771.883	1227.25
772.066	1245.68
772.248	1255.92
772.431	1212.91
772.613	1212.91
772.796	1227.25
772.978	1174
773.161	1237.49
773.343	1171.95
773.526	1223.15
773.708	1075.7
773.891	1176.05
774.073	1151.47
774.256	1143.28
774.438	1108.46
774.621	1067.5
774.803	1202.67
774.985	1128.94
775.168	1102.32
775.35	1130.99
775.532	1116.65
775.715	1051.12
775.897	1106.42
776.079	1176.05
776.261	1061.36
776.444	1026.54
776.626	965.11
776.808	1004.02
776.99	1028.59
777.173	1006.06
777.355	1034.74
777.537	950.77
777.719	991.73
777.901	1010.16
778.083	956.91
778.265	909.81
778.447	995.82
778.629	903.67
778.811	1024.5
778.993	948.72
779.175	1008.11
779.357	936.43
779.539	963.06
779.721	903.67
779.903	1006.06
780.085	889.33
780.267	926.19
780.449	934.39
780.631	868.85
780.812	877.04
780.994	967.15
781.176	817.65
781.358	838.13
781.54	825.84
781.721	807.41
781.903	842.23
782.085	836.08
782.267	860.66
782.448	842.23
782.63	944.63
782.812	811.51
782.993	737.78
783.175	793.08
783.357	741.88
783.538	803.32
783.72	786.93
783.901	772.6
784.083	795.12
784.264	756.21
784.446	748.02
784.627	678.39
784.809	748.02
784.99	731.64
785.172	727.54
785.353	739.83
785.535	772.6
785.716	608.76
785.897	623.09
786.079	707.06
786.26	729.59
786.441	682.49
786.623	690.68
786.804	584.18
786.985	705.01
787.167	649.72
787.348	616.95
787.529	649.72
787.71	666.1
787.891	745.97
788.073	653.81
788.254	616.95
788.435	727.54
788.616	598.52
788.797	539.13
788.978	606.71
789.159	502.26
789.34	567.8
789.522	598.52
789.703	604.66
789.884	530.94
790.065	606.71
790.246	596.47
790.427	528.89
790.607	619
790.788	571.9
790.969	467.45
791.15	553.46
791.331	549.37
791.512	559.61
791.693	563.7
791.874	543.22
792.054	610.81
792.235	508.41
792.416	518.65
792.597	485.88
792.778	543.22
792.958	432.63
793.139	580.09
793.32	539.13
793.5	428.54
793.681	524.79
793.862	500.22
794.042	506.36
794.223	487.93
794.404	483.83
794.584	471.54
794.765	440.83
794.945	475.64
795.126	518.65
795.306	559.61
795.487	469.5
795.667	436.73
795.848	477.69
796.028	444.92
796.209	477.69
796.389	518.65
796.57	446.97
796.75	432.63
796.93	551.42
797.111	379.39
797.291	461.3
797.471	514.55
797.652	481.78
797.832	430.59
798.012	530.94
798.192	440.83
798.373	410.11
798.553	387.58
798.733	514.55
798.913	385.53
799.093	395.77
799.274	477.69
799.454	430.59
799.634	453.11
799.814	365.05
799.994	453.11
800.174	442.87
800.354	430.59
800.534	332.28
800.714	326.14
800.894	354.81
801.074	434.68
801.254	408.06
801.434	432.63
801.614	354.81
801.794	328.19
801.974	797.17
802.154	379.39
802.334	414.2
802.514	373.24
802.693	356.86
802.873	410.11
803.053	338.43
803.233	414.2
803.413	328.19
803.592	328.19
803.772	299.52
803.952	332.28
804.131	342.52
804.311	322.04
804.491	354.81
804.67	326.14
804.85	297.47
805.03	266.75
805.209	350.71
805.389	270.84
805.568	383.48
805.748	281.08
805.928	268.8
806.107	344.57
806.287	276.99
806.466	375.29
806.646	260.6
806.825	229.88
807.004	360.95
807.184	344.57
807.363	344.57
807.543	250.36
807.722	240.12
807.901	317.95
808.081	328.19
808.26	240.12
808.439	338.43
808.619	336.38
808.798	358.91
808.977	301.56
809.156	272.89
809.336	289.28
809.515	352.76
809.694	240.12
809.873	352.76
810.052	383.48
810.231	344.57
810.411	244.22
810.59	311.8
810.769	279.04
810.948	354.81
811.127	272.89
811.306	254.46
811.485	209.4
811.664	285.18
811.843	313.85
812.022	301.56
812.201	209.4
812.38	260.6
812.559	231.93
812.737	244.22
812.916	229.88
813.095	186.88
813.274	260.6
813.453	360.95
813.632	268.8
813.811	205.31
813.989	209.4
814.168	238.08
814.347	326.14
814.526	190.97
814.704	262.65
814.883	254.46
815.062	262.65
815.24	301.56
815.419	252.41
815.598	193.02
815.776	184.83
815.955	291.32
816.133	166.4
816.312	207.36
816.49	264.7
816.669	211.45
816.847	287.23
817.026	285.18
817.204	248.32
817.383	178.69
817.561	252.41
817.74	176.64
817.918	211.45
818.097	221.69
818.275	199.16
818.453	231.93
818.632	268.8
818.81	211.45
818.988	248.32
819.167	203.26
819.345	236.03
819.523	205.31
819.701	240.12
819.879	221.69
820.058	207.36
820.236	248.32
820.414	240.12
820.592	238.08
820.77	145.92
820.948	162.3
821.127	252.41
821.305	199.16
821.483	150.01
821.661	162.3
821.839	186.88
822.017	109.05
822.195	174.59
822.373	227.84
822.551	229.88
822.729	174.59
822.907	166.4
823.085	203.26
823.262	246.27
823.44	176.64
823.618	147.97
823.796	160.25
823.974	131.58
824.152	229.88
824.329	215.55
824.507	184.83
824.685	207.36
824.863	178.69
825.04	178.69
825.218	143.87
825.396	172.54
825.574	203.26
825.751	117.25
825.929	117.25
826.107	147.97
826.284	107.01
826.462	115.2
826.639	160.25
826.817	104.96
826.994	176.64
827.172	174.59
827.349	133.63
827.527	184.83
827.704	156.16
827.882	158.21
828.059	129.53
828.237	88.57
828.414	211.45
828.591	133.63
828.769	219.64
828.946	109.05
829.124	203.26
829.301	213.5
829.478	166.4
829.655	186.88
829.833	164.35
830.01	117.25
830.187	96.77
830.364	104.96
830.542	137.73
830.719	225.79
830.896	133.63
831.073	170.49
831.25	166.4
831.427	166.4
831.604	174.59
831.782	186.88
831.959	72.19
832.136	125.44
832.313	137.73
832.49	107.01
832.667	174.59
832.844	199.16
833.021	158.21
833.198	94.72
833.374	262.65
833.551	143.87
833.728	139.77
833.905	98.81
834.082	88.57
834.259	117.25
834.436	170.49
834.612	86.53
834.789	113.15
834.966	76.29
835.143	94.72
835.319	156.16
835.496	164.35
835.673	197.12
835.85	143.87
836.026	182.78
836.203	107.01
836.38	121.34
836.556	207.36
836.733	82.43
836.909	137.73
837.086	152.06
837.262	49.66
837.439	186.88
837.616	94.72
837.792	121.34
837.968	190.97
838.145	141.82
838.321	188.93
838.498	84.48
838.674	125.44
838.851	133.63
839.027	96.77
839.203	174.59
839.38	193.02
839.556	96.77
839.732	133.63
839.909	207.36
840.085	145.92
840.261	150.01
840.437	180.73
840.614	82.43
840.79	125.44
840.966	154.11
841.142	104.96
841.318	119.29
841.494	45.57
841.671	115.2
841.847	94.72
842.023	129.53
842.199	135.68
842.375	145.92
842.551	109.05
842.727	143.87
842.903	100.86
843.079	96.77
843.255	121.34
843.431	66.05
843.607	131.58
843.783	74.24
843.959	176.64
844.134	113.15
844.31	102.91
844.486	51.71
844.662	125.44
844.838	133.63
845.013	16.9
845.189	135.68
845.365	64
845.541	80.38
845.716	152.06
845.892	147.97
846.068	53.76
846.244	109.05
846.419	123.39
846.595	6.66
846.77	29.18
846.946	100.86
847.122	59.9
847.297	88.57
847.473	51.71
847.648	66.05
847.824	123.39
847.999	82.43
848.175	84.48
848.35	145.92
848.526	115.2
848.701	141.82
848.876	141.82
849.052	119.29
849.227	125.44
849.403	152.06
849.578	127.49
849.753	78.33
849.929	117.25
850.104	98.81
850.279	104.96
850.454	141.82
850.63	61.95
850.805	72.19
850.98	133.63
851.155	57.86
851.33	90.62
851.505	139.77
851.681	96.77
851.856	-17.92
852.031	64
852.206	55.81
852.381	86.53
852.556	98.81
852.731	78.33
852.906	168.45
853.081	94.72
853.256	117.25
853.431	53.76
853.606	59.9
853.781	72.19
853.956	-7.68
854.131	59.9
854.305	18.94
854.48	100.86
854.655	102.91
854.83	129.53
855.005	59.9
855.18	88.57
855.354	82.43
855.529	70.14
855.704	14.85
855.879	107.01
856.053	39.42
856.228	35.33
856.403	18.94
856.577	109.05
856.752	80.38
856.926	92.67
857.101	49.66
857.276	86.53
857.45	47.62
857.625	133.63
857.799	10.75
857.974	115.2
858.148	-30.21
858.323	33.28
858.497	74.24
858.672	80.38
858.846	64
859.02	125.44
859.195	18.94
859.369	53.76
859.543	47.62
859.718	55.81
859.892	-15.87
860.066	139.77
860.241	92.67
860.415	6.66
860.589	109.05
860.763	86.53
860.938	66.05
861.112	92.67
861.286	64
861.46	66.05
861.634	31.23
861.808	100.86
861.982	35.33
862.157	18.94
862.331	35.33
862.505	8.7
862.679	66.05
862.853	-5.63
863.027	51.71
863.201	41.47
863.375	66.05
863.549	84.48
863.722	51.71
863.896	94.72
864.07	74.24
864.244	125.44
864.418	82.43
864.592	55.81
864.766	39.42
864.939	104.96
865.113	6.66
865.287	53.76
865.461	61.95
865.634	125.44
865.808	84.48
865.982	66.05
866.156	14.85
866.329	66.05
866.503	98.81
866.676	121.34
866.85	90.62
867.024	-32.26
867.197	35.33
867.371	102.91
867.544	119.29
867.718	-22.02
867.891	98.81
868.065	43.52
868.238	94.72
868.412	123.39
868.585	12.8
868.759	23.04
868.932	41.47
869.105	12.8
869.279	88.57
869.452	10.75
869.625	92.67
869.799	102.91
869.972	-19.97
870.145	68.09
870.319	27.14
870.492	55.81
870.665	64
870.838	135.68
871.011	64
871.185	88.57
871.358	10.75
871.531	98.81
871.704	45.57
871.877	76.29
872.05	70.14
872.223	35.33
872.396	84.48
872.569	61.95
872.742	2.56
872.915	70.14
873.088	18.94
873.261	88.57
873.434	66.05
873.607	84.48
873.78	121.34
873.953	37.38
874.126	109.05
874.299	53.76
874.471	68.09
874.644	-54.78
874.817	117.25
874.99	76.29
875.163	45.57
875.335	-9.73
875.508	35.33
875.681	8.7
875.853	43.52
876.026	82.43
876.199	25.09
876.371	-9.73
876.544	18.94
876.717	74.24
876.889	-15.87
877.062	84.48
877.234	20.99
877.407	35.33
877.579	68.09
877.752	59.9
877.924	43.52
878.097	41.47
878.269	66.05
878.442	43.52
878.614	59.9
878.786	43.52
878.959	102.91
879.131	92.67
879.303	-22.02
879.476	147.97
879.648	86.53
879.82	6.66
879.993	33.28
880.165	20.99
880.337	10.75
880.509	76.29
880.681	18.94
880.854	74.24
881.026	90.62
881.198	141.82
881.37	33.28
881.542	57.86
881.714	-38.4
881.886	66.05
882.058	96.77
882.23	25.09
882.402	47.62
882.574	88.57
882.746	82.43
882.918	57.86
883.09	82.43
883.262	2.56
883.434	8.7
883.606	57.86
883.778	107.01
883.95	100.86
884.122	51.71
884.293	6.66
884.465	82.43
884.637	145.92
884.809	27.14
884.98	59.9
885.152	84.48
885.324	16.9
885.496	57.86
885.667	100.86
885.839	70.14
886.011	125.44
886.182	43.52
886.354	82.43
886.525	76.29
886.697	0.51
886.869	82.43
887.04	-11.78
887.212	8.7
887.383	47.62
887.555	119.29
887.726	-3.58
887.897	27.14
888.069	41.47
888.24	51.71
888.412	47.62
888.583	88.57
888.754	43.52
888.926	23.04
889.097	27.14
889.268	2.56
889.44	78.33
889.611	57.86
889.782	-42.5
889.953	66.05
890.125	23.04
890.296	74.24
890.467	41.47
890.638	16.9
890.809	23.04
890.98	55.81
891.151	76.29
891.323	123.39
891.494	66.05
891.665	2.56
891.836	29.18
892.007	49.66
892.178	129.53
892.349	43.52
892.52	55.81
892.691	64
892.862	-26.11
893.032	4.61
893.203	33.28
893.374	33.28
893.545	109.05
893.716	100.86
893.887	16.9
894.057	18.94
894.228	-7.68
894.399	16.9
894.57	92.67
894.74	78.33
894.911	55.81
895.082	8.7
895.253	51.71
895.423	41.47
895.594	25.09
895.764	2.56
895.935	61.95
896.106	84.48
896.276	43.52
896.447	41.47
896.617	94.72
896.788	80.38
896.958	88.57
897.129	-30.21
897.299	41.47
897.47	111.1
897.64	18.94
897.81	100.86
897.981	25.09
898.151	55.81
898.322	53.76
898.492	29.18
898.662	8.7
898.832	-5.63
899.003	31.23
899.173	29.18
899.343	78.33
899.513	29.18
