Data from USB4F104151__28__10-21-51-056.txt Node

Date: Wed Mar 12 10:21:51 EDT 2025
User: louis
Spectrometer: USB4F10415
Trigger mode: 4
Integration Time (sec): 3.000000E-2
Scans to average: 1
Electric dark correction enabled: true
Nonlinearity correction enabled: false
Boxcar width: 0
XAxis mode: Wavelengths
Number of Pixels in Spectrum: 3648
>>>>>Begin Spectral Data<<<<<
178.204	-114.17
178.424	-114.17
178.644	-114.17
178.864	-62.98
179.084	-114.17
179.304	-30.21
179.524	-15.87
179.744	4.61
179.964	74.24
180.184	-46.59
180.404	16.9
180.624	-3.58
180.844	-30.21
181.064	-30.21
181.283	-11.78
181.503	49.66
181.723	23.04
181.943	-15.87
182.163	33.28
182.383	-11.78
182.602	2.56
182.822	55.81
183.042	92.67
183.262	-32.26
183.482	39.42
183.701	10.75
183.921	64
184.141	8.7
184.361	35.33
184.58	33.28
184.8	14.85
185.02	29.18
185.239	33.28
185.459	57.86
185.679	51.71
185.898	-30.21
186.118	90.62
186.338	-11.78
186.557	-15.87
186.777	27.14
186.997	-5.63
187.216	27.14
187.436	31.23
187.655	76.29
187.875	31.23
188.095	-40.45
188.314	33.28
188.534	23.04
188.753	-5.63
188.973	49.66
189.192	-24.06
189.412	-34.3
189.631	23.04
189.851	35.33
190.07	2.56
190.29	-22.02
190.509	-34.3
190.729	-24.06
190.948	-5.63
191.168	131.58
191.387	68.09
191.607	-71.17
191.826	-34.3
192.045	-13.82
192.265	82.43
192.484	18.94
192.704	-3.58
192.923	-9.73
193.142	31.23
193.362	-40.45
193.581	68.09
193.8	51.71
194.02	78.33
194.239	-26.11
194.458	57.86
194.678	8.7
194.897	2.56
195.116	35.33
195.335	45.57
195.555	-1.54
195.774	51.71
195.993	-13.82
196.212	0.51
196.432	68.09
196.651	-5.63
196.87	-5.63
197.089	100.86
197.308	29.18
197.528	14.85
197.747	39.42
197.966	51.71
198.185	8.7
198.404	-30.21
198.623	45.57
198.842	-3.58
199.062	51.71
199.281	6.66
199.5	-30.21
199.719	145.92
199.938	2.56
200.157	10.75
200.376	53.76
200.595	-7.68
200.814	31.23
201.033	47.62
201.252	20.99
201.471	43.52
201.69	88.57
201.909	49.66
202.128	133.63
202.347	43.52
202.566	64
202.785	0.51
203.004	33.28
203.223	25.09
203.442	35.33
203.661	-26.11
203.879	49.66
204.098	45.57
204.317	-32.26
204.536	78.33
204.755	-52.74
204.974	86.53
205.193	-24.06
205.411	59.9
205.63	35.33
205.849	59.9
206.068	8.7
206.287	57.86
206.505	68.09
206.724	-54.78
206.943	-38.4
207.162	35.33
207.381	-30.21
207.599	86.53
207.818	0.51
208.037	-19.97
208.255	23.04
208.474	20.99
208.693	66.05
208.911	16.9
209.13	104.96
209.349	51.71
209.567	37.38
209.786	70.14
210.005	14.85
210.223	27.14
210.442	70.14
210.661	23.04
210.879	2.56
211.098	53.76
211.316	39.42
211.535	12.8
211.753	10.75
211.972	18.94
212.191	2.56
212.409	10.75
212.628	12.8
212.846	2.56
213.065	78.33
213.283	-15.87
213.502	123.39
213.72	-7.68
213.938	0.51
214.157	35.33
214.375	-17.92
214.594	84.48
214.812	35.33
215.031	0.51
215.249	0.51
215.467	-5.63
215.686	2.56
215.904	37.38
216.122	80.38
216.341	59.9
216.559	-1.54
216.778	20.99
216.996	10.75
217.214	-1.54
217.432	-7.68
217.651	37.38
217.869	31.23
218.087	55.81
218.306	43.52
218.524	72.19
218.742	2.56
218.96	64
219.179	31.23
219.397	43.52
219.615	47.62
219.833	31.23
220.051	78.33
220.27	49.66
220.488	51.71
220.706	23.04
220.924	47.62
221.142	84.48
221.36	61.95
221.578	33.28
221.796	-19.97
222.015	16.9
222.233	68.09
222.451	27.14
222.669	51.71
222.887	33.28
223.105	61.95
223.323	-42.5
223.541	45.57
223.759	55.81
223.977	-5.63
224.195	100.86
224.413	-46.59
224.631	43.52
224.849	59.9
225.067	59.9
225.285	8.7
225.503	12.8
225.721	20.99
225.939	31.23
226.157	64
226.375	96.77
226.592	64
226.81	-1.54
227.028	25.09
227.246	51.71
227.464	35.33
227.682	18.94
227.9	82.43
228.117	76.29
228.335	31.23
228.553	-28.16
228.771	35.33
228.989	2.56
229.206	70.14
229.424	-1.54
229.642	68.09
229.86	12.8
230.077	10.75
230.295	31.23
230.513	35.33
230.731	-11.78
230.948	72.19
231.166	12.8
231.384	-54.78
231.601	6.66
231.819	59.9
232.037	10.75
232.254	2.56
232.472	80.38
232.689	12.8
232.907	10.75
233.125	-5.63
233.342	31.23
233.56	14.85
233.777	20.99
233.995	35.33
234.213	92.67
234.43	-52.74
234.648	33.28
234.865	76.29
235.083	31.23
235.3	-38.4
235.518	68.09
235.735	35.33
235.953	78.33
236.17	-7.68
236.388	27.14
236.605	53.76
236.822	90.62
237.04	43.52
237.257	20.99
237.475	47.62
237.692	72.19
237.909	18.94
238.127	64
238.344	23.04
238.562	64
238.779	-5.63
238.996	33.28
239.214	-5.63
239.431	18.94
239.648	29.18
239.865	68.09
240.083	16.9
240.3	-32.26
240.517	-1.54
240.735	10.75
240.952	-7.68
241.169	45.57
241.386	-56.83
241.603	104.96
241.821	8.7
242.038	57.86
242.255	10.75
242.472	4.61
242.689	20.99
242.907	113.15
243.124	16.9
243.341	121.34
243.558	14.85
243.775	107.01
243.992	-40.45
244.209	-30.21
244.426	51.71
244.643	-30.21
244.86	51.71
245.078	-1.54
245.295	68.09
245.512	-50.69
245.729	-19.97
245.946	104.96
246.163	-36.35
246.38	25.09
246.597	29.18
246.814	64
247.031	18.94
247.248	76.29
247.464	31.23
247.681	107.01
247.898	-13.82
248.115	47.62
248.332	100.86
248.549	41.47
248.766	14.85
248.983	131.58
249.2	-30.21
249.417	31.23
249.633	-24.06
249.85	-7.68
250.067	-26.11
250.284	-26.11
250.501	16.9
250.717	33.28
250.934	12.8
251.151	-17.92
251.368	41.47
251.585	49.66
251.801	2.56
252.018	-30.21
252.235	49.66
252.451	70.14
252.668	72.19
252.885	125.44
253.102	47.62
253.318	6.66
253.535	8.7
253.752	4.61
253.968	-1.54
254.185	33.28
254.401	-5.63
254.618	39.42
254.835	43.52
255.051	82.43
255.268	74.24
255.484	55.81
255.701	-1.54
255.917	49.66
256.134	-56.83
256.351	49.66
256.567	55.81
256.784	59.9
257	-30.21
257.217	57.86
257.433	53.76
257.65	-40.45
257.866	78.33
258.082	35.33
258.299	-22.02
258.515	14.85
258.732	16.9
258.948	39.42
259.165	25.09
259.381	8.7
259.597	-15.87
259.814	59.9
260.03	35.33
260.246	-15.87
260.463	23.04
260.679	-1.54
260.895	-26.11
261.112	96.77
261.328	37.38
261.544	-28.16
261.761	88.57
261.977	47.62
262.193	41.47
262.409	94.72
262.626	37.38
262.842	31.23
263.058	-38.4
263.274	45.57
263.49	117.25
263.707	64
263.923	57.86
264.139	-22.02
264.355	-44.54
264.571	76.29
264.787	31.23
265.004	-9.73
265.22	59.9
265.436	-28.16
265.652	86.53
265.868	107.01
266.084	39.42
266.3	29.18
266.516	29.18
266.732	12.8
266.948	39.42
267.164	-42.5
267.38	0.51
267.596	-13.82
267.812	125.44
268.028	12.8
268.244	66.05
268.46	31.23
268.676	-17.92
268.892	74.24
269.108	-7.68
269.324	31.23
269.54	-5.63
269.756	76.29
269.972	33.28
270.188	14.85
270.403	0.51
270.619	51.71
270.835	64
271.051	68.09
271.267	51.71
271.483	2.56
271.698	29.18
271.914	23.04
272.13	-34.3
272.346	107.01
272.562	57.86
272.777	172.54
272.993	10.75
273.209	-28.16
273.425	27.14
273.64	-26.11
273.856	-22.02
274.072	20.99
274.287	-30.21
274.503	109.05
274.719	12.8
274.934	102.91
275.15	2.56
275.366	12.8
275.581	-44.54
275.797	49.66
276.012	72.19
276.228	2.56
276.444	43.52
276.659	25.09
276.875	6.66
277.09	-7.68
277.306	66.05
277.521	23.04
277.737	88.57
277.952	25.09
278.168	41.47
278.383	-7.68
278.599	43.52
278.814	33.28
279.03	27.14
279.245	-5.63
279.461	88.57
279.676	10.75
279.892	-15.87
280.107	-17.92
280.322	64
280.538	53.76
280.753	74.24
280.969	12.8
281.184	59.9
281.399	57.86
281.615	66.05
281.83	107.01
282.045	-62.98
282.26	8.7
282.476	4.61
282.691	-1.54
282.906	-9.73
283.122	53.76
283.337	43.52
283.552	-7.68
283.767	27.14
283.983	47.62
284.198	20.99
284.413	18.94
284.628	10.75
284.843	10.75
285.058	64
285.274	33.28
285.489	4.61
285.704	66.05
285.919	-15.87
286.134	-19.97
286.349	-19.97
286.564	37.38
286.779	4.61
286.995	14.85
287.21	-7.68
287.425	98.81
287.64	6.66
287.855	51.71
288.07	49.66
288.285	6.66
288.5	-22.02
288.715	74.24
288.93	49.66
289.145	51.71
289.36	98.81
289.575	-3.58
289.79	96.77
290.004	-42.5
290.219	64
290.434	45.57
290.649	4.61
290.864	2.56
291.079	51.71
291.294	31.23
291.509	64
291.724	53.76
291.938	4.61
292.153	90.62
292.368	49.66
292.583	109.05
292.798	86.53
293.012	72.19
293.227	64
293.442	-26.11
293.657	8.7
293.871	61.95
294.086	51.71
294.301	76.29
294.516	23.04
294.73	10.75
294.945	-50.69
295.16	39.42
295.374	100.86
295.589	10.75
295.804	-3.58
296.018	14.85
296.233	10.75
296.447	-5.63
296.662	59.9
296.877	45.57
297.091	27.14
297.306	59.9
297.52	82.43
297.735	72.19
297.949	66.05
298.164	25.09
298.378	0.51
298.593	-1.54
298.807	25.09
299.022	-7.68
299.236	100.86
299.451	-40.45
299.665	41.47
299.88	14.85
300.094	-56.83
300.309	12.8
300.523	-46.59
300.737	-7.68
300.952	27.14
301.166	43.52
301.381	2.56
301.595	-19.97
301.809	25.09
302.024	35.33
302.238	-7.68
302.452	68.09
302.667	68.09
302.881	80.38
303.095	-15.87
303.309	-1.54
303.524	27.14
303.738	45.57
303.952	-24.06
304.166	25.09
304.381	47.62
304.595	84.48
304.809	72.19
305.023	107.01
305.237	29.18
305.452	76.29
305.666	33.28
305.88	18.94
306.094	107.01
306.308	66.05
306.522	35.33
306.736	78.33
306.95	31.23
307.164	8.7
307.379	41.47
307.593	96.77
307.807	80.38
308.021	10.75
308.235	6.66
308.449	-38.4
308.663	47.62
308.877	92.67
309.091	35.33
309.305	68.09
309.519	-3.58
309.733	98.81
309.947	-5.63
310.161	43.52
310.374	14.85
310.588	59.9
310.802	61.95
311.016	-3.58
311.23	88.57
311.444	4.61
311.658	18.94
311.872	64
312.085	25.09
312.299	59.9
312.513	-19.97
312.727	45.57
312.941	43.52
313.154	-17.92
313.368	14.85
313.582	76.29
313.796	-24.06
314.009	66.05
314.223	104.96
314.437	82.43
314.651	31.23
314.864	90.62
315.078	86.53
315.292	16.9
315.505	41.47
315.719	12.8
315.933	-30.21
316.146	2.56
316.36	33.28
316.573	80.38
316.787	72.19
317.001	-26.11
317.214	55.81
317.428	57.86
317.641	-17.92
317.855	16.9
318.068	18.94
318.282	109.05
318.495	45.57
318.709	115.2
318.922	68.09
319.136	158.21
319.349	-7.68
319.563	53.76
319.776	6.66
319.99	-34.3
320.203	43.52
320.417	47.62
320.63	115.2
320.843	53.76
321.057	41.47
321.27	35.33
321.483	64
321.697	43.52
321.91	-13.82
322.124	2.56
322.337	45.57
322.55	-24.06
322.763	47.62
322.977	10.75
323.19	51.71
323.403	47.62
323.617	14.85
323.83	90.62
324.043	29.18
324.256	-1.54
324.469	31.23
324.683	80.38
324.896	-1.54
325.109	45.57
325.322	-1.54
325.535	53.76
325.748	47.62
325.962	92.67
326.175	-3.58
326.388	82.43
326.601	43.52
326.814	59.9
327.027	-1.54
327.24	29.18
327.453	-38.4
327.666	43.52
327.879	8.7
328.092	61.95
328.305	90.62
328.518	-1.54
328.731	2.56
328.944	57.86
329.157	29.18
329.37	74.24
329.583	49.66
329.796	59.9
330.009	-36.35
330.222	76.29
330.435	41.47
330.648	8.7
330.861	33.28
331.073	-7.68
331.286	37.38
331.499	51.71
331.712	57.86
331.925	35.33
332.138	76.29
332.35	29.18
332.563	-11.78
332.776	45.57
332.989	-5.63
333.202	37.38
333.414	-36.35
333.627	70.14
333.84	8.7
334.053	49.66
334.265	51.71
334.478	55.81
334.691	20.99
334.903	27.14
335.116	37.38
335.329	92.67
335.541	57.86
335.754	43.52
335.966	10.75
336.179	-13.82
336.392	31.23
336.604	14.85
336.817	20.99
337.029	29.18
337.242	2.56
337.454	104.96
337.667	39.42
337.88	23.04
338.092	35.33
338.305	25.09
338.517	68.09
338.729	59.9
338.942	31.23
339.154	64
339.367	35.33
339.579	0.51
339.792	43.52
340.004	-11.78
340.217	-7.68
340.429	55.81
340.641	76.29
340.854	33.28
341.066	18.94
341.278	72.19
341.491	84.48
341.703	31.23
341.915	68.09
342.128	23.04
342.34	59.9
342.552	-11.78
342.764	8.7
342.977	-32.26
343.189	33.28
343.401	27.14
343.613	-42.5
343.826	-32.26
344.038	-71.17
344.25	57.86
344.462	33.28
344.674	10.75
344.886	39.42
345.099	74.24
345.311	59.9
345.523	20.99
345.735	-32.26
345.947	80.38
346.159	41.47
346.371	39.42
346.583	51.71
346.795	33.28
347.007	14.85
347.219	72.19
347.431	35.33
347.643	82.43
347.855	18.94
348.067	72.19
348.279	8.7
348.491	25.09
348.703	-38.4
348.915	109.05
349.127	37.38
349.339	96.77
349.551	20.99
349.763	80.38
349.975	0.51
350.187	100.86
350.399	90.62
350.61	8.7
350.822	25.09
351.034	55.81
351.246	66.05
351.458	98.81
351.669	37.38
351.881	90.62
352.093	-5.63
352.305	88.57
352.517	33.28
352.728	-13.82
352.94	43.52
353.152	51.71
353.363	49.66
353.575	23.04
353.787	76.29
353.999	70.14
354.21	49.66
354.422	72.19
354.633	10.75
354.845	47.62
355.057	100.86
355.268	8.7
355.48	10.75
355.692	18.94
355.903	66.05
356.115	57.86
356.326	-30.21
356.538	90.62
356.749	86.53
356.961	88.57
357.172	61.95
357.384	31.23
357.595	16.9
357.807	14.85
358.018	12.8
358.23	94.72
358.441	135.68
358.653	23.04
358.864	57.86
359.075	39.42
359.287	37.38
359.498	168.45
359.709	6.66
359.921	64
360.132	72.19
360.344	115.2
360.555	-9.73
360.766	10.75
360.977	119.29
361.189	16.9
361.4	57.86
361.611	12.8
361.823	59.9
362.034	10.75
362.245	-38.4
362.456	10.75
362.667	37.38
362.879	-5.63
363.09	18.94
363.301	4.61
363.512	16.9
363.723	66.05
363.935	74.24
364.146	94.72
364.357	16.9
364.568	-24.06
364.779	33.28
364.99	100.86
365.201	43.52
365.412	61.95
365.623	43.52
365.834	94.72
366.045	37.38
366.256	90.62
366.467	115.2
366.678	41.47
366.889	86.53
367.1	-5.63
367.311	100.86
367.522	33.28
367.733	55.81
367.944	59.9
368.155	23.04
368.366	104.96
368.577	55.81
368.788	31.23
368.999	-1.54
369.209	8.7
369.42	90.62
369.631	125.44
369.842	131.58
370.053	8.7
370.264	59.9
370.474	-24.06
370.685	43.52
370.896	-5.63
371.107	53.76
371.317	88.57
371.528	-1.54
371.739	109.05
371.95	76.29
372.16	35.33
372.371	6.66
372.582	18.94
372.792	25.09
373.003	100.86
373.214	41.47
373.424	123.39
373.635	39.42
373.846	64
374.056	18.94
374.267	68.09
374.477	49.66
374.688	20.99
374.898	82.43
375.109	-5.63
375.319	31.23
375.53	68.09
375.74	0.51
375.951	68.09
376.161	100.86
376.372	39.42
376.582	74.24
376.793	-1.54
377.003	-30.21
377.214	0.51
377.424	41.47
377.635	16.9
377.845	27.14
378.055	68.09
378.266	10.75
378.476	18.94
378.686	43.52
378.897	53.76
379.107	-30.21
379.317	-5.63
379.528	27.14
379.738	43.52
379.948	12.8
380.158	70.14
380.369	68.09
380.579	74.24
380.789	59.9
380.999	100.86
381.21	117.25
381.42	125.44
381.63	82.43
381.84	68.09
382.05	74.24
382.261	76.29
382.471	90.62
382.681	72.19
382.891	104.96
383.101	92.67
383.311	-22.02
383.521	18.94
383.731	51.71
383.941	51.71
384.151	66.05
384.361	68.09
384.571	57.86
384.781	16.9
384.991	109.05
385.201	74.24
385.411	80.38
385.621	92.67
385.831	-13.82
386.041	88.57
386.251	76.29
386.461	41.47
386.671	51.71
386.881	92.67
387.091	-17.92
387.301	33.28
387.511	64
387.72	61.95
387.93	88.57
388.14	16.9
388.35	8.7
388.56	49.66
388.769	49.66
388.979	31.23
389.189	88.57
389.399	92.67
389.609	53.76
389.818	84.48
390.028	53.76
390.238	59.9
390.447	55.81
390.657	113.15
390.867	57.86
391.076	51.71
391.286	37.38
391.496	57.86
391.705	107.01
391.915	88.57
392.125	2.56
392.334	164.35
392.544	121.34
392.753	68.09
392.963	31.23
393.172	139.77
393.382	86.53
393.591	98.81
393.801	41.47
394.01	53.76
394.22	80.38
394.429	129.53
394.639	129.53
394.848	135.68
395.058	109.05
395.267	109.05
395.477	109.05
395.686	78.33
395.895	135.68
396.105	76.29
396.314	49.66
396.524	43.52
396.733	49.66
396.942	37.38
397.152	121.34
397.361	68.09
397.57	100.86
397.78	156.16
397.989	47.62
398.198	131.58
398.407	10.75
398.617	84.48
398.826	33.28
399.035	168.45
399.244	66.05
399.453	156.16
399.663	127.49
399.872	119.29
400.081	82.43
400.29	150.01
400.499	117.25
400.708	111.1
400.917	141.82
401.127	37.38
401.336	160.25
401.545	221.69
401.754	150.01
401.963	172.54
402.172	68.09
402.381	133.63
402.59	139.77
402.799	125.44
403.008	107.01
403.217	131.58
403.426	135.68
403.635	57.86
403.844	170.49
404.053	98.81
404.262	80.38
404.471	231.93
404.68	133.63
404.888	113.15
405.097	104.96
405.306	195.07
405.515	84.48
405.724	137.73
405.933	141.82
406.142	111.1
406.35	244.22
406.559	168.45
406.768	141.82
406.977	211.45
407.185	178.69
407.394	193.02
407.603	223.74
407.812	260.6
408.02	219.64
408.229	209.4
408.438	231.93
408.646	211.45
408.855	244.22
409.064	365.05
409.272	248.32
409.481	295.42
409.69	307.71
409.898	256.51
410.107	283.13
410.315	291.32
410.524	363
410.733	420.35
410.941	303.61
411.15	346.62
411.358	350.71
411.567	320
411.775	420.35
411.984	436.73
412.192	453.11
412.401	449.02
412.609	506.36
412.818	475.64
413.026	512.5
413.234	535.03
413.443	569.85
413.651	469.5
413.86	473.59
414.068	530.94
414.276	639.48
414.485	612.85
414.693	733.68
414.901	631.29
415.11	721.4
415.318	698.87
415.526	709.11
415.734	772.6
415.943	768.5
416.151	881.14
416.359	813.56
416.567	883.19
416.776	934.39
416.984	936.43
417.192	956.91
417.4	1032.69
417.608	963.06
417.817	1092.08
418.025	1118.7
418.233	1202.67
418.441	1141.23
418.649	1153.52
418.857	1315.31
419.065	1368.56
419.273	1276.4
419.481	1339.88
419.689	1495.53
419.897	1546.73
420.105	1528.3
420.313	1554.92
420.521	1597.93
420.729	1653.22
420.937	1657.32
421.145	1745.38
421.353	1837.54
421.561	2019.81
421.769	1980.9
421.977	2093.54
422.185	2019.81
422.393	2197.98
422.601	2445.79
422.809	2339.29
423.017	2236.89
423.224	2484.7
423.432	2466.27
423.64	2621.91
423.848	2828.76
424.056	2691.54
424.263	2902.48
424.471	2818.52
424.679	2976.21
424.887	3107.28
425.094	3168.72
425.302	3238.35
425.51	3334.61
425.718	3516.87
425.925	3455.44
426.133	3555.79
426.341	3879.36
426.548	4037.06
426.756	3946.95
426.964	3989.96
427.171	4192.7
427.379	4211.14
427.586	4291.01
427.794	4426.17
428.001	4753.85
428.209	4975.03
428.417	4981.17
428.624	5292.46
428.832	5169.59
429.039	5165.49
429.247	5204.4
429.454	5675.43
429.662	6027.68
429.869	5562.8
430.076	6029.73
430.284	5720.49
430.491	6072.74
430.699	6558.11
430.906	6429.09
431.114	6341.02
431.321	6893.97
431.528	6889.88
431.736	7293.33
431.943	7674.25
432.15	7602.57
432.358	7645.58
432.565	8161.67
432.772	7940.49
432.979	8632.7
433.187	8460.67
433.394	8530.3
433.601	8956.28
433.808	9245.04
434.016	9040.25
434.223	9513.33
434.43	10088.81
434.637	9738.6
434.844	10668.38
435.052	10774.88
435.259	10697.05
435.466	10705.24
435.673	10500.45
435.88	11217.24
436.087	11921.74
436.294	12087.62
436.501	11665.74
436.708	12036.42
436.915	12247.37
437.122	12824.89
437.329	12642.62
437.537	13257.01
437.743	13375.8
437.95	13197.62
438.157	13799.73
438.364	14635.3
438.571	14297.38
438.778	14311.72
438.985	15743.25
439.192	15128.86
439.399	15794.45
439.606	15536.4
439.813	15902.99
440.02	17365.24
440.227	16920.83
440.433	16652.55
440.64	17285.37
440.847	17275.13
441.054	17481.97
441.261	18723.04
441.467	18266.35
441.674	18542.82
441.881	19405.02
442.088	19585.24
442.294	19171.55
442.501	20168.91
442.708	20168.91
442.914	20660.42
443.121	21784.76
443.328	21364.92
443.534	22792.36
443.741	22069.42
443.948	21807.28
444.154	23414.94
444.361	23195.81
444.568	23251.1
444.774	23519.39
444.981	23521.43
445.187	24537.23
445.394	25628.79
445.6	25075.84
445.807	27588.7
446.013	26185.84
446.22	26955.88
446.426	27670.62
446.633	27902.04
446.839	29007.94
447.046	27762.78
447.252	29130.82
447.459	29053
447.665	28874.82
447.871	30574.64
448.078	31485.98
448.284	30023.73
448.491	30857.26
448.697	32127
448.903	32489.49
449.11	32501.78
449.316	32059.41
449.522	32557.07
449.728	33716.22
449.935	33705.98
450.141	33458.18
450.347	34217.97
450.553	33290.24
450.76	33783.8
450.966	34527.22
451.172	34213.88
451.378	35084.26
451.584	34322.42
451.791	35233.77
451.997	35381.22
452.203	35381.22
452.409	35928.03
452.615	35629.02
452.821	33935.35
453.027	33847.29
453.233	35190.76
453.44	34045.94
453.646	34195.45
453.852	34269.17
454.058	35387.36
454.264	33886.2
454.47	34836.46
454.676	33822.72
454.882	34469.87
455.088	31635.49
455.294	32489.49
455.5	32557.07
455.705	33077.26
455.911	31889.43
456.117	30916.65
456.323	30103.6
456.529	29001.8
456.735	30308.4
456.941	29503.55
457.147	28958.79
457.352	28387.41
457.558	27549.79
457.764	27938.9
457.97	27392.09
458.176	26560.62
458.381	26388.59
458.587	25393.28
458.793	25419.9
458.999	24045.71
459.204	25714.81
459.41	24979.59
459.616	23427.23
459.821	23484.57
460.027	23746.71
460.233	23021.73
460.438	22057.14
460.644	22024.37
460.85	21016.77
461.055	20568.26
461.261	20627.65
461.466	19052.77
461.672	18532.58
461.878	19908.82
462.083	18497.77
462.289	18178.28
462.494	17977.58
462.7	17211.64
462.905	16767.23
463.111	17492.21
463.316	17451.25
463.522	17146.11
463.727	17158.39
463.932	17035.52
464.138	16900.35
464.343	17064.19
464.549	16345.35
464.754	17088.76
464.959	16724.22
465.165	16826.62
465.37	16167.18
465.575	15841.55
465.781	16300.3
465.986	16359.69
466.191	15948.04
466.397	15474.96
466.602	14733.6
466.807	15511.83
467.012	15358.23
467.218	15456.53
467.423	14895.39
467.628	15274.26
467.833	15884.56
468.038	15251.74
468.244	14760.22
468.449	15304.98
468.654	14663.97
468.859	14971.16
469.064	14670.11
469.269	14156.07
469.474	14006.57
469.679	14723.36
469.885	13953.32
470.09	14336.29
470.295	14162.22
470.5	13785.39
470.705	13787.44
470.91	13642.03
471.115	13596.98
471.32	13576.5
471.525	13498.67
471.73	13334.84
471.935	13123.9
472.139	12788.03
472.344	12978.49
472.549	12853.56
472.754	12644.67
472.959	12380.48
473.164	12114.25
473.369	12079.43
473.574	12368.2
473.778	12157.25
473.983	12468.55
474.188	12097.86
474.393	11653.45
474.598	11575.63
474.802	11538.77
475.007	11594.06
475.212	11454.8
475.417	11221.33
475.621	11139.41
475.826	10967.38
476.031	10807.64
476.235	10733.92
476.44	10914.14
476.645	10770.78
476.849	10436.96
477.054	10697.05
477.259	10471.78
477.463	10357.09
477.668	10092.9
477.872	10049.89
478.077	9892.2
478.282	9857.39
478.486	9851.24
478.691	9754.99
478.895	9845.1
479.1	9818.47
479.304	9668.97
479.509	9351.54
479.713	9474.42
479.918	9505.13
480.122	9210.23
480.326	9316.72
480.531	9390.45
480.735	9382.26
480.94	9271.67
481.144	9421.17
481.348	9081.21
481.553	9087.35
481.757	8827.26
481.961	9144.69
482.166	9023.86
482.37	9136.5
482.574	8925.56
482.778	9107.83
482.983	9103.73
483.187	8937.85
483.391	9081.21
483.595	9054.58
483.8	8874.36
484.004	8888.7
484.208	8989.05
484.412	8987
484.616	8999.29
484.821	8984.95
485.025	8767.87
485.229	9124.21
485.433	8874.36
485.637	8941.94
485.841	8761.72
486.045	8917.37
486.249	8964.47
486.453	8950.14
486.657	8946.04
486.861	8915.32
487.065	8829.31
487.269	8776.06
487.473	8862.07
487.677	9005.43
487.881	9017.72
488.085	8929.66
488.289	8974.71
488.493	8806.78
488.697	9011.57
488.901	9101.69
489.105	8923.51
489.309	9134.45
489.512	8853.88
489.716	9030.01
489.92	9175.41
490.124	9027.96
490.328	9138.55
490.531	9070.97
490.735	9156.98
490.939	9326.96
491.143	9064.82
491.346	9279.86
491.55	9402.74
491.754	9369.97
491.958	9437.55
492.161	9410.93
492.365	9410.93
492.569	9417.07
492.772	9542
492.976	9748.84
493.18	9570.67
493.383	9845.1
493.587	9789.8
493.79	9697.64
493.994	9525.61
494.197	9941.35
494.401	9838.95
494.605	10035.56
494.808	10164.58
495.012	10207.59
495.215	10080.61
495.419	10324.32
495.622	10338.66
495.825	10500.45
496.029	10375.52
496.232	10731.87
496.436	10467.68
496.639	10932.57
496.843	10879.32
497.046	11147.61
497.249	11049.3
497.453	11491.66
497.656	11356.5
497.859	11430.23
498.063	11387.22
498.266	11540.82
498.469	11596.11
498.673	11848.01
498.876	11997.51
499.079	12167.49
499.282	12081.48
499.485	12222.79
499.689	12407.11
499.892	12634.43
500.095	12755.26
500.298	12915
500.501	13097.27
500.705	13246.77
500.908	13439.28
501.111	13527.35
501.314	13711.66
501.517	13525.3
501.72	13834.54
501.923	13846.83
502.126	14203.18
502.329	14311.72
502.532	14399.78
502.735	14555.43
502.938	15016.22
503.141	14850.33
503.344	15157.53
503.547	15327.51
503.75	15620.37
503.953	15796.49
504.156	15763.73
504.359	16044.3
504.562	15913.23
504.765	16576.77
504.968	16541.96
505.17	16945.41
505.373	16818.43
505.576	17039.61
505.779	17449.21
505.982	17436.92
506.185	17778.93
506.387	17858.8
506.59	17672.43
506.793	18063.6
506.996	18348.26
507.198	18608.36
507.401	18352.36
507.604	19142.88
507.807	18925.79
508.009	19521.75
508.212	19538.13
508.415	19736.79
508.617	19835.09
508.82	20185.29
509.022	19794.13
509.225	20531.4
509.428	20621.51
509.63	20977.86
509.833	20842.69
510.035	21424.31
510.238	21483.7
510.44	21797.04
510.643	21795
510.845	22180.01
511.048	21936.31
511.25	22364.33
511.453	22491.3
511.655	23134.37
511.858	23244.96
512.06	23400.6
512.262	23734.42
512.465	23765.14
512.667	23959.7
512.87	24367.24
513.072	24309.9
513.274	24805.51
513.477	25104.51
513.679	25577.59
513.881	25772.15
514.084	25610.36
514.286	25686.14
514.488	25882.74
514.69	26613.87
514.893	26607.72
515.095	26679.4
515.297	27043.94
515.499	27353.18
515.701	27576.41
515.904	27826.26
516.106	28139.6
516.308	28268.62
516.51	28790.86
516.712	28731.47
516.914	29012.04
517.116	29429.82
517.318	29528.13
517.52	29935.67
517.722	29986.87
517.925	30165.04
518.127	30638.12
518.329	30918.7
518.531	30662.7
518.733	31508.51
518.935	31911.96
519.136	31584.29
519.338	32301.08
519.54	32350.23
519.742	32784.4
519.944	32886.79
520.146	33495.04
520.348	33548.29
520.55	33910.78
520.752	33654.78
520.954	34535.41
521.155	34142.2
521.357	34846.7
521.559	35135.46
521.761	35700.7
521.963	35579.87
522.164	35676.13
522.366	35919.84
522.568	36145.11
522.77	36376.53
522.971	36732.88
523.173	36511.7
523.375	36909
523.576	37259.21
523.778	37117.9
523.98	38184.89
524.181	37627.84
524.383	37953.47
524.584	38256.57
524.786	38789.04
524.988	38786.99
525.189	39139.24
525.391	39065.52
525.592	39464.87
525.794	39710.63
525.995	39614.37
526.197	39921.57
526.398	40152.99
526.6	40406.94
526.801	40294.3
527.003	40277.91
527.204	40789.91
527.406	41119.63
527.607	40873.87
527.808	41344.91
528.01	40585.11
528.211	41648
528.412	42239.87
528.614	41877.38
528.815	41926.53
529.016	41768.83
529.218	41770.88
529.419	41791.36
529.62	42213.24
529.822	42383.23
530.023	42600.31
530.224	42610.55
530.425	42325.88
530.626	42545.01
530.828	42461.05
531.029	43169.65
531.23	42563.45
531.431	42919.79
531.632	43210.6
531.833	43816.8
532.035	42620.79
532.236	43282.28
532.437	43437.93
532.638	43310.96
532.839	43401.07
533.04	43646.82
533.241	42921.84
533.442	44080.99
533.643	43478.89
533.844	43814.76
534.045	43626.34
534.246	43284.33
534.447	44144.48
534.648	43329.39
534.849	43646.82
535.05	43595.62
535.251	43779.94
535.451	43743.08
535.652	43409.26
535.853	43575.14
536.054	43786.08
536.255	44285.79
536.456	43734.88
536.657	44457.82
536.857	43931.49
537.058	43900.77
537.259	44347.23
537.46	43896.67
537.66	43949.92
537.861	43911.01
538.062	43335.53
538.263	43700.07
538.463	43857.76
538.664	43966.31
538.865	43982.69
539.065	44162.91
539.266	43876.19
539.466	44150.62
539.667	43679.59
539.868	44515.16
540.068	44029.79
540.269	43982.69
540.469	44062.56
540.67	43951.97
540.87	43941.73
541.071	43808.61
541.271	44197.73
541.472	43853.67
541.672	43751.27
541.873	43857.76
542.073	43786.08
542.274	44242.78
542.474	43904.87
542.675	43554.66
542.875	44113.76
543.075	43945.83
543.276	43255.66
543.476	44068.7
543.676	43790.18
543.877	44259.16
544.077	44068.7
544.277	43544.42
544.478	43390.83
544.678	44269.4
544.878	43683.69
545.078	44070.75
545.279	43593.57
545.479	43226.99
545.679	43966.31
545.879	43628.39
546.079	43681.64
546.28	43831.14
546.48	43558.76
546.68	44232.54
546.88	44060.51
547.08	43913.06
547.28	43753.32
547.48	43538.28
547.68	43351.91
547.88	43677.54
548.081	43681.64
548.281	43530.09
548.481	43837.28
548.681	43749.22
548.881	43485.03
549.081	43925.35
549.28	43683.69
549.48	44511.06
549.68	43417.45
549.88	44164.96
550.08	43005.81
550.28	43534.18
550.48	43544.42
550.68	44027.74
550.88	43628.39
551.08	43515.75
551.279	43601.77
551.479	43351.91
551.679	43722.6
551.879	43624.29
552.079	43626.34
552.278	43489.13
552.478	43759.46
552.678	43569
552.878	43339.63
553.077	43476.84
553.277	43151.21
553.477	44001.12
553.676	43136.88
553.876	43175.79
554.076	43474.79
554.275	43235.18
554.475	42708.85
554.674	43466.6
554.874	43259.76
555.074	43042.67
555.273	43200.36
555.473	43296.62
555.672	43022.19
555.872	43093.87
556.071	43368.3
556.271	43544.42
556.47	43249.52
556.67	42528.63
556.869	42813.3
557.068	43175.79
557.268	42442.62
557.467	42936.18
557.667	42811.25
557.866	42712.95
558.065	42536.82
558.265	42311.55
558.464	42082.17
558.663	42844.02
558.863	42198.91
559.062	43155.31
559.261	42174.33
559.461	42475.38
559.66	41885.57
559.859	42282.87
560.058	41863.04
560.258	41832.32
560.457	41648
560.656	42041.21
560.855	41402.25
561.054	42141.56
561.253	41772.93
561.453	41918.34
561.652	41914.24
561.851	42061.69
562.05	41396.1
562.249	41234.31
562.448	42012.54
562.647	41361.29
562.846	41373.58
563.045	41594.76
563.244	40834.96
563.443	41338.76
563.642	40802.19
563.841	40800.15
564.04	40574.87
564.239	41072.53
564.438	40365.98
564.637	40744.85
564.836	40501.14
565.035	40456.09
565.234	40408.98
565.432	40212.38
565.631	40062.88
565.83	40185.75
566.029	40259.48
566.228	39770.02
566.427	39559.08
566.625	39538.6
566.824	39288.74
567.023	39389.09
567.222	39063.47
567.42	39708.58
567.619	39055.28
567.818	39276.46
568.016	39411.62
568.215	39438.25
568.414	38760.37
568.612	39311.27
568.811	38748.08
569.01	38776.75
569.208	39067.56
569.407	38909.87
569.605	38186.94
569.804	38895.53
570.002	38399.93
570.201	38522.8
570.4	38086.59
570.598	37877.69
570.797	38047.68
570.995	38307.77
571.193	37777.34
571.392	38016.96
571.59	37306.31
571.789	37519.3
571.987	37619.65
572.186	37617.6
572.384	36947.92
572.582	37607.36
572.781	37246.92
572.979	36470.74
573.177	37255.11
573.376	37265.35
573.574	36683.73
573.772	37173.19
573.971	36616.15
574.169	35856.35
574.367	36253.65
574.565	36517.84
574.763	36057.05
574.962	36196.31
575.16	35676.13
575.358	36124.63
575.556	35284.97
575.754	35966.94
575.952	35428.32
576.151	35760.09
576.349	35420.13
576.547	35385.32
576.745	35471.33
576.943	35284.97
577.141	35487.71
577.339	35196.9
577.537	34693.1
577.735	34803.69
577.933	34652.14
578.131	34842.6
578.329	34590.7
578.527	34533.36
578.725	34504.69
578.923	34652.14
579.121	34172.92
579.319	34279.41
579.516	34273.27
579.714	34144.25
579.912	33767.42
580.11	33626.11
580.308	33894.39
580.506	33755.13
580.704	33304.58
580.901	33579.01
581.099	33466.37
581.297	33091.59
581.495	32976.9
581.692	33214.47
581.89	32737.29
582.088	33187.85
582.285	32694.29
582.483	32790.54
582.681	32700.43
582.878	32825.36
583.076	32127
583.274	32731.15
583.471	32163.86
583.669	32577.55
583.866	32305.17
584.064	32550.93
584.262	31840.28
584.459	32110.61
584.657	31774.75
584.854	31946.78
585.052	31578.14
585.249	31658.01
585.447	31819.8
585.644	31539.23
585.841	31615.01
586.039	31547.42
586.236	30930.98
586.434	31037.48
586.631	30994.47
586.828	31193.12
587.026	31252.52
587.223	30638.12
587.42	30754.86
587.618	30718
587.815	30476.33
588.012	30466.1
588.21	30396.46
588.407	30578.73
588.604	30132.28
588.801	30105.65
588.999	29984.82
589.196	30085.17
589.393	29579.32
589.59	29851.7
589.787	29567.04
589.984	29829.18
590.182	29440.06
590.379	29524.03
590.576	29300.8
590.773	29302.85
590.97	29055.04
591.167	29458.49
591.364	28889.16
591.561	29263.94
591.758	28641.35
591.955	28715.08
592.152	28762.19
592.349	28536.91
592.546	28522.57
592.743	28944.45
592.94	28242
593.137	28194.9
593.334	28221.52
593.531	27926.61
593.727	27824.22
593.924	28278.86
594.121	27549.79
594.318	27955.29
594.515	27283.55
594.712	27904.09
594.908	27557.98
595.105	27727.96
595.302	26988.64
595.499	27463.77
595.696	27119.71
595.892	27226.21
596.089	27146.34
596.286	27068.51
596.482	26916.97
596.679	26994.79
596.876	27082.85
597.072	26628.2
597.269	26746.98
597.466	26585.19
597.662	26062.96
597.859	26486.89
598.055	26296.43
598.252	26155.12
598.448	26327.15
598.645	26009.72
598.841	25733.24
599.038	25620.6
599.234	25704.57
599.431	25620.6
599.627	25573.5
599.824	25731.19
600.02	25323.65
600.217	25368.7
600.413	25354.37
600.609	24909.96
600.806	24993.92
601.002	25049.22
601.198	24940.68
601.395	24737.93
601.591	24873.09
601.787	24586.38
601.984	24395.92
602.18	25188.48
602.376	24420.49
602.572	24656.01
602.769	24658.06
602.965	24299.66
603.161	24387.72
603.357	24262.8
603.553	23924.88
603.75	24135.82
603.946	23797.91
604.142	24101.01
604.338	23978.13
604.534	23658.65
604.73	23455.9
604.926	23613.59
605.122	23582.87
605.318	23390.36
605.514	23347.36
605.71	23195.81
605.906	23257.25
606.102	23302.3
606.298	23312.54
606.494	23058.59
606.69	22843.56
606.886	22997.15
607.082	22677.67
607.278	22837.41
607.474	22352.04
607.67	22821.03
607.866	22692.01
608.062	22778.02
608.257	22409.39
608.453	22577.32
608.649	22702.25
608.845	22206.64
609.041	22290.6
609.236	22300.84
609.432	22393
609.628	22243.5
609.824	22061.23
610.019	22423.72
610.215	22145.2
610.411	22134.96
610.606	21881.01
610.802	21985.46
610.998	21432.5
611.193	21942.45
611.389	21528.76
611.584	21354.68
611.78	21512.38
611.976	21772.47
612.171	21606.58
612.367	21506.23
612.562	21565.62
612.758	21305.53
612.953	21424.31
613.149	21352.63
613.344	20887.75
613.539	21330.11
613.735	21061.82
613.93	21317.82
614.126	20926.66
614.321	20969.66
614.517	21080.25
614.712	20912.32
614.907	20885.7
615.103	21209.28
615.298	20830.4
615.493	20986.05
615.688	20342.99
615.884	21098.69
616.079	20816.07
616.274	20580.55
616.47	20295.88
616.665	20758.72
616.86	20535.49
617.055	20326.6
617.25	20138.19
617.445	20463.82
617.641	19900.62
617.836	20334.79
618.031	20152.52
618.226	20228.3
618.421	19945.68
618.616	20076.75
618.811	19896.53
619.006	20082.89
619.201	19626.2
619.396	19679.44
619.591	19431.64
619.786	20037.84
619.981	19517.65
620.176	19345.62
620.371	19314.91
620.566	19261.66
620.761	18985.18
620.956	19189.98
621.151	18985.18
621.346	18958.56
621.541	18444.52
621.735	18741.47
621.93	18481.38
622.125	18698.47
622.32	18335.98
622.515	18311.4
622.709	18430.18
622.904	18278.63
623.099	18170.09
623.294	18196.71
623.488	17944.81
623.683	17928.43
623.878	17481.97
624.072	17678.58
624.267	17447.16
624.462	17436.92
624.656	17172.73
624.851	17283.32
625.046	17254.65
625.24	16843.01
625.435	17027.32
625.629	16820.48
625.824	16787.71
626.018	16716.03
626.213	16210.18
626.407	16398.6
626.602	16402.69
626.796	16388.36
626.991	16388.36
627.185	16312.58
627.38	16177.42
627.574	15696.14
627.768	15644.95
627.963	15898.89
628.157	15446.29
628.352	15603.99
628.546	15304.98
628.74	15630.61
628.935	15509.78
629.129	15417.62
629.323	15231.26
629.517	15393.05
629.712	15048.99
629.906	14952.73
630.1	14571.81
630.294	14727.46
630.489	14647.58
630.683	14647.58
630.877	14197.03
631.071	14389.54
631.265	14217.51
631.459	14467.36
631.653	14068.01
631.848	14299.43
632.042	14221.61
632.236	14035.24
632.43	13746.48
632.624	13766.96
632.818	13701.42
633.012	13717.81
633.206	13433.14
633.4	13726
633.594	13484.34
633.788	13492.53
633.982	13553.97
634.176	13203.77
634.369	13056.31
634.563	13093.18
634.757	12966.2
634.951	12994.87
635.145	12910.91
635.339	12693.82
635.533	12667.2
635.726	12665.15
635.92	12499.27
636.114	12484.93
636.308	12484.93
636.501	12525.89
636.695	12656.96
636.889	12163.4
637.083	12144.97
637.276	12339.52
637.47	11981.13
637.664	12173.64
637.857	11936.07
638.051	11944.27
638.244	11882.83
638.438	11682.13
638.632	11602.25
638.825	11526.48
639.019	11471.18
639.212	11471.18
639.406	11725.13
639.599	11493.71
639.793	11188.57
639.986	11135.32
640.18	11114.84
640.373	11422.03
640.567	11215.19
640.76	11133.27
640.954	10762.59
641.147	11024.73
641.34	10727.77
641.534	11008.34
641.727	10703.2
641.92	10742.11
642.114	10500.45
642.307	10494.3
642.5	10484.06
642.694	10260.84
642.887	10494.3
643.08	10434.91
643.273	10240.36
643.467	10203.49
643.66	9961.83
643.853	10301.79
644.046	9816.43
644.239	10082.66
644.432	9961.83
644.626	9896.3
644.819	9601.39
645.012	9826.67
645.205	9685.36
645.398	9578.86
645.591	9558.38
645.784	9527.66
645.977	9388.4
646.17	9542
646.363	9451.89
646.556	9488.75
646.749	9132.4
646.942	9322.87
647.135	9089.4
647.328	9173.36
647.521	8960.38
647.714	9001.33
647.907	9021.81
648.099	9085.3
648.292	8966.52
648.485	8888.7
648.678	8628.6
648.871	8657.28
649.064	8690.04
649.256	8835.45
649.449	8581.5
649.642	8524.16
649.835	8536.45
650.027	8489.34
650.22	8591.74
650.413	8624.51
650.605	8272.26
650.798	8182.15
650.991	8157.57
651.183	8122.76
651.376	8163.72
651.568	8212.87
651.761	8081.8
651.954	8188.29
652.146	7997.83
652.339	8145.28
652.531	7844.23
652.724	7852.42
652.916	7621
653.109	7897.48
653.301	7776.65
653.494	7627.15
653.686	7645.58
653.879	7586.19
654.071	7704.97
654.263	7657.87
654.456	7399.82
654.648	7588.24
654.84	7229.84
655.033	7475.6
655.225	7373.2
655.417	7289.23
655.61	7346.58
655.802	7254.42
655.994	7037.33
656.186	7160.21
656.379	7182.74
656.571	7113.11
656.763	7109.01
656.955	6994.33
657.148	7180.69
657.34	7117.2
657.532	6959.51
657.724	7045.52
657.916	6902.17
658.108	6840.73
658.3	6668.7
658.492	6726.04
658.684	6629.79
658.876	6560.16
659.068	6633.88
659.26	6603.16
659.452	6611.36
659.644	6545.82
659.836	6500.76
660.028	6742.43
660.22	6396.32
660.412	6578.59
660.604	6461.85
660.796	6410.65
660.988	6351.26
661.18	6244.77
661.372	6171.04
661.563	6398.37
661.755	6095.27
661.947	6166.95
662.139	6054.31
662.331	6220.19
662.522	6015.4
662.714	6142.37
662.906	5892.52
663.097	5974.44
663.289	6033.83
663.481	5892.52
663.673	5984.68
663.864	5890.47
664.056	5908.9
664.247	5794.22
664.439	5669.29
664.631	5622.19
664.822	5790.12
665.014	5800.36
665.205	5671.34
665.397	5732.78
665.588	5822.89
665.78	5720.49
665.971	5587.37
666.163	5525.93
666.354	5640.62
666.546	5628.33
666.737	5509.55
666.929	5546.41
667.12	5568.94
667.311	5454.25
667.503	5441.96
667.694	5546.41
667.885	5452.2
668.077	5515.69
668.268	5282.22
668.459	5433.77
668.651	5249.46
668.842	5276.08
669.033	5106.1
669.224	5173.68
669.416	5216.69
669.607	5204.4
669.798	5298.61
669.989	5075.38
670.18	5153.2
670.371	5085.62
670.563	5253.55
670.754	5165.49
670.945	4985.27
671.136	4981.17
671.327	4923.83
671.518	5208.5
671.709	5058.99
671.9	4958.64
672.091	5040.56
672.282	4901.3
672.473	4872.63
672.664	4942.26
672.855	4921.78
673.046	4872.63
673.237	4960.69
673.428	4868.53
673.619	5015.99
673.809	4653.5
674	4784.57
674.191	4897.21
674.382	4790.71
674.573	4710.84
674.764	4786.61
674.954	4739.51
675.145	4694.46
675.336	4735.42
675.527	4721.08
675.717	4682.17
675.908	4606.39
676.099	4827.57
676.289	4794.81
676.48	4667.83
676.671	4651.45
676.861	4694.46
677.052	4651.45
677.243	4762.04
677.433	4692.41
677.624	4626.87
677.814	4536.76
678.005	4549.05
678.195	4598.2
678.386	4522.43
678.576	4563.39
678.767	4610.49
678.957	4590.01
679.148	4442.56
679.338	4538.81
679.529	4682.17
679.719	4436.41
679.909	4587.96
680.1	4448.7
680.29	4733.37
680.481	4532.67
680.671	4354.49
680.861	4696.5
681.052	4465.08
681.242	4397.5
681.432	4536.76
681.622	4348.35
681.813	4495.8
682.003	4442.56
682.193	4471.23
682.383	4442.56
682.573	4491.71
682.764	4377.02
682.954	4389.31
683.144	4368.83
683.334	4460.99
683.524	4424.12
683.714	4387.26
683.904	4360.64
684.094	4274.62
684.284	4438.46
684.474	4487.61
684.664	4313.53
684.854	4360.64
685.044	4272.57
685.234	4268.48
685.424	4180.42
685.614	4293.05
685.804	4393.4
685.994	4245.95
686.184	4344.25
686.374	4184.51
686.564	4235.71
686.753	4135.36
686.943	4239.81
687.133	4213.18
687.323	4127.17
687.513	4137.41
687.702	4108.74
687.892	4080.07
688.082	4145.6
688.272	4147.65
688.461	4118.98
688.651	4121.03
688.841	3981.76
689.03	3977.67
689.22	3949
689.41	4057.54
689.599	3916.23
689.789	3938.76
689.979	3942.85
690.168	3905.99
690.358	3881.41
690.547	3817.93
690.737	3819.97
690.926	4010.43
691.116	3750.34
691.305	4020.67
691.495	3783.11
691.684	3785.16
691.874	3850.69
692.063	3695.05
692.252	3817.93
692.442	3772.87
692.631	3719.62
692.82	3664.33
693.01	3594.7
693.199	3817.93
693.388	3666.38
693.578	3613.13
693.767	3717.58
693.956	3664.33
694.146	3492.3
694.335	3625.42
694.524	3541.45
694.713	3602.89
694.902	3510.73
695.092	3598.79
695.281	3490.25
695.47	3543.5
695.659	3570.12
695.848	3555.79
696.037	3412.43
696.226	3611.08
696.415	3506.63
696.604	3480.01
696.793	3430.86
696.982	3494.35
697.171	3469.77
697.36	3551.69
697.549	3477.96
697.738	3434.96
697.927	3523.02
698.116	3482.06
698.305	3420.62
698.494	3490.25
698.683	3377.61
698.872	3443.15
699.061	3506.63
699.25	3398.09
699.438	3336.65
699.627	3310.03
699.816	3336.65
700.005	3230.16
700.193	3400.14
700.382	3361.23
700.571	3353.04
700.76	3408.33
700.948	3563.98
701.137	3422.67
701.326	3432.91
701.514	3340.75
701.703	3344.84
701.892	3416.52
702.08	3394
702.269	3484.11
702.457	3273.17
702.646	3322.32
702.834	3332.56
703.023	3350.99
703.212	3443.15
703.4	3285.45
703.589	3389.9
703.777	3318.22
703.965	3336.65
704.154	3357.13
704.342	3326.41
704.531	3346.89
704.719	3367.37
704.907	3365.32
705.096	3367.37
705.284	3385.8
705.472	3271.12
705.661	3316.17
705.849	3240.4
706.037	3340.75
706.226	3336.65
706.414	3342.8
706.602	3252.69
706.79	3324.37
706.979	3404.24
707.167	3437
707.355	3211.73
707.543	3398.09
707.731	3369.42
707.919	3357.13
708.107	3219.92
708.296	3312.08
708.484	3228.11
708.672	3254.73
708.86	3267.02
709.048	3240.4
709.236	3336.65
709.424	3412.43
709.612	3307.98
709.8	3228.11
709.988	3254.73
710.176	3396.04
710.364	3301.84
710.551	3439.05
710.739	3312.08
710.927	3338.7
711.115	3320.27
711.303	3303.89
711.491	3398.09
711.679	3256.78
711.866	3346.89
712.054	3365.32
712.242	3273.17
712.43	3287.5
712.617	3273.17
712.805	3334.61
712.993	3246.54
713.181	3332.56
713.368	3273.17
713.556	3398.09
713.744	3467.72
713.931	3432.91
714.119	3391.95
714.306	3459.53
714.494	3283.41
714.682	3408.33
714.869	3230.16
715.057	3441.1
715.244	3430.86
715.432	3453.39
715.619	3344.84
715.807	3408.33
715.994	3340.75
716.182	3377.61
716.369	3324.37
716.556	3379.66
716.744	3312.08
716.931	3303.89
717.119	3529.16
717.306	3359.18
717.493	3250.64
717.681	3432.91
717.868	3336.65
718.055	3400.14
718.242	3441.1
718.43	3305.93
718.617	3312.08
718.804	3381.71
718.991	3307.98
719.179	3385.8
719.366	3355.08
719.553	3299.79
719.74	3269.07
719.927	3287.5
720.114	3402.19
720.301	3324.37
720.488	3350.99
720.676	3275.21
720.863	3326.41
721.05	3299.79
721.237	3336.65
721.424	3434.96
721.611	3437
721.798	3303.89
721.985	3285.45
722.172	3367.37
722.358	3277.26
722.545	3207.63
722.732	3250.64
722.919	3348.94
723.106	3373.52
723.293	3299.79
723.48	3389.9
723.667	3107.28
723.853	3394
724.04	3379.66
724.227	3312.08
724.414	3205.58
724.6	3340.75
724.787	3348.94
724.974	3254.73
725.161	3176.91
725.347	3172.82
725.534	3283.41
725.72	3398.09
725.907	3299.79
726.094	3275.21
726.28	3394
726.467	3187.15
726.653	3174.86
726.84	3324.37
727.027	3248.59
727.213	3119.57
727.4	3281.36
727.586	3226.06
727.773	3240.4
727.959	3207.63
728.145	3258.83
728.332	3187.15
728.518	3207.63
728.705	3305.93
728.891	3275.21
729.077	3228.11
729.264	3162.58
729.45	3162.58
729.636	3271.12
729.823	3213.77
730.009	3189.2
730.195	3183.06
730.382	3193.3
730.568	3131.86
730.754	3131.86
730.94	3348.94
731.126	3303.89
731.313	3181.01
731.499	3189.2
731.685	3138
731.871	3230.16
732.057	3250.64
732.243	3254.73
732.429	3158.48
732.615	3269.07
732.801	3181.01
732.987	3103.18
733.173	3156.43
733.359	3107.28
733.545	3103.18
733.731	3164.62
733.917	3123.66
734.103	3148.24
734.289	3084.75
734.475	3160.53
734.661	3246.54
734.847	3172.82
735.033	3152.34
735.219	3070.42
735.404	3045.84
735.59	3140.05
735.776	3168.72
735.962	3088.85
736.148	3097.04
736.333	3035.6
736.519	3064.27
736.705	3189.2
736.89	3160.53
737.076	3029.46
737.262	3103.18
737.447	3164.62
737.633	2980.31
737.819	3015.12
738.004	2916.82
738.19	2988.5
738.375	3138
738.561	3000.79
738.747	2947.54
738.932	2900.44
739.118	3039.7
739.303	3015.12
739.489	2996.69
739.674	2939.35
739.859	3092.94
740.045	2849.24
740.23	2853.33
740.416	2834.9
740.601	2888.15
740.786	2867.67
740.972	2916.82
741.157	2736.6
741.342	2884.05
741.528	2820.56
741.713	2867.67
741.898	2959.83
742.084	2800.09
742.269	2789.85
742.454	2810.33
742.639	2845.14
742.824	2720.21
743.01	2845.14
743.195	2806.23
743.38	2681.3
743.565	2757.08
743.75	2730.45
743.935	2634.2
744.12	2738.65
744.305	2654.68
744.49	2656.73
744.675	2740.69
744.86	2615.77
745.045	2689.49
745.23	2554.33
745.415	2654.68
745.6	2583
745.785	2679.26
745.97	2583
746.155	2599.38
746.34	2527.71
746.525	2611.67
746.71	2537.95
746.895	2408.92
747.079	2410.97
747.264	2451.93
747.449	2466.27
747.634	2335.2
747.819	2410.97
748.003	2365.92
748.188	2394.59
748.373	2437.59
748.557	2304.48
748.742	2400.73
748.927	2339.29
749.111	2281.95
749.296	2322.91
749.481	2212.32
749.665	2279.9
749.85	2136.54
750.034	2245.09
750.219	2171.36
750.404	2136.54
750.588	2130.4
750.773	2142.69
750.957	2255.33
751.141	2118.11
751.326	2230.75
751.51	2036.19
751.695	1999.33
751.879	2028
752.064	2093.54
752.248	2064.86
752.432	1911.27
752.617	1991.14
752.801	2007.52
752.985	1882.6
753.17	2017.76
753.354	1974.75
753.538	1980.9
753.722	1819.11
753.907	1806.82
754.091	1901.03
754.275	1907.17
754.459	1925.6
754.643	1876.45
754.828	1898.98
755.012	1882.6
755.196	1810.92
755.38	1753.57
755.564	1782.24
755.748	1763.81
755.932	1780.2
756.116	1677.8
756.3	1710.57
756.484	1763.81
756.668	1798.63
756.852	1708.52
757.036	1681.89
757.22	1712.61
757.404	1702.37
757.588	1608.17
757.772	1626.6
757.956	1546.73
758.14	1669.61
758.323	1548.78
758.507	1657.32
758.691	1593.83
758.875	1559.02
759.059	1573.35
759.242	1581.54
759.426	1565.16
759.61	1583.59
759.794	1522.15
759.977	1550.82
760.161	1583.59
760.345	1477.1
760.528	1591.78
760.712	1384.94
760.895	1559.02
761.079	1489.39
761.263	1493.48
761.446	1436.14
761.63	1393.13
761.813	1386.99
761.997	1352.17
762.18	1374.7
762.364	1440.23
762.547	1323.5
762.731	1358.32
762.914	1403.37
763.098	1382.89
763.281	1323.5
763.464	1311.21
763.648	1415.66
763.831	1305.07
764.015	1352.17
764.198	1284.59
764.381	1370.6
764.564	1368.56
764.748	1280.49
764.931	1253.87
765.114	1266.16
765.297	1296.88
765.481	1128.94
765.664	1253.87
765.847	1325.55
766.03	1280.49
766.213	1272.3
766.397	1239.53
766.58	1221.1
766.763	1231.34
766.946	1225.2
767.129	1280.49
767.312	1284.59
767.495	1231.34
767.678	1186.29
767.861	1194.48
768.044	1210.86
768.227	1231.34
768.41	1186.29
768.593	1204.72
768.776	1167.85
768.959	1167.85
769.142	1221.1
769.324	1221.1
769.507	1122.8
769.69	1169.9
769.873	1204.72
770.056	1178.09
770.239	1110.51
770.421	1030.64
770.604	1182.19
770.787	1102.32
770.97	1130.99
771.152	1038.83
771.335	1165.81
771.518	1081.84
771.7	1053.17
771.883	1022.45
772.066	1024.5
772.248	1116.65
772.431	1085.94
772.613	1124.85
772.796	961.01
772.978	1059.31
773.161	952.82
773.343	1047.02
773.526	1032.69
773.708	944.63
773.891	920.05
774.073	1010.16
774.256	961.01
774.438	1018.35
774.621	1042.93
774.803	934.39
774.985	883.19
775.168	850.42
775.35	856.56
775.532	885.23
775.715	920.05
775.897	948.72
776.079	899.57
776.261	877.04
776.444	862.71
776.626	907.76
776.808	786.93
776.99	821.75
777.173	805.36
777.355	868.85
777.537	920.05
777.719	829.94
777.901	844.28
778.083	737.78
778.265	817.65
778.447	807.41
778.629	735.73
778.811	850.42
778.993	764.4
779.175	793.08
779.357	817.65
779.539	727.54
779.721	821.75
779.903	702.97
780.085	731.64
780.267	748.02
780.449	803.32
780.631	725.49
780.812	717.3
780.994	666.1
781.176	780.79
781.358	752.12
781.54	733.68
781.721	752.12
781.903	725.49
782.085	750.07
782.267	733.68
782.448	670.2
782.63	639.48
782.812	655.86
782.993	657.91
783.175	696.82
783.357	682.49
783.538	666.1
783.72	631.29
783.901	614.9
784.083	627.19
784.264	707.06
784.446	489.98
784.627	535.03
784.809	657.91
784.99	584.18
785.172	649.72
785.353	639.48
785.535	639.48
785.716	528.89
785.897	543.22
786.079	498.17
786.26	567.8
786.441	592.37
786.623	518.65
786.804	508.41
786.985	535.03
787.167	578.04
787.348	555.51
787.529	563.7
787.71	571.9
787.891	592.37
788.073	530.94
788.254	473.59
788.435	543.22
788.616	446.97
788.797	434.68
788.978	524.79
789.159	465.4
789.34	565.75
789.522	506.36
789.703	430.59
789.884	489.98
790.065	520.7
790.246	483.83
790.427	469.5
790.607	555.51
790.788	420.35
790.969	469.5
791.15	475.64
791.331	420.35
791.512	520.7
791.693	371.19
791.874	416.25
792.054	475.64
792.235	479.74
792.416	446.97
792.597	461.3
792.778	461.3
792.958	397.82
793.139	389.63
793.32	387.58
793.5	346.62
793.681	489.98
793.862	381.43
794.042	412.15
794.223	350.71
794.404	322.04
794.584	385.53
794.765	315.9
794.945	432.63
795.126	418.3
795.306	412.15
795.487	399.87
795.667	385.53
795.848	309.76
796.028	365.05
796.209	440.83
796.389	315.9
796.57	379.39
796.75	299.52
796.93	354.81
797.111	330.23
797.291	295.42
797.471	313.85
797.652	287.23
797.832	383.48
798.012	346.62
798.192	254.46
798.373	385.53
798.553	240.12
798.733	369.15
798.913	281.08
799.093	395.77
799.274	313.85
799.454	344.57
799.634	285.18
799.814	322.04
799.994	299.52
800.174	313.85
800.354	354.81
800.534	272.89
800.714	270.84
800.894	254.46
801.074	307.71
801.254	242.17
801.434	334.33
801.614	303.61
801.794	281.08
801.974	723.44
802.154	276.99
802.334	299.52
802.514	287.23
802.693	305.66
802.873	332.28
803.053	295.42
803.233	393.72
803.413	297.47
803.592	276.99
803.772	289.28
803.952	276.99
804.131	268.8
804.311	268.8
804.491	330.23
804.67	238.08
804.85	256.51
805.03	262.65
805.209	354.81
805.389	213.5
805.568	246.27
805.748	285.18
805.928	229.88
806.107	266.75
806.287	250.36
806.466	320
806.646	221.69
806.825	221.69
807.004	209.4
807.184	303.61
807.363	279.04
807.543	276.99
807.722	205.31
807.901	215.55
808.081	305.66
808.26	231.93
808.439	297.47
808.619	268.8
808.798	252.41
808.977	266.75
809.156	236.03
809.336	295.42
809.515	238.08
809.694	125.44
809.873	262.65
810.052	190.97
810.231	231.93
810.411	166.4
810.59	137.73
810.769	231.93
810.948	193.02
811.127	141.82
811.306	178.69
811.485	201.21
811.664	215.55
811.843	111.1
812.022	211.45
812.201	244.22
812.38	213.5
812.559	223.74
812.737	223.74
812.916	182.78
813.095	156.16
813.274	111.1
813.453	186.88
813.632	176.64
813.811	219.64
813.989	143.87
814.168	225.79
814.347	199.16
814.526	150.01
814.704	166.4
814.883	246.27
815.062	162.3
815.24	209.4
815.419	201.21
815.598	199.16
815.776	184.83
815.955	215.55
816.133	215.55
816.312	268.8
816.49	199.16
816.669	231.93
816.847	143.87
817.026	133.63
817.204	207.36
817.383	219.64
817.561	199.16
817.74	139.77
817.918	139.77
818.097	131.58
818.275	107.01
818.453	174.59
818.632	150.01
818.81	203.26
818.988	168.45
819.167	121.34
819.345	92.67
819.523	147.97
819.701	125.44
819.879	172.54
820.058	100.86
820.236	195.07
820.414	174.59
820.592	252.41
820.77	207.36
820.948	205.31
821.127	111.1
821.305	186.88
821.483	53.76
821.661	188.93
821.839	104.96
822.017	139.77
822.195	215.55
822.373	201.21
822.551	133.63
822.729	195.07
822.907	154.11
823.085	104.96
823.262	82.43
823.44	98.81
823.618	145.92
823.796	180.73
823.974	102.91
824.152	150.01
824.329	80.38
824.507	190.97
824.685	137.73
824.863	190.97
825.04	109.05
825.218	39.42
825.396	207.36
825.574	123.39
825.751	82.43
825.929	107.01
826.107	133.63
826.284	80.38
826.462	61.95
826.639	152.06
826.817	74.24
826.994	98.81
827.172	61.95
827.349	135.68
827.527	129.53
827.704	150.01
827.882	72.19
828.059	158.21
828.237	127.49
828.414	150.01
828.591	129.53
828.769	66.05
828.946	156.16
829.124	92.67
829.301	162.3
829.478	111.1
829.655	221.69
829.833	76.29
830.01	100.86
830.187	119.29
830.364	147.97
830.542	121.34
830.719	147.97
830.896	115.2
831.073	127.49
831.25	113.15
831.427	43.52
831.604	41.47
831.782	150.01
831.959	51.71
832.136	88.57
832.313	147.97
832.49	92.67
832.667	82.43
832.844	74.24
833.021	98.81
833.198	84.48
833.374	102.91
833.551	88.57
833.728	104.96
833.905	98.81
834.082	68.09
834.259	39.42
834.436	141.82
834.612	57.86
834.789	49.66
834.966	84.48
835.143	78.33
835.319	113.15
835.496	78.33
835.673	123.39
835.85	129.53
836.026	160.25
836.203	84.48
836.38	92.67
836.556	107.01
836.733	68.09
836.909	84.48
837.086	23.04
837.262	115.2
837.439	47.62
837.616	90.62
837.792	84.48
837.968	68.09
838.145	64
838.321	47.62
838.498	141.82
838.674	141.82
838.851	111.1
839.027	123.39
839.203	94.72
839.38	72.19
839.556	80.38
839.732	147.97
839.909	76.29
840.085	145.92
840.261	33.28
840.437	61.95
840.614	35.33
840.79	49.66
840.966	115.2
841.142	16.9
841.318	66.05
841.494	109.05
841.671	100.86
841.847	25.09
842.023	12.8
842.199	59.9
842.375	49.66
842.551	-3.58
842.727	125.44
842.903	115.2
843.079	55.81
843.255	121.34
843.431	121.34
843.607	35.33
843.783	39.42
843.959	109.05
844.134	68.09
844.31	53.76
844.486	57.86
844.662	72.19
844.838	86.53
845.013	121.34
845.189	111.1
845.365	68.09
845.541	25.09
845.716	55.81
845.892	90.62
846.068	74.24
846.244	111.1
846.419	90.62
846.595	4.61
846.77	72.19
846.946	117.25
847.122	6.66
847.297	16.9
847.473	74.24
847.648	8.7
847.824	92.67
847.999	18.94
848.175	35.33
848.35	23.04
848.526	64
848.701	47.62
848.876	107.01
849.052	31.23
849.227	145.92
849.403	-11.78
849.578	41.47
849.753	-32.26
849.929	76.29
850.104	31.23
850.279	170.49
850.454	-7.68
850.63	59.9
850.805	51.71
850.98	8.7
851.155	47.62
851.33	-22.02
851.505	49.66
851.681	29.18
851.856	72.19
852.031	78.33
852.206	49.66
852.381	2.56
852.556	41.47
852.731	33.28
852.906	49.66
853.081	33.28
853.256	72.19
853.431	59.9
853.606	2.56
853.781	117.25
853.956	31.23
854.131	115.2
854.305	-9.73
854.48	39.42
854.655	55.81
854.83	55.81
855.005	39.42
855.18	18.94
855.354	47.62
855.529	59.9
855.704	37.38
855.879	135.68
856.053	-9.73
856.228	23.04
856.403	-34.3
856.577	18.94
856.752	4.61
856.926	43.52
857.101	49.66
857.276	41.47
857.45	25.09
857.625	39.42
857.799	72.19
857.974	33.28
858.148	64
858.323	64
858.497	76.29
858.672	51.71
858.846	33.28
859.02	51.71
859.195	78.33
859.369	33.28
859.543	-26.11
859.718	-15.87
859.892	-7.68
860.066	-9.73
860.241	43.52
860.415	59.9
860.589	37.38
860.763	47.62
860.938	-7.68
861.112	147.97
861.286	37.38
861.46	72.19
861.634	-34.3
861.808	25.09
861.982	35.33
862.157	12.8
862.331	47.62
862.505	35.33
862.679	31.23
862.853	-22.02
863.027	51.71
863.201	74.24
863.375	-5.63
863.549	61.95
863.722	8.7
863.896	39.42
864.07	55.81
864.244	4.61
864.418	6.66
864.592	90.62
864.766	8.7
864.939	74.24
865.113	-22.02
865.287	35.33
865.461	2.56
865.634	14.85
865.808	76.29
865.982	-1.54
866.156	51.71
866.329	8.7
866.503	0.51
866.676	-15.87
866.85	80.38
867.024	74.24
867.197	64
867.371	12.8
867.544	4.61
867.718	-1.54
867.891	-11.78
868.065	-7.68
868.238	14.85
868.412	76.29
868.585	47.62
868.759	-17.92
868.932	98.81
869.105	-30.21
869.279	16.9
869.452	-11.78
869.625	27.14
869.799	-26.11
869.972	-34.3
870.145	12.8
870.319	57.86
870.492	61.95
870.665	16.9
870.838	16.9
871.011	-30.21
871.185	33.28
871.358	-30.21
871.531	-50.69
871.704	-54.78
871.877	18.94
872.05	-5.63
872.223	-1.54
872.396	-5.63
872.569	-46.59
872.742	-60.93
872.915	78.33
873.088	-26.11
873.261	59.9
873.434	-7.68
873.607	-67.07
873.78	43.52
873.953	-5.63
874.126	70.14
874.299	12.8
874.471	-3.58
874.644	6.66
874.817	-5.63
874.99	90.62
875.163	53.76
875.335	23.04
875.508	18.94
875.681	-3.58
875.853	-22.02
876.026	-46.59
876.199	12.8
876.371	49.66
876.544	20.99
876.717	57.86
876.889	-3.58
877.062	61.95
877.234	-38.4
877.407	-11.78
877.579	76.29
877.752	23.04
877.924	119.29
878.097	66.05
878.269	31.23
878.442	-9.73
878.614	57.86
878.786	27.14
878.959	35.33
879.131	74.24
879.303	41.47
879.476	-1.54
879.648	59.9
879.82	-17.92
879.993	-24.06
880.165	-42.5
880.337	-32.26
880.509	-3.58
880.681	20.99
880.854	-28.16
881.026	43.52
881.198	47.62
881.37	-32.26
881.542	31.23
881.714	8.7
881.886	2.56
882.058	-13.82
882.23	-26.11
882.402	6.66
882.574	-26.11
882.746	-3.58
882.918	47.62
883.09	41.47
883.262	-56.83
883.434	-7.68
883.606	4.61
883.778	-22.02
883.95	86.53
884.122	-32.26
884.293	29.18
884.465	-40.45
884.637	18.94
884.809	-22.02
884.98	-48.64
885.152	-36.35
885.324	2.56
885.496	12.8
885.667	80.38
885.839	8.7
886.011	84.48
886.182	-11.78
886.354	47.62
886.525	49.66
886.697	37.38
886.869	0.51
887.04	-34.3
887.212	49.66
887.383	84.48
887.555	-28.16
887.726	45.57
887.897	-9.73
888.069	-9.73
888.24	47.62
888.412	-1.54
888.583	-24.06
888.754	80.38
888.926	6.66
889.097	-34.3
889.268	4.61
889.44	57.86
889.611	35.33
889.782	-65.02
889.953	-17.92
890.125	2.56
890.296	-30.21
890.467	4.61
890.638	-30.21
890.809	59.9
890.98	2.56
891.151	-13.82
891.323	-13.82
891.494	23.04
891.665	-15.87
891.836	2.56
892.007	47.62
892.178	23.04
892.349	66.05
892.52	-7.68
892.691	37.38
892.862	-9.73
893.032	-46.59
893.203	-28.16
893.374	74.24
893.545	47.62
893.716	-62.98
893.887	23.04
894.057	-24.06
894.228	-5.63
894.399	27.14
894.57	25.09
894.74	-11.78
894.911	35.33
895.082	-54.78
895.253	-1.54
895.423	-17.92
895.594	53.76
895.764	8.7
895.935	-22.02
896.106	6.66
896.276	16.9
896.447	10.75
896.617	10.75
896.788	59.9
896.958	0.51
897.129	43.52
897.299	53.76
897.47	66.05
897.64	2.56
897.81	-89.6
897.981	33.28
898.151	-34.3
898.322	92.67
898.492	-3.58
898.662	-30.21
898.832	4.61
899.003	66.05
899.173	-34.3
899.343	-11.78
899.513	-9.73
