Data from USB4F104151__16__10-21-14-850.txt Node

Date: Wed Mar 12 10:21:14 EDT 2025
User: louis
Spectrometer: USB4F10415
Trigger mode: 4
Integration Time (sec): 3.000000E-2
Scans to average: 1
Electric dark correction enabled: true
Nonlinearity correction enabled: false
Boxcar width: 0
XAxis mode: Wavelengths
Number of Pixels in Spectrum: 3648
>>>>>Begin Spectral Data<<<<<
178.204	-139.6
178.424	-139.6
178.644	-139.6
178.864	-39.25
179.084	-145.75
179.304	5.8
179.524	83.63
179.744	18.09
179.964	-2.39
180.184	13.99
180.404	34.47
180.624	-47.44
180.844	36.52
181.064	-41.3
181.283	-47.44
181.503	-10.58
181.723	-43.35
181.943	-10.58
182.163	-61.78
182.383	-51.54
182.602	-20.82
182.822	50.86
183.042	71.34
183.262	-14.68
183.482	7.85
183.701	18.09
183.921	24.23
184.141	-55.64
184.361	30.38
184.58	-0.34
184.8	5.8
185.02	-47.44
185.239	91.82
185.459	-22.87
185.679	71.34
185.898	5.8
186.118	-2.39
186.338	-24.92
186.557	20.14
186.777	-20.82
186.997	59.05
187.216	-20.82
187.436	54.95
187.655	16.04
187.875	-41.3
188.095	16.04
188.314	18.09
188.534	57
188.753	-26.96
188.973	16.04
189.192	9.9
189.412	-22.87
189.631	71.34
189.851	-26.96
190.07	75.43
190.29	24.23
190.509	-26.96
190.729	-20.82
190.948	30.38
191.168	77.48
191.387	-14.68
191.607	3.75
191.826	38.57
192.045	-2.39
192.265	18.09
192.484	-6.49
192.704	30.38
192.923	-24.92
193.142	28.33
193.362	-8.53
193.581	81.58
193.8	85.67
194.02	75.43
194.239	-24.92
194.458	24.23
194.678	40.62
194.897	44.71
195.116	28.33
195.335	75.43
195.555	18.09
195.774	61.1
195.993	54.95
196.212	-53.59
196.432	63.15
196.651	-8.53
196.87	34.47
197.089	134.82
197.308	50.86
197.528	46.76
197.747	13.99
197.966	16.04
198.185	54.95
198.404	18.09
198.623	-80.21
198.842	40.62
199.062	48.81
199.281	61.1
199.5	73.39
199.719	36.52
199.938	-29.01
200.157	48.81
200.376	3.75
200.595	-20.82
200.814	-2.39
201.033	-43.35
201.252	-22.87
201.471	61.1
201.69	28.33
201.909	-45.4
202.128	-20.82
202.347	128.68
202.566	18.09
202.785	20.14
203.004	-43.35
203.223	-2.39
203.442	57
203.661	13.99
203.879	28.33
204.098	36.52
204.317	5.8
204.536	5.8
204.755	9.9
204.974	-31.06
205.193	-0.34
205.411	-14.68
205.63	1.71
205.849	-8.53
206.068	67.24
206.287	18.09
206.505	-49.49
206.724	26.28
206.943	18.09
207.162	-74.07
207.381	30.38
207.599	-10.58
207.818	69.29
208.037	50.86
208.255	38.57
208.474	34.47
208.693	-31.06
208.911	-20.82
209.13	-12.63
209.349	-10.58
209.567	1.71
209.786	-41.3
210.005	-39.25
210.223	5.8
210.442	16.04
210.661	9.9
210.879	16.04
211.098	34.47
211.316	-10.58
211.535	16.04
211.753	-6.49
211.972	36.52
212.191	1.71
212.409	24.23
212.628	48.81
212.846	-10.58
213.065	28.33
213.283	46.76
213.502	36.52
213.72	87.72
213.938	22.19
214.157	22.19
214.375	9.9
214.594	-59.73
214.812	65.19
215.031	-39.25
215.249	-26.96
215.467	18.09
215.686	26.28
215.904	-2.39
216.122	16.04
216.341	54.95
216.559	26.28
216.778	-12.63
216.996	59.05
217.214	85.67
217.432	73.39
217.651	22.19
217.869	-6.49
218.087	73.39
218.306	40.62
218.524	32.43
218.742	5.8
218.96	-16.73
219.179	-26.96
219.397	26.28
219.615	38.57
219.833	-39.25
220.051	52.91
220.27	38.57
220.488	1.71
220.706	24.23
220.924	-18.77
221.142	-4.44
221.36	-14.68
221.578	24.23
221.796	-4.44
222.015	22.19
222.233	9.9
222.451	48.81
222.669	-49.49
222.887	59.05
223.105	-24.92
223.323	-29.01
223.541	1.71
223.759	100.01
223.977	-51.54
224.195	57
224.413	5.8
224.631	77.48
224.849	34.47
225.067	108.2
225.285	9.9
225.503	75.43
225.721	-59.73
225.939	75.43
226.157	-22.87
226.375	59.05
226.592	-49.49
226.81	-45.4
227.028	13.99
227.246	11.95
227.464	18.09
227.682	13.99
227.9	-26.96
228.117	108.2
228.335	57
228.553	30.38
228.771	32.43
228.989	5.8
229.206	18.09
229.424	71.34
229.642	59.05
229.86	18.09
230.077	63.15
230.295	7.85
230.513	71.34
230.731	85.67
230.948	38.57
231.166	73.39
231.384	20.14
231.601	65.19
231.819	44.71
232.037	48.81
232.254	-14.68
232.472	1.71
232.689	-47.44
232.907	83.63
233.125	54.95
233.342	46.76
233.56	18.09
233.777	-2.39
233.995	42.67
234.213	52.91
234.43	13.99
234.648	5.8
234.865	-2.39
235.083	65.19
235.3	-49.49
235.518	36.52
235.735	36.52
235.953	28.33
236.17	-20.82
236.388	22.19
236.605	-12.63
236.822	-14.68
237.04	100.01
237.257	-10.58
237.475	22.19
237.692	-74.07
237.909	75.43
238.127	-72.02
238.344	57
238.562	38.57
238.779	-22.87
238.996	-16.73
239.214	-8.53
239.431	83.63
239.648	5.8
239.865	-2.39
240.083	28.33
240.3	-47.44
240.517	-12.63
240.735	42.67
240.952	57
241.169	81.58
241.386	89.77
241.603	73.39
241.821	-45.4
242.038	-12.63
242.255	50.86
242.472	5.8
242.689	26.28
242.907	28.33
243.124	34.47
243.341	71.34
243.558	-16.73
243.775	38.57
243.992	-90.45
244.209	-4.44
244.426	71.34
244.643	89.77
244.86	-20.82
245.078	26.28
245.295	9.9
245.512	44.71
245.729	-45.4
245.946	120.49
246.163	-10.58
246.38	5.8
246.597	7.85
246.814	83.63
247.031	34.47
247.248	79.53
247.464	54.95
247.681	9.9
247.898	-37.2
248.115	18.09
248.332	44.71
248.549	22.19
248.766	114.34
248.983	9.9
249.2	32.43
249.417	63.15
249.633	40.62
249.85	97.96
250.067	1.71
250.284	-33.11
250.501	71.34
250.717	50.86
250.934	30.38
251.151	-33.11
251.368	-10.58
251.585	16.04
251.801	79.53
252.018	-43.35
252.235	-35.16
252.451	-31.06
252.668	34.47
252.885	71.34
253.102	87.72
253.318	69.29
253.535	67.24
253.752	44.71
253.968	13.99
254.185	42.67
254.401	5.8
254.618	100.01
254.835	30.38
255.051	3.75
255.268	38.57
255.484	11.95
255.701	-10.58
255.917	91.82
256.134	30.38
256.351	32.43
256.567	-10.58
256.784	34.47
257	22.19
257.217	-22.87
257.433	16.04
257.65	93.87
257.866	83.63
258.082	24.23
258.299	28.33
258.515	18.09
258.732	36.52
258.948	9.9
259.165	-20.82
259.381	61.1
259.597	54.95
259.814	-63.83
260.03	-31.06
260.246	-14.68
260.463	30.38
260.679	32.43
260.895	50.86
261.112	42.67
261.328	-31.06
261.544	-43.35
261.761	57
261.977	67.24
262.193	5.8
262.409	-0.34
262.626	-10.58
262.842	-63.83
263.058	-33.11
263.274	83.63
263.49	132.78
263.707	44.71
263.923	42.67
264.139	-59.73
264.355	13.99
264.571	7.85
264.787	22.19
265.004	57
265.22	-0.34
265.436	-14.68
265.652	9.9
265.868	132.78
266.084	22.19
266.3	-39.25
266.516	-14.68
266.732	3.75
266.948	1.71
267.164	-51.54
267.38	28.33
267.596	-24.92
267.812	34.47
268.028	26.28
268.244	9.9
268.46	87.72
268.676	-16.73
268.892	3.75
269.108	5.8
269.324	-22.87
269.54	-45.4
269.756	61.1
269.972	-39.25
270.188	65.19
270.403	-37.2
270.619	122.54
270.835	46.76
271.051	-39.25
271.267	-24.92
271.483	-10.58
271.698	40.62
271.914	85.67
272.13	-55.64
272.346	26.28
272.562	42.67
272.777	11.95
272.993	1.71
273.209	65.19
273.425	11.95
273.64	-26.96
273.856	57
274.072	-4.44
274.287	-41.3
274.503	63.15
274.719	42.67
274.934	13.99
275.15	67.24
275.366	16.04
275.581	16.04
275.797	116.39
276.012	73.39
276.228	22.19
276.444	32.43
276.659	-29.01
276.875	57
277.09	24.23
277.306	-18.77
277.521	73.39
277.737	75.43
277.952	9.9
278.168	54.95
278.383	-31.06
278.599	-2.39
278.814	44.71
279.03	-10.58
279.245	-33.11
279.461	54.95
279.676	30.38
279.892	-43.35
280.107	-26.96
280.322	-0.34
280.538	5.8
280.753	-72.02
280.969	67.24
281.184	7.85
281.399	126.63
281.615	7.85
281.83	30.38
282.045	-41.3
282.26	-8.53
282.476	5.8
282.691	11.95
282.906	-33.11
283.122	63.15
283.337	5.8
283.552	44.71
283.767	-8.53
283.983	26.28
284.198	38.57
284.413	-14.68
284.628	57
284.843	18.09
285.058	85.67
285.274	71.34
285.489	24.23
285.704	42.67
285.919	-65.88
286.134	-20.82
286.349	75.43
286.564	-0.34
286.779	59.05
286.995	77.48
287.21	20.14
287.425	40.62
287.64	1.71
287.855	34.47
288.07	-6.49
288.285	13.99
288.5	32.43
288.715	-20.82
288.93	87.72
289.145	42.67
289.36	46.76
289.575	18.09
289.79	81.58
290.004	28.33
290.219	-6.49
290.434	7.85
290.649	-8.53
290.864	-24.92
291.079	-2.39
291.294	91.82
291.509	-8.53
291.724	34.47
291.938	9.9
292.153	50.86
292.368	-39.25
292.583	44.71
292.798	120.49
293.012	-2.39
293.227	30.38
293.442	52.91
293.657	57
293.871	89.77
294.086	48.81
294.301	50.86
294.516	89.77
294.73	-4.44
294.945	50.86
295.16	-24.92
295.374	85.67
295.589	-26.96
295.804	32.43
296.018	24.23
296.233	34.47
296.447	44.71
296.662	5.8
296.877	73.39
297.091	42.67
297.306	26.28
297.52	-16.73
297.735	-12.63
297.949	-14.68
298.164	140.97
298.378	54.95
298.593	-37.2
298.807	18.09
299.022	18.09
299.236	67.24
299.451	95.91
299.665	30.38
299.88	5.8
300.094	67.24
300.309	-2.39
300.523	63.15
300.737	-22.87
300.952	38.57
301.166	40.62
301.381	-22.87
301.595	-8.53
301.809	34.47
302.024	75.43
302.238	36.52
302.452	81.58
302.667	24.23
302.881	69.29
303.095	9.9
303.309	3.75
303.524	-20.82
303.738	26.28
303.952	63.15
304.166	22.19
304.381	-8.53
304.595	116.39
304.809	7.85
305.023	-6.49
305.237	42.67
305.452	1.71
305.666	54.95
305.88	22.19
306.094	1.71
306.308	50.86
306.522	50.86
306.736	-4.44
306.95	83.63
307.164	-6.49
307.379	42.67
307.593	114.34
307.807	42.67
308.021	48.81
308.235	13.99
308.449	-43.35
308.663	-31.06
308.877	26.28
309.091	46.76
309.305	18.09
309.519	24.23
309.733	36.52
309.947	-0.34
310.161	30.38
310.374	42.67
310.588	95.91
310.802	-8.53
311.016	1.71
311.23	34.47
311.444	57
311.658	32.43
311.872	-2.39
312.085	50.86
312.299	46.76
312.513	36.52
312.727	24.23
312.941	5.8
313.154	-14.68
313.368	40.62
313.582	30.38
313.796	20.14
314.009	22.19
314.223	46.76
314.437	79.53
314.651	75.43
314.864	16.04
315.078	20.14
315.292	42.67
315.505	-49.49
315.719	-6.49
315.933	7.85
316.146	34.47
316.36	-10.58
316.573	38.57
316.787	-31.06
317.001	3.75
317.214	-16.73
317.428	7.85
317.641	-10.58
317.855	9.9
318.068	-12.63
318.282	75.43
318.495	18.09
318.709	40.62
318.922	-31.06
319.136	44.71
319.349	26.28
319.563	34.47
319.776	32.43
319.99	-35.16
320.203	28.33
320.417	9.9
320.63	48.81
320.843	71.34
321.057	50.86
321.27	-2.39
321.483	-6.49
321.697	32.43
321.91	93.87
322.124	57
322.337	63.15
322.55	65.19
322.763	48.81
322.977	-12.63
323.19	22.19
323.403	63.15
323.617	42.67
323.83	71.34
324.043	-18.77
324.256	9.9
324.469	-22.87
324.683	63.15
324.896	-18.77
325.109	106.15
325.322	-24.92
325.535	120.49
325.748	-8.53
325.962	54.95
326.175	108.2
326.388	11.95
326.601	89.77
326.814	91.82
327.027	91.82
327.24	106.15
327.453	26.28
327.666	36.52
327.879	61.1
328.092	67.24
328.305	38.57
328.518	-12.63
328.731	13.99
328.944	63.15
329.157	-2.39
329.37	54.95
329.583	-0.34
329.796	50.86
330.009	-35.16
330.222	63.15
330.435	79.53
330.648	54.95
330.861	93.87
331.073	3.75
331.286	5.8
331.499	59.05
331.712	59.05
331.925	13.99
332.138	24.23
332.35	-33.11
332.563	83.63
332.776	40.62
332.989	34.47
333.202	-29.01
333.414	24.23
333.627	42.67
333.84	22.19
334.053	67.24
334.265	-10.58
334.478	38.57
334.691	54.95
334.903	9.9
335.116	42.67
335.329	24.23
335.541	-45.4
335.754	73.39
335.966	9.9
336.179	-31.06
336.392	40.62
336.604	-8.53
336.817	110.25
337.029	54.95
337.242	16.04
337.454	57
337.667	-6.49
337.88	30.38
338.092	-6.49
338.305	22.19
338.517	5.8
338.729	112.3
338.942	46.76
339.154	38.57
339.367	-57.68
339.579	85.67
339.792	-137.56
340.004	42.67
340.217	73.39
340.429	69.29
340.641	-29.01
340.854	18.09
341.066	-10.58
341.278	116.39
341.491	114.34
341.703	24.23
341.915	-22.87
342.128	108.2
342.34	50.86
342.552	-57.68
342.764	-31.06
342.977	46.76
343.189	57
343.401	-10.58
343.613	-6.49
343.826	-0.34
344.038	-10.58
344.25	112.3
344.462	63.15
344.674	18.09
344.886	122.54
345.099	48.81
345.311	9.9
345.523	-49.49
345.735	-31.06
345.947	63.15
346.159	63.15
346.371	7.85
346.583	-43.35
346.795	71.34
347.007	42.67
347.219	30.38
347.431	97.96
347.643	124.58
347.855	48.81
348.067	50.86
348.279	-8.53
348.491	-41.3
348.703	63.15
348.915	77.48
349.127	61.1
349.339	89.77
349.551	13.99
349.763	-12.63
349.975	48.81
350.187	44.71
350.399	69.29
350.61	-2.39
350.822	-0.34
351.034	126.63
351.246	-59.73
351.458	38.57
351.669	34.47
351.881	71.34
352.093	73.39
352.305	71.34
352.517	26.28
352.728	65.19
352.94	63.15
353.152	13.99
353.363	-37.2
353.575	102.06
353.787	7.85
353.999	13.99
354.21	-6.49
354.422	18.09
354.633	93.87
354.845	81.58
355.057	32.43
355.268	54.95
355.48	124.58
355.692	-2.39
355.903	-43.35
356.115	42.67
356.326	34.47
356.538	130.73
356.749	52.91
356.961	91.82
357.172	52.91
357.384	-31.06
357.595	114.34
357.807	-8.53
358.018	-51.54
358.23	63.15
358.441	61.1
358.653	9.9
358.864	-51.54
359.075	83.63
359.287	38.57
359.498	97.96
359.709	106.15
359.921	1.71
360.132	32.43
360.344	57
360.555	-24.92
360.766	5.8
360.977	52.91
361.189	-0.34
361.4	-6.49
361.611	34.47
361.823	34.47
362.034	7.85
362.245	-51.54
362.456	-4.44
362.667	-0.34
362.879	-12.63
363.09	63.15
363.301	69.29
363.512	-57.68
363.723	5.8
363.935	42.67
364.146	155.3
364.357	40.62
364.568	104.11
364.779	-33.11
364.99	114.34
365.201	-6.49
365.412	30.38
365.623	28.33
365.834	-33.11
366.045	54.95
366.256	52.91
366.467	1.71
366.678	22.19
366.889	30.38
367.1	40.62
367.311	44.71
367.522	1.71
367.733	-59.73
367.944	124.58
368.155	-10.58
368.366	-47.44
368.577	34.47
368.788	48.81
368.999	3.75
369.209	22.19
369.42	52.91
369.631	140.97
369.842	38.57
370.053	57
370.264	83.63
370.474	-0.34
370.685	50.86
370.896	52.91
371.107	91.82
371.317	69.29
371.528	93.87
371.739	89.77
371.95	106.15
372.16	108.2
372.371	81.58
372.582	18.09
372.792	42.67
373.003	83.63
373.214	-4.44
373.424	30.38
373.635	20.14
373.846	24.23
374.056	-29.01
374.267	-2.39
374.477	73.39
374.688	-2.39
374.898	9.9
375.109	59.05
375.319	42.67
375.53	85.67
375.74	83.63
375.951	20.14
376.161	38.57
376.372	73.39
376.582	34.47
376.793	100.01
377.003	83.63
377.214	100.01
377.424	59.05
377.635	100.01
377.845	91.82
378.055	89.77
378.266	44.71
378.476	-12.63
378.686	30.38
378.897	36.52
379.107	73.39
379.317	112.3
379.528	24.23
379.738	69.29
379.948	71.34
380.158	13.99
380.369	11.95
380.579	13.99
380.789	38.57
380.999	91.82
381.21	-6.49
381.42	75.43
381.63	-20.82
381.84	91.82
382.05	38.57
382.261	38.57
382.471	50.86
382.681	50.86
382.891	34.47
383.101	85.67
383.311	5.8
383.521	59.05
383.731	95.91
383.941	42.67
384.151	48.81
384.361	42.67
384.571	24.23
384.781	54.95
384.991	116.39
385.201	57
385.411	18.09
385.621	34.47
385.831	67.24
386.041	81.58
386.251	100.01
386.461	79.53
386.671	67.24
386.881	28.33
387.091	22.19
387.301	75.43
387.511	100.01
387.72	24.23
387.93	87.72
388.14	-20.82
388.35	73.39
388.56	71.34
388.769	67.24
388.979	173.74
389.189	-33.11
389.399	75.43
389.609	104.11
389.818	108.2
390.028	83.63
390.238	22.19
390.447	110.25
390.657	44.71
390.867	67.24
391.076	59.05
391.286	-37.2
391.496	104.11
391.705	91.82
391.915	91.82
392.125	59.05
392.334	38.57
392.544	24.23
392.753	71.34
392.963	79.53
393.172	97.96
393.382	18.09
393.591	65.19
393.801	30.38
394.01	57
394.22	-4.44
394.429	1.71
394.639	7.85
394.848	106.15
395.058	153.26
395.267	32.43
395.477	102.06
395.686	161.45
395.895	163.5
396.105	110.25
396.314	77.48
396.524	59.05
396.733	67.24
396.942	169.64
397.152	149.16
397.361	71.34
397.57	87.72
397.78	77.48
397.989	69.29
398.198	83.63
398.407	165.54
398.617	42.67
398.826	120.49
399.035	102.06
399.244	83.63
399.453	87.72
399.663	126.63
399.872	214.7
400.081	95.91
400.29	91.82
400.499	110.25
400.708	108.2
400.917	97.96
401.127	73.39
401.336	122.54
401.545	157.35
401.754	59.05
401.963	151.21
402.172	116.39
402.381	65.19
402.59	118.44
402.799	42.67
403.008	108.2
403.217	120.49
403.426	112.3
403.635	52.91
403.844	165.54
404.053	104.11
404.262	155.3
404.471	188.07
404.68	122.54
404.888	186.02
405.097	73.39
405.306	132.78
405.515	181.93
405.724	204.46
405.933	216.74
406.142	202.41
406.35	220.84
406.559	210.6
406.768	161.45
406.977	190.12
407.185	226.98
407.394	212.65
407.603	214.7
407.812	282.28
408.02	231.08
408.229	255.65
408.438	239.27
408.646	282.28
408.855	231.08
409.064	239.27
409.272	210.6
409.481	370.34
409.69	261.8
409.898	304.81
410.107	370.34
410.315	329.38
410.524	378.53
410.733	308.9
410.941	345.77
411.15	409.25
411.358	394.92
411.567	495.27
411.775	421.54
411.984	462.5
412.192	476.84
412.401	472.74
412.609	538.27
412.818	515.75
413.026	534.18
413.234	640.67
413.443	566.95
413.651	560.8
413.86	728.74
414.068	661.15
414.276	738.98
414.485	593.57
414.693	646.82
414.901	747.17
415.11	763.55
415.318	738.98
415.526	802.46
415.734	876.19
415.943	878.24
416.151	915.1
416.359	972.44
416.567	808.61
416.776	960.16
416.984	1050.27
417.192	1123.99
417.4	1146.52
417.608	980.64
417.817	1203.86
418.025	1222.3
418.233	1257.11
418.441	1253.02
418.649	1205.91
418.857	1287.83
419.065	1388.18
419.273	1425.04
419.481	1531.54
419.689	1439.38
419.897	1664.66
420.105	1640.08
420.313	1666.71
420.521	1722
420.729	1861.26
420.937	1838.73
421.145	1842.83
421.353	1963.66
421.561	2070.16
421.769	2145.93
421.977	2225.8
422.185	2199.18
422.393	2543.24
422.601	2545.28
422.809	2475.65
423.017	2516.61
423.224	2526.85
423.432	2657.92
423.64	2702.98
423.848	3016.32
424.056	2889.34
424.263	3083.9
424.471	3184.25
424.679	3237.5
424.887	3343.99
425.094	3499.64
425.302	3632.76
425.51	3563.12
425.718	3630.71
425.925	3726.96
426.133	3915.37
426.341	4111.98
426.548	4234.86
426.756	4286.06
426.964	4435.56
427.171	4523.62
427.379	4720.23
427.586	4824.67
427.794	5006.94
428.001	5068.38
428.209	5426.78
428.417	5328.47
428.624	5727.83
428.832	5602.9
429.039	5680.72
429.247	5697.11
429.454	6248.01
429.662	6547.01
429.869	6223.44
430.076	6661.7
430.284	6461
430.491	6719.04
430.699	6964.8
430.906	7128.64
431.114	7226.94
431.321	7583.29
431.528	7530.04
431.736	8126
431.943	8484.39
432.15	8226.35
432.358	8279.6
432.565	8734.25
432.772	8793.64
432.979	9143.84
433.187	9514.52
433.394	9233.95
433.601	10063.38
433.808	10030.61
434.016	9793.05
434.223	10493.45
434.43	11013.63
434.637	10894.85
434.844	11673.08
435.052	11769.34
435.259	11404.8
435.466	11722.23
435.673	11640.31
435.88	12504.56
436.087	12961.25
436.294	12912.1
436.501	12731.88
436.708	12908.01
436.915	13688.28
437.122	13702.62
437.329	13936.09
437.537	14630.35
437.743	14507.47
437.95	14493.13
438.157	15402.43
438.364	15625.66
438.571	15748.54
438.778	15982.01
438.985	17235.36
439.192	16479.66
439.399	17231.27
439.606	16645.55
439.813	17894.81
440.02	18769.29
440.227	18247.06
440.433	18150.81
440.64	18892.17
440.847	18765.2
441.054	19146.12
441.261	20426.1
441.467	19971.45
441.674	20747.63
441.881	21452.13
442.088	21239.14
442.294	21163.37
442.501	21835.1
442.708	22160.73
442.914	23022.92
443.121	24022.33
443.328	23407.94
443.534	25115.95
443.741	24122.68
443.948	23948.61
444.154	25746.72
444.361	25396.52
444.568	25681.19
444.774	25679.14
444.981	25732.39
445.187	26572.05
445.394	27811.07
445.6	27434.25
445.807	29943.01
446.013	28423.42
446.22	29369.58
446.426	30571.74
446.633	30762.2
446.839	31691.98
447.046	30297.31
447.252	31892.68
447.459	32111.81
447.665	31702.21
447.871	33270.96
448.078	34563.23
448.284	32761.01
448.491	33373.36
448.697	34778.26
448.903	35445.9
449.11	35441.81
449.316	34616.47
449.522	35554.44
449.728	36344.96
449.935	36828.28
450.141	36662.4
450.347	37645.42
450.553	36435.07
450.76	36787.32
450.966	37885.03
451.172	37561.45
451.378	38169.7
451.584	37559.41
451.791	38143.08
451.997	37985.38
452.203	38884.44
452.409	38745.18
452.615	38476.9
452.821	37235.83
453.027	36867.19
453.233	38423.65
453.44	36805.75
453.646	37360.75
453.852	37272.69
454.058	38194.28
454.264	36631.68
454.47	37612.65
454.676	36861.05
454.882	37821.55
455.088	34796.7
455.294	34905.24
455.5	35398.8
455.705	35888.26
455.911	34466.97
456.117	34020.52
456.323	33158.32
456.529	31419.6
456.735	33092.79
456.941	32120
457.147	31431.88
457.352	30430.43
457.558	30264.54
457.764	29924.58
457.97	29379.82
458.176	28757.24
458.381	28980.46
458.587	27616.52
458.793	27593.99
458.999	26205.47
459.204	28220.67
459.41	26940.69
459.616	25457.96
459.821	25261.35
460.027	25357.61
460.233	24964.4
460.438	23506.24
460.644	23936.32
460.85	22572.37
461.055	22463.83
461.261	22185.3
461.466	20782.45
461.672	20047.22
461.878	21525.86
462.083	20010.36
462.289	19776.89
462.494	19557.76
462.7	18906.51
462.905	18355.6
463.111	18822.54
463.316	18845.07
463.522	18849.16
463.727	18625.93
463.932	18521.49
464.138	18558.35
464.343	18300.31
464.549	18036.12
464.754	18218.39
464.959	18402.71
465.165	17991.06
465.37	17530.27
465.575	16983.46
465.781	17632.67
465.986	17683.87
466.191	17321.38
466.397	16801.19
466.602	15955.38
466.807	16698.8
467.012	16776.62
467.218	16446.9
467.423	16272.82
467.628	16459.18
467.833	17304.99
468.038	16364.98
468.244	15904.18
468.449	16389.55
468.654	16121.27
468.859	16074.17
469.064	15936.95
469.269	15377.86
469.474	15416.77
469.679	15418.82
469.885	15138.24
470.09	15504.83
470.295	15236.55
470.5	14953.93
470.705	15230.4
470.91	14603.72
471.115	14474.7
471.32	14622.16
471.525	14669.26
471.73	14513.61
471.935	14222.8
472.139	13526.49
472.344	13635.03
472.549	13850.07
472.754	13645.27
472.959	13313.5
473.164	13051.36
473.369	13080.04
473.574	13764.06
473.778	13137.38
473.983	12951.01
474.188	13008.36
474.393	12467.69
474.598	12447.21
474.802	12334.57
475.007	12346.86
475.212	12580.33
475.417	11916.79
475.621	12029.43
475.826	12099.06
476.031	11718.14
476.235	11462.14
476.44	11763.19
476.645	11408.89
476.849	11572.73
477.054	11281.92
477.259	11107.84
477.463	11353.6
477.668	10833.41
477.872	11003.39
478.077	10958.34
478.282	10579.47
478.486	10472.97
478.691	10554.89
478.895	10626.57
479.1	10374.67
479.304	10427.92
479.509	10178.06
479.713	10472.97
479.918	10028.56
480.122	9977.36
480.326	10075.66
480.531	10135.06
480.735	10133.01
480.94	9940.5
481.144	10216.97
481.348	9702.93
481.553	9805.33
481.757	9547.29
481.961	9588.25
482.166	9915.92
482.37	9768.47
482.574	9512.47
482.778	9582.1
482.983	9905.68
483.187	9592.34
483.391	9858.58
483.595	9766.42
483.8	9600.54
484.004	9668.12
484.208	9913.88
484.412	9655.83
484.616	9661.98
484.821	9655.83
485.025	9741.85
485.229	9899.54
485.433	9680.41
485.637	9473.56
485.841	9745.94
486.045	9358.88
486.249	9979.41
486.453	9647.64
486.657	9760.28
486.861	9766.42
487.065	9532.95
487.269	9594.39
487.473	9518.62
487.677	9444.89
487.881	9864.72
488.085	9795.09
488.289	9487.9
488.493	9764.37
488.697	9811.48
488.901	9676.31
489.105	9809.43
489.309	9872.92
489.512	9786.9
489.716	9786.9
489.92	9803.29
490.124	9704.98
490.328	9831.96
490.531	9872.92
490.735	9938.45
490.939	10001.94
491.143	9750.04
491.346	9975.31
491.55	10120.72
491.754	10026.51
491.958	10059.28
492.161	10151.44
492.365	10165.78
492.569	10405.39
492.772	10157.58
492.976	10327.57
493.18	10604.04
493.383	10429.96
493.587	10677.77
493.79	10726.92
493.994	10522.12
494.197	10675.72
494.401	10806.79
494.605	10993.15
494.808	11122.18
495.012	10960.39
495.215	11077.12
495.419	11494.91
495.622	11128.32
495.825	11478.52
496.029	11396.6
496.232	11625.98
496.436	11456
496.639	11863.54
496.843	11771.38
497.046	12211.7
497.249	12099.06
497.453	12455.4
497.656	12125.68
497.859	12430.83
498.063	12658.15
498.266	12725.74
498.469	12697.06
498.673	12826.09
498.876	12930.53
499.079	13153.76
499.282	13311.46
499.485	13665.75
499.689	13563.36
499.892	13825.5
500.095	13895.13
500.298	14140.88
500.501	14192.08
500.705	14319.06
500.908	14685.64
501.111	14699.98
501.314	14845.38
501.517	15001.03
501.72	15103.43
501.923	15433.15
502.126	15166.92
502.329	15672.76
502.532	15848.89
502.735	15971.77
502.938	16035.25
503.141	16350.64
503.344	16444.85
503.547	16704.94
503.75	16993.7
503.953	17065.38
504.156	17175.97
504.359	17720.73
504.562	17429.92
504.765	18044.31
504.968	17976.73
505.17	18187.67
505.373	18437.52
505.576	18591.12
505.779	18804.11
505.982	19084.68
506.185	19379.59
506.387	19324.29
506.59	19809.66
506.793	19969.4
506.996	19858.81
507.198	20401.52
507.401	20104.57
507.604	20786.54
507.807	20893.04
508.009	21202.28
508.212	21192.04
508.415	21675.36
508.617	21728.61
508.82	21855.58
509.022	21845.34
509.225	22125.91
509.428	22588.75
509.63	22691.15
509.833	22906.19
510.035	23414.09
510.238	23125.32
510.44	23602.5
510.643	24151.35
510.845	24053.05
511.048	23940.41
511.25	24134.97
511.453	24302.9
511.655	25568.55
511.858	25062.7
512.06	25226.54
512.262	25740.58
512.465	25881.89
512.667	26449.18
512.87	26350.87
513.072	26514.71
513.274	27084.05
513.477	27137.29
513.679	27180.3
513.881	27870.47
514.084	28163.32
514.286	27948.29
514.488	28503.29
514.69	28929.27
514.893	29168.88
515.095	29422.83
515.297	29498.6
515.499	29699.3
515.701	30043.36
515.904	30586.07
516.106	30547.16
516.308	31067.34
516.51	30977.23
516.712	31147.22
516.914	31552.71
517.116	32050.37
517.318	32093.38
517.52	32273.6
517.722	32318.65
517.925	32904.37
518.127	33133.75
518.329	33686.7
518.531	33334.45
518.733	34075.81
518.935	34421.92
519.136	34258.08
519.338	35015.83
519.54	35024.02
519.742	35589.26
519.944	35753.1
520.146	35949.7
520.348	36369.54
520.55	36463.74
520.752	36584.57
520.954	37409.9
521.155	36476.03
521.357	37282.93
521.559	37774.44
521.761	38313.06
521.963	37934.18
522.164	38351.97
522.366	38423.65
522.568	38968.41
522.77	39230.55
522.971	39533.65
523.173	39334.99
523.375	40197.19
523.576	40072.26
523.778	40006.73
523.98	40639.55
524.181	40956.99
524.383	40987.71
524.584	41329.72
524.786	41348.15
524.988	41428.02
525.189	42079.27
525.391	41925.67
525.592	42257.45
525.794	42167.34
525.995	42556.45
526.197	42361.89
526.398	42941.47
526.6	43281.43
526.801	43406.36
527.003	43676.69
527.204	43611.15
527.406	43985.93
527.607	44168.2
527.808	44344.33
528.01	43854.86
528.211	44192.78
528.412	44977.15
528.614	44235.78
528.815	44803.07
529.016	45419.51
529.218	45061.12
529.419	45093.88
529.62	45188.09
529.822	44837.89
530.023	45028.35
530.224	45298.68
530.425	45356.02
530.626	45233.14
530.828	45202.42
531.029	45986.8
531.23	45392.89
531.431	45829.1
531.632	46103.53
531.833	46205.93
532.035	46222.31
532.236	46093.29
532.437	46566.37
532.638	46234.6
532.839	46328.81
533.04	46263.27
533.241	45870.06
533.442	46797.79
533.643	46416.87
533.844	46582.76
534.045	46656.48
534.246	46197.74
534.447	46758.88
534.648	46388.2
534.849	46926.81
535.05	46713.83
535.251	46746.59
535.451	46558.18
535.652	46676.96
535.853	46746.59
536.054	47293.4
536.255	46986.21
536.456	46685.15
536.657	47385.56
536.857	46715.87
537.058	46498.79
537.259	46865.38
537.46	47000.54
537.66	46717.92
537.861	47240.15
538.062	46607.33
538.263	46900.19
538.463	46795.74
538.664	46998.49
538.865	46822.37
539.065	47006.69
539.266	46455.78
539.466	47490.01
539.667	46382.05
539.868	47287.26
540.068	46566.37
540.269	47107.04
540.469	47023.07
540.67	46719.97
540.87	46453.73
541.071	46607.33
541.271	46998.49
541.472	47037.4
541.672	46670.82
541.873	46754.79
542.073	46242.79
542.274	46855.14
542.474	46779.36
542.675	46414.82
542.875	47117.28
543.075	46418.92
543.276	46386.15
543.476	46861.28
543.676	46455.78
543.877	47086.56
544.077	46576.61
544.277	46674.91
544.478	46468.07
544.678	46754.79
544.878	46656.48
545.078	46656.48
545.279	46081
545.479	46408.68
545.679	46404.58
545.879	46537.7
546.079	46746.59
546.28	46754.79
546.48	46328.81
546.68	46742.5
546.88	47244.25
547.08	46418.92
547.28	46304.23
547.48	45933.55
547.68	46148.59
547.88	46136.3
548.081	46810.08
548.281	46347.24
548.481	46003.18
548.681	46914.53
548.881	46449.64
549.081	46451.69
549.28	46003.18
549.48	46681.06
549.68	46394.34
549.88	46582.76
550.08	45958.13
550.28	46427.11
550.48	46197.74
550.68	46719.97
550.88	45894.64
551.08	46300.14
551.279	46115.82
551.479	45751.28
551.679	46566.37
551.879	46074.86
552.079	46218.22
552.278	46087.15
552.478	46187.5
552.678	45886.45
552.878	46347.24
553.077	46058.48
553.277	45790.19
553.477	46435.3
553.676	45763.57
553.876	46171.11
554.076	45612.02
554.275	45552.63
554.475	45595.63
554.674	46191.59
554.874	45474.8
555.074	45820.91
555.273	45970.41
555.473	45812.72
555.672	45429.75
555.872	45573.11
556.071	45587.44
556.271	45943.79
556.47	45718.51
556.67	45343.73
556.869	45571.06
557.068	45657.07
557.268	45034.49
557.467	45222.9
557.667	45464.56
557.866	45108.22
558.065	44981.24
558.265	44573.7
558.464	44823.55
558.663	45140.99
558.863	44452.87
559.062	45054.97
559.261	44774.4
559.461	45120.51
559.66	44117
559.859	44698.62
560.058	44344.33
560.258	44585.99
560.457	44188.68
560.656	44467.2
560.855	44526.6
561.054	44307.46
561.253	44092.43
561.453	44340.23
561.652	44076.04
561.851	44297.22
562.05	43805.71
562.249	43695.12
562.448	43940.88
562.647	43416.6
562.846	43551.76
563.045	43461.65
563.244	43101.21
563.443	43990.03
563.642	42816.54
563.841	43445.27
564.04	42964
564.239	43414.55
564.438	42841.12
564.637	42970.14
564.836	42955.8
565.035	42875.93
565.234	42646.56
565.432	42578.98
565.631	42329.12
565.83	42884.12
566.029	41815.08
566.228	42122.28
566.427	42175.53
566.625	42003.5
566.824	41247.8
567.023	42071.08
567.222	41808.94
567.42	42202.15
567.619	41794.6
567.818	42017.83
568.016	41464.88
568.215	41806.89
568.414	41772.08
568.612	41405.49
568.811	40971.32
569.01	41282.61
569.208	40827.96
569.407	41413.68
569.605	40428.61
569.804	41253.94
570.002	40817.72
570.201	40823.87
570.4	40576.06
570.598	40156.23
570.797	40252.48
570.995	40287.3
571.193	39791.69
571.392	40307.78
571.59	39453.78
571.789	39752.78
571.987	39728.2
572.186	39570.51
572.384	39652.43
572.582	39474.26
572.781	39341.14
572.979	39310.42
573.177	38933.59
573.376	39414.87
573.574	38894.68
573.772	38786.14
573.971	38919.26
574.169	38816.86
574.367	38386.78
574.565	38843.48
574.763	38401.12
574.962	38218.85
575.16	38296.67
575.358	38532.19
575.556	38012.01
575.754	38055.01
575.952	37448.82
576.151	38155.36
576.349	37571.69
576.547	37635.18
576.745	38120.55
576.943	37301.36
577.141	37444.72
577.339	37282.93
577.537	37145.72
577.735	36795.51
577.933	36775.03
578.131	37358.7
578.329	36498.56
578.527	36418.69
578.725	36258.95
578.923	36885.62
579.121	36402.3
579.319	36340.86
579.516	36656.25
579.714	36330.62
579.912	36316.29
580.11	35828.87
580.308	36031.62
580.506	36052.1
580.704	35198.1
580.901	35900.55
581.099	35986.57
581.297	35392.65
581.495	35232.91
581.692	35495.05
581.89	34761.88
582.088	35435.66
582.285	34964.63
582.483	35304.59
582.681	34888.85
582.878	35052.69
583.076	34454.68
583.274	34409.63
583.471	34460.83
583.669	34655.39
583.866	34268.32
584.064	34413.73
584.262	33713.32
584.459	34516.12
584.657	34006.18
584.854	34264.22
585.052	33221.81
585.249	34043.04
585.447	33741.99
585.644	33225.9
585.841	33547.43
586.039	33809.57
586.236	33107.12
586.434	33160.37
586.631	32982.2
586.828	32810.17
587.026	33352.88
587.223	33209.52
587.42	33025.2
587.618	32908.47
587.815	32801.97
588.012	32836.79
588.21	32572.6
588.407	32728.25
588.604	32240.83
588.801	32283.84
588.999	32394.43
589.196	32201.92
589.393	32160.96
589.59	31657.16
589.787	31591.62
589.984	31718.6
590.182	31546.57
590.379	31636.68
590.576	31538.38
590.773	31532.23
590.97	30893.27
591.167	31374.54
591.364	30799.06
591.561	31081.68
591.758	30762.2
591.955	30661.85
592.152	30745.81
592.349	30354.65
592.546	30780.63
592.743	30586.07
592.94	30166.24
593.137	30455
593.334	30399.71
593.531	30043.36
593.727	30385.37
593.924	29963.49
594.121	29795.56
594.318	29750.5
594.515	29713.64
594.712	29979.87
594.908	29605.09
595.105	29652.2
595.302	29322.48
595.499	29592.81
595.696	29490.41
595.892	29207.79
596.089	29500.65
596.286	29011.18
596.482	29009.14
596.679	28919.03
596.876	29101.29
597.072	28810.48
597.269	28605.69
597.466	28638.45
597.662	28409.08
597.859	28507.38
598.055	28665.08
598.252	28130.56
598.448	28171.52
598.645	28056.83
598.841	28134.65
599.038	27993.34
599.234	28210.43
599.431	27526.41
599.627	27864.32
599.824	27946.24
600.02	27634.95
600.217	27696.39
600.413	27202.83
600.609	27356.43
600.806	27026.7
601.002	27583.75
601.198	27186.44
601.395	27063.57
601.591	27059.47
601.787	26696.98
601.984	26506.52
602.18	27262.22
602.376	26447.13
602.572	26631.44
602.769	26649.88
602.965	26164.51
603.161	26187.04
603.357	26223.9
603.553	26006.81
603.75	26277.15
603.946	25865.5
604.142	26291.48
604.338	25335.08
604.534	26084.64
604.73	25480.49
604.926	25713.95
605.122	25881.89
605.318	25672.99
605.514	25161
605.71	25347.37
605.906	25373.99
606.102	25199.91
606.298	25498.92
606.494	24876.34
606.69	24962.35
606.886	25011.5
607.082	24732.98
607.278	25062.7
607.474	24356.15
607.67	24841.52
607.866	24225.08
608.062	24737.07
608.257	24661.3
608.453	24323.38
608.649	24649.01
608.845	24481.08
609.041	24311.1
609.236	24192.31
609.432	24157.5
609.628	23913.79
609.824	23926.08
610.019	23899.45
610.215	24110.39
610.411	23653.7
610.606	24149.31
610.802	23821.63
610.998	23575.87
611.193	23723.33
611.389	23661.89
611.584	23651.65
611.78	23301.45
611.976	23491.91
612.171	23143.75
612.367	23336.26
612.562	23586.11
612.758	23053.64
612.953	23006.54
613.149	23319.88
613.344	22953.29
613.539	23350.6
613.735	23176.52
613.93	23332.17
614.126	22736.21
614.321	22943.05
614.517	22871.37
614.712	22873.42
614.907	22586.71
615.103	22685.01
615.298	22615.38
615.493	22572.37
615.688	22596.95
615.884	22916.43
616.079	22312.28
616.274	22695.25
616.47	22512.98
616.665	22613.33
616.86	22279.51
617.055	22236.5
617.25	22007.13
617.445	22211.93
617.641	21753.18
617.836	22408.53
618.031	21738.85
618.226	21943.64
618.421	21538.15
618.616	22066.52
618.811	21448.04
619.006	21925.21
619.201	21056.87
619.396	21556.58
619.591	21095.78
619.786	21470.56
619.981	21208.42
620.176	21581.15
620.371	20753.77
620.566	21181.8
620.761	20841.84
620.956	20948.33
621.151	20678
621.346	20639.09
621.541	20288.89
621.735	20757.87
621.93	20231.54
622.125	20301.17
622.32	19791.23
622.515	20157.82
622.709	19963.26
622.904	19969.4
623.099	19920.25
623.294	19783.04
623.488	19469.7
623.683	19414.4
623.878	19144.07
624.072	19135.88
624.267	19062.15
624.462	18939.27
624.656	18871.69
624.851	18892.17
625.046	18759.05
625.24	18595.21
625.435	18396.56
625.629	18814.35
625.824	18505.1
626.018	18371.99
626.213	17804.7
626.407	18199.96
626.602	17997.21
626.796	17880.47
626.991	17989.02
627.185	17630.62
627.38	17528.22
627.574	17425.82
627.768	17434.02
627.963	17442.21
628.157	17227.17
628.352	17227.17
628.546	17040.81
628.74	17290.66
628.935	16666.03
629.129	16915.88
629.323	16307.63
629.517	16836.01
629.712	16315.83
629.906	16672.17
630.1	16088.5
630.294	16350.64
630.489	16223.67
630.683	16375.22
630.877	15975.86
631.071	15744.44
631.265	16033.21
631.459	15748.54
631.653	15656.38
631.848	15803.83
632.042	15314.37
632.236	15660.48
632.43	15472.06
632.624	15441.34
632.818	15152.58
633.012	15136.2
633.206	14880.2
633.4	15179.2
633.594	14693.83
633.788	14996.93
633.982	14626.25
634.176	14486.99
634.369	14661.07
634.563	14368.21
634.757	14276.05
634.951	14374.35
635.145	14360.02
635.339	14380.5
635.533	13872.6
635.726	14048.72
635.92	13823.45
636.114	13805.02
636.308	13913.56
636.501	13776.34
636.695	13675.99
636.889	13667.8
637.083	13424.09
637.276	13510.11
637.47	13551.07
637.664	13305.31
637.857	13276.64
638.051	13348.32
638.244	13166.05
638.438	12942.82
638.632	12994.02
638.825	12930.53
639.019	12764.65
639.212	12670.44
639.406	12494.32
639.599	12811.75
639.793	12568.04
639.986	12326.38
640.18	12203.5
640.373	12443.12
640.567	12086.77
640.76	12219.89
640.954	12178.93
641.147	12013.04
641.34	11832.82
641.534	11955.7
641.727	12107.25
641.92	11943.41
642.114	11773.43
642.307	11523.58
642.5	11542.01
642.694	11511.29
642.887	11456
643.08	11752.95
643.273	11320.83
643.467	11283.97
643.66	11335.17
643.853	11220.48
644.046	10905.09
644.239	11200
644.432	10733.06
644.626	10814.98
644.819	10843.65
645.012	10862.08
645.205	10561.03
645.398	10774.02
645.591	10544.65
645.784	10565.13
645.977	10454.54
646.17	10614.28
646.363	10188.3
646.556	10321.42
646.749	10315.28
646.942	10350.09
647.135	10286.61
647.328	10094.1
647.521	10014.23
647.714	9995.79
647.907	10053.14
648.099	9811.48
648.292	10016.27
648.485	9924.12
648.678	9551.38
648.871	9717.27
649.064	9788.95
649.256	9889.3
649.449	9625.11
649.642	9491.99
649.835	9453.08
650.027	9412.12
650.22	9412.12
650.413	9229.85
650.605	9283.1
650.798	9152.03
650.991	9199.13
651.183	9170.46
651.376	8998.43
651.568	8996.39
651.761	8797.73
651.954	9043.49
652.146	8586.79
652.339	8814.12
652.531	8767.01
652.724	8779.3
652.916	8689.19
653.109	8582.7
653.301	8594.98
653.494	8816.16
653.686	8431.15
653.879	8457.77
654.071	8504.87
654.263	8341.04
654.456	8164.91
654.648	8246.83
654.84	8207.92
655.033	8005.17
655.225	8013.36
655.417	7917.11
655.61	7941.68
655.802	8076.85
655.994	7929.39
656.186	8005.17
656.379	7835.19
656.571	7890.48
656.763	7708.21
656.955	7781.94
657.148	7820.85
657.34	7675.45
657.532	7642.68
657.724	7587.38
657.916	7421.5
658.108	7411.26
658.3	7394.87
658.492	7482.94
658.684	7300.67
658.876	7333.43
659.068	7245.37
659.26	7411.26
659.452	7394.87
659.644	7245.37
659.836	7018.05
660.028	7425.59
660.22	6905.41
660.412	7069.25
660.604	7003.71
660.796	7134.78
660.988	6919.75
661.18	6956.61
661.372	6913.6
661.563	6899.27
661.755	6755.91
661.947	6848.07
662.139	6757.96
662.331	6723.14
662.522	6694.47
662.714	6481.48
662.906	6575.69
663.097	6561.35
663.289	6428.23
663.481	6612.55
663.673	6489.67
663.864	6524.49
664.056	6319.69
664.247	6487.62
664.439	6274.63
664.631	6368.84
664.822	6317.64
665.014	6340.17
665.205	6211.15
665.397	6264.4
665.588	6106.7
665.78	6028.88
665.971	6133.33
666.163	6252.11
666.354	6067.79
666.546	5949.01
666.737	6073.93
666.929	5897.81
667.12	5787.22
667.311	5940.82
667.503	5736.02
667.694	5985.87
667.885	5738.07
668.077	5760.59
668.268	5701.2
668.459	5824.08
668.651	5598.81
668.842	5672.53
669.033	5729.88
669.224	5637.72
669.416	5770.83
669.607	5518.93
669.798	5379.67
669.989	5545.56
670.18	5480.02
670.371	5477.98
670.563	5391.96
670.754	5500.5
670.945	5457.5
671.136	5328.47
671.327	5365.34
671.518	5412.44
671.709	5224.03
671.9	5443.16
672.091	5342.81
672.282	5170.78
672.473	5318.23
672.664	5244.51
672.855	5264.99
673.046	5123.68
673.237	5338.71
673.428	5160.54
673.619	5125.72
673.809	5133.92
674	4965.98
674.191	5023.33
674.382	5039.71
674.573	5031.52
674.764	5095
674.954	5054.05
675.145	4918.88
675.336	5000.8
675.527	4824.67
675.717	4984.41
675.908	4988.51
676.099	4945.5
676.289	4937.31
676.48	4824.67
676.671	4857.44
676.861	4832.86
677.052	4822.63
677.243	4789.86
677.433	4796
677.624	4916.83
677.814	4738.66
678.005	4763.23
678.195	4927.07
678.386	4662.88
678.576	4744.8
678.767	4720.23
678.957	4824.67
679.148	4796
679.338	4787.81
679.529	4810.34
679.719	4775.52
679.909	4755.04
680.1	4744.8
680.29	4738.66
680.481	4640.36
680.671	4646.5
680.861	4707.94
681.052	4636.26
681.242	4609.64
681.432	4699.75
681.622	4597.35
681.813	4537.96
682.003	4669.03
682.193	4517.48
682.383	4566.63
682.573	4580.96
682.764	4437.61
682.954	4675.17
683.144	4453.99
683.334	4640.36
683.524	4431.46
683.714	4591.2
683.904	4380.26
684.094	4453.99
684.284	4513.38
684.474	4431.46
684.664	4277.87
684.854	4394.6
685.044	4308.58
685.234	4284.01
685.424	4324.97
685.614	4453.99
685.804	4286.06
685.994	4333.16
686.184	4339.3
686.374	4320.87
686.564	4359.78
686.753	4349.54
686.943	4163.18
687.133	4281.96
687.323	4212.33
687.513	4245.1
687.702	4161.13
687.892	4163.18
688.082	4122.22
688.272	4068.97
688.461	4165.23
688.651	4146.8
688.841	4030.06
689.03	4007.53
689.22	3982.96
689.41	4167.28
689.599	4050.54
689.789	3982.96
689.979	3954.29
690.168	4015.73
690.358	3872.37
690.547	4036.21
690.737	3882.61
690.926	3880.56
691.116	3853.94
691.305	3786.35
691.495	3894.9
691.684	3909.23
691.874	3843.7
692.063	3896.94
692.252	3868.27
692.442	3858.03
692.631	3606.13
692.82	3884.66
693.01	3788.4
693.199	3804.78
693.388	3767.92
693.578	3786.35
693.767	3673.71
693.956	3724.91
694.146	3571.32
694.335	3774.07
694.524	3604.08
694.713	3604.08
694.902	3679.86
695.092	3647.09
695.281	3530.36
695.47	3497.59
695.659	3626.61
695.848	3581.56
696.037	3583.6
696.226	3528.31
696.415	3501.69
696.604	3620.47
696.793	3509.88
696.982	3556.98
697.171	3593.84
697.36	3602.04
697.549	3540.6
697.738	3434.1
697.927	3430.01
698.116	3501.69
698.305	3366.52
698.494	3415.67
698.683	3430.01
698.872	3479.16
699.061	3516.02
699.25	3450.49
699.438	3550.84
699.627	3528.31
699.816	3491.45
700.005	3362.42
700.193	3520.12
700.382	3520.12
700.571	3374.71
700.76	3522.16
700.948	3315.32
701.137	3309.18
701.326	3380.86
701.514	3358.33
701.703	3405.43
701.892	3417.72
702.08	3485.3
702.269	3483.25
702.457	3415.67
702.646	3393.14
702.834	3260.02
703.023	3438.2
703.212	3405.43
703.4	3417.72
703.589	3397.24
703.777	3430.01
703.965	3364.47
704.154	3444.34
704.342	3315.32
704.531	3208.83
704.719	3188.35
704.907	3348.09
705.096	3475.06
705.284	3262.07
705.472	3337.85
705.661	3448.44
705.849	3260.02
706.037	3278.46
706.226	3409.53
706.414	3403.38
706.602	3407.48
706.79	3278.46
706.979	3251.83
707.167	3161.72
707.355	3376.76
707.543	3372.66
707.731	3368.57
707.919	3366.52
708.107	3217.02
708.296	3368.57
708.484	3137.15
708.672	3229.31
708.86	3311.22
709.048	3180.15
709.236	3382.9
709.424	3434.1
709.612	3356.28
709.8	3260.02
709.988	3253.88
710.176	3356.28
710.364	3237.5
710.551	3384.95
710.739	3264.12
710.927	3147.39
711.115	3325.56
711.303	3374.71
711.491	3298.94
711.679	3368.57
711.866	3448.44
712.054	3382.9
712.242	3311.22
712.43	3257.98
712.617	3292.79
712.805	3237.5
712.993	3327.61
713.181	3298.94
713.368	3421.81
713.556	3233.4
713.744	3264.12
713.931	3339.9
714.119	3311.22
714.306	3430.01
714.494	3298.94
714.682	3352.18
714.869	3278.46
715.057	3300.98
715.244	3163.77
715.432	3462.77
715.619	3202.68
715.807	3237.5
715.994	3317.37
716.182	3276.41
716.369	3341.94
716.556	3413.62
716.744	3356.28
716.931	3323.51
717.119	3343.99
717.306	3243.64
717.493	3276.41
717.681	3280.5
717.868	3262.07
718.055	3266.17
718.242	3374.71
718.43	3274.36
718.617	3296.89
718.804	3194.49
718.991	3311.22
719.179	3298.94
719.366	3317.37
719.553	3352.18
719.74	3245.69
719.927	3290.74
720.114	3360.38
720.301	3167.87
720.488	3180.15
720.676	3319.42
720.863	3237.5
721.05	3339.9
721.237	3196.54
721.424	3169.91
721.611	3192.44
721.798	3186.3
721.985	3221.11
722.172	3196.54
722.358	3174.01
722.545	3319.42
722.732	3311.22
722.919	3057.28
723.106	3090.04
723.293	3305.08
723.48	3180.15
723.667	3235.45
723.853	3325.56
724.04	3188.35
724.227	3176.06
724.414	3180.15
724.6	3171.96
724.787	3176.06
724.974	3143.29
725.161	3114.62
725.347	3157.63
725.534	3180.15
725.72	3221.11
725.907	3214.97
726.094	3153.53
726.28	3147.39
726.467	3208.83
726.653	3118.72
726.84	3061.37
727.027	3184.25
727.213	3083.9
727.4	3102.33
727.586	3075.71
727.773	3131
727.959	3135.1
728.145	3149.43
728.332	3171.96
728.518	3237.5
728.705	3231.35
728.891	3120.76
729.077	3149.43
729.264	3100.28
729.45	3145.34
729.636	3143.29
729.823	3151.48
730.009	3149.43
730.195	3229.31
730.382	3108.48
730.568	3016.32
730.754	3079.8
730.94	3059.32
731.126	3159.67
731.313	3120.76
731.499	3122.81
731.685	3128.95
731.871	3001.98
732.057	3167.87
732.243	3055.23
732.429	3126.91
732.615	3034.75
732.801	2958.97
732.987	3071.61
733.173	3012.22
733.359	3071.61
733.545	3114.62
733.731	3069.56
733.917	2934.4
734.103	3012.22
734.289	3063.42
734.475	3040.89
734.661	3085.95
734.847	3030.65
735.033	3024.51
735.219	3098.24
735.404	3014.27
735.59	2999.93
735.776	2979.45
735.962	2967.17
736.148	3083.9
736.333	2872.96
736.519	3042.94
736.705	2840.19
736.89	2981.5
737.076	2922.11
737.262	2967.17
737.447	2911.87
737.633	2872.96
737.819	2942.59
738.004	2944.64
738.19	2879.1
738.375	2860.67
738.561	3038.84
738.747	2954.88
738.932	2852.48
739.118	2870.91
739.303	2909.82
739.489	2872.96
739.674	2829.95
739.859	2729.6
740.045	2803.33
740.23	2754.18
740.416	2752.13
740.601	2786.94
740.786	2752.13
740.972	2809.47
741.157	2758.27
741.342	2782.85
741.528	2725.51
741.713	2801.28
741.898	2639.49
742.084	2842.24
742.269	2668.16
742.454	2539.14
742.639	2684.55
742.824	2791.04
743.01	2672.26
743.195	2573.96
743.38	2586.24
743.565	2594.44
743.75	2655.87
743.935	2563.72
744.12	2684.55
744.305	2606.72
744.49	2578.05
744.675	2440.84
744.86	2598.53
745.045	2537.09
745.23	2637.44
745.415	2533
745.6	2555.52
745.785	2426.5
745.97	2414.21
746.155	2340.49
746.34	2483.84
746.525	2393.73
746.71	2553.48
746.895	2326.15
747.079	2350.73
747.264	2340.49
747.449	2422.41
747.634	2301.58
747.819	2266.76
748.003	2279.05
748.188	2311.82
748.373	2215.56
748.557	2236.04
748.742	2246.28
748.927	2141.83
749.111	2227.85
749.296	2193.03
749.481	2195.08
749.665	2139.79
749.85	2049.68
750.034	2127.5
750.219	2094.73
750.404	2066.06
750.588	2039.44
750.773	2156.17
750.957	2102.92
751.141	2098.83
751.326	2027.15
751.51	1986.19
751.695	1945.23
751.879	1947.28
752.064	2082.44
752.248	1951.37
752.432	1955.47
752.617	1801.87
752.801	1883.79
752.985	2029.2
753.17	1934.99
753.354	1902.22
753.538	1859.21
753.722	1812.11
753.907	1779.34
754.091	1822.35
754.275	1818.25
754.459	1693.33
754.643	1826.45
754.828	1687.18
755.012	1767.06
755.196	1828.49
755.38	1644.18
755.564	1640.08
755.748	1762.96
755.932	1652.37
756.116	1668.75
756.3	1771.15
756.484	1664.66
756.668	1627.79
756.852	1578.64
757.036	1623.7
757.22	1654.42
757.404	1599.12
757.588	1595.03
757.772	1543.83
757.956	1552.02
758.14	1588.88
758.323	1523.35
758.507	1498.77
758.691	1470.1
758.875	1466
759.059	1459.86
759.242	1500.82
759.426	1558.16
759.61	1525.4
759.794	1488.53
759.977	1490.58
760.161	1562.26
760.345	1492.63
760.528	1420.95
760.712	1437.33
760.895	1474.2
761.079	1332.89
761.263	1420.95
761.446	1365.65
761.63	1398.42
761.813	1369.75
761.997	1423
762.18	1304.21
762.364	1367.7
762.547	1246.87
762.731	1304.21
762.914	1359.51
763.098	1316.5
763.281	1310.36
763.464	1341.08
763.648	1234.58
763.831	1341.08
764.015	1293.97
764.198	1308.31
764.381	1236.63
764.564	1275.54
764.748	1332.89
764.931	1267.35
765.114	1320.6
765.297	1228.44
765.481	1293.97
765.664	1173.14
765.847	1205.91
766.03	1234.58
766.213	1271.45
766.397	1257.11
766.58	1224.34
766.763	1250.97
766.946	1277.59
767.129	1185.43
767.312	1140.38
767.495	1115.8
767.678	1164.95
767.861	1220.25
768.044	1156.76
768.227	1236.63
768.41	1167
768.593	1238.68
768.776	1152.67
768.959	1099.42
769.142	1193.62
769.324	1107.61
769.507	1117.85
769.69	972.44
769.873	1199.77
770.056	1080.99
770.239	1080.99
770.421	1218.2
770.604	1171.1
770.787	1027.74
770.97	999.07
771.152	980.64
771.335	1035.93
771.518	1009.31
771.7	1021.6
771.883	1021.6
772.066	976.54
772.248	1001.12
772.431	1062.55
772.613	1138.33
772.796	968.35
772.978	1023.64
773.161	1025.69
773.343	960.16
773.526	984.73
773.708	1013.4
773.891	929.44
774.073	927.39
774.256	898.72
774.438	974.49
774.621	878.24
774.803	945.82
774.985	904.86
775.168	851.61
775.35	964.25
775.532	933.53
775.715	861.85
775.897	915.1
776.079	788.13
776.261	839.33
776.444	892.57
776.626	894.62
776.808	894.62
776.99	812.7
777.173	911
777.355	736.93
777.537	870.05
777.719	794.27
777.901	786.08
778.083	775.84
778.265	718.5
778.447	814.75
778.629	720.54
778.811	790.17
778.993	716.45
779.175	796.32
779.357	736.93
779.539	759.46
779.721	712.35
779.903	786.08
780.085	745.12
780.267	820.89
780.449	751.26
780.631	712.35
780.812	726.69
780.994	792.22
781.176	708.26
781.358	640.67
781.54	710.3
781.721	671.39
781.903	640.67
782.085	753.31
782.267	659.1
782.448	679.58
782.63	691.87
782.812	591.52
782.993	581.28
783.175	698.02
783.357	655.01
783.538	628.39
783.72	628.39
783.901	628.39
784.083	609.95
784.264	628.39
784.446	552.61
784.627	624.29
784.809	616.1
784.99	534.18
785.172	568.99
785.353	521.89
785.535	525.99
785.716	630.43
785.897	493.22
786.079	485.03
786.26	489.12
786.441	562.85
786.623	562.85
786.804	464.55
786.985	507.55
787.167	464.55
787.348	515.75
787.529	497.32
787.71	548.51
787.891	509.6
788.073	476.84
788.254	507.55
788.435	591.52
788.616	468.64
788.797	444.07
788.978	517.79
789.159	476.84
789.34	515.75
789.522	491.17
789.703	437.92
789.884	468.64
790.065	460.45
790.246	530.08
790.427	392.87
790.607	546.47
790.788	556.71
790.969	478.88
791.15	439.97
791.331	468.64
791.512	341.67
791.693	360.1
791.874	413.35
792.054	470.69
792.235	431.78
792.416	417.44
792.597	321.19
792.778	390.82
792.958	382.63
793.139	378.53
793.32	435.88
793.5	427.68
793.681	433.83
793.862	399.01
794.042	358.05
794.223	382.63
794.404	437.92
794.584	411.3
794.765	310.95
794.945	370.34
795.126	374.44
795.306	394.92
795.487	339.62
795.667	353.96
795.848	439.97
796.028	302.76
796.209	362.15
796.389	386.72
796.57	261.8
796.75	425.64
796.93	380.58
797.111	374.44
797.291	353.96
797.471	317.09
797.652	319.14
797.832	327.33
798.012	278.18
798.192	292.52
798.373	298.66
798.553	317.09
798.733	321.19
798.913	323.24
799.093	360.1
799.274	280.23
799.454	313
799.634	364.2
799.814	337.57
799.994	302.76
800.174	231.08
800.354	339.62
800.534	272.04
800.714	321.19
800.894	288.42
801.074	243.37
801.254	286.37
801.434	243.37
801.614	259.75
801.794	292.52
801.974	734.88
802.154	317.09
802.334	319.14
802.514	267.94
802.693	317.09
802.873	298.66
803.053	265.89
803.233	257.7
803.413	300.71
803.592	243.37
803.772	224.94
803.952	267.94
804.131	229.03
804.311	284.33
804.491	267.94
804.67	276.13
804.85	206.5
805.03	347.81
805.209	304.81
805.389	325.29
805.568	280.23
805.748	247.46
805.928	259.75
806.107	247.46
806.287	280.23
806.466	196.26
806.646	108.2
806.825	222.89
807.004	226.98
807.184	243.37
807.363	202.41
807.543	317.09
807.722	194.22
807.901	308.9
808.081	132.78
808.26	229.03
808.439	222.89
808.619	265.89
808.798	239.27
808.977	167.59
809.156	245.41
809.336	212.65
809.515	163.5
809.694	247.46
809.873	253.61
810.052	155.3
810.231	280.23
810.411	204.46
810.59	251.56
810.769	196.26
810.948	255.65
811.127	179.88
811.306	222.89
811.485	161.45
811.664	253.61
811.843	138.92
812.022	157.35
812.201	173.74
812.38	304.81
812.559	71.34
812.737	118.44
812.916	188.07
813.095	194.22
813.274	202.41
813.453	237.22
813.632	136.87
813.811	108.2
813.989	169.64
814.168	249.51
814.347	245.41
814.526	132.78
814.704	181.93
814.883	171.69
815.062	206.5
815.24	120.49
815.419	169.64
815.598	173.74
815.776	198.31
815.955	89.77
816.133	122.54
816.312	153.26
816.49	161.45
816.669	165.54
816.847	81.58
817.026	222.89
817.204	134.82
817.383	272.04
817.561	114.34
817.74	239.27
817.918	143.02
818.097	175.78
818.275	155.3
818.453	124.58
818.632	169.64
818.81	108.2
818.988	167.59
819.167	100.01
819.345	124.58
819.523	87.72
819.701	132.78
819.879	179.88
820.058	175.78
820.236	179.88
820.414	190.12
820.592	171.69
820.77	128.68
820.948	161.45
821.127	110.25
821.305	163.5
821.483	208.55
821.661	181.93
821.839	91.82
822.017	175.78
822.195	87.72
822.373	151.21
822.551	155.3
822.729	157.35
822.907	79.53
823.085	114.34
823.262	153.26
823.44	100.01
823.618	108.2
823.796	110.25
823.974	118.44
824.152	157.35
824.329	126.63
824.507	198.31
824.685	167.59
824.863	169.64
825.04	30.38
825.218	140.97
825.396	138.92
825.574	24.23
825.751	120.49
825.929	161.45
826.107	91.82
826.284	220.84
826.462	134.82
826.639	130.73
826.817	85.67
826.994	71.34
827.172	112.3
827.349	204.46
827.527	114.34
827.704	67.24
827.882	112.3
828.059	85.67
828.237	153.26
828.414	194.22
828.591	22.19
828.769	120.49
828.946	134.82
829.124	112.3
829.301	122.54
829.478	161.45
829.655	114.34
829.833	46.76
830.01	114.34
830.187	118.44
830.364	157.35
830.542	44.71
830.719	132.78
830.896	138.92
831.073	132.78
831.25	5.8
831.427	87.72
831.604	145.06
831.782	73.39
831.959	124.58
832.136	100.01
832.313	97.96
832.49	48.81
832.667	52.91
832.844	28.33
833.021	67.24
833.198	69.29
833.374	13.99
833.551	118.44
833.728	97.96
833.905	126.63
834.082	69.29
834.259	114.34
834.436	91.82
834.612	24.23
834.789	108.2
834.966	97.96
835.143	71.34
835.319	87.72
835.496	108.2
835.673	57
835.85	132.78
836.026	128.68
836.203	89.77
836.38	79.53
836.556	136.87
836.733	-2.39
836.909	124.58
837.086	32.43
837.262	20.14
837.439	42.67
837.616	22.19
837.792	100.01
837.968	71.34
838.145	52.91
838.321	32.43
838.498	91.82
838.674	81.58
838.851	16.04
839.027	22.19
839.203	100.01
839.38	34.47
839.556	77.48
839.732	91.82
839.909	-16.73
840.085	24.23
840.261	5.8
840.437	124.58
840.614	65.19
840.79	85.67
840.966	77.48
841.142	73.39
841.318	77.48
841.494	22.19
841.671	71.34
841.847	-10.58
842.023	112.3
842.199	36.52
842.375	91.82
842.551	-0.34
842.727	-10.58
842.903	54.95
843.079	1.71
843.255	67.24
843.431	87.72
843.607	91.82
843.783	-39.25
843.959	36.52
844.134	57
844.31	95.91
844.486	1.71
844.662	46.76
844.838	40.62
845.013	75.43
845.189	-31.06
845.365	48.81
845.541	65.19
845.716	69.29
845.892	46.76
846.068	73.39
846.244	42.67
846.419	50.86
846.595	9.9
846.77	118.44
846.946	26.28
847.122	11.95
847.297	28.33
847.473	36.52
847.648	-6.49
847.824	18.09
847.999	30.38
848.175	26.28
848.35	48.81
848.526	34.47
848.701	67.24
848.876	87.72
849.052	54.95
849.227	26.28
849.403	22.19
849.578	65.19
849.753	61.1
849.929	3.75
850.104	34.47
850.279	-16.73
850.454	-10.58
850.63	87.72
850.805	77.48
850.98	67.24
851.155	3.75
851.33	95.91
851.505	-51.54
851.681	63.15
851.856	-0.34
852.031	-29.01
852.206	30.38
852.381	-35.16
852.556	106.15
852.731	50.86
852.906	18.09
853.081	5.8
853.256	-6.49
853.431	93.87
853.606	1.71
853.781	57
853.956	1.71
854.131	59.05
854.305	7.85
854.48	11.95
854.655	-35.16
854.83	-4.44
855.005	32.43
855.18	52.91
855.354	40.62
855.529	-20.82
855.704	7.85
855.879	22.19
856.053	-10.58
856.228	97.96
856.403	-61.78
856.577	57
856.752	18.09
856.926	42.67
857.101	18.09
857.276	59.05
857.45	61.1
857.625	18.09
857.799	-18.77
857.974	26.28
858.148	9.9
858.323	57
858.497	50.86
858.672	28.33
858.846	-12.63
859.02	67.24
859.195	59.05
859.369	18.09
859.543	38.57
859.718	-0.34
859.892	-14.68
860.066	-2.39
860.241	-39.25
860.415	-94.55
860.589	36.52
860.763	16.04
860.938	50.86
861.112	1.71
861.286	-69.97
861.46	65.19
861.634	-39.25
861.808	40.62
861.982	1.71
862.157	-26.96
862.331	-10.58
862.505	-18.77
862.679	9.9
862.853	20.14
863.027	38.57
863.201	44.71
863.375	-31.06
863.549	59.05
863.722	1.71
863.896	42.67
864.07	50.86
864.244	-35.16
864.418	67.24
864.592	48.81
864.766	28.33
864.939	-14.68
865.113	40.62
865.287	-26.96
865.461	3.75
865.634	-63.83
865.808	57
865.982	-33.11
866.156	34.47
866.329	-26.96
866.503	22.19
866.676	85.67
866.85	-14.68
867.024	40.62
867.197	7.85
867.371	-37.2
867.544	5.8
867.718	-0.34
867.891	-18.77
868.065	22.19
868.238	7.85
868.412	77.48
868.585	91.82
868.759	9.9
868.932	20.14
869.105	-16.73
869.279	34.47
869.452	-14.68
869.625	5.8
869.799	1.71
869.972	-80.21
870.145	13.99
870.319	34.47
870.492	38.57
870.665	-16.73
870.838	71.34
871.011	-18.77
871.185	38.57
871.358	-59.73
871.531	18.09
871.704	-41.3
871.877	54.95
872.05	-4.44
872.223	13.99
872.396	73.39
872.569	67.24
872.742	-35.16
872.915	50.86
873.088	-10.58
873.261	-8.53
873.434	5.8
873.607	-10.58
873.78	-8.53
873.953	32.43
874.126	38.57
874.299	11.95
874.471	-10.58
874.644	-43.35
874.817	75.43
874.99	34.47
875.163	7.85
875.335	50.86
875.508	-6.49
875.681	77.48
875.853	-8.53
876.026	36.52
876.199	-0.34
876.371	-20.82
876.544	9.9
876.717	52.91
876.889	-35.16
877.062	38.57
877.234	38.57
877.407	1.71
877.579	11.95
877.752	9.9
877.924	48.81
878.097	3.75
878.269	28.33
878.442	18.09
878.614	28.33
878.786	-51.54
878.959	7.85
879.131	1.71
879.303	-31.06
879.476	-35.16
879.648	77.48
879.82	26.28
879.993	16.04
880.165	24.23
880.337	36.52
880.509	26.28
880.681	-53.59
880.854	-76.12
881.026	-20.82
881.198	48.81
881.37	-45.4
881.542	-53.59
881.714	-31.06
881.886	-8.53
882.058	24.23
882.23	42.67
882.402	20.14
882.574	-8.53
882.746	13.99
882.918	71.34
883.09	-26.96
883.262	18.09
883.434	-4.44
883.606	-35.16
883.778	18.09
883.95	26.28
884.122	-55.64
884.293	63.15
884.465	-47.44
884.637	-8.53
884.809	7.85
884.98	-55.64
885.152	65.19
885.324	-6.49
885.496	-4.44
885.667	-22.87
885.839	-115.03
886.011	36.52
886.182	22.19
886.354	71.34
886.525	-26.96
886.697	-16.73
886.869	-10.58
887.04	16.04
887.212	-6.49
887.383	-35.16
887.555	24.23
887.726	-24.92
887.897	-26.96
888.069	18.09
888.24	-0.34
888.412	-49.49
888.583	46.76
888.754	-14.68
888.926	-98.64
889.097	13.99
889.268	-16.73
889.44	24.23
889.611	-4.44
889.782	-24.92
889.953	-20.82
890.125	26.28
890.296	-63.83
890.467	5.8
890.638	18.09
890.809	-2.39
890.98	30.38
891.151	-10.58
891.323	26.28
891.494	1.71
891.665	-22.87
891.836	16.04
892.007	5.8
892.178	34.47
892.349	-24.92
892.52	24.23
892.691	-12.63
892.862	-22.87
893.032	-6.49
893.203	-22.87
893.374	-43.35
893.545	59.05
893.716	91.82
893.887	71.34
894.057	9.9
894.228	42.67
894.399	28.33
894.57	1.71
894.74	28.33
894.911	-12.63
895.082	40.62
895.253	46.76
895.423	-33.11
895.594	-4.44
895.764	24.23
895.935	-47.44
896.106	26.28
896.276	32.43
896.447	-84.31
896.617	28.33
896.788	-51.54
896.958	5.8
897.129	22.19
897.299	-67.92
897.47	34.47
897.64	26.28
897.81	28.33
897.981	1.71
898.151	1.71
898.322	-18.77
898.492	20.14
898.662	13.99
898.832	-88.4
899.003	36.52
899.173	38.57
899.343	50.86
899.513	-10.58
