Data from USB4F104151__94__10-24-30-788.txt Node

Date: Wed Mar 12 10:24:30 EDT 2025
User: louis
Spectrometer: USB4F10415
Trigger mode: 4
Integration Time (sec): 3.000000E-2
Scans to average: 1
Electric dark correction enabled: true
Nonlinearity correction enabled: false
Boxcar width: 0
XAxis mode: Wavelengths
Number of Pixels in Spectrum: 3648
>>>>>Begin Spectral Data<<<<<
178.204	-161.62
178.424	-161.62
178.644	-161.62
178.864	-79.7
179.084	-110.42
179.304	-5.97
179.524	-20.31
179.744	-24.4
179.964	-30.55
180.184	-8.02
180.404	30.89
180.624	51.37
180.844	26.79
181.064	-36.69
181.283	-3.93
181.503	-28.5
181.723	49.32
181.943	-57.17
182.163	110.76
182.383	10.41
182.602	37.03
182.822	86.19
183.042	43.18
183.262	-3.93
183.482	28.84
183.701	-42.84
183.921	69.8
184.141	-44.88
184.361	53.42
184.58	10.41
184.8	69.8
185.02	-24.4
185.239	22.7
185.459	-22.36
185.679	121
185.898	-51.03
186.118	100.52
186.338	0.17
186.557	51.37
186.777	75.95
186.997	12.46
187.216	-65.36
187.436	80.04
187.655	37.03
187.875	-10.07
188.095	16.55
188.314	26.79
188.534	43.18
188.753	51.37
188.973	37.03
189.192	32.94
189.412	49.32
189.631	8.36
189.851	61.61
190.07	57.51
190.29	-81.75
190.509	73.9
190.729	-22.36
190.948	129.19
191.168	159.91
191.387	106.67
191.607	8.36
191.826	112.81
192.045	34.99
192.265	-38.74
192.484	28.84
192.704	39.08
192.923	-12.12
193.142	-48.98
193.362	4.27
193.581	47.27
193.8	26.79
194.02	69.8
194.239	34.99
194.458	116.9
194.678	14.51
194.897	4.27
195.116	6.31
195.335	-1.88
195.555	51.37
195.774	-28.5
195.993	61.61
196.212	-14.17
196.432	65.71
196.651	43.18
196.87	-1.88
197.089	100.52
197.308	-20.31
197.528	20.65
197.747	-87.89
197.966	43.18
198.185	61.61
198.404	-3.93
198.623	6.31
198.842	6.31
199.062	73.9
199.281	98.47
199.5	-12.12
199.719	12.46
199.938	26.79
200.157	118.95
200.376	26.79
200.595	98.47
200.814	-3.93
201.033	51.37
201.252	-3.93
201.471	39.08
201.69	63.66
201.909	-34.64
202.128	-42.84
202.347	61.61
202.566	-28.5
202.785	16.55
203.004	-30.55
203.223	49.32
203.442	4.27
203.661	24.75
203.879	45.23
204.098	-5.97
204.317	-1.88
204.536	51.37
204.755	10.41
204.974	59.56
205.193	69.8
205.411	94.38
205.63	77.99
205.849	94.38
206.068	-28.5
206.287	8.36
206.505	-20.31
206.724	59.56
206.943	24.75
207.162	16.55
207.381	-8.02
207.599	-30.55
207.818	47.27
208.037	84.14
208.255	104.62
208.474	24.75
208.693	16.55
208.911	39.08
209.13	24.75
209.349	28.84
209.567	71.85
209.786	-14.17
210.005	100.52
210.223	73.9
210.442	-12.12
210.661	75.95
210.879	-3.93
211.098	73.9
211.316	24.75
211.535	20.65
211.753	24.75
211.972	63.66
212.191	26.79
212.409	75.95
212.628	28.84
212.846	28.84
213.065	30.89
213.283	16.55
213.502	-5.97
213.72	49.32
213.938	2.22
214.157	32.94
214.375	39.08
214.594	-12.12
214.812	53.42
215.031	32.94
215.249	0.17
215.467	16.55
215.686	4.27
215.904	32.94
216.122	51.37
216.341	80.04
216.559	-38.74
216.778	57.51
216.996	65.71
217.214	61.61
217.432	-26.45
217.651	-8.02
217.869	53.42
218.087	-36.69
218.306	-3.93
218.524	16.55
218.742	-26.45
218.96	34.99
219.179	39.08
219.397	-24.4
219.615	102.57
219.833	6.31
220.051	-1.88
220.27	112.81
220.488	37.03
220.706	34.99
220.924	26.79
221.142	-14.17
221.36	77.99
221.578	77.99
221.796	-61.27
222.015	-40.79
222.233	67.75
222.451	12.46
222.669	26.79
222.887	0.17
223.105	-16.21
223.323	116.9
223.541	22.7
223.759	67.75
223.977	28.84
224.195	18.6
224.413	18.6
224.631	-3.93
224.849	-16.21
225.067	65.71
225.285	32.94
225.503	-46.93
225.721	-8.02
225.939	43.18
226.157	37.03
226.375	41.13
226.592	-8.02
226.81	-8.02
227.028	47.27
227.246	71.85
227.464	-14.17
227.682	43.18
227.9	67.75
228.117	53.42
228.335	0.17
228.553	49.32
228.771	12.46
228.989	14.51
229.206	4.27
229.424	118.95
229.642	-63.32
229.86	-59.22
230.077	37.03
230.295	-3.93
230.513	67.75
230.731	84.14
230.948	77.99
231.166	57.51
231.384	18.6
231.601	45.23
231.819	2.22
232.037	65.71
232.254	-81.75
232.472	14.51
232.689	45.23
232.907	57.51
233.125	37.03
233.342	98.47
233.56	-3.93
233.777	-3.93
233.995	4.27
234.213	98.47
234.43	90.28
234.648	-10.07
234.865	26.79
235.083	139.43
235.3	16.55
235.518	-26.45
235.735	34.99
235.953	43.18
236.17	51.37
236.388	2.22
236.605	-20.31
236.822	41.13
237.04	102.57
237.257	24.75
237.475	34.99
237.692	45.23
237.909	88.23
238.127	51.37
238.344	102.57
238.562	86.19
238.779	-14.17
238.996	-18.26
239.214	43.18
239.431	104.62
239.648	-3.93
239.865	10.41
240.083	65.71
240.3	-1.88
240.517	-1.88
240.735	61.61
240.952	8.36
241.169	22.7
241.386	49.32
241.603	-46.93
241.821	20.65
242.038	-14.17
242.255	96.43
242.472	41.13
242.689	-3.93
242.907	24.75
243.124	55.47
243.341	14.51
243.558	-5.97
243.775	-34.64
243.992	32.94
244.209	20.65
244.426	51.37
244.643	22.7
244.86	43.18
245.078	63.66
245.295	77.99
245.512	20.65
245.729	-1.88
245.946	65.71
246.163	-8.02
246.38	6.31
246.597	12.46
246.814	8.36
247.031	8.36
247.248	92.33
247.464	32.94
247.681	65.71
247.898	2.22
248.115	57.51
248.332	41.13
248.549	75.95
248.766	69.8
248.983	51.37
249.2	53.42
249.417	20.65
249.633	18.6
249.85	39.08
250.067	-22.36
250.284	114.86
250.501	45.23
250.717	92.33
250.934	34.99
251.151	-12.12
251.368	-20.31
251.585	47.27
251.801	53.42
252.018	2.22
252.235	55.47
252.451	45.23
252.668	59.56
252.885	37.03
253.102	0.17
253.318	-20.31
253.535	10.41
253.752	22.7
253.968	32.94
254.185	61.61
254.401	37.03
254.618	32.94
254.835	6.31
255.051	30.89
255.268	4.27
255.484	41.13
255.701	22.7
255.917	69.8
256.134	28.84
256.351	16.55
256.567	53.42
256.784	59.56
257	-38.74
257.217	-12.12
257.433	51.37
257.65	34.99
257.866	-24.4
258.082	-42.84
258.299	12.46
258.515	-1.88
258.732	69.8
258.948	-61.27
259.165	37.03
259.381	-18.26
259.597	57.51
259.814	-12.12
260.03	71.85
260.246	90.28
260.463	86.19
260.679	73.9
260.895	157.86
261.112	84.14
261.328	-16.21
261.544	-32.6
261.761	155.82
261.977	-32.6
262.193	-77.65
262.409	82.09
262.626	26.79
262.842	43.18
263.058	-36.69
263.274	24.75
263.49	34.99
263.707	125.1
263.923	24.75
264.139	-16.21
264.355	53.42
264.571	88.23
264.787	28.84
265.004	57.51
265.22	-1.88
265.436	6.31
265.652	12.46
265.868	61.61
266.084	28.84
266.3	37.03
266.516	-118.61
266.732	16.55
266.948	61.61
267.164	37.03
267.38	18.6
267.596	53.42
267.812	67.75
268.028	86.19
268.244	6.31
268.46	80.04
268.676	24.75
268.892	127.14
269.108	-20.31
269.324	51.37
269.54	18.6
269.756	45.23
269.972	-137.04
270.188	49.32
270.403	-53.08
270.619	84.14
270.835	80.04
271.051	28.84
271.267	2.22
271.483	2.22
271.698	69.8
271.914	24.75
272.13	61.61
272.346	41.13
272.562	59.56
272.777	92.33
272.993	-3.93
273.209	14.51
273.425	67.75
273.64	20.65
273.856	16.55
274.072	30.89
274.287	28.84
274.503	-34.64
274.719	69.8
274.934	-16.21
275.15	8.36
275.366	16.55
275.581	4.27
275.797	20.65
276.012	51.37
276.228	8.36
276.444	41.13
276.659	53.42
276.875	-5.97
277.09	73.9
277.306	45.23
277.521	100.52
277.737	63.66
277.952	49.32
278.168	84.14
278.383	71.85
278.599	61.61
278.814	133.29
279.03	37.03
279.245	108.71
279.461	37.03
279.676	26.79
279.892	-63.32
280.107	45.23
280.322	73.9
280.538	92.33
280.753	-18.26
280.969	73.9
281.184	65.71
281.399	0.17
281.615	-32.6
281.83	16.55
282.045	18.6
282.26	37.03
282.476	55.47
282.691	47.27
282.906	125.1
283.122	41.13
283.337	14.51
283.552	0.17
283.767	96.43
283.983	20.65
284.198	32.94
284.413	37.03
284.628	-53.08
284.843	43.18
285.058	-12.12
285.274	-42.84
285.489	4.27
285.704	53.42
285.919	0.17
286.134	6.31
286.349	37.03
286.564	-5.97
286.779	108.71
286.995	77.99
287.21	14.51
287.425	45.23
287.64	-24.4
287.855	41.13
288.07	80.04
288.285	98.47
288.5	82.09
288.715	45.23
288.93	16.55
289.145	30.89
289.36	43.18
289.575	41.13
289.79	20.65
290.004	-10.07
290.219	51.37
290.434	10.41
290.649	57.51
290.864	-26.45
291.079	61.61
291.294	37.03
291.509	24.75
291.724	61.61
291.938	-22.36
292.153	67.75
292.368	-30.55
292.583	18.6
292.798	84.14
293.012	34.99
293.227	49.32
293.442	-28.5
293.657	18.6
293.871	84.14
294.086	8.36
294.301	-10.07
294.516	45.23
294.73	-12.12
294.945	-16.21
295.16	59.56
295.374	116.9
295.589	34.99
295.804	22.7
296.018	39.08
296.233	116.9
296.447	26.79
296.662	-24.4
296.877	2.22
297.091	41.13
297.306	45.23
297.52	45.23
297.735	-34.64
297.949	51.37
298.164	-3.93
298.378	8.36
298.593	69.8
298.807	-20.31
299.022	45.23
299.236	100.52
299.451	2.22
299.665	88.23
299.88	18.6
300.094	0.17
300.309	37.03
300.523	82.09
300.737	-14.17
300.952	59.56
301.166	45.23
301.381	55.47
301.595	41.13
301.809	57.51
302.024	61.61
302.238	59.56
302.452	10.41
302.667	45.23
302.881	69.8
303.095	34.99
303.309	30.89
303.524	-28.5
303.738	57.51
303.952	-20.31
304.166	94.38
304.381	14.51
304.595	135.34
304.809	-40.79
305.023	28.84
305.237	39.08
305.452	-20.31
305.666	82.09
305.88	18.6
306.094	-22.36
306.308	110.76
306.522	32.94
306.736	28.84
306.95	47.27
307.164	12.46
307.379	65.71
307.593	149.67
307.807	82.09
308.021	73.9
308.235	26.79
308.449	14.51
308.663	100.52
308.877	125.1
309.091	-16.21
309.305	77.99
309.519	-12.12
309.733	133.29
309.947	-16.21
310.161	53.42
310.374	12.46
310.588	71.85
310.802	-34.64
311.016	47.27
311.23	-8.02
311.444	-34.64
311.658	20.65
311.872	4.27
312.085	37.03
312.299	94.38
312.513	67.75
312.727	37.03
312.941	20.65
313.154	71.85
313.368	84.14
313.582	32.94
313.796	94.38
314.009	53.42
314.223	-1.88
314.437	65.71
314.651	53.42
314.864	45.23
315.078	24.75
315.292	34.99
315.505	-10.07
315.719	32.94
315.933	20.65
316.146	24.75
316.36	-24.4
316.573	82.09
316.787	45.23
317.001	49.32
317.214	-67.41
317.428	-30.55
317.641	22.7
317.855	84.14
318.068	20.65
318.282	-22.36
318.495	125.1
318.709	20.65
318.922	28.84
319.136	127.14
319.349	106.67
319.563	30.89
319.776	-8.02
319.99	14.51
320.203	30.89
320.417	24.75
320.63	12.46
320.843	47.27
321.057	98.47
321.27	10.41
321.483	69.8
321.697	12.46
321.91	61.61
322.124	94.38
322.337	84.14
322.55	30.89
322.763	30.89
322.977	47.27
323.19	0.17
323.403	-16.21
323.617	75.95
323.83	-16.21
324.043	-8.02
324.256	37.03
324.469	8.36
324.683	55.47
324.896	61.61
325.109	61.61
325.322	10.41
325.535	41.13
325.748	28.84
325.962	41.13
326.175	0.17
326.388	49.32
326.601	43.18
326.814	37.03
327.027	12.46
327.24	82.09
327.453	45.23
327.666	65.71
327.879	30.89
328.092	26.79
328.305	53.42
328.518	-3.93
328.731	-20.31
328.944	67.75
329.157	-8.02
329.37	39.08
329.583	100.52
329.796	37.03
330.009	-18.26
330.222	53.42
330.435	26.79
330.648	8.36
330.861	53.42
331.073	88.23
331.286	57.51
331.499	75.95
331.712	-46.93
331.925	4.27
332.138	61.61
332.35	125.1
332.563	51.37
332.776	20.65
332.989	61.61
333.202	90.28
333.414	22.7
333.627	51.37
333.84	37.03
334.053	-28.5
334.265	12.46
334.478	39.08
334.691	53.42
334.903	92.33
335.116	61.61
335.329	18.6
335.541	112.81
335.754	51.37
335.966	-18.26
336.179	75.95
336.392	61.61
336.604	53.42
336.817	61.61
337.029	43.18
337.242	28.84
337.454	12.46
337.667	45.23
337.88	84.14
338.092	65.71
338.305	32.94
338.517	-5.97
338.729	30.89
338.942	59.56
339.154	14.51
339.367	20.65
339.579	20.65
339.792	63.66
340.004	69.8
340.217	143.53
340.429	-3.93
340.641	-3.93
340.854	18.6
341.066	16.55
341.278	28.84
341.491	104.62
341.703	20.65
341.915	8.36
342.128	18.6
342.34	121
342.552	45.23
342.764	37.03
342.977	24.75
343.189	18.6
343.401	-32.6
343.613	90.28
343.826	32.94
344.038	-3.93
344.25	59.56
344.462	2.22
344.674	100.52
344.886	34.99
345.099	-12.12
345.311	0.17
345.523	65.71
345.735	-53.08
345.947	69.8
346.159	32.94
346.371	96.43
346.583	57.51
346.795	102.57
347.007	10.41
347.219	86.19
347.431	-36.69
347.643	80.04
347.855	51.37
348.067	53.42
348.279	41.13
348.491	75.95
348.703	-12.12
348.915	65.71
349.127	61.61
349.339	0.17
349.551	59.56
349.763	88.23
349.975	28.84
350.187	77.99
350.399	57.51
350.61	47.27
350.822	125.1
351.034	94.38
351.246	12.46
351.458	100.52
351.669	28.84
351.881	51.37
352.093	100.52
352.305	53.42
352.517	-1.88
352.728	86.19
352.94	61.61
353.152	80.04
353.363	34.99
353.575	98.47
353.787	90.28
353.999	45.23
354.21	73.9
354.422	-30.55
354.633	84.14
354.845	71.85
355.057	51.37
355.268	102.57
355.48	121
355.692	59.56
355.903	77.99
356.115	-16.21
356.326	41.13
356.538	67.75
356.749	102.57
356.961	8.36
357.172	-14.17
357.384	-48.98
357.595	129.19
357.807	0.17
358.018	37.03
358.23	80.04
358.441	82.09
358.653	98.47
358.864	28.84
359.075	20.65
359.287	77.99
359.498	-8.02
359.709	86.19
359.921	63.66
360.132	57.51
360.344	75.95
360.555	8.36
360.766	28.84
360.977	-12.12
361.189	100.52
361.4	75.95
361.611	67.75
361.823	10.41
362.034	96.43
362.245	4.27
362.456	61.61
362.667	75.95
362.879	4.27
363.09	37.03
363.301	49.32
363.512	82.09
363.723	-44.88
363.935	45.23
364.146	110.76
364.357	24.75
364.568	51.37
364.779	10.41
364.99	57.51
365.201	75.95
365.412	53.42
365.623	-12.12
365.834	166.06
366.045	69.8
366.256	2.22
366.467	86.19
366.678	-16.21
366.889	32.94
367.1	69.8
367.311	12.46
367.522	37.03
367.733	65.71
367.944	43.18
368.155	24.75
368.366	43.18
368.577	98.47
368.788	61.61
368.999	-44.88
369.209	75.95
369.42	61.61
369.631	100.52
369.842	75.95
370.053	90.28
370.264	71.85
370.474	41.13
370.685	57.51
370.896	-44.88
371.107	32.94
371.317	65.71
371.528	86.19
371.739	24.75
371.95	41.13
372.16	129.19
372.371	37.03
372.582	65.71
372.792	30.89
373.003	45.23
373.214	86.19
373.424	41.13
373.635	49.32
373.846	98.47
374.056	84.14
374.267	125.1
374.477	69.8
374.688	112.81
374.898	-3.93
375.109	69.8
375.319	49.32
375.53	94.38
375.74	2.22
375.951	-18.26
376.161	80.04
376.372	65.71
376.582	69.8
376.793	127.14
377.003	4.27
377.214	20.65
377.424	-26.45
377.635	37.03
377.845	65.71
378.055	110.76
378.266	22.7
378.476	49.32
378.686	88.23
378.897	37.03
379.107	92.33
379.317	37.03
379.528	-5.97
379.738	125.1
379.948	14.51
380.158	123.05
380.369	96.43
380.579	123.05
380.789	45.23
380.999	69.8
381.21	75.95
381.42	34.99
381.63	67.75
381.84	75.95
382.05	90.28
382.261	123.05
382.471	69.8
382.681	69.8
382.891	82.09
383.101	94.38
383.311	94.38
383.521	37.03
383.731	55.47
383.941	155.82
384.151	57.51
384.361	104.62
384.571	86.19
384.781	59.56
384.991	98.47
385.201	96.43
385.411	47.27
385.621	71.85
385.831	77.99
386.041	80.04
386.251	67.75
386.461	114.86
386.671	32.94
386.881	104.62
387.091	94.38
387.301	114.86
387.511	53.42
387.72	118.95
387.93	100.52
388.14	73.9
388.35	155.82
388.56	69.8
388.769	110.76
388.979	82.09
389.189	22.7
389.399	47.27
389.609	69.8
389.818	184.49
390.028	26.79
390.238	98.47
390.447	90.28
390.657	84.14
390.867	77.99
391.076	67.75
391.286	108.71
391.496	98.47
391.705	34.99
391.915	106.67
392.125	123.05
392.334	77.99
392.544	106.67
392.753	77.99
392.963	133.29
393.172	151.72
393.382	77.99
393.591	164.01
393.801	14.51
394.01	157.86
394.22	92.33
394.429	24.75
394.639	80.04
394.848	67.75
395.058	63.66
395.267	65.71
395.477	104.62
395.686	49.32
395.895	118.95
396.105	170.15
396.314	116.9
396.524	61.61
396.733	77.99
396.942	141.48
397.152	90.28
397.361	108.71
397.57	106.67
397.78	127.14
397.989	172.2
398.198	164.01
398.407	84.14
398.617	131.24
398.826	51.37
399.035	151.72
399.244	184.49
399.453	172.2
399.663	106.67
399.872	110.76
400.081	82.09
400.29	204.97
400.499	116.9
400.708	121
400.917	59.56
401.127	164.01
401.336	123.05
401.545	121
401.754	139.43
401.963	247.97
402.172	198.82
402.381	139.43
402.59	127.14
402.799	221.35
403.008	176.3
403.217	172.2
403.426	176.3
403.635	143.53
403.844	102.57
404.053	139.43
404.262	182.44
404.471	190.63
404.68	180.39
404.888	155.82
405.097	196.78
405.306	88.23
405.515	211.11
405.724	196.78
405.933	227.5
406.142	260.26
406.35	190.63
406.559	151.72
406.768	233.64
406.977	256.17
407.185	305.32
407.394	204.97
407.603	174.25
407.812	305.32
408.02	309.41
408.229	229.54
408.438	266.41
408.646	247.97
408.855	315.56
409.064	268.45
409.272	280.74
409.481	340.13
409.69	348.33
409.898	286.89
410.107	342.18
410.315	352.42
410.524	360.61
410.733	379.04
410.941	405.67
411.15	475.3
411.358	430.24
411.567	483.49
411.775	479.4
411.984	446.63
412.192	450.72
412.401	532.64
412.609	524.45
412.818	551.07
413.026	592.03
413.234	725.15
413.443	680.1
413.651	583.84
413.86	737.44
414.068	655.52
414.276	721.06
414.485	688.29
414.693	743.58
414.901	729.25
415.11	802.97
415.318	829.6
415.526	876.7
415.734	817.31
415.943	936.09
416.151	927.9
416.359	923.8
416.567	1050.78
416.776	1071.26
416.984	1038.49
417.192	1257.62
417.4	1179.8
417.608	1206.42
417.817	1247.38
418.025	1296.53
418.233	1415.32
418.441	1372.31
418.649	1427.6
418.857	1509.52
419.065	1548.44
419.273	1613.97
419.481	1652.88
419.689	1841.29
419.897	1728.66
420.105	1769.62
420.313	1857.68
420.521	1992.84
420.729	1933.45
420.937	2027.66
421.145	2111.63
421.353	2273.42
421.561	2222.22
421.769	2314.38
421.977	2422.92
422.185	2537.6
422.393	2484.36
422.601	2807.94
422.809	2674.82
423.017	2836.61
423.224	2865.28
423.432	3000.44
423.64	2959.49
423.848	3180.67
424.056	3197.05
424.263	3481.72
424.471	3301.5
424.679	3475.57
424.887	3672.18
425.094	3743.86
425.302	3803.25
425.51	3928.17
425.718	4108.4
425.925	4018.29
426.133	4272.23
426.341	4554.85
426.548	4624.48
426.756	4663.4
426.964	4673.64
427.171	4816.99
427.379	5056.61
427.586	5206.11
427.794	5490.77
428.001	5587.03
428.209	5800.02
428.417	5677.14
428.624	6205.52
428.832	6297.67
429.039	6207.56
429.247	6164.56
429.454	6570.05
429.662	7153.73
429.869	6768.71
430.076	7211.07
430.284	7004.22
430.491	7313.47
430.699	7790.64
430.906	7721.01
431.114	7749.68
431.321	8134.7
431.528	8214.57
431.736	8785.96
431.943	9134.11
432.15	8908.83
432.358	8978.47
432.565	9566.23
432.772	9535.51
432.979	9943.06
433.187	10018.83
433.394	10067.99
433.601	10768.39
433.808	10854.41
434.016	10635.27
434.223	11421.69
434.43	12107.76
434.637	11687.93
434.844	12527.6
435.052	12804.07
435.259	12509.16
435.466	12754.92
435.673	12664.81
435.88	13502.43
436.087	14147.54
436.294	14290.9
436.501	13676.51
436.708	14131.16
436.915	14280.66
437.122	15155.14
437.329	14723.02
437.537	15544.25
437.743	16043.96
437.95	15816.63
438.157	16517.04
438.364	17364.9
438.571	17055.65
438.778	17014.7
438.985	18728.84
439.192	17784.73
439.399	18583.44
439.606	18208.66
439.813	19261.32
440.02	20221.81
440.227	19750.78
440.433	19908.47
440.64	20557.68
440.847	20301.68
441.054	20631.41
441.261	22021.98
441.467	21735.26
441.674	22300.5
441.881	23177.03
442.088	22898.51
442.294	22753.1
442.501	23502.66
442.708	23887.68
442.914	24878.9
443.121	25777.95
443.328	25116.46
443.534	26892.05
443.741	26107.68
443.948	25745.19
444.154	27563.78
444.361	27557.64
444.568	27715.33
444.774	27367.18
444.981	28143.36
445.187	28624.63
445.394	30260.96
445.6	29755.11
445.807	32456.38
446.013	30779.09
446.22	31684.3
446.426	32761.53
446.633	33107.63
446.839	34076.32
447.046	32284.35
447.252	34447.01
447.459	34743.96
447.665	34213.54
447.871	35821.19
448.078	37135.99
448.284	35395.21
448.491	36388.48
448.697	37817.96
448.903	38286.95
449.11	38413.92
449.316	37824.11
449.522	38153.83
449.728	38936.15
449.935	39499.34
450.141	39409.23
450.347	40394.31
450.553	39308.88
450.76	39644.75
450.966	40482.37
451.172	40191.56
451.378	41422.39
451.584	40496.7
451.791	41571.89
451.997	41016.89
452.203	41717.29
452.409	41850.41
452.615	41627.18
452.821	39820.88
453.027	39753.29
453.233	41965.1
453.44	40048.2
453.646	40298.05
453.852	40633.92
454.058	41094.71
454.264	39886.41
454.47	41129.53
454.676	39788.11
454.882	40994.36
455.088	37332.59
455.294	38102.63
455.5	38245.99
455.705	38946.39
455.911	37275.25
456.117	36599.42
456.323	35542.67
456.529	33994.4
456.735	35354.26
456.941	34825.88
457.147	34090.66
457.352	33115.83
457.558	32532.15
457.764	32800.44
457.97	31901.38
458.176	31069.9
458.381	31284.94
458.587	29603.56
458.793	29462.25
458.999	28497.66
459.204	30099.17
459.41	29517.54
459.616	27655.94
459.821	27684.61
460.027	27416.33
460.233	26605.33
460.438	25542.44
460.644	25976.61
460.85	24659.76
461.055	24198.97
461.261	24340.28
461.466	22304.6
461.672	21673.82
461.878	23129.93
462.083	21739.36
462.289	21366.63
462.494	21206.89
462.7	20494.19
462.905	19591.04
463.111	20361.08
463.316	20320.12
463.522	20105.08
463.727	20184.95
463.932	20045.69
464.138	20021.11
464.343	19892.09
464.549	19240.84
464.754	20117.37
464.959	19879.8
465.165	19576.7
465.37	18831.24
465.575	18446.23
465.781	19208.07
465.986	19439.49
466.191	18476.94
466.397	18055.06
466.602	17092.52
466.807	18063.26
467.012	17926.04
467.218	18022.3
467.423	17649.57
467.628	17799.07
467.833	18380.69
468.038	17729.44
468.244	17428.38
468.449	17975.19
468.654	17493.92
468.859	17162.15
469.064	17059.75
469.269	16529.33
469.474	16355.25
469.679	17018.79
469.885	16091.06
470.09	16723.88
470.295	16525.23
470.5	15949.75
470.705	16062.39
470.91	15892.41
471.115	15679.42
471.32	15798.2
471.525	15652.8
471.73	15474.62
471.935	15398.85
472.139	14667.72
472.344	15013.83
472.549	15017.93
472.754	14729.16
472.959	14544.84
473.164	14004.18
473.369	13862.87
473.574	14489.55
473.778	14301.14
473.983	14163.92
474.188	13842.39
474.393	13506.52
474.598	13551.58
474.802	13434.85
475.007	13287.39
475.212	13492.19
475.417	12834.79
475.621	12740.58
475.826	12814.31
476.031	12548.08
476.235	12474.35
476.44	12609.51
476.645	12320.75
476.849	12400.62
477.054	12062.71
477.259	11976.69
477.463	11892.73
477.668	11657.21
477.872	11716.6
478.077	11528.19
478.282	11429.88
478.486	11329.53
478.691	11268.09
478.895	11245.57
479.1	11130.88
479.304	11276.29
479.509	10850.31
479.713	11182.08
479.918	10799.11
480.122	10786.82
480.326	10901.51
480.531	10827.78
480.735	10553.35
480.94	10653.7
481.144	11042.82
481.348	10473.48
481.553	10584.07
481.757	10059.79
481.961	10467.34
482.166	10614.79
482.37	10516.49
482.574	10186.77
482.778	10266.64
482.983	10498.06
483.187	10360.84
483.391	10199.06
483.595	10387.47
483.8	10334.22
484.004	10268.69
484.208	10530.83
484.412	10366.99
484.616	10352.65
484.821	10422.28
485.025	10117.14
485.229	10285.07
485.433	10268.69
485.637	10391.56
485.841	10330.13
486.045	10199.06
486.249	10217.49
486.453	10184.72
486.657	10315.79
486.861	10399.76
487.065	10147.86
487.269	10307.6
487.473	10115.09
487.677	10135.57
487.881	10366.99
488.085	10366.99
488.289	10262.54
488.493	10270.73
488.697	10373.13
488.901	10551.31
489.105	10276.88
489.309	10481.67
489.512	10502.15
489.716	10428.43
489.92	10489.87
490.124	10539.02
490.328	10815.49
490.531	10410
490.735	10719.24
490.939	10536.97
491.143	10575.88
491.346	10706.95
491.55	10846.21
491.754	10829.83
491.958	10907.65
492.161	10721.29
492.365	10973.19
492.569	10876.93
492.772	10831.88
492.976	10991.62
493.18	11184.13
493.383	11210.75
493.587	11130.88
493.79	11417.6
493.994	11198.46
494.197	11399.16
494.401	11456.51
494.605	11419.64
494.808	11608.06
495.012	11749.37
495.215	11622.39
495.419	12118
495.622	11894.77
495.825	12167.15
496.029	12222.45
496.232	12138.48
496.436	12036.08
496.639	12652.52
496.843	12386.29
497.046	12632.04
497.249	12877.8
497.453	12912.61
497.656	12920.81
497.859	13211.62
498.063	13479.9
498.266	13694.94
498.469	13334.5
498.673	13484
498.876	14024.66
499.079	14161.87
499.282	13838.3
499.485	14512.08
499.689	14270.42
499.892	14804.94
500.095	14428.11
500.298	15118.28
500.501	14714.83
500.705	15159.24
500.908	15255.49
501.111	15466.43
501.314	15687.61
501.517	15935.42
501.72	16132.02
501.923	15980.47
502.126	16318.39
502.329	16654.25
502.532	16777.13
502.735	16949.16
502.938	17133.48
503.141	17307.55
503.344	17491.87
503.547	17891.23
503.75	17790.88
503.953	17872.79
504.156	18466.7
504.359	18259.86
504.562	18556.82
504.765	18898.83
504.968	18986.89
505.17	19398.53
505.373	19208.07
505.576	19754.88
505.779	19814.27
505.982	19840.89
506.185	20545.39
506.387	20422.52
506.59	20813.68
506.793	20893.55
506.996	21018.47
507.198	21249.89
507.401	21600.1
507.604	21679.97
507.807	22021.98
508.009	22157.14
508.212	22607.7
508.415	22871.89
508.617	23105.35
508.82	23097.16
509.022	22998.86
509.225	23838.53
509.428	23568.2
509.63	23734.08
509.833	24237.88
510.035	24590.13
510.238	24858.42
510.44	24979.25
510.643	25278.25
510.845	25487.14
511.048	25339.69
511.25	26036
511.453	26074.91
511.655	27115.28
511.858	26464.02
512.06	27051.79
512.262	27270.92
512.465	27305.74
512.667	27807.49
512.87	28022.53
513.072	28305.15
513.274	28755.7
513.477	28894.96
513.679	28833.52
513.881	29175.53
514.084	29812.45
514.286	29583.08
514.488	29843.17
514.69	30736.09
514.893	30865.11
515.095	30590.68
515.297	31354.57
515.499	31483.59
515.701	31850.18
515.904	31727.3
516.106	32325.31
516.308	32939.7
516.51	33238.7
516.712	33234.61
516.914	33578.67
517.116	34010.79
517.318	34262.69
517.52	34602.65
517.722	34391.71
517.925	34651.8
518.127	35499.66
518.329	35851.91
518.531	35303.06
518.733	36304.51
518.935	36601.47
519.136	36652.67
519.338	37117.56
519.54	37066.36
519.742	37783.15
519.944	37885.54
520.146	38510.18
520.348	38446.69
520.55	38803.03
520.752	38991.45
520.954	39835.21
521.155	39456.34
521.357	40187.46
521.559	40513.09
521.761	41078.33
521.963	40676.93
522.164	41285.17
522.366	41199.16
522.568	41625.14
522.77	41672.24
522.971	41879.08
523.173	41989.67
523.375	42509.86
523.576	42679.84
523.778	43111.96
523.98	43492.88
524.181	43632.14
524.383	43791.89
524.584	44178.95
524.786	44197.38
524.988	44393.99
525.189	44692.99
525.391	45399.54
525.592	45094.39
525.794	45432.31
525.995	45520.37
526.197	45891.05
526.398	45653.49
526.6	46169.58
526.801	46302.7
527.003	46538.21
527.204	46429.67
527.406	46994.91
527.607	46839.26
527.808	47244.76
528.01	46683.62
528.211	46910.94
528.412	47863.25
528.614	47640.02
528.815	48176.59
529.016	48377.29
529.218	47752.66
529.419	48141.77
529.62	48319.95
529.822	48254.41
530.023	48309.71
530.224	48604.61
530.425	48762.31
530.626	48633.28
530.828	48395.72
531.029	49296.83
531.23	48784.83
531.431	48774.59
531.632	49190.33
531.833	49436.09
532.035	48948.67
532.236	49399.22
532.437	49462.71
532.638	49206.72
532.839	49642.93
533.04	49534.39
533.241	49149.37
533.442	50443.69
533.643	49634.74
533.844	49464.76
534.045	50060.72
534.246	49337.79
534.447	50005.42
534.648	49780.15
534.849	49968.56
535.05	49726.9
535.251	49939.89
535.451	49989.04
535.652	50382.25
535.853	50013.62
536.054	50386.35
536.255	50156.97
536.456	49243.58
536.657	50316.71
536.857	49640.89
537.058	49552.82
537.259	50558.38
537.46	49968.56
537.66	50087.34
537.861	49878.45
538.062	50193.84
538.263	50304.43
538.463	49943.98
538.664	49929.65
538.865	49872.31
539.065	50214.32
539.266	49948.08
539.466	50574.76
539.667	49878.45
539.868	50490.79
540.068	49962.42
540.269	50369.96
540.469	50398.63
540.67	49649.08
540.87	49980.85
541.071	49755.57
541.271	50286
541.472	49890.74
541.672	49313.21
541.873	49927.6
542.073	49706.42
542.274	50126.25
542.474	49753.52
542.675	49366.46
542.875	50030
543.075	49935.79
543.276	49343.93
543.476	50529.7
543.676	49235.39
543.877	50107.82
544.077	49984.94
544.277	50126.25
544.478	49759.67
544.678	50255.28
544.878	49685.94
545.078	49837.49
545.279	49495.48
545.479	49460.66
545.679	49583.54
545.879	49702.32
546.079	49458.62
546.28	49718.71
546.48	49145.28
546.68	50019.76
546.88	49712.56
547.08	49388.99
547.28	49311.16
547.48	49313.21
547.68	49898.93
547.88	49108.41
548.081	49350.07
548.281	49288.63
548.481	49032.64
548.681	50009.52
548.881	49636.79
549.081	49472.95
549.28	49599.93
549.48	49751.48
549.68	49311.16
549.88	50017.71
550.08	49272.25
550.28	49272.25
550.48	49157.56
550.68	49544.63
550.88	48727.49
551.08	49460.66
551.279	49165.76
551.479	48887.23
551.679	48995.78
551.879	48965.06
552.079	49321.4
552.278	48946.62
552.478	49216.96
552.678	49077.69
552.878	49235.39
553.077	49008.06
553.277	48879.04
553.477	49630.65
553.676	48840.13
553.876	48754.11
554.076	48944.58
554.275	48698.82
554.475	47930.83
554.674	48770.5
554.874	48725.44
555.074	48321.99
555.273	48338.38
555.473	48625.09
555.672	48055.76
555.872	48461.26
556.071	48526.79
556.271	48473.54
556.47	48002.51
556.67	47955.41
556.869	48006.61
557.068	47982.03
557.268	47893.97
557.467	48004.56
557.667	47906.26
557.866	48166.35
558.065	47939.02
558.265	47390.17
558.464	47705.55
558.663	47879.63
558.863	47336.92
559.062	47732.18
559.261	47195.61
559.461	47441.37
559.66	46884.32
559.859	47095.26
560.058	47037.92
560.258	47386.07
560.457	46978.53
560.656	47377.88
560.855	46882.27
561.054	47171.03
561.253	46702.05
561.453	46767.59
561.652	46394.85
561.851	47007.2
562.05	46763.49
562.249	46167.53
562.448	46585.32
562.647	46181.87
562.846	46370.28
563.045	46188.01
563.244	45843.95
563.443	46618.08
563.642	45559.28
563.841	45643.25
564.04	45612.53
564.239	45782.51
564.438	45057.53
564.637	45544.95
564.836	45587.96
565.035	44922.37
565.234	45192.7
565.432	44766.72
565.631	44910.08
565.83	44996.09
566.029	44557.83
566.228	44547.59
566.427	44545.54
566.625	44328.45
566.824	43935.24
567.023	44060.17
567.222	43646.48
567.42	44287.49
567.619	43746.83
567.818	43974.16
568.016	43824.65
568.215	43605.52
568.414	43427.35
568.612	44170.76
568.811	43032.09
569.01	43128.34
569.208	42667.55
569.407	43587.09
569.605	42948.12
569.804	43169.3
570.002	42767.9
570.201	42886.68
570.4	42280.49
570.598	42260.01
570.797	42040.87
570.995	42208.81
571.193	41662
571.392	42354.21
571.59	41444.91
571.789	41461.3
571.987	41612.85
572.186	41172.53
572.384	41479.73
572.582	41395.76
572.781	41799.21
572.979	40754.75
573.177	40992.31
573.376	41096.76
573.574	40549.95
573.772	40795.71
573.971	40373.83
574.169	40255.04
574.367	40003.14
574.565	40379.97
574.763	40066.63
574.962	39915.08
575.16	39775.82
575.358	39523.92
575.556	39654.99
575.754	39759.44
575.952	39087.7
576.151	39573.07
576.349	39018.07
576.547	38934.1
576.745	38899.29
576.943	39143
577.141	38807.13
577.339	38755.93
577.537	38385.25
577.735	38385.25
577.933	38409.82
578.131	38512.22
578.329	38155.88
578.527	38082.15
578.725	37985.9
578.923	38010.47
579.121	37588.59
579.319	37742.19
579.516	37852.78
579.714	37752.43
579.912	37455.47
580.11	37215.86
580.308	37271.15
580.506	37418.61
580.704	36591.23
580.901	36972.15
581.099	37291.63
581.297	36720.25
581.495	36443.77
581.692	36531.84
581.89	36097.67
582.088	36961.91
582.285	36327.04
582.483	36337.28
582.681	36013.7
582.878	36103.81
583.076	35397.26
583.274	35948.17
583.471	35317.39
583.669	35602.06
583.866	35147.41
584.064	35526.28
584.262	35004.05
584.459	35497.61
584.657	34956.95
584.854	35032.72
585.052	34625.18
585.249	35018.39
585.447	34961.05
585.644	34260.64
585.841	34768.54
586.039	34922.13
586.236	34248.35
586.434	34086.56
586.631	33978.02
586.828	34248.35
587.026	34051.75
587.223	33820.33
587.42	33883.81
587.618	34104.99
587.815	33384.11
588.012	33797.8
588.21	33232.56
588.407	33642.15
588.604	33273.52
588.801	33095.35
588.999	32702.14
589.196	32671.42
589.393	32589.5
589.59	32872.12
589.787	32628.41
589.984	32261.82
590.182	31948.48
590.379	32585.4
590.576	32018.11
590.773	32356.03
590.97	31911.62
591.167	31983.3
591.364	31751.88
591.561	32175.81
591.758	31479.5
591.955	31360.72
592.152	31450.83
592.349	31821.51
592.546	31749.83
592.743	31334.09
592.94	30752.47
593.137	30777.05
593.334	31061.71
593.531	31188.69
593.727	30607.06
593.924	30858.96
594.121	30625.5
594.318	30875.35
594.515	29869.79
594.712	30875.35
594.908	30310.11
595.105	30291.68
595.302	29843.17
595.499	30133.98
595.696	29964
595.892	29654.76
596.089	29652.71
596.286	29869.79
596.482	29693.67
596.679	29400.81
596.876	29726.44
597.072	29261.55
597.269	29320.94
597.466	28929.78
597.662	29046.51
597.859	28546.81
598.055	29120.24
598.252	28743.41
598.448	28522.23
598.645	28643.06
598.841	28237.56
599.038	28593.91
599.234	28552.95
599.431	27940.61
599.627	27991.81
599.824	28190.46
600.02	28032.77
600.217	28059.39
600.413	28188.41
600.609	27711.24
600.806	27549.45
601.002	27713.28
601.198	27246.35
601.395	27567.88
601.591	27213.58
601.787	27367.18
601.984	26992.4
602.18	27293.45
602.376	27215.63
602.572	26908.43
602.769	26547.99
602.965	26816.27
603.161	26369.82
603.357	26677.01
603.553	26498.84
603.75	26341.14
603.946	26330.9
604.142	26347.29
604.338	25880.35
604.534	26367.77
604.73	25960.22
604.926	25921.31
605.122	26091.29
605.318	25673.51
605.514	25911.07
605.71	25388.84
605.906	25659.17
606.102	25540.39
606.298	25487.14
606.494	25665.32
606.69	25599.78
606.886	25376.55
607.082	24983.34
607.278	25132.84
607.474	24704.82
607.67	25003.82
607.866	24571.7
608.062	24811.31
608.257	24684.34
608.453	24850.22
608.649	24680.24
608.845	24512.31
609.041	24913.71
609.236	24477.49
609.432	24459.06
609.628	24305.46
609.824	24438.58
610.019	24299.32
610.215	24371
610.411	24129.34
610.606	23945.02
610.802	23793.47
610.998	23936.83
611.193	24151.87
611.389	23748.42
611.584	23975.74
611.78	23420.74
611.976	23840.57
612.171	23760.7
612.367	23633.73
612.562	23566.15
612.758	23381.83
612.953	23543.62
613.149	23543.62
613.344	23144.27
613.539	23678.79
613.735	23502.66
613.93	23412.55
614.126	22662.99
614.321	22953.8
614.517	23252.81
614.712	22740.82
614.907	22765.39
615.103	23029.58
615.298	23076.68
615.493	23271.24
615.688	22363.99
615.884	23316.29
616.079	22333.27
616.274	22777.68
616.47	22699.86
616.665	22501.2
616.86	22597.46
617.055	22544.21
617.25	22194.01
617.445	22423.38
617.641	22290.26
617.836	22169.43
618.031	21729.12
618.226	22488.92
618.421	21890.91
618.616	22228.82
618.811	21385.06
619.006	22148.95
619.201	21602.15
619.396	21612.38
619.591	21229.41
619.786	21796.7
619.981	21229.41
620.176	21116.78
620.371	20864.88
620.566	21233.51
620.761	20672.37
620.956	21092.2
621.151	20721.52
621.346	21118.82
621.541	20430.71
621.735	20438.9
621.93	20240.25
622.125	20442.99
622.32	19998.59
622.515	20328.31
622.709	20258.68
622.904	19965.82
623.099	19836.8
623.294	19871.61
623.488	19609.47
623.683	19761.02
623.878	19380.1
624.072	19488.64
624.267	19496.83
624.462	19095.43
624.656	19144.58
624.851	19146.63
625.046	18937.74
625.24	18640.78
625.435	18581.39
625.629	18356.11
625.824	18368.4
626.018	18624.4
626.213	18212.76
626.407	18167.7
626.602	18192.28
626.796	18247.57
626.991	18184.09
627.185	17991.58
627.38	17594.27
627.574	17633.18
627.768	17481.63
627.963	17235.88
628.157	17446.82
628.352	17379.23
628.546	16945.06
628.74	17399.71
628.935	16684.97
629.129	16906.15
629.323	16809.9
629.517	16717.74
629.712	16621.49
629.906	16582.57
630.1	16283.57
630.294	16342.96
630.489	16365.49
630.683	16375.73
630.877	15998.9
631.071	15898.55
631.265	15761.34
631.459	15650.75
631.653	15820.73
631.848	15630.27
632.042	15744.95
632.236	15706.04
632.43	15484.86
632.624	15370.18
632.818	15372.22
633.012	14964.68
633.206	15200.19
633.4	14950.34
633.594	14899.14
633.788	14798.79
633.982	14954.44
634.176	14888.9
634.369	14659.53
634.563	14788.55
634.757	14335.95
634.951	14393.3
635.145	14254.03
635.339	14505.93
635.533	14225.36
635.726	14026.71
635.92	13959.13
636.114	14039
636.308	13905.88
636.501	13832.15
636.695	13760.47
636.889	13735.9
637.083	13660.12
637.276	13651.93
637.47	13598.68
637.664	13283.3
637.857	13375.45
638.051	13174.75
638.244	13279.2
638.438	13322.21
638.632	12957.67
638.825	12779.5
639.019	13096.93
639.212	12855.27
639.406	12505.07
639.599	12675.05
639.793	12742.63
639.986	12369.9
640.18	12666.86
640.373	12523.5
640.567	12148.72
640.76	12300.27
640.954	12181.49
641.147	12122.1
641.34	12167.15
641.534	11823.09
641.727	11988.98
641.92	11890.68
642.114	11741.18
642.307	11698.17
642.5	11716.6
642.694	11552.76
642.887	11552.76
643.08	11579.39
643.273	11239.42
643.467	11427.84
643.66	11137.02
643.853	11118.59
644.046	10967.04
644.239	11274.24
644.432	10954.76
644.626	11069.44
644.819	10586.12
645.012	10989.57
645.205	10848.26
645.398	10840.07
645.591	10614.79
645.784	10901.51
645.977	10604.55
646.17	10561.55
646.363	10467.34
646.556	10457.1
646.749	10418.19
646.942	10260.49
647.135	10323.98
647.328	10223.63
647.521	10262.54
647.714	10004.5
647.907	9996.31
648.099	10049.55
648.292	10117.14
648.485	9848.85
648.678	9701.4
648.871	9857.04
649.064	9742.36
649.256	9775.13
649.449	9627.67
649.642	9760.79
649.835	9396.25
650.027	9596.95
650.22	9463.83
650.413	9345.05
650.605	9320.48
650.798	9246.75
650.991	9244.7
651.183	9343
651.376	9064.48
651.568	9138.21
651.761	9060.38
651.954	9011.23
652.146	9054.24
652.339	9003.04
652.531	8820.77
652.724	8818.72
652.916	8785.96
653.109	8644.65
653.301	8824.87
653.494	8652.84
653.686	8443.95
653.879	8740.9
654.071	8472.62
654.263	8515.62
654.456	8593.45
654.648	8540.2
654.84	8110.13
655.033	8253.48
655.225	8278.06
655.417	8114.22
655.61	8286.25
655.802	8212.53
655.994	7950.39
656.186	8013.87
656.379	8087.6
656.571	7993.39
656.763	7819.32
656.955	7753.78
657.148	7874.61
657.34	7751.73
657.532	7766.07
657.724	7614.52
657.916	7807.03
658.108	7622.71
658.3	7635
658.492	7622.71
658.684	7540.79
658.876	7602.23
659.068	7422.01
659.26	7260.22
659.452	7309.37
659.644	7360.57
659.836	7155.77
660.028	7221.31
660.22	6961.22
660.412	7137.34
660.604	6905.92
660.796	7143.49
660.988	7049.28
661.18	7082.05
661.372	6897.73
661.563	6860.87
661.755	6844.48
661.947	6938.69
662.139	6754.37
662.331	6783.04
662.522	6764.61
662.714	6778.95
662.906	6746.18
663.097	6578.25
663.289	6678.6
663.481	6684.74
663.673	6570.05
663.864	6355.02
664.056	6660.17
664.247	6481.99
664.439	6381.64
664.631	6420.55
664.822	6379.59
665.014	6451.27
665.205	6453.32
665.397	6312.01
665.588	6332.49
665.78	6205.52
665.971	6086.73
666.163	6180.94
666.354	6160.46
666.546	6115.41
666.737	6015.05
666.929	6113.36
667.12	6008.91
667.311	6115.41
667.503	5910.61
667.694	5961.81
667.885	5828.69
668.077	5920.85
668.268	5791.83
668.459	5769.3
668.651	5894.22
668.842	5728.34
669.033	5607.51
669.224	5791.83
669.416	5687.38
669.607	5775.44
669.798	5597.27
669.989	5781.59
670.18	5683.28
670.371	5582.93
670.563	5408.86
670.754	5494.87
670.945	5415
671.136	5492.82
671.327	5503.06
671.518	5509.21
671.709	5455.96
671.9	5447.77
672.091	5546.07
672.282	5507.16
672.473	5384.28
672.664	5357.66
672.855	5300.31
673.046	5288.03
673.237	5486.68
673.428	5212.25
673.619	5308.51
673.809	5230.68
674	5255.26
674.191	5236.83
674.382	5216.35
674.573	5142.62
674.764	5181.53
674.954	5181.53
675.145	5234.78
675.336	5257.31
675.527	5193.82
675.717	5324.89
675.908	4956.26
676.099	5072.99
676.289	5079.13
676.48	5029.98
676.671	5064.8
676.861	5113.95
677.052	5122.14
677.243	5021.79
677.433	5111.9
677.624	4874.34
677.814	5066.85
678.005	4999.26
678.195	4966.49
678.386	4923.49
678.576	4886.62
678.767	5038.17
678.957	4956.26
679.148	5064.8
679.338	5015.65
679.529	4868.19
679.719	5009.5
679.909	5029.98
680.1	4954.21
680.29	4931.68
680.481	4841.57
680.671	4843.62
680.861	4909.15
681.052	4767.84
681.242	4831.33
681.432	4814.95
681.622	4755.55
681.813	4870.24
682.003	4685.92
682.193	4816.99
682.383	4894.82
682.573	4763.75
682.764	4798.56
682.954	4843.62
683.144	4827.23
683.334	4733.03
683.524	4751.46
683.714	4757.6
683.904	4698.21
684.094	4759.65
684.284	4751.46
684.474	4767.84
684.664	4659.3
684.854	4761.7
685.044	4583.52
685.234	4671.59
685.424	4671.59
685.614	4614.24
685.804	4526.18
685.994	4642.92
686.184	4509.8
686.374	4571.24
686.564	4528.23
686.753	4558.95
686.943	4612.2
687.133	4565.09
687.323	4501.61
687.513	4522.09
687.702	4464.74
687.892	4350.06
688.082	4505.7
688.272	4368.49
688.461	4356.2
688.651	4401.26
688.841	4397.16
689.03	4173.93
689.22	4317.29
689.41	4380.78
689.599	4313.19
689.789	4235.37
689.979	4120.68
690.168	4235.37
690.358	4186.22
690.547	4143.21
690.737	4157.55
690.926	4155.5
691.116	4063.34
691.305	4155.5
691.495	3956.85
691.684	4071.53
691.874	4155.5
692.063	4104.3
692.252	4034.67
692.442	4024.43
692.631	3981.42
692.82	4006
693.01	3973.23
693.199	3940.46
693.388	3979.37
693.578	3934.32
693.767	4044.91
693.956	3960.94
694.146	3860.59
694.335	3901.55
694.524	3827.82
694.713	3911.79
694.902	3881.07
695.092	3946.61
695.281	3764.34
695.47	3885.17
695.659	3805.3
695.848	3807.34
696.037	3829.87
696.226	3940.46
696.415	3897.46
696.604	3797.1
696.793	3676.27
696.982	3721.33
697.171	3801.2
697.36	3760.24
697.549	3618.93
697.738	3895.41
697.927	3713.14
698.116	3694.71
698.305	3680.37
698.494	3528.82
698.683	3717.23
698.872	3821.68
699.061	3690.61
699.25	3598.45
699.438	3620.98
699.627	3793.01
699.816	3651.7
700.005	3520.63
700.193	3717.23
700.382	3641.46
700.571	3668.08
700.76	3563.64
700.948	3645.56
701.137	3649.65
701.326	3661.94
701.514	3543.16
701.703	3795.06
701.892	3657.84
702.08	3856.5
702.269	3694.71
702.457	3526.77
702.646	3694.71
702.834	3553.4
703.023	3494.01
703.212	3688.56
703.4	3618.93
703.589	3569.78
703.777	3502.2
703.965	3614.84
704.154	3577.97
704.342	3557.49
704.531	3651.7
704.719	3616.88
704.907	3752.05
705.096	3422.33
705.284	3600.5
705.472	3616.88
705.661	3612.79
705.849	3580.02
706.037	3653.75
706.226	3502.2
706.414	3614.84
706.602	3620.98
706.79	3588.21
706.979	3571.83
707.167	3590.26
707.355	3545.2
707.543	3537.01
707.731	3516.53
707.919	3522.68
708.107	3561.59
708.296	3528.82
708.484	3510.39
708.672	3600.5
708.86	3428.47
709.048	3680.37
709.236	3524.72
709.424	3534.96
709.612	3526.77
709.8	3534.96
709.988	3510.39
710.176	3545.2
710.364	3586.16
710.551	3553.4
710.739	3575.92
710.927	3625.08
711.115	3405.94
711.303	3653.75
711.491	3471.48
711.679	3483.77
711.866	3567.73
712.054	3594.36
712.242	3405.94
712.43	3672.18
712.617	3518.58
712.805	3561.59
712.993	3465.33
713.181	3469.43
713.368	3577.97
713.556	3606.64
713.744	3407.99
713.931	3668.08
714.119	3582.07
714.306	3596.4
714.494	3502.2
714.682	3567.73
714.869	3407.99
715.057	3569.78
715.244	3577.97
715.432	3475.57
715.619	3387.51
715.807	3618.93
715.994	3463.29
716.182	3526.77
716.369	3543.16
716.556	3567.73
716.744	3559.54
716.931	3522.68
717.119	3582.07
717.306	3672.18
717.493	3498.1
717.681	3702.9
717.868	3498.1
718.055	3442.81
718.242	3534.96
718.43	3547.25
718.617	3498.1
718.804	3539.06
718.991	3565.68
719.179	3629.17
719.366	3475.57
719.553	3516.53
719.74	3588.21
719.927	3539.06
720.114	3285.11
720.301	3537.01
720.488	3313.78
720.676	3491.96
720.863	3620.98
721.05	3391.61
721.237	3448.95
721.424	3403.89
721.611	3483.77
721.798	3315.83
721.985	3297.4
722.172	3498.1
722.358	3377.27
722.545	3500.15
722.732	3330.17
722.919	3559.54
723.106	3424.37
723.293	3424.37
723.48	3510.39
723.667	3377.27
723.853	3342.46
724.04	3412.09
724.227	3416.18
724.414	3407.99
724.6	3344.5
724.787	3346.55
724.974	3551.35
725.161	3289.21
725.347	3321.98
725.534	3403.89
725.72	3506.29
725.907	3485.81
726.094	3346.55
726.28	3440.76
726.467	3414.13
726.653	3442.81
726.84	3524.72
727.027	3364.98
727.213	3381.37
727.4	3377.27
727.586	3397.75
727.773	3397.75
727.959	3360.89
728.145	3475.57
728.332	3397.75
728.518	3371.13
728.705	3289.21
728.891	3362.94
729.077	3309.69
729.264	3317.88
729.45	3330.17
729.636	3418.23
729.823	3215.48
730.009	3274.87
730.195	3274.87
730.382	3293.3
730.568	3283.06
730.754	3278.97
730.94	3240.06
731.126	3330.17
731.313	3350.65
731.499	3297.4
731.685	3307.64
731.871	3272.82
732.057	3262.58
732.243	3293.3
732.429	3268.73
732.615	3281.02
732.801	3377.27
732.987	3256.44
733.173	3295.35
733.359	3342.46
733.545	3108.99
733.731	3225.72
733.917	3346.55
734.103	3301.5
734.289	3096.7
734.475	3158.14
734.661	3184.76
734.847	3195
735.033	3182.71
735.219	3231.87
735.404	3209.34
735.59	3174.52
735.776	3178.62
735.962	3160.19
736.148	3072.12
736.333	3297.4
736.519	3145.85
736.705	3139.71
736.89	3151.99
737.076	3205.24
737.262	3129.47
737.447	2918.53
737.633	3037.31
737.819	3113.08
738.004	2973.82
738.19	3104.89
738.375	3094.65
738.561	3154.04
738.747	3068.03
738.932	3139.71
739.118	3158.14
739.303	3068.03
739.489	3168.38
739.674	2939.01
739.859	2994.3
740.045	3041.4
740.23	2982.01
740.416	3063.93
740.601	3022.97
740.786	2967.68
740.972	2939.01
741.157	2975.87
741.342	2988.16
741.528	2830.46
741.713	2965.63
741.898	2945.15
742.084	2793.6
742.269	2869.37
742.454	2812.03
742.639	2979.97
742.824	2896
743.01	2883.71
743.195	2879.61
743.38	2713.73
743.565	2807.94
743.75	2805.89
743.935	2756.74
744.12	2818.18
744.305	2717.83
744.49	2625.67
744.675	2652.29
744.86	2683.01
745.045	2640
745.23	2730.11
745.415	2605.19
745.6	2773.12
745.785	2648.19
745.97	2707.59
746.155	2609.28
746.34	2707.59
746.525	2455.69
746.71	2570.37
746.895	2502.79
747.079	2476.16
747.264	2355.33
747.449	2525.32
747.634	2506.88
747.819	2443.4
748.003	2392.2
748.188	2498.69
748.373	2480.26
748.557	2414.73
748.742	2345.09
748.927	2408.58
749.111	2293.9
749.296	2308.23
749.481	2363.53
749.665	2336.9
749.85	2166.92
750.034	2328.71
750.219	2273.42
750.404	2293.9
750.588	2193.55
750.773	2185.35
750.957	2171.02
751.141	2214.02
751.326	2220.17
751.51	2089.1
751.695	2138.25
751.879	2252.94
752.064	2119.82
752.248	2105.48
752.432	2154.63
752.617	2246.79
752.801	2097.29
752.985	1955.98
753.17	2017.42
753.354	2072.72
753.538	1978.51
753.722	1951.88
753.907	1982.6
754.091	1927.31
754.275	2048.14
754.459	1886.35
754.643	1896.59
754.828	1960.08
755.012	1808.53
755.196	1894.54
755.38	1845.39
755.564	1812.62
755.748	1812.62
755.932	1855.63
756.116	1872.01
756.3	1673.36
756.484	1714.32
756.668	1745.04
756.852	1714.32
757.036	1706.13
757.22	1679.51
757.404	1622.16
757.588	1669.27
757.772	1798.29
757.956	1661.07
758.14	1622.16
758.323	1693.84
758.507	1632.4
758.691	1542.29
758.875	1620.11
759.059	1632.4
759.242	1573.01
759.426	1575.06
759.61	1519.76
759.794	1585.3
759.977	1501.33
760.161	1573.01
760.345	1652.88
760.528	1579.15
760.712	1462.42
760.895	1509.52
761.079	1497.24
761.263	1429.65
761.446	1392.79
761.63	1511.57
761.813	1462.42
761.997	1355.93
762.18	1437.84
762.364	1441.94
762.547	1556.63
762.731	1392.79
762.914	1388.69
763.098	1405.08
763.281	1360.02
763.464	1370.26
763.648	1400.98
763.831	1341.59
764.015	1362.07
764.198	1437.84
764.381	1390.74
764.564	1388.69
764.748	1314.97
764.931	1364.12
765.114	1368.21
765.297	1372.31
765.481	1306.77
765.664	1251.48
765.847	1280.15
766.03	1378.45
766.213	1233.05
766.397	1302.68
766.58	1321.11
766.763	1235.1
766.946	1216.66
767.129	1278.1
767.312	1192.09
767.495	1249.43
767.678	1077.4
767.861	1317.01
768.044	1237.14
768.227	1220.76
768.41	1237.14
768.593	1233.05
768.776	1183.9
768.959	1163.42
769.142	1274.01
769.324	1257.62
769.507	1118.36
769.69	1058.97
769.873	1224.86
770.056	1261.72
770.239	1190.04
770.421	1208.47
770.604	1118.36
770.787	1183.9
770.97	1136.79
771.152	1067.16
771.335	1149.08
771.518	1142.94
771.7	1071.26
771.883	1153.18
772.066	1073.31
772.248	1122.46
772.431	1058.97
772.613	1155.23
772.796	1085.59
772.978	977.05
773.161	1089.69
773.343	1020.06
773.526	970.91
773.708	913.56
773.891	970.91
774.073	999.58
774.256	954.52
774.438	979.1
774.621	876.7
774.803	970.91
774.985	878.75
775.168	966.81
775.35	968.86
775.532	970.91
775.715	952.48
775.897	872.61
776.079	934.04
776.261	956.57
776.444	909.47
776.626	841.89
776.808	868.51
776.99	815.26
777.173	809.12
777.355	895.13
777.537	868.51
777.719	823.45
777.901	778.4
778.083	817.31
778.265	837.79
778.447	860.32
778.629	829.6
778.811	848.03
778.993	893.09
779.175	731.3
779.357	782.49
779.539	821.41
779.721	772.25
779.903	784.54
780.085	845.98
780.267	784.54
780.449	762.02
780.631	772.25
780.812	688.29
780.994	680.1
781.176	729.25
781.358	676
781.54	702.62
781.721	811.17
781.903	663.71
782.085	682.14
782.267	700.58
782.448	643.23
782.63	667.81
782.812	702.62
782.993	710.82
783.175	714.91
783.357	690.34
783.538	637.09
783.72	671.9
783.901	669.86
784.083	540.83
784.264	622.75
784.446	667.81
784.627	528.55
784.809	596.13
784.99	651.42
785.172	594.08
785.353	530.59
785.535	487.59
785.716	667.81
785.897	567.46
786.079	673.95
786.26	608.42
786.441	538.79
786.623	512.16
786.804	616.61
786.985	581.79
787.167	592.03
787.348	538.79
787.529	585.89
787.71	585.89
787.891	501.92
788.073	497.83
788.254	479.4
788.435	559.27
788.616	524.45
788.797	473.25
788.978	546.98
789.159	440.48
789.34	526.5
789.522	493.73
789.703	495.78
789.884	510.11
790.065	448.68
790.246	512.16
790.427	493.73
790.607	467.11
790.788	409.76
790.969	413.86
791.15	495.78
791.331	475.3
791.512	532.64
791.693	426.15
791.874	434.34
792.054	512.16
792.235	479.4
792.416	460.96
792.597	422.05
792.778	403.62
792.958	342.18
793.139	362.66
793.32	399.52
793.5	420
793.681	420
793.862	362.66
794.042	401.57
794.223	372.9
794.404	385.19
794.584	315.56
794.765	460.96
794.945	389.28
795.126	438.44
795.306	381.09
795.487	436.39
795.667	366.76
795.848	381.09
796.028	417.96
796.209	407.72
796.389	389.28
796.57	331.94
796.75	381.09
796.93	385.19
797.111	352.42
797.291	442.53
797.471	372.9
797.652	346.28
797.832	381.09
798.012	420
798.192	290.98
798.373	323.75
798.553	389.28
798.733	370.85
798.913	344.23
799.093	276.65
799.274	331.94
799.454	299.17
799.634	319.65
799.814	377
799.994	385.19
800.174	307.37
800.354	280.74
800.534	319.65
800.714	319.65
800.894	270.5
801.074	305.32
801.254	362.66
801.434	233.64
801.614	350.37
801.794	397.48
801.974	751.78
802.154	352.42
802.334	270.5
802.514	288.93
802.693	282.79
802.873	307.37
803.053	344.23
803.233	348.33
803.413	286.89
803.592	327.85
803.772	188.58
803.952	254.12
804.131	225.45
804.311	239.78
804.491	280.74
804.67	227.5
804.85	272.55
805.03	297.13
805.209	260.26
805.389	323.75
805.568	274.6
805.748	282.79
805.928	288.93
806.107	286.89
806.287	264.36
806.466	262.31
806.646	172.2
806.825	219.3
807.004	288.93
807.184	327.85
807.363	313.51
807.543	229.54
807.722	184.49
807.901	198.82
808.081	202.92
808.26	235.69
808.439	229.54
808.619	270.5
808.798	168.1
808.977	186.54
809.156	260.26
809.336	288.93
809.515	229.54
809.694	180.39
809.873	194.73
810.052	282.79
810.231	293.03
810.411	233.64
810.59	288.93
810.769	211.11
810.948	256.17
811.127	127.14
811.306	241.83
811.485	190.63
811.664	233.64
811.843	250.02
812.022	223.4
812.201	221.35
812.38	145.58
812.559	178.34
812.737	229.54
812.916	135.34
813.095	209.06
813.274	149.67
813.453	258.21
813.632	151.72
813.811	225.45
813.989	155.82
814.168	178.34
814.347	143.53
814.526	250.02
814.704	258.21
814.883	223.4
815.062	209.06
815.24	176.3
815.419	237.74
815.598	182.44
815.776	180.39
815.955	237.74
816.133	161.96
816.312	118.95
816.49	178.34
816.669	164.01
816.847	196.78
817.026	204.97
817.204	157.86
817.383	211.11
817.561	241.83
817.74	149.67
817.918	204.97
818.097	123.05
818.275	188.58
818.453	141.48
818.632	215.21
818.81	135.34
818.988	139.43
819.167	157.86
819.345	196.78
819.523	141.48
819.701	147.62
819.879	211.11
820.058	155.82
820.236	198.82
820.414	118.95
820.592	184.49
820.77	196.78
820.948	26.79
821.127	147.62
821.305	221.35
821.483	155.82
821.661	172.2
821.839	258.21
822.017	164.01
822.195	194.73
822.373	174.25
822.551	67.75
822.729	61.61
822.907	159.91
823.085	149.67
823.262	84.14
823.44	186.54
823.618	178.34
823.796	161.96
823.974	172.2
824.152	110.76
824.329	147.62
824.507	141.48
824.685	114.86
824.863	57.51
825.04	137.38
825.218	135.34
825.396	168.1
825.574	28.84
825.751	110.76
825.929	184.49
826.107	26.79
826.284	194.73
826.462	110.76
826.639	69.8
826.817	84.14
826.994	141.48
827.172	94.38
827.349	151.72
827.527	153.77
827.704	123.05
827.882	141.48
828.059	106.67
828.237	92.33
828.414	135.34
828.591	151.72
828.769	75.95
828.946	125.1
829.124	194.73
829.301	151.72
829.478	118.95
829.655	65.71
829.833	98.47
830.01	129.19
830.187	151.72
830.364	73.9
830.542	131.24
830.719	100.52
830.896	116.9
831.073	94.38
831.25	106.67
831.427	149.67
831.604	143.53
831.782	82.09
831.959	96.43
832.136	80.04
832.313	84.14
832.49	73.9
832.667	131.24
832.844	86.19
833.021	123.05
833.198	108.71
833.374	118.95
833.551	127.14
833.728	114.86
833.905	57.51
834.082	127.14
834.259	106.67
834.436	116.9
834.612	127.14
834.789	49.32
834.966	116.9
835.143	127.14
835.319	-12.12
835.496	80.04
835.673	112.81
835.85	121
836.026	133.29
836.203	135.34
836.38	51.37
836.556	94.38
836.733	67.75
836.909	37.03
837.086	106.67
837.262	45.23
837.439	96.43
837.616	133.29
837.792	86.19
837.968	98.47
838.145	75.95
838.321	22.7
838.498	106.67
838.674	125.1
838.851	129.19
839.027	96.43
839.203	39.08
839.38	125.1
839.556	141.48
839.732	86.19
839.909	82.09
840.085	125.1
840.261	41.13
840.437	37.03
840.614	73.9
840.79	127.14
840.966	37.03
841.142	102.57
841.318	45.23
841.494	43.18
841.671	159.91
841.847	37.03
842.023	63.66
842.199	24.75
842.375	82.09
842.551	65.71
842.727	57.51
842.903	102.57
843.079	92.33
843.255	86.19
843.431	37.03
843.607	106.67
843.783	73.9
843.959	98.47
844.134	-8.02
844.31	47.27
844.486	59.56
844.662	-36.69
844.838	47.27
845.013	61.61
845.189	67.75
845.365	90.28
845.541	12.46
845.716	116.9
845.892	67.75
846.068	77.99
846.244	77.99
846.419	151.72
846.595	26.79
846.77	-16.21
846.946	125.1
847.122	73.9
847.297	61.61
847.473	106.67
847.648	34.99
847.824	63.66
847.999	-34.64
848.175	34.99
848.35	69.8
848.526	67.75
848.701	61.61
848.876	37.03
849.052	45.23
849.227	-22.36
849.403	37.03
849.578	102.57
849.753	39.08
849.929	16.55
850.104	28.84
850.279	57.51
850.454	16.55
850.63	39.08
850.805	53.42
850.98	84.14
851.155	55.47
851.33	51.37
851.505	32.94
851.681	96.43
851.856	51.37
852.031	125.1
852.206	86.19
852.381	-20.31
852.556	16.55
852.731	94.38
852.906	18.6
853.081	135.34
853.256	71.85
853.431	-3.93
853.606	24.75
853.781	147.62
853.956	-3.93
854.131	63.66
854.305	65.71
854.48	61.61
854.655	8.36
854.83	114.86
855.005	45.23
855.18	82.09
855.354	65.71
855.529	37.03
855.704	39.08
855.879	47.27
856.053	61.61
856.228	116.9
856.403	16.55
856.577	116.9
856.752	43.18
856.926	133.29
857.101	49.32
857.276	49.32
857.45	28.84
857.625	135.34
857.799	37.03
857.974	-55.12
858.148	34.99
858.323	63.66
858.497	98.47
858.672	41.13
858.846	57.51
859.02	47.27
859.195	39.08
859.369	65.71
859.543	67.75
859.718	80.04
859.892	108.71
860.066	71.85
860.241	94.38
860.415	4.27
860.589	8.36
860.763	65.71
860.938	30.89
861.112	55.47
861.286	-44.88
861.46	10.41
861.634	-8.02
861.808	24.75
861.982	26.79
862.157	-1.88
862.331	6.31
862.505	32.94
862.679	-34.64
862.853	22.7
863.027	77.99
863.201	53.42
863.375	-12.12
863.549	67.75
863.722	94.38
863.896	75.95
864.07	37.03
864.244	61.61
864.418	49.32
864.592	-5.97
864.766	51.37
864.939	65.71
865.113	-48.98
865.287	61.61
865.461	41.13
865.634	30.89
865.808	0.17
865.982	-24.4
866.156	-12.12
866.329	-61.27
866.503	55.47
866.676	41.13
866.85	6.31
867.024	45.23
867.197	57.51
867.371	67.75
867.544	45.23
867.718	-8.02
867.891	108.71
868.065	22.7
868.238	55.47
868.412	24.75
868.585	6.31
868.759	-34.64
868.932	6.31
869.105	43.18
869.279	49.32
869.452	14.51
869.625	10.41
869.799	84.14
869.972	-14.17
870.145	-3.93
870.319	110.76
870.492	-28.5
870.665	-57.17
870.838	18.6
871.011	-61.27
871.185	-42.84
871.358	-5.97
871.531	39.08
871.704	67.75
871.877	20.65
872.05	41.13
872.223	-55.12
872.396	94.38
872.569	51.37
872.742	18.6
872.915	69.8
873.088	-5.97
873.261	-28.5
873.434	45.23
873.607	47.27
873.78	41.13
873.953	37.03
874.126	-24.4
874.299	-38.74
874.471	-24.4
874.644	84.14
874.817	37.03
874.99	20.65
875.163	10.41
875.335	18.6
875.508	-16.21
875.681	84.14
875.853	-20.31
876.026	28.84
876.199	45.23
876.371	32.94
876.544	-32.6
876.717	32.94
876.889	-26.45
877.062	34.99
877.234	16.55
877.407	-8.02
877.579	116.9
877.752	-20.31
877.924	32.94
878.097	12.46
878.269	0.17
878.442	41.13
878.614	53.42
878.786	73.9
878.959	-38.74
879.131	14.51
879.303	10.41
879.476	-12.12
879.648	57.51
879.82	32.94
879.993	-30.55
880.165	-1.88
880.337	-10.07
880.509	57.51
880.681	-61.27
880.854	75.95
881.026	30.89
881.198	-8.02
881.37	67.75
881.542	-57.17
881.714	-22.36
881.886	45.23
882.058	57.51
882.23	-34.64
882.402	-87.89
882.574	88.23
882.746	43.18
882.918	53.42
883.09	47.27
883.262	20.65
883.434	30.89
883.606	24.75
883.778	26.79
883.95	24.75
884.122	75.95
884.293	0.17
884.465	43.18
884.637	51.37
884.809	-79.7
884.98	75.95
885.152	41.13
885.324	45.23
885.496	8.36
885.667	-18.26
885.839	12.46
886.011	94.38
886.182	102.57
886.354	-3.93
886.525	-28.5
886.697	47.27
886.869	8.36
887.04	34.99
887.212	32.94
887.383	53.42
887.555	2.22
887.726	-16.21
887.897	39.08
888.069	0.17
888.24	-12.12
888.412	6.31
888.583	-67.41
888.754	-40.79
888.926	-12.12
889.097	-8.02
889.268	12.46
889.44	4.27
889.611	12.46
889.782	-14.17
889.953	2.22
890.125	61.61
890.296	-40.79
890.467	32.94
890.638	-3.93
890.809	49.32
890.98	-48.98
891.151	37.03
891.323	55.47
891.494	22.7
891.665	-26.45
891.836	53.42
892.007	28.84
892.178	41.13
892.349	30.89
892.52	-14.17
892.691	-14.17
892.862	-8.02
893.032	-46.93
893.203	32.94
893.374	61.61
893.545	12.46
893.716	-8.02
893.887	16.55
894.057	20.65
894.228	22.7
894.399	2.22
894.57	4.27
894.74	-44.88
894.911	49.32
895.082	-65.36
895.253	22.7
895.423	77.99
895.594	6.31
895.764	26.79
895.935	55.47
896.106	-28.5
896.276	-20.31
896.447	6.31
896.617	30.89
896.788	28.84
896.958	8.36
897.129	-10.07
897.299	24.75
897.47	-14.17
897.64	34.99
897.81	12.46
897.981	-69.46
898.151	37.03
898.322	8.36
898.492	43.18
898.662	6.31
898.832	-28.5
899.003	-24.4
899.173	49.32
899.343	-16.21
899.513	-57.17
