Data from USB4F104151__37__10-22-13-104.txt Node

Date: Wed Mar 12 10:22:13 EDT 2025
User: louis
Spectrometer: USB4F10415
Trigger mode: 4
Integration Time (sec): 3.000000E-2
Scans to average: 1
Electric dark correction enabled: true
Nonlinearity correction enabled: false
Boxcar width: 0
XAxis mode: Wavelengths
Number of Pixels in Spectrum: 3648
>>>>>Begin Spectral Data<<<<<
178.204	-116.05
178.424	-116.05
178.644	-116.05
178.864	-152.92
179.084	-89.43
179.304	12.97
179.524	-17.75
179.744	53.93
179.964	35.5
180.184	-81.24
180.404	12.97
180.624	55.98
180.844	-44.37
181.064	10.92
181.283	39.59
181.503	-54.61
181.723	-23.89
181.943	-25.94
182.163	27.31
182.383	15.02
182.602	2.73
182.822	17.07
183.042	-27.99
183.262	-46.42
183.482	55.98
183.701	72.36
183.921	45.74
184.141	-32.08
184.361	-11.61
184.58	55.98
184.8	37.55
185.02	2.73
185.239	17.07
185.459	-40.28
185.679	78.51
185.898	2.73
186.118	29.35
186.338	4.78
186.557	4.78
186.777	39.59
186.997	21.16
187.216	-52.56
187.436	-32.08
187.655	6.83
187.875	53.93
188.095	21.16
188.314	-5.46
188.534	2.73
188.753	39.59
188.973	15.02
189.192	29.35
189.412	55.98
189.631	-48.47
189.851	-5.46
190.07	51.88
190.29	41.64
190.509	-21.85
190.729	-68.95
190.948	37.55
191.168	129.7
191.387	107.18
191.607	29.35
191.826	10.92
192.045	2.73
192.265	17.07
192.484	-54.61
192.704	-9.56
192.923	-11.61
193.142	-17.75
193.362	-7.51
193.581	78.51
193.8	31.4
194.02	19.11
194.239	-87.38
194.458	-23.89
194.678	-15.7
194.897	-30.04
195.116	-17.75
195.335	4.78
195.555	33.45
195.774	8.87
195.993	21.16
196.212	0.68
196.432	58.03
196.651	-27.99
196.87	-21.85
197.089	41.64
197.308	8.87
197.528	37.55
197.747	-21.85
197.966	-77.14
198.185	-23.89
198.404	84.65
198.623	-27.99
198.842	37.55
199.062	25.26
199.281	37.55
199.5	35.5
199.719	-48.47
199.938	-7.51
200.157	31.4
200.376	80.55
200.595	55.98
200.814	21.16
201.033	41.64
201.252	-23.89
201.471	12.97
201.69	-17.75
201.909	31.4
202.128	-19.8
202.347	41.64
202.566	0.68
202.785	-56.66
203.004	-97.62
203.223	62.12
203.442	17.07
203.661	41.64
203.879	41.64
204.098	-25.94
204.317	-42.32
204.536	25.26
204.755	-27.99
204.974	66.22
205.193	-21.85
205.411	76.46
205.63	-40.28
205.849	10.92
206.068	12.97
206.287	53.93
206.505	12.97
206.724	10.92
206.943	2.73
207.162	29.35
207.381	-5.46
207.599	4.78
207.818	-44.37
208.037	-1.37
208.255	-19.8
208.474	-42.32
208.693	29.35
208.911	96.94
209.13	15.02
209.349	62.12
209.567	17.07
209.786	-25.94
210.005	19.11
210.223	53.93
210.442	-17.75
210.661	17.07
210.879	101.03
211.098	-15.7
211.316	-27.99
211.535	21.16
211.753	37.55
211.972	-25.94
212.191	-19.8
212.409	90.79
212.628	45.74
212.846	-5.46
213.065	-46.42
213.283	29.35
213.502	6.83
213.72	29.35
213.938	64.17
214.157	-48.47
214.375	6.83
214.594	-52.56
214.812	35.5
215.031	25.26
215.249	-83.28
215.467	-19.8
215.686	-3.41
215.904	19.11
216.122	-15.7
216.341	55.98
216.559	-5.46
216.778	35.5
216.996	-9.56
217.214	-7.51
217.432	0.68
217.651	-38.23
217.869	-3.41
218.087	-38.23
218.306	-23.89
218.524	4.78
218.742	-58.71
218.96	17.07
219.179	-36.18
219.397	53.93
219.615	49.83
219.833	27.31
220.051	-21.85
220.27	105.13
220.488	-25.94
220.706	113.32
220.924	-17.75
221.142	-5.46
221.36	-13.65
221.578	60.07
221.796	41.64
222.015	84.65
222.233	-60.76
222.451	82.6
222.669	-46.42
222.887	47.79
223.105	86.7
223.323	-38.23
223.541	19.11
223.759	62.12
223.977	6.83
224.195	-5.46
224.413	12.97
224.631	6.83
224.849	-34.13
225.067	62.12
225.285	-36.18
225.503	-15.7
225.721	2.73
225.939	8.87
226.157	37.55
226.375	58.03
226.592	29.35
226.81	51.88
227.028	45.74
227.246	58.03
227.464	8.87
227.682	2.73
227.9	49.83
228.117	-7.51
228.335	19.11
228.553	-15.7
228.771	74.41
228.989	10.92
229.206	51.88
229.424	-9.56
229.642	55.98
229.86	-36.18
230.077	-21.85
230.295	45.74
230.513	19.11
230.731	82.6
230.948	51.88
231.166	0.68
231.384	19.11
231.601	8.87
231.819	41.64
232.037	10.92
232.254	-19.8
232.472	49.83
232.689	2.73
232.907	31.4
233.125	-64.85
233.342	4.78
233.56	-25.94
233.777	-36.18
233.995	-81.24
234.213	70.31
234.43	8.87
234.648	-30.04
234.865	29.35
235.083	68.27
235.3	6.83
235.518	107.18
235.735	45.74
235.953	105.13
236.17	-11.61
236.388	-50.52
236.605	53.93
236.822	111.27
237.04	-5.46
237.257	-46.42
237.475	64.17
237.692	15.02
237.909	53.93
238.127	-21.85
238.344	64.17
238.562	17.07
238.779	-77.14
238.996	-44.37
239.214	10.92
239.431	72.36
239.648	8.87
239.865	51.88
240.083	2.73
240.3	53.93
240.517	25.26
240.735	23.21
240.952	27.31
241.169	94.89
241.386	-19.8
241.603	-11.61
241.821	-23.89
242.038	55.98
242.255	78.51
242.472	19.11
242.689	25.26
242.907	82.6
243.124	51.88
243.341	-5.46
243.558	-48.47
243.775	-15.7
243.992	-27.99
244.209	39.59
244.426	19.11
244.643	0.68
244.86	39.59
245.078	45.74
245.295	29.35
245.512	21.16
245.729	-44.37
245.946	4.78
246.163	21.16
246.38	-21.85
246.597	15.02
246.814	-30.04
247.031	-105.81
247.248	29.35
247.464	-58.71
247.681	0.68
247.898	-11.61
248.115	78.51
248.332	2.73
248.549	-44.37
248.766	88.75
248.983	-11.61
249.2	-42.32
249.417	70.31
249.633	-11.61
249.85	43.69
250.067	-13.65
250.284	43.69
250.501	-25.94
250.717	4.78
250.934	-1.37
251.151	10.92
251.368	-21.85
251.585	-5.46
251.801	25.26
252.018	19.11
252.235	55.98
252.451	33.45
252.668	62.12
252.885	72.36
253.102	12.97
253.318	33.45
253.535	8.87
253.752	-3.41
253.968	19.11
254.185	-23.89
254.401	60.07
254.618	27.31
254.835	35.5
255.051	29.35
255.268	78.51
255.484	-5.46
255.701	17.07
255.917	0.68
256.134	-52.56
256.351	23.21
256.567	-44.37
256.784	29.35
257	39.59
257.217	62.12
257.433	-19.8
257.65	25.26
257.866	80.55
258.082	33.45
258.299	19.11
258.515	51.88
258.732	6.83
258.948	-23.89
259.165	-36.18
259.381	-68.95
259.597	17.07
259.814	-44.37
260.03	-11.61
260.246	-64.85
260.463	55.98
260.679	10.92
260.895	-30.04
261.112	-3.41
261.328	-79.19
261.544	21.16
261.761	103.08
261.977	17.07
262.193	10.92
262.409	53.93
262.626	-13.65
262.842	53.93
263.058	12.97
263.274	6.83
263.49	29.35
263.707	25.26
263.923	29.35
264.139	-13.65
264.355	8.87
264.571	25.26
264.787	0.68
265.004	76.46
265.22	51.88
265.436	-19.8
265.652	101.03
265.868	12.97
266.084	33.45
266.3	15.02
266.516	23.21
266.732	2.73
266.948	64.17
267.164	27.31
267.38	-13.65
267.596	10.92
267.812	103.08
268.028	-3.41
268.244	76.46
268.46	41.64
268.676	-30.04
268.892	4.78
269.108	76.46
269.324	64.17
269.54	19.11
269.756	10.92
269.972	10.92
270.188	-7.51
270.403	72.36
270.619	37.55
270.835	29.35
271.051	-30.04
271.267	-23.89
271.483	41.64
271.698	45.74
271.914	19.11
272.13	58.03
272.346	-15.7
272.562	4.78
272.777	-30.04
272.993	0.68
273.209	6.83
273.425	21.16
273.64	-95.57
273.856	66.22
274.072	51.88
274.287	35.5
274.503	19.11
274.719	17.07
274.934	-46.42
275.15	-68.95
275.366	25.26
275.581	10.92
275.797	-34.13
276.012	72.36
276.228	-54.61
276.444	-11.61
276.659	-1.37
276.875	-25.94
277.09	-3.41
277.306	-15.7
277.521	25.26
277.737	0.68
277.952	-5.46
278.168	31.4
278.383	37.55
278.599	103.08
278.814	72.36
279.03	-3.41
279.245	98.99
279.461	115.37
279.676	2.73
279.892	-3.41
280.107	51.88
280.322	-42.32
280.538	78.51
280.753	-23.89
280.969	19.11
281.184	-42.32
281.399	35.5
281.615	33.45
281.83	17.07
282.045	15.02
282.26	66.22
282.476	70.31
282.691	78.51
282.906	74.41
283.122	8.87
283.337	-46.42
283.552	27.31
283.767	-3.41
283.983	33.45
284.198	-52.56
284.413	103.08
284.628	0.68
284.843	70.31
285.058	25.26
285.274	17.07
285.489	-48.47
285.704	4.78
285.919	35.5
286.134	25.26
286.349	12.97
286.564	62.12
286.779	12.97
286.995	-3.41
287.21	-13.65
287.425	82.6
287.64	17.07
287.855	-40.28
288.07	-5.46
288.285	2.73
288.5	19.11
288.715	21.16
288.93	62.12
289.145	47.79
289.36	64.17
289.575	19.11
289.79	0.68
290.004	-5.46
290.219	4.78
290.434	-23.89
290.649	-85.33
290.864	33.45
291.079	25.26
291.294	-11.61
291.509	8.87
291.724	45.74
291.938	-42.32
292.153	90.79
292.368	80.55
292.583	55.98
292.798	37.55
293.012	53.93
293.227	-9.56
293.442	-48.47
293.657	64.17
293.871	10.92
294.086	23.21
294.301	41.64
294.516	25.26
294.73	35.5
294.945	43.69
295.16	21.16
295.374	98.99
295.589	70.31
295.804	-11.61
296.018	33.45
296.233	76.46
296.447	21.16
296.662	-34.13
296.877	68.27
297.091	62.12
297.306	17.07
297.52	-48.47
297.735	-32.08
297.949	33.45
298.164	45.74
298.378	33.45
298.593	-36.18
298.807	51.88
299.022	43.69
299.236	25.26
299.451	-21.85
299.665	29.35
299.88	35.5
300.094	-21.85
300.309	6.83
300.523	-32.08
300.737	37.55
300.952	12.97
301.166	55.98
301.381	12.97
301.595	-11.61
301.809	45.74
302.024	-7.51
302.238	21.16
302.452	117.42
302.667	-36.18
302.881	10.92
303.095	33.45
303.309	4.78
303.524	29.35
303.738	2.73
303.952	60.07
304.166	82.6
304.381	25.26
304.595	70.31
304.809	-19.8
305.023	29.35
305.237	39.59
305.452	-21.85
305.666	41.64
305.88	68.27
306.094	70.31
306.308	25.26
306.522	6.83
306.736	49.83
306.95	74.41
307.164	39.59
307.379	-15.7
307.593	47.79
307.807	58.03
308.021	72.36
308.235	37.55
308.449	-3.41
308.663	-9.56
308.877	37.55
309.091	10.92
309.305	-11.61
309.519	55.98
309.733	84.65
309.947	-32.08
310.161	103.08
310.374	15.02
310.588	137.9
310.802	-27.99
311.016	-1.37
311.23	21.16
311.444	51.88
311.658	-9.56
311.872	113.32
312.085	2.73
312.299	70.31
312.513	115.37
312.727	-11.61
312.941	10.92
313.154	70.31
313.368	55.98
313.582	37.55
313.796	33.45
314.009	19.11
314.223	0.68
314.437	68.27
314.651	43.69
314.864	29.35
315.078	64.17
315.292	-19.8
315.505	49.83
315.719	27.31
315.933	-17.75
316.146	-44.37
316.36	-38.23
316.573	49.83
316.787	78.51
317.001	15.02
317.214	0.68
317.428	19.11
317.641	4.78
317.855	58.03
318.068	62.12
318.282	0.68
318.495	62.12
318.709	-25.94
318.922	-23.89
319.136	41.64
319.349	62.12
319.563	25.26
319.776	72.36
319.99	-19.8
320.203	29.35
320.417	-27.99
320.63	19.11
320.843	29.35
321.057	53.93
321.27	-27.99
321.483	21.16
321.697	43.69
321.91	39.59
322.124	86.7
322.337	-42.32
322.55	12.97
322.763	0.68
322.977	31.4
323.19	53.93
323.403	70.31
323.617	66.22
323.83	55.98
324.043	-11.61
324.256	144.04
324.469	-23.89
324.683	64.17
324.896	17.07
325.109	53.93
325.322	-40.28
325.535	53.93
325.748	62.12
325.962	-36.18
326.175	35.5
326.388	78.51
326.601	21.16
326.814	62.12
327.027	6.83
327.24	-5.46
327.453	-21.85
327.666	4.78
327.879	-38.23
328.092	119.46
328.305	62.12
328.518	-30.04
328.731	-30.04
328.944	17.07
329.157	4.78
329.37	17.07
329.583	29.35
329.796	90.79
330.009	15.02
330.222	17.07
330.435	12.97
330.648	-7.51
330.861	70.31
331.073	-9.56
331.286	101.03
331.499	-15.7
331.712	-30.04
331.925	-13.65
332.138	53.93
332.35	49.83
332.563	0.68
332.776	119.46
332.989	29.35
333.202	31.4
333.414	62.12
333.627	-13.65
333.84	12.97
334.053	45.74
334.265	-1.37
334.478	29.35
334.691	-11.61
334.903	25.26
335.116	-3.41
335.329	-1.37
335.541	33.45
335.754	55.98
335.966	43.69
336.179	-44.37
336.392	29.35
336.604	39.59
336.817	72.36
337.029	62.12
337.242	29.35
337.454	12.97
337.667	19.11
337.88	84.65
338.092	2.73
338.305	47.79
338.517	21.16
338.729	53.93
338.942	19.11
339.154	-30.04
339.367	49.83
339.579	90.79
339.792	27.31
340.004	-3.41
340.217	29.35
340.429	49.83
340.641	-9.56
340.854	-25.94
341.066	39.59
341.278	70.31
341.491	31.4
341.703	29.35
341.915	-36.18
342.128	29.35
342.34	-15.7
342.552	17.07
342.764	51.88
342.977	15.02
343.189	35.5
343.401	37.55
343.613	25.26
343.826	53.93
344.038	41.64
344.25	51.88
344.462	58.03
344.674	-1.37
344.886	109.22
345.099	-7.51
345.311	33.45
345.523	49.83
345.735	33.45
345.947	66.22
346.159	23.21
346.371	62.12
346.583	123.56
346.795	45.74
347.007	17.07
347.219	62.12
347.431	21.16
347.643	51.88
347.855	66.22
348.067	70.31
348.279	-11.61
348.491	-21.85
348.703	49.83
348.915	55.98
349.127	0.68
349.339	53.93
349.551	21.16
349.763	68.27
349.975	12.97
350.187	70.31
350.399	41.64
350.61	37.55
350.822	-15.7
351.034	25.26
351.246	-19.8
351.458	109.22
351.669	64.17
351.881	31.4
352.093	49.83
352.305	72.36
352.517	62.12
352.728	62.12
352.94	27.31
353.152	70.31
353.363	-17.75
353.575	6.83
353.787	72.36
353.999	-3.41
354.21	21.16
354.422	-1.37
354.633	15.02
354.845	35.5
355.057	-3.41
355.268	51.88
355.48	53.93
355.692	33.45
355.903	68.27
356.115	49.83
356.326	-15.7
356.538	37.55
356.749	45.74
356.961	39.59
357.172	2.73
357.384	2.73
357.595	109.22
357.807	62.12
358.018	-5.46
358.23	25.26
358.441	84.65
358.653	58.03
358.864	-75.09
359.075	27.31
359.287	43.69
359.498	45.74
359.709	62.12
359.921	53.93
360.132	-13.65
360.344	-17.75
360.555	43.69
360.766	127.66
360.977	37.55
361.189	39.59
361.4	94.89
361.611	80.55
361.823	88.75
362.034	29.35
362.245	10.92
362.456	-13.65
362.667	6.83
362.879	74.41
363.09	31.4
363.301	49.83
363.512	90.79
363.723	-15.7
363.935	4.78
364.146	123.56
364.357	66.22
364.568	-7.51
364.779	-44.37
364.99	4.78
365.201	-23.89
365.412	29.35
365.623	49.83
365.834	47.79
366.045	29.35
366.256	49.83
366.467	101.03
366.678	84.65
366.889	17.07
367.1	92.84
367.311	12.97
367.522	-15.7
367.733	76.46
367.944	35.5
368.155	-5.46
368.366	74.41
368.577	39.59
368.788	27.31
368.999	101.03
369.209	53.93
369.42	127.66
369.631	133.8
369.842	27.31
370.053	4.78
370.264	-9.56
370.474	-38.23
370.685	10.92
370.896	53.93
371.107	68.27
371.317	90.79
371.528	-36.18
371.739	76.46
371.95	27.31
372.16	21.16
372.371	-15.7
372.582	121.51
372.792	-30.04
373.003	78.51
373.214	82.6
373.424	43.69
373.635	0.68
373.846	80.55
374.056	68.27
374.267	35.5
374.477	78.51
374.688	6.83
374.898	58.03
375.109	-3.41
375.319	-60.76
375.53	4.78
375.74	68.27
375.951	37.55
376.161	12.97
376.372	39.59
376.582	31.4
376.793	45.74
377.003	29.35
377.214	-27.99
377.424	74.41
377.635	43.69
377.845	123.56
378.055	70.31
378.266	23.21
378.476	10.92
378.686	62.12
378.897	-1.37
379.107	84.65
379.317	62.12
379.528	19.11
379.738	66.22
379.948	-5.46
380.158	144.04
380.369	-19.8
380.579	111.27
380.789	74.41
380.999	-13.65
381.21	27.31
381.42	86.7
381.63	4.78
381.84	78.51
382.05	60.07
382.261	78.51
382.471	51.88
382.681	35.5
382.891	119.46
383.101	86.7
383.311	2.73
383.521	62.12
383.731	35.5
383.941	72.36
384.151	62.12
384.361	2.73
384.571	43.69
384.781	51.88
384.991	70.31
385.201	55.98
385.411	41.64
385.621	23.21
385.831	86.7
386.041	58.03
386.251	39.59
386.461	29.35
386.671	-32.08
386.881	49.83
387.091	80.55
387.301	55.98
387.511	-25.94
387.72	62.12
387.93	37.55
388.14	-19.8
388.35	-3.41
388.56	103.08
388.769	53.93
388.979	98.99
389.189	58.03
389.399	-3.41
389.609	39.59
389.818	115.37
390.028	53.93
390.238	129.7
390.447	94.89
390.657	70.31
390.867	2.73
391.076	-36.18
391.286	86.7
391.496	19.11
391.705	111.27
391.915	98.99
392.125	27.31
392.334	68.27
392.544	62.12
392.753	4.78
392.963	21.16
393.172	90.79
393.382	66.22
393.591	82.6
393.801	45.74
394.01	119.46
394.22	86.7
394.429	37.55
394.639	84.65
394.848	53.93
395.058	58.03
395.267	78.51
395.477	109.22
395.686	84.65
395.895	119.46
396.105	209.58
396.314	29.35
396.524	129.7
396.733	80.55
396.942	60.07
397.152	133.8
397.361	103.08
397.57	84.65
397.78	86.7
397.989	158.38
398.198	176.81
398.407	84.65
398.617	146.09
398.826	123.56
399.035	146.09
399.244	133.8
399.453	82.6
399.663	154.28
399.872	144.04
400.081	127.66
400.29	152.23
400.499	119.46
400.708	160.42
400.917	193.19
401.127	27.31
401.336	78.51
401.545	144.04
401.754	70.31
401.963	131.75
402.172	127.66
402.381	78.51
402.59	115.37
402.799	148.14
403.008	139.94
403.217	115.37
403.426	164.52
403.635	109.22
403.844	154.28
404.053	168.62
404.262	160.42
404.471	164.52
404.68	201.38
404.888	178.86
405.097	160.42
405.306	166.57
405.515	225.96
405.724	127.66
405.933	185
406.142	336.55
406.35	133.8
406.559	193.19
406.768	193.19
406.977	246.44
407.185	248.49
407.394	201.38
407.603	236.2
407.812	273.06
408.02	287.4
408.229	176.81
408.438	314.02
408.646	221.86
408.855	199.34
409.064	187.05
409.272	318.12
409.481	387.75
409.69	348.84
409.898	379.56
410.107	377.51
410.315	410.28
410.524	336.55
410.733	430.76
410.941	389.8
411.15	496.29
411.358	477.86
411.567	604.83
411.775	477.86
411.984	473.76
412.192	475.81
412.401	518.82
412.609	590.5
412.818	645.79
413.026	664.22
413.234	588.45
413.443	637.6
413.651	674.46
413.86	668.32
414.068	656.03
414.276	725.66
414.485	709.28
414.693	785.05
414.901	879.26
415.11	856.73
415.318	889.5
415.526	926.36
415.734	938.65
415.943	1073.82
416.151	1018.52
416.359	971.42
416.567	1034.91
416.776	1149.59
416.984	1204.89
417.192	1368.73
417.4	1288.85
417.608	1249.94
417.817	1284.76
418.025	1333.91
418.233	1497.75
418.441	1409.69
418.649	1446.55
418.857	1741.46
419.065	1671.83
419.273	1610.39
419.481	1739.41
419.689	1831.57
419.897	1903.25
420.105	1958.54
420.313	1938.06
420.521	1950.35
420.729	1936.01
420.937	2155.15
421.145	2224.78
421.353	2392.71
421.561	2415.24
421.769	2550.4
421.977	2609.79
422.185	2540.16
422.393	2884.22
422.601	3039.87
422.809	2976.38
423.017	2902.65
423.224	3000.96
423.432	3220.09
423.64	3183.23
423.848	3609.2
424.056	3504.76
424.263	3465.85
424.471	3658.35
424.679	3601.01
424.887	3844.72
425.094	3914.35
425.302	3955.31
425.51	3981.93
425.718	4356.71
425.925	4325.99
426.133	4627.04
426.341	4772.45
426.548	5014.11
426.756	4880.99
426.964	5034.59
427.171	5182.04
427.379	5423.7
427.586	5655.12
427.794	5761.62
428.001	6036.05
428.209	6281.8
428.417	6208.08
428.624	6605.38
428.832	6642.25
429.039	6554.18
429.247	6687.3
429.454	7346.75
429.662	7770.68
429.869	7078.46
430.076	7844.4
430.284	7332.41
430.491	7770.68
430.699	8200.75
430.906	8213.04
431.114	8299.05
431.321	8761.89
431.528	8806.95
431.736	9261.6
431.943	9820.69
432.15	9474.59
432.358	9439.77
432.565	10117.65
432.772	10048.02
432.979	10504.71
433.187	10865.16
433.394	10805.77
433.601	11622.91
433.808	11604.47
434.016	11604.47
434.223	12100.08
434.43	12726.76
434.637	12519.92
434.844	13314.53
435.052	13511.13
435.259	13310.43
435.466	13658.59
435.673	13423.07
435.88	14428.62
436.087	15335.87
436.294	15018.44
436.501	14854.6
436.708	15102.4
436.915	15544.77
437.122	16409.01
437.329	16249.27
437.537	16523.69
437.743	17099.17
437.95	16890.28
438.157	17861.02
438.364	18289.04
438.571	18211.22
438.778	18391.44
438.985	20431.22
439.192	19073.42
439.399	20226.42
439.606	19294.6
439.813	20840.81
440.02	21965.15
440.227	21463.4
440.433	21246.31
440.64	22026.59
440.847	21795.17
441.054	22305.11
441.261	23845.18
441.467	23540.04
441.674	24082.75
441.881	24924.46
442.088	24838.45
442.294	24721.71
442.501	25338.15
442.708	25921.82
442.914	26761.49
443.121	27855.11
443.328	27279.63
443.534	28961.01
443.741	28401.91
443.948	27928.83
444.154	29937.89
444.361	29612.26
444.568	30046.43
444.774	29960.42
444.981	30390.49
445.187	31109.33
445.394	32417.98
445.6	31875.27
445.807	35127.44
446.013	33761.45
446.22	34035.88
446.426	35428.49
446.633	35797.13
446.839	36788.35
447.046	35109.01
447.252	37212.27
447.459	37302.39
447.665	37171.32
447.871	38811.74
448.078	40065.1
448.284	38301.79
448.491	39233.62
448.697	40982.59
448.903	41594.93
449.11	41582.64
449.316	40669.25
449.522	41515.06
449.728	43243.54
449.935	42807.33
450.141	42864.67
450.347	43730.96
450.553	42395.68
450.76	43247.64
450.966	44666.88
451.172	43477.01
451.378	44980.22
451.584	43950.09
451.791	44742.66
451.997	44703.74
452.203	45064.19
452.409	45426.68
452.615	44898.3
452.821	43579.41
453.027	43016.22
453.233	45529.08
453.44	42934.3
453.646	43825.17
453.852	44040.2
454.058	44689.41
454.264	43245.59
454.47	43976.72
454.676	42932.25
454.882	44537.86
455.088	40843.32
455.294	41181.24
455.5	41867.31
455.705	42186.79
455.911	40532.03
456.117	39759.95
456.323	39155.8
456.529	37238.9
456.735	38344.8
456.941	37419.12
457.147	37169.27
457.352	35944.58
457.558	35676.3
457.764	35473.55
457.97	34875.54
458.176	34265.25
458.381	34203.81
458.587	32293.05
458.793	32284.86
458.999	30951.63
459.204	33284.27
459.41	32078.02
459.616	29868.26
459.821	30122.21
460.027	29958.37
460.233	29245.68
460.438	28178.68
460.644	28248.32
460.85	27146.51
461.055	26450.2
461.261	26655
461.466	24408.37
461.672	23793.98
461.878	25383.21
462.083	23763.26
462.289	23361.86
462.494	23230.79
462.7	22266.2
462.905	21510.5
463.111	22346.07
463.316	22372.69
463.522	21893.47
463.727	21916
463.932	21993.82
464.138	21655.9
464.343	21768.54
464.549	21184.87
464.754	22114.65
464.959	21827.93
465.165	21438.82
465.37	20699.5
465.575	20177.27
465.781	20887.92
465.986	21029.23
466.191	20216.18
466.397	19980.67
466.602	19018.12
466.807	19857.79
467.012	19720.57
467.218	19491.2
467.423	19466.63
467.628	19335.56
467.833	20285.81
468.038	19331.46
468.244	18981.26
468.449	19765.63
468.654	19014.02
468.859	18944.39
469.064	18798.99
469.269	18078.1
469.474	18258.32
469.679	18604.43
469.885	17895.83
470.09	18319.76
470.295	17863.07
470.5	17605.02
470.705	17854.87
470.91	17226.15
471.115	17277.35
471.32	17451.42
471.525	17502.62
471.73	16851.37
471.935	16968.1
472.139	16390.58
472.344	16601.52
472.549	16578.99
472.754	16292.27
472.959	15819.19
473.164	15581.63
473.369	15317.44
473.574	15915.45
473.778	15770.04
473.983	15641.02
474.188	15616.44
474.393	14868.94
474.598	15045.06
474.802	14926.28
475.007	14680.52
475.212	14662.09
475.417	14373.33
475.621	14361.04
475.826	14377.42
476.031	14043.6
476.235	13951.45
476.44	14191.06
476.645	13566.43
476.849	13693.4
477.054	13572.57
477.259	13165.03
477.463	13464.03
477.668	13074.92
477.872	13208.03
478.077	12835.3
478.282	12628.46
478.486	12624.36
478.691	12530.16
478.895	12265.97
479.1	12380.65
479.304	12446.19
479.509	12184.05
479.713	12351.98
479.918	12046.83
480.122	11813.37
480.326	12194.29
480.531	11993.59
480.735	11862.52
480.94	11756.02
481.144	12157.43
481.348	11682.3
481.553	11839.99
481.757	11686.39
481.961	11506.17
482.166	11856.37
482.37	11858.42
482.574	11641.34
482.778	11725.3
482.983	11864.57
483.187	11674.1
483.391	11696.63
483.595	11559.42
483.8	11500.03
484.004	11745.78
484.208	11782.65
484.412	11479.55
484.616	11559.42
484.821	11651.58
485.025	11725.3
485.229	11829.75
485.433	11690.49
485.637	11598.33
485.841	11473.4
486.045	11553.27
486.249	11575.8
486.453	11674.1
486.657	11561.47
486.861	11684.34
487.065	11252.22
487.269	11579.9
487.473	11317.76
487.677	11510.27
487.881	11735.54
488.085	11698.68
488.289	11799.03
488.493	11608.57
488.697	11768.31
488.901	11760.12
489.105	11657.72
489.309	11923.96
489.512	11815.41
489.716	11749.88
489.92	11903.48
490.124	11651.58
490.328	12075.51
490.531	11934.2
490.735	11950.58
490.939	12044.79
491.143	12106.23
491.346	11952.63
491.55	12351.98
491.754	12245.49
491.958	12315.12
492.161	12229.1
492.365	12243.44
492.569	12302.83
492.772	12382.7
492.976	12499.44
493.18	12601.83
493.383	12722.66
493.587	12800.49
493.79	12872.17
493.994	12585.45
494.197	12825.06
494.401	13027.81
494.605	12990.95
494.808	13322.72
495.012	13195.75
495.215	13427.17
495.419	13470.17
495.622	13267.42
495.825	13844.95
496.029	13787.61
496.232	13937.11
496.436	13941.21
496.639	14164.43
496.843	14365.14
497.046	14408.14
497.249	14653.9
497.453	14868.94
497.656	15038.92
497.859	14934.47
498.063	15006.15
498.266	15503.81
498.469	15192.51
498.673	15323.58
498.876	15952.31
499.079	15997.37
499.282	15946.17
499.485	16542.13
499.689	16259.51
499.892	16642.48
500.095	16611.76
500.298	17273.25
500.501	17041.83
500.705	17697.18
500.908	17910.17
501.111	17711.52
501.314	17791.39
501.517	18049.43
501.72	18368.91
501.923	18542.99
502.126	18872.71
502.329	19138.95
502.532	19192.2
502.735	19224.97
502.938	19790.2
503.141	19413.38
503.344	20240.76
503.547	20451.7
503.75	20427.12
503.953	20625.78
504.156	21039.47
504.359	21117.29
504.562	21277.03
504.765	21709.15
504.968	21924.19
505.17	21993.82
505.373	22253.91
505.576	22636.88
505.779	22683.98
505.982	22800.72
506.185	23533.89
506.387	23550.28
506.59	23812.42
506.793	24082.75
506.996	24092.99
507.198	24883.5
507.401	24817.97
507.604	25041.2
507.807	25559.33
508.009	25542.95
508.212	25844
508.415	26067.23
508.617	26159.39
508.82	26523.93
509.022	26614.04
509.225	26941.71
509.428	27828.48
509.63	28014.85
509.833	27867.39
510.035	28217.6
510.238	28428.54
510.44	28336.38
510.643	29395.18
510.845	29042.93
511.048	28963.06
511.25	29989.09
511.453	29903.07
511.655	30806.23
511.858	30820.56
512.06	30609.62
512.262	31813.83
512.465	31340.75
512.667	31809.73
512.87	32258.24
513.072	32553.15
513.274	32829.62
513.477	33314.99
513.679	33650.86
513.881	33962.15
514.084	34177.19
514.286	34257.06
514.488	34504.86
514.69	35340.43
514.893	35365.01
515.095	35471.5
515.297	36104.32
515.499	36159.62
515.701	36702.33
515.904	37013.62
516.106	37032.05
516.308	37795.95
516.51	38281.31
516.712	38355.04
516.914	38492.26
517.116	38996.06
517.318	38860.89
517.52	39569.49
517.722	39571.53
517.925	40243.27
518.127	40970.3
518.329	41150.52
518.531	40624.19
518.733	41625.65
518.935	42018.86
519.136	42197.03
519.338	42516.51
519.54	42516.51
519.742	43423.76
519.944	43546.64
520.146	44494.85
520.348	44169.22
520.55	44726.27
520.752	44759.04
520.954	45447.16
521.155	45262.84
521.357	46147.56
521.559	46692.32
521.761	46686.18
521.963	46553.06
522.164	46903.26
522.366	47060.96
522.568	48072.65
522.77	47615.96
522.971	48537.54
523.173	48437.19
523.375	49006.53
523.576	48981.95
523.778	49035.2
523.98	49891.25
524.181	49989.55
524.383	49946.54
524.584	50601.89
524.786	50395.05
524.988	50845.6
525.189	50657.19
525.391	51386.27
525.592	51896.21
525.794	51668.89
525.995	51748.76
526.197	52019.09
526.398	52031.38
526.6	52299.66
526.801	52901.76
527.003	52660.1
527.204	53102.46
527.406	53430.14
527.607	53270.4
527.808	53819.25
528.01	52907.91
528.211	53958.52
528.412	54912.87
528.614	54110.07
528.815	54105.97
529.016	54785.89
529.218	54529.9
529.419	54544.23
529.62	54644.58
529.822	55070.56
530.023	54386.54
530.224	55220.06
530.425	55127.91
530.626	54966.12
530.828	54798.18
531.029	55990.1
531.23	55314.27
531.431	55312.22
531.632	55662.43
531.833	55580.51
532.035	55621.47
532.236	55779.16
532.437	56186.71
532.638	55818.07
532.839	56090.45
533.04	56035.16
533.241	55791.45
533.442	56858.44
533.643	56194.9
533.844	55916.37
534.045	56325.97
534.246	56133.46
534.447	56373.07
534.648	56047.44
534.849	56145.75
535.05	55957.33
535.251	56141.65
535.451	55924.57
535.652	56244.05
535.853	56059.73
536.054	56493.9
536.255	56039.25
536.456	55836.5
536.657	56999.75
536.857	56342.35
537.058	56354.64
537.259	56620.87
537.46	56854.34
537.66	56432.46
537.861	56500.04
538.062	56096.59
538.263	56622.92
538.463	56368.97
538.664	56223.57
538.865	56747.85
539.065	56690.51
539.266	56289.1
539.466	57186.11
539.667	55891.8
539.868	56891.21
540.068	56702.79
540.269	56528.72
540.469	56678.22
540.67	56143.7
540.87	56541
541.071	56514.38
541.271	56184.66
541.472	56440.65
541.672	56493.9
541.873	56383.31
542.073	55975.76
542.274	56454.99
542.474	56217.42
542.675	56506.19
542.875	56743.75
543.075	56317.78
543.276	55598.94
543.476	56078.16
543.676	56072.02
543.877	56555.34
544.077	56362.83
544.277	56481.61
544.478	56164.18
544.678	56547.15
544.878	56006.48
545.078	56383.31
545.279	55648.09
545.479	56000.34
545.679	56141.65
545.879	55904.09
546.079	56411.98
546.28	56051.54
546.48	55826.26
546.68	56751.94
546.88	56325.97
547.08	56047.44
547.28	55762.78
547.48	55727.96
547.68	56354.64
547.88	55713.62
548.081	56158.03
548.281	56067.92
548.481	55891.8
548.681	56368.97
548.881	55734.1
549.081	55850.84
549.28	55637.85
549.48	56174.42
549.68	55635.8
549.88	56663.88
550.08	55928.66
550.28	56186.71
550.48	55674.71
550.68	56055.64
550.88	55377.76
551.08	55768.92
551.279	55822.17
551.479	55547.74
551.679	55768.92
551.879	55893.85
552.079	55867.22
552.278	55752.54
552.478	55373.66
552.678	55248.74
552.878	56223.57
553.077	55629.66
553.277	54876.01
553.477	55918.42
553.676	55252.83
553.876	55899.99
554.076	55443.29
554.275	55557.98
554.475	54896.49
554.674	55183.2
554.874	55127.91
555.074	55287.65
555.273	55232.35
555.473	55238.5
555.672	55500.64
555.872	54916.96
556.071	55431
556.271	55551.83
556.47	54718.31
556.67	54435.69
556.869	55115.62
557.068	55084.9
557.268	54638.44
557.467	54908.77
557.667	54759.27
557.866	54527.85
558.065	54703.98
558.265	54523.75
558.464	54519.66
558.663	54640.49
558.863	54456.17
559.062	55172.96
559.261	54015.86
559.461	55076.71
559.66	54075.25
559.859	54286.19
560.058	53870.45
560.258	54179.7
560.457	53884.79
560.656	54374.25
560.855	53780.34
561.054	53677.94
561.253	53925.75
561.453	53737.33
561.652	53884.79
561.851	53792.63
562.05	53245.82
562.249	53278.59
562.448	53587.83
562.647	53168
562.846	53297.02
563.045	53084.03
563.244	52418.44
563.443	53528.44
563.642	52422.54
563.841	53061.5
564.04	52191.12
564.239	53389.18
564.438	52078.48
564.637	52160.4
564.836	52371.34
565.035	52418.44
565.234	52440.97
565.432	52279.18
565.631	52127.63
565.83	52139.92
566.029	52033.42
566.228	51795.86
566.427	51320.73
566.625	51541.91
566.824	51429.27
567.023	51799.96
567.222	50980.77
567.42	51656.6
567.619	51234.72
567.818	50960.29
568.016	50698.15
568.215	51046.3
568.414	50904.99
568.612	51167.13
568.811	50438.06
569.01	50538.41
569.208	50249.64
569.407	50685.86
569.605	49981.36
569.804	50675.62
570.002	49790.9
570.201	50628.52
570.4	49403.83
570.598	49928.11
570.797	49362.87
570.995	49526.71
571.193	49147.84
571.392	49997.74
571.59	49004.48
571.789	49412.02
571.987	49319.87
572.186	49240
572.384	48777.15
572.582	48897.98
572.781	48748.48
572.979	48197.58
573.177	48377.8
573.376	48760.77
573.574	47974.35
573.772	48404.42
573.971	47472.6
574.169	47904.72
574.367	47396.82
574.565	48113.61
574.763	47503.32
574.962	47478.74
575.16	47392.73
575.358	47929.3
575.556	46872.54
575.754	47671.25
575.952	46755.81
576.151	47089.63
576.349	46663.65
576.547	46774.24
576.745	46925.79
576.943	46536.68
577.141	46454.76
577.339	46499.81
577.537	46307.3
577.735	45877.23
577.933	45727.73
578.131	46118.89
578.329	45705.2
578.527	45551.6
578.725	45555.7
578.923	45328.38
579.121	45144.06
579.319	45373.43
579.516	45701.11
579.714	45066.24
579.912	45086.71
580.11	44933.12
580.308	44836.86
580.506	44843.01
580.704	44091.4
580.901	44685.31
581.099	44843.01
581.297	44046.35
581.495	44003.34
581.692	44417.03
581.89	43759.63
582.088	44312.58
582.285	43782.16
582.483	44134.41
582.681	43765.77
582.878	43300.89
583.076	42985.5
583.274	43431.96
583.471	42752.03
583.669	42977.31
583.866	43094.04
584.064	42895.39
584.262	42846.24
584.459	43243.54
584.657	42592.29
584.854	42604.58
585.052	41951.27
585.249	41904.17
585.447	42293.29
585.644	41574.45
585.841	41859.12
586.039	42182.69
586.236	41652.27
586.434	41490.48
586.631	41162.81
586.828	41259.06
587.026	41035.83
587.223	41566.26
587.42	40812.6
587.618	41187.38
587.815	40570.94
588.012	40597.57
588.21	40347.71
588.407	40945.72
588.604	40206.41
588.801	40083.53
588.999	40220.74
589.196	39884.87
589.393	40329.28
589.59	39854.15
589.787	39772.24
589.984	40099.91
590.182	39768.14
590.379	39788.62
590.576	39524.43
590.773	39514.19
590.97	38959.19
591.167	39514.19
591.364	38942.81
591.561	39032.92
591.758	38375.52
591.955	38545.5
592.152	38740.06
592.349	38205.54
592.546	38066.28
592.743	38002.79
592.94	37382.26
593.137	37763.18
593.334	38094.95
593.531	37687.4
593.727	37947.5
593.924	37931.11
594.121	37419.12
594.318	37886.06
594.515	37183.6
594.712	37558.38
594.908	37087.35
595.105	37238.9
595.302	36542.59
595.499	37140.6
595.696	36733.05
595.892	36405.38
596.089	36649.08
596.286	36589.69
596.482	36251.78
596.679	36227.2
596.876	36423.81
597.072	36153.47
597.269	35829.9
597.466	35815.56
597.662	35713.16
597.859	35418.25
598.055	35545.23
598.252	35348.62
598.448	35422.35
598.645	35135.63
598.841	34990.23
599.038	35205.27
599.234	34654.36
599.431	34949.27
599.627	34781.34
599.824	34920.6
600.02	34742.42
600.217	34871.45
600.413	34209.95
600.609	34326.69
600.806	34015.4
601.002	34234.53
601.198	33896.61
601.395	33736.87
601.591	33751.21
601.787	33609.9
601.984	33859.75
602.18	33341.61
602.376	33282.22
602.572	33165.49
602.769	33220.78
602.965	33081.52
603.161	33138.86
603.357	32704.7
603.553	32835.77
603.75	32956.6
603.946	32610.49
604.142	32575.67
604.338	32018.63
604.534	32747.7
604.73	31957.19
604.926	32112.83
605.122	32241.85
605.318	31987.91
605.514	31895.75
605.71	31881.41
605.906	31758.53
606.102	31684.81
606.298	31627.46
606.494	31594.7
606.69	31627.46
606.886	31504.59
607.082	31043.79
607.278	31457.48
607.474	30935.25
607.67	31318.22
607.866	30978.26
608.062	31338.7
608.257	30750.93
608.453	30974.16
608.649	30912.72
608.845	30849.24
609.041	30642.39
609.236	31043.79
609.432	30306.52
609.628	30390.49
609.824	30376.16
610.019	30503.13
610.215	30109.92
610.411	30458.07
610.606	30030.05
610.802	30247.13
610.998	30124.25
611.193	29886.69
611.389	29612.26
611.584	29821.16
611.78	29636.84
611.976	29669.61
612.171	29782.24
612.367	29792.48
612.562	29743.33
612.758	29577.45
612.953	28983.54
613.149	29763.81
613.344	28772.6
613.539	29745.38
613.735	29098.22
613.93	29241.58
614.126	29085.93
614.321	29673.7
614.517	29358.31
614.712	29237.48
614.907	29110.51
615.103	29262.06
615.298	29040.88
615.493	29114.61
615.688	28846.32
615.884	29118.7
616.079	28375.29
616.274	28768.5
616.47	28444.92
616.665	28502.26
616.86	28322.04
617.055	28483.83
617.25	28698.87
617.445	28496.12
617.641	27611.4
617.836	28432.63
618.031	27377.93
618.226	28125.44
618.421	27867.39
618.616	28219.64
618.811	27509
619.006	28193.02
619.201	27078.93
619.396	27502.85
619.591	27269.39
619.786	27453.7
619.981	26923.28
620.176	27189.52
620.371	26827.03
620.566	26988.81
620.761	26650.9
620.956	26452.25
621.151	26589.46
621.346	26712.34
621.541	26380.57
621.735	26503.45
621.93	25819.42
622.125	26126.62
622.32	25714.98
622.515	25837.86
622.709	25387.3
622.904	25366.82
623.099	25291.05
623.294	25467.17
623.488	25041.2
623.683	24895.79
623.878	24844.59
624.072	24936.75
624.267	24543.54
624.462	24353.08
624.656	24391.99
624.851	24301.88
625.046	24015.16
625.24	24058.17
625.435	23783.74
625.629	23613.76
625.824	23634.24
626.018	23687.49
626.213	23335.24
626.407	23445.83
626.602	22610.26
626.796	23161.16
626.991	23228.74
627.185	22864.21
627.38	22514
627.574	22505.81
627.768	22481.24
627.963	22233.43
628.157	22083.93
628.352	22171.99
628.546	21707.1
628.74	21926.24
628.935	21526.88
629.129	21772.64
629.323	21270.89
629.517	21137.77
629.712	21262.69
629.906	21080.42
630.1	20631.92
630.294	21334.37
630.489	20762.99
630.683	21080.42
630.877	20707.69
631.071	20396.4
631.265	20519.28
631.459	20185.46
631.653	20244.85
631.848	19949.95
632.042	19874.17
632.236	19857.79
632.43	19763.58
632.624	19730.81
632.818	19532.16
633.012	19147.14
633.206	19224.97
633.4	19650.94
633.594	18862.47
633.788	19253.64
633.982	19171.72
634.176	19069.32
634.369	18870.67
634.563	18755.98
634.757	18588.05
634.951	18674.06
635.145	18489.74
635.339	18549.14
635.533	18266.52
635.726	18117.01
635.92	18026.9
636.114	17922.46
636.308	17746.33
636.501	17873.31
636.695	17828.25
636.889	17428.9
637.083	17459.62
637.276	17412.51
637.47	17318.31
637.664	17252.77
637.857	17162.66
638.051	17009.06
638.244	16992.68
638.438	16943.53
638.632	16826.79
638.825	16689.58
639.019	16556.46
639.212	16355.76
639.406	16759.21
639.599	16259.51
639.793	16476.59
639.986	16099.76
640.18	16148.92
640.373	15878.58
640.567	15833.53
640.76	15888.82
640.954	15724.99
641.147	15440.32
641.34	15538.62
641.534	15641.02
641.727	15466.94
641.92	15335.87
642.114	15120.84
642.307	15258.05
642.5	15110.6
642.694	15043.01
642.887	14885.32
643.08	14805.45
643.273	14995.91
643.467	14887.37
643.66	14393.81
643.853	14547.4
644.046	14227.92
644.239	14377.42
644.432	14322.13
644.626	14062.04
644.819	13951.45
645.012	14143.95
645.205	13842.9
645.398	13834.71
645.591	14045.65
645.784	13668.83
645.977	13531.61
646.17	13685.21
646.363	13488.6
646.556	13312.48
646.749	13513.18
646.942	13398.49
647.135	13392.35
647.328	13144.55
647.521	13158.88
647.714	13005.28
647.907	13091.3
648.099	13187.55
648.292	13021.67
648.485	12800.49
648.678	12585.45
648.871	12732.9
649.064	12462.57
649.256	12767.72
649.449	12390.89
649.642	12384.75
649.835	12526.06
650.027	12175.86
650.22	12120.56
650.413	12106.23
650.605	12093.94
650.798	11966.96
650.991	11891.19
651.183	12050.93
651.376	11553.27
651.568	11737.59
651.761	11532.79
651.954	11528.7
652.146	11864.57
652.339	11448.83
652.531	11522.55
652.724	11223.55
652.916	11209.22
653.109	11305.47
653.301	11047.43
653.494	11188.74
653.686	10961.41
653.879	11207.17
654.071	11026.95
654.263	11053.57
654.456	10869.25
654.648	10940.93
654.84	10791.43
655.033	10732.04
655.225	10744.33
655.417	10385.93
655.61	10467.85
655.802	10627.59
655.994	10512.91
656.186	10459.66
656.379	10142.22
656.571	10330.64
656.763	10088.98
656.955	10291.73
657.148	10240.53
657.34	9798.17
657.532	9976.34
657.724	9681.43
657.916	9962
658.108	9847.32
658.3	9693.72
658.492	9867.8
658.684	9409.05
658.876	9599.51
659.068	9658.9
659.26	9724.44
659.452	9548.31
659.644	9683.48
659.836	9382.43
660.028	9454.11
660.22	9343.52
660.412	9114.14
660.604	8946.21
660.796	9214.49
660.988	9103.9
661.18	8895.01
661.372	8778.28
661.563	8849.96
661.755	8987.17
661.947	8944.16
662.139	8852
662.331	8553
662.522	8534.57
662.714	8729.13
662.906	8559.14
663.097	8483.37
663.289	8550.95
663.481	8546.86
663.673	8466.99
663.864	8448.55
664.056	8419.88
664.247	8352.3
664.439	8204.85
664.631	8200.75
664.822	8176.17
665.014	8141.36
665.205	8127.02
665.397	8170.03
665.588	8028.72
665.78	7922.23
665.971	8036.91
666.163	8016.43
666.354	7991.86
666.546	7948.85
666.737	7789.11
666.929	7903.79
667.12	7889.46
667.311	7641.65
667.503	7653.94
667.694	7715.38
667.885	7578.17
668.077	7561.78
668.268	7412.28
668.459	7402.04
668.651	7461.43
668.842	7377.47
669.033	7402.04
669.224	7328.31
669.416	7404.09
669.607	7086.65
669.798	7127.61
669.989	7232.06
670.18	7109.18
670.371	7100.99
670.563	7115.33
670.754	6937.15
670.945	6955.58
671.136	6869.57
671.327	6877.76
671.518	7000.64
671.709	6890.05
671.9	6769.22
672.091	6883.91
672.282	6844.99
672.473	6769.22
672.664	6806.08
672.855	6726.21
673.046	6728.26
673.237	6607.43
673.428	6646.34
673.619	6572.61
673.809	6435.4
674	6531.65
674.191	6435.4
674.382	6595.14
674.573	6521.42
674.764	6333
674.954	6447.69
675.145	6322.76
675.336	6347.34
675.527	6468.17
675.717	6455.88
675.908	6232.65
676.099	6244.94
676.289	6265.42
676.48	6109.77
676.671	6023.76
676.861	6189.64
677.052	6009.42
677.243	6150.73
677.433	6218.32
677.624	6120.01
677.814	6005.33
678.005	5966.42
678.195	5939.79
678.386	6019.66
678.576	5978.7
678.767	5943.89
678.957	6001.23
679.148	5974.61
679.338	5823.06
679.529	6007.38
679.719	5749.33
679.909	5925.46
680.1	5655.12
680.29	5786.19
680.481	5804.63
680.671	5923.41
680.861	5648.98
681.052	5751.38
681.242	5618.26
681.432	5583.45
681.622	5681.75
681.813	5552.73
682.003	5567.06
682.193	5546.58
682.383	5476.95
682.573	5624.4
682.764	5534.29
682.954	5616.21
683.144	5390.94
683.334	5605.97
683.524	5509.72
683.714	5616.21
683.904	5489.24
684.094	5479
684.284	5386.84
684.474	5427.8
684.664	5294.68
684.854	5220.95
685.044	5319.26
685.234	5278.3
685.424	5235.29
685.614	5214.81
685.804	5261.91
685.994	5282.39
686.184	5161.56
686.374	5130.84
686.564	5194.33
686.753	5284.44
686.943	5241.43
687.133	5114.46
687.323	5010.01
687.513	5091.93
687.702	4917.86
687.892	4950.62
688.082	4809.31
688.272	4989.53
688.461	4903.52
688.651	4981.34
688.841	4758.11
689.03	4891.23
689.22	4913.76
689.41	4801.12
689.599	4885.09
689.789	4862.56
689.979	4778.59
690.168	4807.27
690.358	4747.87
690.547	4676.2
690.737	4825.7
690.926	4684.39
691.116	4606.56
691.305	4756.07
691.495	4588.13
691.684	4491.88
691.874	4616.8
692.063	4524.65
692.252	4551.27
692.442	4635.24
692.631	4393.58
692.82	4469.35
693.01	4371.05
693.199	4387.43
693.388	4555.37
693.578	4348.52
693.767	4272.75
693.956	4317.8
694.146	4276.84
694.335	4215.4
694.524	4237.93
694.713	4229.74
694.902	4397.67
695.092	4231.79
695.281	4049.52
695.47	4254.31
695.659	4213.35
695.848	4119.15
696.037	4262.51
696.226	4094.57
696.415	4223.59
696.604	4139.63
696.793	4272.75
696.982	4256.36
697.171	4137.58
697.36	4153.96
697.549	4156.01
697.738	4088.43
697.927	4065.9
698.116	3996.27
698.305	4078.19
698.494	4143.72
698.683	4199.02
698.872	4172.39
699.061	3887.73
699.25	4076.14
699.438	4174.44
699.627	4022.89
699.816	4041.32
700.005	4026.99
700.193	4041.32
700.382	4080.24
700.571	3981.93
700.76	3969.65
700.948	3936.88
701.137	3998.32
701.326	4104.81
701.514	3938.93
701.703	3895.92
701.892	3916.4
702.08	3881.58
702.269	3877.49
702.457	3904.11
702.646	3953.26
702.834	3803.76
703.023	3951.21
703.212	3902.06
703.4	3795.57
703.589	3781.23
703.777	3754.61
703.965	3758.71
704.154	3840.62
704.342	3678.83
704.531	3787.38
704.719	3633.78
704.907	3807.86
705.096	3682.93
705.284	3750.51
705.472	3793.52
705.661	3666.55
705.849	3809.9
706.037	3787.38
706.226	3672.69
706.414	3736.18
706.602	3641.97
706.79	3750.51
706.979	3603.06
707.167	3748.47
707.355	3701.36
707.543	3551.86
707.731	3582.58
707.919	3662.45
708.107	3582.58
708.296	3576.44
708.484	3566.2
708.672	3525.24
708.86	3596.92
709.048	3533.43
709.236	3582.58
709.424	3568.24
709.612	3621.49
709.8	3500.66
709.988	3504.76
710.176	3592.82
710.364	3453.56
710.551	3551.86
710.739	3519.09
710.927	3408.5
711.115	3402.36
711.303	3486.33
711.491	3459.7
711.679	3578.48
711.866	3564.15
712.054	3539.57
712.242	3486.33
712.43	3435.13
712.617	3480.18
712.805	3383.93
712.993	3322.49
713.181	3377.78
713.368	3496.57
713.556	3355.26
713.744	3295.86
713.931	3504.76
714.119	3318.39
714.306	3555.96
714.494	3451.51
714.682	3295.86
714.869	3246.71
715.057	3345.02
715.244	3254.9
715.432	3316.34
715.619	3392.12
715.807	3471.99
715.994	3355.26
716.182	3306.1
716.369	3398.26
716.556	3287.67
716.744	3099.26
716.931	3316.34
717.119	3211.9
717.306	3218.04
717.493	3224.19
717.681	3293.82
717.868	3195.51
718.055	3158.65
718.242	3080.83
718.43	3238.52
718.617	3195.51
718.804	3140.22
718.991	3197.56
719.179	3158.65
719.366	3089.02
719.553	3234.43
719.74	3162.75
719.927	3152.51
720.114	3146.36
720.301	3043.96
720.488	3035.77
720.676	3074.68
720.863	3140.22
721.05	3209.85
721.237	3070.59
721.424	3144.31
721.611	2986.62
721.798	2953.85
721.985	3027.58
722.172	2986.62
722.358	3060.35
722.545	3156.6
722.732	3035.77
722.919	3003
723.106	3007.1
723.293	2906.75
723.48	2900.61
723.667	2970.24
723.853	2867.84
724.04	2937.47
724.227	2945.66
724.414	2962.05
724.6	2894.46
724.787	2939.52
724.974	3017.34
725.161	2949.76
725.347	2812.54
725.534	2962.05
725.72	2765.44
725.907	2734.72
726.094	2919.04
726.28	2953.85
726.467	2798.21
726.653	2871.93
726.84	2787.97
727.027	2962.05
727.213	2706.05
727.4	2941.57
727.586	2749.06
727.773	2800.26
727.959	2861.69
728.145	2775.68
728.332	2841.22
728.518	2845.31
728.705	2814.59
728.891	2732.67
729.077	2820.74
729.264	2761.34
729.45	2761.34
729.636	2740.86
729.823	2742.91
730.009	2691.71
730.195	2742.91
730.382	2720.39
730.568	2601.6
730.754	2763.39
730.94	2660.99
731.126	2615.94
731.313	2665.09
731.499	2521.73
731.685	2630.27
731.871	2722.43
732.057	2613.89
732.243	2673.28
732.429	2626.18
732.615	2566.79
732.801	2540.16
732.987	2724.48
733.173	2640.51
733.359	2579.08
733.545	2497.16
733.731	2527.88
733.917	2701.95
734.103	2587.27
734.289	2491.01
734.475	2439.81
734.661	2572.93
734.847	2423.43
735.033	2607.75
735.219	2560.64
735.404	2441.86
735.59	2552.45
735.776	2507.4
735.962	2536.07
736.148	2570.88
736.333	2474.63
736.519	2413.19
736.705	2439.81
736.89	2454.15
737.076	2433.67
737.262	2450.05
737.447	2460.29
737.633	2409.09
737.819	2370.18
738.004	2374.28
738.19	2341.51
738.375	2425.48
738.561	2439.81
738.747	2308.74
738.932	2402.95
739.118	2337.41
739.303	2300.55
739.489	2263.69
739.674	2294.41
739.859	2149
740.045	2308.74
740.23	2286.22
740.416	2230.92
740.601	2271.88
740.786	2222.73
740.972	2177.67
741.157	2294.41
741.342	2247.3
741.528	2175.63
741.713	2216.58
741.898	2103.95
742.084	2257.54
742.269	2282.12
742.454	2282.12
742.639	2149
742.824	2144.91
743.01	2120.33
743.195	2026.12
743.38	2153.1
743.565	2138.76
743.75	2159.24
743.935	2052.75
744.12	2110.09
744.305	1966.73
744.49	2052.75
744.675	2013.84
744.86	1958.54
745.045	2046.6
745.23	2062.99
745.415	1956.49
745.6	2042.51
745.785	1933.97
745.97	2093.71
746.155	1979.02
746.34	2056.84
746.525	1841.81
746.71	1913.49
746.895	1921.68
747.079	1952.4
747.264	1813.13
747.449	1876.62
747.634	1774.22
747.819	1985.16
748.003	1778.32
748.188	1786.51
748.373	1841.81
748.557	1872.53
748.742	1796.75
748.927	1827.47
749.111	1745.55
749.296	1788.56
749.481	1786.51
749.665	1751.7
749.85	1567.38
750.034	1663.63
750.219	1696.4
750.404	1659.54
750.588	1780.37
750.773	1714.83
750.957	1755.79
751.141	1591.95
751.326	1682.06
751.51	1659.54
751.695	1577.62
751.879	1536.66
752.064	1716.88
752.248	1507.99
752.432	1559.19
752.617	1501.84
752.801	1563.28
752.985	1538.71
753.17	1647.25
753.354	1594
753.538	1555.09
753.722	1528.47
753.907	1415.83
754.091	1458.84
754.275	1493.65
754.459	1405.59
754.643	1397.4
754.828	1409.69
755.012	1381.01
755.196	1317.53
755.38	1393.3
755.564	1352.34
755.748	1313.43
755.932	1358.49
756.116	1260.18
756.3	1311.38
756.484	1270.42
756.668	1274.52
756.852	1213.08
757.036	1333.91
757.22	1364.63
757.404	1274.52
757.588	1274.52
757.772	1307.29
757.956	1237.66
758.14	1344.15
758.323	1200.79
758.507	1282.71
758.691	1262.23
758.875	1256.09
759.059	1176.22
759.242	1217.18
759.426	1163.93
759.61	1241.75
759.794	1092.25
759.977	1153.69
760.161	1317.53
760.345	1163.93
760.528	1196.7
760.712	1084.06
760.895	1174.17
761.079	1139.35
761.263	1024.67
761.446	1163.93
761.63	1098.39
761.813	1133.21
761.997	1137.31
762.18	1100.44
762.364	1106.59
762.547	1065.63
762.731	1084.06
762.914	1065.63
763.098	1108.63
763.281	1028.76
763.464	1053.34
763.648	1034.91
763.831	1004.19
764.015	1053.34
764.198	1055.39
764.381	1057.43
764.564	1008.28
764.748	1043.1
764.931	1045.15
765.114	914.08
765.297	1108.63
765.481	1063.58
765.664	955.04
765.847	1032.86
766.03	1061.53
766.213	1045.15
766.397	989.85
766.58	971.42
766.763	1079.96
766.946	897.69
767.129	1069.72
767.312	993.95
767.495	918.17
767.678	1026.71
767.861	897.69
768.044	922.27
768.227	1012.38
768.41	967.32
768.593	1022.62
768.776	922.27
768.959	961.18
769.142	1012.38
769.324	918.17
769.507	948.89
769.69	879.26
769.873	932.51
770.056	967.32
770.239	909.98
770.421	991.9
770.604	817.82
770.787	897.69
770.97	875.17
771.152	903.84
771.335	891.55
771.518	912.03
771.7	873.12
771.883	963.23
772.066	852.64
772.248	762.53
772.431	897.69
772.613	922.27
772.796	823.97
772.978	811.68
773.161	811.68
773.343	832.16
773.526	807.58
773.708	854.69
773.891	770.72
774.073	889.5
774.256	752.29
774.438	848.54
774.621	742.05
774.803	807.58
774.985	756.38
775.168	797.34
775.35	783.01
775.532	733.86
775.715	795.29
775.897	795.29
776.079	717.47
776.261	680.61
776.444	690.85
776.626	639.65
776.808	742.05
776.99	668.32
777.173	731.81
777.355	707.23
777.537	680.61
777.719	696.99
777.901	692.9
778.083	549.54
778.265	711.33
778.447	629.41
778.629	649.89
778.811	694.94
778.993	750.24
779.175	621.22
779.357	676.51
779.539	584.35
779.721	617.12
779.903	666.27
780.085	641.7
780.267	613.03
780.449	588.45
780.631	641.7
780.812	619.17
780.994	682.66
781.176	600.74
781.358	635.55
781.54	606.88
781.721	598.69
781.903	692.9
782.085	557.73
782.267	576.16
782.448	555.68
782.63	529.06
782.812	625.31
782.993	584.35
783.175	512.67
783.357	486.05
783.538	420.52
783.72	498.34
783.901	535.2
784.083	563.87
784.264	453.28
784.446	522.91
784.627	445.09
784.809	465.57
784.99	477.86
785.172	459.43
785.353	465.57
785.535	529.06
785.716	432.8
785.897	404.13
786.079	479.91
786.26	494.24
786.441	494.24
786.623	447.14
786.804	367.27
786.985	438.95
787.167	537.25
787.348	420.52
787.529	438.95
787.71	453.28
787.891	467.62
788.073	395.94
788.254	418.47
788.435	418.47
788.616	410.28
788.797	451.24
788.978	381.6
789.159	352.93
789.34	400.04
789.522	412.32
789.703	363.17
789.884	379.56
790.065	414.37
790.246	408.23
790.427	387.75
790.607	346.79
790.788	371.37
790.969	330.41
791.15	400.04
791.331	385.7
791.512	332.45
791.693	361.13
791.874	352.93
792.054	404.13
792.235	348.84
792.416	334.5
792.597	404.13
792.778	363.17
792.958	397.99
793.139	273.06
793.32	299.69
793.5	320.17
793.681	434.85
793.862	348.84
794.042	348.84
794.223	303.78
794.404	258.73
794.584	287.4
794.765	381.6
794.945	316.07
795.126	297.64
795.306	432.8
795.487	348.84
795.667	314.02
795.848	268.97
796.028	260.77
796.209	324.26
796.389	305.83
796.57	297.64
796.75	264.87
796.93	365.22
797.111	248.49
797.291	352.93
797.471	246.44
797.652	260.77
797.832	305.83
798.012	297.64
798.192	213.67
798.373	246.44
798.553	248.49
798.733	336.55
798.913	201.38
799.093	289.45
799.274	223.91
799.454	299.69
799.634	305.83
799.814	258.73
799.994	195.24
800.174	221.86
800.354	266.92
800.534	213.67
800.714	207.53
800.894	201.38
801.074	268.97
801.254	201.38
801.434	262.82
801.614	283.3
801.794	141.99
801.974	780.96
802.154	271.01
802.334	252.58
802.514	197.29
802.693	217.77
802.873	250.53
803.053	283.3
803.233	164.52
803.413	264.87
803.592	182.95
803.772	217.77
803.952	232.1
804.131	156.33
804.311	215.72
804.491	256.68
804.67	133.8
804.85	117.42
805.03	166.57
805.209	248.49
805.389	238.25
805.568	182.95
805.748	150.18
805.928	246.44
806.107	160.42
806.287	277.16
806.466	221.86
806.646	111.27
806.825	80.55
807.004	178.86
807.184	176.81
807.363	213.67
807.543	205.48
807.722	185
807.901	172.71
808.081	217.77
808.26	105.13
808.439	223.91
808.619	197.29
808.798	213.67
808.977	176.81
809.156	217.77
809.336	158.38
809.515	248.49
809.694	135.85
809.873	215.72
810.052	250.53
810.231	275.11
810.411	156.33
810.59	240.29
810.769	158.38
810.948	201.38
811.127	148.14
811.306	156.33
811.485	133.8
811.664	248.49
811.843	191.14
812.022	172.71
812.201	150.18
812.38	76.46
812.559	144.04
812.737	230.06
812.916	180.9
813.095	117.42
813.274	170.66
813.453	185
813.632	96.94
813.811	152.23
813.989	70.31
814.168	189.1
814.347	103.08
814.526	113.32
814.704	162.47
814.883	135.85
815.062	103.08
815.24	156.33
815.419	66.22
815.598	148.14
815.776	94.89
815.955	133.8
816.133	35.5
816.312	164.52
816.49	156.33
816.669	111.27
816.847	115.37
817.026	133.8
817.204	58.03
817.383	127.66
817.561	131.75
817.74	182.95
817.918	70.31
818.097	72.36
818.275	74.41
818.453	174.76
818.632	105.13
818.81	127.66
818.988	41.64
819.167	172.71
819.345	80.55
819.523	90.79
819.701	94.89
819.879	180.9
820.058	115.37
820.236	139.94
820.414	86.7
820.592	105.13
820.77	135.85
820.948	137.9
821.127	103.08
821.305	45.74
821.483	123.56
821.661	70.31
821.839	123.56
822.017	82.6
822.195	82.6
822.373	166.57
822.551	125.61
822.729	82.6
822.907	121.51
823.085	141.99
823.262	127.66
823.44	70.31
823.618	58.03
823.796	78.51
823.974	94.89
824.152	121.51
824.329	133.8
824.507	94.89
824.685	62.12
824.863	111.27
825.04	90.79
825.218	29.35
825.396	78.51
825.574	82.6
825.751	103.08
825.929	174.76
826.107	103.08
826.284	96.94
826.462	185
826.639	8.87
826.817	2.73
826.994	82.6
827.172	35.5
827.349	195.24
827.527	98.99
827.704	35.5
827.882	45.74
828.059	4.78
828.237	2.73
828.414	45.74
828.591	119.46
828.769	119.46
828.946	72.36
829.124	98.99
829.301	164.52
829.478	82.6
829.655	117.42
829.833	53.93
830.01	70.31
830.187	43.69
830.364	-11.61
830.542	68.27
830.719	113.32
830.896	119.46
831.073	119.46
831.25	123.56
831.427	78.51
831.604	51.88
831.782	168.62
831.959	74.41
832.136	33.45
832.313	66.22
832.49	15.02
832.667	35.5
832.844	53.93
833.021	45.74
833.198	103.08
833.374	37.55
833.551	25.26
833.728	115.37
833.905	51.88
834.082	31.4
834.259	4.78
834.436	60.07
834.612	37.55
834.789	64.17
834.966	72.36
835.143	64.17
835.319	94.89
835.496	60.07
835.673	84.65
835.85	90.79
836.026	37.55
836.203	84.65
836.38	-7.51
836.556	25.26
836.733	0.68
836.909	-7.51
837.086	10.92
837.262	76.46
837.439	45.74
837.616	12.97
837.792	68.27
837.968	17.07
838.145	43.69
838.321	88.75
838.498	62.12
838.674	96.94
838.851	68.27
839.027	19.11
839.203	105.13
839.38	76.46
839.556	-1.37
839.732	39.59
839.909	53.93
840.085	80.55
840.261	-46.42
840.437	53.93
840.614	-13.65
840.79	82.6
840.966	141.99
841.142	74.41
841.318	47.79
841.494	86.7
841.671	45.74
841.847	33.45
842.023	10.92
842.199	41.64
842.375	37.55
842.551	12.97
842.727	70.31
842.903	70.31
843.079	-19.8
843.255	74.41
843.431	78.51
843.607	53.93
843.783	-9.56
843.959	29.35
844.134	45.74
844.31	123.56
844.486	-5.46
844.662	-19.8
844.838	86.7
845.013	64.17
845.189	105.13
845.365	21.16
845.541	60.07
845.716	-3.41
845.892	70.31
846.068	23.21
846.244	43.69
846.419	45.74
846.595	-7.51
846.77	17.07
846.946	78.51
847.122	31.4
847.297	-27.99
847.473	62.12
847.648	-32.08
847.824	33.45
847.999	2.73
848.175	-40.28
848.35	10.92
848.526	88.75
848.701	43.69
848.876	23.21
849.052	12.97
849.227	39.59
849.403	-5.46
849.578	-48.47
849.753	15.02
849.929	101.03
850.104	-11.61
850.279	-11.61
850.454	10.92
850.63	109.22
850.805	12.97
850.98	12.97
851.155	21.16
851.33	-19.8
851.505	-48.47
851.681	74.41
851.856	-23.89
852.031	25.26
852.206	21.16
852.381	-3.41
852.556	-7.51
852.731	35.5
852.906	21.16
853.081	21.16
853.256	84.65
853.431	49.83
853.606	8.87
853.781	-21.85
853.956	-23.89
854.131	49.83
854.305	-36.18
854.48	47.79
854.655	-71
854.83	-7.51
855.005	-25.94
855.18	144.04
855.354	10.92
855.529	33.45
855.704	-5.46
855.879	64.17
856.053	27.31
856.228	19.11
856.403	-77.14
856.577	49.83
856.752	-9.56
856.926	29.35
857.101	35.5
857.276	-52.56
857.45	-11.61
857.625	17.07
857.799	86.7
857.974	41.64
858.148	-68.95
858.323	27.31
858.497	-30.04
858.672	-56.66
858.846	21.16
859.02	94.89
859.195	6.83
859.369	-44.37
859.543	10.92
859.718	2.73
859.892	41.64
860.066	-34.13
860.241	-64.85
860.415	35.5
860.589	27.31
860.763	-32.08
860.938	25.26
861.112	60.07
861.286	72.36
861.46	-15.7
861.634	33.45
861.808	51.88
861.982	6.83
862.157	43.69
862.331	4.78
862.505	-7.51
862.679	-44.37
862.853	31.4
863.027	-36.18
863.201	49.83
863.375	41.64
863.549	17.07
863.722	-60.76
863.896	70.31
864.07	-54.61
864.244	-68.95
864.418	21.16
864.592	10.92
864.766	-52.56
864.939	49.83
865.113	8.87
865.287	-7.51
865.461	-1.37
865.634	64.17
865.808	10.92
865.982	2.73
866.156	-54.61
866.329	-5.46
866.503	-54.61
866.676	23.21
866.85	-23.89
867.024	43.69
867.197	43.69
867.371	45.74
867.544	-21.85
867.718	4.78
867.891	84.65
868.065	-50.52
868.238	6.83
868.412	31.4
868.585	-48.47
868.759	29.35
868.932	-27.99
869.105	-5.46
869.279	-36.18
869.452	-3.41
869.625	49.83
869.799	-23.89
869.972	-21.85
870.145	0.68
870.319	-3.41
870.492	62.12
870.665	-17.75
870.838	23.21
871.011	-46.42
871.185	12.97
871.358	-19.8
871.531	-7.51
871.704	10.92
871.877	10.92
872.05	-1.37
872.223	-7.51
872.396	17.07
872.569	0.68
872.742	-60.76
872.915	37.55
873.088	2.73
873.261	-40.28
873.434	10.92
873.607	-19.8
873.78	15.02
873.953	37.55
874.126	43.69
874.299	15.02
874.471	-52.56
874.644	49.83
874.817	68.27
874.99	31.4
875.163	-56.66
875.335	-23.89
875.508	12.97
875.681	25.26
875.853	27.31
876.026	-13.65
876.199	-30.04
876.371	27.31
876.544	-9.56
876.717	17.07
876.889	-9.56
877.062	-34.13
877.234	-40.28
877.407	-9.56
877.579	-11.61
877.752	29.35
877.924	-71
878.097	49.83
878.269	-44.37
878.442	25.26
878.614	-19.8
878.786	21.16
878.959	-46.42
879.131	41.64
879.303	-46.42
879.476	25.26
879.648	19.11
879.82	-11.61
879.993	-44.37
880.165	25.26
880.337	-105.81
880.509	-13.65
880.681	-54.61
880.854	43.69
881.026	-19.8
881.198	37.55
881.37	-15.7
881.542	29.35
881.714	-17.75
881.886	25.26
882.058	27.31
882.23	21.16
882.402	-7.51
882.574	-11.61
882.746	-11.61
882.918	2.73
883.09	60.07
883.262	35.5
883.434	-36.18
883.606	-19.8
883.778	19.11
883.95	15.02
884.122	-13.65
884.293	25.26
884.465	21.16
884.637	15.02
884.809	-68.95
884.98	29.35
885.152	49.83
885.324	-38.23
885.496	17.07
885.667	-7.51
885.839	-27.99
886.011	113.32
886.182	15.02
886.354	10.92
886.525	-23.89
886.697	-36.18
886.869	-71
887.04	21.16
887.212	29.35
887.383	62.12
887.555	19.11
887.726	41.64
887.897	-56.66
888.069	-40.28
888.24	2.73
888.412	8.87
888.583	70.31
888.754	15.02
888.926	-54.61
889.097	70.31
889.268	10.92
889.44	-30.04
889.611	-11.61
889.782	39.59
889.953	-126.29
890.125	58.03
890.296	-5.46
890.467	10.92
890.638	12.97
890.809	8.87
890.98	-38.23
891.151	6.83
891.323	-7.51
891.494	29.35
891.665	2.73
891.836	-27.99
892.007	27.31
892.178	-25.94
892.349	4.78
892.52	-3.41
892.691	-5.46
892.862	37.55
893.032	-68.95
893.203	8.87
893.374	23.21
893.545	27.31
893.716	-56.66
893.887	-40.28
894.057	-11.61
894.228	-19.8
894.399	-87.38
894.57	60.07
894.74	-17.75
894.911	-56.66
895.082	-81.24
895.253	-54.61
895.423	-13.65
895.594	58.03
895.764	35.5
895.935	-44.37
896.106	41.64
896.276	12.97
896.447	-60.76
896.617	-1.37
896.788	-52.56
896.958	-3.41
897.129	4.78
897.299	-71
897.47	66.22
897.64	-13.65
897.81	-85.33
897.981	0.68
898.151	-60.76
898.322	21.16
898.492	4.78
898.662	8.87
898.832	-23.89
899.003	-71
899.173	-38.23
899.343	-13.65
899.513	-44.37
