Data from USB4F104151__277__10-40-58-310.txt Node

Date: Wed Mar 12 10:40:58 EDT 2025
User: louis
Spectrometer: USB4F10415
Trigger mode: 4
Integration Time (sec): 3.000000E-2
Scans to average: 1
Electric dark correction enabled: true
Nonlinearity correction enabled: false
Boxcar width: 0
XAxis mode: Wavelengths
Number of Pixels in Spectrum: 3648
>>>>>Begin Spectral Data<<<<<
178.204	-159.23
178.424	-159.23
178.644	-159.23
178.864	-65.02
179.084	-69.12
179.304	-24.06
179.524	2.56
179.744	-30.21
179.964	33.28
180.184	-19.97
180.404	14.85
180.624	-1.54
180.844	35.33
181.064	-73.21
181.283	53.76
181.503	4.61
181.723	4.61
181.943	-60.93
182.163	8.7
182.383	49.66
182.602	14.85
182.822	82.43
183.042	-69.12
183.262	25.09
183.482	59.9
183.701	-11.78
183.921	39.42
184.141	-7.68
184.361	-38.4
184.58	55.81
184.8	49.66
185.02	-1.54
185.239	12.8
185.459	14.85
185.679	23.04
185.898	-26.11
186.118	33.28
186.338	8.7
186.557	12.8
186.777	-38.4
186.997	-17.92
187.216	78.33
187.436	41.47
187.655	68.09
187.875	35.33
188.095	-28.16
188.314	12.8
188.534	51.71
188.753	-24.06
188.973	-11.78
189.192	45.57
189.412	41.47
189.631	16.9
189.851	-54.78
190.07	8.7
190.29	59.9
190.509	20.99
190.729	-44.54
190.948	8.7
191.168	92.67
191.387	39.42
191.607	8.7
191.826	45.57
192.045	49.66
192.265	-7.68
192.484	90.62
192.704	53.76
192.923	41.47
193.142	33.28
193.362	37.38
193.581	133.63
193.8	41.47
194.02	61.95
194.239	39.42
194.458	23.04
194.678	-17.92
194.897	74.24
195.116	-50.69
195.335	20.99
195.555	49.66
195.774	-48.64
195.993	27.14
196.212	-19.97
196.432	-40.45
196.651	37.38
196.87	-30.21
197.089	41.47
197.308	20.99
197.528	6.66
197.747	53.76
197.966	49.66
198.185	72.19
198.404	39.42
198.623	0.51
198.842	8.7
199.062	25.09
199.281	84.48
199.5	59.9
199.719	-34.3
199.938	102.91
200.157	-1.54
200.376	59.9
200.595	49.66
200.814	43.52
201.033	-3.58
201.252	70.14
201.471	39.42
201.69	45.57
201.909	49.66
202.128	-9.73
202.347	25.09
202.566	-73.21
202.785	-77.31
203.004	-40.45
203.223	107.01
203.442	31.23
203.661	12.8
203.879	90.62
204.098	16.9
204.317	-24.06
204.536	14.85
204.755	16.9
204.974	23.04
205.193	64
205.411	117.25
205.63	25.09
205.849	16.9
206.068	25.09
206.287	0.51
206.505	70.14
206.724	35.33
206.943	37.38
207.162	57.86
207.381	61.95
207.599	12.8
207.818	96.77
208.037	31.23
208.255	23.04
208.474	37.38
208.693	102.91
208.911	59.9
209.13	43.52
209.349	20.99
209.567	104.96
209.786	27.14
210.005	23.04
210.223	20.99
210.442	-3.58
210.661	51.71
210.879	51.71
211.098	37.38
211.316	29.18
211.535	4.61
211.753	0.51
211.972	66.05
212.191	-46.59
212.409	68.09
212.628	6.66
212.846	41.47
213.065	-13.82
213.283	94.72
213.502	16.9
213.72	72.19
213.938	66.05
214.157	12.8
214.375	-44.54
214.594	33.28
214.812	53.76
215.031	70.14
215.249	-15.87
215.467	-34.3
215.686	18.94
215.904	33.28
216.122	33.28
216.341	33.28
216.559	10.75
216.778	57.86
216.996	66.05
217.214	31.23
217.432	25.09
217.651	-36.35
217.869	66.05
218.087	-7.68
218.306	29.18
218.524	57.86
218.742	51.71
218.96	78.33
219.179	82.43
219.397	41.47
219.615	43.52
219.833	41.47
220.051	31.23
220.27	33.28
220.488	39.42
220.706	20.99
220.924	59.9
221.142	37.38
221.36	70.14
221.578	4.61
221.796	0.51
222.015	-46.59
222.233	8.7
222.451	102.91
222.669	4.61
222.887	59.9
223.105	20.99
223.323	84.48
223.541	16.9
223.759	0.51
223.977	61.95
224.195	74.24
224.413	20.99
224.631	-3.58
224.849	6.66
225.067	68.09
225.285	80.38
225.503	-22.02
225.721	-11.78
225.939	135.68
226.157	64
226.375	61.95
226.592	14.85
226.81	47.62
227.028	59.9
227.246	51.71
227.464	-48.64
227.682	61.95
227.9	25.09
228.117	70.14
228.335	25.09
228.553	6.66
228.771	-7.68
228.989	53.76
229.206	47.62
229.424	-5.63
229.642	47.62
229.86	2.56
230.077	115.2
230.295	111.1
230.513	78.33
230.731	76.29
230.948	57.86
231.166	98.81
231.384	39.42
231.601	-19.97
231.819	61.95
232.037	41.47
232.254	45.57
232.472	61.95
232.689	-1.54
232.907	59.9
233.125	-67.07
233.342	64
233.56	-60.93
233.777	41.47
233.995	39.42
234.213	78.33
234.43	25.09
234.648	16.9
234.865	57.86
235.083	0.51
235.3	-5.63
235.518	86.53
235.735	64
235.953	29.18
236.17	16.9
236.388	51.71
236.605	-9.73
236.822	119.29
237.04	49.66
237.257	4.61
237.475	49.66
237.692	66.05
237.909	47.62
238.127	-32.26
238.344	-11.78
238.562	-48.64
238.779	-32.26
238.996	-19.97
239.214	111.1
239.431	33.28
239.648	25.09
239.865	90.62
240.083	43.52
240.3	100.86
240.517	-1.54
240.735	23.04
240.952	39.42
241.169	-7.68
241.386	-15.87
241.603	55.81
241.821	-3.58
242.038	2.56
242.255	-32.26
242.472	16.9
242.689	-46.59
242.907	-3.58
243.124	35.33
243.341	33.28
243.558	64
243.775	-19.97
243.992	14.85
244.209	137.73
244.426	66.05
244.643	70.14
244.86	-40.45
245.078	18.94
245.295	29.18
245.512	53.76
245.729	57.86
245.946	43.52
246.163	53.76
246.38	-9.73
246.597	23.04
246.814	23.04
247.031	-58.88
247.248	8.7
247.464	49.66
247.681	23.04
247.898	37.38
248.115	31.23
248.332	-36.35
248.549	47.62
248.766	49.66
248.983	94.72
249.2	-5.63
249.417	51.71
249.633	12.8
249.85	76.29
250.067	6.66
250.284	-7.68
250.501	-9.73
250.717	66.05
250.934	0.51
251.151	31.23
251.368	90.62
251.585	68.09
251.801	57.86
252.018	51.71
252.235	16.9
252.451	35.33
252.668	100.86
252.885	49.66
253.102	39.42
253.318	18.94
253.535	53.76
253.752	-24.06
253.968	-22.02
254.185	-40.45
254.401	16.9
254.618	-3.58
254.835	-17.92
255.051	43.52
255.268	41.47
255.484	23.04
255.701	20.99
255.917	64
256.134	-15.87
256.351	82.43
256.567	-13.82
256.784	74.24
257	-34.3
257.217	68.09
257.433	25.09
257.65	27.14
257.866	84.48
258.082	29.18
258.299	-7.68
258.515	47.62
258.732	-5.63
258.948	-60.93
259.165	45.57
259.381	-50.69
259.597	4.61
259.814	57.86
260.03	55.81
260.246	121.34
260.463	29.18
260.679	37.38
260.895	74.24
261.112	59.9
261.328	-1.54
261.544	57.86
261.761	8.7
261.977	0.51
262.193	2.56
262.409	8.7
262.626	23.04
262.842	33.28
263.058	2.56
263.274	74.24
263.49	41.47
263.707	29.18
263.923	16.9
264.139	-67.07
264.355	57.86
264.571	70.14
264.787	-11.78
265.004	64
265.22	10.75
265.436	-7.68
265.652	35.33
265.868	-3.58
266.084	-3.58
266.3	78.33
266.516	-9.73
266.732	55.81
266.948	8.7
267.164	12.8
267.38	0.51
267.596	18.94
267.812	12.8
268.028	84.48
268.244	12.8
268.46	76.29
268.676	37.38
268.892	70.14
269.108	-65.02
269.324	-46.59
269.54	-34.3
269.756	10.75
269.972	45.57
270.188	20.99
270.403	-1.54
270.619	80.38
270.835	27.14
271.051	18.94
271.267	41.47
271.483	6.66
271.698	25.09
271.914	35.33
272.13	43.52
272.346	59.9
272.562	4.61
272.777	55.81
272.993	6.66
273.209	-34.3
273.425	47.62
273.64	-7.68
273.856	131.58
274.072	23.04
274.287	-40.45
274.503	53.76
274.719	14.85
274.934	70.14
275.15	74.24
275.366	29.18
275.581	53.76
275.797	33.28
276.012	27.14
276.228	29.18
276.444	12.8
276.659	74.24
276.875	59.9
277.09	49.66
277.306	-42.5
277.521	49.66
277.737	31.23
277.952	45.57
278.168	8.7
278.383	68.09
278.599	0.51
278.814	25.09
279.03	49.66
279.245	96.77
279.461	39.42
279.676	80.38
279.892	-11.78
280.107	53.76
280.322	-28.16
280.538	6.66
280.753	20.99
280.969	102.91
281.184	25.09
281.399	90.62
281.615	104.96
281.83	57.86
282.045	2.56
282.26	-40.45
282.476	41.47
282.691	6.66
282.906	57.86
283.122	-11.78
283.337	-32.26
283.552	100.86
283.767	-1.54
283.983	61.95
284.198	53.76
284.413	68.09
284.628	-52.74
284.843	45.57
285.058	4.61
285.274	104.96
285.489	12.8
285.704	131.58
285.919	74.24
286.134	113.15
286.349	25.09
286.564	-11.78
286.779	23.04
286.995	-7.68
287.21	6.66
287.425	-22.02
287.64	25.09
287.855	-19.97
288.07	33.28
288.285	43.52
288.5	104.96
288.715	33.28
288.93	2.56
289.145	25.09
289.36	-1.54
289.575	-9.73
289.79	45.57
290.004	-60.93
290.219	55.81
290.434	66.05
290.649	6.66
290.864	64
291.079	57.86
291.294	57.86
291.509	10.75
291.724	80.38
291.938	53.76
292.153	-3.58
292.368	20.99
292.583	8.7
292.798	59.9
293.012	74.24
293.227	43.52
293.442	-26.11
293.657	70.14
293.871	111.1
294.086	92.67
294.301	72.19
294.516	45.57
294.73	4.61
294.945	45.57
295.16	57.86
295.374	18.94
295.589	59.9
295.804	39.42
296.018	43.52
296.233	107.01
296.447	18.94
296.662	33.28
296.877	86.53
297.091	6.66
297.306	10.75
297.52	45.57
297.735	55.81
297.949	70.14
298.164	102.91
298.378	49.66
298.593	33.28
298.807	61.95
299.022	-28.16
299.236	45.57
299.451	109.05
299.665	115.2
299.88	-7.68
300.094	43.52
300.309	43.52
300.523	80.38
300.737	37.38
300.952	-19.97
301.166	107.01
301.381	8.7
301.595	94.72
301.809	20.99
302.024	57.86
302.238	-15.87
302.452	53.76
302.667	47.62
302.881	16.9
303.095	57.86
303.309	49.66
303.524	55.81
303.738	33.28
303.952	41.47
304.166	49.66
304.381	29.18
304.595	76.29
304.809	4.61
305.023	68.09
305.237	41.47
305.452	23.04
305.666	88.57
305.88	33.28
306.094	37.38
306.308	66.05
306.522	23.04
306.736	59.9
306.95	39.42
307.164	68.09
307.379	57.86
307.593	111.1
307.807	72.19
308.021	64
308.235	80.38
308.449	-17.92
308.663	55.81
308.877	119.29
309.091	8.7
309.305	49.66
309.519	-11.78
309.733	102.91
309.947	-11.78
310.161	55.81
310.374	43.52
310.588	29.18
310.802	39.42
311.016	-24.06
311.23	45.57
311.444	20.99
311.658	31.23
311.872	129.53
312.085	66.05
312.299	29.18
312.513	100.86
312.727	145.92
312.941	57.86
313.154	31.23
313.368	53.76
313.582	137.73
313.796	-19.97
314.009	23.04
314.223	-3.58
314.437	66.05
314.651	16.9
314.864	2.56
315.078	0.51
315.292	55.81
315.505	72.19
315.719	2.56
315.933	49.66
316.146	8.7
316.36	18.94
316.573	41.47
316.787	59.9
317.001	29.18
317.214	49.66
317.428	43.52
317.641	25.09
317.855	-3.58
318.068	43.52
318.282	53.76
318.495	86.53
318.709	57.86
318.922	27.14
319.136	70.14
319.349	53.76
319.563	16.9
319.776	25.09
319.99	-52.74
320.203	84.48
320.417	100.86
320.63	102.91
320.843	115.2
321.057	16.9
321.27	98.81
321.483	72.19
321.697	74.24
321.91	66.05
322.124	8.7
322.337	37.38
322.55	-65.02
322.763	72.19
322.977	27.14
323.19	78.33
323.403	137.73
323.617	0.51
323.83	109.05
324.043	12.8
324.256	98.81
324.469	-24.06
324.683	61.95
324.896	-9.73
325.109	82.43
325.322	-15.87
325.535	78.33
325.748	141.82
325.962	-22.02
326.175	57.86
326.388	72.19
326.601	78.33
326.814	115.2
327.027	33.28
327.24	94.72
327.453	4.61
327.666	107.01
327.879	57.86
328.092	119.29
328.305	41.47
328.518	61.95
328.731	-7.68
328.944	49.66
329.157	25.09
329.37	59.9
329.583	70.14
329.796	53.76
330.009	-11.78
330.222	-60.93
330.435	29.18
330.648	80.38
330.861	-44.54
331.073	66.05
331.286	86.53
331.499	53.76
331.712	-91.65
331.925	57.86
332.138	27.14
332.35	78.33
332.563	-3.58
332.776	29.18
332.989	6.66
333.202	78.33
333.414	49.66
333.627	6.66
333.84	41.47
334.053	72.19
334.265	41.47
334.478	55.81
334.691	33.28
334.903	20.99
335.116	64
335.329	57.86
335.541	47.62
335.754	29.18
335.966	92.67
336.179	31.23
336.392	2.56
336.604	92.67
336.817	31.23
337.029	-58.88
337.242	49.66
337.454	45.57
337.667	37.38
337.88	113.15
338.092	45.57
338.305	41.47
338.517	59.9
338.729	102.91
338.942	84.48
339.154	-15.87
339.367	25.09
339.579	47.62
339.792	27.14
340.004	66.05
340.217	14.85
340.429	66.05
340.641	78.33
340.854	18.94
341.066	74.24
341.278	33.28
341.491	14.85
341.703	-19.97
341.915	57.86
342.128	68.09
342.34	39.42
342.552	29.18
342.764	35.33
342.977	-17.92
343.189	90.62
343.401	39.42
343.613	70.14
343.826	-11.78
344.038	66.05
344.25	90.62
344.462	-15.87
344.674	96.77
344.886	66.05
345.099	33.28
345.311	68.09
345.523	33.28
345.735	-5.63
345.947	45.57
346.159	35.33
346.371	61.95
346.583	35.33
346.795	119.29
347.007	45.57
347.219	37.38
347.431	20.99
347.643	100.86
347.855	49.66
348.067	41.47
348.279	47.62
348.491	51.71
348.703	111.1
348.915	27.14
349.127	16.9
349.339	16.9
349.551	57.86
349.763	37.38
349.975	53.76
350.187	102.91
350.399	35.33
350.61	64
350.822	45.57
351.034	23.04
351.246	64
351.458	57.86
351.669	80.38
351.881	8.7
352.093	107.01
352.305	39.42
352.517	45.57
352.728	61.95
352.94	20.99
353.152	61.95
353.363	41.47
353.575	74.24
353.787	80.38
353.999	59.9
354.21	66.05
354.422	82.43
354.633	39.42
354.845	8.7
355.057	133.63
355.268	61.95
355.48	80.38
355.692	4.61
355.903	131.58
356.115	14.85
356.326	6.66
356.538	49.66
356.749	35.33
356.961	41.47
357.172	72.19
357.384	39.42
357.595	86.53
357.807	10.75
358.018	72.19
358.23	137.73
358.441	94.72
358.653	31.23
358.864	14.85
359.075	39.42
359.287	90.62
359.498	86.53
359.709	31.23
359.921	86.53
360.132	41.47
360.344	49.66
360.555	23.04
360.766	127.49
360.977	-3.58
361.189	33.28
361.4	84.48
361.611	78.33
361.823	47.62
362.034	45.57
362.245	70.14
362.456	70.14
362.667	20.99
362.879	80.38
363.09	70.14
363.301	0.51
363.512	51.71
363.723	82.43
363.935	186.88
364.146	72.19
364.357	94.72
364.568	92.67
364.779	-3.58
364.99	12.8
365.201	-17.92
365.412	45.57
365.623	80.38
365.834	39.42
366.045	53.76
366.256	59.9
366.467	98.81
366.678	102.91
366.889	23.04
367.1	49.66
367.311	100.86
367.522	41.47
367.733	10.75
367.944	49.66
368.155	14.85
368.366	82.43
368.577	90.62
368.788	109.05
368.999	53.76
369.209	90.62
369.42	107.01
369.631	90.62
369.842	119.29
370.053	76.29
370.264	55.81
370.474	64
370.685	16.9
370.896	66.05
371.107	23.04
371.317	64
371.528	25.09
371.739	68.09
371.95	98.81
372.16	64
372.371	35.33
372.582	80.38
372.792	90.62
373.003	98.81
373.214	70.14
373.424	123.39
373.635	-5.63
373.846	49.66
374.056	121.34
374.267	4.61
374.477	72.19
374.688	-5.63
374.898	6.66
375.109	53.76
375.319	10.75
375.53	8.7
375.74	10.75
375.951	41.47
376.161	18.94
376.372	125.44
376.582	-5.63
376.793	33.28
377.003	-56.83
377.214	12.8
377.424	51.71
377.635	57.86
377.845	86.53
378.055	113.15
378.266	55.81
378.476	74.24
378.686	64
378.897	125.44
379.107	70.14
379.317	96.77
379.528	25.09
379.738	66.05
379.948	-9.73
380.158	74.24
380.369	-19.97
380.579	74.24
380.789	104.96
380.999	64
381.21	57.86
381.42	203.26
381.63	74.24
381.84	57.86
382.05	152.06
382.261	96.77
382.471	107.01
382.681	37.38
382.891	213.5
383.101	215.55
383.311	-85.5
383.521	49.66
383.731	-1.54
383.941	70.14
384.151	68.09
384.361	92.67
384.571	45.57
384.781	98.81
384.991	113.15
385.201	72.19
385.411	31.23
385.621	43.52
385.831	23.04
386.041	82.43
386.251	76.29
386.461	109.05
386.671	115.2
386.881	90.62
387.091	41.47
387.301	180.73
387.511	51.71
387.72	51.71
387.93	66.05
388.14	12.8
388.35	49.66
388.56	123.39
388.769	64
388.979	92.67
389.189	47.62
389.399	74.24
389.609	47.62
389.818	29.18
390.028	94.72
390.238	115.2
390.447	16.9
390.657	102.91
390.867	33.28
391.076	25.09
391.286	53.76
391.496	41.47
391.705	88.57
391.915	98.81
392.125	59.9
392.334	82.43
392.544	113.15
392.753	27.14
392.963	104.96
393.172	88.57
393.382	111.1
393.591	170.49
393.801	88.57
394.01	139.77
394.22	172.54
394.429	121.34
394.639	45.57
394.848	117.25
395.058	113.15
395.267	94.72
395.477	111.1
395.686	66.05
395.895	186.88
396.105	176.64
396.314	156.16
396.524	150.01
396.733	164.35
396.942	193.02
397.152	121.34
397.361	109.05
397.57	98.81
397.78	27.14
397.989	164.35
398.198	172.54
398.407	137.73
398.617	164.35
398.826	135.68
399.035	131.58
399.244	174.59
399.453	66.05
399.663	160.25
399.872	143.87
400.081	102.91
400.29	154.11
400.499	64
400.708	166.4
400.917	86.53
401.127	100.86
401.336	133.63
401.545	229.88
401.754	168.45
401.963	139.77
402.172	107.01
402.381	156.16
402.59	182.78
402.799	154.11
403.008	221.69
403.217	231.93
403.426	107.01
403.635	129.53
403.844	172.54
404.053	127.49
404.262	129.53
404.471	233.98
404.68	213.5
404.888	205.31
405.097	262.65
405.306	254.46
405.515	264.7
405.724	197.12
405.933	178.69
406.142	223.74
406.35	219.64
406.559	305.66
406.768	211.45
406.977	236.03
407.185	276.99
407.394	250.36
407.603	211.45
407.812	188.93
408.02	266.75
408.229	182.78
408.438	301.56
408.646	320
408.855	369.15
409.064	350.71
409.272	344.57
409.481	348.67
409.69	373.24
409.898	354.81
410.107	410.11
410.315	467.45
410.524	363
410.733	524.79
410.941	522.74
411.15	401.91
411.358	485.88
411.567	555.51
411.775	489.98
411.984	473.59
412.192	553.46
412.401	596.47
412.609	662.01
412.818	692.73
413.026	643.57
413.234	668.15
413.443	623.09
413.651	692.73
413.86	729.59
414.068	770.55
414.276	823.8
414.485	762.36
414.693	786.93
414.901	963.06
415.11	877.04
415.318	913.91
415.526	979.44
415.734	938.48
415.943	1053.17
416.151	1026.54
416.359	1200.62
416.567	1042.93
416.776	1075.7
416.984	1237.49
417.192	1298.92
417.4	1311.21
417.608	1296.88
417.817	1327.6
418.025	1452.52
418.233	1518.06
418.441	1481.19
418.649	1583.59
418.857	1645.03
419.065	1712.61
419.273	1634.79
419.481	1837.54
419.689	1909.22
419.897	1837.54
420.105	2064.86
420.313	2077.15
420.521	2066.91
420.729	2195.93
420.937	2228.7
421.145	2298.33
421.353	2367.96
421.561	2539.99
421.769	2685.4
421.977	2697.69
422.185	2826.71
422.393	2798.04
422.601	3047.89
422.809	3017.17
423.017	3043.79
423.224	3195.34
423.432	3277.26
423.64	3322.32
423.848	3670.47
424.056	3459.53
424.263	3879.36
424.471	3740.1
424.679	3721.67
424.887	3998.15
425.094	4217.28
425.302	4250.05
425.51	4268.48
425.718	4456.89
425.925	4602.3
426.133	4759.99
426.341	5116.34
426.548	5140.91
426.756	5122.48
426.964	5126.58
427.171	5673.39
427.379	5913
427.586	5847.46
427.794	5947.81
428.001	6205.86
428.209	6564.25
428.417	6386.08
428.624	6875.54
428.832	6916.5
429.039	6863.26
429.247	6914.45
429.454	7610.76
429.662	8102.28
429.869	7598.48
430.076	8163.72
430.284	7807.37
430.491	8114.56
430.699	8728.95
430.906	8534.4
431.114	8671.61
431.321	9159.03
431.528	8968.57
431.736	9884.01
431.943	10410.34
432.15	10101.09
432.358	9959.78
432.565	10688.86
432.772	10811.74
432.979	10969.43
433.187	11403.6
433.394	11526.48
433.601	12095.82
433.808	12312.9
434.016	12030.28
434.223	12616
434.43	13480.24
434.637	13115.7
434.844	13846.83
435.052	14381.35
435.259	14061.87
435.466	14311.72
435.673	14010.67
435.88	15124.76
436.087	15872.27
436.294	15812.88
436.501	15282.45
436.708	16005.39
436.915	16296.2
437.122	17025.28
437.329	17152.25
437.537	17488.12
437.743	17864.94
437.95	17752.31
438.157	18526.44
438.364	19409.11
438.571	19656.92
438.778	19421.4
438.985	21248.19
439.192	20263.11
439.399	21061.82
439.606	20558.02
439.813	21881.01
440.02	23214.24
440.227	22683.81
440.433	22276.27
440.64	23347.36
440.847	23214.24
441.054	23785.62
441.261	25327.74
441.467	24965.25
441.674	25579.64
441.881	26210.42
442.088	26382.45
442.294	25786.49
442.501	26527.85
442.708	27388
442.914	28395.6
443.121	29417.54
443.328	28618.83
443.534	30937.13
443.741	30044.21
443.948	29458.49
444.154	31516.7
444.361	31227.94
444.568	31848.47
444.774	31698.97
444.981	32133.14
445.187	32811.02
445.394	34592.75
445.6	33779.71
445.807	36794.32
446.013	35323.88
446.22	36317.14
446.426	37867.45
446.633	38105.02
446.839	38901.68
447.046	37263.3
447.252	39554.98
447.459	39679.91
447.665	39485.35
447.871	41117.58
448.078	42985.33
448.284	40474.52
448.491	41983.87
448.697	43018.1
448.903	44347.23
449.11	44001.12
449.316	43372.39
449.522	44181.34
449.728	45272.91
449.935	45748.04
450.141	45508.43
450.347	46778.17
450.553	45131.6
450.76	45762.37
450.966	46866.23
451.172	46825.27
451.378	47421.23
451.584	46847.8
451.791	47431.47
451.997	47763.24
452.203	48324.38
452.409	47910.69
452.615	47775.53
452.821	46090.05
453.027	45197.13
453.233	47648.55
453.44	46114.62
453.646	46847.8
453.852	46704.44
454.058	47273.77
454.264	45803.33
454.47	46589.75
454.676	45610.82
454.882	47449.9
455.088	43210.6
455.294	43554.66
455.5	43919.2
455.705	44681.05
455.911	42862.45
456.117	42203
456.323	41475.98
456.529	39172.01
456.735	40454.04
456.941	39655.33
457.147	38954.93
457.352	37906.37
457.558	37507.01
457.764	37498.82
457.97	36601.81
458.176	35403.75
458.381	35944.41
458.587	34158.58
458.793	34086.9
458.999	32393.23
459.204	34902
459.41	33855.48
459.616	31674.4
459.821	31461.41
460.027	31320.1
460.233	30691.37
460.438	28975.17
460.644	29933.62
460.85	27848.79
461.055	27451.49
461.261	27551.84
461.466	25677.94
461.672	25206.91
461.878	26802.28
462.083	25014.4
462.289	24539.27
462.494	24264.85
462.7	23298.2
462.905	22616.23
463.111	23367.84
463.316	23722.13
463.522	22978.72
463.727	23072.93
463.932	22886.56
464.138	22761.64
464.343	22608.04
464.549	21999.79
464.754	22960.29
464.959	22925.47
465.165	22458.54
465.37	21493.94
465.575	20779.2
465.781	21915.83
465.986	22069.42
466.191	21143.74
466.397	20820.16
466.602	19751.12
466.807	20451.53
467.012	20598.98
467.218	20572.36
467.423	20342.99
467.628	20392.14
467.833	21006.53
468.038	20195.53
468.244	19884.24
468.449	20500.68
468.654	19740.88
468.859	19677.4
469.064	19603.67
469.269	18796.77
469.474	19077.34
469.679	19456.22
469.885	18755.81
470.09	18888.93
470.295	19218.65
470.5	18477.29
470.705	18839.78
470.91	17897.71
471.115	17889.52
471.32	17887.47
471.525	18125.04
471.73	17309.94
471.935	17287.42
472.139	17074.43
472.344	17086.72
472.549	17246.46
472.754	17006.84
472.959	16580.87
473.164	16105.74
473.369	15898.89
473.574	16486.66
473.778	16417.03
473.983	16371.97
474.188	16290.06
474.393	15442.2
474.598	15415.57
474.802	14981.4
475.007	14952.73
475.212	15323.41
475.417	14784.8
475.621	14674.21
475.826	14663.97
476.031	14348.58
476.235	14299.43
476.44	14547.23
476.645	13928.75
476.849	14014.76
477.054	13850.92
477.259	13816.11
477.463	13889.84
477.668	13351.22
477.872	13480.24
478.077	13201.72
478.282	12945.72
478.486	13138.23
478.691	12847.42
478.895	12720.45
479.1	12704.06
479.304	12626.24
479.509	12347.72
479.713	12636.48
479.918	12468.55
480.122	12185.93
480.326	12427.59
480.531	12472.64
480.735	12097.86
480.94	12054.86
481.144	12263.75
481.348	11628.88
481.553	12050.76
481.757	11733.32
481.961	11903.31
482.166	12163.4
482.37	12083.53
482.574	11841.87
482.778	11721.04
482.983	11962.7
483.187	11948.36
483.391	11852.11
483.595	11895.11
483.8	11747.66
484.004	11704.65
484.208	11950.41
484.412	11751.76
484.616	11759.95
484.821	11919.69
485.025	11465.04
485.229	11813.2
485.433	11645.26
485.637	11706.7
485.841	11653.45
486.045	11526.48
486.249	11712.85
486.453	11692.37
486.657	11809.1
486.861	11964.75
487.065	11551.06
487.269	11682.13
487.473	11448.66
487.677	12204.36
487.881	11811.15
488.085	11786.57
488.289	11723.09
488.493	11770.19
488.697	11831.63
488.901	11827.53
489.105	11964.75
489.309	11796.81
489.512	11837.77
489.716	11745.61
489.92	11749.71
490.124	11874.63
490.328	12276.04
490.531	12138.82
490.735	12112.2
490.939	12036.42
491.143	12142.92
491.346	12255.56
491.55	12314.95
491.754	12458.31
491.958	12239.17
492.161	12233.03
492.365	12456.26
492.569	12458.31
492.772	12304.71
492.976	12433.73
493.18	12603.71
493.383	12808.51
493.587	12765.5
493.79	13025.59
493.994	12796.22
494.197	12970.3
494.401	13013.31
494.605	13138.23
494.808	13549.87
495.012	13441.33
495.215	13517.11
495.419	13513.01
495.622	13603.12
495.825	13762.86
496.029	13869.36
496.232	13904.17
496.436	13846.83
496.639	14471.46
496.843	14420.26
497.046	14504.23
497.249	14745.89
497.453	14760.22
497.656	14979.36
497.859	15040.79
498.063	15130.91
498.266	15364.37
498.469	15388.95
498.673	15603.99
498.876	16105.74
499.079	16193.8
499.282	15948.04
499.485	16443.65
499.689	16238.86
499.892	16677.12
500.095	16941.31
500.298	17436.92
500.501	16922.88
500.705	17623.28
500.908	17463.54
501.111	17742.07
501.314	18114.8
501.517	18014.45
501.72	18303.21
501.923	18473.19
502.126	18759.91
502.329	19097.82
502.532	18866.4
502.735	19308.76
502.938	19263.71
503.141	19792.08
503.344	20025.55
503.547	20302.03
503.75	20504.78
503.953	20768.96
504.156	20842.69
504.359	20732.1
504.562	21240
504.765	21702.84
504.968	21848.24
505.17	21891.25
505.373	21999.79
505.576	22661.29
505.779	22794.4
505.982	22896.8
506.185	23322.78
506.387	23257.25
506.59	23500.95
506.793	23990.42
506.996	23969.94
507.198	25024.64
507.401	24465.55
507.604	24840.32
507.807	25292.93
508.009	25211.01
508.212	25301.12
508.415	26060.91
508.617	26114.16
508.82	26595.43
509.022	25999.48
509.225	27269.22
509.428	27025.51
509.63	27533.4
509.833	27691.1
510.035	28311.63
510.238	28000.34
510.44	28876.87
510.643	28672.07
510.845	28813.38
511.048	29235.27
511.25	29384.77
511.453	29395.01
511.655	30734.38
511.858	30267.44
512.06	31045.67
512.262	31094.82
512.465	31072.29
512.667	31197.22
512.87	31643.68
513.072	31920.15
513.274	32493.58
513.477	32888.84
513.679	32917.51
513.881	33536
514.084	33796.09
514.286	33871.87
514.488	33978.36
514.69	35190.76
514.893	35074.02
515.095	34775.02
515.297	35608.54
515.499	35561.44
515.701	36016.09
515.904	36616.15
516.106	36794.32
516.308	37119.95
516.51	37468.1
516.712	37156.81
516.914	37625.79
517.116	38346.68
517.318	38664.11
517.52	38952.88
517.722	38803.38
517.925	39620.52
518.127	40183.71
518.329	40365.98
518.531	39847.84
518.733	40896.4
518.935	41363.34
519.136	41054.09
519.338	41668.48
519.54	42360.7
519.742	42467.19
519.944	42925.94
520.146	43431.79
520.348	43507.56
520.55	43716.45
520.752	43681.64
520.954	44595.03
521.155	44138.33
521.357	44943.19
521.559	45430.6
521.761	46182.21
521.963	45858.63
522.164	45778.76
522.366	46196.54
522.568	46851.89
522.77	47052.59
522.971	47482.67
523.173	46696.25
523.375	47947.56
523.576	47920.93
523.778	48344.86
523.98	48924.44
524.181	48664.35
524.383	48793.37
524.584	49303.31
524.786	49280.78
524.988	49094.42
525.189	49915.65
525.391	50581.24
525.592	50480.89
525.794	50427.65
525.995	50614.01
526.197	50794.23
526.398	50605.82
526.6	51517.17
526.801	51771.11
527.003	51736.3
527.204	51642.09
527.406	52254.43
527.607	51893.99
527.808	52295.39
528.01	51805.93
528.211	52113.12
528.412	53683.92
528.614	53047
528.815	52866.78
529.016	53669.58
529.218	52938.46
529.419	53597.9
529.62	53286.61
529.822	53526.22
530.023	53546.7
530.224	54044.36
530.425	53348.05
530.626	53128.92
530.828	53602
531.029	55068.34
531.23	53712.59
531.431	54384.32
531.632	54417.09
531.833	54611.65
532.035	53909.19
532.236	54286.02
532.437	54664.89
532.638	54529.73
532.839	54906.55
533.04	55115.45
533.241	53921.48
533.442	55451.31
533.643	54759.1
533.844	54560.45
534.045	54953.66
534.246	54556.35
534.447	55258.8
534.648	54908.6
534.849	55031.48
535.05	55299.76
535.251	54830.78
535.451	55113.4
535.652	55174.84
535.853	55422.64
536.054	55330.48
536.255	54679.23
536.456	54482.62
536.657	55725.74
536.857	55043.77
537.058	54666.94
537.259	55578.29
537.46	55310
537.66	54881.98
537.861	55314.1
538.062	54890.17
538.263	55219.89
538.463	55103.16
538.664	55185.08
538.865	54793.92
539.065	55557.81
539.266	54974.14
539.466	55719.6
539.667	54511.3
539.868	55762.61
540.068	54718.14
540.269	54847.16
540.469	55084.73
540.67	54660.8
540.87	54834.88
541.071	54798.01
541.271	55072.44
541.472	54939.32
541.672	54953.66
541.873	55127.73
542.073	54269.64
542.274	55213.75
542.474	54548.16
542.675	54220.48
542.875	55078.58
543.075	54689.47
543.276	53901
543.476	54693.57
543.676	54238.92
543.877	54824.64
544.077	54892.22
544.277	54646.46
544.478	54617.79
544.678	55011
544.878	54789.82
545.078	54673.09
545.279	54085.32
545.479	54519.49
545.679	54986.42
545.879	54609.6
546.079	54838.97
546.28	54773.44
546.48	54369.99
546.68	54621.89
546.88	54863.55
547.08	54685.37
547.28	54625.98
547.48	54048.46
547.68	54642.37
547.88	54042.31
548.081	54384.32
548.281	54175.43
548.481	53892.81
548.681	54621.89
548.881	54208.2
549.081	54240.96
549.28	53946.06
549.48	54195.91
549.68	54400.71
549.88	54501.06
550.08	53720.78
550.28	54240.96
550.48	54015.69
550.68	54638.27
550.88	54130.37
551.08	54077.13
551.279	54056.65
551.479	53743.31
551.679	54007.5
551.879	54265.54
552.079	54286.02
552.278	53505.74
552.478	53661.39
552.678	54019.78
552.878	54404.8
553.077	53528.27
553.277	53026.52
553.477	54030.02
553.676	53647.05
553.876	53536.46
554.076	53317.33
554.275	53331.67
554.475	52901.59
554.674	53634.77
554.874	53528.27
555.074	53305.04
555.273	53499.6
555.473	53554.89
555.672	53208.79
555.872	52995.8
556.071	52897.5
556.271	53223.12
556.47	53014.23
556.67	52629.21
556.869	52299.49
557.068	53227.22
557.268	52539.1
557.467	52664.03
557.667	52647.64
557.866	52453.09
558.065	52537.05
558.265	52373.22
558.464	52438.75
558.663	52616.93
558.863	51607.28
559.062	53069.53
559.261	51748.59
559.461	52694.75
559.66	51574.51
559.859	51676.91
560.058	51803.88
560.258	51918.57
560.457	51435.25
560.656	51834.6
560.855	51494.64
561.054	51914.47
561.253	51005.17
561.453	51382
561.652	51203.83
561.851	51115.76
562.05	51212.02
562.249	50681.59
562.448	51312.37
562.647	51027.7
562.846	50716.41
563.045	51115.76
563.244	49901.32
563.443	50845.43
563.642	49839.88
563.841	50321.15
564.04	49895.17
564.239	50665.21
564.438	49706.76
564.637	50009.86
564.836	49999.62
565.035	49442.57
565.234	49796.87
565.432	49114.9
565.631	49284.88
565.83	49276.69
566.029	49039.12
566.228	48918.29
566.427	48643.87
566.625	48465.69
566.824	48338.72
567.023	48320.29
567.222	47976.23
567.42	48752.41
567.619	48543.52
567.818	48334.62
568.016	48443.16
568.215	48361.25
568.414	47339.31
568.612	48373.53
568.811	47644.46
569.01	47796.01
569.208	47396.65
569.407	47812.39
569.605	46907.19
569.804	47544.11
570.002	46798.65
570.201	46921.52
570.4	46491.45
570.598	46485.31
570.797	46659.38
570.995	46364.48
571.193	46300.99
571.392	46726.97
571.59	45832
571.789	45670.22
571.987	45930.31
572.186	45887.3
572.384	45561.67
572.582	46042.95
572.781	45676.36
572.979	44642.13
573.177	45170.51
573.376	45207.37
573.574	44975.95
573.772	45164.37
573.971	45098.83
574.169	44676.95
574.367	44164.96
574.565	44826.45
574.763	44429.15
574.962	44197.73
575.16	43773.8
575.358	43911.01
575.556	43431.79
575.754	44558.17
575.952	43632.49
576.151	43747.17
576.349	43050.86
576.547	43329.39
576.745	43360.11
576.943	43257.71
577.141	42891.12
577.339	43161.45
577.537	42745.72
577.735	42657.65
577.933	42528.63
578.131	42346.36
578.329	42084.22
578.527	42610.55
578.725	41772.93
578.923	42364.79
579.121	41795.46
579.319	42121.09
579.516	41977.73
579.714	41613.19
579.912	41338.76
580.11	41277.32
580.308	41363.34
580.506	41242.51
580.704	40531.86
580.901	41150.35
581.099	41195.4
581.297	40843.15
581.495	40525.72
581.692	40691.6
581.89	40329.11
582.088	40726.42
582.285	40544.15
582.483	40669.08
582.681	40001.44
582.878	39651.23
583.076	39505.83
583.274	40388.5
583.471	39258.02
583.669	39841.7
583.866	39212.97
584.064	39831.46
584.262	39055.28
584.459	39708.58
584.657	39008.17
584.854	39241.64
585.052	38492.08
585.249	38784.94
585.447	38643.63
585.644	38688.69
585.841	38254.52
586.039	38922.16
586.236	37705.66
586.434	38225.85
586.631	37816.25
586.828	37871.55
587.026	37607.36
587.223	37400.52
587.42	37652.42
587.618	37926.85
587.815	37218.25
588.012	36972.49
588.21	36997.07
588.407	37246.92
588.604	36900.81
588.801	36718.54
588.999	36800.46
589.196	36945.87
589.393	36450.26
589.59	36358.1
589.787	36079.58
589.984	36231.13
590.182	35624.93
590.379	36276.18
590.576	35796.96
590.773	35590.11
590.97	35448.8
591.167	35842.01
591.364	35123.18
591.561	35391.46
591.758	35166.18
591.955	35327.97
592.152	35151.85
592.349	35121.13
592.546	35080.17
592.743	35137.51
592.94	34437.11
593.137	34639.86
593.334	34930.67
593.531	34254.84
593.727	34521.07
593.924	34263.03
594.121	33667.07
594.318	34109.43
594.515	33714.17
594.712	33884.15
594.908	33538.05
595.105	34160.63
595.302	33099.78
595.499	33681.41
595.696	33417.22
595.892	33308.68
596.089	33310.72
596.286	33204.23
596.482	33044.49
596.679	32890.89
596.876	32823.31
597.072	32614.41
597.269	32909.32
597.466	32706.57
597.662	32143.38
597.859	32548.88
598.055	32434.19
598.252	32172.05
598.448	31809.56
598.645	31830.04
598.841	31275.04
599.038	31754.27
599.234	31660.06
599.431	31402.02
599.627	31348.77
599.824	31334.43
600.02	31062.05
600.217	31309.86
600.413	30834.73
600.609	30840.87
600.806	31010.85
601.002	31238.18
601.198	30443.57
601.395	30707.76
601.591	30607.4
601.787	30687.28
601.984	30498.86
602.18	30599.21
602.376	30242.87
602.572	29823.03
602.769	30220.34
602.965	29806.65
603.161	29878.33
603.357	29587.52
603.553	29730.87
603.75	29345.86
603.946	29632.57
604.142	29689.91
604.338	29122.63
604.534	29573.18
604.73	28899.4
604.926	29063.24
605.122	28868.68
605.318	28631.12
605.514	28592.2
605.71	28420.17
605.906	28803.14
606.102	28168.27
606.298	28573.77
606.494	28366.93
606.69	28616.78
606.886	28393.55
607.082	27965.53
607.278	28180.56
607.474	27920.47
607.67	28135.51
607.866	27797.59
608.062	28266.58
608.257	27631.71
608.453	27730.01
608.649	27883.61
608.845	27373.66
609.041	27396.19
609.236	27488.35
609.432	27390.05
609.628	27287.65
609.824	27121.76
610.019	27091.04
610.215	27105.38
610.411	27011.17
610.606	27076.71
610.802	27334.75
610.998	26955.88
611.193	26888.29
611.389	26726.5
611.584	26556.52
611.78	26617.96
611.976	26458.22
612.171	26720.36
612.367	26564.71
612.562	26443.88
612.758	25960.56
612.953	26347.63
613.149	26415.21
613.344	26126.45
613.539	26480.75
613.735	25991.28
613.93	26132.59
614.126	25972.85
614.321	26331.25
614.517	25938.04
614.712	26089.59
614.907	25706.62
615.103	26183.79
615.298	25563.26
615.493	26083.44
615.688	25516.15
615.884	25725.05
616.079	25526.39
616.274	25772.15
616.47	25530.49
616.665	25614.46
616.86	25237.63
617.055	25159.81
617.25	24952.96
617.445	25475.2
617.641	25014.4
617.836	25088.13
618.031	24563.85
618.226	25000.07
618.421	24774.79
618.616	25139.33
618.811	24768.65
619.006	24772.74
619.201	24391.82
619.396	24545.42
619.591	24146.06
619.786	24346.76
619.981	23894.16
620.176	24266.89
620.371	23885.97
620.566	23838.87
620.761	23523.48
620.956	23761.05
621.151	23572.63
621.346	23513.24
621.541	23265.44
621.735	23584.92
621.93	23036.06
622.125	23097.5
622.32	22696.1
622.515	22812.84
622.709	22515.88
622.904	22671.53
623.099	22692.01
623.294	22640.81
623.488	22231.21
623.683	22309.04
623.878	21940.4
624.072	21772.47
624.267	21729.46
624.462	21901.49
624.656	21563.57
624.851	21596.34
625.046	21088.45
625.24	21317.82
625.435	20961.47
625.629	20992.19
625.824	20984
626.018	20738.24
626.213	20515.01
626.407	20725.96
626.602	20381.9
626.796	20758.72
626.991	20304.07
627.185	20273.35
627.38	20218.06
627.574	20027.6
627.768	20041.93
627.963	19882.19
628.157	19781.84
628.352	19656.92
628.546	19257.56
628.74	19519.7
628.935	19200.22
629.129	19407.06
629.323	19130.59
629.517	19151.07
629.712	18987.23
629.906	18702.56
630.1	18673.89
630.294	18659.56
630.489	18465
630.683	18473.19
630.877	18307.3
631.071	17987.82
631.265	18333.93
631.459	18051.31
631.653	17955.05
631.848	17885.42
632.042	17883.38
632.236	17830.13
632.43	17473.78
632.624	17481.97
632.818	17352.95
633.012	17477.88
633.206	17084.67
633.4	17305.85
633.594	16994.56
633.788	16902.4
633.982	17006.84
634.176	16998.65
634.369	16910.59
634.563	16666.88
634.757	16347.4
634.951	16654.59
635.145	16494.85
635.339	16496.9
635.533	16421.13
635.726	16318.73
635.92	15952.14
636.114	16230.66
636.308	15886.61
636.501	15823.12
636.695	15964.43
636.889	15757.58
637.083	15397.14
637.276	15347.99
637.47	15464.72
637.664	15274.26
637.857	15327.51
638.051	15440.15
638.244	15276.31
638.438	15161.62
638.632	14948.64
638.825	14569.76
639.019	14913.82
639.212	14770.46
639.406	14506.27
639.599	14489.89
639.793	14522.66
639.986	14184.74
640.18	14391.59
640.373	14276.9
640.567	14084.39
640.76	14135.59
640.954	14086.44
641.147	13842.73
641.34	13789.49
641.534	13705.52
641.727	13631.79
641.92	13570.35
642.114	13562.16
642.307	13584.69
642.5	13500.72
642.694	13209.91
642.887	13291.83
643.08	13291.83
643.273	13312.31
643.467	13203.77
643.66	13171
643.853	12828.99
644.046	12753.21
644.239	12980.54
644.432	12720.45
644.626	12828.99
644.819	12853.56
645.012	12616
645.205	12536.13
645.398	12343.62
645.591	12257.6
645.784	12255.56
645.977	12230.98
646.17	12296.52
646.363	12024.14
646.556	11874.63
646.749	11966.79
646.942	12040.52
647.135	11850.06
647.328	11759.95
647.521	11596.11
647.714	11532.62
647.907	11503.95
648.099	11757.9
648.292	11665.74
648.485	11454.8
648.678	11293.01
648.871	11258.2
649.064	11041.11
649.256	11376.98
649.449	10815.83
649.642	11176.28
649.835	11061.59
650.027	10936.67
650.22	10912.09
650.413	10713.44
650.605	10740.06
650.798	10699.1
650.991	10572.13
651.183	10600.8
651.376	10400.1
651.568	10508.64
651.761	10332.51
651.954	10271.08
652.146	10297.7
652.339	10203.49
652.531	10338.66
652.724	10178.92
652.916	9949.54
653.109	9937.26
653.301	10250.6
653.494	10015.08
653.686	9830.76
653.879	9752.94
654.071	9797.99
654.263	9722.22
654.456	9763.18
654.648	9572.72
654.84	9621.87
655.033	9564.53
655.225	9529.71
655.417	9453.94
655.61	9402.74
655.802	9451.89
655.994	9216.37
656.186	9410.93
656.379	9236.85
656.571	9273.71
656.763	9081.21
656.955	9070.97
657.148	8892.79
657.34	8976.76
657.532	8841.59
657.724	8667.52
657.916	8849.78
658.108	8808.83
658.3	8673.66
658.492	8806.78
658.684	8796.54
658.876	8339.84
659.068	8548.73
659.26	8425.86
659.452	8436.1
659.644	8446.34
659.836	8487.29
660.028	8286.59
660.22	8219.01
660.412	8108.42
660.604	8245.63
660.796	8167.81
660.988	8085.89
661.18	8085.89
661.372	7768.46
661.563	8122.76
661.755	7907.72
661.947	7793.03
662.139	8003.97
662.331	7743.88
662.522	7774.6
662.714	7715.21
662.906	7741.83
663.097	7586.19
663.289	7666.06
663.481	7502.22
663.673	7653.77
663.864	7346.58
664.056	7451.02
664.247	7455.12
664.439	7405.97
664.631	7356.82
664.822	7328.14
665.014	7315.86
665.205	7086.48
665.397	7309.71
665.588	7084.44
665.78	7147.92
665.971	7197.07
666.163	7043.48
666.354	6918.55
666.546	6869.4
666.737	6967.7
666.929	6893.97
667.12	6861.21
667.311	6592.92
667.503	6693.27
667.694	6799.77
667.885	6449.57
668.077	6730.14
668.268	6537.63
668.459	6496.67
668.651	6701.47
668.842	6637.98
669.033	6484.38
669.224	6433.18
669.416	6701.47
669.607	6371.74
669.798	6427.04
669.989	6539.68
670.18	6345.12
670.371	6468
670.563	6402.46
670.754	6146.47
670.945	6191.52
671.136	6306.21
671.327	6375.84
671.518	6257.06
671.709	6158.75
671.9	6273.44
672.091	6234.53
672.282	5988.77
672.473	6074.79
672.664	6048.16
672.855	5851.56
673.046	5951.91
673.237	6091.17
673.428	6054.31
673.619	5951.91
673.809	5896.61
674	5894.57
674.191	5994.92
674.382	5904.81
674.573	5878.18
674.764	5884.33
674.954	5757.35
675.145	5689.77
675.336	5788.07
675.527	5800.36
675.717	5693.87
675.908	5767.59
676.099	5644.71
676.289	5550.51
676.48	5595.56
676.671	5605.8
676.861	5691.82
677.052	5431.73
677.243	5605.8
677.433	5525.93
677.624	5530.03
677.814	5415.34
678.005	5704.1
678.195	5542.32
678.386	5665.19
678.576	5394.86
678.767	5417.39
678.957	5300.66
679.148	5274.03
679.338	5351.85
679.529	5474.73
679.719	5327.28
679.909	5362.09
680.1	5280.18
680.29	5276.08
680.481	5290.42
680.671	5188.02
680.861	5319.09
681.052	5407.15
681.242	5312.94
681.432	5241.26
681.622	5153.2
681.813	5173.68
682.003	5296.56
682.193	5190.06
682.383	5290.42
682.573	5179.82
682.764	5104.05
682.954	5319.09
683.144	5251.5
683.334	5231.02
683.524	5138.87
683.714	5128.63
683.904	5040.56
684.094	5102
684.284	5063.09
684.474	5188.02
684.664	5054.9
684.854	5054.9
685.044	5028.28
685.234	4733.37
685.424	4880.82
685.614	4948.4
685.804	5022.13
685.994	4919.73
686.184	4907.45
686.374	4889.01
686.564	4899.25
686.753	4929.97
686.943	4694.46
687.133	4821.43
687.323	4923.83
687.513	4835.77
687.702	4682.17
687.892	4667.83
688.082	4723.13
688.272	4759.99
688.461	4635.07
688.651	4637.11
688.841	4692.41
689.03	4643.26
689.22	4620.73
689.41	4450.75
689.599	4411.84
689.789	4499.9
689.979	4495.8
690.168	4420.03
690.358	4389.31
690.547	4239.81
690.737	4436.41
690.926	4469.18
691.116	4340.16
691.305	4393.4
691.495	4352.45
691.684	4284.86
691.874	4364.73
692.063	4159.94
692.252	4362.69
692.442	4229.57
692.631	4262.33
692.82	4180.42
693.01	4059.59
693.199	4116.93
693.388	4125.12
693.578	4092.35
693.767	4121.03
693.956	4184.51
694.146	4039.11
694.335	4106.69
694.524	3989.96
694.713	4006.34
694.902	4026.82
695.092	4010.43
695.281	4010.43
695.47	3977.67
695.659	3994.05
695.848	3940.8
696.037	3969.48
696.226	3973.57
696.415	4026.82
696.604	3969.48
696.793	4004.29
696.982	3885.51
697.171	3951.04
697.36	4039.11
697.549	3819.97
697.738	3817.93
697.927	3854.79
698.116	3942.85
698.305	3877.32
698.494	3826.12
698.683	3723.72
698.872	3742.15
699.061	3787.21
699.25	3721.67
699.438	3795.4
699.627	3854.79
699.816	3772.87
700.005	3764.68
700.193	3715.53
700.382	3754.44
700.571	3768.77
700.76	3760.58
700.948	3715.53
701.137	3680.71
701.326	3803.59
701.514	3656.14
701.703	3627.46
701.892	3684.81
702.08	3688.9
702.269	3729.86
702.457	3680.71
702.646	3621.32
702.834	3611.08
703.023	3627.46
703.212	3613.13
703.4	3756.49
703.589	3670.47
703.777	3652.04
703.965	3477.96
704.154	3656.14
704.342	3674.57
704.531	3596.75
704.719	3561.93
704.907	3578.31
705.096	3523.02
705.284	3744.2
705.472	3578.31
705.661	3670.47
705.849	3783.11
706.037	3627.46
706.226	3557.83
706.414	3678.66
706.602	3580.36
706.79	3627.46
706.979	3596.75
707.167	3555.79
707.355	3527.11
707.543	3551.69
707.731	3602.89
707.919	3584.46
708.107	3533.26
708.296	3680.71
708.484	3484.11
708.672	3549.64
708.86	3488.2
709.048	3647.94
709.236	3420.62
709.424	3641.8
709.612	3529.16
709.8	3609.03
709.988	3514.83
710.176	3555.79
710.364	3678.66
710.551	3604.94
710.739	3502.54
710.927	3609.03
711.115	3627.46
711.303	3596.75
711.491	3465.68
711.679	3432.91
711.866	3596.75
712.054	3647.94
712.242	3473.87
712.43	3658.18
712.617	3568.07
712.805	3506.63
712.993	3557.83
713.181	3506.63
713.368	3471.82
713.556	3635.66
713.744	3535.31
713.931	3598.79
714.119	3553.74
714.306	3572.17
714.494	3469.77
714.682	3496.39
714.869	3539.4
715.057	3584.46
715.244	3451.34
715.432	3502.54
715.619	3561.93
715.807	3490.25
715.994	3498.44
716.182	3451.34
716.369	3414.48
716.556	3523.02
716.744	3418.57
716.931	3563.98
717.119	3572.17
717.306	3510.73
717.493	3537.35
717.681	3371.47
717.868	3439.05
718.055	3596.75
718.242	3482.06
718.43	3543.5
718.617	3502.54
718.804	3475.91
718.991	3543.5
719.179	3400.14
719.366	3383.76
719.553	3533.26
719.74	3375.56
719.927	3498.44
720.114	3394
720.301	3426.76
720.488	3586.51
720.676	3310.03
720.863	3547.59
721.05	3420.62
721.237	3461.58
721.424	3424.72
721.611	3512.78
721.798	3428.81
721.985	3469.77
722.172	3383.76
722.358	3391.95
722.545	3432.91
722.732	3459.53
722.919	3602.89
723.106	3283.41
723.293	3453.39
723.48	3379.66
723.667	3467.72
723.853	3232.21
724.04	3418.57
724.227	3377.61
724.414	3361.23
724.6	3437
724.787	3381.71
724.974	3394
725.161	3385.8
725.347	3350.99
725.534	3439.05
725.72	3434.96
725.907	3406.28
726.094	3420.62
726.28	3367.37
726.467	3316.17
726.653	3326.41
726.84	3355.08
727.027	3383.76
727.213	3394
727.4	3475.91
727.586	3432.91
727.773	3398.09
727.959	3273.17
728.145	3465.68
728.332	3445.2
728.518	3473.87
728.705	3256.78
728.891	3477.96
729.077	3371.47
729.264	3389.9
729.45	3320.27
729.636	3445.2
729.823	3238.35
730.009	3428.81
730.195	3381.71
730.382	3357.13
730.568	3256.78
730.754	3375.56
730.94	3215.82
731.126	3422.67
731.313	3441.1
731.499	3275.21
731.685	3334.61
731.871	3232.21
732.057	3320.27
732.243	3348.94
732.429	3340.75
732.615	3279.31
732.801	3285.45
732.987	3234.25
733.173	3267.02
733.359	3342.8
733.545	3369.42
733.731	3217.87
733.917	3396.04
734.103	3277.26
734.289	3256.78
734.475	3238.35
734.661	3254.73
734.847	3176.91
735.033	3236.3
735.219	3230.16
735.404	3215.82
735.59	3219.92
735.776	3254.73
735.962	3244.49
736.148	3230.16
736.333	3152.34
736.519	3191.25
736.705	3191.25
736.89	3088.85
737.076	3144.14
737.262	3178.96
737.447	3277.26
737.633	3131.86
737.819	3170.77
738.004	3056.08
738.19	3039.7
738.375	3107.28
738.561	3289.55
738.747	3013.07
738.932	3244.49
739.118	3109.33
739.303	3072.47
739.489	3029.46
739.674	3037.65
739.859	2998.74
740.045	3002.83
740.23	3060.18
740.416	2904.53
740.601	2927.06
740.786	3047.89
740.972	2988.5
741.157	2965.97
741.342	2806.23
741.528	2922.96
741.713	2859.48
741.898	3021.27
742.084	2828.76
742.269	2941.4
742.454	2855.38
742.639	2918.87
742.824	2871.76
743.01	2798.04
743.195	3013.07
743.38	2789.85
743.565	2845.14
743.75	2791.89
743.935	2818.52
744.12	2781.65
744.305	2740.69
744.49	2763.22
744.675	2628.06
744.86	2689.49
745.045	2892.24
745.23	2763.22
745.415	2654.68
745.6	2724.31
745.785	2644.44
745.97	2709.97
746.155	2691.54
746.34	2709.97
746.525	2595.29
746.71	2656.73
746.895	2632.15
747.079	2558.42
747.264	2507.23
747.449	2433.5
747.634	2583
747.819	2560.47
748.003	2388.44
748.188	2390.49
748.373	2392.54
748.557	2531.8
748.742	2415.07
748.927	2423.26
749.111	2312.67
749.296	2376.16
749.481	2456.03
749.665	2466.27
749.85	2327
750.034	2349.53
750.219	2337.24
750.404	2222.56
750.588	2290.14
750.773	2159.07
750.957	2253.28
751.141	2120.16
751.326	2183.65
751.51	2187.74
751.695	2146.78
751.879	2118.11
752.064	2122.21
752.248	2087.39
752.432	2214.37
752.617	2042.34
752.801	2138.59
752.985	2015.71
753.17	2095.58
753.354	2009.57
753.538	2032.1
753.722	1941.99
753.907	1993.19
754.091	1991.14
754.275	2032.1
754.459	1905.12
754.643	1903.07
754.828	1870.31
755.012	1913.31
755.196	1751.53
755.38	1763.81
755.564	1815.01
755.748	1909.22
755.932	1860.07
756.116	1827.3
756.3	1753.57
756.484	1759.72
756.668	1796.58
756.852	1712.61
757.036	1872.36
757.22	1821.16
757.404	1804.77
757.588	1759.72
757.772	1720.81
757.956	1638.89
758.14	1763.81
758.323	1628.65
758.507	1604.07
758.691	1624.55
758.875	1647.08
759.059	1669.61
759.242	1567.21
759.426	1567.21
759.61	1565.16
759.794	1567.21
759.977	1522.15
760.161	1616.36
760.345	1542.63
760.528	1675.75
760.712	1575.4
760.895	1518.06
761.079	1532.39
761.263	1499.63
761.446	1509.86
761.63	1436.14
761.813	1432.04
761.997	1483.24
762.18	1372.65
762.364	1427.95
762.547	1462.76
762.731	1516.01
762.914	1423.85
763.098	1532.39
763.281	1364.46
763.464	1352.17
763.648	1401.32
763.831	1178.09
764.015	1425.9
764.198	1462.76
764.381	1368.56
764.564	1309.16
764.748	1462.76
764.931	1327.6
765.114	1319.4
765.297	1286.64
765.481	1360.36
765.664	1339.88
765.847	1307.12
766.03	1325.55
766.213	1321.45
766.397	1262.06
766.58	1253.87
766.763	1380.84
766.946	1249.77
767.129	1303.02
767.312	1294.83
767.495	1288.68
767.678	1260.01
767.861	1300.97
768.044	1214.96
768.227	1325.55
768.41	1341.93
768.593	1180.14
768.776	1204.72
768.959	1202.67
769.142	1171.95
769.324	1219.05
769.507	1145.33
769.69	1309.16
769.873	1192.43
770.056	1225.2
770.239	1194.48
770.421	1239.53
770.604	1227.25
770.787	1090.03
770.97	1206.77
771.152	1165.81
771.335	1108.46
771.518	1104.37
771.7	1133.04
771.883	1028.59
772.066	1137.13
772.248	1063.41
772.431	1155.57
772.613	1077.74
772.796	1059.31
772.978	952.82
773.161	1110.51
773.343	1079.79
773.526	1008.11
773.708	1018.35
773.891	1036.78
774.073	975.35
774.256	1038.83
774.438	1067.5
774.621	915.95
774.803	1038.83
774.985	963.06
775.168	897.52
775.35	946.67
775.532	1038.83
775.715	948.72
775.897	938.48
776.079	881.14
776.261	932.34
776.444	915.95
776.626	864.75
776.808	958.96
776.99	922.1
777.173	1010.16
777.355	938.48
777.537	870.9
777.719	852.47
777.901	821.75
778.083	866.8
778.265	786.93
778.447	950.77
778.629	856.56
778.811	856.56
778.993	811.51
779.175	797.17
779.357	813.56
779.539	879.09
779.721	813.56
779.903	827.89
780.085	901.62
780.267	831.99
780.449	700.92
780.631	778.74
780.812	913.91
780.994	776.69
781.176	690.68
781.358	727.54
781.54	799.22
781.721	793.08
781.903	750.07
782.085	721.4
782.267	778.74
782.448	672.25
782.63	678.39
782.812	719.35
782.993	709.11
783.175	696.82
783.357	670.2
783.538	680.44
783.72	625.14
783.901	639.48
784.083	672.25
784.264	623.09
784.446	631.29
784.627	614.9
784.809	608.76
784.99	502.26
785.172	588.28
785.353	604.66
785.535	549.37
785.716	578.04
785.897	573.94
786.079	498.17
786.26	588.28
786.441	610.81
786.623	561.66
786.804	557.56
786.985	537.08
787.167	588.28
787.348	627.19
787.529	578.04
787.71	582.14
787.891	555.51
788.073	487.93
788.254	483.83
788.435	514.55
788.616	412.15
788.797	512.5
788.978	557.56
789.159	516.6
789.34	483.83
789.522	471.54
789.703	487.93
789.884	442.87
790.065	563.7
790.246	512.5
790.427	477.69
790.607	545.27
790.788	492.02
790.969	354.81
791.15	469.5
791.331	449.02
791.512	453.11
791.693	424.44
791.874	473.59
792.054	426.49
792.235	455.16
792.416	512.5
792.597	385.53
792.778	487.93
792.958	446.97
793.139	436.73
793.32	430.59
793.5	401.91
793.681	479.74
793.862	547.32
794.042	371.19
794.223	401.91
794.404	403.96
794.584	348.67
794.765	434.68
794.945	473.59
795.126	467.45
795.306	373.24
795.487	459.26
795.667	375.29
795.848	369.15
796.028	410.11
796.209	444.92
796.389	446.97
796.57	387.58
796.75	397.82
796.93	365.05
797.111	379.39
797.291	354.81
797.471	412.15
797.652	383.48
797.832	412.15
798.012	444.92
798.192	397.82
798.373	272.89
798.553	457.21
798.733	297.47
798.913	295.42
799.093	301.56
799.274	322.04
799.454	365.05
799.634	320
799.814	377.34
799.994	330.23
800.174	297.47
800.354	342.52
800.534	291.32
800.714	305.66
800.894	338.43
801.074	338.43
801.254	289.28
801.434	307.71
801.614	254.46
801.794	272.89
801.974	825.84
802.154	221.69
802.334	299.52
802.514	276.99
802.693	307.71
802.873	322.04
803.053	397.82
803.233	264.7
803.413	395.77
803.592	297.47
803.772	295.42
803.952	244.22
804.131	207.36
804.311	365.05
804.491	401.91
804.67	266.75
804.85	320
805.03	303.61
805.209	311.8
805.389	301.56
805.568	193.02
805.748	291.32
805.928	266.75
806.107	305.66
806.287	295.42
806.466	229.88
806.646	252.41
806.825	328.19
807.004	238.08
807.184	258.56
807.363	293.37
807.543	236.03
807.722	285.18
807.901	311.8
808.081	274.94
808.26	172.54
808.439	252.41
808.619	311.8
808.798	166.4
808.977	258.56
809.156	348.67
809.336	242.17
809.515	221.69
809.694	283.13
809.873	299.52
810.052	238.08
810.231	279.04
810.411	254.46
810.59	201.21
810.769	219.64
810.948	322.04
811.127	188.93
811.306	256.51
811.485	197.12
811.664	285.18
811.843	207.36
812.022	254.46
812.201	262.65
812.38	176.64
812.559	213.5
812.737	225.79
812.916	123.39
813.095	188.93
813.274	115.2
813.453	199.16
813.632	227.84
813.811	184.83
813.989	180.73
814.168	221.69
814.347	162.3
814.526	178.69
814.704	240.12
814.883	205.31
815.062	119.29
815.24	244.22
815.419	201.21
815.598	256.51
815.776	152.06
815.955	221.69
816.133	184.83
816.312	246.27
816.49	152.06
816.669	174.59
816.847	119.29
817.026	172.54
817.204	98.81
817.383	250.36
817.561	164.35
817.74	287.23
817.918	119.29
818.097	213.5
818.275	141.82
818.453	111.1
818.632	184.83
818.81	233.98
818.988	176.64
819.167	145.92
819.345	256.51
819.523	190.97
819.701	207.36
819.879	215.55
820.058	211.45
820.236	113.15
820.414	162.3
820.592	139.77
820.77	135.68
820.948	188.93
821.127	123.39
821.305	205.31
821.483	115.2
821.661	150.01
821.839	205.31
822.017	104.96
822.195	201.21
822.373	162.3
822.551	143.87
822.729	186.88
822.907	113.15
823.085	111.1
823.262	92.67
823.44	162.3
823.618	98.81
823.796	170.49
823.974	176.64
824.152	184.83
824.329	152.06
824.507	152.06
824.685	162.3
824.863	70.14
825.04	147.97
825.218	199.16
825.396	209.4
825.574	119.29
825.751	193.02
825.929	88.57
826.107	119.29
826.284	166.4
826.462	139.77
826.639	90.62
826.817	90.62
826.994	47.62
827.172	154.11
827.349	172.54
827.527	127.49
827.704	94.72
827.882	158.21
828.059	158.21
828.237	92.67
828.414	152.06
828.591	80.38
828.769	76.29
828.946	90.62
829.124	139.77
829.301	145.92
829.478	84.48
829.655	109.05
829.833	72.19
830.01	92.67
830.187	104.96
830.364	178.69
830.542	139.77
830.719	131.58
830.896	104.96
831.073	111.1
831.25	74.24
831.427	121.34
831.604	133.63
831.782	70.14
831.959	164.35
832.136	121.34
832.313	74.24
832.49	135.68
832.667	72.19
832.844	115.2
833.021	158.21
833.198	76.29
833.374	131.58
833.551	135.68
833.728	61.95
833.905	113.15
834.082	86.53
834.259	131.58
834.436	70.14
834.612	23.04
834.789	98.81
834.966	82.43
835.143	125.44
835.319	84.48
835.496	45.57
835.673	86.53
835.85	115.2
836.026	82.43
836.203	154.11
836.38	96.77
836.556	82.43
836.733	72.19
836.909	147.97
837.086	113.15
837.262	74.24
837.439	43.52
837.616	115.2
837.792	145.92
837.968	43.52
838.145	10.75
838.321	111.1
838.498	150.01
838.674	123.39
838.851	152.06
839.027	133.63
839.203	66.05
839.38	14.85
839.556	29.18
839.732	147.97
839.909	74.24
840.085	92.67
840.261	8.7
840.437	150.01
840.614	-5.63
840.79	104.96
840.966	117.25
841.142	18.94
841.318	18.94
841.494	70.14
841.671	57.86
841.847	45.57
842.023	-9.73
842.199	84.48
842.375	121.34
842.551	59.9
842.727	2.56
842.903	102.91
843.079	45.57
843.255	125.44
843.431	23.04
843.607	109.05
843.783	53.76
843.959	96.77
844.134	51.71
844.31	176.64
844.486	102.91
844.662	43.52
844.838	53.76
845.013	0.51
845.189	51.71
845.365	80.38
845.541	82.43
845.716	-5.63
845.892	18.94
846.068	6.66
846.244	18.94
846.419	88.57
846.595	37.38
846.77	57.86
846.946	57.86
847.122	47.62
847.297	31.23
847.473	88.57
847.648	33.28
847.824	84.48
847.999	96.77
848.175	57.86
848.35	16.9
848.526	113.15
848.701	109.05
848.876	68.09
849.052	123.39
849.227	82.43
849.403	78.33
849.578	80.38
849.753	109.05
849.929	31.23
850.104	-93.69
850.279	45.57
850.454	6.66
850.63	88.57
850.805	0.51
850.98	100.86
851.155	31.23
851.33	53.76
851.505	37.38
851.681	74.24
851.856	33.28
852.031	64
852.206	88.57
852.381	64
852.556	-3.58
852.731	111.1
852.906	68.09
853.081	70.14
853.256	102.91
853.431	16.9
853.606	20.99
853.781	37.38
853.956	37.38
854.131	76.29
854.305	47.62
854.48	-30.21
854.655	-19.97
854.83	53.76
855.005	25.09
855.18	59.9
855.354	-34.3
855.529	-11.78
855.704	-30.21
855.879	4.61
856.053	25.09
856.228	39.42
856.403	59.9
856.577	12.8
856.752	12.8
856.926	66.05
857.101	72.19
857.276	4.61
857.45	12.8
857.625	0.51
857.799	61.95
857.974	53.76
858.148	74.24
858.323	31.23
858.497	-54.78
858.672	55.81
858.846	55.81
859.02	45.57
859.195	-7.68
859.369	6.66
859.543	72.19
859.718	18.94
859.892	16.9
860.066	-19.97
860.241	92.67
860.415	57.86
860.589	33.28
860.763	100.86
860.938	47.62
861.112	33.28
861.286	-54.78
861.46	37.38
861.634	35.33
861.808	59.9
861.982	53.76
862.157	-28.16
862.331	8.7
862.505	41.47
862.679	-3.58
862.853	51.71
863.027	25.09
863.201	127.49
863.375	29.18
863.549	-1.54
863.722	102.91
863.896	96.77
864.07	41.47
864.244	-26.11
864.418	49.66
864.592	20.99
864.766	37.38
864.939	-3.58
865.113	-3.58
865.287	57.86
865.461	35.33
865.634	98.81
865.808	31.23
865.982	41.47
866.156	-65.02
866.329	-11.78
866.503	-79.36
866.676	4.61
866.85	4.61
867.024	-17.92
867.197	-3.58
867.371	84.48
867.544	33.28
867.718	-62.98
867.891	94.72
868.065	23.04
868.238	59.9
868.412	33.28
868.585	102.91
868.759	-32.26
868.932	16.9
869.105	25.09
869.279	47.62
869.452	27.14
869.625	31.23
869.799	47.62
869.972	-11.78
870.145	-15.87
870.319	72.19
870.492	8.7
870.665	-15.87
870.838	-15.87
871.011	-99.84
871.185	-24.06
871.358	-73.21
871.531	-3.58
871.704	18.94
871.877	8.7
872.05	-3.58
872.223	2.56
872.396	8.7
872.569	37.38
872.742	-22.02
872.915	49.66
873.088	2.56
873.261	-1.54
873.434	20.99
873.607	37.38
873.78	72.19
873.953	-40.45
874.126	8.7
874.299	33.28
874.471	41.47
874.644	90.62
874.817	43.52
874.99	39.42
875.163	47.62
875.335	-17.92
875.508	16.9
875.681	-5.63
875.853	-19.97
876.026	-34.3
876.199	47.62
876.371	25.09
876.544	-15.87
876.717	33.28
876.889	-40.45
877.062	88.57
877.234	35.33
877.407	-30.21
877.579	-19.97
877.752	47.62
877.924	-40.45
878.097	25.09
878.269	-24.06
878.442	88.57
878.614	27.14
878.786	33.28
878.959	-36.35
879.131	-1.54
879.303	14.85
879.476	14.85
879.648	27.14
879.82	51.71
879.993	-126.46
880.165	31.23
880.337	18.94
880.509	49.66
880.681	-44.54
880.854	37.38
881.026	12.8
881.198	45.57
881.37	2.56
881.542	8.7
881.714	-19.97
881.886	16.9
882.058	-17.92
882.23	29.18
882.402	90.62
882.574	33.28
882.746	-15.87
882.918	-11.78
883.09	-22.02
883.262	6.66
883.434	70.14
883.606	10.75
883.778	66.05
883.95	45.57
884.122	8.7
884.293	72.19
884.465	0.51
884.637	16.9
884.809	-118.27
884.98	109.05
885.152	10.75
885.324	68.09
885.496	-34.3
885.667	23.04
885.839	-38.4
886.011	39.42
886.182	-3.58
886.354	94.72
886.525	16.9
886.697	45.57
886.869	8.7
887.04	12.8
887.212	41.47
887.383	145.92
887.555	25.09
887.726	-15.87
887.897	57.86
888.069	-3.58
888.24	47.62
888.412	-5.63
888.583	53.76
888.754	31.23
888.926	-73.21
889.097	8.7
889.268	-34.3
889.44	25.09
889.611	-30.21
889.782	8.7
889.953	-9.73
890.125	23.04
890.296	-56.83
890.467	-7.68
890.638	31.23
890.809	33.28
890.98	-11.78
891.151	-24.06
891.323	74.24
891.494	-36.35
891.665	-5.63
891.836	23.04
892.007	39.42
892.178	86.53
892.349	10.75
892.52	-48.64
892.691	31.23
892.862	-11.78
893.032	-87.55
893.203	27.14
893.374	8.7
893.545	-34.3
893.716	23.04
893.887	6.66
894.057	25.09
894.228	53.76
894.399	-28.16
894.57	-38.4
894.74	-28.16
894.911	68.09
895.082	43.52
895.253	2.56
895.423	-83.45
895.594	66.05
895.764	-17.92
895.935	8.7
896.106	-15.87
896.276	-32.26
896.447	47.62
896.617	-7.68
896.788	59.9
896.958	-9.73
897.129	-13.82
897.299	35.33
897.47	12.8
897.64	25.09
897.81	-7.68
897.981	12.8
898.151	8.7
898.322	37.38
898.492	33.28
898.662	-32.26
898.832	-36.35
899.003	33.28
899.173	2.56
899.343	8.7
899.513	18.94
