Data from USB4F104151__2__10-19-49-113.txt Node

Date: Wed Mar 12 10:19:49 EDT 2025
User: louis
Spectrometer: USB4F10415
Trigger mode: 4
Integration Time (sec): 3.000000E-2
Scans to average: 1
Electric dark correction enabled: true
Nonlinearity correction enabled: false
Boxcar width: 0
XAxis mode: Wavelengths
Number of Pixels in Spectrum: 3648
>>>>>Begin Spectral Data<<<<<
178.204	-150.7
178.424	-150.7
178.644	-150.7
178.864	-175.27
179.084	-117.93
179.304	-38.06
179.524	-36.01
179.744	-40.11
179.964	50
180.184	-1.19
180.404	-33.96
180.624	15.19
180.844	88.92
181.064	-17.58
181.283	45.91
181.503	-33.96
181.723	0.85
181.943	-15.53
182.163	50
182.383	35.67
182.602	52.05
182.822	-44.2
183.042	13.14
183.262	-25.77
183.482	-3.24
183.701	-29.87
183.921	-27.82
184.141	-44.2
184.361	-7.34
184.58	-1.19
184.8	21.33
185.02	76.63
185.239	-3.24
185.459	27.48
185.679	4.95
185.898	-25.77
186.118	31.57
186.338	41.81
186.557	-40.11
186.777	-95.4
186.997	-21.67
187.216	-36.01
187.436	-25.77
187.655	-23.72
187.875	54.1
188.095	37.72
188.314	43.86
188.534	-23.72
188.753	-19.63
188.973	47.96
189.192	-46.25
189.412	-21.67
189.631	-3.24
189.851	45.91
190.07	72.53
190.29	0.85
190.509	-3.24
190.729	-19.63
190.948	66.39
191.168	68.44
191.387	97.11
191.607	-29.87
191.826	13.14
192.045	-7.34
192.265	15.19
192.484	11.09
192.704	-3.24
192.923	-48.3
193.142	-7.34
193.362	13.14
193.581	31.57
193.8	29.52
194.02	11.09
194.239	64.34
194.458	45.91
194.678	17.24
194.897	-19.63
195.116	39.76
195.335	23.38
195.555	9.05
195.774	-33.96
195.993	33.62
196.212	-40.11
196.432	4.95
196.651	9.05
196.87	-21.67
197.089	37.72
197.308	9.05
197.528	66.39
197.747	-3.24
197.966	43.86
198.185	-5.29
198.404	-36.01
198.623	23.38
198.842	-25.77
199.062	4.95
199.281	-1.19
199.5	4.95
199.719	17.24
199.938	31.57
200.157	31.57
200.376	11.09
200.595	37.72
200.814	-5.29
201.033	-17.58
201.252	11.09
201.471	21.33
201.69	60.24
201.909	21.33
202.128	13.14
202.347	68.44
202.566	29.52
202.785	-48.3
203.004	-33.96
203.223	21.33
203.442	72.53
203.661	-15.53
203.879	25.43
204.098	37.72
204.317	-46.25
204.536	-60.59
204.755	-7.34
204.974	54.1
205.193	35.67
205.411	70.48
205.63	-52.39
205.849	-44.2
206.068	50
206.287	21.33
206.505	9.05
206.724	37.72
206.943	-29.87
207.162	0.85
207.381	35.67
207.599	29.52
207.818	11.09
208.037	37.72
208.255	-62.63
208.474	45.91
208.693	41.81
208.911	-42.15
209.13	-36.01
209.349	21.33
209.567	-9.39
209.786	62.29
210.005	56.15
210.223	47.96
210.442	-7.34
210.661	76.63
210.879	13.14
211.098	39.76
211.316	13.14
211.535	31.57
211.753	7
211.972	68.44
212.191	21.33
212.409	25.43
212.628	103.25
212.846	-83.11
213.065	-25.77
213.283	-19.63
213.502	-11.43
213.72	27.48
213.938	58.2
214.157	50
214.375	27.48
214.594	-27.82
214.812	45.91
215.031	-1.19
215.249	0.85
215.467	-21.67
215.686	9.05
215.904	9.05
216.122	-5.29
216.341	33.62
216.559	25.43
216.778	111.44
216.996	-23.72
217.214	27.48
217.432	-60.59
217.651	68.44
217.869	0.85
218.087	17.24
218.306	62.29
218.524	13.14
218.742	4.95
218.96	21.33
219.179	-27.82
219.397	7
219.615	60.24
219.833	21.33
220.051	-5.29
220.27	45.91
220.488	31.57
220.706	17.24
220.924	4.95
221.142	-5.29
221.36	-11.43
221.578	-21.67
221.796	-40.11
222.015	47.96
222.233	-33.96
222.451	78.68
222.669	-19.63
222.887	60.24
223.105	-31.91
223.323	-70.83
223.541	29.52
223.759	82.77
223.977	21.33
224.195	66.39
224.413	33.62
224.631	54.1
224.849	21.33
225.067	35.67
225.285	-76.97
225.503	56.15
225.721	29.52
225.939	-11.43
226.157	62.29
226.375	54.1
226.592	-40.11
226.81	-23.72
227.028	54.1
227.246	136.02
227.464	21.33
227.682	29.52
227.9	-13.48
228.117	2.9
228.335	4.95
228.553	-13.48
228.771	93.01
228.989	-9.39
229.206	-9.39
229.424	-40.11
229.642	7
229.86	-48.3
230.077	50
230.295	80.72
230.513	80.72
230.731	50
230.948	99.16
231.166	54.1
231.384	45.91
231.601	37.72
231.819	-11.43
232.037	-5.29
232.254	-25.77
232.472	25.43
232.689	-60.59
232.907	37.72
233.125	0.85
233.342	-52.39
233.56	11.09
233.777	-25.77
233.995	-3.24
234.213	21.33
234.43	13.14
234.648	-23.72
234.865	-11.43
235.083	72.53
235.3	60.24
235.518	-25.77
235.735	45.91
235.953	21.33
236.17	72.53
236.388	15.19
236.605	0.85
236.822	76.63
237.04	86.87
237.257	68.44
237.475	-54.44
237.692	-25.77
237.909	29.52
238.127	17.24
238.344	-64.68
238.562	68.44
238.779	21.33
238.996	-1.19
239.214	-42.15
239.431	54.1
239.648	-72.87
239.865	31.57
240.083	-5.29
240.3	-25.77
240.517	23.38
240.735	109.4
240.952	43.86
241.169	37.72
241.386	29.52
241.603	-17.58
241.821	-1.19
242.038	11.09
242.255	41.81
242.472	-13.48
242.689	-7.34
242.907	90.96
243.124	-38.06
243.341	-31.91
243.558	-58.54
243.775	-7.34
243.992	0.85
244.209	60.24
244.426	43.86
244.643	-25.77
244.86	-27.82
245.078	25.43
245.295	27.48
245.512	-19.63
245.729	-15.53
245.946	31.57
246.163	-33.96
246.38	15.19
246.597	70.48
246.814	39.76
247.031	43.86
247.248	23.38
247.464	25.43
247.681	-23.72
247.898	103.25
248.115	-23.72
248.332	70.48
248.549	29.52
248.766	17.24
248.983	70.48
249.2	19.29
249.417	-3.24
249.633	-72.87
249.85	-21.67
250.067	29.52
250.284	19.29
250.501	41.81
250.717	-1.19
250.934	29.52
251.151	-44.2
251.368	52.05
251.585	4.95
251.801	4.95
252.018	35.67
252.235	-5.29
252.451	-60.59
252.668	-1.19
252.885	25.43
253.102	-25.77
253.318	70.48
253.535	11.09
253.752	4.95
253.968	-13.48
254.185	23.38
254.401	41.81
254.618	66.39
254.835	15.19
255.051	-3.24
255.268	7
255.484	-44.2
255.701	17.24
255.917	82.77
256.134	4.95
256.351	37.72
256.567	-44.2
256.784	-44.2
257	-17.58
257.217	64.34
257.433	-62.63
257.65	13.14
257.866	21.33
258.082	-38.06
258.299	7
258.515	64.34
258.732	-11.43
258.948	-7.34
259.165	2.9
259.381	4.95
259.597	37.72
259.814	-13.48
260.03	9.05
260.246	13.14
260.463	29.52
260.679	-17.58
260.895	21.33
261.112	45.91
261.328	2.9
261.544	-27.82
261.761	95.06
261.977	4.95
262.193	15.19
262.409	62.29
262.626	64.34
262.842	0.85
263.058	0.85
263.274	-3.24
263.49	-7.34
263.707	-19.63
263.923	-36.01
264.139	127.83
264.355	103.25
264.571	-33.96
264.787	7
265.004	19.29
265.22	29.52
265.436	58.2
265.652	-1.19
265.868	-9.39
266.084	-66.73
266.3	-19.63
266.516	31.57
266.732	0.85
266.948	37.72
267.164	-11.43
267.38	13.14
267.596	9.05
267.812	23.38
268.028	41.81
268.244	19.29
268.46	17.24
268.676	-38.06
268.892	52.05
269.108	27.48
269.324	33.62
269.54	-13.48
269.756	23.38
269.972	-68.78
270.188	-17.58
270.403	41.81
270.619	41.81
270.835	-5.29
271.051	27.48
271.267	35.67
271.483	-3.24
271.698	62.29
271.914	76.63
272.13	35.67
272.346	68.44
272.562	-15.53
272.777	52.05
272.993	11.09
273.209	78.68
273.425	47.96
273.64	-31.91
273.856	72.53
274.072	0.85
274.287	21.33
274.503	11.09
274.719	-36.01
274.934	7
275.15	45.91
275.366	-11.43
275.581	-19.63
275.797	-56.49
276.012	-5.29
276.228	2.9
276.444	-7.34
276.659	15.19
276.875	-76.97
277.09	2.9
277.306	43.86
277.521	13.14
277.737	52.05
277.952	54.1
278.168	31.57
278.383	60.24
278.599	-60.59
278.814	45.91
279.03	-79.02
279.245	95.06
279.461	-5.29
279.676	54.1
279.892	-15.53
280.107	-40.11
280.322	-19.63
280.538	31.57
280.753	-15.53
280.969	11.09
281.184	72.53
281.399	29.52
281.615	7
281.83	21.33
282.045	-38.06
282.26	-17.58
282.476	47.96
282.691	25.43
282.906	43.86
283.122	33.62
283.337	-5.29
283.552	19.29
283.767	39.76
283.983	37.72
284.198	41.81
284.413	66.39
284.628	60.24
284.843	-29.87
285.058	35.67
285.274	33.62
285.489	9.05
285.704	17.24
285.919	25.43
286.134	-15.53
286.349	23.38
286.564	19.29
286.779	66.39
286.995	29.52
287.21	25.43
287.425	88.92
287.64	29.52
287.855	17.24
288.07	11.09
288.285	39.76
288.5	37.72
288.715	29.52
288.93	-17.58
289.145	35.67
289.36	70.48
289.575	17.24
289.79	-5.29
290.004	-13.48
290.219	-3.24
290.434	60.24
290.649	7
290.864	-11.43
291.079	-38.06
291.294	13.14
291.509	-7.34
291.724	25.43
291.938	41.81
292.153	0.85
292.368	54.1
292.583	60.24
292.798	-19.63
293.012	43.86
293.227	17.24
293.442	-19.63
293.657	82.77
293.871	74.58
294.086	33.62
294.301	15.19
294.516	90.96
294.73	37.72
294.945	-15.53
295.16	23.38
295.374	72.53
295.589	-11.43
295.804	82.77
296.018	2.9
296.233	84.82
296.447	-42.15
296.662	29.52
296.877	17.24
297.091	29.52
297.306	64.34
297.52	-15.53
297.735	76.63
297.949	11.09
298.164	70.48
298.378	9.05
298.593	47.96
298.807	-15.53
299.022	-52.39
299.236	45.91
299.451	-15.53
299.665	41.81
299.88	0.85
300.094	66.39
300.309	41.81
300.523	54.1
300.737	-23.72
300.952	21.33
301.166	19.29
301.381	-58.54
301.595	52.05
301.809	37.72
302.024	39.76
302.238	-7.34
302.452	78.68
302.667	33.62
302.881	-1.19
303.095	-7.34
303.309	-15.53
303.524	-23.72
303.738	23.38
303.952	0.85
304.166	93.01
304.381	-54.44
304.595	-7.34
304.809	-11.43
305.023	13.14
305.237	29.52
305.452	-15.53
305.666	-9.39
305.88	121.68
306.094	41.81
306.308	74.58
306.522	101.2
306.736	43.86
306.95	-5.29
307.164	-3.24
307.379	25.43
307.593	90.96
307.807	47.96
308.021	54.1
308.235	-11.43
308.449	90.96
308.663	17.24
308.877	7
309.091	-1.19
309.305	-70.83
309.519	-46.25
309.733	-23.72
309.947	-13.48
310.161	109.4
310.374	-13.48
310.588	95.06
310.802	23.38
311.016	41.81
311.23	11.09
311.444	13.14
311.658	50
311.872	72.53
312.085	37.72
312.299	66.39
312.513	70.48
312.727	84.82
312.941	66.39
313.154	58.2
313.368	19.29
313.582	-5.29
313.796	-31.91
314.009	50
314.223	19.29
314.437	17.24
314.651	37.72
314.864	29.52
315.078	4.95
315.292	-5.29
315.505	43.86
315.719	-42.15
315.933	13.14
316.146	-3.24
316.36	-64.68
316.573	0.85
316.787	13.14
317.001	37.72
317.214	21.33
317.428	72.53
317.641	62.29
317.855	-7.34
318.068	-7.34
318.282	33.62
318.495	-11.43
318.709	39.76
318.922	-23.72
319.136	-5.29
319.349	21.33
319.563	13.14
319.776	9.05
319.99	11.09
320.203	60.24
320.417	-99.5
320.63	-11.43
320.843	78.68
321.057	17.24
321.27	-13.48
321.483	37.72
321.697	111.44
321.91	-3.24
322.124	54.1
322.337	-13.48
322.55	21.33
322.763	13.14
322.977	-27.82
323.19	-11.43
323.403	82.77
323.617	-3.24
323.83	-5.29
324.043	9.05
324.256	15.19
324.469	-85.16
324.683	52.05
324.896	-15.53
325.109	45.91
325.322	25.43
325.535	43.86
325.748	-62.63
325.962	-38.06
326.175	33.62
326.388	-15.53
326.601	50
326.814	35.67
327.027	-46.25
327.24	64.34
327.453	2.9
327.666	35.67
327.879	15.19
328.092	43.86
328.305	52.05
328.518	60.24
328.731	37.72
328.944	-21.67
329.157	27.48
329.37	41.81
329.583	68.44
329.796	117.59
330.009	-19.63
330.222	56.15
330.435	-7.34
330.648	0.85
330.861	0.85
331.073	19.29
331.286	-11.43
331.499	2.9
331.712	29.52
331.925	-7.34
332.138	31.57
332.35	76.63
332.563	25.43
332.776	47.96
332.989	-42.15
333.202	-25.77
333.414	39.76
333.627	45.91
333.84	50
334.053	31.57
334.265	37.72
334.478	60.24
334.691	68.44
334.903	64.34
335.116	-19.63
335.329	-3.24
335.541	-27.82
335.754	21.33
335.966	19.29
336.179	19.29
336.392	4.95
336.604	25.43
336.817	13.14
337.029	33.62
337.242	43.86
337.454	37.72
337.667	-1.19
337.88	82.77
338.092	105.3
338.305	60.24
338.517	-19.63
338.729	68.44
338.942	140.12
339.154	2.9
339.367	-36.01
339.579	-15.53
339.792	21.33
340.004	25.43
340.217	-36.01
340.429	123.73
340.641	29.52
340.854	-19.63
341.066	-13.48
341.278	78.68
341.491	95.06
341.703	27.48
341.915	29.52
342.128	56.15
342.34	-11.43
342.552	54.1
342.764	76.63
342.977	-3.24
343.189	41.81
343.401	-7.34
343.613	78.68
343.826	-23.72
344.038	95.06
344.25	56.15
344.462	29.52
344.674	4.95
344.886	86.87
345.099	50
345.311	-56.49
345.523	45.91
345.735	-76.97
345.947	66.39
346.159	29.52
346.371	4.95
346.583	29.52
346.795	62.29
347.007	23.38
347.219	43.86
347.431	-13.48
347.643	64.34
347.855	-27.82
348.067	43.86
348.279	11.09
348.491	-48.3
348.703	50
348.915	21.33
349.127	21.33
349.339	123.73
349.551	33.62
349.763	13.14
349.975	-23.72
350.187	72.53
350.399	27.48
350.61	7
350.822	-3.24
351.034	35.67
351.246	17.24
351.458	80.72
351.669	13.14
351.881	17.24
352.093	50
352.305	64.34
352.517	43.86
352.728	62.29
352.94	-19.63
353.152	27.48
353.363	-15.53
353.575	-5.29
353.787	86.87
353.999	129.88
354.21	62.29
354.422	17.24
354.633	27.48
354.845	50
355.057	33.62
355.268	19.29
355.48	37.72
355.692	-40.11
355.903	-5.29
356.115	-19.63
356.326	58.2
356.538	17.24
356.749	43.86
356.961	82.77
357.172	15.19
357.384	-21.67
357.595	82.77
357.807	41.81
358.018	25.43
358.23	4.95
358.441	56.15
358.653	58.2
358.864	62.29
359.075	33.62
359.287	-11.43
359.498	90.96
359.709	-1.19
359.921	84.82
360.132	-21.67
360.344	-1.19
360.555	78.68
360.766	41.81
360.977	39.76
361.189	17.24
361.4	33.62
361.611	47.96
361.823	-19.63
362.034	0.85
362.245	-93.35
362.456	17.24
362.667	-19.63
362.879	21.33
363.09	74.58
363.301	27.48
363.512	7
363.723	62.29
363.935	-36.01
364.146	90.96
364.357	70.48
364.568	21.33
364.779	-29.87
364.99	31.57
365.201	35.67
365.412	66.39
365.623	90.96
365.834	45.91
366.045	68.44
366.256	41.81
366.467	13.14
366.678	13.14
366.889	29.52
367.1	4.95
367.311	-3.24
367.522	54.1
367.733	70.48
367.944	47.96
368.155	58.2
368.366	60.24
368.577	86.87
368.788	4.95
368.999	80.72
369.209	43.86
369.42	70.48
369.631	90.96
369.842	9.05
370.053	58.2
370.264	58.2
370.474	7
370.685	43.86
370.896	17.24
371.107	70.48
371.317	66.39
371.528	37.72
371.739	52.05
371.95	82.77
372.16	115.54
372.371	19.29
372.582	9.05
372.792	29.52
373.003	66.39
373.214	9.05
373.424	64.34
373.635	25.43
373.846	142.16
374.056	7
374.267	52.05
374.477	68.44
374.688	-60.59
374.898	-44.2
375.109	66.39
375.319	13.14
375.53	68.44
375.74	80.72
375.951	21.33
376.161	45.91
376.372	21.33
376.582	68.44
376.793	19.29
377.003	17.24
377.214	66.39
377.424	54.1
377.635	29.52
377.845	21.33
378.055	45.91
378.266	-11.43
378.476	82.77
378.686	45.91
378.897	37.72
379.107	90.96
379.317	64.34
379.528	-3.24
379.738	86.87
379.948	-15.53
380.158	9.05
380.369	4.95
380.579	62.29
380.789	-11.43
380.999	-42.15
381.21	111.44
381.42	29.52
381.63	70.48
381.84	50
382.05	78.68
382.261	131.92
382.471	4.95
382.681	-54.44
382.891	78.68
383.101	82.77
383.311	11.09
383.521	43.86
383.731	109.4
383.941	29.52
384.151	-7.34
384.361	64.34
384.571	-5.29
384.781	-1.19
384.991	103.25
385.201	56.15
385.411	35.67
385.621	58.2
385.831	70.48
386.041	50
386.251	21.33
386.461	88.92
386.671	52.05
386.881	76.63
387.091	70.48
387.301	47.96
387.511	35.67
387.72	62.29
387.93	21.33
388.14	97.11
388.35	129.88
388.56	62.29
388.769	19.29
388.979	-5.29
389.189	-38.06
389.399	15.19
389.609	109.4
389.818	90.96
390.028	52.05
390.238	64.34
390.447	45.91
390.657	86.87
390.867	45.91
391.076	88.92
391.286	97.11
391.496	99.16
391.705	-19.63
391.915	35.67
392.125	4.95
392.334	43.86
392.544	25.43
392.753	4.95
392.963	78.68
393.172	13.14
393.382	17.24
393.591	31.57
393.801	70.48
394.01	33.62
394.22	93.01
394.429	43.86
394.639	45.91
394.848	37.72
395.058	68.44
395.267	86.87
395.477	35.67
395.686	88.92
395.895	123.73
396.105	203.6
396.314	162.64
396.524	76.63
396.733	62.29
396.942	64.34
397.152	56.15
397.361	41.81
397.57	31.57
397.78	35.67
397.989	131.92
398.198	136.02
398.407	123.73
398.617	90.96
398.826	45.91
399.035	113.49
399.244	152.4
399.453	54.1
399.663	45.91
399.872	140.12
400.081	66.39
400.29	176.98
400.499	68.44
400.708	127.83
400.917	115.54
401.127	160.59
401.336	78.68
401.545	99.16
401.754	101.2
401.963	150.36
402.172	80.72
402.381	123.73
402.59	82.77
402.799	115.54
403.008	111.44
403.217	109.4
403.426	160.59
403.635	209.75
403.844	148.31
404.053	154.45
404.262	111.44
404.471	176.98
404.68	160.59
404.888	70.48
405.097	168.79
405.306	150.36
405.515	215.89
405.724	181.07
405.933	166.74
406.142	146.26
406.35	185.17
406.559	256.85
406.768	236.37
406.977	162.64
407.185	244.56
407.394	224.08
407.603	211.79
407.812	193.36
408.02	185.17
408.229	179.03
408.438	236.37
408.646	193.36
408.855	213.84
409.064	330.58
409.272	197.46
409.481	248.66
409.69	246.61
409.898	228.18
410.107	312.14
410.315	275.28
410.524	265.04
410.733	377.68
410.941	396.11
411.15	373.58
411.358	353.1
411.567	445.26
411.775	369.49
411.984	482.13
412.192	525.13
412.401	424.78
412.609	525.13
412.818	545.61
413.026	508.75
413.234	525.13
413.443	516.94
413.651	568.14
413.86	559.95
414.068	602.96
414.276	605
414.485	600.91
414.693	666.44
414.901	682.83
415.11	678.73
415.318	754.51
415.526	766.79
415.734	703.31
415.943	803.66
416.151	891.72
416.359	805.71
416.567	836.42
416.776	922.44
416.984	863.05
417.192	1020.74
417.4	1043.27
417.608	1065.8
417.817	1157.96
418.025	1180.48
418.233	1221.44
418.441	1170.24
418.649	1241.92
418.857	1356.61
419.065	1413.95
419.273	1354.56
419.481	1356.61
419.689	1452.86
419.897	1551.17
420.105	1639.23
420.313	1475.39
420.521	1655.61
420.729	1614.65
420.937	1737.53
421.145	1782.59
421.353	1930.04
421.561	1954.62
421.769	2059.06
421.977	2065.21
422.185	2114.36
422.393	2249.52
422.601	2452.27
422.809	2396.98
423.017	2310.96
423.224	2554.67
423.432	2675.5
423.64	2569.01
423.848	2822.95
424.056	2798.38
424.263	3050.28
424.471	2904.87
424.679	3017.51
424.887	3167.01
425.094	3271.46
425.302	3369.76
425.51	3445.54
425.718	3531.55
425.925	3576.61
426.133	3588.89
426.341	3949.34
426.548	4000.54
426.756	3957.53
426.964	4191
427.171	4371.22
427.379	4358.93
427.586	4616.97
427.794	4709.13
428.001	4961.03
428.209	5231.37
428.417	5196.55
428.624	5272.32
428.832	5462.79
429.039	5378.82
429.247	5339.91
429.454	5856
429.662	6167.29
429.869	5853.95
430.076	6472.43
430.284	6206.2
430.491	6253.3
430.699	6841.07
430.906	6599.41
431.114	6869.74
431.321	7107.3
431.528	7269.09
431.736	7672.54
431.943	8145.63
432.15	7811.81
432.358	7918.3
432.565	8239.83
432.772	8264.41
432.979	8792.78
433.187	8825.55
433.394	8796.88
433.601	9491.14
433.808	9534.15
434.016	9525.96
434.223	9863.87
434.43	10472.12
434.637	10300.09
434.844	10914.48
435.052	11066.03
435.259	11213.48
435.466	11391.66
435.673	11012.78
435.88	11917.98
436.087	12458.65
436.294	12454.55
436.501	12073.63
436.708	12559
436.915	12982.93
437.122	13406.86
437.329	13374.09
437.537	13791.87
437.743	14080.64
437.95	14047.87
438.157	14682.74
438.364	15155.82
438.571	14889.59
438.778	15303.28
438.985	16487
439.192	15993.44
439.399	16530.01
439.606	16241.25
439.813	17091.15
440.02	18106.95
440.227	17715.78
440.433	17664.58
440.64	18168.38
440.847	18123.33
441.054	18481.72
441.261	19812.9
441.467	19644.97
441.674	19673.64
441.881	20560.41
442.088	20328.99
442.294	20128.29
442.501	20883.99
442.708	21150.23
442.914	22114.82
443.121	22991.35
443.328	22536.7
443.534	24142.31
443.741	23337.46
443.948	22841.85
444.154	24584.67
444.361	24613.34
444.568	24506.85
444.774	24730.08
444.981	25057.75
445.187	25649.61
445.394	26620.35
445.6	26292.68
445.807	28590.5
446.013	27795.89
446.22	28334.5
446.426	29153.69
446.633	29510.04
446.839	30171.53
447.046	29251.99
447.252	30873.98
447.459	30824.83
447.665	30779.78
447.871	31840.62
448.078	33339.74
448.284	31617.39
448.491	32647.52
448.697	33726.8
448.903	34173.26
449.11	34349.39
449.316	33691.99
449.522	34580.81
449.728	35305.79
449.935	35574.07
450.141	35551.54
450.347	36344.11
450.553	35359.03
450.76	35776.82
450.966	36849.96
451.172	36358.44
451.378	36733.22
451.584	36665.64
451.791	37116.19
451.997	37251.36
452.203	37499.16
452.409	37390.62
452.615	37396.76
452.821	36071.73
453.027	35903.79
453.233	37425.43
453.44	35832.11
453.646	36389.16
453.852	36204.84
454.058	37253.4
454.264	35619.13
454.47	36321.58
454.676	35582.26
454.882	36634.92
455.088	33479
455.294	33749.33
455.5	34449.74
455.705	34785.6
455.911	33063.26
456.117	32731.49
456.323	31945.07
456.529	31136.12
456.735	31809.9
456.941	30515.59
457.147	30552.45
457.352	29372.82
457.558	28965.28
457.764	28858.78
457.97	28729.76
458.176	27955.63
458.381	28004.78
458.587	26665.41
458.793	26782.14
458.999	25190.87
459.204	27173.3
459.41	26352.07
459.616	24822.23
459.821	24121.83
460.027	24173.03
460.233	23955.94
460.438	22610.43
460.644	23017.97
460.85	22258.18
461.055	21686.79
461.261	21768.71
461.466	19909.16
461.672	19671.59
461.878	20998.68
462.083	19493.42
462.289	18989.62
462.494	18846.26
462.7	18147.9
462.905	17517.13
463.111	18268.73
463.316	18403.9
463.522	18043.46
463.727	18199.1
463.932	17697.35
464.138	17506.89
464.343	17717.83
464.549	17152.59
464.754	17830.47
464.959	17793.61
465.165	17445.45
465.37	16616.02
465.575	16183.9
465.781	17140.3
465.986	16982.61
466.191	16306.78
466.397	16224.86
466.602	15393.39
466.807	15909.47
467.012	15950.43
467.218	16069.22
467.423	15811.17
467.628	15940.19
467.833	16419.42
468.038	15897.19
468.244	15270.51
468.449	16030.3
468.654	15471.21
468.859	15409.77
469.064	15356.52
469.269	14674.55
469.474	14723.7
469.679	14809.72
469.885	14856.82
470.09	14731.89
470.295	14746.23
470.5	14148.22
470.705	14381.69
470.91	14152.32
471.115	14074.49
471.32	14207.61
471.525	13927.04
471.73	13847.17
471.935	13849.22
472.139	13171.34
472.344	13349.51
472.549	13439.62
472.754	13351.56
472.959	12923.54
473.164	12532.37
473.369	12515.99
473.574	13048.46
473.778	12796.56
473.983	12608.15
474.188	12548.76
474.393	12173.98
474.598	12233.37
474.802	11895.46
475.007	11911.84
475.212	11825.82
475.417	11348.65
475.621	11387.56
475.826	11430.57
476.031	11182.76
476.235	11072.17
476.44	11154.09
476.645	10928.81
476.849	10941.1
477.054	10943.15
477.259	10789.55
477.463	10564.28
477.668	10703.54
477.872	10709.68
478.077	10265.27
478.282	10101.44
478.486	10181.31
478.691	10209.98
478.895	9978.56
479.1	9982.65
479.304	9986.75
479.509	9689.79
479.713	9974.46
479.918	9392.84
480.122	9556.68
480.326	9738.94
480.531	9644.74
480.735	9728.7
480.94	9351.88
481.144	9753.28
481.348	9290.44
481.553	9403.08
481.757	9216.71
481.961	9288.39
482.166	9540.29
482.37	9374.41
482.574	9261.77
482.778	9345.73
482.983	9642.69
483.187	9224.9
483.391	9364.17
483.595	9358.02
483.8	9233.1
484.004	9290.44
484.208	9573.06
484.412	9202.38
484.616	9188.04
484.821	9171.66
485.025	8979.15
485.229	9104.07
485.433	9124.55
485.637	9396.93
485.841	9050.83
486.045	9239.24
486.249	9208.52
486.453	9007.82
486.657	9292.49
486.861	9323.21
487.065	9112.27
487.269	9245.38
487.473	9147.08
487.677	9362.12
487.881	9194.19
488.085	9251.53
488.289	9202.38
488.493	9278.15
488.697	9423.56
488.901	9245.38
489.105	9372.36
489.309	9231.05
489.512	9376.45
489.716	9429.7
489.92	9468.61
490.124	9384.65
490.328	9374.41
490.531	9358.02
490.735	9523.91
490.939	9351.88
491.143	9345.73
491.346	9437.89
491.55	9673.41
491.754	9599.68
491.958	9601.73
492.161	9784
492.365	9552.58
492.569	9796.29
492.772	9798.34
492.976	9933.5
493.18	9908.93
493.383	9913.02
493.587	10033.85
493.79	10085.05
493.994	9990.84
494.197	10126.01
494.401	10377.91
494.605	10265.27
494.808	10377.91
495.012	10572.47
495.215	10709.68
495.419	10674.87
495.622	10732.21
495.825	10570.42
496.029	10640.05
496.232	11014.83
496.436	11066.03
496.639	11162.28
496.843	11092.65
497.046	11299.5
497.249	11672.23
497.453	11614.88
497.656	11688.61
497.859	11733.67
498.063	12087.96
498.266	12221.08
498.469	12153.5
498.673	12102.3
498.876	12356.25
499.079	12530.33
499.282	12460.7
499.485	12694.16
499.689	12917.39
499.892	12849.81
500.095	13128.33
500.298	13714.05
500.501	13394.57
500.705	13720.2
500.908	13785.73
501.111	14015.1
501.314	14084.73
501.517	14221.95
501.72	14639.73
501.923	14439.03
502.126	14631.54
502.329	15174.25
502.532	14922.35
502.735	15100.53
502.938	15323.76
503.141	15438.44
503.344	15577.7
503.547	15925.86
503.75	15958.63
503.953	16460.38
504.156	16437.85
504.359	16511.58
504.562	16765.53
504.765	17117.78
504.968	17199.69
505.17	17687.11
505.373	17144.4
505.576	17728.07
505.779	17728.07
505.982	17908.29
506.185	18356.8
506.387	18543.16
506.59	18651.7
506.793	19036.72
506.996	18868.79
507.198	19399.21
507.401	19259.95
507.604	19544.62
507.807	19837.48
508.009	20087.33
508.212	20423.2
508.415	20453.92
508.617	20382.24
508.82	20765.21
509.022	20501.02
509.225	21289.49
509.428	21287.44
509.63	21848.58
509.833	21740.04
510.035	22110.72
510.238	22358.53
510.44	22557.18
510.643	22622.72
510.845	22798.84
511.048	22997.49
511.25	23206.39
511.453	23607.79
511.655	24492.51
511.858	24009.19
512.06	24392.16
512.262	24709.6
512.465	24650.21
512.667	25033.18
512.87	25291.22
513.072	25305.56
513.274	25932.23
513.477	25838.03
513.679	26313.16
513.881	26368.45
514.084	26925.5
514.286	26501.57
514.488	26960.31
514.69	28031.4
514.893	28062.12
515.095	27857.32
515.297	28182.95
515.499	28445.09
515.701	29016.47
515.904	29016.47
516.106	29389.2
516.308	29837.71
516.51	29940.11
516.712	29948.3
516.914	30327.17
517.116	30837.12
517.318	30781.82
517.52	30960
517.722	31502.71
517.925	31607.16
518.127	32119.15
518.329	32084.33
518.531	32602.47
518.733	32725.35
518.935	33020.25
519.136	33380.7
519.338	33544.53
519.54	33763.67
519.742	33945.94
519.944	34445.64
520.146	34765.12
520.348	35367.23
520.55	35248.44
520.752	35584.31
520.954	35895.6
521.155	35723.57
521.357	36411.69
521.559	36755.75
521.761	37515.54
521.963	37343.52
522.164	37443.87
522.366	37560.6
522.568	38625.54
522.77	38277.39
522.971	38887.68
523.173	38291.73
523.375	39444.73
523.576	38820.1
523.778	39055.62
523.98	39696.63
524.181	39620.86
524.383	39926
524.584	40564.97
524.786	40597.74
524.988	40444.14
525.189	40966.37
525.391	41345.25
525.592	41558.24
525.794	41666.78
525.995	41679.07
526.197	41877.72
526.398	42049.75
526.6	42467.53
526.801	42234.06
527.003	42940.61
527.204	43149.51
527.406	43180.23
527.607	43212.99
527.808	43491.52
528.01	42772.68
528.211	43466.94
528.412	43989.17
528.614	43989.17
528.815	43993.27
529.016	44595.37
529.218	44202.16
529.419	44384.43
529.62	44423.34
529.822	44298.42
530.023	44857.51
530.224	45009.06
530.425	44472.49
530.626	44740.78
530.828	44304.56
531.029	45625.5
531.23	44849.32
531.431	44916.9
531.632	45572.25
531.833	45723.8
532.035	46088.34
532.236	45965.46
532.437	45990.04
532.638	45596.83
532.839	45885.59
533.04	46006.42
533.241	45699.23
533.442	46778.51
533.643	45889.69
533.844	46123.16
534.045	46137.49
534.246	46055.57
534.447	46459.02
534.648	46428.3
534.849	46536.85
535.05	46301.33
535.251	46428.3
535.451	46049.43
535.652	46684.3
535.853	46538.9
536.054	46536.85
536.255	46874.76
536.456	46438.54
536.657	46923.91
536.857	46577.81
537.058	46461.07
537.259	46483.6
537.46	46708.88
537.66	46848.14
537.861	46753.93
538.062	46586
538.263	47270.02
538.463	46155.93
538.664	46921.87
538.865	46940.3
539.065	46719.12
539.266	46387.35
539.466	47132.81
539.667	46430.35
539.868	47083.65
540.068	46841.99
540.269	46911.63
540.469	46966.92
540.67	46905.48
540.87	46200.98
541.071	46895.24
541.271	47313.03
541.472	46983.3
541.672	46512.27
541.873	46733.45
542.073	46217.36
542.274	47077.51
542.474	46821.51
542.675	46432.4
542.875	47343.75
543.075	46590.09
543.276	46176.4
543.476	47196.29
543.676	47161.48
543.877	46913.67
544.077	46960.78
544.277	46549.14
544.478	46540.94
544.678	47206.53
544.878	46192.79
545.078	46729.36
545.279	46538.9
545.479	46586
545.679	46807.18
545.879	46571.66
546.079	46717.07
546.28	46506.13
546.48	46346.39
546.68	46772.36
546.88	46848.14
547.08	47054.98
547.28	46413.97
547.48	46338.19
547.68	46700.68
547.88	46710.92
548.081	47040.65
548.281	46831.75
548.481	46487.7
548.681	47048.84
548.881	46641.29
549.081	46768.27
549.28	46542.99
549.48	46594.19
549.68	46164.12
549.88	47069.32
550.08	46512.27
550.28	46715.02
550.48	46848.14
550.68	46692.49
550.88	45928.6
551.08	46844.04
551.279	46733.45
551.479	46061.72
551.679	46465.17
551.879	46264.47
552.079	46647.44
552.278	46166.16
552.478	46577.81
552.678	46426.26
552.878	46866.57
553.077	46456.98
553.277	45740.19
553.477	46676.11
553.676	45873.31
553.876	46520.46
554.076	46141.59
554.275	46364.82
554.475	45963.42
554.674	46180.5
554.874	46258.32
555.074	45938.84
555.273	46145.69
555.473	46211.22
555.672	45451.42
555.872	46176.4
556.071	45848.73
556.271	45906.07
556.47	45629.6
556.67	45629.6
556.869	45766.81
557.068	46014.62
557.268	45799.58
557.467	45775
557.667	45324.45
557.866	45414.56
558.065	45557.92
558.265	45295.78
558.464	45070.5
558.663	45242.53
558.863	45062.31
559.062	45658.27
559.261	44611.76
559.461	45508.77
559.66	44898.47
559.859	44908.71
560.058	45062.31
560.258	44931.24
560.457	44521.65
560.656	45220
560.855	44812.46
561.054	44677.29
561.253	44206.26
561.453	44566.7
561.652	44699.82
561.851	44370.1
562.05	43911.35
562.249	44081.33
562.448	44267.7
562.647	43966.65
562.846	44214.45
563.045	44679.34
563.244	43825.34
563.443	44023.99
563.642	43317.44
563.841	43493.57
564.04	43530.43
564.239	44064.95
564.438	43055.3
564.637	43604.16
564.836	43331.78
565.035	42744.01
565.234	43139.27
565.432	42772.68
565.631	42625.23
565.83	43256
566.029	42569.93
566.228	42516.68
566.427	42410.19
566.625	42213.59
566.824	41883.86
567.023	42492.11
567.222	41752.79
567.42	42006.74
567.619	41763.03
567.818	41957.59
568.016	41375.97
568.215	41900.25
568.414	41586.91
568.612	41674.97
568.811	41437.41
569.01	41339.1
569.208	40499.44
569.407	41257.18
569.605	40409.32
569.804	41009.38
570.002	40358.13
570.201	40757.48
570.4	40573.16
570.598	40298.73
570.797	40081.65
570.995	40333.55
571.193	39897.33
571.392	40440.04
571.59	40151.28
571.789	39704.82
571.987	39796.98
572.186	39522.55
572.384	39344.38
572.582	39663.86
572.781	39258.37
572.979	38852.87
573.177	39295.23
573.376	39223.55
573.574	38664.46
573.772	39524.6
573.971	38265.1
574.169	38443.27
574.367	37976.34
574.565	38668.55
574.763	38275.34
574.962	38005.01
575.16	37280.03
575.358	38015.25
575.556	37388.57
575.754	37820.69
575.952	37300.51
576.151	37763.35
576.349	36778.28
576.547	37204.25
576.745	37196.06
576.943	37140.77
577.141	37013.79
577.339	36856.1
577.537	36923.68
577.735	37001.5
577.933	36340.01
578.131	36409.64
578.329	36223.28
578.527	36122.93
578.725	35879.22
578.923	36088.11
579.121	35916.08
579.319	35582.26
579.516	35979.57
579.714	35868.98
579.912	35737.91
580.11	35187
580.308	35541.3
580.506	35080.51
580.704	34900.29
580.901	35092.8
581.099	35465.53
581.297	34812.23
581.495	35060.03
581.692	35295.55
581.89	34238.79
582.088	34742.6
582.285	34326.86
582.483	34333
582.681	34396.49
582.878	34609.48
583.076	34077.01
583.274	34421.06
583.471	33640.79
583.669	34195.79
583.866	33446.23
584.064	33683.8
584.262	33147.23
584.459	33773.91
584.657	33519.96
584.854	33765.71
585.052	32938.33
585.249	33198.43
585.447	32999.77
585.644	32625
585.841	32868.7
586.039	33010.01
586.236	32635.24
586.434	32479.59
586.631	32668
586.828	32446.82
587.026	32397.67
587.223	32016.75
587.42	32270.7
587.618	31973.74
587.815	31857.01
588.012	31707.51
588.21	31738.23
588.407	31703.41
588.604	31457.65
588.801	31351.16
588.999	31277.43
589.196	31105.4
589.393	31242.62
589.59	31297.91
589.787	30921.09
589.984	30882.17
590.182	30648.71
590.379	30650.75
590.576	30450.05
590.773	30409.09
590.97	30089.61
591.167	30316.93
591.364	29821.33
591.561	30142.86
591.758	29583.76
591.955	29862.29
592.152	29987.21
592.349	29624.72
592.546	29993.36
592.743	29438.36
592.94	29260.18
593.137	29491.6
593.334	29716.88
593.531	29342.1
593.727	29262.23
593.924	29264.28
594.121	28899.74
594.318	28692.9
594.515	28289.45
594.712	29002.14
594.908	28858.78
595.105	28823.97
595.302	28633.5
595.499	28570.02
595.696	28027.31
595.892	27986.35
596.089	28125.61
596.286	28529.06
596.482	27916.72
596.679	27935.15
596.876	28002.73
597.072	27509.17
597.269	27662.77
597.466	27490.74
597.662	27439.54
597.859	27425.2
598.055	27472.31
598.252	27214.26
598.448	27206.07
598.645	27236.79
598.841	26638.78
599.038	26943.93
599.234	26800.57
599.431	26456.51
599.627	26278.34
599.824	26786.24
600.02	26368.45
600.217	26569.15
600.413	26104.26
600.609	26075.59
600.806	25938.38
601.002	26044.87
601.198	26081.74
601.395	25948.62
601.591	25508.3
601.787	25831.88
601.984	25606.61
602.18	25782.73
602.376	25719.24
602.572	25330.13
602.769	25276.88
602.965	25199.06
603.161	25145.81
603.357	24988.12
603.553	25164.25
603.75	25248.21
603.946	24840.67
604.142	25102.81
604.338	24236.52
604.534	24824.28
604.73	24197.6
604.926	24611.29
605.122	24144.36
605.318	24244.71
605.514	24248.8
605.71	23945.7
605.906	23980.52
606.102	24226.28
606.298	23831.02
606.494	23538.16
606.69	23753.19
606.886	23765.48
607.082	23454.19
607.278	23738.86
607.474	23689.71
607.67	23933.42
607.866	23261.68
608.062	23689.71
608.257	23294.45
608.453	23327.22
608.649	23362.03
608.845	22968.82
609.041	23128.56
609.236	22905.34
609.432	23130.61
609.628	22776.31
609.824	22743.55
610.019	22606.33
610.215	22759.93
610.411	22755.83
610.606	22245.89
610.802	22585.85
610.998	22561.28
611.193	22727.16
611.389	22342.14
611.584	22497.79
611.78	22202.88
611.976	22219.27
612.171	22223.36
612.367	21979.65
612.562	21944.84
612.758	21838.34
612.953	21723.66
613.149	21961.22
613.344	21762.57
613.539	22360.58
613.735	21651.98
613.93	21633.55
614.126	21559.82
614.321	21944.84
614.517	21854.73
614.712	21656.07
614.907	21443.09
615.103	21737.99
615.298	21471.76
615.493	21729.8
615.688	21164.56
615.884	21680.65
616.079	21033.49
616.274	21115.41
616.47	21295.63
616.665	21135.89
616.86	20742.68
617.055	21010.96
617.25	20982.29
617.445	20853.27
617.641	20644.38
617.836	20779.54
618.031	20582.94
618.226	20920.85
618.421	20527.64
618.616	20707.87
618.811	20236.83
619.006	20736.54
619.201	20052.52
619.396	20144.67
619.591	20103.71
619.786	20343.33
619.981	19722.79
620.176	20083.23
620.371	19714.6
620.566	19550.76
620.761	19771.94
620.956	19618.35
621.151	19380.78
621.346	19294.77
621.541	19108.4
621.735	19366.45
621.93	19024.44
622.125	19128.88
622.32	18772.53
622.515	18795.06
622.709	18666.04
622.904	18645.56
623.099	18688.57
623.294	18606.65
623.488	18364.99
623.683	18494.01
623.878	18080.32
624.072	18272.83
624.267	18010.69
624.462	17896
624.656	17629.77
624.851	17683.02
625.046	17711.69
625.24	17703.5
625.435	17476.17
625.629	17551.95
625.824	17447.5
626.018	17152.59
626.213	16794.2
626.407	17185.36
626.602	16681.56
626.796	17109.58
626.991	16765.53
627.185	16654.94
627.38	16519.77
627.574	16478.81
627.768	16589.4
627.963	16120.42
628.157	16239.2
628.352	16226.91
628.546	16046.69
628.74	16095.84
628.935	15657.57
629.129	15911.52
629.323	15669.86
629.517	15391.34
629.712	15358.57
629.906	15417.96
630.1	15295.08
630.294	15340.14
630.489	15186.54
630.683	15055.47
630.877	15020.66
631.071	14944.88
631.265	15106.67
631.459	14762.61
631.653	14869.11
631.848	14371.45
632.042	14600.82
632.236	14830.2
632.43	14381.69
632.624	14459.51
632.818	14156.41
633.012	14228.09
633.206	14201.47
633.4	14224
633.594	13965.95
633.788	14156.41
633.982	13986.43
634.176	13736.58
634.369	13615.75
634.563	13693.57
634.757	13658.76
634.951	13470.34
635.145	13406.86
635.339	13292.17
635.533	13187.72
635.726	13363.85
635.92	13060.75
636.114	13283.98
636.308	13056.65
636.501	13066.89
636.695	13070.99
636.889	12714.64
637.083	12753.55
637.276	12722.84
637.47	12679.83
637.664	12407.45
637.857	12698.26
638.051	12407.45
638.244	12403.35
638.438	12161.69
638.632	12389.02
638.825	12094.11
639.019	12165.79
639.212	11993.76
639.406	11756.19
639.599	11719.33
639.793	11958.94
639.986	11618.98
640.18	11866.78
640.373	11520.68
640.567	11475.62
640.76	11397.8
640.954	11299.5
641.147	11346.6
641.34	11367.08
641.534	11436.71
641.727	11387.56
641.92	11246.25
642.114	11096.75
642.307	11119.28
642.5	11057.84
642.694	10977.97
642.887	10803.89
643.08	10865.33
643.273	10498.74
643.467	10572.47
643.66	10644.15
643.853	10717.87
644.046	10418.87
644.239	10355.38
644.432	10373.82
644.626	10433.21
644.819	10361.53
645.012	9951.93
645.205	10025.66
645.398	10228.41
645.591	10230.46
645.784	9925.31
645.977	9996.99
646.17	9974.46
646.363	9745.09
646.556	9757.38
646.749	9599.68
646.942	9960.13
647.135	9634.5
647.328	9759.42
647.521	9267.91
647.714	9341.64
647.907	9261.77
648.099	9288.39
648.292	9251.53
648.485	9392.84
648.678	8964.81
648.871	9091.79
649.064	9194.19
649.256	9155.27
649.449	8909.52
649.642	9073.35
649.835	8999.63
650.027	8788.69
650.22	8739.54
650.413	8786.64
650.605	8753.87
650.798	8717.01
650.991	8653.52
651.183	8483.54
651.376	8538.84
651.568	8596.18
651.761	8485.59
651.954	8461.01
652.146	8399.57
652.339	8440.53
652.531	8303.32
652.724	8379.09
652.916	8276.7
653.109	8223.45
653.301	8243.93
653.494	8176.34
653.686	8075.99
653.879	8139.48
654.071	7881.44
654.263	7938.78
654.456	8010.46
654.648	7860.96
654.84	7719.65
655.033	7789.28
655.225	7793.37
655.417	7574.24
655.61	7559.91
655.802	7727.84
655.994	7531.23
656.186	7578.34
656.379	7480.04
656.571	7412.45
656.763	7359.21
656.955	7314.15
657.148	7324.39
657.34	7385.83
657.532	7232.23
657.724	7219.94
657.916	7236.33
658.108	7221.99
658.3	6959.85
658.492	7140.07
658.684	7023.34
658.876	7056.11
659.068	7041.77
659.26	7015.15
659.452	6808.3
659.644	6927.08
659.836	6853.36
660.028	6836.97
660.22	6644.46
660.412	6681.33
660.604	6552.31
660.796	6664.94
660.988	6609.65
661.18	6509.3
661.372	6623.98
661.563	6548.21
661.755	6480.63
661.947	6542.07
662.139	6361.84
662.331	6296.31
662.522	6320.88
662.714	6263.54
662.906	6195.96
663.097	6259.45
663.289	6169.34
663.481	6050.55
663.673	6238.97
663.864	6001.4
664.056	6062.84
664.247	6109.94
664.439	5876.48
664.631	6226.68
664.822	5974.78
665.014	5821.18
665.205	5774.08
665.397	5886.72
665.588	5950.2
665.78	5726.97
665.971	5804.8
666.163	5792.51
666.354	5579.52
666.546	5661.44
666.737	5741.31
666.929	5640.96
667.12	5714.69
667.311	5532.42
667.503	5561.09
667.694	5655.3
667.885	5509.89
668.077	5538.56
668.268	5491.46
668.459	5438.21
668.651	5393.16
668.842	5387.01
669.033	5415.68
669.224	5337.86
669.416	5178.12
669.607	5165.83
669.798	5204.74
669.989	5391.11
670.18	5227.27
670.371	5034.76
670.563	5239.56
670.754	5284.61
670.945	5026.57
671.136	5057.29
671.327	5006.09
671.518	5059.34
671.709	5024.52
671.9	5137.16
672.091	4958.99
672.282	4932.36
672.473	4825.87
672.664	4864.78
672.855	4770.57
673.046	4860.68
673.237	4870.92
673.428	4772.62
673.619	4684.56
673.809	4809.48
674	4786.96
674.191	4739.85
674.382	4723.47
674.573	4684.56
674.764	4840.2
674.954	4608.78
675.145	4584.21
675.336	4653.84
675.527	4561.68
675.717	4639.5
675.908	4428.56
676.099	4537.1
676.289	4440.85
676.48	4420.37
676.671	4309.78
676.861	4412.18
677.052	4440.85
677.243	4289.3
677.433	4252.44
677.624	4432.66
677.814	4346.64
678.005	4391.7
678.195	4291.35
678.386	4315.92
678.576	4371.22
678.767	4248.34
678.957	4174.61
679.148	4330.26
679.338	4129.56
679.529	4178.71
679.719	4168.47
679.909	4297.49
680.1	4141.85
680.29	4107.03
680.481	4109.08
680.671	4170.52
680.861	4199.19
681.052	4172.57
681.242	4059.93
681.432	4238.1
681.622	4008.73
681.813	4076.31
682.003	3955.48
682.193	4025.11
682.383	3990.3
682.573	3820.32
682.764	3916.57
682.954	3959.58
683.144	4025.11
683.334	3826.46
683.524	3902.23
683.714	3906.33
683.904	3730.2
684.094	3871.51
684.284	3848.99
684.474	3848.99
684.664	3773.21
684.854	3846.94
685.044	3838.75
685.234	3719.96
685.424	3879.71
685.614	3785.5
685.804	3795.74
685.994	3756.83
686.184	3805.98
686.374	3658.53
686.564	3547.94
686.753	3644.19
686.943	3535.65
687.133	3586.85
687.323	3560.22
687.513	3650.33
687.702	3562.27
687.892	3517.22
688.082	3597.09
688.272	3525.41
688.461	3375.91
688.651	3607.33
688.841	3560.22
689.03	3453.73
689.22	3380
689.41	3478.3
689.599	3633.95
689.789	3521.31
689.979	3445.54
690.168	3511.07
690.358	3429.15
690.547	3355.43
690.737	3322.66
690.926	3349.28
691.116	3351.33
691.305	3380
691.495	3279.65
691.684	3320.61
691.874	3357.47
692.063	3427.11
692.252	3287.84
692.442	3322.66
692.631	3349.28
692.82	3191.59
693.01	3199.78
693.199	3191.59
693.388	3167.01
693.578	3177.25
693.767	3109.67
693.956	3121.96
694.146	3035.94
694.335	3142.44
694.524	3179.3
694.713	3074.85
694.902	3244.84
695.092	3156.77
695.281	3193.64
695.47	3109.67
695.659	3052.33
695.848	3148.58
696.037	3111.72
696.226	3132.2
696.415	3070.76
696.604	3138.34
696.793	3031.85
696.982	3056.42
697.171	3124.01
697.36	3171.11
697.549	3025.7
697.738	3171.11
697.927	3085.09
698.116	3060.52
698.305	3097.38
698.494	3126.05
698.683	3076.9
698.872	3046.18
699.061	3117.86
699.25	3044.13
699.438	3023.66
699.627	2986.79
699.816	3044.13
700.005	3062.57
700.193	3081
700.382	3107.62
700.571	3003.18
700.76	3052.33
700.948	3085.09
701.137	3152.68
701.326	3023.66
701.514	3097.38
701.703	3037.99
701.892	2911.02
702.08	3044.13
702.269	3076.9
702.457	2925.35
702.646	3095.33
702.834	2945.83
703.023	3040.04
703.212	2980.65
703.4	2937.64
703.589	3042.09
703.777	3003.18
703.965	2982.7
704.154	3017.51
704.342	3081
704.531	3173.16
704.719	2915.11
704.907	2925.35
705.096	3025.7
705.284	2937.64
705.472	3048.23
705.661	3007.27
705.849	3060.52
706.037	3091.24
706.226	2974.5
706.414	3007.27
706.602	3191.59
706.79	3017.51
706.979	2972.46
707.167	3060.52
707.355	2992.94
707.543	3035.94
707.731	2911.02
707.919	2900.78
708.107	2886.44
708.296	2931.5
708.484	2962.22
708.672	2929.45
708.86	3130.15
709.048	2990.89
709.236	3001.13
709.424	2999.08
709.612	2888.49
709.8	2913.06
709.988	2929.45
710.176	2896.68
710.364	3060.52
710.551	2927.4
710.739	3023.66
710.927	2872.11
711.115	3040.04
711.303	2919.21
711.491	3064.61
711.679	2921.26
711.866	3027.75
712.054	3003.18
712.242	3017.51
712.43	2960.17
712.617	2976.55
712.805	2898.73
712.993	3033.9
713.181	2855.72
713.368	2960.17
713.556	2902.83
713.744	2861.87
713.931	3048.23
714.119	3109.67
714.306	2868.01
714.494	2892.59
714.682	2990.89
714.869	2992.94
715.057	2966.31
715.244	2835.24
715.432	3027.75
715.619	2898.73
715.807	2943.78
715.994	2919.21
716.182	2872.11
716.369	2876.2
716.556	2943.78
716.744	2806.57
716.931	2765.61
717.119	3005.22
717.306	3003.18
717.493	2878.25
717.681	2872.11
717.868	2900.78
718.055	2966.31
718.242	2743.08
718.43	2847.53
718.617	2816.81
718.804	2896.68
718.991	2986.79
719.179	2923.3
719.366	2884.39
719.553	2886.44
719.74	2925.35
719.927	2845.48
720.114	2923.3
720.301	2872.11
720.488	2943.78
720.676	2704.17
720.863	2695.98
721.05	2904.87
721.237	2816.81
721.424	2855.72
721.611	2741.04
721.798	2732.84
721.985	2794.28
722.172	2741.04
722.358	2837.29
722.545	2743.08
722.732	2806.57
722.919	2915.11
723.106	2655.02
723.293	2757.42
723.48	2747.18
723.667	2753.32
723.853	2749.23
724.04	2695.98
724.227	2741.04
724.414	2933.54
724.6	2693.93
724.787	2806.57
724.974	2786.09
725.161	2716.46
725.347	2675.5
725.534	2781.99
725.72	2718.51
725.907	2763.56
726.094	2693.93
726.28	2677.55
726.467	2741.04
726.653	2679.6
726.84	2747.18
727.027	2738.99
727.213	2493.23
727.4	2657.07
727.586	2702.12
727.773	2706.22
727.959	2552.62
728.145	2544.43
728.332	2575.15
728.518	2562.86
728.705	2749.23
728.891	2628.4
729.077	2626.35
729.264	2575.15
729.45	2560.81
729.636	2642.73
729.823	2513.71
730.009	2564.91
730.195	2605.87
730.382	2556.72
730.568	2609.97
730.754	2575.15
730.94	2499.38
731.126	2566.96
731.313	2646.83
731.499	2601.77
731.685	2511.66
731.871	2569.01
732.057	2556.72
732.243	2499.38
732.429	2450.22
732.615	2425.65
732.801	2485.04
732.987	2349.87
733.173	2509.62
733.359	2476.85
733.545	2470.7
733.731	2456.37
733.917	2460.46
734.103	2394.93
734.289	2407.22
734.475	2380.59
734.661	2335.54
734.847	2464.56
735.033	2351.92
735.219	2515.76
735.404	2417.46
735.59	2382.64
735.776	2374.45
735.962	2368.31
736.148	2433.84
736.333	2282.29
736.519	2247.48
736.705	2380.59
736.89	2315.06
737.076	2306.87
737.262	2274.1
737.447	2304.82
737.633	2327.35
737.819	2399.02
738.004	2331.44
738.19	2224.95
738.375	2329.39
738.561	2298.67
738.747	2341.68
738.932	2302.77
739.118	2274.1
739.303	2183.99
739.489	2202.42
739.674	2183.99
739.859	2157.36
740.045	2163.51
740.23	2206.52
740.416	2093.88
740.601	2151.22
740.786	2059.06
740.972	2069.3
741.157	2208.56
741.342	2097.97
741.528	2108.21
741.713	2073.4
741.898	2132.79
742.084	2102.07
742.269	2063.16
742.454	1993.53
742.639	1987.38
742.824	2069.3
743.01	2081.59
743.195	2003.77
743.38	2038.58
743.565	1999.67
743.75	1987.38
743.935	1954.62
744.12	2040.63
744.305	1884.98
744.49	1856.31
744.675	1868.6
744.86	1876.79
745.045	1962.81
745.23	1964.86
745.415	1954.62
745.6	1901.37
745.785	1921.85
745.97	2044.73
746.155	1870.65
746.34	1735.48
746.525	1790.78
746.71	1874.74
746.895	1864.5
747.079	1698.62
747.264	1878.84
747.449	1850.17
747.634	1667.9
747.819	1782.59
748.003	1753.91
748.188	1741.63
748.373	1839.93
748.557	1755.96
748.742	1753.91
748.927	1610.56
749.111	1655.61
749.296	1674.04
749.481	1616.7
749.665	1678.14
749.85	1626.94
750.034	1594.17
750.219	1594.17
750.404	1559.36
750.588	1616.7
750.773	1590.08
750.957	1604.41
751.141	1649.47
751.326	1534.78
751.51	1508.16
751.695	1610.56
751.879	1495.87
752.064	1598.27
752.248	1512.25
752.432	1573.69
752.617	1549.12
752.801	1487.68
752.985	1536.83
753.17	1502.01
753.354	1461.06
753.538	1551.17
753.722	1434.43
753.907	1377.09
754.091	1356.61
754.275	1512.25
754.459	1323.84
754.643	1383.23
754.828	1350.46
755.012	1387.33
755.196	1301.31
755.38	1332.03
755.564	1352.51
755.748	1422.14
755.932	1364.8
756.116	1219.39
756.3	1315.65
756.484	1375.04
756.668	1227.59
756.852	1321.79
757.036	1211.2
757.22	1248.07
757.404	1160
757.588	1219.39
757.772	1272.64
757.956	1141.57
758.14	1276.74
758.323	1088.32
758.507	1256.26
758.691	1149.76
758.875	1209.15
759.059	1180.48
759.242	1225.54
759.426	1160
759.61	1143.62
759.794	1168.2
759.977	1182.53
760.161	1243.97
760.345	1164.1
760.528	979.78
760.712	1114.95
760.895	1110.85
761.079	1059.65
761.263	1135.43
761.446	1160
761.63	1114.95
761.813	1117
761.997	1082.18
762.18	998.21
762.364	1102.66
762.547	1049.41
762.731	1016.65
762.914	1053.51
763.098	1030.98
763.281	1065.8
763.464	887.62
763.648	1022.79
763.831	983.88
764.015	1102.66
764.198	951.11
764.381	1059.65
764.564	1049.41
764.748	947.01
764.931	1006.41
765.114	1016.65
765.297	990.02
765.481	1000.26
765.664	955.21
765.847	979.78
766.03	928.58
766.213	1006.41
766.397	1037.13
766.58	920.39
766.763	938.82
766.946	867.14
767.129	938.82
767.312	803.66
767.495	1022.79
767.678	932.68
767.861	918.34
768.044	914.25
768.227	1028.93
768.41	971.59
768.593	873.29
768.776	840.52
768.959	826.18
769.142	914.25
769.324	922.44
769.507	899.91
769.69	879.43
769.873	897.86
770.056	1041.22
770.239	879.43
770.421	869.19
770.604	815.94
770.787	963.4
770.97	861
771.152	787.27
771.335	918.34
771.518	877.38
771.7	873.29
771.883	889.67
772.066	891.72
772.248	834.38
772.431	844.62
772.613	838.47
772.796	781.13
772.978	807.75
773.161	871.24
773.343	836.42
773.526	807.75
773.708	799.56
773.891	750.41
774.073	738.12
774.256	713.55
774.438	817.99
774.621	738.12
774.803	760.65
774.985	774.99
775.168	793.42
775.35	781.13
775.532	699.21
775.715	703.31
775.897	740.17
776.079	742.22
776.261	742.22
776.444	705.35
776.626	709.45
776.808	762.7
776.99	691.02
777.173	684.87
777.355	682.83
777.537	684.87
777.719	668.49
777.901	691.02
778.083	699.21
778.265	656.2
778.447	680.78
778.629	660.3
778.811	693.07
778.993	668.49
779.175	729.93
779.357	693.07
779.539	574.28
779.721	615.24
779.903	662.35
780.085	637.77
780.267	650.06
780.449	553.8
780.631	664.4
780.812	611.15
780.994	539.47
781.176	611.15
781.358	576.33
781.54	525.13
781.721	471.89
781.903	562
782.085	529.23
782.267	539.47
782.448	600.91
782.63	586.57
782.812	541.52
782.993	582.48
783.175	525.13
783.357	428.88
783.538	619.34
783.72	457.55
783.901	529.23
784.083	504.65
784.264	410.45
784.446	480.08
784.627	500.56
784.809	557.9
784.99	543.57
785.172	437.07
785.353	533.33
785.535	490.32
785.716	373.58
785.897	402.26
786.079	488.27
786.26	512.85
786.441	443.21
786.623	465.74
786.804	459.6
786.985	451.41
787.167	402.26
787.348	412.5
787.529	525.13
787.71	424.78
787.891	441.17
788.073	422.73
788.254	357.2
788.435	398.16
788.616	426.83
788.797	406.35
788.978	410.45
789.159	426.83
789.34	494.41
789.522	353.1
789.703	383.82
789.884	365.39
790.065	418.64
790.246	396.11
790.427	379.73
790.607	402.26
790.788	410.45
790.969	293.71
791.15	392.02
791.331	375.63
791.512	342.86
791.693	381.78
791.874	351.06
792.054	383.82
792.235	342.86
792.416	400.21
792.597	281.43
792.778	451.41
792.958	322.38
793.139	297.81
793.32	312.14
793.5	357.2
793.681	406.35
793.862	349.01
794.042	316.24
794.223	262.99
794.404	295.76
794.584	242.51
794.765	306
794.945	303.95
795.126	283.47
795.306	306
795.487	381.78
795.667	258.9
795.848	336.72
796.028	248.66
796.209	299.86
796.389	306
796.57	230.23
796.75	301.9
796.93	271.19
797.111	240.47
797.291	283.47
797.471	342.86
797.652	312.14
797.832	254.8
798.012	408.4
798.192	234.32
798.373	230.23
798.553	209.75
798.733	267.09
798.913	283.47
799.093	236.37
799.274	222.03
799.454	293.71
799.634	265.04
799.814	320.34
799.994	281.43
800.174	240.47
800.354	279.38
800.534	254.8
800.714	277.33
800.894	181.07
801.074	230.23
801.254	193.36
801.434	287.57
801.614	240.47
801.794	217.94
801.974	717.64
802.154	340.82
802.334	238.42
802.514	240.47
802.693	224.08
802.873	199.51
803.053	217.94
803.233	226.13
803.413	215.89
803.592	230.23
803.772	187.22
803.952	213.84
804.131	232.27
804.311	240.47
804.491	191.31
804.67	191.31
804.85	174.93
805.03	207.7
805.209	308.05
805.389	158.55
805.568	193.36
805.748	222.03
805.928	262.99
806.107	226.13
806.287	299.86
806.466	226.13
806.646	199.51
806.825	199.51
807.004	209.75
807.184	156.5
807.363	179.03
807.543	158.55
807.722	174.93
807.901	199.51
808.081	144.21
808.26	136.02
808.439	131.92
808.619	152.4
808.798	250.71
808.977	119.64
809.156	174.93
809.336	144.21
809.515	213.84
809.694	160.59
809.873	164.69
810.052	158.55
810.231	189.27
810.411	181.07
810.59	211.79
810.769	95.06
810.948	222.03
811.127	174.93
811.306	158.55
811.485	146.26
811.664	170.83
811.843	148.31
812.022	166.74
812.201	129.88
812.38	146.26
812.559	160.59
812.737	119.64
812.916	172.88
813.095	148.31
813.274	156.5
813.453	119.64
813.632	107.35
813.811	203.6
813.989	103.25
814.168	121.68
814.347	103.25
814.526	187.22
814.704	181.07
814.883	183.12
815.062	93.01
815.24	226.13
815.419	58.2
815.598	99.16
815.776	74.58
815.955	127.83
816.133	54.1
816.312	156.5
816.49	152.4
816.669	176.98
816.847	183.12
817.026	162.64
817.204	111.44
817.383	150.36
817.561	138.07
817.74	111.44
817.918	136.02
818.097	158.55
818.275	84.82
818.453	123.73
818.632	74.58
818.81	146.26
818.988	133.97
819.167	78.68
819.345	82.77
819.523	78.68
819.701	140.12
819.879	103.25
820.058	168.79
820.236	109.4
820.414	43.86
820.592	56.15
820.77	37.72
820.948	74.58
821.127	107.35
821.305	131.92
821.483	107.35
821.661	127.83
821.839	131.92
822.017	90.96
822.195	64.34
822.373	54.1
822.551	74.58
822.729	193.36
822.907	88.92
823.085	111.44
823.262	136.02
823.44	13.14
823.618	158.55
823.796	76.63
823.974	103.25
824.152	148.31
824.329	123.73
824.507	72.53
824.685	148.31
824.863	84.82
825.04	68.44
825.218	70.48
825.396	82.77
825.574	99.16
825.751	84.82
825.929	78.68
826.107	4.95
826.284	107.35
826.462	107.35
826.639	90.96
826.817	95.06
826.994	58.2
827.172	56.15
827.349	144.21
827.527	54.1
827.704	90.96
827.882	119.64
828.059	90.96
828.237	23.38
828.414	95.06
828.591	7
828.769	47.96
828.946	80.72
829.124	107.35
829.301	115.54
829.478	0.85
829.655	37.72
829.833	-40.11
830.01	62.29
830.187	103.25
830.364	93.01
830.542	107.35
830.719	113.49
830.896	207.7
831.073	47.96
831.25	37.72
831.427	95.06
831.604	86.87
831.782	58.2
831.959	58.2
832.136	35.67
832.313	21.33
832.49	-15.53
832.667	33.62
832.844	-21.67
833.021	105.3
833.198	68.44
833.374	133.97
833.551	9.05
833.728	58.2
833.905	56.15
834.082	13.14
834.259	107.35
834.436	125.78
834.612	84.82
834.789	70.48
834.966	95.06
835.143	15.19
835.319	17.24
835.496	76.63
835.673	23.38
835.85	43.86
836.026	11.09
836.203	68.44
836.38	62.29
836.556	99.16
836.733	-13.48
836.909	95.06
837.086	25.43
837.262	54.1
837.439	105.3
837.616	0.85
837.792	23.38
837.968	86.87
838.145	43.86
838.321	78.68
838.498	47.96
838.674	21.33
838.851	50
839.027	-25.77
839.203	111.44
839.38	107.35
839.556	-3.24
839.732	72.53
839.909	25.43
840.085	39.76
840.261	-17.58
840.437	68.44
840.614	7
840.79	70.48
840.966	84.82
841.142	0.85
841.318	70.48
841.494	41.81
841.671	33.62
841.847	62.29
842.023	-64.68
842.199	4.95
842.375	15.19
842.551	9.05
842.727	-1.19
842.903	23.38
843.079	86.87
843.255	33.62
843.431	70.48
843.607	101.2
843.783	52.05
843.959	99.16
844.134	4.95
844.31	74.58
844.486	50
844.662	41.81
844.838	37.72
845.013	62.29
845.189	37.72
845.365	101.2
845.541	31.57
845.716	9.05
845.892	95.06
846.068	-40.11
846.244	62.29
846.419	50
846.595	-25.77
846.77	27.48
846.946	0.85
847.122	23.38
847.297	-46.25
847.473	58.2
847.648	35.67
847.824	21.33
847.999	-64.68
848.175	47.96
848.35	25.43
848.526	45.91
848.701	-31.91
848.876	25.43
849.052	11.09
849.227	-40.11
849.403	29.52
849.578	17.24
849.753	60.24
849.929	60.24
850.104	-52.39
850.279	95.06
850.454	88.92
850.63	97.11
850.805	-3.24
850.98	90.96
851.155	11.09
851.33	66.39
851.505	-36.01
851.681	37.72
851.856	-52.39
852.031	93.01
852.206	-27.82
852.381	-5.29
852.556	-44.2
852.731	39.76
852.906	23.38
853.081	-19.63
853.256	54.1
853.431	19.29
853.606	-5.29
853.781	60.24
853.956	-3.24
854.131	80.72
854.305	-72.87
854.48	84.82
854.655	37.72
854.83	15.19
855.005	37.72
855.18	58.2
855.354	-7.34
855.529	35.67
855.704	23.38
855.879	-13.48
856.053	11.09
856.228	54.1
856.403	-91.31
856.577	41.81
856.752	31.57
856.926	13.14
857.101	41.81
857.276	-27.82
857.45	50
857.625	29.52
857.799	0.85
857.974	39.76
858.148	-44.2
858.323	105.3
858.497	11.09
858.672	-3.24
858.846	-15.53
859.02	54.1
859.195	-48.3
859.369	43.86
859.543	-13.48
859.718	-9.39
859.892	25.43
860.066	21.33
860.241	27.48
860.415	-21.67
860.589	4.95
860.763	17.24
860.938	17.24
861.112	60.24
861.286	-46.25
861.46	13.14
861.634	39.76
861.808	-31.91
861.982	2.9
862.157	7
862.331	-58.54
862.505	-23.72
862.679	-27.82
862.853	-19.63
863.027	47.96
863.201	23.38
863.375	-3.24
863.549	13.14
863.722	62.29
863.896	97.11
864.07	-54.44
864.244	-23.72
864.418	-19.63
864.592	66.39
864.766	-3.24
864.939	-15.53
865.113	21.33
865.287	-60.59
865.461	62.29
865.634	-11.43
865.808	27.48
865.982	43.86
866.156	-5.29
866.329	-25.77
866.503	-29.87
866.676	41.81
866.85	35.67
867.024	25.43
867.197	-31.91
867.371	-3.24
867.544	-15.53
867.718	-23.72
867.891	29.52
868.065	2.9
868.238	-19.63
868.412	-19.63
868.585	39.76
868.759	-87.21
868.932	-21.67
869.105	9.05
869.279	52.05
869.452	4.95
869.625	-31.91
869.799	-60.59
869.972	37.72
870.145	7
870.319	-44.2
870.492	-25.77
870.665	13.14
870.838	47.96
871.011	-21.67
871.185	-42.15
871.358	-46.25
871.531	-46.25
871.704	-36.01
871.877	-70.83
872.05	35.67
872.223	-27.82
872.396	76.63
872.569	13.14
872.742	-36.01
872.915	29.52
873.088	-3.24
873.261	11.09
873.434	4.95
873.607	66.39
873.78	-27.82
873.953	-48.3
874.126	-38.06
874.299	-19.63
874.471	-11.43
874.644	-27.82
874.817	27.48
874.99	4.95
875.163	17.24
875.335	15.19
875.508	-44.2
875.681	-5.29
875.853	-42.15
876.026	15.19
876.199	0.85
876.371	31.57
876.544	-60.59
876.717	-3.24
876.889	19.29
877.062	35.67
877.234	35.67
877.407	-9.39
877.579	-44.2
877.752	-31.91
877.924	52.05
878.097	-3.24
878.269	27.48
878.442	45.91
878.614	-17.58
878.786	29.52
878.959	37.72
879.131	41.81
879.303	7
879.476	17.24
879.648	35.67
879.82	0.85
879.993	-19.63
880.165	-29.87
880.337	-11.43
880.509	-52.39
880.681	-27.82
880.854	27.48
881.026	66.39
881.198	50
881.37	25.43
881.542	-76.97
881.714	-36.01
881.886	27.48
882.058	35.67
882.23	31.57
882.402	-56.49
882.574	-9.39
882.746	-64.68
882.918	43.86
883.09	15.19
883.262	11.09
883.434	-15.53
883.606	-42.15
883.778	-42.15
883.95	-23.72
884.122	4.95
884.293	58.2
884.465	-17.58
884.637	29.52
884.809	-42.15
884.98	19.29
885.152	-11.43
885.324	21.33
885.496	-3.24
885.667	21.33
885.839	-5.29
886.011	23.38
886.182	11.09
886.354	-11.43
886.525	45.91
886.697	-58.54
886.869	-46.25
887.04	-126.12
887.212	68.44
887.383	45.91
887.555	-5.29
887.726	62.29
887.897	-31.91
888.069	70.48
888.24	-66.73
888.412	17.24
888.583	29.52
888.754	25.43
888.926	-5.29
889.097	-13.48
889.268	41.81
889.44	-93.35
889.611	19.29
889.782	4.95
889.953	7
890.125	74.58
890.296	-68.78
890.467	0.85
890.638	-25.77
890.809	-1.19
890.98	-33.96
891.151	0.85
891.323	27.48
891.494	-50.35
891.665	-60.59
891.836	115.54
892.007	7
892.178	37.72
892.349	-17.58
892.52	-48.3
892.691	-13.48
892.862	9.05
893.032	-42.15
893.203	-9.39
893.374	-11.43
893.545	-15.53
893.716	-27.82
893.887	-11.43
894.057	-38.06
894.228	9.05
894.399	-7.34
894.57	41.81
894.74	-3.24
894.911	72.53
895.082	-36.01
895.253	-3.24
895.423	-31.91
895.594	33.62
895.764	-3.24
895.935	-23.72
896.106	33.62
896.276	-36.01
896.447	-27.82
896.617	35.67
896.788	-46.25
896.958	-50.35
897.129	-76.97
897.299	-17.58
897.47	-52.39
897.64	-1.19
897.81	-60.59
897.981	-58.54
898.151	-68.78
898.322	0.85
898.492	-87.21
898.662	-27.82
898.832	-15.53
899.003	-15.53
899.173	41.81
899.343	-81.07
899.513	-74.92
