Data from USB4F104151__84__10-24-17-500.txt Node

Date: Wed Mar 12 10:24:17 EDT 2025
User: louis
Spectrometer: USB4F10415
Trigger mode: 4
Integration Time (sec): 3.000000E-2
Scans to average: 1
Electric dark correction enabled: true
Nonlinearity correction enabled: false
Boxcar width: 0
XAxis mode: Wavelengths
Number of Pixels in Spectrum: 3648
>>>>>Begin Spectral Data<<<<<
178.204	-41.13
178.424	-41.13
178.644	-41.13
178.864	-82.09
179.084	-77.99
179.304	-53.42
179.524	24.4
179.744	-67.75
179.964	12.12
180.184	-69.8
180.404	61.27
180.624	8.02
180.844	20.31
181.064	-14.51
181.283	48.98
181.503	16.21
181.723	14.17
181.943	-28.84
182.163	75.6
182.383	-4.27
182.602	36.69
182.822	1.88
183.042	55.12
183.262	22.36
183.482	59.22
183.701	28.5
183.921	-8.36
184.141	10.07
184.361	-16.55
184.58	67.41
184.8	-2.22
185.02	20.31
185.239	83.8
185.459	67.41
185.679	44.88
185.898	12.12
186.118	5.97
186.338	85.84
186.557	69.46
186.777	73.56
186.997	32.6
187.216	42.84
187.436	69.46
187.655	96.08
187.875	61.27
188.095	-2.22
188.314	102.23
188.534	98.13
188.753	55.12
188.973	59.22
189.192	94.04
189.412	12.12
189.631	44.88
189.851	77.65
190.07	8.02
190.29	55.12
190.509	94.04
190.729	20.31
190.948	40.79
191.168	173.91
191.387	89.94
191.607	59.22
191.826	44.88
192.045	-14.51
192.265	48.98
192.484	32.6
192.704	40.79
192.923	51.03
193.142	130.9
193.362	79.7
193.581	130.9
193.8	48.98
194.02	20.31
194.239	14.17
194.458	75.6
194.678	57.17
194.897	81.75
195.116	65.36
195.335	-6.31
195.555	59.22
195.774	32.6
195.993	57.17
196.212	69.46
196.432	12.12
196.651	48.98
196.87	-12.46
197.089	137.04
197.308	59.22
197.528	63.32
197.747	28.5
197.966	65.36
198.185	83.8
198.404	8.02
198.623	48.98
198.842	108.37
199.062	106.32
199.281	61.27
199.5	71.51
199.719	48.98
199.938	65.36
200.157	44.88
200.376	114.52
200.595	51.03
200.814	63.32
201.033	67.41
201.252	85.84
201.471	32.6
201.69	71.51
201.909	51.03
202.128	67.41
202.347	102.23
202.566	-14.51
202.785	26.45
203.004	34.64
203.223	67.41
203.442	94.04
203.661	3.93
203.879	65.36
204.098	110.42
204.317	28.5
204.536	-55.47
204.755	1.88
204.974	51.03
205.193	57.17
205.411	153.43
205.63	67.41
205.849	12.12
206.068	53.08
206.287	46.93
206.505	48.98
206.724	-18.6
206.943	53.08
207.162	3.93
207.381	44.88
207.599	10.07
207.818	91.99
208.037	20.31
208.255	57.17
208.474	8.02
208.693	75.6
208.911	36.69
209.13	69.46
209.349	53.08
209.567	61.27
209.786	94.04
210.005	87.89
210.223	102.23
210.442	-2.22
210.661	67.41
210.879	40.79
211.098	122.71
211.316	12.12
211.535	75.6
211.753	65.36
211.972	100.18
212.191	81.75
212.409	69.46
212.628	96.08
212.846	57.17
213.065	110.42
213.283	132.95
213.502	16.21
213.72	96.08
213.938	28.5
214.157	38.74
214.375	145.24
214.594	28.5
214.812	42.84
215.031	57.17
215.249	69.46
215.467	59.22
215.686	3.93
215.904	100.18
216.122	-20.65
216.341	42.84
216.559	65.36
216.778	30.55
216.996	75.6
217.214	28.5
217.432	79.7
217.651	34.64
217.869	77.65
218.087	114.52
218.306	51.03
218.524	-4.27
218.742	-47.27
218.96	139.09
219.179	63.32
219.397	-26.79
219.615	44.88
219.833	104.28
220.051	61.27
220.27	143.19
220.488	5.97
220.706	59.22
220.924	116.56
221.142	102.23
221.36	1.88
221.578	22.36
221.796	-0.17
222.015	46.93
222.233	32.6
222.451	122.71
222.669	71.51
222.887	16.21
223.105	65.36
223.323	-0.17
223.541	-28.84
223.759	81.75
223.977	81.75
224.195	118.61
224.413	94.04
224.631	-10.41
224.849	53.08
225.067	116.56
225.285	-20.65
225.503	-10.41
225.721	-49.32
225.939	10.07
226.157	63.32
226.375	153.43
226.592	51.03
226.81	102.23
227.028	75.6
227.246	77.65
227.464	81.75
227.682	65.36
227.9	102.23
228.117	44.88
228.335	51.03
228.553	83.8
228.771	32.6
228.989	137.04
229.206	42.84
229.424	10.07
229.642	18.26
229.86	38.74
230.077	-12.46
230.295	42.84
230.513	67.41
230.731	28.5
230.948	104.28
231.166	139.09
231.384	42.84
231.601	55.12
231.819	91.99
232.037	20.31
232.254	83.8
232.472	34.64
232.689	141.14
232.907	108.37
233.125	20.31
233.342	87.89
233.56	18.26
233.777	34.64
233.995	-51.37
234.213	40.79
234.43	69.46
234.648	1.88
234.865	24.4
235.083	-24.75
235.3	44.88
235.518	98.13
235.735	100.18
235.953	94.04
236.17	51.03
236.388	79.7
236.605	61.27
236.822	106.32
237.04	126.8
237.257	8.02
237.475	34.64
237.692	20.31
237.909	89.94
238.127	83.8
238.344	71.51
238.562	-12.46
238.779	16.21
238.996	-20.65
239.214	75.6
239.431	98.13
239.648	26.45
239.865	98.13
240.083	96.08
240.3	36.69
240.517	-16.55
240.735	120.66
240.952	143.19
241.169	98.13
241.386	44.88
241.603	81.75
241.821	20.31
242.038	61.27
242.255	81.75
242.472	106.32
242.689	36.69
242.907	122.71
243.124	36.69
243.341	102.23
243.558	51.03
243.775	38.74
243.992	-22.7
244.209	116.56
244.426	120.66
244.643	106.32
244.86	12.12
245.078	53.08
245.295	48.98
245.512	77.65
245.729	-73.9
245.946	55.12
246.163	12.12
246.38	34.64
246.597	135
246.814	89.94
247.031	89.94
247.248	8.02
247.464	81.75
247.681	77.65
247.898	24.4
248.115	112.47
248.332	10.07
248.549	167.76
248.766	147.28
248.983	67.41
249.2	81.75
249.417	61.27
249.633	12.12
249.85	71.51
250.067	10.07
250.284	34.64
250.501	69.46
250.717	67.41
250.934	48.98
251.151	3.93
251.368	18.26
251.585	116.56
251.801	59.22
252.018	14.17
252.235	128.85
252.451	20.31
252.668	59.22
252.885	94.04
253.102	30.55
253.318	8.02
253.535	85.84
253.752	36.69
253.968	3.93
254.185	96.08
254.401	36.69
254.618	16.21
254.835	24.4
255.051	57.17
255.268	22.36
255.484	75.6
255.701	46.93
255.917	18.26
256.134	48.98
256.351	57.17
256.567	10.07
256.784	102.23
257	57.17
257.217	30.55
257.433	40.79
257.65	67.41
257.866	59.22
258.082	61.27
258.299	-41.13
258.515	44.88
258.732	3.93
258.948	73.56
259.165	1.88
259.381	53.08
259.597	67.41
259.814	85.84
260.03	65.36
260.246	36.69
260.463	38.74
260.679	106.32
260.895	30.55
261.112	61.27
261.328	16.21
261.544	38.74
261.761	91.99
261.977	42.84
262.193	48.98
262.409	61.27
262.626	59.22
262.842	20.31
263.058	32.6
263.274	12.12
263.49	75.6
263.707	16.21
263.923	48.98
264.139	42.84
264.355	53.08
264.571	151.38
264.787	110.42
265.004	53.08
265.22	77.65
265.436	12.12
265.652	46.93
265.868	28.5
266.084	59.22
266.3	48.98
266.516	24.4
266.732	139.09
266.948	32.6
267.164	-8.36
267.38	110.42
267.596	34.64
267.812	83.8
268.028	155.47
268.244	26.45
268.46	85.84
268.676	59.22
268.892	71.51
269.108	-20.65
269.324	61.27
269.54	48.98
269.756	85.84
269.972	110.42
270.188	98.13
270.403	51.03
270.619	106.32
270.835	102.23
271.051	34.64
271.267	69.46
271.483	-6.31
271.698	98.13
271.914	65.36
272.13	20.31
272.346	65.36
272.562	69.46
272.777	102.23
272.993	57.17
273.209	42.84
273.425	114.52
273.64	-18.6
273.856	71.51
274.072	57.17
274.287	40.79
274.503	16.21
274.719	-6.31
274.934	65.36
275.15	53.08
275.366	28.5
275.581	10.07
275.797	67.41
276.012	77.65
276.228	73.56
276.444	65.36
276.659	26.45
276.875	3.93
277.09	77.65
277.306	-4.27
277.521	81.75
277.737	75.6
277.952	100.18
278.168	48.98
278.383	102.23
278.599	-16.55
278.814	75.6
279.03	75.6
279.245	143.19
279.461	112.47
279.676	44.88
279.892	42.84
280.107	110.42
280.322	16.21
280.538	32.6
280.753	-0.17
280.969	108.37
281.184	44.88
281.399	157.52
281.615	44.88
281.83	126.8
282.045	-18.6
282.26	40.79
282.476	130.9
282.691	10.07
282.906	108.37
283.122	100.18
283.337	-28.84
283.552	104.28
283.767	42.84
283.983	141.14
284.198	40.79
284.413	122.71
284.628	53.08
284.843	126.8
285.058	61.27
285.274	51.03
285.489	5.97
285.704	145.24
285.919	69.46
286.134	61.27
286.349	57.17
286.564	104.28
286.779	102.23
286.995	30.55
287.21	16.21
287.425	55.12
287.64	57.17
287.855	85.84
288.07	51.03
288.285	57.17
288.5	-2.22
288.715	100.18
288.93	10.07
289.145	44.88
289.36	171.86
289.575	-34.99
289.79	55.12
290.004	28.5
290.219	61.27
290.434	-4.27
290.649	40.79
290.864	94.04
291.079	20.31
291.294	85.84
291.509	34.64
291.724	18.26
291.938	59.22
292.153	38.74
292.368	51.03
292.583	53.08
292.798	100.18
293.012	89.94
293.227	85.84
293.442	48.98
293.657	94.04
293.871	135
294.086	102.23
294.301	124.76
294.516	59.22
294.73	143.19
294.945	-8.36
295.16	32.6
295.374	51.03
295.589	81.75
295.804	-2.22
296.018	53.08
296.233	89.94
296.447	126.8
296.662	12.12
296.877	57.17
297.091	75.6
297.306	53.08
297.52	42.84
297.735	69.46
297.949	3.93
298.164	85.84
298.378	24.4
298.593	34.64
298.807	10.07
299.022	42.84
299.236	153.43
299.451	94.04
299.665	57.17
299.88	-0.17
300.094	12.12
300.309	71.51
300.523	40.79
300.737	57.17
300.952	22.36
301.166	75.6
301.381	42.84
301.595	53.08
301.809	118.61
302.024	79.7
302.238	83.8
302.452	98.13
302.667	48.98
302.881	75.6
303.095	22.36
303.309	81.75
303.524	-4.27
303.738	12.12
303.952	69.46
304.166	16.21
304.381	-0.17
304.595	110.42
304.809	42.84
305.023	8.02
305.237	3.93
305.452	38.74
305.666	98.13
305.88	135
306.094	38.74
306.308	69.46
306.522	44.88
306.736	14.17
306.95	61.27
307.164	89.94
307.379	102.23
307.593	96.08
307.807	32.6
308.021	63.32
308.235	3.93
308.449	53.08
308.663	38.74
308.877	188.24
309.091	96.08
309.305	83.8
309.519	28.5
309.733	89.94
309.947	53.08
310.161	89.94
310.374	40.79
310.588	55.12
310.802	46.93
311.016	75.6
311.23	67.41
311.444	59.22
311.658	38.74
311.872	63.32
312.085	40.79
312.299	73.56
312.513	26.45
312.727	57.17
312.941	57.17
313.154	83.8
313.368	69.46
313.582	1.88
313.796	89.94
314.009	-4.27
314.223	94.04
314.437	16.21
314.651	73.56
314.864	141.14
315.078	20.31
315.292	65.36
315.505	48.98
315.719	85.84
315.933	53.08
316.146	36.69
316.36	26.45
316.573	98.13
316.787	12.12
317.001	32.6
317.214	28.5
317.428	126.8
317.641	96.08
317.855	48.98
318.068	89.94
318.282	116.56
318.495	-24.75
318.709	75.6
318.922	71.51
319.136	83.8
319.349	91.99
319.563	69.46
319.776	61.27
319.99	16.21
320.203	71.51
320.417	79.7
320.63	-4.27
320.843	145.24
321.057	48.98
321.27	94.04
321.483	10.07
321.697	153.43
321.91	69.46
322.124	79.7
322.337	42.84
322.55	44.88
322.763	65.36
322.977	40.79
323.19	110.42
323.403	85.84
323.617	46.93
323.83	112.47
324.043	40.79
324.256	-16.55
324.469	12.12
324.683	79.7
324.896	46.93
325.109	-6.31
325.322	10.07
325.535	120.66
325.748	44.88
325.962	-12.46
326.175	36.69
326.388	89.94
326.601	59.22
326.814	102.23
327.027	63.32
327.24	81.75
327.453	40.79
327.666	116.56
327.879	98.13
328.092	87.89
328.305	48.98
328.518	14.17
328.731	-14.51
328.944	14.17
329.157	126.8
329.37	153.43
329.583	126.8
329.796	71.51
330.009	69.46
330.222	32.6
330.435	42.84
330.648	5.97
330.861	85.84
331.073	59.22
331.286	67.41
331.499	-10.41
331.712	57.17
331.925	51.03
332.138	69.46
332.35	59.22
332.563	12.12
332.776	91.99
332.989	116.56
333.202	104.28
333.414	122.71
333.627	77.65
333.84	40.79
334.053	139.09
334.265	124.76
334.478	122.71
334.691	44.88
334.903	89.94
335.116	81.75
335.329	110.42
335.541	65.36
335.754	53.08
335.966	24.4
336.179	40.79
336.392	-30.89
336.604	16.21
336.817	57.17
337.029	63.32
337.242	-6.31
337.454	106.32
337.667	10.07
337.88	57.17
338.092	126.8
338.305	24.4
338.517	87.89
338.729	59.22
338.942	77.65
339.154	34.64
339.367	120.66
339.579	42.84
339.792	87.89
340.004	51.03
340.217	40.79
340.429	28.5
340.641	110.42
340.854	89.94
341.066	98.13
341.278	69.46
341.491	96.08
341.703	63.32
341.915	63.32
342.128	106.32
342.34	61.27
342.552	-2.22
342.764	40.79
342.977	100.18
343.189	67.41
343.401	28.5
343.613	36.69
343.826	75.6
344.038	34.64
344.25	98.13
344.462	102.23
344.674	102.23
344.886	161.62
345.099	26.45
345.311	67.41
345.523	108.37
345.735	8.02
345.947	69.46
346.159	34.64
346.371	53.08
346.583	63.32
346.795	110.42
347.007	137.04
347.219	55.12
347.431	114.52
347.643	151.38
347.855	36.69
348.067	169.81
348.279	104.28
348.491	34.64
348.703	83.8
348.915	36.69
349.127	67.41
349.339	69.46
349.551	8.02
349.763	83.8
349.975	110.42
350.187	71.51
350.399	122.71
350.61	-6.31
350.822	63.32
351.034	-39.08
351.246	55.12
351.458	55.12
351.669	63.32
351.881	44.88
352.093	-14.51
352.305	108.37
352.517	79.7
352.728	96.08
352.94	40.79
353.152	87.89
353.363	91.99
353.575	65.36
353.787	-0.17
353.999	122.71
354.21	71.51
354.422	46.93
354.633	79.7
354.845	110.42
355.057	126.8
355.268	75.6
355.48	42.84
355.692	16.21
355.903	48.98
356.115	118.61
356.326	-12.46
356.538	61.27
356.749	108.37
356.961	141.14
357.172	42.84
357.384	77.65
357.595	114.52
357.807	32.6
358.018	48.98
358.23	85.84
358.441	32.6
358.653	83.8
358.864	104.28
359.075	28.5
359.287	5.97
359.498	96.08
359.709	10.07
359.921	59.22
360.132	141.14
360.344	98.13
360.555	77.65
360.766	137.04
360.977	83.8
361.189	94.04
361.4	94.04
361.611	110.42
361.823	96.08
362.034	79.7
362.245	51.03
362.456	-53.42
362.667	114.52
362.879	10.07
363.09	106.32
363.301	114.52
363.512	-32.94
363.723	12.12
363.935	18.26
364.146	118.61
364.357	81.75
364.568	65.36
364.779	94.04
364.99	71.51
365.201	108.37
365.412	94.04
365.623	-12.46
365.834	110.42
366.045	69.46
366.256	40.79
366.467	91.99
366.678	67.41
366.889	102.23
367.1	73.56
367.311	122.71
367.522	44.88
367.733	48.98
367.944	128.85
368.155	77.65
368.366	118.61
368.577	106.32
368.788	22.36
368.999	-32.94
369.209	159.57
369.42	161.62
369.631	100.18
369.842	42.84
370.053	71.51
370.264	159.57
370.474	44.88
370.685	-4.27
370.896	77.65
371.107	116.56
371.317	120.66
371.528	106.32
371.739	67.41
371.95	147.28
372.16	122.71
372.371	26.45
372.582	77.65
372.792	102.23
373.003	83.8
373.214	20.31
373.424	69.46
373.635	96.08
373.846	77.65
374.056	163.67
374.267	102.23
374.477	51.03
374.688	59.22
374.898	128.85
375.109	141.14
375.319	61.27
375.53	135
375.74	85.84
375.951	46.93
376.161	53.08
376.372	53.08
376.582	51.03
376.793	-22.7
377.003	75.6
377.214	40.79
377.424	40.79
377.635	106.32
377.845	26.45
378.055	98.13
378.266	8.02
378.476	36.69
378.686	75.6
378.897	42.84
379.107	155.47
379.317	120.66
379.528	51.03
379.738	75.6
379.948	-0.17
380.158	108.37
380.369	108.37
380.579	36.69
380.789	42.84
380.999	51.03
381.21	163.67
381.42	91.99
381.63	69.46
381.84	110.42
382.05	73.56
382.261	40.79
382.471	91.99
382.681	67.41
382.891	48.98
383.101	96.08
383.311	28.5
383.521	10.07
383.731	59.22
383.941	135
384.151	53.08
384.361	57.17
384.571	108.37
384.781	32.6
384.991	171.86
385.201	122.71
385.411	40.79
385.621	75.6
385.831	20.31
386.041	100.18
386.251	67.41
386.461	91.99
386.671	51.03
386.881	44.88
387.091	106.32
387.301	120.66
387.511	55.12
387.72	89.94
387.93	61.27
388.14	91.99
388.35	100.18
388.56	102.23
388.769	36.69
388.979	124.76
389.189	63.32
389.399	44.88
389.609	126.8
389.818	75.6
390.028	94.04
390.238	24.4
390.447	96.08
390.657	98.13
390.867	126.8
391.076	116.56
391.286	75.6
391.496	40.79
391.705	65.36
391.915	81.75
392.125	63.32
392.334	83.8
392.544	96.08
392.753	161.62
392.963	91.99
393.172	139.09
393.382	102.23
393.591	77.65
393.801	135
394.01	163.67
394.22	65.36
394.429	110.42
394.639	67.41
394.848	83.8
395.058	116.56
395.267	75.6
395.477	110.42
395.686	98.13
395.895	122.71
396.105	98.13
396.314	98.13
396.524	122.71
396.733	196.43
396.942	98.13
397.152	87.89
397.361	165.71
397.57	139.09
397.78	116.56
397.989	124.76
398.198	135
398.407	108.37
398.617	135
398.826	141.14
399.035	163.67
399.244	163.67
399.453	190.29
399.663	141.14
399.872	233.3
400.081	118.61
400.29	188.24
400.499	100.18
400.708	151.38
400.917	120.66
401.127	128.85
401.336	126.8
401.545	143.19
401.754	157.52
401.963	210.77
402.172	110.42
402.381	100.18
402.59	151.38
402.799	137.04
403.008	173.91
403.217	130.9
403.426	180.05
403.635	147.28
403.844	145.24
404.053	135
404.262	169.81
404.471	214.87
404.68	221.01
404.888	200.53
405.097	165.71
405.306	218.96
405.515	100.18
405.724	161.62
405.933	214.87
406.142	266.07
406.35	184.15
406.559	276.31
406.768	245.59
406.977	304.98
407.185	223.06
407.394	237.39
407.603	251.73
407.812	239.44
408.02	266.07
408.229	280.4
408.438	270.16
408.646	280.4
408.855	321.36
409.064	249.68
409.272	307.02
409.481	311.12
409.69	245.59
409.898	311.12
410.107	378.7
410.315	468.81
410.524	290.64
410.733	460.62
410.941	393.04
411.15	462.67
411.358	466.77
411.567	454.48
411.775	450.38
411.984	575.31
412.192	515.92
412.401	513.87
412.609	513.87
412.818	560.97
413.026	677.71
413.234	646.99
413.443	622.41
413.651	593.74
413.86	616.27
414.068	659.28
414.276	773.96
414.485	649.04
414.693	675.66
414.901	761.67
415.11	839.5
415.318	749.39
415.526	841.54
415.734	849.74
415.943	902.98
416.151	935.75
416.359	872.26
416.567	956.23
416.776	1062.73
416.984	1068.87
417.192	1099.59
417.4	1132.36
417.608	1109.83
417.817	1224.51
418.025	1220.42
418.233	1273.67
418.441	1318.72
418.649	1394.5
418.857	1484.61
419.065	1445.7
419.273	1519.42
419.481	1591.1
419.689	1623.87
419.897	1630.01
420.105	1576.77
420.313	1726.27
420.521	1777.47
420.729	1765.18
420.937	1910.58
421.145	1929.02
421.353	1984.31
421.561	2185.01
421.769	2154.29
421.977	2301.75
422.185	2232.12
422.393	2344.75
422.601	2561.84
422.809	2574.13
423.017	2582.32
423.224	2533.17
423.432	2674.48
423.64	2654
423.848	3028.78
424.056	2879.27
424.263	3174.18
424.471	3266.34
424.679	3157.8
424.887	3454.75
425.094	3487.52
425.302	3587.87
425.51	3700.51
425.718	3747.61
425.925	3774.24
426.133	3862.3
426.341	4218.64
426.548	4306.71
426.756	4374.29
426.964	4319
427.171	4615.95
427.379	4777.74
427.586	4990.73
427.794	4996.87
428.001	5244.68
428.209	5377.8
428.417	5328.64
428.624	5635.84
428.832	5680.89
429.039	5672.7
429.247	5836.54
429.454	6291.19
429.662	6596.34
429.869	6260.47
430.076	6469.36
430.284	6495.99
430.491	6942.44
430.699	7102.18
430.906	7194.34
431.114	7141.1
431.321	7335.65
431.528	7665.38
431.736	7937.76
431.943	8341.21
432.15	8429.27
432.358	8275.67
432.565	8715.98
432.772	8728.27
432.979	9164.49
433.187	9250.5
433.394	9459.4
433.601	9903.81
433.808	9889.47
434.016	9918.14
434.223	10299.06
434.43	10800.82
434.637	10596.02
434.844	11318.95
435.052	11654.82
435.259	11499.17
435.466	11783.84
435.673	11675.3
435.88	12453.53
436.087	12940.94
436.294	12826.26
436.501	12539.54
436.708	13008.53
436.915	13422.22
437.122	13895.3
437.329	13854.34
437.537	14505.59
437.743	14452.34
437.95	14329.47
438.157	15058.54
438.364	15767.14
438.571	15793.76
438.778	16215.65
438.985	17227.34
439.192	16547.42
439.399	17092.18
439.606	16604.76
439.813	17624.65
440.02	18771.51
440.227	18200.13
440.433	18255.42
440.64	18865.72
440.847	18409.02
441.054	19346.99
441.261	20610.59
441.467	20278.82
441.674	20583.96
441.881	21155.35
442.088	21124.63
442.294	21055
442.501	21605.9
442.708	21997.06
442.914	23057.91
443.121	23858.67
443.328	22978.04
443.534	24864.22
443.741	24280.55
443.948	23848.43
444.154	25630.16
444.361	25247.19
444.568	25683.41
444.774	25402.83
444.981	25589.2
445.187	26234.31
445.394	27841.96
445.6	27458.99
445.807	29865.36
446.013	28601.76
446.22	29132.18
446.426	30217.61
446.633	30549.38
446.839	31335.8
447.046	30170.5
447.252	31595.89
447.459	31817.07
447.665	31495.54
447.871	33097.05
448.078	34493.77
448.284	32509.29
448.491	33609.04
448.697	34852.16
448.903	35523.9
449.11	35603.77
449.316	34983.23
449.522	35626.29
449.728	36445.48
449.935	36523.3
450.141	36640.04
450.347	37532.95
450.553	36386.09
450.76	36920.61
450.966	37989.65
451.172	37252.38
451.378	38456.59
451.584	37598.49
451.791	38556.94
451.997	38116.62
452.203	39101.7
452.409	38905.09
452.615	38913.28
452.821	37184.8
453.027	36949.28
453.233	38769.93
453.44	36992.29
453.646	37602.58
453.852	37637.4
454.058	38407.44
454.264	37176.61
454.47	38008.08
454.676	36943.14
454.882	37846.29
455.088	34846.02
455.294	35249.47
455.5	35657.01
455.705	36365.61
455.911	34622.79
456.117	34059.6
456.323	33596.76
456.529	31651.19
456.735	32990.56
456.941	32019.82
457.147	31563.12
457.352	30891.39
457.558	30311.81
457.764	30530.95
457.97	29506.96
458.176	29173.14
458.381	29017.5
458.587	27534.77
458.793	27579.82
458.999	26215.88
459.204	28472.74
459.41	27348.4
459.616	25636.3
459.821	25834.96
460.027	25402.83
460.233	25148.89
460.438	23950.82
460.644	24108.52
460.85	23047.67
461.055	22609.4
461.261	22539.77
461.466	21100.05
461.672	20323.87
461.878	21517.84
462.083	20104.74
462.289	19793.45
462.494	19551.79
462.7	18705.98
462.905	18486.84
463.111	19011.12
463.316	19138.1
463.522	18697.78
463.727	18697.78
463.932	18593.34
464.138	18257.47
464.343	18497.08
464.549	17935.94
464.754	18906.68
464.959	18767.41
465.165	18239.04
465.37	17448.52
465.575	17112.66
465.781	18056.77
465.986	17888.84
466.191	17219.15
466.397	16866.9
466.602	16229.98
466.807	16848.47
467.012	16709.21
467.218	16504.41
467.423	16340.57
467.628	16322.14
467.833	17294.93
468.038	16383.58
468.244	15865.44
468.449	16709.21
468.654	16240.22
468.859	15996.51
469.064	16004.71
469.269	15396.46
469.474	15484.52
469.679	15812.2
469.885	15287.92
470.09	15666.79
470.295	15322.73
470.5	14917.23
470.705	15304.3
470.91	14444.15
471.115	14720.63
471.32	14902.9
471.525	14651
471.73	14409.34
471.935	14438.01
472.139	13880.96
472.344	14139.01
472.549	14020.22
472.754	13655.68
472.959	13502.09
473.164	13162.12
473.369	13125.26
473.574	13373.07
473.778	13299.34
473.983	13342.35
474.188	13297.29
474.393	12592.79
474.598	12916.37
474.802	12566.17
475.007	12482.2
475.212	12697.24
475.417	12115.61
475.621	12082.84
475.826	11912.86
476.031	11710.11
476.235	11734.69
476.44	11681.44
476.645	11425.45
476.849	11677.35
477.054	11331.24
477.259	11505.32
477.463	11282.09
477.668	11036.33
477.872	11060.91
478.077	10868.4
478.282	10702.51
478.486	10530.48
478.691	10581.68
478.895	10497.72
479.1	10309.3
479.304	10555.06
479.509	10235.58
479.713	10421.94
479.918	10041.02
480.122	10116.79
480.326	10104.51
480.531	10006.2
480.735	10145.47
480.94	9858.75
481.144	10206.91
481.348	9748.16
481.553	10051.26
481.757	9688.77
481.961	9858.75
482.166	9844.42
482.37	10012.35
482.574	9547.46
482.778	9690.82
482.983	9692.87
483.187	9672.39
483.391	9760.45
483.595	9625.28
483.8	9547.46
484.004	9750.21
484.208	9809.6
484.412	9674.43
484.616	9754.3
484.821	9885.37
485.025	9443.01
485.229	9690.82
485.433	9531.08
485.637	9840.32
485.841	9569.99
486.045	9600.71
486.249	9699.01
486.453	9567.94
486.657	9866.94
486.861	9780.93
487.065	9440.97
487.269	9664.19
487.473	9600.71
487.677	9596.61
487.881	9776.83
488.085	9688.77
488.289	9703.11
488.493	9772.74
488.697	9821.89
488.901	9889.47
489.105	9510.6
489.309	9821.89
489.512	9858.75
489.716	9629.38
489.92	9631.43
490.124	9770.69
490.328	9834.18
490.531	9825.98
490.735	10002.11
490.939	10043.07
491.143	9930.43
491.346	9969.34
491.55	10163.9
491.754	10045.12
491.958	10217.15
492.161	10217.15
492.365	10362.55
492.569	10028.73
492.772	10247.86
492.976	10221.24
493.18	10337.98
493.383	10471.09
493.587	10497.72
493.79	10501.81
493.994	10493.62
494.197	10632.88
494.401	10843.82
494.605	10800.82
494.808	11056.81
495.012	10993.33
495.215	11079.34
495.419	11241.13
495.622	11194.03
495.825	11128.49
496.029	11370.15
496.232	11470.5
496.436	11525.8
496.639	11673.25
496.843	11568.8
497.046	11968.16
497.249	12084.89
497.453	12177.05
497.656	12351.13
497.859	12236.44
498.063	12650.13
498.266	12553.88
498.469	12527.25
498.673	12838.55
498.876	12832.4
499.079	13053.58
499.282	12951.18
499.485	13493.9
499.689	13422.22
499.892	13581.96
500.095	13692.55
500.298	13909.63
500.501	13944.45
500.705	14194.3
500.908	14251.64
501.111	14495.35
501.314	14483.06
501.517	14841.46
501.72	15203.95
501.923	14843.51
502.126	15322.73
502.329	15545.96
502.532	15652.45
502.735	15842.92
502.938	16279.13
503.141	16105.06
503.344	16436.83
503.547	16186.97
503.75	16367.2
503.953	16871
504.156	17006.16
504.359	17106.51
504.562	17094.22
504.765	17931.84
504.968	18007.62
505.17	17935.94
505.373	17876.55
505.576	18245.18
505.779	18533.95
505.982	18677.3
506.185	19070.51
506.387	19158.58
506.59	19318.32
506.793	19707.43
506.996	19424.81
507.198	20196.9
507.401	19736.1
507.604	20100.64
507.807	20680.22
508.009	20749.85
508.212	20792.86
508.415	20981.27
508.617	21073.43
508.82	21720.59
509.022	21515.79
509.225	21855.75
509.428	22066.69
509.63	22400.51
509.833	22343.17
510.035	23346.67
510.238	22906.36
510.44	23094.77
510.643	23260.66
510.845	23602.67
511.048	23836.14
511.25	24135.14
511.453	24227.3
511.655	25026.01
511.858	25093.59
512.06	24960.47
512.262	25411.03
512.465	25118.17
512.667	25961.93
512.87	25816.52
513.072	25695.69
513.274	26576.32
513.477	26734.01
513.679	27239.86
513.881	27116.98
514.084	27422.13
514.286	27583.92
514.488	27995.56
514.69	28497.31
514.893	28554.66
515.095	28657.06
515.297	29029.79
515.499	29044.12
515.701	29853.07
515.904	29863.31
516.106	29799.82
516.308	30567.81
516.51	30893.44
516.712	30541.19
516.914	30832
517.116	31042.94
517.318	31591.8
517.52	31966.57
517.722	31944.05
517.925	32597.35
518.127	32601.44
518.329	33045.85
518.531	32679.27
518.733	33437.02
518.935	33914.19
519.136	33903.95
519.338	34200.91
519.54	34125.13
519.742	35005.76
519.944	35198.27
520.146	35710.26
520.348	35579.19
520.55	35853.62
520.752	36324.65
520.954	36814.12
521.155	36074.8
521.357	37129.5
521.559	37444.89
521.761	37549.34
521.963	37881.11
522.164	37795.09
522.366	38137.1
522.568	38558.98
522.77	38401.29
522.971	39212.29
523.173	38878.47
523.375	39574.78
523.576	39496.95
523.778	39431.42
523.98	40185.07
524.181	40408.3
524.383	40471.79
524.584	41153.76
524.786	40785.13
524.988	40396.01
525.189	41493.72
525.391	41805.02
525.592	41802.97
525.794	42032.34
525.995	41731.29
526.197	42147.03
526.398	42384.59
526.6	42806.47
526.801	42740.94
527.003	43195.59
527.204	43220.16
527.406	43351.23
527.607	43371.71
527.808	43506.88
528.01	43144.39
528.211	43504.83
528.412	44383.41
528.614	44231.86
528.815	44356.78
529.016	44455.09
529.218	44489.9
529.419	44547.25
529.62	44471.47
529.822	44979.37
530.023	44946.6
530.224	45020.33
530.425	44782.76
530.626	44647.6
530.828	45382.82
531.029	45943.96
531.23	45331.62
531.431	45610.14
531.632	45503.65
531.833	45610.14
532.035	45573.28
532.236	45429.92
532.437	45413.54
532.638	45724.83
532.839	46204.05
533.04	46027.93
533.241	45575.33
533.442	46830.73
533.643	46126.23
533.844	45917.34
534.045	46593.17
534.246	45806.75
534.447	46144.66
534.648	46085.27
534.849	46693.52
535.05	46091.41
535.251	46290.07
535.451	46646.41
535.652	46523.54
535.853	46275.73
536.054	46429.33
536.255	46630.03
536.456	45782.17
536.657	47199.37
536.857	46070.93
537.058	46167.19
537.259	47133.83
537.46	46367.89
537.66	46996.62
537.861	46490.77
538.062	46070.93
538.263	46572.69
538.463	46533.78
538.664	46724.24
538.865	46576.78
539.065	46840.97
539.266	46558.35
539.466	46582.93
539.667	46265.49
539.868	46980.23
540.068	46601.36
540.269	46587.02
540.469	47047.82
540.67	46462.1
540.87	46433.42
541.071	46060.69
541.271	46576.78
541.472	46675.09
541.672	46318.74
541.873	46109.85
542.073	45687.96
542.274	46994.57
542.474	46724.24
542.675	46560.4
542.875	46691.47
543.075	46423.18
543.276	46134.42
543.476	46724.24
543.676	46126.23
543.877	46720.14
544.077	46193.81
544.277	46503.06
544.478	46230.68
544.678	46632.08
544.878	46068.89
545.078	46380.18
545.279	46537.87
545.479	46015.64
545.679	46912.65
545.879	46683.28
546.079	46568.59
546.28	46376.08
546.48	45814.94
546.68	46513.3
546.88	46638.22
547.08	46316.69
547.28	46691.47
547.48	46085.27
547.68	46613.65
547.88	46044.31
548.081	46654.61
548.281	46445.71
548.481	46228.63
548.681	46437.52
548.881	46335.12
549.081	46306.45
549.28	46296.21
549.48	46740.62
549.68	46159
549.88	46568.59
550.08	45819.03
550.28	46380.18
550.48	46122.13
550.68	46711.95
550.88	46193.81
551.08	46558.35
551.279	46167.19
551.479	45962.39
551.679	46374.03
551.879	46093.46
552.079	46056.6
552.278	46115.99
552.478	46109.85
552.678	46107.8
552.878	46494.86
553.077	45905.05
553.277	45683.87
553.477	46337.17
553.676	45806.75
553.876	45790.36
554.076	45849.75
554.275	45888.67
554.475	45511.84
554.674	45855.9
554.874	45597.85
555.074	45624.48
555.273	45640.86
555.473	45751.45
555.672	45698.2
555.872	45610.14
556.071	45474.98
556.271	45497.5
556.47	45208.74
556.67	45190.31
556.869	45257.89
557.068	45859.99
557.268	45462.69
557.467	45247.65
557.667	45137.06
557.866	45223.08
558.065	45218.98
558.265	44924.07
558.464	44805.29
558.663	45249.7
558.863	44553.39
559.062	44997.8
559.261	44594.35
559.461	45251.75
559.66	44561.58
559.859	44514.48
560.058	44258.48
560.258	44811.43
560.457	43881.66
560.656	44565.68
560.855	44145.84
561.054	44467.37
561.253	43826.36
561.453	43865.27
561.652	44145.84
561.851	43891.9
562.05	43549.88
562.249	43726.01
562.448	44291.25
562.647	43828.41
562.846	43615.42
563.045	43556.03
563.244	43293.89
563.443	44004.53
563.642	43181.25
563.841	43312.32
564.04	43322.56
564.239	43160.77
564.438	42771.66
564.637	42863.82
564.836	42736.84
565.035	42558.67
565.234	42640.59
565.432	42513.61
565.631	42130.64
565.83	42400.97
566.029	42325.2
566.228	41897.17
566.427	42052.82
566.625	42230.99
566.824	41583.83
567.023	42116.31
567.222	41172.19
567.42	41995.48
567.619	41483.48
567.818	41682.14
568.016	41190.62
568.215	41610.46
568.414	41215.2
568.612	41391.33
568.811	40865
569.01	40846.57
569.208	40660.2
569.407	41245.92
569.605	40228.08
569.804	41010.4
570.002	40248.56
570.201	40473.84
570.4	39888.12
570.598	40051.95
570.797	39804.15
570.995	40076.53
571.193	39738.61
571.392	40144.11
571.59	39625.98
571.789	39202.05
571.987	39357.69
572.186	39245.05
572.384	38872.32
572.582	39347.45
572.781	39322.88
572.979	39066.88
573.177	38909.19
573.376	39259.39
573.574	38585.61
573.772	39062.79
573.971	38597.9
574.169	38327.56
574.367	38266.13
574.565	38409.48
574.763	37590.3
574.962	37958.93
575.16	37905.68
575.358	37541.14
575.556	37281.05
575.754	37676.31
575.952	37039.39
576.151	37821.72
576.349	37195.04
576.547	37326.11
576.745	37143.84
576.943	37217.57
577.141	36853.03
577.339	37444.89
577.537	36697.38
577.735	36830.5
577.933	36420.91
578.131	36719.91
578.329	36275.5
578.527	36463.91
578.725	36443.43
578.923	36554.02
579.121	35843.38
579.319	35790.13
579.516	36107.57
579.714	36209.96
579.912	35812.66
580.11	35550.52
580.308	35665.21
580.506	35149.12
580.704	34993.47
580.901	35208.51
581.099	35435.83
581.297	34927.94
581.495	34952.51
581.692	34825.54
581.89	34526.53
582.088	34846.02
582.285	34313.55
582.483	34678.08
582.681	34217.29
582.878	34354.51
583.076	33981.77
583.274	34116.94
583.471	33787.22
583.669	34295.11
583.866	33994.06
584.064	33887.57
584.262	33426.78
584.459	34059.6
584.657	33432.92
584.854	33899.86
585.052	33240.41
585.249	33166.68
585.447	33455.45
585.644	33039.71
585.841	33015.13
586.039	33320.28
586.236	32781.67
586.434	32583.01
586.631	32357.74
586.828	32617.83
587.026	32421.22
587.223	32372.07
587.42	32124.27
587.618	32290.15
587.815	31890.8
588.012	32003.44
588.21	32232.81
588.407	32042.35
588.604	31872.37
588.801	31405.43
588.999	31313.27
589.196	31370.61
589.393	31673.71
589.59	31133.05
589.787	30922.11
589.984	30973.31
590.182	30811.52
590.379	30827.9
590.576	30696.83
590.773	30565.76
590.97	30424.45
591.167	30479.75
591.364	30336.39
591.561	30541.19
591.758	30143.88
591.955	30016.91
592.152	30367.11
592.349	29799.82
592.546	30111.11
592.743	29832.59
592.94	29543.83
593.137	29724.05
593.334	30053.77
593.531	29095.32
593.727	29760.91
593.924	29355.41
594.121	29126.04
594.318	29167
594.515	28693.92
594.712	29441.43
594.908	28831.13
595.105	28695.97
595.302	28530.08
595.499	28558.75
595.696	28462.5
595.892	28710.3
596.089	28763.55
596.286	28265.89
596.482	28188.07
596.679	28290.47
596.876	28159.4
597.072	27796.91
597.269	27983.27
597.466	27786.67
597.662	27590.06
597.859	27661.74
598.055	27729.33
598.252	27440.56
598.448	27600.3
598.645	27364.79
598.841	26992.06
599.038	26983.87
599.234	27469.23
599.431	26807.74
599.627	26963.39
599.824	27063.74
600.02	26344.9
600.217	26807.74
600.413	26688.96
600.609	26404.29
600.806	26265.03
601.002	26555.84
601.198	26322.37
601.395	26322.37
601.591	26152.39
601.787	25970.12
601.984	25746.89
602.18	26445.25
602.376	25746.89
602.572	25542.1
602.769	25859.53
602.965	25421.27
603.161	25691.6
603.357	25251.28
603.553	25050.58
603.75	25118.17
603.946	25112.02
604.142	25388.5
604.338	24786.4
604.534	24712.67
604.73	24452.58
604.926	24700.38
605.122	24692.19
605.318	24536.54
605.514	24335.84
605.71	24380.9
605.906	24483.3
606.102	24225.25
606.298	24286.69
606.494	24296.93
606.69	24018.41
606.886	24036.84
607.082	23598.57
607.278	24006.12
607.474	23520.75
607.67	23731.69
607.866	23371.25
608.062	23580.14
608.257	23098.87
608.453	23606.77
608.649	23549.42
608.845	23260.66
609.041	23213.56
609.236	23326.19
609.432	23455.22
609.628	23457.26
609.824	22930.94
610.019	23248.37
610.215	22849.02
610.411	22806.01
610.606	22795.77
610.802	22898.17
610.998	22973.94
611.193	22734.33
611.389	23070.2
611.584	22767.1
611.78	22222.34
611.976	22511.1
612.171	22703.61
612.367	22447.61
612.562	22205.95
612.758	22359.55
612.953	22152.71
613.149	22291.97
613.344	22050.31
613.539	22584.83
613.735	22025.73
613.93	22031.88
614.126	21753.35
614.321	22074.88
614.517	22074.88
614.712	21859.85
614.907	21468.69
615.103	21999.11
615.298	21683.72
615.493	22115.84
615.688	21693.96
615.884	22130.18
616.079	21446.16
616.274	21739.02
616.47	21913.09
616.665	21409.29
616.86	21286.42
617.055	21394.96
617.25	21323.28
617.445	21583.37
617.641	20987.41
617.836	21349.9
618.031	20608.54
618.226	21173.78
618.421	20766.23
618.616	21059.09
618.811	20600.35
619.006	21036.56
619.201	20739.61
619.396	20655.64
619.591	20078.11
619.786	20538.91
619.981	20264.48
620.176	20368.93
620.371	19779.11
620.566	20155.94
620.761	19914.28
620.956	19926.57
621.151	19830.31
621.346	20059.68
621.541	19779.11
621.735	19711.53
621.93	19285.55
622.125	19428.91
622.32	19390
622.515	19332.65
622.709	18871.86
622.904	19160.62
623.099	18677.3
623.294	19105.33
623.488	18585.15
623.683	18593.34
623.878	18470.46
624.072	18650.68
624.267	18460.22
624.462	18359.87
624.656	18083.39
624.851	18103.87
625.046	17786.44
625.24	18105.92
625.435	17575.5
625.629	17512.01
625.824	17665.61
626.018	17428.04
626.213	17092.18
626.407	17331.79
626.602	17094.22
626.796	17043.03
626.991	16916.05
627.185	16858.71
627.38	16957.01
627.574	16647.77
627.768	16567.9
627.963	16557.66
628.157	16428.63
628.352	16578.14
628.546	16211.55
628.74	16541.27
628.935	16182.88
629.129	16201.31
629.323	15836.77
629.517	15801.96
629.712	15474.28
629.906	15740.52
630.1	15363.69
630.294	15527.53
630.489	15332.97
630.683	15410.79
630.877	14857.84
631.071	15083.12
631.265	15066.74
631.459	14995.06
631.653	14888.56
631.848	14868.08
632.042	14669.43
632.236	14968.43
632.43	14618.23
632.624	14564.98
632.818	14493.3
633.012	14313.08
633.206	14280.32
633.4	14270.08
633.594	14071.42
633.788	14218.88
633.982	14055.04
634.176	14134.91
634.369	13893.25
634.563	13936.26
634.757	13727.36
634.951	13543.05
635.145	13831.81
635.339	13850.24
635.533	13258.38
635.726	13272.71
635.92	13047.44
636.114	13170.32
636.308	13352.59
636.501	13061.77
636.695	13000.33
636.889	13004.43
637.083	12936.85
637.276	12924.56
637.47	12836.5
637.664	12508.82
637.857	12705.43
638.051	12492.44
638.244	12183.2
638.438	12478.1
638.632	12357.27
638.825	12224.15
639.019	12244.63
639.212	12109.47
639.406	11996.83
639.599	12054.17
639.793	12056.22
639.986	11863.71
640.18	11892.38
640.373	11822.75
640.567	11589.28
640.76	11654.82
640.954	11490.98
641.147	11564.71
641.34	11470.5
641.534	11386.54
641.727	11101.87
641.92	11417.26
642.114	11175.59
642.307	11234.99
642.5	10987.18
642.694	11022
642.887	10909.36
643.08	10987.18
643.273	11013.81
643.467	10811.06
643.66	10643.12
643.853	10706.61
644.046	10401.46
644.239	10606.26
644.432	10546.87
644.626	10342.07
644.819	10358.46
645.012	10356.41
645.205	10266.3
645.398	10184.38
645.591	10135.23
645.784	10030.78
645.977	9850.56
646.17	9998.01
646.363	9895.61
646.556	9631.43
646.749	9795.26
646.942	9645.76
647.135	9701.06
647.328	9830.08
647.521	9408.2
647.714	9522.88
647.907	9490.12
648.099	9416.39
648.292	9451.21
648.485	9283.27
648.678	9275.08
648.871	9236.17
649.064	9481.92
649.256	9459.4
649.449	9098.95
649.642	9203.4
649.835	8996.56
650.027	8965.84
650.22	8914.64
650.413	8896.21
650.605	8908.49
650.798	8720.08
650.991	8560.34
651.183	8777.42
651.376	8591.06
651.568	8734.42
651.761	8591.06
651.954	8476.37
652.146	8498.9
652.339	8455.89
652.531	8490.71
652.724	8287.96
652.916	8271.58
653.109	8330.97
653.301	8138.46
653.494	8206.04
653.686	7978.72
653.879	8306.39
654.071	8009.44
654.263	7952.09
654.456	7976.67
654.648	8054.49
654.84	7851.74
655.033	7997.15
655.225	7904.99
655.417	7714.53
655.61	7751.39
655.802	7546.59
655.994	7806.69
656.186	7792.35
656.379	7548.64
656.571	7358.18
656.763	7493.35
656.955	7454.44
657.148	7562.98
657.34	7249.64
657.532	7145.19
657.724	7390.95
657.916	7225.06
658.108	7274.21
658.3	7223.02
658.492	6997.74
658.684	7212.78
658.876	7040.75
659.068	7053.03
659.26	7005.93
659.452	7034.6
659.644	6964.97
659.836	7018.22
660.028	6874.86
660.22	6868.72
660.412	6778.61
660.604	6760.17
660.796	6741.74
660.988	6770.41
661.18	6903.53
661.372	6448.88
661.563	6756.08
661.755	6442.74
661.947	6524.66
662.139	6424.31
662.331	6530.8
662.522	6526.71
662.714	6262.52
662.906	6360.82
663.097	6305.53
663.289	6328.05
663.481	6381.3
663.673	6459.12
663.864	6387.44
664.056	6180.6
664.247	6186.74
664.439	6084.34
664.631	6153.98
664.822	6135.54
665.014	6070.01
665.205	6057.72
665.397	6047.48
665.588	6137.59
665.78	6059.77
665.971	5977.85
666.163	5930.75
666.354	6047.48
666.546	5902.08
666.737	5848.83
666.929	5801.72
667.12	5854.97
667.311	5670.65
667.503	5750.53
667.694	5783.29
667.885	5807.87
668.077	5660.41
668.268	5601.02
668.459	5760.77
668.651	5646.08
668.842	5652.22
669.033	5439.23
669.224	5472
669.416	5605.12
669.607	5449.47
669.798	5351.17
669.989	5441.28
670.18	5392.13
670.371	5418.75
670.563	5437.19
670.754	5490.43
670.945	5441.28
671.136	5402.37
671.327	5383.94
671.518	5271.3
671.709	5287.68
671.9	5265.16
672.091	5271.3
672.282	5240.58
672.473	5216.01
672.664	5132.04
672.855	5273.35
673.046	5209.86
673.237	5332.74
673.428	5334.79
673.619	5291.78
673.809	5173
674	5181.19
674.191	5203.72
674.382	5029.64
674.573	5095.18
674.764	4957.96
674.954	5256.97
675.145	5048.07
675.336	5060.36
675.527	4955.91
675.717	5029.64
675.908	4900.62
676.099	4992.78
676.289	4871.95
676.48	4894.47
676.671	4894.47
676.861	4896.52
677.052	4837.13
677.243	5056.26
677.433	4917
677.624	4849.42
677.814	4798.22
678.005	4882.19
678.195	4828.94
678.386	4908.81
678.576	4828.94
678.767	4886.28
678.957	4882.19
679.148	4917
679.338	4882.19
679.529	4785.93
679.719	4847.37
679.909	4904.71
680.1	4839.18
680.29	4712.21
680.481	4970.25
680.671	4751.12
680.861	4728.59
681.052	4814.6
681.242	4718.35
681.432	4837.13
681.622	4855.56
681.813	4779.79
682.003	4740.88
682.193	4747.02
682.383	4847.37
682.573	4636.43
682.764	4611.85
682.954	4833.04
683.144	4603.66
683.334	4714.25
683.524	4701.97
683.714	4671.25
683.904	4654.86
684.094	4667.15
684.284	4562.7
684.474	4570.9
684.664	4634.38
684.854	4736.78
685.044	4525.84
685.234	4562.7
685.424	4560.66
685.614	4423.44
685.804	4624.14
685.994	4366.1
686.184	4419.35
686.374	4552.46
686.564	4603.66
686.753	4300.56
686.943	4421.39
687.133	4376.34
687.323	4386.58
687.513	4351.76
687.702	4427.54
687.892	4353.81
688.082	4366.1
688.272	4374.29
688.461	4398.87
688.651	4362
688.841	4374.29
689.03	4337.43
689.22	4241.17
689.41	4284.18
689.599	4177.69
689.789	4247.32
689.979	4286.23
690.168	4329.24
690.358	4024.09
690.547	4056.86
690.737	4089.62
690.926	4173.59
691.116	4171.54
691.305	4206.36
691.495	4050.71
691.684	4058.9
691.874	3974.94
692.063	3927.83
692.252	4013.85
692.442	4114.2
692.631	3866.39
692.82	3923.74
693.01	4056.86
693.199	4032.28
693.388	3817.24
693.578	3903.26
693.767	3858.2
693.956	3999.51
694.146	3913.5
694.335	3813.15
694.524	3868.44
694.713	3837.72
694.902	3696.41
695.092	3923.74
695.281	3776.28
695.47	3919.64
695.659	3723.04
695.848	3667.74
696.037	3745.56
696.226	3712.8
696.415	3637.02
696.604	3735.32
696.793	3753.76
696.982	3850.01
697.171	3829.53
697.36	3798.81
697.549	3649.31
697.738	3649.31
697.927	3692.32
698.116	3628.83
698.305	3677.98
698.494	3589.92
698.683	3694.36
698.872	3710.75
699.061	3544.86
699.25	3604.25
699.438	3671.84
699.627	3632.93
699.816	3682.08
700.005	3743.52
700.193	3612.45
700.382	3555.1
700.571	3624.73
700.76	3546.91
700.948	3546.91
701.137	3710.75
701.326	3612.45
701.514	3630.88
701.703	3682.08
701.892	3493.66
702.08	3608.35
702.269	3626.78
702.457	3598.11
702.646	3559.2
702.834	3530.53
703.023	3508
703.212	3682.08
703.4	3661.6
703.589	3581.73
703.777	3553.06
703.965	3557.15
704.154	3649.31
704.342	3475.23
704.531	3645.21
704.719	3542.82
704.907	3485.47
705.096	3424.03
705.284	3553.06
705.472	3518.24
705.661	3614.49
705.849	3573.53
706.037	3538.72
706.226	3581.73
706.414	3497.76
706.602	3632.93
706.79	3526.43
706.979	3684.13
707.167	3575.58
707.355	3651.36
707.543	3551.01
707.731	3450.66
707.919	3530.53
708.107	3450.66
708.296	3481.38
708.484	3661.6
708.672	3587.87
708.86	3514.14
709.048	3450.66
709.236	3428.13
709.424	3657.5
709.612	3522.34
709.8	3510.05
709.988	3440.42
710.176	3655.45
710.364	3561.25
710.551	3499.81
710.739	3567.39
710.927	3548.96
711.115	3448.61
711.303	3499.81
711.491	3411.75
711.679	3514.14
711.866	3544.86
712.054	3534.62
712.242	3426.08
712.43	3594.01
712.617	3591.97
712.805	3491.62
712.993	3594.01
713.181	3551.01
713.368	3534.62
713.556	3493.66
713.744	3442.46
713.931	3510.05
714.119	3520.29
714.306	3567.39
714.494	3579.68
714.682	3526.43
714.869	3561.25
715.057	3452.7
715.244	3528.48
715.432	3540.77
715.619	3727.13
715.807	3624.73
715.994	3630.88
716.182	3436.32
716.369	3608.35
716.556	3432.22
716.744	3637.02
716.931	3526.43
717.119	3598.11
717.306	3604.25
717.493	3487.52
717.681	3493.66
717.868	3471.14
718.055	3526.43
718.242	3598.11
718.43	3596.06
718.617	3563.29
718.804	3493.66
718.991	3641.12
719.179	3546.91
719.366	3497.76
719.553	3522.34
719.74	3571.49
719.927	3555.1
720.114	3483.42
720.301	3518.24
720.488	3534.62
720.676	3469.09
720.863	3440.42
721.05	3555.1
721.237	3444.51
721.424	3483.42
721.611	3596.06
721.798	3434.27
721.985	3573.53
722.172	3518.24
722.358	3467.04
722.545	3567.39
722.732	3378.98
722.919	3546.91
723.106	3428.13
723.293	3508
723.48	3444.51
723.667	3411.75
723.853	3438.37
724.04	3419.94
724.227	3505.95
724.414	3419.94
724.6	3387.17
724.787	3460.9
724.974	3464.99
725.161	3471.14
725.347	3481.38
725.534	3641.12
725.72	3317.54
725.907	3538.72
726.094	3432.22
726.28	3411.75
726.467	3479.33
726.653	3387.17
726.84	3405.6
727.027	3381.03
727.213	3360.55
727.4	3483.42
727.586	3313.44
727.773	3452.7
727.959	3446.56
728.145	3438.37
728.332	3391.27
728.518	3434.27
728.705	3432.22
728.891	3499.81
729.077	3458.85
729.264	3374.88
729.45	3321.63
729.636	3399.46
729.823	3438.37
730.009	3462.94
730.195	3450.66
730.382	3448.61
730.568	3229.48
730.754	3428.13
730.94	3381.03
731.126	3321.63
731.313	3397.41
731.499	3444.51
731.685	3450.66
731.871	3333.92
732.057	3403.55
732.243	3370.79
732.429	3335.97
732.615	3319.59
732.801	3428.13
732.987	3374.88
733.173	3297.06
733.359	3278.63
733.545	3245.86
733.731	3284.77
733.917	3374.88
734.103	3393.31
734.289	3229.48
734.475	3331.87
734.661	3376.93
734.847	3340.07
735.033	3172.13
735.219	3239.72
735.404	3206.95
735.59	3286.82
735.776	3141.41
735.962	3219.24
736.148	3270.44
736.333	3278.63
736.519	3198.76
736.705	3174.18
736.89	3358.5
737.076	3260.2
737.262	3165.99
737.447	3247.91
737.633	3104.55
737.819	3241.76
738.004	3311.39
738.19	3063.59
738.375	3211.04
738.561	3133.22
738.747	3161.89
738.932	3030.82
739.118	3170.08
739.303	3235.62
739.489	3194.66
739.674	3014.44
739.859	3170.08
740.045	3061.54
740.23	3045.16
740.416	2940.71
740.601	3065.64
740.786	3061.54
740.972	2891.56
741.157	3004.2
741.342	3026.73
741.528	3028.78
741.713	3043.11
741.898	3069.73
742.084	3002.15
742.269	2983.72
742.454	2977.58
742.639	2940.71
742.824	2905.9
743.01	2819.88
743.195	2891.56
743.38	2981.67
743.565	2875.18
743.75	2836.27
743.935	2647.85
744.12	2858.79
744.305	2836.27
744.49	2887.47
744.675	2772.78
744.86	2715.44
745.045	2813.74
745.23	2813.74
745.415	2619.18
745.6	2688.81
745.785	2629.42
745.97	2664.24
746.155	2793.26
746.34	2740.01
746.525	2623.28
746.71	2649.9
746.895	2625.33
747.079	2584.37
747.264	2570.03
747.449	2600.75
747.634	2535.21
747.819	2582.32
748.003	2582.32
748.188	2551.6
748.373	2524.97
748.557	2549.55
748.742	2547.5
748.927	2428.72
749.111	2481.97
749.296	2506.54
749.481	2494.26
749.665	2289.46
749.85	2420.53
750.034	2445.1
750.219	2469.68
750.404	2344.75
750.588	2293.55
750.773	2309.94
750.957	2199.35
751.141	2277.17
751.326	2441.01
751.51	2260.79
751.695	2207.54
751.879	2084.66
752.064	2215.73
752.248	2191.16
752.432	2049.85
752.617	2123.57
752.801	2096.95
752.985	2111.29
753.17	2111.29
753.354	2062.13
753.538	2053.94
753.722	2096.95
753.907	2109.24
754.091	1965.88
754.275	1978.17
754.459	1965.88
754.643	1972.02
754.828	1947.45
755.012	1910.58
755.196	1933.11
755.38	1912.63
755.564	1912.63
755.748	1906.49
755.932	1834.81
756.116	1986.36
756.3	1804.09
756.484	1722.17
756.668	1916.73
756.852	1736.51
757.036	1853.24
757.22	1804.09
757.404	1892.15
757.588	1824.57
757.772	1824.57
757.956	1759.03
758.14	1679.16
758.323	1709.88
758.507	1754.94
758.691	1634.11
758.875	1632.06
759.059	1767.23
759.242	1632.06
759.426	1699.64
759.61	1650.49
759.794	1570.62
759.977	1652.54
760.161	1654.59
760.345	1599.29
760.528	1535.81
760.712	1550.14
760.895	1726.27
761.079	1564.48
761.263	1507.13
761.446	1488.7
761.63	1484.61
761.813	1601.34
761.997	1486.65
762.18	1527.61
762.364	1597.24
762.547	1408.83
762.731	1480.51
762.914	1468.22
763.098	1484.61
763.281	1476.41
763.464	1388.35
763.648	1457.98
763.831	1453.89
764.015	1431.36
764.198	1410.88
764.381	1439.55
764.564	1369.92
764.748	1382.21
764.931	1308.48
765.114	1322.82
765.297	1447.74
765.481	1355.58
765.664	1371.97
765.847	1314.63
766.03	1423.17
766.213	1281.86
766.397	1365.82
766.58	1275.71
766.763	1337.15
766.946	1335.1
767.129	1288
767.312	1384.26
767.495	1320.77
767.678	1238.85
767.861	1281.86
768.044	1337.15
768.227	1296.19
768.41	1208.13
768.593	1189.7
768.776	1253.19
768.959	1195.84
769.142	1273.67
769.324	1142.6
769.507	1238.85
769.69	1195.84
769.873	1146.69
770.056	1263.43
770.239	1212.23
770.421	1240.9
770.604	1187.65
770.787	1156.93
770.97	1142.6
771.152	1070.92
771.335	1077.06
771.518	1142.6
771.7	1206.08
771.883	1128.26
772.066	1132.36
772.248	1230.66
772.431	1113.92
772.613	1148.74
772.796	1130.31
772.978	984.9
773.161	1146.69
773.343	1122.12
773.526	1120.07
773.708	1075.01
773.891	964.42
774.073	956.23
774.256	1007.43
774.438	1038.15
774.621	1054.53
774.803	1009.48
774.985	989
775.168	1042.25
775.35	970.57
775.532	1052.49
775.715	1017.67
775.897	876.36
776.079	868.17
776.261	970.57
776.444	950.09
776.626	929.61
776.808	925.51
776.99	833.35
777.173	892.74
777.355	919.37
777.537	935.75
777.719	907.08
777.901	821.06
778.083	837.45
778.265	868.17
778.447	825.16
778.629	872.26
778.811	853.83
778.993	892.74
779.175	907.08
779.357	804.68
779.539	874.31
779.721	829.26
779.903	780.11
780.085	831.3
780.267	720.71
780.449	757.58
780.631	876.36
780.812	841.54
780.994	810.82
781.176	714.57
781.358	788.3
781.54	702.28
781.721	708.43
781.903	845.64
782.085	692.04
782.267	765.77
782.448	704.33
782.63	683.85
782.812	765.77
782.993	722.76
783.175	675.66
783.357	700.23
783.538	642.89
783.72	665.42
783.901	683.85
784.083	661.32
784.264	589.64
784.446	649.04
784.627	618.32
784.809	642.89
784.99	581.45
785.172	659.28
785.353	681.8
785.535	739.15
785.716	636.75
785.897	556.88
786.079	659.28
786.26	630.6
786.441	585.55
786.623	509.77
786.804	513.87
786.985	544.59
787.167	661.32
787.348	601.93
787.529	608.08
787.71	634.7
787.891	538.45
788.073	563.02
788.254	454.48
788.435	563.02
788.616	532.3
788.797	462.67
788.978	454.48
789.159	546.64
789.34	575.31
789.522	520.01
789.703	565.07
789.884	520.01
790.065	483.15
790.246	563.02
790.427	563.02
790.607	532.3
790.788	470.86
790.969	466.77
791.15	491.34
791.331	485.2
791.512	429.9
791.693	497.49
791.874	429.9
792.054	483.15
792.235	477.01
792.416	446.29
792.597	524.11
792.778	503.63
792.958	429.9
793.139	386.9
793.32	487.25
793.5	407.38
793.681	444.24
793.862	515.92
794.042	470.86
794.223	368.46
794.404	370.51
794.584	417.61
794.765	347.98
794.945	462.67
795.126	417.61
795.306	452.43
795.487	370.51
795.667	436.05
795.848	360.27
796.028	491.34
796.209	386.9
796.389	417.61
796.57	393.04
796.75	319.31
796.93	352.08
797.111	405.33
797.291	284.5
797.471	397.14
797.652	376.66
797.832	374.61
798.012	382.8
798.192	335.7
798.373	386.9
798.553	413.52
798.733	380.75
798.913	331.6
799.093	227.15
799.274	354.13
799.454	384.85
799.634	388.94
799.814	360.27
799.994	386.9
800.174	407.38
800.354	274.26
800.534	304.98
800.714	345.94
800.894	350.03
801.074	374.61
801.254	309.07
801.434	370.51
801.614	253.78
801.794	352.08
801.974	837.45
802.154	278.35
802.334	386.9
802.514	313.17
802.693	323.41
802.873	356.18
803.053	374.61
803.233	329.55
803.413	255.83
803.592	288.59
803.772	200.53
803.952	319.31
804.131	343.89
804.311	356.18
804.491	395.09
804.67	255.83
804.85	298.83
805.03	329.55
805.209	313.17
805.389	282.45
805.568	188.24
805.748	280.4
805.928	294.74
806.107	304.98
806.287	223.06
806.466	270.16
806.646	237.39
806.825	288.59
807.004	216.91
807.184	298.83
807.363	274.26
807.543	309.07
807.722	315.22
807.901	274.26
808.081	284.5
808.26	276.31
808.439	331.6
808.619	272.21
808.798	249.68
808.977	249.68
809.156	255.83
809.336	282.45
809.515	264.02
809.694	223.06
809.873	325.46
810.052	225.11
810.231	290.64
810.411	294.74
810.59	266.07
810.769	184.15
810.948	274.26
811.127	225.11
811.306	309.07
811.485	223.06
811.664	249.68
811.843	233.3
812.022	192.34
812.201	214.87
812.38	196.43
812.559	137.04
812.737	259.92
812.916	227.15
813.095	212.82
813.274	221.01
813.453	247.63
813.632	247.63
813.811	225.11
813.989	231.25
814.168	233.3
814.347	132.95
814.526	229.2
814.704	272.21
814.883	214.87
815.062	210.77
815.24	210.77
815.419	124.76
815.598	188.24
815.776	180.05
815.955	225.11
816.133	204.63
816.312	212.82
816.49	206.67
816.669	280.4
816.847	214.87
817.026	198.48
817.204	180.05
817.383	229.2
817.561	200.53
817.74	225.11
817.918	171.86
818.097	221.01
818.275	157.52
818.453	200.53
818.632	196.43
818.81	225.11
818.988	208.72
819.167	190.29
819.345	223.06
819.523	167.76
819.701	141.14
819.879	202.58
820.058	135
820.236	223.06
820.414	249.68
820.592	157.52
820.77	206.67
820.948	151.38
821.127	147.28
821.305	206.67
821.483	153.43
821.661	200.53
821.839	118.61
822.017	122.71
822.195	143.19
822.373	212.82
822.551	233.3
822.729	192.34
822.907	165.71
823.085	159.57
823.262	200.53
823.44	202.58
823.618	186.19
823.796	73.56
823.974	239.44
824.152	102.23
824.329	171.86
824.507	130.9
824.685	151.38
824.863	143.19
825.04	110.42
825.218	194.39
825.396	196.43
825.574	151.38
825.751	145.24
825.929	237.39
826.107	190.29
826.284	143.19
826.462	137.04
826.639	229.2
826.817	118.61
826.994	194.39
827.172	96.08
827.349	243.54
827.527	261.97
827.704	130.9
827.882	137.04
828.059	85.84
828.237	182.1
828.414	218.96
828.591	118.61
828.769	169.81
828.946	130.9
829.124	167.76
829.301	130.9
829.478	153.43
829.655	182.1
829.833	106.32
830.01	85.84
830.187	192.34
830.364	178
830.542	163.67
830.719	225.11
830.896	161.62
831.073	120.66
831.25	94.04
831.427	124.76
831.604	55.12
831.782	120.66
831.959	141.14
832.136	149.33
832.313	157.52
832.49	89.94
832.667	75.6
832.844	110.42
833.021	155.47
833.198	104.28
833.374	114.52
833.551	114.52
833.728	116.56
833.905	85.84
834.082	159.57
834.259	145.24
834.436	167.76
834.612	137.04
834.789	106.32
834.966	108.37
835.143	147.28
835.319	67.41
835.496	120.66
835.673	83.8
835.85	124.76
836.026	77.65
836.203	161.62
836.38	161.62
836.556	85.84
836.733	143.19
836.909	104.28
837.086	153.43
837.262	135
837.439	112.47
837.616	139.09
837.792	114.52
837.968	122.71
838.145	85.84
838.321	141.14
838.498	143.19
838.674	112.47
838.851	120.66
839.027	135
839.203	135
839.38	102.23
839.556	77.65
839.732	102.23
839.909	106.32
840.085	102.23
840.261	71.51
840.437	102.23
840.614	118.61
840.79	165.71
840.966	53.08
841.142	71.51
841.318	106.32
841.494	151.38
841.671	130.9
841.847	53.08
842.023	-10.41
842.199	120.66
842.375	73.56
842.551	102.23
842.727	108.37
842.903	48.98
843.079	73.56
843.255	155.47
843.431	135
843.607	153.43
843.783	22.36
843.959	110.42
844.134	135
844.31	98.13
844.486	102.23
844.662	59.22
844.838	120.66
845.013	79.7
845.189	61.27
845.365	143.19
845.541	135
845.716	114.52
845.892	100.18
846.068	94.04
846.244	51.03
846.419	73.56
846.595	116.56
846.77	108.37
846.946	159.57
847.122	73.56
847.297	73.56
847.473	96.08
847.648	42.84
847.824	61.27
847.999	-4.27
848.175	81.75
848.35	100.18
848.526	106.32
848.701	94.04
848.876	128.85
849.052	69.46
849.227	20.31
849.403	59.22
849.578	116.56
849.753	77.65
849.929	30.55
850.104	102.23
850.279	69.46
850.454	81.75
850.63	81.75
850.805	26.45
850.98	77.65
851.155	46.93
851.33	98.13
851.505	10.07
851.681	143.19
851.856	8.02
852.031	87.89
852.206	69.46
852.381	61.27
852.556	155.47
852.731	55.12
852.906	12.12
853.081	85.84
853.256	61.27
853.431	-2.22
853.606	75.6
853.781	-6.31
853.956	38.74
854.131	124.76
854.305	85.84
854.48	8.02
854.655	26.45
854.83	167.76
855.005	69.46
855.18	42.84
855.354	22.36
855.529	81.75
855.704	34.64
855.879	65.36
856.053	36.69
856.228	28.5
856.403	73.56
856.577	63.32
856.752	-43.18
856.926	26.45
857.101	81.75
857.276	36.69
857.45	108.37
857.625	118.61
857.799	135
857.974	51.03
858.148	40.79
858.323	59.22
858.497	108.37
858.672	83.8
858.846	94.04
859.02	184.15
859.195	8.02
859.369	48.98
859.543	63.32
859.718	67.41
859.892	65.36
860.066	81.75
860.241	12.12
860.415	65.36
860.589	73.56
860.763	32.6
860.938	61.27
861.112	83.8
861.286	63.32
861.46	75.6
861.634	28.5
861.808	65.36
861.982	65.36
862.157	44.88
862.331	79.7
862.505	5.97
862.679	8.02
862.853	14.17
863.027	12.12
863.201	48.98
863.375	77.65
863.549	-4.27
863.722	65.36
863.896	149.33
864.07	65.36
864.244	-16.55
864.418	69.46
864.592	61.27
864.766	75.6
864.939	110.42
865.113	57.17
865.287	96.08
865.461	5.97
865.634	81.75
865.808	100.18
865.982	57.17
866.156	-8.36
866.329	53.08
866.503	69.46
866.676	81.75
866.85	36.69
867.024	57.17
867.197	114.52
867.371	130.9
867.544	16.21
867.718	59.22
867.891	32.6
868.065	34.64
868.238	20.31
868.412	118.61
868.585	-0.17
868.759	61.27
868.932	28.5
869.105	65.36
869.279	53.08
869.452	61.27
869.625	67.41
869.799	55.12
869.972	-4.27
870.145	32.6
870.319	36.69
870.492	124.76
870.665	102.23
870.838	44.88
871.011	-22.7
871.185	-10.41
871.358	85.84
871.531	126.8
871.704	85.84
871.877	69.46
872.05	-53.42
872.223	57.17
872.396	38.74
872.569	42.84
872.742	-24.75
872.915	67.41
873.088	-16.55
873.261	12.12
873.434	57.17
873.607	30.55
873.78	55.12
873.953	3.93
874.126	-14.51
874.299	-43.18
874.471	1.88
874.644	44.88
874.817	83.8
874.99	110.42
875.163	28.5
875.335	48.98
875.508	42.84
875.681	120.66
875.853	28.5
876.026	-22.7
876.199	14.17
876.371	79.7
876.544	53.08
876.717	65.36
876.889	-28.84
877.062	57.17
877.234	-24.75
877.407	85.84
877.579	22.36
877.752	24.4
877.924	120.66
878.097	48.98
878.269	16.21
878.442	1.88
878.614	59.22
878.786	48.98
878.959	5.97
879.131	3.93
879.303	61.27
879.476	44.88
879.648	32.6
879.82	-28.84
879.993	114.52
880.165	67.41
880.337	20.31
880.509	85.84
880.681	55.12
880.854	-14.51
881.026	38.74
881.198	53.08
881.37	34.64
881.542	20.31
881.714	-30.89
881.886	26.45
882.058	67.41
882.23	69.46
882.402	1.88
882.574	59.22
882.746	-10.41
882.918	46.93
883.09	30.55
883.262	32.6
883.434	-14.51
883.606	18.26
883.778	26.45
883.95	85.84
884.122	48.98
884.293	85.84
884.465	81.75
884.637	98.13
884.809	-8.36
884.98	-20.65
885.152	3.93
885.324	120.66
885.496	24.4
885.667	20.31
885.839	46.93
886.011	55.12
886.182	63.32
886.354	32.6
886.525	65.36
886.697	36.69
886.869	110.42
887.04	42.84
887.212	28.5
887.383	159.57
887.555	3.93
887.726	51.03
887.897	44.88
888.069	75.6
888.24	16.21
888.412	36.69
888.583	65.36
888.754	24.4
888.926	18.26
889.097	10.07
889.268	3.93
889.44	53.08
889.611	-30.89
889.782	30.55
889.953	-32.94
890.125	10.07
890.296	20.31
890.467	30.55
890.638	61.27
890.809	55.12
890.98	-24.75
891.151	-34.99
891.323	57.17
891.494	24.4
891.665	20.31
891.836	-34.99
892.007	73.56
892.178	32.6
892.349	116.56
892.52	53.08
892.691	-24.75
892.862	32.6
893.032	20.31
893.203	75.6
893.374	-22.7
893.545	18.26
893.716	51.03
893.887	55.12
894.057	32.6
894.228	12.12
894.399	18.26
894.57	44.88
894.74	16.21
894.911	30.55
895.082	53.08
895.253	3.93
895.423	77.65
895.594	116.56
895.764	94.04
895.935	26.45
896.106	20.31
896.276	-67.75
896.447	24.4
896.617	-0.17
896.788	-51.37
896.958	8.02
897.129	59.22
897.299	20.31
897.47	20.31
897.64	20.31
897.81	22.36
897.981	38.74
898.151	40.79
898.322	69.46
898.492	12.12
898.662	20.31
898.832	8.02
899.003	57.17
899.173	-8.36
899.343	1.88
899.513	20.31
