Data from USB4F104151__183__10-27-54-886.txt Node

Date: Wed Mar 12 10:27:54 EDT 2025
User: louis
Spectrometer: USB4F10415
Trigger mode: 4
Integration Time (sec): 3.000000E-2
Scans to average: 1
Electric dark correction enabled: true
Nonlinearity correction enabled: false
Boxcar width: 0
XAxis mode: Wavelengths
Number of Pixels in Spectrum: 3648
>>>>>Begin Spectral Data<<<<<
178.204	-70.14
178.424	-70.14
178.644	-70.14
178.864	-123.39
179.084	-64
179.304	34.3
179.524	-10.75
179.744	28.16
179.964	26.11
180.184	-6.66
180.404	28.16
180.624	-4.61
180.844	-45.57
181.064	-70.14
181.283	19.97
181.503	19.97
181.723	-18.94
181.943	-27.14
182.163	32.26
182.383	-43.52
182.602	5.63
182.822	-29.18
183.042	91.65
183.262	-10.75
183.482	32.26
183.701	24.06
183.921	-2.56
184.141	3.58
184.361	11.78
184.58	-18.94
184.8	-20.99
185.02	22.02
185.239	46.59
185.459	-0.51
185.679	114.17
185.898	30.21
186.118	108.03
186.338	32.26
186.557	52.74
186.777	-18.94
186.997	50.69
187.216	-16.9
187.436	50.69
187.655	67.07
187.875	30.21
188.095	7.68
188.314	85.5
188.534	73.21
188.753	9.73
188.973	24.06
189.192	56.83
189.412	30.21
189.631	-0.51
189.851	26.11
190.07	97.79
190.29	-20.99
190.509	54.78
190.729	36.35
190.948	114.17
191.168	85.5
191.387	56.83
191.607	44.54
191.826	13.82
192.045	-4.61
192.265	19.97
192.484	44.54
192.704	85.5
192.923	-27.14
193.142	89.6
193.362	24.06
193.581	34.3
193.8	-33.28
194.02	52.74
194.239	65.02
194.458	48.64
194.678	-0.51
194.897	40.45
195.116	17.92
195.335	30.21
195.555	30.21
195.774	62.98
195.993	30.21
196.212	48.64
196.432	50.69
196.651	28.16
196.87	42.5
197.089	42.5
197.308	-8.7
197.528	114.17
197.747	-8.7
197.966	13.82
198.185	-2.56
198.404	32.26
198.623	44.54
198.842	15.87
199.062	22.02
199.281	89.6
199.5	34.3
199.719	46.59
199.938	26.11
200.157	5.63
200.376	-18.94
200.595	9.73
200.814	62.98
201.033	-53.76
201.252	79.36
201.471	22.02
201.69	93.69
201.909	65.02
202.128	22.02
202.347	69.12
202.566	22.02
202.785	-6.66
203.004	-29.18
203.223	15.87
203.442	48.64
203.661	52.74
203.879	-4.61
204.098	28.16
204.317	-4.61
204.536	26.11
204.755	24.06
204.974	11.78
205.193	69.12
205.411	93.69
205.63	-6.66
205.849	34.3
206.068	24.06
206.287	46.59
206.505	52.74
206.724	77.31
206.943	24.06
207.162	26.11
207.381	28.16
207.599	73.21
207.818	-10.75
208.037	34.3
208.255	-14.85
208.474	105.98
208.693	3.58
208.911	13.82
209.13	-12.8
209.349	38.4
209.567	71.17
209.786	58.88
210.005	130.56
210.223	46.59
210.442	-49.66
210.661	34.3
210.879	71.17
211.098	48.64
211.316	46.59
211.535	69.12
211.753	28.16
211.972	-59.9
212.191	24.06
212.409	-47.62
212.628	30.21
212.846	-4.61
213.065	52.74
213.283	65.02
213.502	-55.81
213.72	-33.28
213.938	136.7
214.157	48.64
214.375	15.87
214.594	15.87
214.812	97.79
215.031	69.12
215.249	24.06
215.467	91.65
215.686	54.78
215.904	81.41
216.122	71.17
216.341	73.21
216.559	103.93
216.778	138.75
216.996	7.68
217.214	93.69
217.432	32.26
217.651	38.4
217.869	17.92
218.087	40.45
218.306	7.68
218.524	-16.9
218.742	38.4
218.96	-8.7
219.179	26.11
219.397	-10.75
219.615	116.22
219.833	28.16
220.051	5.63
220.27	48.64
220.488	-16.9
220.706	62.98
220.924	-10.75
221.142	-14.85
221.36	91.65
221.578	3.58
221.796	62.98
222.015	5.63
222.233	46.59
222.451	19.97
222.669	44.54
222.887	-16.9
223.105	-74.24
223.323	-0.51
223.541	28.16
223.759	-8.7
223.977	-10.75
224.195	56.83
224.413	103.93
224.631	13.82
224.849	-0.51
225.067	3.58
225.285	-4.61
225.503	118.27
225.721	17.92
225.939	15.87
226.157	56.83
226.375	118.27
226.592	19.97
226.81	7.68
227.028	54.78
227.246	32.26
227.464	-0.51
227.682	58.88
227.9	-41.47
228.117	163.33
228.335	40.45
228.553	-20.99
228.771	110.08
228.989	32.26
229.206	110.08
229.424	-20.99
229.642	36.35
229.86	5.63
230.077	136.7
230.295	32.26
230.513	118.27
230.731	5.63
230.948	32.26
231.166	1.54
231.384	79.36
231.601	19.97
231.819	24.06
232.037	26.11
232.254	-6.66
232.472	60.93
232.689	-8.7
232.907	19.97
233.125	65.02
233.342	44.54
233.56	-35.33
233.777	93.69
233.995	50.69
234.213	54.78
234.43	7.68
234.648	22.02
234.865	54.78
235.083	65.02
235.3	5.63
235.518	40.45
235.735	40.45
235.953	77.31
236.17	40.45
236.388	-23.04
236.605	24.06
236.822	-20.99
237.04	36.35
237.257	28.16
237.475	15.87
237.692	-33.28
237.909	-23.04
238.127	11.78
238.344	103.93
238.562	50.69
238.779	128.51
238.996	-10.75
239.214	58.88
239.431	56.83
239.648	52.74
239.865	50.69
240.083	81.41
240.3	17.92
240.517	-2.56
240.735	40.45
240.952	85.5
241.169	13.82
241.386	13.82
241.603	101.89
241.821	54.78
242.038	79.36
242.255	89.6
242.472	-8.7
242.689	40.45
242.907	89.6
243.124	85.5
243.341	77.31
243.558	-33.28
243.775	-51.71
243.992	-20.99
244.209	42.5
244.426	69.12
244.643	-16.9
244.86	-4.61
245.078	101.89
245.295	48.64
245.512	54.78
245.729	1.54
245.946	105.98
246.163	32.26
246.38	32.26
246.597	62.98
246.814	17.92
247.031	67.07
247.248	30.21
247.464	60.93
247.681	26.11
247.898	-8.7
248.115	62.98
248.332	-12.8
248.549	13.82
248.766	60.93
248.983	48.64
249.2	17.92
249.417	52.74
249.633	38.4
249.85	48.64
250.067	7.68
250.284	65.02
250.501	81.41
250.717	56.83
250.934	-61.95
251.151	5.63
251.368	48.64
251.585	-20.99
251.801	-8.7
252.018	56.83
252.235	-0.51
252.451	11.78
252.668	-16.9
252.885	32.26
253.102	46.59
253.318	95.74
253.535	-0.51
253.752	30.21
253.968	15.87
254.185	-10.75
254.401	79.36
254.618	83.45
254.835	24.06
255.051	93.69
255.268	65.02
255.484	40.45
255.701	38.4
255.917	-29.18
256.134	-0.51
256.351	83.45
256.567	-43.52
256.784	52.74
257	-0.51
257.217	112.13
257.433	38.4
257.65	-43.52
257.866	-6.66
258.082	30.21
258.299	-20.99
258.515	-78.33
258.732	5.63
258.948	-23.04
259.165	46.59
259.381	5.63
259.597	65.02
259.814	-23.04
260.03	24.06
260.246	50.69
260.463	24.06
260.679	85.5
260.895	38.4
261.112	44.54
261.328	62.98
261.544	56.83
261.761	118.27
261.977	87.55
262.193	34.3
262.409	40.45
262.626	73.21
262.842	11.78
263.058	-27.14
263.274	11.78
263.49	50.69
263.707	93.69
263.923	22.02
264.139	19.97
264.355	7.68
264.571	73.21
264.787	44.54
265.004	44.54
265.22	95.74
265.436	-25.09
265.652	3.58
265.868	71.17
266.084	3.58
266.3	118.27
266.516	87.55
266.732	73.21
266.948	26.11
267.164	75.26
267.38	87.55
267.596	11.78
267.812	128.51
268.028	50.69
268.244	22.02
268.46	-2.56
268.676	15.87
268.892	130.56
269.108	-2.56
269.324	-23.04
269.54	32.26
269.756	30.21
269.972	-0.51
270.188	71.17
270.403	3.58
270.619	3.58
270.835	3.58
271.051	30.21
271.267	91.65
271.483	73.21
271.698	-20.99
271.914	5.63
272.13	-8.7
272.346	-31.23
272.562	54.78
272.777	13.82
272.993	28.16
273.209	24.06
273.425	22.02
273.64	1.54
273.856	-33.28
274.072	-0.51
274.287	-18.94
274.503	85.5
274.719	42.5
274.934	50.69
275.15	19.97
275.366	-8.7
275.581	5.63
275.797	-8.7
276.012	89.6
276.228	22.02
276.444	85.5
276.659	65.02
276.875	15.87
277.09	54.78
277.306	-57.86
277.521	69.12
277.737	28.16
277.952	93.69
278.168	32.26
278.383	50.69
278.599	69.12
278.814	89.6
279.03	52.74
279.245	-4.61
279.461	77.31
279.676	38.4
279.892	58.88
280.107	3.58
280.322	-35.33
280.538	-8.7
280.753	30.21
280.969	-51.71
281.184	5.63
281.399	67.07
281.615	-51.71
281.83	69.12
282.045	9.73
282.26	85.5
282.476	52.74
282.691	126.46
282.906	36.35
283.122	1.54
283.337	40.45
283.552	67.07
283.767	-0.51
283.983	44.54
284.198	32.26
284.413	69.12
284.628	26.11
284.843	1.54
285.058	87.55
285.274	83.45
285.489	52.74
285.704	93.69
285.919	-55.81
286.134	79.36
286.349	-41.47
286.564	50.69
286.779	75.26
286.995	-16.9
287.21	-4.61
287.425	28.16
287.64	24.06
287.855	42.5
288.07	15.87
288.285	44.54
288.5	65.02
288.715	40.45
288.93	73.21
289.145	30.21
289.36	34.3
289.575	-37.38
289.79	93.69
290.004	38.4
290.219	85.5
290.434	48.64
290.649	-29.18
290.864	-49.66
291.079	22.02
291.294	44.54
291.509	97.79
291.724	15.87
291.938	13.82
292.153	3.58
292.368	11.78
292.583	34.3
292.798	-10.75
293.012	85.5
293.227	-8.7
293.442	5.63
293.657	120.32
293.871	116.22
294.086	40.45
294.301	73.21
294.516	105.98
294.73	87.55
294.945	-23.04
295.16	11.78
295.374	-33.28
295.589	22.02
295.804	48.64
296.018	19.97
296.233	77.31
296.447	71.17
296.662	-2.56
296.877	11.78
297.091	46.59
297.306	65.02
297.52	40.45
297.735	79.36
297.949	-25.09
298.164	105.98
298.378	3.58
298.593	-2.56
298.807	77.31
299.022	32.26
299.236	50.69
299.451	15.87
299.665	22.02
299.88	28.16
300.094	-2.56
300.309	87.55
300.523	36.35
300.737	54.78
300.952	36.35
301.166	83.45
301.381	-16.9
301.595	-29.18
301.809	65.02
302.024	112.13
302.238	28.16
302.452	189.95
302.667	30.21
302.881	60.93
303.095	95.74
303.309	-6.66
303.524	52.74
303.738	44.54
303.952	32.26
304.166	-29.18
304.381	-20.99
304.595	97.79
304.809	1.54
305.023	22.02
305.237	36.35
305.452	56.83
305.666	22.02
305.88	46.59
306.094	34.3
306.308	48.64
306.522	40.45
306.736	24.06
306.95	52.74
307.164	3.58
307.379	32.26
307.593	46.59
307.807	60.93
308.021	7.68
308.235	60.93
308.449	-29.18
308.663	67.07
308.877	26.11
309.091	-0.51
309.305	3.58
309.519	48.64
309.733	50.69
309.947	-10.75
310.161	9.73
310.374	-12.8
310.588	54.78
310.802	13.82
311.016	67.07
311.23	73.21
311.444	62.98
311.658	77.31
311.872	85.5
312.085	48.64
312.299	62.98
312.513	-18.94
312.727	-2.56
312.941	46.59
313.154	24.06
313.368	15.87
313.582	67.07
313.796	5.63
314.009	126.46
314.223	105.98
314.437	28.16
314.651	71.17
314.864	30.21
315.078	26.11
315.292	38.4
315.505	105.98
315.719	19.97
315.933	105.98
316.146	101.89
316.36	83.45
316.573	60.93
316.787	40.45
317.001	54.78
317.214	46.59
317.428	46.59
317.641	-2.56
317.855	13.82
318.068	28.16
318.282	11.78
318.495	48.64
318.709	-49.66
318.922	17.92
319.136	134.65
319.349	67.07
319.563	44.54
319.776	85.5
319.99	56.83
320.203	54.78
320.417	67.07
320.63	75.26
320.843	200.19
321.057	-16.9
321.27	30.21
321.483	38.4
321.697	-16.9
321.91	73.21
322.124	19.97
322.337	7.68
322.55	-12.8
322.763	91.65
322.977	48.64
323.19	13.82
323.403	58.88
323.617	1.54
323.83	15.87
324.043	40.45
324.256	36.35
324.469	-20.99
324.683	85.5
324.896	52.74
325.109	15.87
325.322	19.97
325.535	-6.66
325.748	73.21
325.962	71.17
326.175	48.64
326.388	1.54
326.601	71.17
326.814	19.97
327.027	73.21
327.24	46.59
327.453	9.73
327.666	22.02
327.879	36.35
328.092	-8.7
328.305	81.41
328.518	-31.23
328.731	-16.9
328.944	46.59
329.157	1.54
329.37	28.16
329.583	95.74
329.796	118.27
330.009	-33.28
330.222	171.52
330.435	48.64
330.648	17.92
330.861	-2.56
331.073	32.26
331.286	32.26
331.499	85.5
331.712	56.83
331.925	89.6
332.138	5.63
332.35	91.65
332.563	34.3
332.776	65.02
332.989	19.97
333.202	38.4
333.414	50.69
333.627	103.93
333.84	58.88
334.053	24.06
334.265	58.88
334.478	46.59
334.691	13.82
334.903	32.26
335.116	26.11
335.329	7.68
335.541	81.41
335.754	60.93
335.966	65.02
336.179	24.06
336.392	-45.57
336.604	97.79
336.817	13.82
337.029	24.06
337.242	52.74
337.454	120.32
337.667	-2.56
337.88	81.41
338.092	32.26
338.305	48.64
338.517	-25.09
338.729	56.83
338.942	65.02
339.154	-20.99
339.367	-31.23
339.579	7.68
339.792	-14.85
340.004	44.54
340.217	-0.51
340.429	22.02
340.641	40.45
340.854	56.83
341.066	15.87
341.278	87.55
341.491	7.68
341.703	30.21
341.915	81.41
342.128	103.93
342.34	101.89
342.552	46.59
342.764	32.26
342.977	24.06
343.189	81.41
343.401	69.12
343.613	17.92
343.826	120.32
344.038	58.88
344.25	97.79
344.462	11.78
344.674	85.5
344.886	-4.61
345.099	32.26
345.311	69.12
345.523	13.82
345.735	15.87
345.947	24.06
346.159	97.79
346.371	77.31
346.583	46.59
346.795	73.21
347.007	65.02
347.219	11.78
347.431	-43.52
347.643	110.08
347.855	-37.38
348.067	81.41
348.279	-16.9
348.491	81.41
348.703	60.93
348.915	19.97
349.127	-47.62
349.339	-25.09
349.551	28.16
349.763	103.93
349.975	19.97
350.187	40.45
350.399	128.51
350.61	79.36
350.822	13.82
351.034	7.68
351.246	46.59
351.458	116.22
351.669	89.6
351.881	36.35
352.093	60.93
352.305	54.78
352.517	69.12
352.728	56.83
352.94	48.64
353.152	60.93
353.363	5.63
353.575	69.12
353.787	120.32
353.999	56.83
354.21	75.26
354.422	42.5
354.633	122.37
354.845	65.02
355.057	30.21
355.268	13.82
355.48	73.21
355.692	46.59
355.903	85.5
356.115	38.4
356.326	-8.7
356.538	26.11
356.749	7.68
356.961	157.18
357.172	48.64
357.384	65.02
357.595	65.02
357.807	17.92
358.018	87.55
358.23	56.83
358.441	130.56
358.653	108.03
358.864	62.98
359.075	26.11
359.287	101.89
359.498	44.54
359.709	48.64
359.921	-12.8
360.132	79.36
360.344	134.65
360.555	77.31
360.766	38.4
360.977	15.87
361.189	120.32
361.4	62.98
361.611	54.78
361.823	40.45
362.034	65.02
362.245	1.54
362.456	32.26
362.667	73.21
362.879	-12.8
363.09	48.64
363.301	24.06
363.512	73.21
363.723	105.98
363.935	44.54
364.146	110.08
364.357	19.97
364.568	32.26
364.779	9.73
364.99	52.74
365.201	-2.56
365.412	105.98
365.623	34.3
365.834	30.21
366.045	95.74
366.256	56.83
366.467	85.5
366.678	-33.28
366.889	42.5
367.1	19.97
367.311	40.45
367.522	-23.04
367.733	69.12
367.944	32.26
368.155	77.31
368.366	130.56
368.577	118.27
368.788	83.45
368.999	-25.09
369.209	50.69
369.42	69.12
369.631	173.57
369.842	157.18
370.053	24.06
370.264	52.74
370.474	60.93
370.685	81.41
370.896	28.16
371.107	60.93
371.317	48.64
371.528	157.18
371.739	95.74
371.95	62.98
372.16	79.36
372.371	15.87
372.582	110.08
372.792	65.02
373.003	108.03
373.214	87.55
373.424	9.73
373.635	7.68
373.846	75.26
374.056	46.59
374.267	38.4
374.477	15.87
374.688	-25.09
374.898	97.79
375.109	56.83
375.319	71.17
375.53	46.59
375.74	134.65
375.951	13.82
376.161	1.54
376.372	-23.04
376.582	-4.61
376.793	138.75
377.003	52.74
377.214	89.6
377.424	83.45
377.635	34.3
377.845	105.98
378.055	5.63
378.266	9.73
378.476	77.31
378.686	105.98
378.897	62.98
379.107	54.78
379.317	93.69
379.528	32.26
379.738	85.5
379.948	81.41
380.158	38.4
380.369	-0.51
380.579	73.21
380.789	62.98
380.999	87.55
381.21	87.55
381.42	60.93
381.63	79.36
381.84	11.78
382.05	93.69
382.261	167.42
382.471	93.69
382.681	-14.85
382.891	62.98
383.101	132.61
383.311	22.02
383.521	67.07
383.731	159.23
383.941	93.69
384.151	-0.51
384.361	77.31
384.571	-23.04
384.781	73.21
384.991	93.69
385.201	130.56
385.411	34.3
385.621	62.98
385.831	101.89
386.041	69.12
386.251	73.21
386.461	32.26
386.671	44.54
386.881	65.02
387.091	-0.51
387.301	65.02
387.511	95.74
387.72	134.65
387.93	40.45
388.14	-55.81
388.35	134.65
388.56	62.98
388.769	130.56
388.979	118.27
389.189	-57.86
389.399	3.58
389.609	15.87
389.818	95.74
390.028	114.17
390.238	62.98
390.447	77.31
390.657	48.64
390.867	7.68
391.076	73.21
391.286	24.06
391.496	105.98
391.705	83.45
391.915	83.45
392.125	77.31
392.334	65.02
392.544	62.98
392.753	114.17
392.963	-35.33
393.172	48.64
393.382	95.74
393.591	69.12
393.801	87.55
394.01	124.41
394.22	9.73
394.429	105.98
394.639	38.4
394.848	146.94
395.058	101.89
395.267	116.22
395.477	128.51
395.686	118.27
395.895	114.17
396.105	202.24
396.314	95.74
396.524	151.04
396.733	128.51
396.942	71.17
397.152	122.37
397.361	34.3
397.57	151.04
397.78	130.56
397.989	89.6
398.198	118.27
398.407	89.6
398.617	114.17
398.826	179.71
399.035	89.6
399.244	75.26
399.453	101.89
399.663	122.37
399.872	140.8
400.081	114.17
400.29	120.32
400.499	79.36
400.708	163.33
400.917	32.26
401.127	97.79
401.336	155.13
401.545	108.03
401.754	151.04
401.963	93.69
402.172	62.98
402.381	112.13
402.59	114.17
402.799	124.41
403.008	153.09
403.217	95.74
403.426	138.75
403.635	159.23
403.844	151.04
404.053	146.94
404.262	85.5
404.471	200.19
404.68	179.71
404.888	169.47
405.097	165.37
405.306	138.75
405.515	85.5
405.724	202.24
405.933	196.09
406.142	196.09
406.35	144.89
406.559	153.09
406.768	97.79
406.977	269.82
407.185	214.52
407.394	206.33
407.603	128.51
407.812	214.52
408.02	218.62
408.229	224.76
408.438	187.9
408.646	185.85
408.855	294.4
409.064	308.73
409.272	228.86
409.481	253.44
409.69	228.86
409.898	204.28
410.107	251.39
410.315	222.72
410.524	273.92
410.733	327.16
410.941	304.64
411.15	341.5
411.358	429.56
411.567	368.12
411.775	474.62
411.984	376.31
412.192	364.03
412.401	329.21
412.609	437.75
412.818	464.38
413.026	591.35
413.234	501.24
413.443	458.23
413.651	564.73
413.86	570.87
414.068	599.54
414.276	581.11
414.485	593.4
414.693	552.44
414.901	687.61
415.11	654.84
415.318	699.89
415.526	736.76
415.734	689.65
415.943	681.46
416.151	802.29
416.359	763.38
416.567	742.9
416.776	824.82
416.984	916.98
417.192	900.59
417.4	1000.94
417.608	929.27
417.817	892.4
418.025	976.37
418.233	1156.59
418.441	1117.68
418.649	1007.09
418.857	1166.83
419.065	1316.33
419.273	1183.21
419.481	1201.65
419.689	1336.81
419.897	1416.68
420.105	1371.63
420.313	1412.59
420.521	1490.41
420.729	1603.05
420.937	1582.57
421.145	1601
421.353	1748.45
421.561	1783.27
421.769	1848.8
421.977	1910.24
422.185	1879.52
422.393	2035.17
422.601	2194.91
422.809	2057.7
423.017	2151.9
423.224	2209.25
423.432	2366.94
423.64	2305.5
423.848	2647.51
424.056	2514.39
424.263	2598.36
424.471	2616.79
424.679	2715.09
424.887	2790.87
425.094	2921.94
425.302	2960.85
425.51	3085.78
425.718	3153.36
425.925	3192.27
426.133	3315.15
426.341	3577.29
426.548	3839.43
426.756	3681.74
426.964	3722.7
427.171	4062.66
427.379	3835.33
427.586	4058.56
427.794	4212.16
428.001	4318.65
428.209	4517.31
428.417	4498.88
428.624	4828.6
428.832	4875.7
429.039	4705.72
429.247	4748.73
429.454	5186.99
429.662	5539.24
429.869	5293.49
430.076	5758.38
430.284	5453.23
430.491	5709.22
430.699	6049.19
430.906	6077.86
431.114	6057.38
431.321	6210.98
431.528	6409.63
431.736	6886.81
431.943	7194
432.15	7040.4
432.358	7042.45
432.565	7515.53
432.772	7306.64
432.979	7818.63
433.187	7994.76
433.394	8064.39
433.601	8510.85
433.808	8406.4
434.016	8390.02
434.223	8631.68
434.43	9094.52
434.637	9211.25
434.844	9614.7
435.052	9997.67
435.259	9768.3
435.466	9907.56
435.673	9579.89
435.88	10382.69
436.087	10960.22
436.294	10931.55
436.501	10796.38
436.708	10919.26
436.915	11425.11
437.122	11728.21
437.329	11709.77
437.537	12025.16
437.743	12303.68
437.95	12430.66
438.157	12795.2
438.364	13370.68
438.571	13190.45
438.778	13505.84
438.985	14552.35
439.192	14103.85
439.399	14632.22
439.606	14253.35
439.813	15088.92
440.02	15940.88
440.227	15826.19
440.433	15408.4
440.64	15998.22
440.847	15697.17
441.054	16211.21
441.261	17435.89
441.467	17276.15
441.674	17433.85
441.881	18257.13
442.088	17923.31
442.294	17945.84
442.501	18539.75
442.708	18681.06
442.914	19399.9
443.121	20288.71
443.328	19567.83
443.534	20954.3
443.741	20350.15
443.948	19975.38
444.154	21849.27
444.361	21404.86
444.568	21753.01
444.774	21908.66
444.981	21847.22
445.187	22455.47
445.394	23927.95
445.6	23188.64
445.807	25320.57
446.013	24470.67
446.22	24953.99
446.426	25795.7
446.633	25980.02
446.839	26819.69
447.046	25902.2
447.252	26813.54
447.459	27106.4
447.665	27112.55
447.871	28535.88
448.078	29094.98
448.284	28007.51
448.491	28675.15
448.697	29617.21
448.903	30100.53
449.11	30354.48
449.316	29824.06
449.522	30118.96
449.728	31077.41
449.935	31464.48
450.141	31579.17
450.347	31786.01
450.553	30821.42
450.76	31353.89
450.966	32314.39
451.172	31804.44
451.378	32453.65
451.584	31972.38
451.791	32689.17
451.997	32678.93
452.203	32896.01
452.409	33104.9
452.615	33102.85
452.821	32009.24
453.027	31142.95
453.233	32785.42
453.44	31740.96
453.646	31874.07
453.852	32388.11
454.058	32496.66
454.264	31681.56
454.47	32203.8
454.676	31128.61
454.882	32693.26
455.088	29555.77
455.294	30100.53
455.5	30151.73
455.705	30735.4
455.911	29250.63
456.117	28920.9
456.323	28331.09
456.529	26813.54
456.735	27884.63
456.941	27448.41
457.147	26825.83
457.352	26129.52
457.558	25531.51
457.764	25990.26
457.97	25371.77
458.176	25031.81
458.381	24665.22
458.587	23479.45
458.793	23518.36
458.999	22213.81
459.204	23637.14
459.41	23344.28
459.616	21544.12
459.821	21662.9
460.027	21703.86
460.233	21025.98
460.438	19958.99
460.644	20464.84
460.85	19447
461.055	19123.42
461.261	19035.36
461.466	17876.21
461.672	17108.22
461.878	18187.5
462.083	16921.85
462.289	16745.73
462.494	16856.32
462.7	15793.42
462.905	15408.4
463.111	16203.02
463.316	16006.41
463.522	15742.22
463.727	15834.38
463.932	15693.07
464.138	15475.99
464.343	15598.87
464.549	15226.14
464.754	15678.74
464.959	15416.6
465.165	15592.72
465.37	15070.49
465.575	14427.43
465.781	15115.55
465.986	15129.88
466.191	14703.9
466.397	14226.73
466.602	13905.2
466.807	14261.54
467.012	14099.75
467.218	14224.68
467.423	13845.8
467.628	14167.34
467.833	14601.51
468.038	14144.81
468.244	13700.4
468.449	14103.85
468.654	13669.68
468.859	13571.38
469.064	13292.85
469.269	12967.23
469.474	12901.69
469.679	13266.23
469.885	13075.77
470.09	13315.38
470.295	13165.88
470.5	12840.25
470.705	12674.37
470.91	12418.37
471.115	12137.8
471.32	12516.67
471.525	12369.22
471.73	12080.46
471.935	12174.66
472.139	11629.9
472.344	11750.73
472.549	11556.18
472.754	11662.67
472.959	11418.96
473.164	11126.1
473.369	10962.26
473.574	11529.55
473.778	11218.26
473.983	11238.74
474.188	10972.5
474.393	10642.78
474.598	10753.37
474.802	10567.01
475.007	10571.1
475.212	10579.29
475.417	10110.31
475.621	10194.28
475.826	10339.68
476.031	9971.05
476.235	9708.91
476.44	9872.75
476.645	9708.91
476.849	9872.75
477.054	9706.86
477.259	9510.25
477.463	9338.23
477.668	9352.56
477.872	9493.87
478.077	9184.63
478.282	9035.13
478.486	8957.3
478.691	9088.37
478.895	8912.25
479.1	8932.73
479.304	8885.62
479.509	8748.41
479.713	8772.99
479.918	8592.76
480.122	8625.53
480.326	8549.76
480.531	8543.61
480.735	8455.55
480.94	8326.53
481.144	8785.27
481.348	8390.02
481.553	8451.46
481.757	8338.82
481.961	8428.93
482.166	8428.93
482.37	8306.05
482.574	8449.41
482.778	8174.98
482.983	8469.89
483.187	8330.62
483.391	8291.71
483.595	8230.27
483.8	8369.54
484.004	8377.73
484.208	8596.86
484.412	8514.94
484.616	8220.03
484.821	8404.35
485.025	8240.51
485.229	8387.97
485.433	8414.59
485.637	8023.43
485.841	8252.8
486.045	8271.23
486.249	8342.91
486.453	8105.35
486.657	8095.11
486.861	8400.26
487.065	8080.77
487.269	8244.61
487.473	8185.22
487.677	8189.32
487.881	8566.14
488.085	8420.74
488.289	8490.37
488.493	8265.09
488.697	8406.4
488.901	8410.5
489.105	8531.33
489.309	8316.29
489.512	8439.17
489.716	8349.06
489.92	8373.63
490.124	8375.68
490.328	8678.78
490.531	8353.15
490.735	8484.22
490.939	8568.19
491.143	8519.04
491.346	8623.48
491.55	8945.02
491.754	8766.84
491.958	8754.55
492.161	8695.16
492.365	8967.54
492.569	8723.83
492.772	8768.89
492.976	8871.29
493.18	8815.99
493.383	9145.72
493.587	9129.33
493.79	9020.79
493.994	9045.37
494.197	8996.21
494.401	9303.41
494.605	9018.74
494.808	9481.58
495.012	9461.1
495.215	9604.46
495.419	9483.63
495.622	9536.88
495.825	9708.91
496.029	9747.82
496.232	9905.51
496.436	9842.03
496.639	10186.08
496.843	9862.51
497.046	10485.09
497.249	10235.24
497.453	10382.69
497.656	10532.19
497.859	10489.18
498.063	10872.15
498.266	10898.78
498.469	10866.01
498.673	11128.15
498.876	11238.74
499.079	11269.46
499.282	11187.54
499.485	11638.09
499.689	11662.67
499.892	11906.38
500.095	11883.85
500.298	12205.38
500.501	11951.43
500.705	12406.08
500.908	12356.93
501.111	12588.35
501.314	12696.89
501.517	12784.96
501.72	12889.4
501.923	12983.61
502.126	13409.59
502.329	13755.69
502.532	13784.37
502.735	13817.13
502.938	14107.94
503.141	13776.17
503.344	14064.94
503.547	14230.82
503.75	14380.32
503.953	14742.82
504.156	14578.98
504.359	14947.61
504.562	14976.28
504.765	15222.04
504.968	15203.61
505.17	15674.64
505.373	15389.97
505.576	15879.44
505.779	16022.8
505.982	16176.39
506.185	16387.33
506.387	16588.03
506.59	16962.81
506.793	16979.2
506.996	16985.34
507.198	17515.76
507.401	17483
507.604	17403.13
507.807	17980.65
508.009	18099.44
508.212	18257.13
508.415	18367.72
508.617	18787.55
508.82	18740.45
509.022	18924.77
509.225	19307.74
509.428	19473.62
509.63	19369.18
509.833	19594.45
510.035	20032.72
510.238	19981.52
510.44	20323.53
510.643	20559.05
510.845	20632.77
511.048	20890.82
511.25	21103.81
511.453	20815.04
511.655	22019.25
511.858	21605.56
512.06	21972.14
512.262	22232.24
512.465	22191.28
512.667	22236.33
512.87	22914.21
513.072	22777
513.274	23288.99
513.477	23325.85
513.679	23616.66
513.881	23823.51
514.084	23952.53
514.286	24042.64
514.488	24126.61
514.69	25062.53
514.893	24890.5
515.095	25222.27
515.297	25453.69
515.499	25353.34
515.701	25703.54
515.904	26043.51
516.106	26109.04
516.308	26586.22
516.51	26936.42
516.712	26600.55
516.914	27245.66
517.116	27831.38
517.318	27518.04
517.52	27874.39
517.722	27796.57
517.925	28464.21
518.127	28859.46
518.329	28881.99
518.531	28578.89
518.733	29453.37
518.935	29420.61
519.136	29725.75
519.338	29697.08
519.54	30209.08
519.742	30319.67
519.944	30489.65
520.146	30966.82
520.348	31204.39
520.55	31491.1
520.752	31693.85
520.954	32275.48
521.155	31761.44
521.357	32422.93
521.559	32250.9
521.761	33117.19
521.963	33141.77
522.164	33457.15
522.366	32967.69
522.568	33594.37
522.77	33817.6
522.971	34450.42
523.173	33983.48
523.375	34413.55
523.576	34761.71
523.778	34567.15
523.98	35187.69
524.181	35685.34
524.383	35398.63
524.584	35570.66
524.786	36043.74
524.988	35965.92
525.189	36271.06
525.391	36395.99
525.592	36484.05
525.794	36479.96
525.995	36897.74
526.197	36922.32
526.398	37071.82
526.6	37397.45
526.801	37516.23
527.003	38011.84
527.204	37489.6
527.406	37872.57
527.607	38054.84
527.808	38079.42
528.01	37596.1
528.211	38355.89
528.412	38921.13
528.614	38777.78
528.815	38912.94
529.016	39246.76
529.218	38732.72
529.419	39189.42
529.62	39142.31
529.822	39175.08
530.023	39338.92
530.224	39461.8
530.425	39224.23
530.626	39347.11
530.828	39621.54
531.029	40469.4
531.23	39592.87
531.431	39490.47
531.632	39953.31
531.833	40108.96
532.035	39783.33
532.236	40100.76
532.437	40143.77
532.638	39693.22
532.839	40184.73
533.04	40539.03
533.241	39824.29
533.442	40385.43
533.643	40563.61
533.844	40715.15
534.045	40260.51
534.246	40414.1
534.447	40641.43
534.648	40340.38
534.849	40215.45
535.05	40162.2
535.251	40420.25
535.451	40285.08
535.652	40854.42
535.853	40833.94
536.054	40698.77
536.255	40764.31
536.456	40788.88
536.657	41057.17
536.857	40741.78
537.058	40461.21
537.259	41137.04
537.46	40645.52
537.66	40514.45
537.861	40565.65
538.062	40532.89
538.263	40967.05
538.463	40553.37
538.664	40489.88
538.865	40649.62
539.065	40733.59
539.266	40315.8
539.466	40735.63
539.667	40301.47
539.868	41395.08
540.068	40502.17
540.269	40379.29
540.469	40878.99
540.67	40450.97
540.87	40485.78
541.071	40778.64
541.271	40956.82
541.472	40768.4
541.672	40606.61
541.873	40074.14
542.073	40070.04
542.274	40856.46
542.474	40407.96
542.675	40168.35
542.875	40985.49
543.075	40524.69
543.276	40217.5
543.476	40858.51
543.676	40006.56
543.877	40625.04
544.077	40534.93
544.277	40379.29
544.478	40293.27
544.678	40579.99
544.878	40534.93
545.078	40747.92
545.279	39975.84
545.479	40379.29
545.679	40592.28
545.879	40555.41
546.079	40465.3
546.28	40059.8
546.48	40006.56
546.68	40608.66
546.88	40010.65
547.08	40526.74
547.28	39967.65
547.48	39936.93
547.68	40577.94
547.88	40008.61
548.081	40469.4
548.281	40362.9
548.481	40059.8
548.681	40412.06
548.881	40207.26
549.081	40117.15
549.28	40225.69
549.48	40180.63
549.68	39984.03
549.88	40692.63
550.08	39957.41
550.28	40068
550.48	40248.22
550.68	40706.96
550.88	39676.83
551.08	40043.42
551.279	40027.04
551.479	39736.23
551.679	39943.07
551.879	39596.96
552.079	40639.38
552.278	39775.14
552.478	39924.64
552.678	40244.12
552.878	40113.05
553.077	39961.5
553.277	39476.13
553.477	40436.63
553.676	40190.87
553.876	39605.16
554.076	39715.75
554.275	40002.46
554.475	39766.95
554.674	39859.1
554.874	39824.29
555.074	39758.75
555.273	39846.82
555.473	39822.24
555.672	39590.82
555.872	39900.06
556.071	39371.69
556.271	39809.95
556.47	39273.38
556.67	39095.21
556.869	39236.52
557.068	39238.57
557.268	39031.72
557.467	39070.64
557.667	39371.69
557.866	39418.79
558.065	39267.24
558.265	39158.7
558.464	39023.53
558.663	39093.16
558.863	38159.29
559.062	39453.61
559.261	38323.13
559.461	38998.96
559.66	38159.29
559.859	38411.19
560.058	38415.29
560.258	38550.45
560.457	38110.14
560.656	38810.54
560.855	38044.6
561.054	38581.17
561.253	38220.73
561.453	37944.25
561.652	38007.74
561.851	38466.49
562.05	38142.91
562.249	37563.33
562.448	37950.4
562.647	38144.95
562.846	37778.37
563.045	37553.09
563.244	37522.37
563.443	37940.16
563.642	37331.91
563.841	37759.94
564.04	37462.98
564.239	37551.04
564.438	37086.15
564.637	37397.45
564.836	37032.91
565.035	37102.54
565.234	37163.98
565.432	36635.6
565.631	36477.91
565.83	36473.81
566.029	36778.96
566.228	36484.05
566.427	36928.46
566.625	35873.76
566.824	35773.41
567.023	36352.98
567.222	35679.2
567.42	36221.91
567.619	36125.66
567.818	35982.3
568.016	36082.65
568.215	35732.45
568.414	35302.37
568.612	36416.47
568.811	35689.44
569.01	35908.57
569.208	35306.47
569.407	35437.54
569.605	35120.1
569.804	35435.49
570.002	34604.02
570.201	35001.32
570.4	34890.73
570.598	34577.39
570.797	34755.57
570.995	34702.32
571.193	34321.4
571.392	35099.62
571.59	34145.27
571.789	34382.84
571.987	34227.19
572.186	34020.34
572.384	33682.43
572.582	33983.48
572.781	34409.46
572.979	33833.98
573.177	33670.14
573.376	33768.44
573.574	33219.59
573.772	33786.88
573.971	33360.9
574.169	33166.34
574.367	33086.47
574.565	33704.96
574.763	33213.45
574.962	32863.24
575.16	32304.15
575.358	33145.86
575.556	32273.43
575.754	33233.92
575.952	32187.41
576.151	32963.59
576.349	32277.52
576.547	32179.22
576.745	32386.07
576.943	32070.68
577.141	32148.5
577.339	32216.08
577.537	32056.34
577.735	31968.28
577.933	31548.45
578.131	31915.03
578.329	31859.74
578.527	31616.03
578.725	31294.5
578.923	31441.95
579.121	31261.73
579.319	31294.5
579.516	31622.17
579.714	31239.2
579.912	30874.66
580.11	30934.06
580.308	30999.59
580.506	30936.1
580.704	30518.32
580.901	30819.37
581.099	30854.19
581.297	30483.5
581.495	30374.96
581.692	30577.71
581.89	29817.91
582.088	30360.62
582.285	30196.79
582.483	30446.64
582.681	30139.44
582.878	29989.94
583.076	29084.74
583.274	29891.64
583.471	29504.57
583.669	29719.61
583.866	29230.15
584.064	29699.13
584.262	29047.88
584.459	29586.49
584.657	29414.46
584.854	29158.47
585.052	28720.2
585.249	29281.35
585.447	29111.36
585.644	28732.49
585.841	28675.15
586.039	28712.01
586.236	28712.01
586.434	28398.67
586.631	28286.03
586.828	28519.5
587.026	28519.5
587.223	28337.23
587.42	28226.64
587.618	28138.58
587.815	27845.72
588.012	27726.94
588.21	27739.22
588.407	28218.45
588.604	27563.1
588.801	27706.46
588.999	28027.99
589.196	27509.85
589.393	27692.12
589.59	27358.3
589.787	27333.73
589.984	27446.37
590.182	26987.62
590.379	27116.64
590.576	27004
590.773	26969.19
590.97	26721.38
591.167	27104.35
591.364	26434.67
591.561	26715.24
591.758	26672.23
591.955	26520.68
592.152	26661.99
592.349	26514.54
592.546	26328.17
592.743	26252.4
592.94	25810.04
593.137	25988.21
593.334	26256.5
593.531	25687.16
593.727	25814.13
593.924	25781.37
594.121	25549.95
594.318	25797.75
594.515	25519.23
594.712	26000.5
594.908	25420.92
595.105	25511.03
595.302	24884.36
595.499	25377.92
595.696	25050.24
595.892	25238.65
596.089	25265.28
596.286	25296
596.482	24919.17
596.679	24636.55
596.876	24941.7
597.072	24575.11
597.269	24962.18
597.466	24419.47
597.662	24317.07
597.859	24579.21
598.055	24343.69
598.252	24028.31
598.448	24425.61
598.645	23936.15
598.841	23798.93
599.038	24073.36
599.234	23968.91
599.431	23401.63
599.627	23463.07
599.824	23766.17
600.02	23717.01
600.217	23536.79
600.413	23907.48
600.609	23508.12
600.806	23329.95
601.002	23178.4
601.198	23327.9
601.395	23123.1
601.591	22975.65
601.787	22959.27
601.984	23018.66
602.18	23221.41
602.376	22912.16
602.572	22891.68
602.769	22989.99
602.965	22830.24
603.161	22598.82
603.357	22492.33
603.553	22527.14
603.75	22406.31
603.946	22232.24
604.142	22316.2
604.338	22004.91
604.534	22428.84
604.73	21980.34
604.926	21925.04
605.122	21986.48
605.318	21460.15
605.514	21845.17
605.71	21808.31
605.906	21685.43
606.102	21546.17
606.298	21462.2
606.494	21408.95
606.69	21554.36
606.886	21623.99
607.082	21437.62
607.278	21615.8
607.474	20946.11
607.67	21279.93
607.866	20600.01
608.062	21220.54
608.257	21046.46
608.453	20933.82
608.649	21163.2
608.845	20827.33
609.041	20866.24
609.236	20878.53
609.432	20862.15
609.628	20614.34
609.824	20595.91
610.019	20425.93
610.215	20513.99
610.411	20653.25
610.606	20075.73
610.802	20630.73
610.998	20241.61
611.193	20585.67
611.389	20290.76
611.584	20436.17
611.78	20167.88
611.976	20014.29
612.171	20221.13
612.367	19875.02
612.562	20024.53
612.758	19860.69
612.953	19887.31
613.149	20131.02
613.344	19578.07
613.539	20165.84
613.735	19893.46
613.93	19889.36
614.126	19944.66
614.321	19838.16
614.517	19707.09
614.712	19729.62
614.907	19449.05
615.103	19696.85
615.298	19148
615.493	19672.28
615.688	19383.51
615.884	19944.66
616.079	19076.32
616.274	19608.79
616.47	19340.5
616.665	19442.9
616.86	19279.07
617.055	19045.6
617.25	19004.64
617.445	19104.99
617.641	18828.51
617.836	18879.71
618.031	18760.93
618.226	18920.67
618.421	18762.98
618.616	19012.83
618.811	18601.19
619.006	18982.11
619.201	18537.7
619.396	18513.13
619.591	18285.8
619.786	18490.6
619.981	18418.92
620.176	18304.23
620.371	18187.5
620.566	18109.68
620.761	17870.06
620.956	18255.08
621.151	17796.34
621.346	17992.94
621.541	17505.52
621.735	17601.78
621.93	17280.25
622.125	17319.16
622.32	17085.69
622.515	17372.41
622.709	17255.67
622.904	17155.32
623.099	16866.56
623.294	17173.75
623.488	17128.7
623.683	16798.98
623.878	16688.39
624.072	16483.59
624.267	16526.6
624.462	16592.13
624.656	16145.67
624.851	16485.64
625.046	15944.97
625.24	16100.62
625.435	16231.69
625.629	15774.99
625.824	15809.81
626.018	15930.64
626.213	15461.65
626.407	15666.45
626.602	15394.07
626.796	15574.29
626.991	15410.45
627.185	15156.5
627.38	15078.68
627.574	15011.1
627.768	15303.96
627.963	15054.11
628.157	14900.51
628.352	14822.69
628.546	14736.67
628.74	14679.33
628.935	14470.44
629.129	14660.9
629.323	14363.94
629.517	14157.1
629.712	14062.89
629.906	14130.47
630.1	13854
630.294	13980.97
630.489	13827.37
630.683	14263.59
630.877	13598
631.071	13669.68
631.265	13663.54
631.459	13483.31
631.653	13389.11
631.848	13505.84
632.042	13356.34
632.236	13208.89
632.43	13284.66
632.624	13231.41
632.818	12999.99
633.012	12901.69
633.206	13102.39
633.4	12934.46
633.594	12631.36
633.788	12561.73
633.982	12612.93
634.176	12559.68
634.369	12594.5
634.563	12645.7
634.757	12477.76
634.951	12449.09
635.145	12469.57
635.339	12186.95
635.533	12334.4
635.726	12207.43
635.92	11906.38
636.114	11990.35
636.308	11918.67
636.501	12082.5
636.695	11820.36
636.889	11611.47
637.083	11654.48
637.276	11789.64
637.47	11529.55
637.664	11453.78
637.857	11271.51
638.051	11265.36
638.244	11236.69
638.438	11308.37
638.632	11124.05
638.825	11189.59
639.019	11029.85
639.212	10917.21
639.406	10915.16
639.599	10966.36
639.793	10915.16
639.986	10394.98
640.18	10739.04
640.373	10769.76
640.567	10653.02
640.76	10601.82
640.954	10564.96
641.147	10255.72
641.34	10327.39
641.534	10380.64
641.727	10311.01
641.92	10401.12
642.114	9932.14
642.307	10052.97
642.5	9919.85
642.694	9792.87
642.887	9915.75
643.08	9985.38
643.273	9825.64
643.467	9655.66
643.66	9616.75
643.853	9715.05
644.046	9573.74
644.239	9551.21
644.432	9403.76
644.626	9377.14
644.819	9403.76
645.012	9547.12
645.205	9418.1
645.398	9135.48
645.591	9164.15
645.784	8977.78
645.977	9207.16
646.17	9088.37
646.363	9168.24
646.556	8750.46
646.749	8869.24
646.942	8848.76
647.135	8883.58
647.328	8613.24
647.521	8699.26
647.714	8641.92
647.907	8633.72
648.099	8609.15
648.292	8637.82
648.485	8504.7
648.678	8535.42
648.871	8416.64
649.064	8295.81
649.256	8488.32
649.449	8289.67
649.642	8299.91
649.835	8107.4
650.027	8238.47
650.22	8080.77
650.413	7902.6
650.605	7970.18
650.798	8027.53
650.991	7826.82
651.183	7847.3
651.376	7806.34
651.568	7804.3
651.761	7751.05
651.954	7875.98
652.146	7691.66
652.339	7841.16
652.531	7566.73
652.724	7585.16
652.916	7355.79
653.109	7269.78
653.301	7363.98
653.494	7382.42
653.686	7228.82
653.879	7484.81
654.071	7273.87
654.263	7216.53
654.456	7075.22
654.648	7339.41
654.84	6915.48
655.033	7005.59
655.225	7105.94
655.417	6958.49
655.61	6888.85
655.802	6829.46
655.994	7069.08
656.186	6917.53
656.379	6929.81
656.571	6942.1
656.763	6776.22
656.955	6682.01
657.148	6641.05
657.34	6497.69
657.532	6454.69
657.724	6608.28
657.916	6448.54
658.108	6536.6
658.3	6499.74
658.492	6507.93
658.684	6356.38
658.876	6266.27
659.068	6294.94
659.26	6290.85
659.452	6428.06
659.644	6229.41
659.836	6157.73
660.028	6221.22
660.22	6139.3
660.412	6147.49
660.604	6057.38
660.796	6020.52
660.988	5873.06
661.18	5957.03
661.372	5934.5
661.563	5971.36
661.755	5840.29
661.947	5752.23
662.139	5885.35
662.331	5623.21
662.522	5584.3
662.714	5807.53
662.906	5610.92
663.097	5658.03
663.289	5471.66
663.481	5612.97
663.673	5442.99
663.864	5520.81
664.056	5430.7
664.247	5526.96
664.439	5367.21
664.631	5449.13
664.822	5307.82
665.014	5359.02
665.205	5375.41
665.397	5326.25
665.588	5471.66
665.78	5166.51
665.971	5252.53
666.163	5264.82
666.354	5156.27
666.546	5176.75
666.737	5154.23
666.929	5012.92
667.12	5178.8
667.311	5203.38
667.503	5002.68
667.694	5066.16
667.885	4918.71
668.077	5057.97
668.268	4855.22
668.459	4906.42
668.651	4844.98
668.842	4971.96
669.033	4965.81
669.224	4828.6
669.416	4847.03
669.607	4867.51
669.798	4844.98
669.989	4941.24
670.18	4695.48
670.371	4664.76
670.563	4601.27
670.754	4799.93
670.945	4693.43
671.136	4627.9
671.327	4513.21
671.518	4621.75
671.709	4548.03
671.9	4470.2
672.091	4550.07
672.282	4566.46
672.473	4431.29
672.664	4521.4
672.855	4400.57
673.046	4574.65
673.237	4478.4
673.428	4404.67
673.619	4521.4
673.809	4447.68
674	4392.38
674.191	4146.62
674.382	4206.02
674.573	4380.09
674.764	4230.59
674.954	4183.49
675.145	4199.87
675.336	4283.84
675.527	4181.44
675.717	4251.07
675.908	4206.02
676.099	4206.02
676.289	4107.71
676.48	4206.02
676.671	4189.63
676.861	4246.98
677.052	4046.27
677.243	4144.58
677.433	4054.47
677.624	4070.85
677.814	4105.67
678.005	4009.41
678.195	4079.04
678.386	3978.69
678.576	3911.11
678.767	3988.93
678.957	3923.4
679.148	4150.72
679.338	4058.56
679.529	4005.31
679.719	3812.81
679.909	4033.99
680.1	3896.77
680.29	3984.84
680.481	3898.82
680.671	3904.96
680.861	3880.39
681.052	3896.77
681.242	3870.15
681.432	3993.03
681.622	3796.42
681.813	3886.53
682.003	3808.71
682.193	3835.33
682.383	3966.4
682.573	3761.61
682.764	3689.93
682.954	3866.05
683.144	3816.9
683.334	3730.89
683.524	3743.17
683.714	3827.14
683.904	3718.6
684.094	3767.75
684.284	3726.79
684.474	3612.1
684.664	3593.67
684.854	3651.02
685.044	3673.54
685.234	3816.9
685.424	3591.63
685.614	3595.72
685.804	3599.82
685.994	3493.32
686.184	3544.52
686.374	3513.8
686.564	3694.02
686.753	3696.07
686.943	3571.15
687.133	3587.53
687.323	3628.49
687.513	3468.75
687.702	3554.76
687.892	3341.77
688.082	3409.36
688.272	3489.23
688.461	3294.67
688.651	3476.94
688.841	3364.3
689.03	3323.34
689.22	3458.51
689.41	3349.96
689.599	3460.56
689.789	3304.91
689.979	3380.68
690.168	3247.57
690.358	3243.47
690.547	3274.19
690.737	3309.01
690.926	3300.81
691.116	3022.29
691.305	3212.75
691.495	3302.86
691.684	3247.57
691.874	3110.35
692.063	3202.51
692.252	3169.74
692.442	3274.19
692.631	3143.12
692.82	3034.58
693.01	3202.51
693.199	3085.78
693.388	3040.72
693.578	3128.78
693.767	3194.32
693.956	3106.26
694.146	3091.92
694.335	3012.05
694.524	2926.04
694.713	3059.15
694.902	3091.92
695.092	2987.47
695.281	3016.15
695.47	3042.77
695.659	3022.29
695.848	2960.85
696.037	3046.87
696.226	2932.18
696.415	3069.39
696.604	3089.87
696.793	2930.13
696.982	3003.86
697.171	2940.37
697.36	3036.63
697.549	2792.92
697.738	2751.96
697.927	2842.07
698.116	3001.81
698.305	3034.58
698.494	2835.92
698.683	2971.09
698.872	2891.22
699.061	2923.99
699.25	2928.08
699.438	2921.94
699.627	2897.36
699.816	2899.41
700.005	2928.08
700.193	2878.93
700.382	2934.23
700.571	2913.75
700.76	3030.48
700.948	2889.17
701.137	2840.02
701.326	2727.38
701.514	2846.16
701.703	2915.8
701.892	2825.68
702.08	2825.68
702.269	2874.84
702.457	2825.68
702.646	2770.39
702.834	2799.06
703.023	2825.68
703.212	2887.12
703.4	2885.08
703.589	2911.7
703.777	2891.22
703.965	2854.36
704.154	2776.53
704.342	2883.03
704.531	2885.08
704.719	2883.03
704.907	2915.8
705.096	2751.96
705.284	2852.31
705.472	2862.55
705.661	2727.38
705.849	2872.79
706.037	2909.65
706.226	2923.99
706.414	2809.3
706.602	2911.7
706.79	2745.81
706.979	2676.18
707.167	2794.97
707.355	2680.28
707.543	2923.99
707.731	2833.88
707.919	2850.26
708.107	2852.31
708.296	2766.29
708.484	2887.12
708.672	2792.92
708.86	2854.36
709.048	2858.45
709.236	2702.81
709.424	2784.73
709.612	2749.91
709.8	2735.57
709.988	2772.44
710.176	2948.56
710.364	2778.58
710.551	2870.74
710.739	2776.53
710.927	2807.25
711.115	2858.45
711.303	2856.4
711.491	2846.16
711.679	2797.01
711.866	2708.95
712.054	2770.39
712.242	2751.96
712.43	2858.45
712.617	2758.1
712.805	2770.39
712.993	2715.09
713.181	2649.56
713.368	2790.87
713.556	2780.63
713.744	2637.27
713.931	2817.49
714.119	2827.73
714.306	2696.66
714.494	2727.38
714.682	2702.81
714.869	2631.13
715.057	2606.55
715.244	2811.35
715.432	2723.29
715.619	2811.35
715.807	2719.19
715.994	2567.64
716.182	2756.05
716.369	2715.09
716.556	2790.87
716.744	2725.33
716.931	2610.65
717.119	2766.29
717.306	2913.75
717.493	2782.68
717.681	2708.95
717.868	2794.97
718.055	2706.9
718.242	2698.71
718.43	2670.04
718.617	2657.75
718.804	2653.66
718.991	2797.01
719.179	2756.05
719.366	2754.01
719.553	2837.97
719.74	2743.77
719.927	2772.44
720.114	2719.19
720.301	2700.76
720.488	2588.12
720.676	2624.98
720.863	2686.42
721.05	2614.74
721.237	2805.21
721.424	2684.38
721.611	2629.08
721.798	2620.89
721.985	2614.74
722.172	2731.48
722.358	2606.55
722.545	2624.98
722.732	2653.66
722.919	2700.76
723.106	2706.9
723.293	2698.71
723.48	2641.37
723.667	2657.75
723.853	2627.03
724.04	2686.42
724.227	2614.74
724.414	2549.21
724.6	2524.63
724.787	2512.35
724.974	2532.83
725.161	2602.46
725.347	2545.11
725.534	2569.69
725.72	2596.31
725.907	2498.01
726.094	2692.57
726.28	2577.88
726.467	2649.56
726.653	2643.42
726.84	2577.88
727.027	2776.53
727.213	2612.7
727.4	2637.27
727.586	2579.93
727.773	2518.49
727.959	2512.35
728.145	2604.5
728.332	2624.98
728.518	2522.59
728.705	2516.44
728.891	2725.33
729.077	2620.89
729.264	2457.05
729.45	2500.06
729.636	2645.46
729.823	2541.02
730.009	2596.31
730.195	2532.83
730.382	2575.83
730.568	2446.81
730.754	2559.45
730.94	2479.58
731.126	2577.88
731.313	2469.34
731.499	2500.06
731.685	2661.85
731.871	2350.56
732.057	2579.93
732.243	2469.34
732.429	2446.81
732.615	2491.87
732.801	2559.45
732.987	2493.91
733.173	2393.56
733.359	2342.36
733.545	2409.95
733.731	2475.48
733.917	2549.21
734.103	2473.43
734.289	2483.67
734.475	2498.01
734.661	2471.39
734.847	2487.77
735.033	2545.11
735.219	2471.39
735.404	2366.94
735.59	2452.95
735.776	2350.56
735.962	2383.32
736.148	2479.58
736.333	2352.6
736.519	2495.96
736.705	2414.04
736.89	2307.55
737.076	2356.7
737.262	2307.55
737.447	2360.8
737.633	2391.52
737.819	2256.35
738.004	2244.06
738.19	2254.3
738.375	2264.54
738.561	2334.17
738.747	2276.83
738.932	2227.68
739.118	2420.19
739.303	2182.62
739.489	2233.82
739.674	2321.88
739.859	2248.16
740.045	2233.82
740.23	2242.01
740.416	2100.7
740.601	2244.06
740.786	2184.67
740.972	2164.19
741.157	2180.57
741.342	2162.14
741.528	2086.37
741.713	2188.77
741.898	2239.97
742.084	2069.98
742.269	2176.48
742.454	2162.14
742.639	2141.66
742.824	2092.51
743.01	2117.09
743.195	2106.85
743.38	2045.41
743.565	2012.64
743.75	2022.88
743.935	1996.26
744.12	2063.84
744.305	1986.02
744.49	2076.13
744.675	2024.93
744.86	1945.06
745.045	1971.68
745.23	2108.9
745.415	2037.22
745.6	1990.11
745.785	1975.78
745.97	2026.98
746.155	1922.53
746.34	1961.44
746.525	1965.54
746.71	1906.15
746.895	1801.7
747.079	1850.85
747.264	1918.43
747.449	1900
747.634	1818.08
747.819	1807.84
748.003	1805.8
748.188	1732.07
748.373	1756.65
748.557	1783.27
748.742	1832.42
748.927	1717.73
749.111	1770.98
749.296	1680.87
749.481	1760.74
749.665	1701.35
749.85	1646.05
750.034	1678.82
750.219	1668.58
750.404	1699.3
750.588	1687.01
750.773	1576.42
750.957	1662.44
751.141	1658.34
751.326	1584.62
751.51	1646.05
751.695	1594.86
751.879	1629.67
752.064	1580.52
752.248	1557.99
752.432	1576.42
752.617	1508.84
752.801	1564.14
752.985	1656.29
753.17	1537.51
753.354	1547.75
753.538	1547.75
753.722	1398.25
753.907	1584.62
754.091	1486.31
754.275	1476.07
754.459	1467.88
754.643	1451.5
754.828	1469.93
755.012	1404.39
755.196	1332.72
755.38	1304.04
755.564	1441.26
755.748	1367.53
755.932	1322.48
756.116	1404.39
756.3	1322.48
756.484	1285.61
756.668	1267.18
756.852	1314.28
757.036	1383.91
757.22	1312.24
757.404	1224.17
757.588	1218.03
757.772	1302
757.956	1244.65
758.14	1267.18
758.323	1226.22
758.507	1158.64
758.691	1172.97
758.875	1177.07
759.059	1273.32
759.242	1129.97
759.426	1117.68
759.61	1140.21
759.794	1269.23
759.977	1269.23
760.161	1248.75
760.345	1273.32
760.528	1158.64
760.712	1113.58
760.895	1248.75
761.079	1146.35
761.263	1177.07
761.446	1093.1
761.63	1097.2
761.813	1170.93
761.997	1035.76
762.18	1060.34
762.364	1076.72
762.547	1015.28
762.731	1025.52
762.914	1089.01
763.098	1041.9
763.281	1097.2
763.464	1048.05
763.648	1019.38
763.831	1119.73
764.015	984.56
764.198	1048.05
764.381	1113.58
764.564	1029.62
764.748	986.61
764.931	1021.42
765.114	1015.28
765.297	933.36
765.481	1007.09
765.664	949.75
765.847	1000.94
766.03	1039.86
766.213	980.47
766.397	871.92
766.58	914.93
766.763	1054.19
766.946	943.6
767.129	949.75
767.312	1048.05
767.495	959.99
767.678	921.07
767.861	959.99
768.044	986.61
768.227	878.07
768.41	972.27
768.593	908.79
768.776	925.17
768.959	921.07
769.142	939.51
769.324	980.47
769.507	886.26
769.69	900.59
769.873	902.64
770.056	1011.18
770.239	921.07
770.421	816.63
770.604	855.54
770.787	804.34
770.97	814.58
771.152	861.68
771.335	931.31
771.518	753.14
771.7	884.21
771.883	865.78
772.066	845.3
772.248	859.63
772.431	806.39
772.613	871.92
772.796	810.48
772.978	802.29
773.161	845.3
773.343	759.28
773.526	749.04
773.708	726.52
773.891	718.33
774.073	773.62
774.256	706.04
774.438	835.06
774.621	830.96
774.803	845.3
774.985	720.37
775.168	646.65
775.35	652.79
775.532	828.92
775.715	650.74
775.897	785.91
776.079	734.71
776.261	644.6
776.444	740.85
776.626	765.43
776.808	673.27
776.99	646.65
777.173	689.65
777.355	693.75
777.537	761.33
777.719	640.5
777.901	574.97
778.083	699.89
778.265	564.73
778.447	726.52
778.629	640.5
778.811	683.51
778.993	681.46
779.175	663.03
779.357	671.22
779.539	615.93
779.721	642.55
779.903	642.55
780.085	642.55
780.267	599.54
780.449	607.73
780.631	607.73
780.812	577.02
780.994	589.3
781.176	609.78
781.358	560.63
781.54	634.36
781.721	609.78
781.903	527.86
782.085	499.19
782.267	556.54
782.448	472.57
782.63	538.1
782.812	445.95
782.993	548.34
783.175	525.82
783.357	568.82
783.538	534.01
783.72	540.15
783.901	488.95
784.083	488.95
784.264	421.37
784.446	452.09
784.627	501.24
784.809	568.82
784.99	499.19
785.172	466.42
785.353	472.57
785.535	435.71
785.716	505.34
785.897	527.86
786.079	413.18
786.26	409.08
786.441	429.56
786.623	454.14
786.804	425.47
786.985	458.23
787.167	470.52
787.348	441.85
787.529	398.84
787.71	474.62
787.891	472.57
788.073	298.49
788.254	349.69
788.435	421.37
788.616	409.08
788.797	413.18
788.978	407.03
789.159	353.79
789.34	441.85
789.522	388.6
789.703	400.89
789.884	421.37
790.065	388.6
790.246	368.12
790.427	402.94
790.607	431.61
790.788	396.79
790.969	345.59
791.15	302.59
791.331	294.4
791.512	329.21
791.693	374.27
791.874	278.01
792.054	400.89
792.235	407.03
792.416	419.32
792.597	325.12
792.778	310.78
792.958	329.21
793.139	278.01
793.32	327.16
793.5	400.89
793.681	388.6
793.862	310.78
794.042	364.03
794.223	327.16
794.404	345.59
794.584	257.53
794.765	228.86
794.945	273.92
795.126	407.03
795.306	355.83
795.487	316.92
795.667	314.88
795.848	312.83
796.028	271.87
796.209	310.78
796.389	310.78
796.57	343.55
796.75	245.24
796.93	396.79
797.111	241.15
797.291	226.81
797.471	271.87
797.652	312.83
797.832	235
798.012	325.12
798.192	245.24
798.373	210.43
798.553	208.38
798.733	284.16
798.913	314.88
799.093	200.19
799.274	302.59
799.454	364.03
799.634	327.16
799.814	286.2
799.994	290.3
800.174	292.35
800.354	241.15
800.534	165.37
800.714	261.63
800.894	204.28
801.074	257.53
801.254	310.78
801.434	306.68
801.614	218.62
801.794	267.77
801.974	826.87
802.154	214.52
802.334	247.29
802.514	226.81
802.693	220.67
802.873	196.09
803.053	263.68
803.233	263.68
803.413	275.96
803.592	183.81
803.772	220.67
803.952	257.53
804.131	224.76
804.311	241.15
804.491	224.76
804.67	179.71
804.85	228.86
805.03	359.93
805.209	237.05
805.389	138.75
805.568	241.15
805.748	183.81
805.928	163.33
806.107	237.05
806.287	267.77
806.466	241.15
806.646	286.2
806.825	267.77
807.004	198.14
807.184	235
807.363	237.05
807.543	239.1
807.722	224.76
807.901	241.15
808.081	247.29
808.26	130.56
808.439	194.05
808.619	167.42
808.798	204.28
808.977	136.7
809.156	257.53
809.336	177.66
809.515	235
809.694	132.61
809.873	241.15
810.052	183.81
810.231	269.82
810.411	204.28
810.59	185.85
810.769	194.05
810.948	224.76
811.127	210.43
811.306	251.39
811.485	189.95
811.664	214.52
811.843	192
812.022	237.05
812.201	179.71
812.38	110.08
812.559	173.57
812.737	241.15
812.916	196.09
813.095	204.28
813.274	175.61
813.453	89.6
813.632	198.14
813.811	226.81
813.989	138.75
814.168	228.86
814.347	169.47
814.526	155.13
814.704	189.95
814.883	140.8
815.062	126.46
815.24	142.85
815.419	163.33
815.598	185.85
815.776	67.07
815.955	185.85
816.133	60.93
816.312	138.75
816.49	146.94
816.669	83.45
816.847	140.8
817.026	136.7
817.204	91.65
817.383	114.17
817.561	112.13
817.74	138.75
817.918	167.42
818.097	159.23
818.275	120.32
818.453	124.41
818.632	161.28
818.81	128.51
818.988	105.98
819.167	187.9
819.345	148.99
819.523	142.85
819.701	128.51
819.879	120.32
820.058	75.26
820.236	142.85
820.414	87.55
820.592	101.89
820.77	155.13
820.948	110.08
821.127	128.51
821.305	132.61
821.483	32.26
821.661	136.7
821.839	81.41
822.017	83.45
822.195	110.08
822.373	165.37
822.551	118.27
822.729	144.89
822.907	73.21
823.085	118.27
823.262	93.69
823.44	58.88
823.618	101.89
823.796	122.37
823.974	91.65
824.152	101.89
824.329	151.04
824.507	112.13
824.685	171.52
824.863	105.98
825.04	126.46
825.218	161.28
825.396	89.6
825.574	167.42
825.751	138.75
825.929	95.74
826.107	65.02
826.284	28.16
826.462	93.69
826.639	24.06
826.817	60.93
826.994	75.26
827.172	124.41
827.349	175.61
827.527	56.83
827.704	134.65
827.882	24.06
828.059	155.13
828.237	44.54
828.414	126.46
828.591	48.64
828.769	105.98
828.946	36.35
829.124	67.07
829.301	105.98
829.478	179.71
829.655	73.21
829.833	126.46
830.01	38.4
830.187	62.98
830.364	30.21
830.542	42.5
830.719	73.21
830.896	122.37
831.073	97.79
831.25	99.84
831.427	46.59
831.604	85.5
831.782	124.41
831.959	91.65
832.136	89.6
832.313	71.17
832.49	77.31
832.667	91.65
832.844	73.21
833.021	151.04
833.198	60.93
833.374	101.89
833.551	19.97
833.728	46.59
833.905	95.74
834.082	89.6
834.259	-4.61
834.436	116.22
834.612	142.85
834.789	130.56
834.966	48.64
835.143	122.37
835.319	77.31
835.496	87.55
835.673	89.6
835.85	28.16
836.026	169.47
836.203	36.35
836.38	60.93
836.556	44.54
836.733	24.06
836.909	108.03
837.086	87.55
837.262	17.92
837.439	15.87
837.616	44.54
837.792	167.42
837.968	95.74
838.145	56.83
838.321	122.37
838.498	73.21
838.674	44.54
838.851	97.79
839.027	73.21
839.203	60.93
839.38	157.18
839.556	52.74
839.732	73.21
839.909	87.55
840.085	71.17
840.261	97.79
840.437	28.16
840.614	97.79
840.79	48.64
840.966	120.32
841.142	71.17
841.318	5.63
841.494	3.58
841.671	71.17
841.847	62.98
842.023	62.98
842.199	48.64
842.375	34.3
842.551	28.16
842.727	38.4
842.903	79.36
843.079	42.5
843.255	97.79
843.431	122.37
843.607	122.37
843.783	22.02
843.959	97.79
844.134	85.5
844.31	83.45
844.486	148.99
844.662	77.31
844.838	60.93
845.013	120.32
845.189	71.17
845.365	75.26
845.541	40.45
845.716	83.45
845.892	112.13
846.068	62.98
846.244	44.54
846.419	130.56
846.595	54.78
846.77	34.3
846.946	65.02
847.122	-10.75
847.297	91.65
847.473	22.02
847.648	7.68
847.824	36.35
847.999	24.06
848.175	77.31
848.35	108.03
848.526	38.4
848.701	69.12
848.876	11.78
849.052	67.07
849.227	11.78
849.403	36.35
849.578	50.69
849.753	62.98
849.929	65.02
850.104	52.74
850.279	48.64
850.454	34.3
850.63	56.83
850.805	38.4
850.98	40.45
851.155	48.64
851.33	73.21
851.505	-29.18
851.681	65.02
851.856	13.82
852.031	-0.51
852.206	126.46
852.381	24.06
852.556	32.26
852.731	93.69
852.906	-0.51
853.081	58.88
853.256	50.69
853.431	44.54
853.606	30.21
853.781	67.07
853.956	38.4
854.131	71.17
854.305	11.78
854.48	-8.7
854.655	-10.75
854.83	-33.28
855.005	-29.18
855.18	42.5
855.354	54.78
855.529	89.6
855.704	3.58
855.879	54.78
856.053	44.54
856.228	85.5
856.403	-0.51
856.577	85.5
856.752	1.54
856.926	77.31
857.101	118.27
857.276	85.5
857.45	28.16
857.625	54.78
857.799	7.68
857.974	7.68
858.148	-59.9
858.323	11.78
858.497	-78.33
858.672	60.93
858.846	40.45
859.02	19.97
859.195	40.45
859.369	28.16
859.543	-41.47
859.718	56.83
859.892	24.06
860.066	1.54
860.241	15.87
860.415	11.78
860.589	46.59
860.763	-2.56
860.938	60.93
861.112	75.26
861.286	-25.09
861.46	83.45
861.634	-27.14
861.808	93.69
861.982	112.13
862.157	-49.66
862.331	71.17
862.505	32.26
862.679	24.06
862.853	38.4
863.027	65.02
863.201	77.31
863.375	-45.57
863.549	24.06
863.722	17.92
863.896	71.17
864.07	54.78
864.244	46.59
864.418	40.45
864.592	26.11
864.766	30.21
864.939	83.45
865.113	75.26
865.287	99.84
865.461	60.93
865.634	77.31
865.808	79.36
865.982	60.93
866.156	81.41
866.329	11.78
866.503	11.78
866.676	42.5
866.85	26.11
867.024	-0.51
867.197	91.65
867.371	73.21
867.544	93.69
867.718	17.92
867.891	7.68
868.065	9.73
868.238	87.55
868.412	77.31
868.585	11.78
868.759	22.02
868.932	7.68
869.105	24.06
869.279	46.59
869.452	67.07
869.625	71.17
869.799	11.78
869.972	36.35
870.145	44.54
870.319	28.16
870.492	54.78
870.665	17.92
870.838	24.06
871.011	-90.62
871.185	36.35
871.358	15.87
871.531	-4.61
871.704	-20.99
871.877	77.31
872.05	50.69
872.223	30.21
872.396	-35.33
872.569	36.35
872.742	22.02
872.915	75.26
873.088	40.45
873.261	-12.8
873.434	36.35
873.607	52.74
873.78	40.45
873.953	-49.66
874.126	-57.86
874.299	-12.8
874.471	-25.09
874.644	48.64
874.817	19.97
874.99	42.5
875.163	5.63
875.335	42.5
875.508	9.73
875.681	-18.94
875.853	5.63
876.026	75.26
876.199	36.35
876.371	114.17
876.544	-41.47
876.717	36.35
876.889	65.02
877.062	103.93
877.234	11.78
877.407	-41.47
877.579	52.74
877.752	-0.51
877.924	81.41
878.097	44.54
878.269	22.02
878.442	81.41
878.614	15.87
878.786	22.02
878.959	34.3
879.131	-18.94
879.303	-57.86
879.476	-37.38
879.648	24.06
879.82	15.87
879.993	-16.9
880.165	40.45
880.337	46.59
880.509	-33.28
880.681	-31.23
880.854	30.21
881.026	-57.86
881.198	79.36
881.37	62.98
881.542	-20.99
881.714	71.17
881.886	34.3
882.058	-27.14
882.23	-0.51
882.402	54.78
882.574	30.21
882.746	28.16
882.918	108.03
883.09	7.68
883.262	13.82
883.434	-16.9
883.606	-90.62
883.778	50.69
883.95	85.5
884.122	-41.47
884.293	44.54
884.465	-14.85
884.637	48.64
884.809	-51.71
884.98	52.74
885.152	-35.33
885.324	46.59
885.496	-72.19
885.667	56.83
885.839	-61.95
886.011	81.41
886.182	5.63
886.354	22.02
886.525	-25.09
886.697	62.98
886.869	60.93
887.04	-33.28
887.212	71.17
887.383	81.41
887.555	36.35
887.726	38.4
887.897	48.64
888.069	-39.42
888.24	11.78
888.412	56.83
888.583	-4.61
888.754	7.68
888.926	-70.14
889.097	-0.51
889.268	11.78
889.44	62.98
889.611	30.21
889.782	83.45
889.953	30.21
890.125	75.26
890.296	13.82
890.467	65.02
890.638	-111.1
890.809	19.97
890.98	5.63
891.151	34.3
891.323	-20.99
891.494	32.26
891.665	-18.94
891.836	7.68
892.007	-12.8
892.178	22.02
892.349	-12.8
892.52	42.5
892.691	3.58
892.862	56.83
893.032	28.16
893.203	-66.05
893.374	26.11
893.545	85.5
893.716	40.45
893.887	60.93
894.057	15.87
894.228	60.93
894.399	79.36
894.57	11.78
894.74	-18.94
894.911	38.4
895.082	-23.04
895.253	-20.99
895.423	-41.47
895.594	11.78
895.764	32.26
895.935	-27.14
896.106	7.68
896.276	-2.56
896.447	19.97
896.617	28.16
896.788	22.02
896.958	7.68
897.129	3.58
897.299	22.02
897.47	50.69
897.64	40.45
897.81	32.26
897.981	81.41
898.151	36.35
898.322	24.06
898.492	13.82
898.662	-41.47
898.832	36.35
899.003	32.26
899.173	-8.7
899.343	-74.24
899.513	19.97
