Data from USB4F104151__168__10-27-24-829.txt Node

Date: Wed Mar 12 10:27:24 EDT 2025
User: louis
Spectrometer: USB4F10415
Trigger mode: 4
Integration Time (sec): 3.000000E-2
Scans to average: 1
Electric dark correction enabled: true
Nonlinearity correction enabled: false
Boxcar width: 0
XAxis mode: Wavelengths
Number of Pixels in Spectrum: 3648
>>>>>Begin Spectral Data<<<<<
178.204	-147.11
178.424	-147.11
178.644	-147.11
178.864	-190.12
179.084	-140.97
179.304	-9.9
179.524	-40.62
179.744	14.68
179.964	-1.71
180.184	-18.09
180.404	16.73
180.624	0.34
180.844	65.88
181.064	-42.67
181.283	53.59
181.503	-36.52
181.723	-1.71
181.943	-18.09
182.163	59.73
182.383	-13.99
182.602	22.87
182.822	29.01
183.042	2.39
183.262	-32.43
183.482	-18.09
183.701	-9.9
183.921	-5.8
184.141	22.87
184.361	-18.09
184.58	39.25
184.8	55.64
185.02	16.73
185.239	49.49
185.459	20.82
185.679	92.5
185.898	-13.99
186.118	-16.04
186.338	49.49
186.557	20.82
186.777	-18.09
186.997	8.53
187.216	39.25
187.436	53.59
187.655	-36.52
187.875	18.77
188.095	-18.09
188.314	31.06
188.534	104.79
188.753	-7.85
188.973	-22.19
189.192	57.68
189.412	78.16
189.631	82.26
189.851	12.63
190.07	0.34
190.29	14.68
190.509	-18.09
190.729	-7.85
190.948	55.64
191.168	137.56
191.387	45.4
191.607	-40.62
191.826	39.25
192.045	35.16
192.265	80.21
192.484	24.92
192.704	80.21
192.923	10.58
193.142	39.25
193.362	-16.04
193.581	16.73
193.8	45.4
194.02	84.31
194.239	-1.71
194.458	59.73
194.678	-7.85
194.897	57.68
195.116	31.06
195.335	47.44
195.555	-18.09
195.774	10.58
195.993	53.59
196.212	94.55
196.432	26.96
196.651	10.58
196.87	-1.71
197.089	102.74
197.308	6.49
197.528	2.39
197.747	29.01
197.966	4.44
198.185	108.88
198.404	-3.75
198.623	-24.23
198.842	12.63
199.062	61.78
199.281	2.39
199.5	-9.9
199.719	84.31
199.938	33.11
200.157	33.11
200.376	-3.75
200.595	41.3
200.814	31.06
201.033	37.2
201.252	47.44
201.471	67.92
201.69	59.73
201.909	29.01
202.128	31.06
202.347	8.53
202.566	26.96
202.785	-26.28
203.004	8.53
203.223	131.41
203.442	26.96
203.661	-46.76
203.879	72.02
204.098	117.08
204.317	37.2
204.536	65.88
204.755	-5.8
204.974	12.63
205.193	24.92
205.411	82.26
205.63	16.73
205.849	26.96
206.068	20.82
206.287	35.16
206.505	-5.8
206.724	-13.99
206.943	0.34
207.162	65.88
207.381	39.25
207.599	-36.52
207.818	14.68
208.037	24.92
208.255	-16.04
208.474	63.83
208.693	10.58
208.911	-13.99
209.13	18.77
209.349	39.25
209.567	61.78
209.786	39.25
210.005	61.78
210.223	90.45
210.442	51.54
210.661	-24.23
210.879	-50.86
211.098	74.07
211.316	45.4
211.535	14.68
211.753	18.77
211.972	115.03
212.191	-9.9
212.409	43.35
212.628	61.78
212.846	10.58
213.065	96.6
213.283	69.97
213.502	14.68
213.72	61.78
213.938	31.06
214.157	61.78
214.375	-24.23
214.594	59.73
214.812	53.59
215.031	12.63
215.249	67.92
215.467	-34.47
215.686	-20.14
215.904	129.36
216.122	-63.15
216.341	61.78
216.559	-42.67
216.778	82.26
216.996	29.01
217.214	108.88
217.432	-42.67
217.651	-85.67
217.869	10.58
218.087	76.12
218.306	37.2
218.524	20.82
218.742	-9.9
218.96	74.07
219.179	4.44
219.397	26.96
219.615	22.87
219.833	80.21
220.051	-42.67
220.27	55.64
220.488	26.96
220.706	45.4
220.924	31.06
221.142	6.49
221.36	-1.71
221.578	72.02
221.796	37.2
222.015	22.87
222.233	84.31
222.451	49.49
222.669	2.39
222.887	24.92
223.105	10.58
223.323	-3.75
223.541	-54.95
223.759	20.82
223.977	43.35
224.195	-26.28
224.413	63.83
224.631	39.25
224.849	49.49
225.067	119.12
225.285	-20.14
225.503	10.58
225.721	16.73
225.939	-3.75
226.157	22.87
226.375	112.98
226.592	-67.24
226.81	31.06
227.028	12.63
227.246	151.89
227.464	-16.04
227.682	84.31
227.9	14.68
228.117	20.82
228.335	2.39
228.553	31.06
228.771	49.49
228.989	18.77
229.206	69.97
229.424	-22.19
229.642	-1.71
229.86	-50.86
230.077	39.25
230.295	-7.85
230.513	74.07
230.731	-11.95
230.948	80.21
231.166	2.39
231.384	43.35
231.601	-44.71
231.819	39.25
232.037	92.5
232.254	12.63
232.472	69.97
232.689	-5.8
232.907	55.64
233.125	63.83
233.342	-46.76
233.56	26.96
233.777	22.87
233.995	47.44
234.213	43.35
234.43	-24.23
234.648	37.2
234.865	-18.09
235.083	18.77
235.3	41.3
235.518	45.4
235.735	100.69
235.953	41.3
236.17	-26.28
236.388	10.58
236.605	29.01
236.822	104.79
237.04	86.36
237.257	6.49
237.475	51.54
237.692	31.06
237.909	39.25
238.127	-26.28
238.344	55.64
238.562	-18.09
238.779	6.49
238.996	10.58
239.214	94.55
239.431	29.01
239.648	18.77
239.865	29.01
240.083	-34.47
240.3	53.59
240.517	-42.67
240.735	22.87
240.952	41.3
241.169	102.74
241.386	10.58
241.603	8.53
241.821	31.06
242.038	10.58
242.255	2.39
242.472	2.39
242.689	59.73
242.907	37.2
243.124	14.68
243.341	12.63
243.558	-30.38
243.775	2.39
243.992	-44.71
244.209	119.12
244.426	94.55
244.643	43.35
244.86	6.49
245.078	29.01
245.295	61.78
245.512	-42.67
245.729	-42.67
245.946	98.64
246.163	45.4
246.38	26.96
246.597	72.02
246.814	61.78
247.031	-1.71
247.248	108.88
247.464	31.06
247.681	14.68
247.898	72.02
248.115	49.49
248.332	39.25
248.549	98.64
248.766	96.6
248.983	100.69
249.2	-9.9
249.417	104.79
249.633	12.63
249.85	-13.99
250.067	-11.95
250.284	12.63
250.501	96.6
250.717	129.36
250.934	18.77
251.151	29.01
251.368	96.6
251.585	108.88
251.801	69.97
252.018	49.49
252.235	45.4
252.451	112.98
252.668	14.68
252.885	-26.28
253.102	-1.71
253.318	53.59
253.535	31.06
253.752	-18.09
253.968	35.16
254.185	-5.8
254.401	61.78
254.618	-18.09
254.835	-5.8
255.051	24.92
255.268	57.68
255.484	53.59
255.701	18.77
255.917	37.2
256.134	26.96
256.351	4.44
256.567	-77.48
256.784	84.31
257	-83.63
257.217	22.87
257.433	57.68
257.65	106.84
257.866	-11.95
258.082	31.06
258.299	18.77
258.515	102.74
258.732	0.34
258.948	-16.04
259.165	-40.62
259.381	31.06
259.597	-13.99
259.814	10.58
260.03	-7.85
260.246	-16.04
260.463	63.83
260.679	59.73
260.895	16.73
261.112	29.01
261.328	94.55
261.544	45.4
261.761	82.26
261.977	94.55
262.193	-20.14
262.409	10.58
262.626	69.97
262.842	16.73
263.058	-9.9
263.274	78.16
263.49	39.25
263.707	86.36
263.923	0.34
264.139	22.87
264.355	39.25
264.571	45.4
264.787	82.26
265.004	117.08
265.22	10.58
265.436	-50.86
265.652	10.58
265.868	31.06
266.084	37.2
266.3	53.59
266.516	18.77
266.732	-20.14
266.948	8.53
267.164	41.3
267.38	31.06
267.596	16.73
267.812	53.59
268.028	-61.1
268.244	35.16
268.46	-16.04
268.676	-13.99
268.892	-18.09
269.108	8.53
269.324	43.35
269.54	43.35
269.756	53.59
269.972	39.25
270.188	51.54
270.403	37.2
270.619	76.12
270.835	39.25
271.051	26.96
271.267	-44.71
271.483	39.25
271.698	55.64
271.914	69.97
272.13	-3.75
272.346	57.68
272.562	72.02
272.777	31.06
272.993	8.53
273.209	14.68
273.425	-11.95
273.64	-3.75
273.856	45.4
274.072	37.2
274.287	29.01
274.503	14.68
274.719	45.4
274.934	20.82
275.15	-32.43
275.366	47.44
275.581	43.35
275.797	-34.47
276.012	88.4
276.228	-3.75
276.444	39.25
276.659	2.39
276.875	18.77
277.09	90.45
277.306	-3.75
277.521	-20.14
277.737	39.25
277.952	26.96
278.168	76.12
278.383	33.11
278.599	10.58
278.814	14.68
279.03	72.02
279.245	94.55
279.461	53.59
279.676	88.4
279.892	2.39
280.107	-9.9
280.322	22.87
280.538	-7.85
280.753	47.44
280.969	39.25
281.184	-34.47
281.399	69.97
281.615	8.53
281.83	-30.38
282.045	-20.14
282.26	-3.75
282.476	-52.91
282.691	80.21
282.906	2.39
283.122	61.78
283.337	-34.47
283.552	94.55
283.767	16.73
283.983	110.93
284.198	41.3
284.413	80.21
284.628	92.5
284.843	-50.86
285.058	22.87
285.274	39.25
285.489	102.74
285.704	37.2
285.919	43.35
286.134	24.92
286.349	10.58
286.564	43.35
286.779	94.55
286.995	24.92
287.21	6.49
287.425	65.88
287.64	10.58
287.855	16.73
288.07	-1.71
288.285	100.69
288.5	2.39
288.715	31.06
288.93	4.44
289.145	76.12
289.36	53.59
289.575	12.63
289.79	78.16
290.004	45.4
290.219	43.35
290.434	41.3
290.649	0.34
290.864	-42.67
291.079	-61.1
291.294	29.01
291.509	14.68
291.724	22.87
291.938	35.16
292.153	63.83
292.368	-26.28
292.583	57.68
292.798	117.08
293.012	-5.8
293.227	-26.28
293.442	-13.99
293.657	49.49
293.871	108.88
294.086	-16.04
294.301	43.35
294.516	63.83
294.73	14.68
294.945	80.21
295.16	-3.75
295.374	-16.04
295.589	76.12
295.804	14.68
296.018	96.6
296.233	67.92
296.447	39.25
296.662	106.84
296.877	37.2
297.091	61.78
297.306	53.59
297.52	53.59
297.735	22.87
297.949	37.2
298.164	8.53
298.378	0.34
298.593	31.06
298.807	55.64
299.022	69.97
299.236	6.49
299.451	63.83
299.665	2.39
299.88	47.44
300.094	26.96
300.309	76.12
300.523	4.44
300.737	37.2
300.952	31.06
301.166	131.41
301.381	-46.76
301.595	12.63
301.809	26.96
302.024	-16.04
302.238	53.59
302.452	88.4
302.667	10.58
302.881	78.16
303.095	65.88
303.309	37.2
303.524	22.87
303.738	-18.09
303.952	80.21
304.166	67.92
304.381	-38.57
304.595	131.41
304.809	-26.28
305.023	129.36
305.237	-34.47
305.452	-5.8
305.666	69.97
305.88	41.3
306.094	47.44
306.308	6.49
306.522	31.06
306.736	-108.2
306.95	-16.04
307.164	67.92
307.379	35.16
307.593	108.88
307.807	59.73
308.021	84.31
308.235	86.36
308.449	-52.91
308.663	0.34
308.877	65.88
309.091	59.73
309.305	78.16
309.519	-52.91
309.733	16.73
309.947	14.68
310.161	45.4
310.374	78.16
310.588	65.88
310.802	-5.8
311.016	55.64
311.23	117.08
311.444	6.49
311.658	4.44
311.872	43.35
312.085	20.82
312.299	53.59
312.513	86.36
312.727	35.16
312.941	0.34
313.154	26.96
313.368	100.69
313.582	63.83
313.796	57.68
314.009	35.16
314.223	47.44
314.437	-18.09
314.651	24.92
314.864	-1.71
315.078	-11.95
315.292	22.87
315.505	8.53
315.719	100.69
315.933	49.49
316.146	37.2
316.36	16.73
316.573	31.06
316.787	88.4
317.001	14.68
317.214	-9.9
317.428	47.44
317.641	-20.14
317.855	-63.15
318.068	47.44
318.282	14.68
318.495	37.2
318.709	39.25
318.922	-16.04
319.136	94.55
319.349	106.84
319.563	-1.71
319.776	57.68
319.99	55.64
320.203	-46.76
320.417	-3.75
320.63	35.16
320.843	84.31
321.057	92.5
321.27	26.96
321.483	86.36
321.697	51.54
321.91	14.68
322.124	-34.47
322.337	14.68
322.55	2.39
322.763	47.44
322.977	10.58
323.19	47.44
323.403	37.2
323.617	2.39
323.83	20.82
324.043	37.2
324.256	43.35
324.469	-38.57
324.683	-63.15
324.896	10.58
325.109	-22.19
325.322	-5.8
325.535	33.11
325.748	37.2
325.962	12.63
326.175	37.2
326.388	49.49
326.601	123.22
326.814	-11.95
327.027	41.3
327.24	41.3
327.453	10.58
327.666	-52.91
327.879	26.96
328.092	39.25
328.305	115.03
328.518	0.34
328.731	-7.85
328.944	2.39
329.157	6.49
329.37	61.78
329.583	49.49
329.796	-22.19
330.009	-38.57
330.222	12.63
330.435	31.06
330.648	43.35
330.861	22.87
331.073	76.12
331.286	39.25
331.499	80.21
331.712	29.01
331.925	18.77
332.138	47.44
332.35	102.74
332.563	-18.09
332.776	100.69
332.989	-34.47
333.202	45.4
333.414	10.58
333.627	22.87
333.84	51.54
334.053	29.01
334.265	22.87
334.478	43.35
334.691	-9.9
334.903	67.92
335.116	6.49
335.329	72.02
335.541	41.3
335.754	186.71
335.966	29.01
336.179	59.73
336.392	-38.57
336.604	-3.75
336.817	-1.71
337.029	14.68
337.242	-11.95
337.454	76.12
337.667	43.35
337.88	45.4
338.092	2.39
338.305	24.92
338.517	-20.14
338.729	121.17
338.942	33.11
339.154	115.03
339.367	115.03
339.579	18.77
339.792	88.4
340.004	24.92
340.217	4.44
340.429	-1.71
340.641	76.12
340.854	22.87
341.066	18.77
341.278	8.53
341.491	-40.62
341.703	22.87
341.915	-22.19
342.128	57.68
342.34	59.73
342.552	59.73
342.764	88.4
342.977	31.06
343.189	82.26
343.401	47.44
343.613	-13.99
343.826	96.6
344.038	-67.24
344.25	57.68
344.462	-30.38
344.674	76.12
344.886	31.06
345.099	-3.75
345.311	88.4
345.523	-5.8
345.735	-20.14
345.947	37.2
346.159	55.64
346.371	22.87
346.583	10.58
346.795	29.01
347.007	-40.62
347.219	-16.04
347.431	112.98
347.643	106.84
347.855	96.6
348.067	45.4
348.279	12.63
348.491	41.3
348.703	82.26
348.915	84.31
349.127	94.55
349.339	16.73
349.551	18.77
349.763	12.63
349.975	104.79
350.187	20.82
350.399	55.64
350.61	82.26
350.822	39.25
351.034	51.54
351.246	78.16
351.458	63.83
351.669	78.16
351.881	145.75
352.093	88.4
352.305	76.12
352.517	51.54
352.728	76.12
352.94	39.25
353.152	6.49
353.363	-32.43
353.575	39.25
353.787	141.65
353.999	86.36
354.21	26.96
354.422	43.35
354.633	69.97
354.845	67.92
355.057	16.73
355.268	123.22
355.48	104.79
355.692	67.92
355.903	55.64
356.115	2.39
356.326	51.54
356.538	90.45
356.749	29.01
356.961	127.32
357.172	106.84
357.384	26.96
357.595	47.44
357.807	14.68
358.018	67.92
358.23	53.59
358.441	61.78
358.653	63.83
358.864	43.35
359.075	29.01
359.287	104.79
359.498	51.54
359.709	39.25
359.921	53.59
360.132	26.96
360.344	6.49
360.555	43.35
360.766	-9.9
360.977	74.07
361.189	33.11
361.4	31.06
361.611	47.44
361.823	22.87
362.034	33.11
362.245	39.25
362.456	37.2
362.667	137.56
362.879	49.49
363.09	74.07
363.301	16.73
363.512	51.54
363.723	117.08
363.935	65.88
364.146	-1.71
364.357	59.73
364.568	143.7
364.779	-3.75
364.99	69.97
365.201	43.35
365.412	63.83
365.623	-18.09
365.834	98.64
366.045	39.25
366.256	26.96
366.467	26.96
366.678	22.87
366.889	69.97
367.1	35.16
367.311	51.54
367.522	16.73
367.733	121.17
367.944	22.87
368.155	55.64
368.366	78.16
368.577	0.34
368.788	37.2
368.999	-65.19
369.209	33.11
369.42	119.12
369.631	100.69
369.842	61.78
370.053	4.44
370.264	51.54
370.474	96.6
370.685	35.16
370.896	10.58
371.107	94.55
371.317	29.01
371.528	8.53
371.739	59.73
371.95	-7.85
372.16	20.82
372.371	18.77
372.582	96.6
372.792	108.88
373.003	65.88
373.214	-11.95
373.424	8.53
373.635	22.87
373.846	47.44
374.056	155.99
374.267	96.6
374.477	14.68
374.688	-3.75
374.898	-18.09
375.109	69.97
375.319	92.5
375.53	84.31
375.74	84.31
375.951	4.44
376.161	55.64
376.372	100.69
376.582	22.87
376.793	78.16
377.003	16.73
377.214	78.16
377.424	119.12
377.635	-54.95
377.845	59.73
378.055	129.36
378.266	20.82
378.476	92.5
378.686	110.93
378.897	35.16
379.107	82.26
379.317	108.88
379.528	4.44
379.738	22.87
379.948	-3.75
380.158	98.64
380.369	31.06
380.579	31.06
380.789	24.92
380.999	72.02
381.21	47.44
381.42	155.99
381.63	29.01
381.84	94.55
382.05	-30.38
382.261	-22.19
382.471	12.63
382.681	18.77
382.891	119.12
383.101	65.88
383.311	47.44
383.521	43.35
383.731	55.64
383.941	37.2
384.151	31.06
384.361	22.87
384.571	37.2
384.781	90.45
384.991	135.51
385.201	147.8
385.411	31.06
385.621	26.96
385.831	61.78
386.041	108.88
386.251	-34.47
386.461	86.36
386.671	29.01
386.881	186.71
387.091	12.63
387.301	96.6
387.511	100.69
387.72	121.17
387.93	55.64
388.14	31.06
388.35	98.64
388.56	20.82
388.769	78.16
388.979	86.36
389.189	72.02
389.399	18.77
389.609	47.44
389.818	119.12
390.028	102.74
390.238	80.21
390.447	31.06
390.657	129.36
390.867	33.11
391.076	39.25
391.286	37.2
391.496	55.64
391.705	80.21
391.915	158.03
392.125	69.97
392.334	49.49
392.544	129.36
392.753	104.79
392.963	59.73
393.172	84.31
393.382	92.5
393.591	137.56
393.801	14.68
394.01	51.54
394.22	88.4
394.429	47.44
394.639	26.96
394.848	98.64
395.058	-24.23
395.267	39.25
395.477	135.51
395.686	78.16
395.895	170.32
396.105	100.69
396.314	14.68
396.524	108.88
396.733	4.44
396.942	162.13
397.152	100.69
397.361	90.45
397.57	26.96
397.78	133.46
397.989	117.08
398.198	147.8
398.407	61.78
398.617	135.51
398.826	72.02
399.035	96.6
399.244	170.32
399.453	115.03
399.663	158.03
399.872	76.12
400.081	84.31
400.29	168.27
400.499	88.4
400.708	63.83
400.917	117.08
401.127	6.49
401.336	121.17
401.545	174.42
401.754	94.55
401.963	209.23
402.172	192.85
402.381	84.31
402.59	29.01
402.799	94.55
403.008	98.64
403.217	110.93
403.426	145.75
403.635	82.26
403.844	119.12
404.053	104.79
404.262	43.35
404.471	160.08
404.68	196.95
404.888	133.46
405.097	209.23
405.306	168.27
405.515	258.39
405.724	188.75
405.933	127.32
406.142	231.76
406.35	209.23
406.559	143.7
406.768	201.04
406.977	231.76
407.185	231.76
407.394	203.09
407.603	168.27
407.812	274.77
408.02	223.57
408.229	246.1
408.438	235.86
408.646	217.43
408.855	209.23
409.064	244.05
409.272	242
409.481	285.01
409.69	235.86
409.898	229.71
410.107	346.45
410.315	239.95
410.524	391.5
410.733	379.22
410.941	317.78
411.15	330.06
411.358	297.3
411.567	362.83
411.775	356.69
411.984	368.98
412.192	401.74
412.401	366.93
412.609	522.57
412.818	502.09
413.026	498
413.234	502.09
413.443	536.91
413.651	438.61
413.86	469.33
414.068	596.3
414.276	637.26
414.485	541.01
414.693	653.64
414.901	649.55
415.11	753.99
415.318	700.75
415.526	690.51
415.734	692.55
415.943	739.66
416.151	815.43
416.359	780.62
416.567	823.62
416.776	819.53
416.984	932.17
417.192	874.82
417.4	985.41
417.608	1024.33
417.817	969.03
418.025	1022.28
418.233	1077.57
418.441	1063.24
418.649	1071.43
418.857	1210.69
419.065	1257.79
419.273	1261.89
419.481	1352
419.689	1298.75
419.897	1339.71
420.105	1368.38
420.313	1552.7
420.521	1511.74
420.729	1581.37
420.937	1632.57
421.145	1659.2
421.353	1730.87
421.561	1837.37
421.769	1882.42
421.977	2013.49
422.185	1980.73
422.393	2103.61
422.601	2097.46
422.809	2160.95
423.017	2144.56
423.224	2289.97
423.432	2373.94
423.64	2312.5
423.848	2578.73
424.056	2629.93
424.263	2627.89
424.471	2801.96
424.679	2863.4
424.887	3029.29
425.094	2996.52
425.302	3080.49
425.51	3148.07
425.718	3201.32
425.925	3377.44
426.133	3344.67
426.341	3688.73
426.548	3795.23
426.756	3703.07
426.964	3823.9
427.171	3965.21
427.379	4159.77
427.586	4198.68
427.794	4243.73
428.001	4530.45
428.209	4696.33
428.417	4667.66
428.624	5097.74
428.832	4968.71
429.039	4829.45
429.247	4964.62
429.454	5562.62
429.662	5830.91
429.869	5396.74
430.076	5720.32
430.284	5529.86
430.491	6023.42
430.699	6207.73
430.906	6099.19
431.114	6222.07
431.321	6510.83
431.528	6637.81
431.736	7065.83
431.943	7545.06
432.15	7182.57
432.358	7211.24
432.565	7549.15
432.772	7579.87
432.979	7899.36
433.187	8116.44
433.394	8098.01
433.601	8827.09
433.808	8730.83
434.016	8474.84
434.223	9085.13
434.43	9537.73
434.637	9375.94
434.844	10033.34
435.052	10162.36
435.259	10205.37
435.466	10340.54
435.673	9978.05
435.88	10858.67
436.087	11448.49
436.294	11202.73
436.501	11020.46
436.708	11198.63
436.915	11567.27
437.122	12087.45
437.329	11989.15
437.537	12343.45
437.743	12943.5
437.95	12761.23
438.157	13400.2
438.364	13768.84
438.571	13582.47
438.778	13975.68
438.985	15296.62
439.192	14563.45
439.399	14966.9
439.606	14397.56
439.813	15272.04
440.02	16273.5
440.227	16124
440.433	15816.8
440.64	16482.39
440.847	16312.41
441.054	16726.1
441.261	17799.24
441.467	17643.59
441.674	17985.6
441.881	18772.02
442.088	18403.39
442.294	18274.37
442.501	19044.4
442.708	19023.92
442.914	20221.98
443.121	21028.88
443.328	20453.41
443.534	21782.54
443.741	21184.53
443.948	20715.55
444.154	22644.73
444.361	22300.67
444.568	22497.28
444.774	22296.58
444.981	22609.92
445.187	23103.48
445.394	24442.85
445.6	23836.65
445.807	26189.77
446.013	25098.2
446.22	25540.56
446.426	26773.44
446.633	26658.75
446.839	27570.1
447.046	26638.27
447.252	28000.17
447.459	28153.77
447.665	27926.44
447.871	29153.18
448.078	30029.71
448.284	28667.81
448.491	29812.62
448.697	30631.81
448.903	31176.57
449.11	31037.31
449.316	30652.29
449.522	31192.95
449.728	32018.28
449.935	32274.28
450.141	31940.46
450.347	32642.92
450.553	31897.45
450.76	32288.62
450.966	33001.31
451.172	32907.1
451.378	33722.19
451.584	32784.23
451.791	33720.15
451.997	33638.23
452.203	34291.53
452.409	34187.08
452.615	33668.95
452.821	32409.45
453.027	32083.82
453.233	33871.7
453.44	32032.62
453.646	32700.26
453.852	33294.17
454.058	33431.38
454.264	32223.08
454.47	33023.84
454.676	32368.49
454.882	33574.74
455.088	30234.5
455.294	31092.6
455.5	30898.05
455.705	31700.85
455.911	30154.63
456.117	29413.27
456.323	29370.26
456.529	27381.68
456.735	28745.63
456.941	28094.38
457.147	27359.16
457.352	26904.51
457.558	26286.02
457.764	26548.16
457.97	26267.59
458.176	24954.84
458.381	25278.42
458.587	24088.55
458.793	24127.46
458.999	23011.32
459.204	24586.21
459.41	23961.58
459.616	22091.78
459.821	22345.73
460.027	22431.74
460.233	21704.71
460.438	20490.27
460.644	20834.33
460.85	19857.45
461.055	19785.77
461.261	19683.37
461.466	18313.28
461.672	17741.89
461.878	18634.81
462.083	17584.2
462.289	17115.22
462.494	17092.69
462.7	16549.98
462.905	16117.86
463.111	16586.84
463.316	16666.71
463.522	16369.76
463.727	16214.11
463.932	16310.36
464.138	15792.23
464.343	16093.28
464.549	15673.45
464.754	16095.33
464.959	16244.83
465.165	15880.29
465.37	15044.72
465.575	14811.25
465.781	15419.5
465.986	15579.24
466.191	15003.76
466.397	14848.11
466.602	13975.68
466.807	14846.07
467.012	14495.86
467.218	14567.54
467.423	14053.5
467.628	14430.33
467.833	15005.81
468.038	14325.88
468.244	13955.2
468.449	14669.94
468.654	13957.25
468.859	13906.05
469.064	13725.83
469.269	13392.01
469.474	13322.38
469.679	13637.77
469.885	13344.91
470.09	13416.58
470.295	13244.56
470.5	13070.48
470.705	13312.14
470.91	12671.12
471.115	12900.5
471.32	12939.41
471.525	12662.93
471.73	12476.57
471.935	12540.05
472.139	11907.23
472.344	12200.09
472.549	12320.92
472.754	12030.11
472.959	11559.08
473.164	11602.08
473.369	11360.42
473.574	11753.63
473.778	11548.84
473.983	11567.27
474.188	11485.35
474.393	10848.43
474.598	11057.32
474.802	10827.95
475.007	10897.58
475.212	10477.75
475.417	10399.93
475.621	10422.45
475.826	10307.77
476.031	10166.46
476.235	10037.44
476.44	10211.51
476.645	9947.33
476.849	10123.45
477.054	10023.1
477.259	9785.54
477.463	9810.11
477.668	9619.65
477.872	9619.65
478.077	9273.54
478.282	9169.1
478.486	9345.22
478.691	9089.23
478.895	9128.14
479.1	8984.78
479.304	9269.45
479.509	8980.68
479.713	9068.75
479.918	8978.64
480.122	8724.69
480.326	8818.89
480.531	8681.68
480.735	8718.54
480.94	8806.61
481.144	8941.77
481.348	8632.53
481.553	8585.43
481.757	8528.08
481.961	8483.03
482.166	8429.78
482.37	8689.87
482.574	8251.61
482.778	8423.64
482.983	8581.33
483.187	8601.81
483.391	8401.11
483.595	8501.46
483.8	8272.09
484.004	8351.96
484.208	8646.87
484.412	8390.87
484.616	8409.3
484.821	8646.87
485.025	8437.97
485.229	8466.64
485.433	8272.09
485.637	8573.14
485.841	8362.2
486.045	8517.84
486.249	8267.99
486.453	8562.9
486.657	8478.93
486.861	8532.18
487.065	8493.27
487.269	8464.6
487.473	8413.4
487.677	8431.83
487.881	8503.51
488.085	8419.54
488.289	8548.56
488.493	8341.72
488.697	8657.11
488.901	8663.25
489.105	8480.98
489.309	8622.29
489.512	8454.36
489.716	8585.43
489.92	8620.24
490.124	8480.98
490.328	8655.06
490.531	8716.5
490.735	8566.99
490.939	8653.01
491.143	8720.59
491.346	8511.7
491.55	8712.4
491.754	8818.89
491.958	8896.72
492.161	8829.13
492.365	9003.21
492.569	8970.44
492.772	8868.05
492.976	9062.6
493.18	8984.78
493.383	9261.26
493.587	9283.78
493.79	9390.28
493.994	9060.56
494.197	9398.47
494.401	9369.8
494.605	9500.87
494.808	9562.31
495.012	9586.88
495.215	9611.46
495.419	9701.57
495.622	9720
495.825	9826.5
496.029	9896.13
496.232	10252.47
496.436	9885.89
496.639	10262.71
496.843	10094.78
497.046	10473.65
497.249	10676.4
497.453	10700.98
497.656	10756.27
497.859	10926.25
498.063	10864.82
498.266	11172.01
498.469	10983.6
498.673	11186.35
498.876	11145.39
499.079	11655.33
499.282	11636.9
499.485	11751.59
499.689	11919.52
499.892	11948.19
500.095	12120.22
500.298	12312.73
500.501	12013.73
500.705	12560.53
500.908	12732.56
501.111	12505.24
501.314	12851.35
501.517	13219.98
501.72	13019.28
501.923	13031.57
502.126	13535.37
502.329	13602.95
502.532	13756.55
502.735	13693.06
502.938	13971.58
503.141	14092.41
503.344	14514.3
503.547	14082.17
503.75	14203
503.953	14719.09
504.156	14966.9
504.359	15147.12
504.562	15177.84
504.765	15538.28
504.968	15708.26
505.17	15566.95
505.373	15673.45
505.576	16285.79
505.779	16316.51
505.982	16361.56
506.185	16601.18
506.387	16580.7
506.59	16949.33
506.793	16842.84
506.996	17043.54
507.198	17508.43
507.401	17422.41
507.604	17983.55
507.807	18303.04
508.009	18020.42
508.212	18290.75
508.415	18456.64
508.617	19028.02
508.82	18909.24
509.022	18841.65
509.225	19443.76
509.428	19630.12
509.63	19722.28
509.833	19757.1
510.035	20242.46
510.238	20092.96
510.44	20457.5
510.643	20537.37
510.845	20541.47
511.048	20566.04
511.25	20944.92
511.453	21245.97
511.655	22077.44
511.858	21927.94
512.06	21813.26
512.262	22046.72
512.465	22276.1
512.667	22757.37
512.87	22919.16
513.072	22605.82
513.274	23470.06
513.477	23545.84
513.679	23744.49
513.881	23877.61
514.084	23883.75
514.286	24225.76
514.488	24266.72
514.69	25067.48
514.893	25171.93
515.095	25253.84
515.297	25675.73
515.499	25436.11
515.701	25692.11
515.904	26009.54
516.106	26126.28
516.308	26580.93
516.51	26746.81
516.712	26900.41
516.914	26871.74
517.116	27465.65
517.318	27338.68
517.52	27711.41
517.722	28004.27
517.925	28479.39
518.127	28794.78
518.329	28981.15
518.531	28764.06
518.733	29349.78
518.935	29501.33
519.136	29482.9
519.338	30199.69
519.54	30144.39
519.742	30615.43
519.944	30773.12
520.146	30916.48
520.348	31471.48
520.55	31530.87
520.752	30949.25
520.954	32022.38
521.155	31731.57
521.357	32239.47
521.559	32708.45
521.761	32608.1
521.963	32681.83
522.164	33175.39
522.366	32755.55
522.568	33656.66
522.77	33636.18
522.971	34549.57
523.173	34217.8
523.375	34305.87
523.576	34537.29
523.778	34467.66
523.98	35069.76
524.181	35237.69
524.383	35166.01
524.584	35663.67
524.786	35499.83
524.988	35600.18
525.189	36048.69
525.391	35899.19
525.592	36486.95
525.794	36646.69
525.995	36503.34
526.197	36747.04
526.398	36933.41
526.6	36865.83
526.801	36904.74
527.003	37345.05
527.204	37168.93
527.406	37775.12
527.607	37775.12
527.808	37455.64
528.01	37322.52
528.211	37615.38
528.412	38606.6
528.614	38455.05
528.815	38307.6
529.016	38827.78
529.218	38487.82
529.419	38600.46
529.62	38971.14
529.822	38561.54
530.023	38659.85
530.224	38964.99
530.425	38815.49
530.626	38657.8
530.828	38467.34
531.029	39812.85
531.23	39198.46
531.431	38944.52
531.632	39472.89
531.833	39091.97
532.035	39018.24
532.236	39546.62
532.437	39687.93
532.638	39536.38
532.839	39530.23
533.04	39716.6
533.241	39534.33
533.442	40570.6
533.643	39902.96
533.844	39530.23
534.045	40042.23
534.246	39579.39
534.447	39866.1
534.648	39735.03
534.849	40005.36
535.05	39362.3
535.251	40349.42
535.451	39507.71
535.652	39821.05
535.853	39843.57
536.054	40177.39
536.255	40009.46
536.456	39685.88
536.657	40390.38
536.857	39804.66
537.058	39659.26
537.259	40214.26
537.46	40210.16
537.66	39819
537.861	40118
538.062	39919.35
538.263	39939.83
538.463	39823.09
538.664	40152.82
538.865	40191.73
539.065	40312.56
539.266	39509.75
539.466	40492.78
539.667	39909.11
539.868	40398.57
540.068	40095.47
540.269	40158.96
540.469	40234.74
540.67	39868.15
540.87	40238.83
541.071	40087.28
541.271	40197.87
541.472	39894.77
541.672	39706.36
541.873	39698.17
542.073	39712.5
542.274	40115.95
542.474	39845.62
542.675	39534.33
542.875	40163.06
543.075	39485.18
543.276	38993.67
543.476	40146.67
543.676	39591.67
543.877	39886.58
544.077	40019.7
544.277	39886.58
544.478	39687.93
544.678	40093.43
544.878	40011.51
545.078	39597.82
545.279	39208.7
545.479	39497.47
545.679	39915.25
545.879	39714.55
546.079	39571.19
546.28	39943.92
546.48	39630.58
546.68	39669.5
546.88	39689.98
547.08	39589.63
547.28	39593.72
547.48	39198.46
547.68	39890.68
547.88	39284.48
548.081	39696.12
548.281	39309.05
548.481	39292.67
548.681	39413.5
548.881	39655.16
549.081	39675.64
549.28	39315.2
549.48	39542.52
549.68	39517.95
549.88	40124.15
550.08	38973.19
550.28	39640.82
550.48	39235.33
550.68	39683.83
550.88	39048.96
551.08	39540.47
551.279	39364.35
551.479	38905.6
551.679	39307.01
551.879	39067.39
552.079	39358.2
552.278	39145.22
552.478	39440.12
552.678	39231.23
552.878	39233.28
553.077	39427.84
553.277	38856.45
553.477	39661.3
553.676	39075.59
553.876	39151.36
554.076	39018.24
554.275	39077.63
554.475	38457.1
554.674	39016.19
554.874	39081.73
555.074	38805.25
555.273	39112.45
555.473	39233.28
555.672	38829.83
555.872	38778.63
556.071	38657.8
556.271	39274.24
556.47	38471.43
556.67	38364.94
556.869	38575.88
557.068	38627.08
557.268	38416.14
557.467	38911.75
557.667	38526.73
557.866	38686.47
558.065	38291.21
558.265	38264.59
558.464	38051.6
558.663	38416.14
558.863	37777.17
559.062	38686.47
559.261	37625.62
559.461	38235.92
559.66	37863.19
559.859	38092.56
560.058	37994.26
560.258	38035.22
560.457	37570.33
560.656	37908.24
560.855	37469.98
561.054	37740.31
561.253	37502.75
561.453	37601.05
561.652	37984.02
561.851	37934.87
562.05	37132.06
562.249	37041.95
562.448	37682.97
562.647	37275.42
562.846	37093.15
563.045	37117.73
563.244	36642.6
563.443	37484.31
563.642	36611.88
563.841	36808.48
564.04	36822.82
564.239	36923.17
564.438	36605.73
564.637	36529.96
564.836	36859.68
565.035	36218.67
565.234	36654.89
565.432	36255.53
565.631	36075.31
565.83	36462.38
566.029	36163.37
566.228	36181.81
566.427	35929.91
566.625	35794.74
566.824	35102.53
567.023	36026.16
567.222	35170.11
567.42	35833.65
567.619	35661.62
567.818	35295.03
568.016	34971.46
568.215	35520.31
568.414	34991.94
568.612	35446.58
568.811	34993.98
569.01	34860.87
569.208	34379.59
569.407	35166.01
569.605	34277.19
569.804	35323.71
570.002	34723.65
570.201	34602.82
570.4	34537.29
570.598	34144.08
570.797	34527.05
570.995	34279.24
571.193	33599.32
571.392	34586.44
571.59	33849.17
571.789	33924.94
571.987	33967.95
572.186	33810.26
572.384	33468.25
572.582	33906.51
572.781	33779.54
572.979	32831.33
573.177	33324.89
573.376	33328.98
573.574	33376.09
573.772	33238.87
573.971	33177.44
574.169	32921.44
574.367	32790.37
574.565	32997.21
574.763	32806.75
574.962	32528.23
575.16	32221.03
575.358	32393.06
575.556	32171.88
575.754	32661.35
575.952	31960.94
576.151	32485.22
576.349	31874.93
576.547	31383.41
576.745	32016.24
576.943	31793.01
577.141	31770.48
577.339	31510.39
577.537	31188.86
577.735	31594.36
577.933	31440.76
578.131	31489.91
578.329	31002.49
578.527	31090.55
578.725	31276.92
578.923	31369.08
579.121	30920.57
579.319	31178.62
579.516	30822.27
579.714	30472.07
579.912	30705.54
580.11	30719.87
580.308	30601.09
580.506	30590.85
580.704	30279.56
580.901	30312.33
581.099	30461.83
581.297	29964.17
581.495	29951.88
581.692	30085
581.89	29847.44
582.088	30101.39
582.285	29851.53
582.483	29779.85
582.681	29607.83
582.878	29425.56
583.076	29431.7
583.274	29530
583.471	28934.04
583.669	29611.92
583.866	29104.03
584.064	29245.34
584.262	28874.65
584.459	29382.55
584.657	28979.1
584.854	28985.24
585.052	28473.25
585.249	28639.14
585.447	28835.74
585.644	28420
585.841	28364.71
586.039	28796.83
586.236	28192.68
586.434	28143.53
586.631	27819.95
586.828	28006.31
587.026	28243.88
587.223	27809.71
587.42	27928.49
587.618	27766.7
587.815	27629.49
588.012	27725.74
588.21	27289.52
588.407	27553.71
588.604	27367.35
588.801	27312.05
588.999	27277.24
589.196	27381.68
589.393	26867.64
589.59	26787.77
589.787	26806.2
589.984	26660.8
590.182	26660.8
590.379	27039.67
590.576	26712
590.773	26912.7
590.97	26206.15
591.167	26486.72
591.364	25941.96
591.561	26310.6
591.758	26005.45
591.955	26120.13
592.152	26193.86
592.349	25782.22
592.546	26081.22
592.743	26027.98
592.94	25620.43
593.137	25839.56
593.334	25780.17
593.531	25366.48
593.727	25329.62
593.924	25481.17
594.121	25053.14
594.318	25282.52
594.515	24711.13
594.712	25155.54
594.908	24682.46
595.105	25094.1
595.302	24487.9
595.499	24842.2
595.696	25055.19
595.892	24516.58
596.089	24403.94
596.286	24842.2
596.482	24309.73
596.679	24424.42
596.876	24293.35
597.072	24223.72
597.269	24279.01
597.466	24141.8
597.662	23834.6
597.859	24000.49
598.055	24115.17
598.252	23660.52
598.448	23496.69
598.645	23816.17
598.841	23662.57
599.038	23640.04
599.234	23828.46
599.431	23470.06
599.627	23035.89
599.824	23564.27
600.02	23105.52
600.217	23087.09
600.413	23199.73
600.609	22736.89
600.806	23209.97
601.002	22884.34
601.198	22661.12
601.395	22640.64
601.591	22812.67
601.787	22747.13
601.984	22335.49
602.18	22532.09
602.376	22419.46
602.572	22376.45
602.769	22061.06
602.965	21850.12
603.161	22386.69
603.357	22185.99
603.553	21995.53
603.75	22050.82
603.946	21874.7
604.142	21983.24
604.338	21643.28
604.534	21807.11
604.73	21489.68
604.926	21268.5
605.122	21606.41
605.318	21110.8
605.514	21256.21
605.71	21479.44
605.906	21446.67
606.102	21043.22
606.298	21364.75
606.494	21436.43
606.69	20981.78
606.886	21297.17
607.082	20705.31
607.278	20613.15
607.474	20609.05
607.67	20772.89
607.866	20527.13
608.062	20844.57
608.257	20580.38
608.453	20740.12
608.649	20422.69
608.845	20545.56
609.041	20500.51
609.236	20414.49
609.432	20185.12
609.628	20477.98
609.824	20387.87
610.019	20209.7
610.215	20244.51
610.411	20140.07
610.606	20234.27
610.802	20086.82
610.998	20117.54
611.193	20047.91
611.389	19699.75
611.584	19871.78
611.78	19697.7
611.976	19853.35
612.171	19980.32
612.367	19910.69
612.562	19746.86
612.758	19550.25
612.953	19564.59
613.149	19810.34
613.344	19429.42
613.539	19736.62
613.735	19439.66
613.93	19607.59
614.126	19247.15
614.321	19621.93
614.517	19302.45
614.712	19343.41
614.907	19191.86
615.103	18927.67
615.298	19206.19
615.493	19292.21
615.688	18948.15
615.884	19259.44
616.079	18741.3
616.274	18860.09
616.47	18786.36
616.665	19025.97
616.86	18831.41
617.055	18733.11
617.25	18663.48
617.445	18860.09
617.641	18669.62
617.836	18509.88
618.031	18278.46
618.226	18442.3
618.421	18309.18
618.616	18602.04
618.811	18233.41
619.006	18683.96
619.201	18286.65
619.396	18425.92
619.591	17995.84
619.786	18229.31
619.981	17791.05
620.176	18079.81
620.371	17643.59
620.566	17883.2
620.761	17883.2
620.956	17696.84
621.151	17295.44
621.346	17686.6
621.541	17389.64
621.735	17481.8
621.93	17119.31
622.125	17295.44
622.32	16914.52
622.515	17041.49
622.709	16851.03
622.904	16898.13
623.099	16726.1
623.294	16588.89
623.488	16416.86
623.683	16492.63
623.878	16261.21
624.072	16480.35
624.267	16226.4
624.462	16050.27
624.656	16087.14
624.851	16232.54
625.046	15861.86
625.24	15814.76
625.435	15646.82
625.629	15763.56
625.824	15399.02
626.018	15550.57
626.213	15145.07
626.407	15394.92
626.602	15120.49
626.796	15102.06
626.991	15196.27
627.185	14870.64
627.38	14835.83
627.574	14831.73
627.768	14594.17
627.963	14731.38
628.157	14626.93
628.352	14850.16
628.546	14284.92
628.74	14276.73
628.935	14198.91
629.129	14203
629.323	14088.32
629.517	14116.99
629.712	14131.33
629.906	14076.03
630.1	13670.53
630.294	14143.61
630.489	13613.19
630.683	13693.06
630.877	13590.66
631.071	13373.58
631.265	13557.89
631.459	13269.13
631.653	13273.23
631.848	13289.61
632.042	13093.01
632.236	13303.95
632.43	13240.46
632.624	13148.3
632.818	12906.64
633.012	12794
633.206	12722.32
633.4	12925.07
633.594	12646.55
633.788	12664.98
633.982	12470.42
634.176	12566.68
634.369	12306.59
634.563	12486.81
634.757	12140.7
634.951	12241.05
635.145	12181.66
635.339	12251.29
635.533	12091.55
635.726	12066.97
635.92	11917.47
636.114	11727.01
636.308	11630.76
636.501	12089.5
636.695	11618.47
636.889	11569.32
637.083	11536.55
637.276	11382.95
637.47	11376.81
637.664	11278.51
637.857	11458.73
638.051	11278.51
638.244	11172.01
638.438	11339.94
638.632	10891.44
638.825	10883.25
639.019	10979.5
639.212	10766.51
639.406	10721.46
639.599	10797.23
639.793	10713.27
639.986	10594.48
640.18	10823.86
640.373	10617.01
640.567	10483.89
640.76	10504.37
640.954	10541.24
641.147	10369.21
641.34	10170.55
641.534	10240.19
641.727	9988.28
641.92	10039.48
642.114	10078.4
642.307	9984.19
642.5	9967.81
642.694	9717.95
642.887	9920.7
643.08	9750.72
643.273	9713.86
643.467	9599.17
643.66	9494.72
643.853	9595.07
644.046	9455.81
644.239	9476.29
644.432	9375.94
644.626	9406.66
644.819	9322.7
645.012	9257.16
645.205	9308.36
645.398	9105.61
645.591	9334.98
645.784	8982.73
645.977	8982.73
646.17	8984.78
646.363	9013.45
646.556	8962.25
646.749	8952.01
646.942	8655.06
647.135	8771.79
647.328	8806.61
647.521	8630.48
647.714	8472.79
647.907	8679.63
648.099	8497.36
648.292	8708.3
648.485	8562.9
648.678	8517.84
648.871	8304.85
649.064	8112.35
649.256	8163.54
649.449	8075.48
649.642	8108.25
649.835	8171.74
650.027	8104.15
650.22	8100.06
650.413	8075.48
650.605	7899.36
650.798	7715.04
650.991	7971.04
651.183	7796.96
651.376	7827.68
651.568	7811.29
651.761	7747.81
651.954	7649.5
652.146	7747.81
652.339	7669.98
652.531	7575.78
652.724	7604.45
652.916	7403.75
653.109	7506.15
653.301	7344.36
653.494	7387.36
653.686	7248.1
653.879	7313.64
654.071	7231.72
654.263	7239.91
654.456	7129.32
654.648	7254.25
654.84	7137.51
655.033	7117.03
655.225	7104.74
655.417	7008.49
655.61	7024.87
655.802	6983.91
655.994	6760.69
656.186	6934.76
656.379	6828.27
656.571	6844.65
656.763	6625.52
656.955	6715.63
657.148	6793.45
657.34	6633.71
657.532	6430.96
657.724	6486.26
657.916	6455.54
658.108	6564.08
658.3	6635.76
658.492	6463.73
658.684	6359.28
658.876	6355.19
659.068	6359.28
659.26	6265.08
659.452	6138.1
659.644	6281.46
659.836	6232.31
660.028	6263.03
660.22	6158.58
660.412	5988.6
660.604	6041.85
660.796	6213.88
660.988	6025.47
661.18	5884.16
661.372	5921.02
661.563	6002.94
661.755	5798.14
661.947	5798.14
662.139	5802.24
662.331	5884.16
662.522	5728.51
662.714	5748.99
662.906	5566.72
663.097	5671.17
663.289	5558.53
663.481	5638.4
663.673	5622.02
663.864	5425.41
664.056	5605.63
664.247	5466.37
664.439	5316.87
664.631	5558.53
664.822	5320.96
665.014	5452.03
665.205	5374.21
665.397	5386.5
665.588	5204.23
665.78	5368.07
665.971	5204.23
666.163	5263.62
666.354	5171.46
666.546	5183.75
666.737	5118.22
666.929	5064.97
667.12	5218.57
667.311	5079.3
667.503	5155.08
667.694	5169.41
667.885	4991.24
668.077	5034.25
668.268	4921.61
668.459	5083.4
668.651	4952.33
668.842	4909.32
669.033	4940.04
669.224	4761.87
669.416	4696.33
669.607	4872.46
669.798	4800.78
669.989	4813.07
670.18	4653.33
670.371	4753.68
670.563	4591.89
670.754	4589.84
670.945	4569.36
671.136	4536.59
671.327	4622.61
671.518	4583.7
671.709	4610.32
671.9	4534.54
672.091	4495.63
672.282	4540.69
672.473	4428.05
672.664	4432.15
672.855	4462.87
673.046	4380.95
673.237	4499.73
673.428	4380.95
673.619	4448.53
673.809	4385.04
674	4385.04
674.191	4339.99
674.382	4362.51
674.573	4301.08
674.764	4452.63
674.954	4172.05
675.145	4223.25
675.336	4253.97
675.527	4153.62
675.717	4194.58
675.908	4127
676.099	4231.44
676.289	4071.7
676.48	4253.97
676.671	4086.04
676.861	4108.57
677.052	4038.94
677.243	3911.96
677.433	4040.98
677.624	4110.61
677.814	4133.14
678.005	4145.43
678.195	3914.01
678.386	3938.59
678.576	3965.21
678.767	3950.87
678.957	3967.26
679.148	3985.69
679.338	4176.15
679.529	3967.26
679.719	3957.02
679.909	3924.25
680.1	3963.16
680.29	3893.53
680.481	3864.86
680.671	3832.09
680.861	3889.43
681.052	3926.3
681.242	3952.92
681.432	3967.26
681.622	3909.91
681.813	3911.96
682.003	3866.91
682.193	3772.7
682.383	3895.58
682.573	3850.52
682.764	3784.99
682.954	3877.15
683.144	3703.07
683.334	3735.84
683.524	3741.98
683.714	3813.66
683.904	3584.29
684.094	3639.58
684.284	3627.29
684.474	3590.43
684.664	3750.17
684.854	3746.08
685.044	3784.99
685.234	3629.34
685.424	3733.79
685.614	3535.14
685.804	3582.24
685.994	3668.25
686.184	3588.38
686.374	3658.01
686.564	3701.02
686.753	3492.13
686.943	3541.28
687.133	3643.68
687.323	3479.84
687.513	3561.76
687.702	3383.59
687.892	3465.5
688.082	3459.36
688.272	3469.6
688.461	3490.08
688.651	3463.46
688.841	3348.77
689.03	3303.71
689.22	3451.17
689.41	3322.15
689.599	3385.63
689.789	3348.77
689.979	3410.21
690.168	3209.51
690.358	3305.76
690.547	3277.09
690.737	3146.02
690.926	3285.28
691.116	3131.69
691.305	3301.67
691.495	3105.06
691.684	3215.65
691.874	3281.19
692.063	3047.72
692.252	3039.53
692.442	3129.64
692.631	2978.09
692.82	3215.65
693.01	2898.22
693.199	2990.38
693.388	3090.73
693.578	3037.48
693.767	3176.74
693.956	2961.7
694.146	3039.53
694.335	2978.09
694.524	3025.19
694.713	3086.63
694.902	3082.53
695.092	2978.09
695.281	2994.47
695.47	3039.53
695.659	2926.89
695.848	2953.51
696.037	3000.62
696.226	2973.99
696.415	2982.18
696.604	3100.97
696.793	2875.69
696.982	2892.07
697.171	2988.33
697.36	2869.55
697.549	2947.37
697.738	2890.03
697.927	2898.22
698.116	2816.3
698.305	2885.93
698.494	2857.26
698.683	2967.85
698.872	2844.97
699.061	2773.29
699.25	2783.53
699.438	2718
699.627	2828.59
699.816	2849.07
700.005	2781.48
700.193	2709.8
700.382	2828.59
700.571	2740.52
700.76	2695.47
700.948	2810.15
701.137	2996.52
701.326	2771.24
701.514	2869.55
701.703	2742.57
701.892	2787.63
702.08	2801.96
702.269	2795.82
702.457	2582.83
702.646	2804.01
702.834	2836.78
703.023	2918.7
703.212	2740.52
703.4	2844.97
703.589	2650.41
703.777	2730.28
703.965	2732.33
704.154	2779.43
704.342	2689.32
704.531	2726.19
704.719	2652.46
704.907	2738.48
705.096	2654.51
705.284	2607.41
705.472	2572.59
705.661	2701.61
705.849	2722.09
706.037	2777.39
706.226	2844.97
706.414	2650.41
706.602	2644.27
706.79	2738.48
706.979	2709.8
707.167	2650.41
707.355	2758.96
707.543	2711.85
707.731	2656.56
707.919	2658.6
708.107	2572.59
708.296	2672.94
708.484	2568.49
708.672	2689.32
708.86	2666.8
709.048	2615.6
709.236	2543.92
709.424	2668.84
709.612	2713.9
709.8	2525.49
709.988	2640.17
710.176	2720.04
710.364	2666.8
710.551	2662.7
710.739	2683.18
710.927	2685.23
711.115	2640.17
711.303	2861.35
711.491	2548.01
711.679	2591.02
711.866	2644.27
712.054	2695.47
712.242	2627.89
712.43	2718
712.617	2562.35
712.805	2505.01
712.993	2603.31
713.181	2642.22
713.368	2650.41
713.556	2689.32
713.744	2580.78
713.931	2765.1
714.119	2537.77
714.306	2539.82
714.494	2593.07
714.682	2631.98
714.869	2574.64
715.057	2597.17
715.244	2607.41
715.432	2625.84
715.619	2646.32
715.807	2539.82
715.994	2580.78
716.182	2599.21
716.369	2591.02
716.556	2576.69
716.744	2578.73
716.931	2550.06
717.119	2621.74
717.306	2533.68
717.493	2636.08
717.681	2511.15
717.868	2478.38
718.055	2580.78
718.242	2484.53
718.43	2631.98
718.617	2652.46
718.804	2447.66
718.991	2648.36
719.179	2570.54
719.366	2591.02
719.553	2554.16
719.74	2607.41
719.927	2574.64
720.114	2431.28
720.301	2541.87
720.488	2513.2
720.676	2521.39
720.863	2519.34
721.05	2392.37
721.237	2505.01
721.424	2560.3
721.611	2494.77
721.798	2464.05
721.985	2410.8
722.172	2482.48
722.358	2525.49
722.545	2562.35
722.732	2447.66
722.919	2447.66
723.106	2552.11
723.293	2505.01
723.48	2492.72
723.667	2601.26
723.853	2418.99
724.04	2617.65
724.227	2545.97
724.414	2453.81
724.6	2535.73
724.787	2525.49
724.974	2513.2
725.161	2373.94
725.347	2388.27
725.534	2443.57
725.72	2533.68
725.907	2455.86
726.094	2474.29
726.28	2427.18
726.467	2480.43
726.653	2347.31
726.84	2535.73
727.027	2535.73
727.213	2322.74
727.4	2390.32
727.586	2398.51
727.773	2418.99
727.959	2394.42
728.145	2373.94
728.332	2459.95
728.518	2324.79
728.705	2396.46
728.891	2255.15
729.077	2517.29
729.264	2347.31
729.45	2341.17
729.636	2355.51
729.823	2302.26
730.009	2363.7
730.195	2425.14
730.382	2394.42
730.568	2302.26
730.754	2314.55
730.94	2431.28
731.126	2427.18
731.313	2445.62
731.499	2285.87
731.685	2330.93
731.871	2236.72
732.057	2406.7
732.243	2373.94
732.429	2265.39
732.615	2326.83
732.801	2275.63
732.987	2251.06
733.173	2224.44
733.359	2365.75
733.545	2287.92
733.731	2271.54
733.917	2378.03
734.103	2263.35
734.289	2294.07
734.475	2240.82
734.661	2242.87
734.847	2285.87
735.033	2341.17
735.219	2242.87
735.404	2163
735.59	2132.28
735.776	2191.67
735.962	2224.44
736.148	2279.73
736.333	2255.15
736.519	2220.34
736.705	2212.15
736.89	2189.62
737.076	2185.52
737.262	2171.19
737.447	2165.04
737.633	2167.09
737.819	2234.68
738.004	2136.37
738.19	2072.89
738.375	2130.23
738.561	2183.48
738.747	2177.33
738.932	2289.97
739.118	2191.67
739.303	2093.37
739.489	2177.33
739.674	2048.31
739.859	2128.18
740.045	2099.51
740.23	2042.17
740.416	2111.8
740.601	2113.85
740.786	2070.84
740.972	2095.41
741.157	2013.49
741.342	2117.94
741.528	2054.45
741.713	2060.6
741.898	2001.21
742.084	2017.59
742.269	2060.6
742.454	2001.21
742.639	1976.63
742.824	1982.78
743.01	2011.45
743.195	2031.93
743.38	1993.01
743.565	1980.73
743.75	1921.34
743.935	1990.97
744.12	1925.43
744.305	1900.86
744.49	1845.56
744.675	1952.06
744.86	1849.66
745.045	1968.44
745.23	1890.62
745.415	1849.66
745.6	1978.68
745.785	1780.03
745.97	1876.28
746.155	1788.22
746.34	1808.7
746.525	1872.18
746.71	1747.26
746.895	1630.52
747.079	1710.4
747.264	1739.07
747.449	1730.87
747.634	1698.11
747.819	1716.54
748.003	1788.22
748.188	1743.16
748.373	1681.72
748.557	1569.09
748.742	1657.15
748.927	1601.85
749.111	1661.24
749.296	1747.26
749.481	1630.52
749.665	1651
749.85	1579.33
750.034	1544.51
750.219	1489.21
750.404	1616.19
750.588	1585.47
750.773	1546.56
750.957	1485.12
751.141	1605.95
751.326	1493.31
751.51	1458.5
751.695	1497.41
751.879	1415.49
752.064	1532.22
752.248	1478.97
752.432	1532.22
752.617	1511.74
752.801	1347.9
752.985	1390.91
753.17	1495.36
753.354	1481.02
753.538	1423.68
753.722	1274.18
753.907	1296.71
754.091	1374.53
754.275	1415.49
754.459	1317.19
754.643	1327.43
754.828	1372.48
755.012	1345.86
755.196	1390.91
755.38	1253.7
755.564	1290.56
755.748	1308.99
755.932	1255.75
756.116	1282.37
756.3	1276.23
756.484	1225.03
756.668	1173.83
756.852	1231.17
757.036	1241.41
757.22	1229.12
757.404	1143.11
757.588	1220.93
757.772	1263.94
757.956	1155.4
758.14	1227.07
758.323	1175.88
758.507	1163.59
758.691	1167.68
758.875	1229.12
759.059	1096
759.242	1075.52
759.426	1100.1
759.61	1083.72
759.794	1122.63
759.977	1030.47
760.161	1196.36
760.345	1120.58
760.528	1114.44
760.712	1028.42
760.895	1079.62
761.079	1096
761.263	1036.61
761.446	995.65
761.63	1018.18
761.813	1102.15
761.997	989.51
762.18	1016.13
762.364	989.51
762.547	1014.09
762.731	1026.37
762.914	971.08
763.098	954.69
763.281	1038.66
763.464	1018.18
763.648	989.51
763.831	997.7
764.015	999.75
764.198	1026.37
764.381	934.22
764.564	934.22
764.748	948.55
764.931	883.02
765.114	962.89
765.297	915.78
765.481	878.92
765.664	995.65
765.847	878.92
766.03	923.98
766.213	856.39
766.397	973.13
766.58	909.64
766.763	923.98
766.946	921.93
767.129	844.1
767.312	817.48
767.495	862.54
767.678	797
767.861	919.88
768.044	829.77
768.227	930.12
768.41	926.02
768.593	835.91
768.776	778.57
768.959	772.43
769.142	889.16
769.324	768.33
769.507	784.71
769.69	895.3
769.873	907.59
770.056	878.92
770.239	774.47
770.421	926.02
770.604	768.33
770.787	805.19
770.97	835.91
771.152	811.34
771.335	809.29
771.518	747.85
771.7	860.49
771.883	852.3
772.066	731.47
772.248	768.33
772.431	780.62
772.613	764.23
772.796	842.06
772.978	735.56
773.161	837.96
773.343	723.27
773.526	725.32
773.708	690.51
773.891	788.81
774.073	737.61
774.256	784.71
774.438	717.13
774.621	698.7
774.803	655.69
774.985	680.27
775.168	696.65
775.35	659.79
775.532	710.99
775.715	751.95
775.897	659.79
776.079	641.36
776.261	725.32
776.444	643.4
776.626	631.12
776.808	749.9
776.99	702.79
777.173	624.97
777.355	612.68
777.537	614.73
777.719	651.6
777.901	618.83
778.083	641.36
778.265	551.24
778.447	612.68
778.629	547.15
778.811	530.77
778.993	600.4
779.175	563.53
779.357	649.55
779.539	590.16
779.721	676.17
779.903	518.48
780.085	510.29
780.267	526.67
780.449	489.81
780.631	569.68
780.812	543.05
780.994	520.53
781.176	452.94
781.358	575.82
781.54	512.33
781.721	559.44
781.903	493.9
782.085	489.81
782.267	524.62
782.448	438.61
782.63	463.18
782.812	516.43
782.993	563.53
783.175	502.09
783.357	446.8
783.538	399.7
783.72	409.94
783.901	432.46
784.083	459.09
784.264	477.52
784.446	395.6
784.627	434.51
784.809	401.74
784.99	393.55
785.172	436.56
785.353	391.5
785.535	428.37
785.716	465.23
785.897	354.64
786.079	420.17
786.26	358.74
786.441	469.33
786.623	432.46
786.804	336.21
786.985	346.45
787.167	516.43
787.348	385.36
787.529	440.65
787.71	465.23
787.891	399.7
788.073	354.64
788.254	352.59
788.435	459.09
788.616	411.98
788.797	391.5
788.978	354.64
789.159	426.32
789.34	323.92
789.522	397.65
789.703	313.68
789.884	362.83
790.065	358.74
790.246	334.16
790.427	366.93
790.607	338.26
790.788	360.78
790.969	334.16
791.15	336.21
791.331	256.34
791.512	325.97
791.693	291.15
791.874	325.97
792.054	377.17
792.235	379.22
792.416	323.92
792.597	289.1
792.778	354.64
792.958	350.54
793.139	334.16
793.32	332.11
793.5	295.25
793.681	291.15
793.862	276.82
794.042	303.44
794.223	270.67
794.404	280.91
794.584	303.44
794.765	289.1
794.945	250.19
795.126	317.78
795.306	379.22
795.487	366.93
795.667	221.52
795.848	309.58
796.028	346.45
796.209	158.03
796.389	276.82
796.57	289.1
796.75	198.99
796.93	317.78
797.111	280.91
797.291	252.24
797.471	260.43
797.652	221.52
797.832	301.39
798.012	239.95
798.192	192.85
798.373	231.76
798.553	203.09
798.733	264.53
798.913	260.43
799.093	123.22
799.274	94.55
799.454	252.24
799.634	321.87
799.814	301.39
799.994	223.57
800.174	219.47
800.354	313.68
800.534	225.62
800.714	309.58
800.894	180.56
801.074	143.7
801.254	213.33
801.434	252.24
801.614	168.27
801.794	205.14
801.974	715.08
802.154	254.29
802.334	198.99
802.514	272.72
802.693	143.7
802.873	180.56
803.053	194.9
803.233	158.03
803.413	211.28
803.592	201.04
803.772	252.24
803.952	180.56
804.131	198.99
804.311	192.85
804.491	221.52
804.67	168.27
804.85	190.8
805.03	192.85
805.209	264.53
805.389	178.51
805.568	211.28
805.748	221.52
805.928	149.84
806.107	172.37
806.287	215.38
806.466	166.23
806.646	252.24
806.825	252.24
807.004	198.99
807.184	186.71
807.363	135.51
807.543	151.89
807.722	188.75
807.901	235.86
808.081	176.47
808.26	170.32
808.439	162.13
808.619	158.03
808.798	174.42
808.977	217.43
809.156	172.37
809.336	110.93
809.515	151.89
809.694	115.03
809.873	160.08
810.052	190.8
810.231	213.33
810.411	188.75
810.59	196.95
810.769	135.51
810.948	153.94
811.127	59.73
811.306	153.94
811.485	129.36
811.664	151.89
811.843	108.88
812.022	137.56
812.201	72.02
812.38	139.6
812.559	141.65
812.737	217.43
812.916	67.92
813.095	125.27
813.274	227.67
813.453	108.88
813.632	270.67
813.811	149.84
813.989	69.97
814.168	192.85
814.347	178.51
814.526	147.8
814.704	145.75
814.883	151.89
815.062	155.99
815.24	162.13
815.419	100.69
815.598	166.23
815.776	127.32
815.955	192.85
816.133	129.36
816.312	145.75
816.49	41.3
816.669	100.69
816.847	125.27
817.026	47.44
817.204	121.17
817.383	149.84
817.561	135.51
817.74	125.27
817.918	121.17
818.097	125.27
818.275	129.36
818.453	67.92
818.632	170.32
818.81	63.83
818.988	110.93
819.167	72.02
819.345	88.4
819.523	61.78
819.701	121.17
819.879	137.56
820.058	178.51
820.236	155.99
820.414	100.69
820.592	143.7
820.77	139.6
820.948	100.69
821.127	102.74
821.305	102.74
821.483	69.97
821.661	194.9
821.839	110.93
822.017	88.4
822.195	145.75
822.373	117.08
822.551	162.13
822.729	96.6
822.907	80.21
823.085	121.17
823.262	141.65
823.44	57.68
823.618	104.79
823.796	61.78
823.974	29.01
824.152	65.88
824.329	63.83
824.507	74.07
824.685	76.12
824.863	80.21
825.04	57.68
825.218	108.88
825.396	59.73
825.574	139.6
825.751	137.56
825.929	196.95
826.107	125.27
826.284	96.6
826.462	158.03
826.639	119.12
826.817	80.21
826.994	74.07
827.172	51.54
827.349	149.84
827.527	106.84
827.704	63.83
827.882	127.32
828.059	104.79
828.237	104.79
828.414	80.21
828.591	-30.38
828.769	82.26
828.946	53.59
829.124	55.64
829.301	121.17
829.478	53.59
829.655	57.68
829.833	14.68
830.01	72.02
830.187	96.6
830.364	63.83
830.542	51.54
830.719	53.59
830.896	33.11
831.073	123.22
831.25	47.44
831.427	129.36
831.604	84.31
831.782	-16.04
831.959	104.79
832.136	125.27
832.313	92.5
832.49	72.02
832.667	63.83
832.844	84.31
833.021	137.56
833.198	108.88
833.374	76.12
833.551	69.97
833.728	39.25
833.905	55.64
834.082	-13.99
834.259	78.16
834.436	96.6
834.612	78.16
834.789	67.92
834.966	102.74
835.143	-3.75
835.319	-42.67
835.496	84.31
835.673	35.16
835.85	123.22
836.026	125.27
836.203	125.27
836.38	53.59
836.556	45.4
836.733	145.75
836.909	110.93
837.086	37.2
837.262	59.73
837.439	88.4
837.616	98.64
837.792	14.68
837.968	82.26
838.145	10.58
838.321	22.87
838.498	104.79
838.674	59.73
838.851	20.82
839.027	67.92
839.203	-11.95
839.38	14.68
839.556	67.92
839.732	39.25
839.909	119.12
840.085	92.5
840.261	20.82
840.437	61.78
840.614	78.16
840.79	108.88
840.966	74.07
841.142	45.4
841.318	49.49
841.494	59.73
841.671	76.12
841.847	49.49
842.023	-18.09
842.199	84.31
842.375	18.77
842.551	2.39
842.727	39.25
842.903	72.02
843.079	65.88
843.255	63.83
843.431	67.92
843.607	35.16
843.783	24.92
843.959	74.07
844.134	35.16
844.31	90.45
844.486	8.53
844.662	76.12
844.838	18.77
845.013	-3.75
845.189	69.97
845.365	74.07
845.541	24.92
845.716	63.83
845.892	53.59
846.068	-5.8
846.244	-30.38
846.419	4.44
846.595	39.25
846.77	35.16
846.946	86.36
847.122	14.68
847.297	10.58
847.473	92.5
847.648	92.5
847.824	31.06
847.999	39.25
848.175	-13.99
848.35	88.4
848.526	57.68
848.701	94.55
848.876	22.87
849.052	78.16
849.227	-1.71
849.403	-18.09
849.578	55.64
849.753	-7.85
849.929	20.82
850.104	-9.9
850.279	26.96
850.454	26.96
850.63	45.4
850.805	18.77
850.98	100.69
851.155	65.88
851.33	86.36
851.505	-3.75
851.681	100.69
851.856	43.35
852.031	18.77
852.206	-26.28
852.381	-44.71
852.556	-32.43
852.731	35.16
852.906	39.25
853.081	121.17
853.256	67.92
853.431	80.21
853.606	43.35
853.781	-3.75
853.956	-67.24
854.131	-26.28
854.305	61.78
854.48	72.02
854.655	80.21
854.83	-44.71
855.005	47.44
855.18	84.31
855.354	-1.71
855.529	31.06
855.704	37.2
855.879	69.97
856.053	-63.15
856.228	55.64
856.403	-3.75
856.577	69.97
856.752	12.63
856.926	43.35
857.101	65.88
857.276	-42.67
857.45	-63.15
857.625	-11.95
857.799	-7.85
857.974	8.53
858.148	-34.47
858.323	31.06
858.497	80.21
858.672	72.02
858.846	18.77
859.02	18.77
859.195	14.68
859.369	18.77
859.543	-9.9
859.718	12.63
859.892	-5.8
860.066	29.01
860.241	10.58
860.415	4.44
860.589	-1.71
860.763	76.12
860.938	-42.67
861.112	10.58
861.286	-26.28
861.46	-26.28
861.634	53.59
861.808	67.92
861.982	-32.43
862.157	31.06
862.331	-18.09
862.505	45.4
862.679	-44.71
862.853	31.06
863.027	-36.52
863.201	92.5
863.375	-54.95
863.549	61.78
863.722	53.59
863.896	39.25
864.07	-22.19
864.244	6.49
864.418	39.25
864.592	-59.05
864.766	10.58
864.939	-9.9
865.113	29.01
865.287	90.45
865.461	10.58
865.634	22.87
865.808	39.25
865.982	39.25
866.156	31.06
866.329	-5.8
866.503	96.6
866.676	22.87
866.85	55.64
867.024	-28.33
867.197	-63.15
867.371	8.53
867.544	47.44
867.718	-28.33
867.891	55.64
868.065	24.92
868.238	-9.9
868.412	26.96
868.585	43.35
868.759	0.34
868.932	33.11
869.105	-52.91
869.279	37.2
869.452	16.73
869.625	33.11
869.799	90.45
869.972	4.44
870.145	-16.04
870.319	84.31
870.492	-9.9
870.665	-46.76
870.838	-38.57
871.011	-26.28
871.185	-5.8
871.358	39.25
871.531	-13.99
871.704	84.31
871.877	6.49
872.05	-63.15
872.223	47.44
872.396	61.78
872.569	43.35
872.742	-9.9
872.915	-7.85
873.088	18.77
873.261	14.68
873.434	14.68
873.607	-42.67
873.78	112.98
873.953	-5.8
874.126	35.16
874.299	-1.71
874.471	-34.47
874.644	24.92
874.817	39.25
874.99	41.3
875.163	55.64
875.335	29.01
875.508	31.06
875.681	104.79
875.853	35.16
876.026	20.82
876.199	51.54
876.371	-28.33
876.544	-59.05
876.717	-32.43
876.889	2.39
877.062	10.58
877.234	-75.43
877.407	18.77
877.579	-42.67
877.752	6.49
877.924	80.21
878.097	35.16
878.269	18.77
878.442	96.6
878.614	14.68
878.786	6.49
878.959	96.6
879.131	47.44
879.303	14.68
879.476	-26.28
879.648	24.92
879.82	96.6
879.993	51.54
880.165	-5.8
880.337	-73.39
880.509	-5.8
880.681	-83.63
880.854	55.64
881.026	55.64
881.198	69.97
881.37	-28.33
881.542	-1.71
881.714	33.11
881.886	-42.67
882.058	31.06
882.23	-9.9
882.402	8.53
882.574	35.16
882.746	16.73
882.918	47.44
883.09	100.69
883.262	76.12
883.434	6.49
883.606	-77.48
883.778	-13.99
883.95	41.3
884.122	-13.99
884.293	22.87
884.465	-13.99
884.637	53.59
884.809	63.83
884.98	18.77
885.152	0.34
885.324	117.08
885.496	47.44
885.667	8.53
885.839	-26.28
886.011	100.69
886.182	-61.1
886.354	53.59
886.525	-1.71
886.697	-50.86
886.869	-26.28
887.04	18.77
887.212	-22.19
887.383	-9.9
887.555	76.12
887.726	31.06
887.897	8.53
888.069	6.49
888.24	45.4
888.412	6.49
888.583	31.06
888.754	-50.86
888.926	-48.81
889.097	-13.99
889.268	-1.71
889.44	-34.47
889.611	-91.82
889.782	-42.67
889.953	39.25
890.125	69.97
890.296	-3.75
890.467	43.35
890.638	-69.29
890.809	-26.28
890.98	-32.43
891.151	29.01
891.323	37.2
891.494	6.49
891.665	-5.8
891.836	-5.8
892.007	39.25
892.178	12.63
892.349	16.73
892.52	20.82
892.691	-26.28
892.862	-22.19
893.032	-18.09
893.203	76.12
893.374	-11.95
893.545	4.44
893.716	12.63
893.887	24.92
894.057	35.16
894.228	72.02
894.399	-1.71
894.57	57.68
894.74	-69.29
894.911	51.54
895.082	33.11
895.253	-13.99
895.423	-9.9
895.594	-13.99
895.764	12.63
895.935	67.92
896.106	-11.95
896.276	-26.28
896.447	-67.24
896.617	-9.9
896.788	-1.71
896.958	-91.82
897.129	-108.2
897.299	43.35
897.47	49.49
897.64	22.87
897.81	31.06
897.981	24.92
898.151	-54.95
898.322	63.83
898.492	98.64
898.662	-46.76
898.832	20.82
899.003	-28.33
899.173	-9.9
899.343	-48.81
899.513	-20.14
