Data from USB4F104151__263__10-40-19-345.txt Node

Date: Wed Mar 12 10:40:19 EDT 2025
User: louis
Spectrometer: USB4F10415
Trigger mode: 4
Integration Time (sec): 3.000000E-2
Scans to average: 1
Electric dark correction enabled: true
Nonlinearity correction enabled: false
Boxcar width: 0
XAxis mode: Wavelengths
Number of Pixels in Spectrum: 3648
>>>>>Begin Spectral Data<<<<<
178.204	-107.69
178.424	-107.69
178.644	-107.69
178.864	-99.5
179.084	-113.83
179.304	-15.53
179.524	-64.68
179.744	-3.24
179.964	4.95
180.184	-48.3
180.404	64.34
180.624	41.81
180.844	-5.29
181.064	-52.39
181.283	13.14
181.503	0.85
181.723	64.34
181.943	-29.87
182.163	23.38
182.383	27.48
182.602	58.2
182.822	4.95
183.042	23.38
183.262	21.33
183.482	4.95
183.701	50
183.921	103.25
184.141	62.29
184.361	95.06
184.58	68.44
184.8	33.62
185.02	0.85
185.239	45.91
185.459	-27.82
185.679	35.67
185.898	-60.59
186.118	21.33
186.338	-25.77
186.557	80.72
186.777	-11.43
186.997	72.53
187.216	56.15
187.436	66.39
187.655	0.85
187.875	56.15
188.095	-5.29
188.314	45.91
188.534	95.06
188.753	31.57
188.973	17.24
189.192	-5.29
189.412	35.67
189.631	88.92
189.851	21.33
190.07	78.68
190.29	31.57
190.509	-27.82
190.729	-3.24
190.948	21.33
191.168	174.93
191.387	13.14
191.607	7
191.826	70.48
192.045	47.96
192.265	47.96
192.484	-19.63
192.704	-33.96
192.923	-11.43
193.142	101.2
193.362	74.58
193.581	113.49
193.8	99.16
194.02	-15.53
194.239	31.57
194.458	39.76
194.678	68.44
194.897	-25.77
195.116	33.62
195.335	66.39
195.555	66.39
195.774	25.43
195.993	-27.82
196.212	2.9
196.432	37.72
196.651	37.72
196.87	-1.19
197.089	172.88
197.308	56.15
197.528	129.88
197.747	-5.29
197.966	54.1
198.185	17.24
198.404	9.05
198.623	54.1
198.842	52.05
199.062	25.43
199.281	97.11
199.5	-19.63
199.719	80.72
199.938	58.2
200.157	21.33
200.376	45.91
200.595	99.16
200.814	13.14
201.033	66.39
201.252	60.24
201.471	78.68
201.69	54.1
201.909	86.87
202.128	43.86
202.347	11.09
202.566	17.24
202.785	56.15
203.004	41.81
203.223	105.3
203.442	-3.24
203.661	74.58
203.879	-7.34
204.098	72.53
204.317	39.76
204.536	21.33
204.755	21.33
204.974	93.01
205.193	58.2
205.411	72.53
205.63	84.82
205.849	95.06
206.068	25.43
206.287	0.85
206.505	62.29
206.724	70.48
206.943	-21.67
207.162	21.33
207.381	58.2
207.599	17.24
207.818	37.72
208.037	-3.24
208.255	17.24
208.474	35.67
208.693	43.86
208.911	56.15
209.13	41.81
209.349	37.72
209.567	2.9
209.786	76.63
210.005	74.58
210.223	-11.43
210.442	-11.43
210.661	25.43
210.879	9.05
211.098	29.52
211.316	-1.19
211.535	123.73
211.753	11.09
211.972	37.72
212.191	-11.43
212.409	15.19
212.628	43.86
212.846	37.72
213.065	97.11
213.283	11.09
213.502	0.85
213.72	86.87
213.938	29.52
214.157	58.2
214.375	45.91
214.594	74.58
214.812	74.58
215.031	66.39
215.249	-7.34
215.467	72.53
215.686	13.14
215.904	72.53
216.122	-87.21
216.341	54.1
216.559	72.53
216.778	-1.19
216.996	35.67
217.214	-29.87
217.432	64.34
217.651	33.62
217.869	17.24
218.087	70.48
218.306	41.81
218.524	127.83
218.742	35.67
218.96	95.06
219.179	37.72
219.397	58.2
219.615	4.95
219.833	84.82
220.051	2.9
220.27	99.16
220.488	43.86
220.706	11.09
220.924	9.05
221.142	50
221.36	37.72
221.578	-1.19
221.796	62.29
222.015	-17.58
222.233	72.53
222.451	37.72
222.669	66.39
222.887	80.72
223.105	41.81
223.323	56.15
223.541	4.95
223.759	37.72
223.977	35.67
224.195	58.2
224.413	23.38
224.631	33.62
224.849	29.52
225.067	54.1
225.285	82.77
225.503	-19.63
225.721	17.24
225.939	60.24
226.157	43.86
226.375	109.4
226.592	25.43
226.81	9.05
227.028	56.15
227.246	115.54
227.464	45.91
227.682	45.91
227.9	160.59
228.117	35.67
228.335	-7.34
228.553	29.52
228.771	-23.72
228.989	70.48
229.206	60.24
229.424	52.05
229.642	93.01
229.86	-58.54
230.077	37.72
230.295	99.16
230.513	-3.24
230.731	4.95
230.948	62.29
231.166	39.76
231.384	-21.67
231.601	-7.34
231.819	66.39
232.037	47.96
232.254	-9.39
232.472	50
232.689	93.01
232.907	70.48
233.125	-36.01
233.342	-50.35
233.56	29.52
233.777	47.96
233.995	19.29
234.213	95.06
234.43	86.87
234.648	74.58
234.865	21.33
235.083	70.48
235.3	41.81
235.518	33.62
235.735	17.24
235.953	64.34
236.17	-19.63
236.388	39.76
236.605	68.44
236.822	43.86
237.04	39.76
237.257	-19.63
237.475	21.33
237.692	21.33
237.909	37.72
238.127	11.09
238.344	99.16
238.562	2.9
238.779	-19.63
238.996	-70.83
239.214	33.62
239.431	60.24
239.648	90.96
239.865	78.68
240.083	17.24
240.3	29.52
240.517	13.14
240.735	-50.35
240.952	74.58
241.169	95.06
241.386	4.95
241.603	19.29
241.821	7
242.038	64.34
242.255	25.43
242.472	17.24
242.689	121.68
242.907	70.48
243.124	-5.29
243.341	60.24
243.558	29.52
243.775	13.14
243.992	-7.34
244.209	66.39
244.426	45.91
244.643	123.73
244.86	-19.63
245.078	13.14
245.295	23.38
245.512	50
245.729	-9.39
245.946	37.72
246.163	84.82
246.38	50
246.597	4.95
246.814	82.77
247.031	84.82
247.248	11.09
247.464	60.24
247.681	70.48
247.898	25.43
248.115	101.2
248.332	-68.78
248.549	66.39
248.766	138.07
248.983	74.58
249.2	21.33
249.417	99.16
249.633	-60.59
249.85	62.29
250.067	-5.29
250.284	41.81
250.501	58.2
250.717	72.53
250.934	-9.39
251.151	80.72
251.368	13.14
251.585	84.82
251.801	19.29
252.018	19.29
252.235	62.29
252.451	72.53
252.668	2.9
252.885	50
253.102	52.05
253.318	66.39
253.535	0.85
253.752	31.57
253.968	74.58
254.185	15.19
254.401	95.06
254.618	50
254.835	2.9
255.051	62.29
255.268	82.77
255.484	131.92
255.701	41.81
255.917	115.54
256.134	78.68
256.351	72.53
256.567	0.85
256.784	13.14
257	35.67
257.217	99.16
257.433	60.24
257.65	70.48
257.866	58.2
258.082	-31.91
258.299	-48.3
258.515	99.16
258.732	29.52
258.948	-50.35
259.165	39.76
259.381	76.63
259.597	37.72
259.814	95.06
260.03	72.53
260.246	74.58
260.463	4.95
260.679	45.91
260.895	58.2
261.112	111.44
261.328	74.58
261.544	-33.96
261.761	86.87
261.977	78.68
262.193	-36.01
262.409	93.01
262.626	-3.24
262.842	47.96
263.058	27.48
263.274	45.91
263.49	41.81
263.707	41.81
263.923	76.63
264.139	56.15
264.355	58.2
264.571	84.82
264.787	25.43
265.004	39.76
265.22	13.14
265.436	-33.96
265.652	95.06
265.868	88.92
266.084	43.86
266.3	103.25
266.516	43.86
266.732	45.91
266.948	33.62
267.164	82.77
267.38	58.2
267.596	113.49
267.812	88.92
268.028	-40.11
268.244	27.48
268.46	72.53
268.676	45.91
268.892	68.44
269.108	41.81
269.324	95.06
269.54	13.14
269.756	-21.67
269.972	-42.15
270.188	35.67
270.403	-38.06
270.619	84.82
270.835	41.81
271.051	35.67
271.267	4.95
271.483	29.52
271.698	-5.29
271.914	129.88
272.13	88.92
272.346	15.19
272.562	84.82
272.777	27.48
272.993	86.87
273.209	-15.53
273.425	41.81
273.64	54.1
273.856	35.67
274.072	-11.43
274.287	93.01
274.503	80.72
274.719	68.44
274.934	17.24
275.15	-3.24
275.366	0.85
275.581	29.52
275.797	54.1
276.012	62.29
276.228	15.19
276.444	11.09
276.659	52.05
276.875	50
277.09	2.9
277.306	-1.19
277.521	99.16
277.737	4.95
277.952	109.4
278.168	29.52
278.383	133.97
278.599	50
278.814	25.43
279.03	23.38
279.245	54.1
279.461	29.52
279.676	52.05
279.892	35.67
280.107	15.19
280.322	-3.24
280.538	45.91
280.753	0.85
280.969	45.91
281.184	29.52
281.399	-3.24
281.615	97.11
281.83	70.48
282.045	43.86
282.26	-15.53
282.476	62.29
282.691	21.33
282.906	70.48
283.122	-38.06
283.337	64.34
283.552	25.43
283.767	35.67
283.983	78.68
284.198	66.39
284.413	37.72
284.628	70.48
284.843	62.29
285.058	76.63
285.274	35.67
285.489	29.52
285.704	127.83
285.919	50
286.134	50
286.349	-11.43
286.564	60.24
286.779	82.77
286.995	4.95
287.21	-7.34
287.425	50
287.64	-44.2
287.855	39.76
288.07	-19.63
288.285	62.29
288.5	60.24
288.715	33.62
288.93	13.14
289.145	-27.82
289.36	47.96
289.575	52.05
289.79	72.53
290.004	17.24
290.219	84.82
290.434	13.14
290.649	29.52
290.864	68.44
291.079	27.48
291.294	2.9
291.509	103.25
291.724	37.72
291.938	68.44
292.153	101.2
292.368	-19.63
292.583	105.3
292.798	86.87
293.012	93.01
293.227	33.62
293.442	-3.24
293.657	80.72
293.871	21.33
294.086	86.87
294.301	50
294.516	127.83
294.73	113.49
294.945	-9.39
295.16	47.96
295.374	27.48
295.589	58.2
295.804	4.95
296.018	11.09
296.233	62.29
296.447	95.06
296.662	0.85
296.877	78.68
297.091	109.4
297.306	39.76
297.52	88.92
297.735	80.72
297.949	4.95
298.164	99.16
298.378	62.29
298.593	-1.19
298.807	35.67
299.022	-3.24
299.236	140.12
299.451	86.87
299.665	76.63
299.88	41.81
300.094	82.77
300.309	25.43
300.523	0.85
300.737	4.95
300.952	146.26
301.166	54.1
301.381	47.96
301.595	76.63
301.809	-19.63
302.024	27.48
302.238	-81.07
302.452	45.91
302.667	19.29
302.881	60.24
303.095	7
303.309	58.2
303.524	47.96
303.738	86.87
303.952	35.67
304.166	9.05
304.381	-62.63
304.595	76.63
304.809	2.9
305.023	19.29
305.237	115.54
305.452	35.67
305.666	52.05
305.88	52.05
306.094	39.76
306.308	95.06
306.522	68.44
306.736	58.2
306.95	13.14
307.164	39.76
307.379	103.25
307.593	54.1
307.807	78.68
308.021	45.91
308.235	43.86
308.449	97.11
308.663	56.15
308.877	168.79
309.091	86.87
309.305	23.38
309.519	-3.24
309.733	86.87
309.947	-5.29
310.161	101.2
310.374	54.1
310.588	15.19
310.802	33.62
311.016	99.16
311.23	50
311.444	62.29
311.658	78.68
311.872	45.91
312.085	66.39
312.299	70.48
312.513	37.72
312.727	-11.43
312.941	74.58
313.154	52.05
313.368	70.48
313.582	41.81
313.796	74.58
314.009	93.01
314.223	68.44
314.437	123.73
314.651	72.53
314.864	80.72
315.078	52.05
315.292	-31.91
315.505	39.76
315.719	74.58
315.933	97.11
316.146	17.24
316.36	84.82
316.573	90.96
316.787	29.52
317.001	84.82
317.214	21.33
317.428	21.33
317.641	-44.2
317.855	95.06
318.068	35.67
318.282	33.62
318.495	76.63
318.709	31.57
318.922	109.4
319.136	41.81
319.349	90.96
319.563	56.15
319.776	88.92
319.99	97.11
320.203	78.68
320.417	-7.34
320.63	50
320.843	76.63
321.057	86.87
321.27	74.58
321.483	47.96
321.697	50
321.91	58.2
322.124	66.39
322.337	66.39
322.55	39.76
322.763	64.34
322.977	37.72
323.19	-1.19
323.403	58.2
323.617	21.33
323.83	90.96
324.043	62.29
324.256	84.82
324.469	50
324.683	93.01
324.896	4.95
325.109	62.29
325.322	-29.87
325.535	99.16
325.748	0.85
325.962	54.1
326.175	54.1
326.388	70.48
326.601	84.82
326.814	62.29
327.027	11.09
327.24	138.07
327.453	-38.06
327.666	13.14
327.879	33.62
328.092	101.2
328.305	9.05
328.518	13.14
328.731	107.35
328.944	25.43
329.157	84.82
329.37	72.53
329.583	78.68
329.796	62.29
330.009	-5.29
330.222	72.53
330.435	64.34
330.648	47.96
330.861	50
331.073	76.63
331.286	11.09
331.499	109.4
331.712	-44.2
331.925	19.29
332.138	58.2
332.35	31.57
332.563	-9.39
332.776	54.1
332.989	60.24
333.202	64.34
333.414	-17.58
333.627	41.81
333.84	68.44
334.053	90.96
334.265	23.38
334.478	117.59
334.691	47.96
334.903	119.64
335.116	-21.67
335.329	129.88
335.541	90.96
335.754	-11.43
335.966	9.05
336.179	7
336.392	76.63
336.604	35.67
336.817	80.72
337.029	123.73
337.242	4.95
337.454	66.39
337.667	45.91
337.88	95.06
338.092	47.96
338.305	107.35
338.517	72.53
338.729	56.15
338.942	54.1
339.154	56.15
339.367	50
339.579	86.87
339.792	45.91
340.004	90.96
340.217	29.52
340.429	27.48
340.641	29.52
340.854	33.62
341.066	72.53
341.278	82.77
341.491	62.29
341.703	97.11
341.915	50
342.128	37.72
342.34	86.87
342.552	119.64
342.764	74.58
342.977	76.63
343.189	84.82
343.401	43.86
343.613	25.43
343.826	62.29
344.038	37.72
344.25	39.76
344.462	4.95
344.674	29.52
344.886	21.33
345.099	74.58
345.311	21.33
345.523	31.57
345.735	37.72
345.947	82.77
346.159	17.24
346.371	64.34
346.583	37.72
346.795	62.29
347.007	31.57
347.219	37.72
347.431	-11.43
347.643	90.96
347.855	84.82
348.067	88.92
348.279	50
348.491	74.58
348.703	68.44
348.915	52.05
349.127	31.57
349.339	41.81
349.551	76.63
349.763	150.36
349.975	-1.19
350.187	72.53
350.399	103.25
350.61	103.25
350.822	41.81
351.034	54.1
351.246	168.79
351.458	37.72
351.669	68.44
351.881	80.72
352.093	68.44
352.305	58.2
352.517	-21.67
352.728	60.24
352.94	119.64
353.152	144.21
353.363	-3.24
353.575	119.64
353.787	121.68
353.999	66.39
354.21	33.62
354.422	93.01
354.633	13.14
354.845	9.05
355.057	29.52
355.268	140.12
355.48	17.24
355.692	37.72
355.903	-1.19
356.115	56.15
356.326	52.05
356.538	93.01
356.749	37.72
356.961	64.34
357.172	25.43
357.384	21.33
357.595	170.83
357.807	33.62
358.018	58.2
358.23	62.29
358.441	103.25
358.653	95.06
358.864	74.58
359.075	66.39
359.287	45.91
359.498	76.63
359.709	70.48
359.921	25.43
360.132	74.58
360.344	39.76
360.555	78.68
360.766	78.68
360.977	21.33
361.189	64.34
361.4	37.72
361.611	90.96
361.823	70.48
362.034	47.96
362.245	-1.19
362.456	52.05
362.667	54.1
362.879	101.2
363.09	160.59
363.301	70.48
363.512	78.68
363.723	-42.15
363.935	41.81
364.146	45.91
364.357	13.14
364.568	115.54
364.779	-15.53
364.99	45.91
365.201	90.96
365.412	148.31
365.623	25.43
365.834	64.34
366.045	17.24
366.256	66.39
366.467	103.25
366.678	78.68
366.889	45.91
367.1	33.62
367.311	70.48
367.522	19.29
367.733	78.68
367.944	74.58
368.155	-7.34
368.366	66.39
368.577	103.25
368.788	58.2
368.999	62.29
369.209	19.29
369.42	84.82
369.631	103.25
369.842	127.83
370.053	119.64
370.264	121.68
370.474	29.52
370.685	115.54
370.896	58.2
371.107	62.29
371.317	41.81
371.528	15.19
371.739	90.96
371.95	74.58
372.16	183.12
372.371	-3.24
372.582	66.39
372.792	58.2
373.003	21.33
373.214	52.05
373.424	97.11
373.635	9.05
373.846	154.45
374.056	-23.72
374.267	76.63
374.477	123.73
374.688	52.05
374.898	54.1
375.109	9.05
375.319	72.53
375.53	64.34
375.74	66.39
375.951	-9.39
376.161	-9.39
376.372	133.97
376.582	80.72
376.793	31.57
377.003	43.86
377.214	58.2
377.424	62.29
377.635	70.48
377.845	86.87
378.055	82.77
378.266	25.43
378.476	95.06
378.686	31.57
378.897	72.53
379.107	123.73
379.317	136.02
379.528	21.33
379.738	82.77
379.948	62.29
380.158	119.64
380.369	66.39
380.579	115.54
380.789	54.1
380.999	84.82
381.21	113.49
381.42	123.73
381.63	86.87
381.84	66.39
382.05	131.92
382.261	41.81
382.471	121.68
382.681	105.3
382.891	78.68
383.101	7
383.311	39.76
383.521	78.68
383.731	41.81
383.941	123.73
384.151	74.58
384.361	76.63
384.571	86.87
384.781	115.54
384.991	125.78
385.201	129.88
385.411	60.24
385.621	115.54
385.831	121.68
386.041	90.96
386.251	125.78
386.461	101.2
386.671	181.07
386.881	107.35
387.091	43.86
387.301	133.97
387.511	43.86
387.72	113.49
387.93	123.73
388.14	54.1
388.35	66.39
388.56	144.21
388.769	76.63
388.979	-23.72
389.189	45.91
389.399	-1.19
389.609	90.96
389.818	181.07
390.028	115.54
390.238	123.73
390.447	86.87
390.657	127.83
390.867	80.72
391.076	125.78
391.286	80.72
391.496	56.15
391.705	125.78
391.915	37.72
392.125	68.44
392.334	150.36
392.544	121.68
392.753	4.95
392.963	84.82
393.172	107.35
393.382	119.64
393.591	140.12
393.801	66.39
394.01	109.4
394.22	86.87
394.429	152.4
394.639	74.58
394.848	115.54
395.058	125.78
395.267	131.92
395.477	95.06
395.686	197.46
395.895	185.17
396.105	95.06
396.314	74.58
396.524	101.2
396.733	86.87
396.942	158.55
397.152	113.49
397.361	176.98
397.57	226.13
397.78	103.25
397.989	168.79
398.198	160.59
398.407	185.17
398.617	166.74
398.826	72.53
399.035	84.82
399.244	103.25
399.453	103.25
399.663	152.4
399.872	154.45
400.081	158.55
400.29	152.4
400.499	113.49
400.708	136.02
400.917	76.63
401.127	164.69
401.336	189.27
401.545	219.99
401.754	152.4
401.963	213.84
402.172	125.78
402.381	189.27
402.59	189.27
402.799	115.54
403.008	213.84
403.217	168.79
403.426	144.21
403.635	183.12
403.844	160.59
404.053	131.92
404.262	185.17
404.471	209.75
404.68	168.79
404.888	191.31
405.097	162.64
405.306	183.12
405.515	222.03
405.724	293.71
405.933	201.55
406.142	240.47
406.35	254.8
406.559	201.55
406.768	275.28
406.977	265.04
407.185	226.13
407.394	205.65
407.603	156.5
407.812	222.03
408.02	252.75
408.229	269.14
408.438	303.95
408.646	207.7
408.855	324.43
409.064	320.34
409.272	308.05
409.481	275.28
409.69	344.91
409.898	328.53
410.107	353.1
410.315	346.96
410.524	389.97
410.733	420.69
410.941	383.82
411.15	445.26
411.358	447.31
411.567	547.66
411.775	432.97
411.984	422.73
412.192	473.93
412.401	510.8
412.609	600.91
412.818	602.96
413.026	566.09
413.234	629.58
413.443	668.49
413.651	596.81
413.86	615.24
414.068	721.74
414.276	768.84
414.485	701.26
414.693	783.18
414.901	828.23
415.11	963.4
415.318	885.58
415.526	910.15
415.734	961.35
415.943	926.54
416.151	1028.93
416.359	1045.32
416.567	994.12
416.776	1037.13
416.984	1147.72
417.192	1215.3
417.4	1252.16
417.608	1182.53
417.817	1276.74
418.025	1237.83
418.233	1383.23
418.441	1483.58
418.649	1436.48
418.857	1483.58
419.065	1467.2
419.273	1557.31
419.481	1518.4
419.689	1715
419.897	1815.35
420.105	1827.64
420.313	1868.6
420.521	1903.42
420.729	1975.1
420.937	2024.25
421.145	2026.29
421.353	2216.76
421.561	2329.39
421.769	2323.25
421.977	2493.23
422.185	2380.59
422.393	2685.74
422.601	2677.55
422.809	2736.94
423.017	2781.99
423.224	2900.78
423.432	2917.16
423.64	2904.87
423.848	3361.57
424.056	3093.29
424.263	3566.37
424.471	3336.99
424.679	3328.8
424.887	3590.94
425.094	3715.87
425.302	3889.95
425.51	3930.91
425.718	4186.9
425.925	4166.42
426.133	4283.16
426.341	4645.65
426.548	4743.95
426.756	4784.91
426.964	4789
427.171	5026.57
427.379	5298.95
427.586	5331.72
427.794	5579.52
428.001	5554.94
428.209	5647.1
428.417	5796.6
428.624	6378.23
428.832	6419.19
429.039	6202.1
429.247	6142.71
429.454	6873.84
429.662	7408.36
429.869	6875.88
430.076	7365.35
430.284	7049.96
430.491	7471.84
430.699	7869.15
430.906	7994.08
431.114	8024.79
431.321	8155.86
431.528	8403.67
431.736	8999.63
431.943	9370.31
432.15	9005.77
432.358	9327.3
432.565	9681.6
432.772	9652.93
432.979	10152.63
433.187	10324.66
433.394	10597.04
433.601	11152.04
433.808	11188.91
434.016	11080.36
434.223	11625.12
434.43	11940.51
434.637	12059.29
434.844	12984.98
435.052	13146.76
435.259	13015.69
435.466	13095.57
435.673	12692.12
435.88	13976.19
436.087	14498.42
436.294	14629.49
436.501	14373.5
436.708	14578.29
436.915	15020.66
437.122	15731.3
437.329	15589.99
437.537	15979.11
437.743	16378.46
437.95	16366.17
438.157	17427.02
438.364	17447.5
438.571	17646.15
438.778	17869.38
438.985	19493.42
439.192	18750.01
439.399	19274.29
439.606	18756.15
439.813	20005.41
440.02	21285.39
440.227	20791.83
440.433	20494.88
440.64	21277.2
440.847	21152.27
441.054	21537.29
441.261	23196.15
441.467	22852.09
441.674	23271.92
441.881	23779.82
442.088	24132.07
442.294	23921.13
442.501	24576.48
442.708	24836.57
442.914	25934.28
443.121	27007.42
443.328	26583.49
443.534	28123.56
443.741	27310.52
443.948	27089.34
444.154	29092.25
444.361	28957.08
444.568	29153.69
444.774	29106.59
444.981	29333.91
445.187	30241.16
445.394	31678.83
445.6	31009.15
445.807	34036.05
446.013	32498.02
446.22	33462.61
446.426	34490.7
446.633	34795.84
446.839	35871.03
447.046	34638.15
447.252	36219.18
447.459	36327.72
447.665	35834.16
447.871	37988.63
448.078	39166.21
448.284	37464.35
448.491	38560.01
448.697	39747.83
448.903	40517.87
449.11	40567.02
449.316	39586.04
449.522	40442.09
449.728	41480.41
449.935	42029.27
450.141	41910.49
450.347	43133.12
450.553	41453.79
450.76	41773.27
450.966	42975.43
451.172	42717.39
451.378	43854.01
451.584	42516.68
451.791	43665.6
451.997	43507.9
452.203	43940.02
452.409	43929.78
452.615	43569.34
452.821	42229.97
453.027	42006.74
453.233	43604.16
453.44	42189.01
453.646	42713.29
453.852	42580.17
454.058	43370.69
454.264	42205.39
454.47	42600.65
454.676	41861.33
454.882	43229.38
455.088	39403.77
455.294	39467.26
455.5	40343.79
455.705	40966.37
455.911	39067.91
456.117	38697.22
456.323	37730.58
456.529	35686.71
456.735	37179.68
456.941	36454.7
457.147	35494.2
457.352	34574.66
457.558	33749.33
457.764	34353.48
457.97	33528.15
458.176	32880.99
458.381	33018.21
458.587	31220.09
458.793	30994.81
458.999	29489.56
459.204	31662.45
459.41	30792.06
459.616	28850.59
459.821	28561.83
460.027	28760.48
460.233	27955.63
460.438	26608.06
460.644	26771.9
460.85	25614.8
461.055	25303.51
461.261	25162.2
461.466	23282.16
461.672	22555.13
461.878	24275.43
462.083	22632.96
462.289	22241.79
462.494	22131.2
462.7	21398.03
462.905	20810.26
463.111	21434.89
463.316	21297.68
463.522	20812.31
463.727	20826.65
463.932	20804.12
464.138	20826.65
464.343	20781.59
464.549	20048.42
464.754	20914.71
464.959	20486.68
465.165	20421.15
465.37	19730.98
465.575	19044.91
465.781	19659.31
465.986	19966.5
466.191	19067.44
466.397	18891.32
466.602	18137.66
466.807	18760.25
467.012	18733.62
467.218	18551.35
467.423	18485.82
467.628	18793.01
467.833	19366.45
468.038	18565.69
468.244	18006.59
468.449	18707
468.654	18037.31
468.859	17904.2
469.064	17797.7
469.269	17222.22
469.474	17082.96
469.679	17689.16
469.885	17119.82
470.09	17467.98
470.295	17267.28
470.5	16722.52
470.705	16925.27
470.91	16386.65
471.115	16126.56
471.32	16583.26
471.525	16515.67
471.73	16009.83
471.935	15848.04
472.139	15233.64
472.344	15454.83
472.549	15753.83
472.754	15434.35
472.959	14953.07
473.164	14537.34
473.369	14398.07
473.574	15012.46
473.778	14783.09
473.983	14727.8
474.188	14576.25
474.393	14045.82
474.598	13992.58
474.802	13800.07
475.007	13822.59
475.212	13806.21
475.417	13308.55
475.621	13458.06
475.826	13345.42
476.031	13132.43
476.235	13208.2
476.44	12968.59
476.645	12722.84
476.849	12890.77
477.054	12448.41
477.259	12511.89
477.463	12391.06
477.668	11960.99
477.872	12149.4
478.077	12098.2
478.282	11938.46
478.486	11862.69
478.691	11694.75
478.895	11655.84
479.1	11743.91
479.304	11641.51
479.509	11377.32
479.713	11496.1
479.918	11348.65
480.122	11047.6
480.326	11244.2
480.531	11465.38
480.735	11174.57
480.94	11039.4
481.144	11457.19
481.348	10789.55
481.553	10803.89
481.757	10705.59
481.961	11090.6
482.166	10926.77
482.37	10785.46
482.574	10738.35
482.778	10871.47
482.983	11010.73
483.187	10908.33
483.391	10885.81
483.595	10685.11
483.8	10433.21
484.004	10685.11
484.208	10853.04
484.412	10771.12
484.616	10775.22
484.821	10871.47
485.025	10519.22
485.229	10922.67
485.433	10650.29
485.637	10572.47
485.841	10877.62
486.045	10705.59
486.249	10793.65
486.453	10611.38
486.657	10799.79
486.861	10961.58
487.065	10326.71
487.269	10693.3
487.473	10613.43
487.677	10779.31
487.881	10977.97
488.085	10818.22
488.289	10814.13
488.493	10744.5
488.697	10867.38
488.901	10664.63
489.105	10748.59
489.309	11047.6
489.512	10984.11
489.716	11084.46
489.92	11020.97
490.124	10994.35
490.328	11193
490.531	10857.14
490.735	11092.65
490.939	11174.57
491.143	11104.94
491.346	11225.77
491.55	11322.02
491.754	11027.12
491.958	11414.18
492.161	11395.75
492.365	11520.68
492.569	11362.98
492.772	11367.08
492.976	11362.98
493.18	11551.4
493.383	11727.52
493.587	11690.66
493.79	12022.43
493.994	11748
494.197	12010.14
494.401	12067.49
494.605	12051.1
494.808	12282.52
495.012	12436.12
495.215	12104.35
495.419	12380.82
495.622	12561.05
495.825	12718.74
496.029	12612.24
496.232	12866.19
496.436	12866.19
496.639	13169.29
496.843	13159.05
497.046	13396.62
497.249	13509.26
497.453	13652.61
497.656	13771.4
497.859	13683.33
498.063	13843.07
498.266	14209.66
498.469	14221.95
498.673	14389.88
498.876	14496.38
499.079	14344.83
499.282	14709.36
499.485	15104.62
499.689	15200.88
499.892	15278.7
500.095	15348.33
500.298	15819.36
500.501	15575.66
500.705	16192.09
500.908	16269.92
501.111	16589.4
501.314	16468.57
501.517	16689.75
501.72	16865.88
501.923	16687.7
502.126	17384.01
502.329	17576.52
502.532	17863.24
502.735	17898.05
502.938	18043.46
503.141	18129.47
503.344	18391.61
503.547	18512.44
503.75	18756.15
503.953	19169.84
504.156	19155.51
504.359	19368.49
504.562	19352.11
504.765	19860.01
504.968	19978.79
505.17	20353.57
505.373	20253.22
505.576	20941.33
505.779	21021.2
505.982	21109.27
506.185	21191.19
506.387	21527.05
506.59	21760.52
506.793	22170.12
506.996	22186.5
507.198	22780.41
507.401	22639.1
507.604	22870.52
507.807	23343.6
508.009	23708.14
508.212	23357.94
508.415	24035.81
508.617	24099.3
508.82	24443.36
509.022	24185.32
509.225	25219.54
509.428	25127.38
509.63	25221.59
509.833	25416.15
510.035	26091.98
510.238	26036.68
510.44	26407.36
510.643	27163.06
510.845	27115.96
511.048	26839.48
511.25	27158.97
511.453	27857.32
511.655	28520.87
511.858	28133.8
512.06	28318.12
512.262	28676.51
512.465	28514.72
512.667	29305.24
512.87	29731.22
513.072	29497.75
513.274	30091.66
513.477	30548.36
513.679	30419.33
513.881	31013.24
514.084	31449.46
514.286	31592.82
514.488	31627.63
514.69	32524.65
514.893	32635.24
515.095	32743.78
515.297	32696.67
515.499	33184.09
515.701	33640.79
515.904	33849.68
516.106	34662.72
516.308	34844.99
516.51	35006.78
516.712	34543.94
516.914	35307.83
517.116	36090.16
517.318	35762.48
517.52	36020.53
517.722	36610.34
517.925	37040.42
518.127	37255.45
518.329	37699.86
518.531	37529.88
518.733	38064.4
518.935	38416.65
519.136	38420.75
519.338	38947.08
519.54	39506.17
519.742	39766.26
519.944	39676.15
520.146	40681.7
520.348	40693.99
520.55	40949.99
520.752	40890.6
520.954	41666.78
521.155	41910.49
521.357	42287.31
521.559	42508.49
521.761	43202.75
521.963	42926.28
522.164	42969.29
522.366	43614.4
522.568	44210.35
522.77	44513.45
522.971	44685.48
523.173	44531.89
523.375	45168.8
523.576	45064.36
523.778	45256.87
523.98	46024.86
524.181	46200.98
524.383	46053.53
524.584	47315.08
524.786	46389.39
524.988	47011.98
525.189	47366.27
525.391	47435.91
525.592	47507.58
525.794	47822.97
525.995	48267.38
526.197	48191.61
526.398	48289.91
526.6	48433.27
526.801	48982.12
527.003	48947.31
527.204	49158.25
527.406	49883.23
527.607	49696.86
527.808	50067.55
528.01	49076.33
528.211	49961.05
528.412	50663.5
528.614	50253.91
528.815	50387.03
529.016	51476.55
529.218	50876.49
529.419	50595.92
529.62	51011.66
529.822	51370.05
530.023	51286.09
530.224	51101.77
530.425	51028.04
530.626	51388.49
530.828	50886.73
531.029	51976.25
531.23	51421.25
531.431	51298.37
531.632	52078.65
531.833	52179
532.035	52228.15
532.236	52219.96
532.437	52531.25
532.638	52205.62
532.839	52512.82
533.04	52740.14
533.241	51947.58
533.442	52942.89
533.643	52961.33
533.844	52836.4
534.045	52484.15
534.246	52465.72
534.447	52912.17
534.648	52523.06
534.849	53139.5
535.05	52488.24
535.251	52561.97
535.451	52320.31
535.652	53467.17
535.853	53315.62
536.054	53317.67
536.255	53149.74
536.456	52899.89
536.657	53807.14
536.857	52631.6
537.058	53108.78
537.259	53368.87
537.46	52817.97
537.66	52799.54
537.861	53346.34
538.062	52928.56
538.263	52920.37
538.463	52748.34
538.664	53008.43
538.865	53028.91
539.065	53512.23
539.266	53141.55
539.466	53198.89
539.667	52723.76
539.868	53446.69
540.068	52955.18
540.269	53106.73
540.469	53501.99
540.67	52822.06
540.87	53182.51
541.071	52750.38
541.271	53090.35
541.472	52897.84
541.672	53301.29
541.873	52746.29
542.073	52631.6
542.274	53573.67
542.474	52985.9
542.675	52574.26
542.875	53280.81
543.075	52824.11
543.276	52234.3
543.476	53209.13
543.676	52721.71
543.877	52813.87
544.077	53393.45
544.277	52959.28
544.478	52539.44
544.678	53237.8
544.878	52750.38
545.078	52922.41
545.279	52684.85
545.479	52734
545.679	52971.57
545.879	52734
546.079	52783.15
546.28	52357.17
546.48	52377.65
546.68	52959.28
546.88	52635.7
547.08	52625.46
547.28	52346.93
547.48	52338.74
547.68	52471.86
547.88	52467.76
548.081	52828.21
548.281	52895.79
548.481	52660.27
548.681	53215.27
548.881	53010.48
549.081	52340.79
549.28	52543.54
549.48	52987.95
549.68	53035.05
549.88	53278.76
550.08	52553.78
550.28	52557.88
550.48	52504.63
550.68	53108.78
550.88	52465.72
551.08	52066.36
551.279	52348.98
551.479	51927.1
551.679	52267.06
551.879	52348.98
552.079	52533.3
552.278	52009.02
552.478	52332.6
552.678	52428.85
552.878	52353.08
553.077	52609.07
553.277	51939.39
553.477	52647.99
553.676	52033.6
553.876	51873.85
554.076	52133.95
554.275	51986.49
554.475	51066.95
554.674	51974.2
554.874	51769.41
555.074	51884.09
555.273	51759.17
555.473	51914.81
555.672	51327.05
555.872	51906.62
556.071	51591.23
556.271	51550.27
556.47	51361.86
556.67	51112.01
556.869	51226.7
557.068	51550.27
557.268	51251.27
557.467	51284.04
557.667	51466.31
557.866	51030.09
558.065	51222.6
558.265	50903.12
558.464	50911.31
558.663	51312.71
558.863	50243.67
559.062	51546.18
559.261	50563.15
559.461	51308.61
559.66	50384.98
559.859	50643.02
560.058	50219.1
560.258	50479.19
560.457	49821.79
560.656	50524.24
560.855	50208.86
561.054	50567.25
561.253	49801.31
561.453	50284.63
561.652	49918.04
561.851	49856.6
562.05	49834.08
562.249	49662.05
562.448	49807.45
562.647	49578.08
562.846	49270.89
563.045	49604.7
563.244	49274.98
563.443	49670.24
563.642	48537.71
563.841	49195.11
564.04	48746.61
564.239	49201.25
564.438	48627.82
564.637	49494.11
564.836	48857.2
565.035	48418.93
565.234	48881.77
565.432	47798.4
565.631	48437.36
565.83	48232.57
566.029	47710.33
566.228	47593.6
566.427	47548.54
566.625	47298.69
566.824	47011.98
567.023	47335.56
567.222	46416.02
567.42	47462.53
567.619	47077.51
567.818	47020.17
568.016	46446.74
568.215	46831.75
568.414	46719.12
568.612	46989.45
568.811	46403.73
569.01	46663.82
569.208	45725.85
569.407	46266.52
569.605	45668.51
569.804	46131.35
570.002	45803.67
570.201	46053.53
570.4	45463.71
570.598	44875.94
570.797	44951.72
570.995	45346.98
571.193	44753.07
571.392	45209.76
571.59	44923.05
571.789	44671.15
571.987	44578.99
572.186	44433.58
572.384	44361.9
572.582	44507.31
572.781	44423.34
572.979	44142.77
573.177	44060.85
573.376	44087.48
573.574	43694.27
573.772	43702.46
573.971	43909.3
574.169	43210.95
574.367	43016.39
574.565	43487.42
574.763	42684.62
574.962	43280.58
575.16	42563.79
575.358	42862.79
575.556	42457.29
575.754	42635.47
575.952	42350.8
576.151	42608.84
576.349	41806.04
576.547	42268.88
576.745	42229.97
576.943	42146
577.141	41904.34
577.339	42027.22
577.537	41457.88
577.735	41916.63
577.933	41101.54
578.131	41601.24
578.329	40995.04
578.527	40794.34
578.725	40804.58
578.923	41115.87
579.121	40663.27
579.319	40626.41
579.516	40939.75
579.714	40470.76
579.912	40468.72
580.11	40380.65
580.308	40411.37
580.506	40288.49
580.704	39713.02
580.901	40055.03
581.099	39510.27
581.297	39301.37
581.495	39524.6
581.692	39616.76
581.89	39274.75
582.088	39125.25
582.285	38873.35
582.483	38975.75
582.681	38889.73
582.878	38549.77
583.076	38449.42
583.274	38830.34
583.471	38172.94
583.669	38226.19
583.866	37988.63
584.064	38541.58
584.262	37802.26
584.459	37955.86
584.657	37644.57
584.854	37851.41
585.052	37409.05
585.249	37679.38
585.447	37531.93
585.644	37253.4
585.841	37402.91
586.039	37181.73
586.236	36763.94
586.434	36774.18
586.631	36872.48
586.828	36768.04
587.026	36636.97
587.223	36331.82
587.42	36542.76
587.618	36479.27
587.815	35916.08
588.012	35926.32
588.21	36049.2
588.407	36149.55
588.604	35668.28
588.801	35383.61
588.999	35623.22
589.196	35363.13
589.393	35508.54
589.59	35199.29
589.787	35131.71
589.984	34914.62
590.182	34736.45
590.379	35070.27
590.576	34382.15
590.773	34894.14
590.97	34433.35
591.167	34570.57
591.364	34177.36
591.561	34478.41
591.758	33933.65
591.955	34027.85
592.152	33952.08
592.349	33667.41
592.546	33675.6
592.743	33806.67
592.94	33411.42
593.137	33198.43
593.334	33503.57
593.531	33005.92
593.727	33247.58
593.924	33231.19
594.121	32915.81
594.318	33079.64
594.515	32571.75
594.712	32977.25
594.908	32471.4
595.105	32735.59
595.302	32553.32
595.499	32268.65
595.696	32270.7
595.892	32072.04
596.089	31885.68
596.286	31986.03
596.482	31648.11
596.679	31779.18
596.876	31394.17
597.072	31684.98
597.269	31512.95
597.466	31232.38
597.662	31132.03
597.859	31156.6
598.055	30806.4
598.252	30935.42
598.448	30704
598.645	30900.61
598.841	30349.7
599.038	30605.7
599.234	30798.21
599.431	29923.72
599.627	30128.52
599.824	30228.87
600.02	29956.49
600.217	29919.63
600.413	29895.05
600.609	29567.38
600.806	29702.54
601.002	29817.23
601.198	29649.3
601.395	29606.29
601.591	29325.72
601.787	29426.07
601.984	28955.04
602.18	29561.23
602.376	29059.48
602.572	28893.6
602.769	28922.27
602.965	28502.43
603.161	28783.01
603.357	28473.76
603.553	28469.67
603.75	28445.09
603.946	28152.23
604.142	28443.04
604.338	28115.37
604.534	27910.57
604.73	27486.64
604.926	27838.89
605.122	28062.12
605.318	27857.32
605.514	27795.89
605.71	27488.69
605.906	27482.55
606.102	27369.91
606.298	27347.38
606.494	27265.46
606.69	27214.26
606.886	27558.32
607.082	27064.76
607.278	27183.54
607.474	26583.49
607.67	26821.05
607.866	26452.42
608.062	26945.98
608.257	26413.51
608.453	26585.54
608.649	26585.54
608.845	26452.42
609.041	26560.96
609.236	26685.89
609.432	26286.53
609.628	26241.48
609.824	26390.98
610.019	26370.5
610.215	26118.6
610.411	26241.48
610.606	25795.02
610.802	25813.45
610.998	26184.13
611.193	25885.13
611.389	25727.44
611.584	25690.57
611.78	25590.22
611.976	25815.5
612.171	25631.18
612.367	25002.46
612.562	25397.71
612.758	25115.09
612.953	25215.44
613.149	25242.07
613.344	24961.5
613.539	25481.68
613.735	25272.79
613.93	25530.83
614.126	24844.76
614.321	25115.09
614.517	25035.22
614.712	24742.36
614.907	24639.97
615.103	24924.63
615.298	24756.7
615.493	25199.06
615.688	24394.21
615.884	25020.89
616.079	24257
616.274	24652.25
616.47	24693.21
616.665	24599.01
616.86	24119.78
617.055	24486.37
617.25	23998.95
617.445	24441.31
617.641	23771.63
617.836	24220.13
618.031	23849.45
618.226	24148.45
618.421	23824.87
618.616	24203.75
618.811	23675.37
619.006	24021.48
619.201	23364.08
619.396	23347.7
619.591	23462.38
619.786	23394.8
619.981	22901.24
620.176	23212.53
620.371	22786.55
620.566	23179.76
620.761	22850.04
620.956	22833.66
621.151	22469.12
621.346	22784.51
621.541	22321.66
621.735	22456.83
621.93	22213.12
622.125	22086.15
622.32	21750.28
622.515	22000.13
622.709	21660.17
622.904	22034.95
623.099	21541.39
623.294	21568.01
623.488	21056.02
623.683	21371.41
623.878	20857.37
624.072	21135.89
624.267	21264.91
624.462	20709.91
624.656	20521.5
624.851	20787.74
625.046	20503.07
625.24	20359.71
625.435	20179.49
625.629	20124.19
625.824	20154.91
626.018	20011.56
626.213	19606.06
626.407	19755.56
626.602	19339.82
626.796	19624.49
626.991	19391.02
627.185	19356.21
627.38	19216.94
627.574	19092.02
627.768	18936.37
627.963	18965.04
628.157	18725.43
628.352	18944.56
628.546	18616.89
628.74	18741.82
628.935	18364.99
629.129	18600.51
629.323	18242.11
629.517	18061.89
629.712	18061.89
629.906	17998.4
630.1	17642.06
630.294	17730.12
630.489	17740.36
630.683	17549.9
630.877	17187.41
631.071	17367.63
631.265	17310.29
631.459	17467.98
631.653	17007.19
631.848	16853.59
632.042	17060.43
632.236	17152.59
632.43	16765.53
632.624	16980.56
632.818	16554.58
633.012	16325.21
633.206	16228.96
633.4	16464.47
633.594	16157.28
633.788	16106.08
633.982	16065.12
634.176	15981.15
634.369	16124.51
634.563	15872.61
634.757	15962.72
634.951	15886.95
635.145	15434.35
635.339	15735.4
635.533	15407.72
635.726	15252.08
635.92	15098.48
636.114	15258.22
636.308	15301.23
636.501	14963.31
636.695	15121.01
636.889	14983.79
637.083	14705.27
637.276	14629.49
637.47	14783.09
637.664	14508.66
637.857	14508.66
638.051	14479.99
638.244	14273.15
638.438	14164.61
638.632	14101.12
638.825	14260.86
639.019	14006.91
639.212	14176.89
639.406	13910.66
639.599	13740.68
639.793	13857.41
639.986	13689.48
640.18	13693.57
640.373	13595.27
640.567	13357.71
640.76	13329.03
640.954	13204.11
641.147	13204.11
641.34	13138.57
641.534	13126.29
641.727	13122.19
641.92	12946.06
642.114	12878.48
642.307	12882.58
642.5	12952.21
642.694	12602.01
642.887	12612.24
643.08	12647.06
643.273	12573.33
643.467	12479.13
643.66	12409.5
643.853	12276.38
644.046	11940.51
644.239	12241.56
644.432	11999.9
644.626	11770.53
644.819	11995.81
645.012	11924.13
645.205	11936.42
645.398	11745.95
645.591	11950.75
645.784	11627.17
645.977	11479.72
646.17	11670.18
646.363	11475.62
646.556	11330.22
646.749	11469.48
646.942	11469.48
647.135	11010.73
647.328	11221.67
647.521	11143.85
647.714	10799.79
647.907	11152.04
648.099	10996.4
648.292	11102.89
648.485	11141.8
648.678	10838.7
648.871	10543.8
649.064	10595
649.256	10558.13
649.449	10734.26
649.642	10453.69
649.835	10437.3
650.027	10332.86
650.22	10302.14
650.413	10265.27
650.605	10218.17
650.798	10115.77
650.991	9917.12
651.183	10103.48
651.376	10171.07
651.568	10042.04
651.761	9769.66
651.954	9882.3
652.146	9915.07
652.339	9822.91
652.531	9878.21
652.724	9788.1
652.916	9796.29
653.109	9753.28
653.301	9487.04
653.494	9487.04
653.686	9267.91
653.879	9652.93
654.071	9353.93
654.263	9341.64
654.456	9335.49
654.648	9333.45
654.84	9159.37
655.033	9124.55
655.225	9149.13
655.417	8987.34
655.61	8966.86
655.802	8952.52
655.994	8940.24
656.186	9005.77
656.379	8839.89
656.571	8911.57
656.763	8770.26
656.955	8688.34
657.148	8635.09
657.34	8741.58
657.532	8553.17
657.724	8452.82
657.916	8422.1
658.108	8647.38
658.3	8463.06
658.492	8467.16
658.684	8196.82
658.876	8055.51
659.068	8317.65
659.26	8112.86
659.452	8086.23
659.644	8123.1
659.836	8032.99
660.028	7865.05
660.22	7881.44
660.412	8080.09
660.604	7885.53
660.796	7961.31
660.988	7926.49
661.18	7877.34
661.372	7736.03
661.563	7776.99
661.755	7799.52
661.947	7703.26
662.139	7557.86
662.331	7394.02
662.522	7623.39
662.714	7486.18
662.906	7516.9
663.097	7510.75
663.289	7221.99
663.481	7338.73
663.673	7396.07
663.864	7308.01
664.056	7228.14
664.247	7254.76
664.439	7297.77
664.631	7160.55
664.822	7131.88
665.014	7156.46
665.205	7123.69
665.397	7086.83
665.588	6937.32
665.78	6953.71
665.971	6877.93
666.163	6877.93
666.354	6783.73
666.546	6861.55
666.737	6593.26
666.929	6869.74
667.12	6845.16
667.311	6738.67
667.503	6566.64
667.694	6716.14
667.885	6714.09
668.077	6654.7
668.268	6566.64
668.459	6654.7
668.651	6497.01
668.842	6537.97
669.033	6361.84
669.224	6437.62
669.416	6443.76
669.607	6361.84
669.798	6324.98
669.989	6460.15
670.18	6314.74
670.371	6210.29
670.563	6257.4
670.754	6394.61
670.945	6200.05
671.136	6249.21
671.327	6054.65
671.518	6187.77
671.709	6095.61
671.9	6179.58
672.091	6163.19
672.282	6111.99
672.473	5987.07
672.664	6126.33
672.855	5970.68
673.046	6054.65
673.237	6152.95
673.428	6157.05
673.619	6062.84
673.809	5976.83
674	5860.09
674.191	5892.86
674.382	5815.04
674.573	5841.66
674.764	5817.08
674.954	5939.96
675.145	5827.32
675.336	5655.3
675.527	5600
675.717	5491.46
675.908	5696.25
676.099	5710.59
676.289	5698.3
676.48	5647.1
676.671	5542.66
676.861	5673.73
677.052	5640.96
677.243	5628.67
677.433	5563.14
677.624	5784.32
677.814	5659.39
678.005	5651.2
678.195	5632.77
678.386	5569.28
678.576	5501.7
678.767	5616.38
678.957	5534.46
679.148	5487.36
679.338	5573.38
679.529	5460.74
679.719	5518.08
679.909	5616.38
680.1	5511.94
680.29	5473.03
680.481	5440.26
680.671	5335.81
680.861	5491.46
681.052	5331.72
681.242	5315.33
681.432	5450.5
681.622	5235.46
681.813	5290.76
682.003	5468.93
682.193	5370.63
682.383	5421.83
682.573	5403.39
682.764	5360.39
682.954	5298.95
683.144	5360.39
683.334	5298.95
683.524	5229.32
683.714	5315.33
683.904	5268.23
684.094	5389.06
684.284	5329.67
684.474	5280.52
684.664	5403.39
684.854	5165.83
685.044	5133.06
685.234	5067.53
685.424	5147.4
685.614	5124.87
685.804	5147.4
685.994	5030.66
686.184	5096.2
686.374	5040.9
686.564	5012.23
686.753	4897.55
686.943	5032.71
687.133	5055.24
687.323	4981.51
687.513	4975.37
687.702	4913.93
687.892	4944.65
688.082	4985.61
688.272	5034.76
688.461	4889.35
688.651	4858.64
688.841	4725.52
689.03	4764.43
689.22	4803.34
689.41	4705.04
689.599	4766.48
689.789	4725.52
689.979	4649.74
690.168	4666.13
690.358	4649.74
690.547	4664.08
690.737	4553.49
690.926	4561.68
691.116	4481.81
691.305	4612.88
691.495	4582.16
691.684	4481.81
691.874	4451.09
692.063	4471.57
692.252	4518.67
692.442	4481.81
692.631	4332.31
692.82	4444.95
693.01	4453.14
693.199	4416.27
693.388	4248.34
693.578	4375.31
693.767	4481.81
693.956	4449.04
694.146	4250.39
694.335	4340.5
694.524	4213.53
694.713	4195.09
694.902	4262.68
695.092	4191
695.281	4260.63
695.47	4346.64
695.659	4170.52
695.848	4336.4
696.037	4244.24
696.226	4283.16
696.415	4197.14
696.604	4035.35
696.793	4133.65
696.982	4158.23
697.171	4191
697.36	4141.85
697.549	4098.84
697.738	4084.5
697.927	3973.91
698.116	4119.32
698.305	4006.68
698.494	4274.96
698.683	3982.1
698.872	4229.91
699.061	3967.77
699.25	4104.98
699.438	3975.96
699.627	4059.93
699.816	4158.23
700.005	4096.79
700.193	4107.03
700.382	4014.87
700.571	3978.01
700.76	4094.74
700.948	3986.2
701.137	3982.1
701.326	4033.3
701.514	3982.1
701.703	3986.2
701.892	3963.67
702.08	4113.17
702.269	4031.26
702.457	4035.35
702.646	3930.91
702.834	3873.56
703.023	3975.96
703.212	3980.06
703.4	4002.58
703.589	4082.46
703.777	4057.88
703.965	4029.21
704.154	3904.28
704.342	3971.86
704.531	4047.64
704.719	4057.88
704.907	4000.54
705.096	3959.58
705.284	4070.17
705.472	3969.82
705.661	3879.71
705.849	4109.08
706.037	3920.67
706.226	3953.43
706.414	3924.76
706.602	3975.96
706.79	3855.13
706.979	3861.27
707.167	4104.98
707.355	4051.74
707.543	3814.17
707.731	3969.82
707.919	3955.48
708.107	3980.06
708.296	3920.67
708.484	3902.23
708.672	3814.17
708.86	3935
709.048	4031.26
709.236	3943.19
709.424	3959.58
709.612	3816.22
709.8	3978.01
709.988	3943.19
710.176	3900.19
710.364	4002.58
710.551	3984.15
710.739	3932.95
710.927	3889.95
711.115	4027.16
711.303	3973.91
711.491	3935
711.679	3891.99
711.866	4029.21
712.054	3928.86
712.242	3801.88
712.43	3930.91
712.617	3916.57
712.805	4039.45
712.993	4041.5
713.181	3855.13
713.368	3943.19
713.556	4008.73
713.744	4049.69
713.931	4059.93
714.119	3924.76
714.306	3920.67
714.494	3937.05
714.682	3867.42
714.869	3812.12
715.057	4090.65
715.244	3875.61
715.432	4068.12
715.619	3939.1
715.807	4006.68
715.994	3889.95
716.182	3799.84
716.369	3982.1
716.556	4129.56
716.744	3949.34
716.931	3928.86
717.119	3932.95
717.306	3812.12
717.493	3947.29
717.681	3969.82
717.868	3978.01
718.055	4080.41
718.242	3867.42
718.43	3951.39
718.617	4014.87
718.804	3973.91
718.991	3871.51
719.179	4002.58
719.366	3930.91
719.553	3904.28
719.74	3986.2
719.927	3984.15
720.114	3924.76
720.301	3840.79
720.488	3984.15
720.676	3955.48
720.863	3957.53
721.05	3814.17
721.237	3984.15
721.424	3982.1
721.611	3955.48
721.798	3844.89
721.985	3916.57
722.172	3810.08
722.358	3947.29
722.545	3988.25
722.732	3945.24
722.919	4041.5
723.106	3881.75
723.293	3898.14
723.48	3932.95
723.667	3871.51
723.853	3900.19
724.04	3932.95
724.227	3826.46
724.414	3844.89
724.6	3865.37
724.787	3992.34
724.974	3992.34
725.161	4004.63
725.347	3867.42
725.534	3957.53
725.72	3975.96
725.907	3832.6
726.094	3957.53
726.28	3838.75
726.467	3830.55
726.653	3816.22
726.84	3832.6
727.027	3949.34
727.213	3853.08
727.4	3762.97
727.586	3838.75
727.773	3953.43
727.959	3797.79
728.145	3713.82
728.332	3785.5
728.518	3758.88
728.705	3801.88
728.891	3838.75
729.077	3793.69
729.264	3867.42
729.45	3861.27
729.636	4021.02
729.823	3787.55
730.009	3760.92
730.195	3920.67
730.382	3810.08
730.568	3781.4
730.754	3857.18
730.94	3711.77
731.126	3920.67
731.313	3851.03
731.499	3638.05
731.685	3703.58
731.871	3713.82
732.057	3808.03
732.243	3881.75
732.429	3654.43
732.615	3869.47
732.801	3713.82
732.987	3746.59
733.173	3629.85
733.359	3805.98
733.545	3687.2
733.731	3760.92
733.917	3670.81
734.103	3679.01
734.289	3676.96
734.475	3609.37
734.661	3760.92
734.847	3793.69
735.033	3683.1
735.219	3695.39
735.404	3584.8
735.59	3674.91
735.776	3679.01
735.962	3662.62
736.148	3734.3
736.333	3779.36
736.519	3556.13
736.705	3691.29
736.89	3711.77
737.076	3566.37
737.262	3504.93
737.447	3603.23
737.633	3564.32
737.819	3724.06
738.004	3595.04
738.19	3447.58
738.375	3568.41
738.561	3554.08
738.747	3537.7
738.932	3468.06
739.118	3523.36
739.303	3480.35
739.489	3582.75
739.674	3523.36
739.859	3459.87
740.045	3597.09
740.23	3433.25
740.416	3472.16
740.601	3519.26
740.786	3394.34
740.972	3443.49
741.157	3246.88
741.342	3363.62
741.528	3476.26
741.713	3318.56
741.898	3365.67
742.084	3367.71
742.269	3314.47
742.454	3341.09
742.639	3386.15
742.824	3308.32
743.01	3283.75
743.195	3214.12
743.38	3169.06
743.565	3234.6
743.75	3273.51
743.935	3115.81
744.12	3341.09
744.305	3126.05
744.49	3132.2
744.675	3066.66
744.86	3101.48
745.045	3013.42
745.23	3234.6
745.415	3087.14
745.6	3115.81
745.785	2986.79
745.97	3101.48
746.155	2994.98
746.34	2992.94
746.525	2927.4
746.71	2980.65
746.895	3052.33
747.079	2978.6
747.264	2968.36
747.449	3029.8
747.634	2886.44
747.819	2827.05
748.003	2792.23
748.188	2796.33
748.373	2749.23
748.557	2798.38
748.742	2722.6
748.927	2820.91
749.111	2622.25
749.296	2673.45
749.481	2714.41
749.665	2626.35
749.85	2616.11
750.034	2644.78
750.219	2548.53
750.404	2671.4
750.588	2550.57
750.773	2646.83
750.957	2552.62
751.141	2538.29
751.326	2540.33
751.51	2521.9
751.695	2425.65
751.879	2384.69
752.064	2532.14
752.248	2437.94
752.432	2450.22
752.617	2384.69
752.801	2437.94
752.985	2409.26
753.17	2276.15
753.354	2345.78
753.538	2523.95
753.722	2343.73
753.907	2296.63
754.091	2190.13
754.275	2257.71
754.459	2259.76
754.643	2196.28
754.828	2194.23
755.012	2134.84
755.196	2116.41
755.38	2196.28
755.564	2153.27
755.748	2155.32
755.932	2140.98
756.116	1989.43
756.3	2065.21
756.484	1991.48
756.668	1983.29
756.852	2073.4
757.036	1962.81
757.22	1942.33
757.404	1909.56
757.588	1919.8
757.772	2009.91
757.956	1907.51
758.14	2003.77
758.323	1874.74
758.507	1856.31
758.691	1897.27
758.875	1831.74
759.059	1872.7
759.242	1905.46
759.426	1860.41
759.61	1835.83
759.794	1798.97
759.977	1698.62
760.161	1809.21
760.345	1700.67
760.528	1745.72
760.712	1729.34
760.895	1764.15
761.079	1661.76
761.263	1741.63
761.446	1739.58
761.63	1749.82
761.813	1653.56
761.997	1588.03
762.18	1657.66
762.364	1712.96
762.547	1581.89
762.731	1696.57
762.914	1698.62
763.098	1604.41
763.281	1620.8
763.464	1637.18
763.648	1649.47
763.831	1571.65
764.015	1528.64
764.198	1600.32
764.381	1618.75
764.564	1655.61
764.748	1510.21
764.931	1602.36
765.114	1557.31
765.297	1549.12
765.481	1585.98
765.664	1542.97
765.847	1424.19
766.03	1522.49
766.213	1485.63
766.397	1502.01
766.58	1504.06
766.763	1518.4
766.946	1403.71
767.129	1438.53
767.312	1459.01
767.495	1358.66
767.678	1356.61
767.861	1428.29
768.044	1317.7
768.227	1454.91
768.41	1416
768.593	1356.61
768.776	1377.09
768.959	1385.28
769.142	1399.62
769.324	1372.99
769.507	1295.17
769.69	1366.85
769.873	1399.62
770.056	1438.53
770.239	1346.37
770.421	1317.7
770.604	1389.38
770.787	1235.78
770.97	1262.4
771.152	1227.59
771.335	1256.26
771.518	1307.46
771.7	1276.74
771.883	1205.06
772.066	1356.61
772.248	1219.39
772.431	1215.3
772.613	1235.78
772.796	1168.2
772.978	1278.79
773.161	1231.68
773.343	1272.64
773.526	1217.35
773.708	1141.57
773.891	1073.99
774.073	1172.29
774.256	1127.24
774.438	1166.15
774.621	1168.2
774.803	1205.06
774.985	1102.66
775.168	1180.48
775.35	1098.56
775.532	1155.91
775.715	994.12
775.897	1076.04
776.079	1033.03
776.261	1117
776.444	1006.41
776.626	1020.74
776.808	961.35
776.99	1053.51
777.173	1071.94
777.355	947.01
777.537	1000.26
777.719	975.69
777.901	947.01
778.083	955.21
778.265	901.96
778.447	904.01
778.629	922.44
778.811	975.69
778.993	963.4
779.175	932.68
779.357	967.49
779.539	865.1
779.721	983.88
779.903	930.63
780.085	846.66
780.267	865.1
780.449	944.97
780.631	863.05
780.812	904.01
780.994	932.68
781.176	820.04
781.358	867.14
781.54	834.38
781.721	715.59
781.903	875.34
782.085	850.76
782.267	824.14
782.448	807.75
782.63	736.07
782.812	688.97
782.993	856.9
783.175	688.97
783.357	783.18
783.538	817.99
783.72	678.73
783.901	709.45
784.083	803.66
784.264	686.92
784.446	740.17
784.627	756.55
784.809	727.88
784.99	695.11
785.172	752.46
785.353	688.97
785.535	678.73
785.716	633.68
785.897	658.25
786.079	752.46
786.26	693.07
786.441	707.4
786.623	670.54
786.804	680.78
786.985	674.64
787.167	672.59
787.348	613.2
787.529	648.01
787.71	670.54
787.891	594.76
788.073	602.96
788.254	590.67
788.435	611.15
788.616	670.54
788.797	619.34
788.978	672.59
789.159	637.77
789.34	576.33
789.522	531.28
789.703	572.24
789.884	584.52
790.065	490.32
790.246	527.18
790.427	529.23
790.607	570.19
790.788	615.24
790.969	508.75
791.15	584.52
791.331	486.22
791.512	461.65
791.693	521.04
791.874	492.37
792.054	545.61
792.235	531.28
792.416	594.76
792.597	506.7
792.778	500.56
792.958	435.02
793.139	578.38
793.32	537.42
793.5	529.23
793.681	447.31
793.862	459.6
794.042	500.56
794.223	420.69
794.404	432.97
794.584	426.83
794.765	478.03
794.945	494.41
795.126	516.94
795.306	471.89
795.487	410.45
795.667	426.83
795.848	424.78
796.028	310.1
796.209	426.83
796.389	455.5
796.57	426.83
796.75	439.12
796.93	435.02
797.111	383.82
797.291	449.36
797.471	351.06
797.652	402.26
797.832	443.21
798.012	451.41
798.192	420.69
798.373	432.97
798.553	363.34
798.733	359.25
798.913	437.07
799.093	385.87
799.274	353.1
799.454	453.45
799.634	377.68
799.814	396.11
799.994	412.5
800.174	357.2
800.354	359.25
800.534	353.1
800.714	430.93
800.894	262.99
801.074	275.28
801.254	373.58
801.434	351.06
801.614	361.3
801.794	285.52
801.974	834.38
802.154	394.06
802.334	365.39
802.514	402.26
802.693	357.2
802.873	273.23
803.053	346.96
803.233	291.66
803.413	322.38
803.592	351.06
803.772	281.43
803.952	351.06
804.131	340.82
804.311	353.1
804.491	389.97
804.67	334.67
804.85	316.24
805.03	342.86
805.209	281.43
805.389	301.9
805.568	328.53
805.748	420.69
805.928	328.53
806.107	299.86
806.287	398.16
806.466	265.04
806.646	353.1
806.825	342.86
807.004	316.24
807.184	318.29
807.363	334.67
807.543	242.51
807.722	340.82
807.901	269.14
808.081	289.62
808.26	256.85
808.439	209.75
808.619	310.1
808.798	279.38
808.977	355.15
809.156	244.56
809.336	289.62
809.515	211.79
809.694	191.31
809.873	283.47
810.052	316.24
810.231	273.23
810.411	226.13
810.59	342.86
810.769	316.24
810.948	310.1
811.127	236.37
811.306	318.29
811.485	285.52
811.664	326.48
811.843	234.32
812.022	303.95
812.201	258.9
812.38	291.66
812.559	222.03
812.737	338.77
812.916	193.36
813.095	195.41
813.274	230.23
813.453	328.53
813.632	252.75
813.811	166.74
813.989	236.37
814.168	232.27
814.347	162.64
814.526	213.84
814.704	209.75
814.883	267.09
815.062	209.75
815.24	260.95
815.419	203.6
815.598	244.56
815.776	226.13
815.955	193.36
816.133	158.55
816.312	281.43
816.49	209.75
816.669	179.03
816.847	215.89
817.026	156.5
817.204	174.93
817.383	230.23
817.561	203.6
817.74	234.32
817.918	246.61
818.097	185.17
818.275	174.93
818.453	138.07
818.632	138.07
818.81	205.65
818.988	197.46
819.167	248.66
819.345	160.59
819.523	189.27
819.701	142.16
819.879	230.23
820.058	123.73
820.236	219.99
820.414	191.31
820.592	129.88
820.77	158.55
820.948	203.6
821.127	162.64
821.305	172.88
821.483	154.45
821.661	193.36
821.839	144.21
822.017	207.7
822.195	142.16
822.373	242.51
822.551	246.61
822.729	160.59
822.907	144.21
823.085	176.98
823.262	117.59
823.44	217.94
823.618	101.2
823.796	238.42
823.974	158.55
824.152	252.75
824.329	168.79
824.507	115.54
824.685	185.17
824.863	138.07
825.04	142.16
825.218	107.35
825.396	117.59
825.574	254.8
825.751	185.17
825.929	199.51
826.107	74.58
826.284	158.55
826.462	72.53
826.639	160.59
826.817	115.54
826.994	121.68
827.172	95.06
827.349	199.51
827.527	160.59
827.704	144.21
827.882	156.5
828.059	142.16
828.237	187.22
828.414	133.97
828.591	95.06
828.769	113.49
828.946	172.88
829.124	185.17
829.301	195.41
829.478	138.07
829.655	222.03
829.833	168.79
830.01	113.49
830.187	164.69
830.364	185.17
830.542	133.97
830.719	136.02
830.896	119.64
831.073	166.74
831.25	144.21
831.427	113.49
831.604	144.21
831.782	205.65
831.959	123.73
832.136	70.48
832.313	107.35
832.49	76.63
832.667	64.34
832.844	72.53
833.021	142.16
833.198	70.48
833.374	150.36
833.551	148.31
833.728	133.97
833.905	181.07
834.082	109.4
834.259	111.44
834.436	150.36
834.612	117.59
834.789	160.59
834.966	45.91
835.143	148.31
835.319	90.96
835.496	148.31
835.673	176.98
835.85	152.4
836.026	152.4
836.203	99.16
836.38	58.2
836.556	119.64
836.733	195.41
836.909	179.03
837.086	113.49
837.262	64.34
837.439	47.96
837.616	76.63
837.792	70.48
837.968	156.5
838.145	17.24
838.321	107.35
838.498	86.87
838.674	99.16
838.851	99.16
839.027	68.44
839.203	78.68
839.38	140.12
839.556	90.96
839.732	76.63
839.909	105.3
840.085	97.11
840.261	86.87
840.437	84.82
840.614	99.16
840.79	115.54
840.966	86.87
841.142	70.48
841.318	45.91
841.494	144.21
841.671	133.97
841.847	99.16
842.023	103.25
842.199	152.4
842.375	101.2
842.551	9.05
842.727	99.16
842.903	152.4
843.079	64.34
843.255	152.4
843.431	158.55
843.607	62.29
843.783	66.39
843.959	174.93
844.134	129.88
844.31	138.07
844.486	45.91
844.662	105.3
844.838	93.01
845.013	99.16
845.189	101.2
845.365	25.43
845.541	76.63
845.716	33.62
845.892	93.01
846.068	64.34
846.244	90.96
846.419	142.16
846.595	90.96
846.77	93.01
846.946	148.31
847.122	74.58
847.297	72.53
847.473	109.4
847.648	58.2
847.824	41.81
847.999	82.77
848.175	54.1
848.35	68.44
848.526	64.34
848.701	90.96
848.876	150.36
849.052	109.4
849.227	68.44
849.403	35.67
849.578	70.48
849.753	54.1
849.929	119.64
850.104	60.24
850.279	62.29
850.454	62.29
850.63	93.01
850.805	78.68
850.98	97.11
851.155	74.58
851.33	47.96
851.505	62.29
851.681	136.02
851.856	33.62
852.031	95.06
852.206	97.11
852.381	95.06
852.556	41.81
852.731	107.35
852.906	25.43
853.081	31.57
853.256	95.06
853.431	78.68
853.606	74.58
853.781	60.24
853.956	66.39
854.131	66.39
854.305	37.72
854.48	33.62
854.655	-40.11
854.83	31.57
855.005	66.39
855.18	68.44
855.354	33.62
855.529	50
855.704	-27.82
855.879	90.96
856.053	82.77
856.228	54.1
856.403	-27.82
856.577	131.92
856.752	86.87
856.926	82.77
857.101	88.92
857.276	43.86
857.45	37.72
857.625	64.34
857.799	90.96
857.974	64.34
858.148	-40.11
858.323	45.91
858.497	54.1
858.672	133.97
858.846	41.81
859.02	140.12
859.195	-31.91
859.369	90.96
859.543	123.73
859.718	78.68
859.892	-25.77
860.066	50
860.241	33.62
860.415	21.33
860.589	54.1
860.763	-17.58
860.938	70.48
861.112	54.1
861.286	76.63
861.46	115.54
861.634	2.9
861.808	119.64
861.982	19.29
862.157	54.1
862.331	56.15
862.505	23.38
862.679	31.57
862.853	66.39
863.027	68.44
863.201	88.92
863.375	74.58
863.549	41.81
863.722	13.14
863.896	88.92
864.07	0.85
864.244	13.14
864.418	33.62
864.592	-11.43
864.766	17.24
864.939	-15.53
865.113	13.14
865.287	80.72
865.461	4.95
865.634	23.38
865.808	-19.63
865.982	4.95
866.156	43.86
866.329	39.76
866.503	17.24
866.676	-13.48
866.85	66.39
867.024	17.24
867.197	-3.24
867.371	86.87
867.544	115.54
867.718	23.38
867.891	76.63
868.065	23.38
868.238	41.81
868.412	37.72
868.585	17.24
868.759	43.86
868.932	-15.53
869.105	54.1
869.279	29.52
869.452	13.14
869.625	23.38
869.799	-15.53
869.972	-70.83
870.145	-7.34
870.319	121.68
870.492	11.09
870.665	33.62
870.838	13.14
871.011	33.62
871.185	64.34
871.358	23.38
871.531	21.33
871.704	-29.87
871.877	-3.24
872.05	27.48
872.223	11.09
872.396	29.52
872.569	93.01
872.742	68.44
872.915	68.44
873.088	39.76
873.261	37.72
873.434	62.29
873.607	68.44
873.78	31.57
873.953	-36.01
874.126	123.73
874.299	99.16
874.471	-27.82
874.644	11.09
874.817	78.68
874.99	23.38
875.163	-3.24
875.335	25.43
875.508	13.14
875.681	37.72
875.853	9.05
876.026	62.29
876.199	29.52
876.371	25.43
876.544	35.67
876.717	-17.58
876.889	74.58
877.062	60.24
877.234	-5.29
877.407	13.14
877.579	27.48
877.752	25.43
877.924	107.35
878.097	50
878.269	47.96
878.442	45.91
878.614	39.76
878.786	64.34
878.959	52.05
879.131	58.2
879.303	-15.53
879.476	25.43
879.648	4.95
879.82	-7.34
879.993	62.29
880.165	4.95
880.337	-11.43
880.509	76.63
880.681	15.19
880.854	2.9
881.026	72.53
881.198	119.64
881.37	35.67
881.542	0.85
881.714	9.05
881.886	2.9
882.058	-17.58
882.23	33.62
882.402	-5.29
882.574	-5.29
882.746	54.1
882.918	33.62
883.09	2.9
883.262	15.19
883.434	-33.96
883.606	-5.29
883.778	50
883.95	60.24
884.122	-52.39
884.293	-11.43
884.465	-7.34
884.637	2.9
884.809	-27.82
884.98	76.63
885.152	11.09
885.324	68.44
885.496	23.38
885.667	33.62
885.839	58.2
886.011	-19.63
886.182	-15.53
886.354	76.63
886.525	-31.91
886.697	-21.67
886.869	-13.48
887.04	-3.24
887.212	33.62
887.383	41.81
887.555	54.1
887.726	7
887.897	19.29
888.069	15.19
888.24	21.33
888.412	60.24
888.583	45.91
888.754	39.76
888.926	-11.43
889.097	-60.59
889.268	17.24
889.44	27.48
889.611	27.48
889.782	54.1
889.953	-46.25
890.125	7
890.296	29.52
890.467	-7.34
890.638	31.57
890.809	99.16
890.98	-52.39
891.151	45.91
891.323	113.49
891.494	82.77
891.665	60.24
891.836	9.05
892.007	7
892.178	68.44
892.349	-27.82
892.52	27.48
892.691	13.14
892.862	7
893.032	-7.34
893.203	11.09
893.374	-40.11
893.545	35.67
893.716	0.85
893.887	29.52
894.057	-70.83
894.228	-15.53
894.399	-36.01
894.57	70.48
894.74	-56.49
894.911	23.38
895.082	-7.34
895.253	33.62
895.423	29.52
895.594	90.96
895.764	-15.53
895.935	80.72
896.106	-19.63
896.276	29.52
896.447	29.52
896.617	-91.31
896.788	13.14
896.958	131.92
897.129	-93.35
897.299	15.19
897.47	107.35
897.64	17.24
897.81	0.85
897.981	37.72
898.151	-7.34
898.322	29.52
898.492	-9.39
898.662	66.39
898.832	0.85
899.003	35.67
899.173	74.58
899.343	-27.82
899.513	27.48
