Data from USB4F104151__259__10-39-53-301.txt Node

Date: Wed Mar 12 10:39:53 EDT 2025
User: louis
Spectrometer: USB4F10415
Trigger mode: 4
Integration Time (sec): 3.000000E-2
Scans to average: 1
Electric dark correction enabled: true
Nonlinearity correction enabled: false
Boxcar width: 0
XAxis mode: Wavelengths
Number of Pixels in Spectrum: 3648
>>>>>Begin Spectral Data<<<<<
178.204	-58.2
178.424	-58.2
178.644	-58.2
178.864	-136.02
179.084	-152.4
179.304	1.19
179.524	5.29
179.744	-35.67
179.964	7.34
180.184	21.67
180.404	-7
180.624	48.3
180.844	-33.62
181.064	-66.39
181.283	-4.95
181.503	9.39
181.723	54.44
181.943	-74.58
182.163	-4.95
182.383	50.35
182.602	91.31
182.822	93.35
183.042	97.45
183.262	-4.95
183.482	13.48
183.701	7.34
183.921	25.77
184.141	-4.95
184.361	48.3
184.58	19.63
184.8	-35.67
185.02	19.63
185.239	79.02
185.459	-21.33
185.679	107.69
185.898	-47.96
186.118	54.44
186.338	91.31
186.557	40.11
186.777	111.78
186.997	87.21
187.216	58.54
187.436	50.35
187.655	38.06
187.875	132.26
188.095	25.77
188.314	27.82
188.534	27.82
188.753	9.39
188.973	44.2
189.192	89.26
189.412	76.97
189.631	54.44
189.851	52.39
190.07	15.53
190.29	27.82
190.509	-9.05
190.729	-33.62
190.948	117.93
191.168	122.02
191.387	27.82
191.607	-13.14
191.826	81.07
192.045	72.87
192.265	81.07
192.484	68.78
192.704	76.97
192.923	-62.29
193.142	132.26
193.362	101.55
193.581	74.92
193.8	50.35
194.02	68.78
194.239	1.19
194.458	7.34
194.678	1.19
194.897	60.59
195.116	93.35
195.335	56.49
195.555	33.96
195.774	95.4
195.993	87.21
196.212	89.26
196.432	64.68
196.651	64.68
196.87	115.88
197.089	91.31
197.308	-4.95
197.528	9.39
197.747	-54.1
197.966	3.24
198.185	58.54
198.404	-0.85
198.623	83.11
198.842	70.83
199.062	-2.9
199.281	44.2
199.5	44.2
199.719	33.96
199.938	17.58
200.157	64.68
200.376	44.2
200.595	25.77
200.814	58.54
201.033	64.68
201.252	72.87
201.471	23.72
201.69	40.11
201.909	56.49
202.128	54.44
202.347	38.06
202.566	-9.05
202.785	62.63
203.004	11.43
203.223	31.91
203.442	31.91
203.661	40.11
203.879	81.07
204.098	101.55
204.317	40.11
204.536	70.83
204.755	66.73
204.974	128.17
205.193	17.58
205.411	38.06
205.63	56.49
205.849	62.63
206.068	115.88
206.287	5.29
206.505	42.15
206.724	83.11
206.943	11.43
207.162	-15.19
207.381	52.39
207.599	-2.9
207.818	36.01
208.037	79.02
208.255	23.72
208.474	72.87
208.693	62.63
208.911	-7
209.13	25.77
209.349	74.92
209.567	60.59
209.786	31.91
210.005	60.59
210.223	21.67
210.442	-9.05
210.661	72.87
210.879	-9.05
211.098	40.11
211.316	91.31
211.535	44.2
211.753	17.58
211.972	3.24
212.191	27.82
212.409	-4.95
212.628	21.67
212.846	-4.95
213.065	70.83
213.283	132.26
213.502	44.2
213.72	19.63
213.938	-17.24
214.157	83.11
214.375	33.96
214.594	19.63
214.812	3.24
215.031	52.39
215.249	23.72
215.467	25.77
215.686	-7
215.904	81.07
216.122	36.01
216.341	-13.14
216.559	17.58
216.778	93.35
216.996	81.07
217.214	27.82
217.432	-41.81
217.651	60.59
217.869	1.19
218.087	79.02
218.306	64.68
218.524	19.63
218.742	-2.9
218.96	3.24
219.179	7.34
219.397	40.11
219.615	62.63
219.833	19.63
220.051	15.53
220.27	74.92
220.488	38.06
220.706	17.58
220.924	-74.58
221.142	-0.85
221.36	44.2
221.578	23.72
221.796	9.39
222.015	-13.14
222.233	40.11
222.451	3.24
222.669	-7
222.887	60.59
223.105	-15.19
223.323	42.15
223.541	-13.14
223.759	42.15
223.977	7.34
224.195	60.59
224.413	-15.19
224.631	19.63
224.849	40.11
225.067	15.53
225.285	42.15
225.503	-54.1
225.721	-37.72
225.939	-13.14
226.157	38.06
226.375	44.2
226.592	-19.29
226.81	105.64
227.028	-37.72
227.246	56.49
227.464	7.34
227.682	3.24
227.9	74.92
228.117	-29.52
228.335	64.68
228.553	13.48
228.771	1.19
228.989	66.73
229.206	-0.85
229.424	13.48
229.642	33.96
229.86	3.24
230.077	50.35
230.295	40.11
230.513	117.93
230.731	85.16
230.948	126.12
231.166	156.84
231.384	46.25
231.601	-7
231.819	107.69
232.037	5.29
232.254	17.58
232.472	68.78
232.689	-2.9
232.907	103.59
233.125	-7
233.342	25.77
233.56	40.11
233.777	46.25
233.995	38.06
234.213	48.3
234.43	44.2
234.648	-19.29
234.865	5.29
235.083	33.96
235.3	7.34
235.518	70.83
235.735	60.59
235.953	11.43
236.17	19.63
236.388	17.58
236.605	-23.38
236.822	117.93
237.04	91.31
237.257	56.49
237.475	15.53
237.692	38.06
237.909	58.54
238.127	-21.33
238.344	44.2
238.562	76.97
238.779	-0.85
238.996	9.39
239.214	56.49
239.431	48.3
239.648	56.49
239.865	29.87
240.083	-13.14
240.3	56.49
240.517	38.06
240.735	21.67
240.952	27.82
241.169	54.44
241.386	29.87
241.603	23.72
241.821	-4.95
242.038	117.93
242.255	66.73
242.472	-11.09
242.689	70.83
242.907	19.63
243.124	50.35
243.341	-50
243.558	31.91
243.775	1.19
243.992	11.43
244.209	56.49
244.426	19.63
244.643	48.3
244.86	52.39
245.078	3.24
245.295	97.45
245.512	-23.38
245.729	-0.85
245.946	46.25
246.163	-4.95
246.38	-4.95
246.597	72.87
246.814	-11.09
247.031	99.5
247.248	23.72
247.464	42.15
247.681	58.54
247.898	-15.19
248.115	99.5
248.332	-21.33
248.549	54.44
248.766	72.87
248.983	50.35
249.2	83.11
249.417	7.34
249.633	-17.24
249.85	52.39
250.067	-9.05
250.284	52.39
250.501	54.44
250.717	-25.43
250.934	44.2
251.151	-45.91
251.368	68.78
251.585	56.49
251.801	-29.52
252.018	-0.85
252.235	93.35
252.451	52.39
252.668	68.78
252.885	33.96
253.102	74.92
253.318	25.77
253.535	54.44
253.752	46.25
253.968	52.39
254.185	13.48
254.401	36.01
254.618	89.26
254.835	23.72
255.051	36.01
255.268	132.26
255.484	128.17
255.701	64.68
255.917	-13.14
256.134	17.58
256.351	56.49
256.567	60.59
256.784	48.3
257	-17.24
257.217	-2.9
257.433	-15.19
257.65	132.26
257.866	-25.43
258.082	-2.9
258.299	-7
258.515	36.01
258.732	27.82
258.948	42.15
259.165	7.34
259.381	-13.14
259.597	56.49
259.814	-25.43
260.03	60.59
260.246	52.39
260.463	97.45
260.679	97.45
260.895	-2.9
261.112	58.54
261.328	5.29
261.544	-37.72
261.761	38.06
261.977	27.82
262.193	-4.95
262.409	-9.05
262.626	122.02
262.842	91.31
263.058	44.2
263.274	-0.85
263.49	33.96
263.707	33.96
263.923	101.55
264.139	-37.72
264.355	31.91
264.571	31.91
264.787	52.39
265.004	81.07
265.22	50.35
265.436	64.68
265.652	68.78
265.868	29.87
266.084	85.16
266.3	36.01
266.516	44.2
266.732	56.49
266.948	111.78
267.164	48.3
267.38	-58.2
267.596	42.15
267.812	68.78
268.028	23.72
268.244	36.01
268.46	-21.33
268.676	25.77
268.892	40.11
269.108	-39.76
269.324	46.25
269.54	-13.14
269.756	52.39
269.972	-29.52
270.188	13.48
270.403	-4.95
270.619	40.11
270.835	72.87
271.051	15.53
271.267	15.53
271.483	-4.95
271.698	33.96
271.914	52.39
272.13	9.39
272.346	11.43
272.562	56.49
272.777	83.11
272.993	89.26
273.209	7.34
273.425	76.97
273.64	76.97
273.856	50.35
274.072	48.3
274.287	29.87
274.503	44.2
274.719	62.63
274.934	29.87
275.15	-4.95
275.366	23.72
275.581	15.53
275.797	11.43
276.012	40.11
276.228	1.19
276.444	83.11
276.659	54.44
276.875	-45.91
277.09	68.78
277.306	70.83
277.521	-19.29
277.737	5.29
277.952	27.82
278.168	46.25
278.383	-15.19
278.599	27.82
278.814	72.87
279.03	46.25
279.245	97.45
279.461	48.3
279.676	31.91
279.892	11.43
280.107	72.87
280.322	40.11
280.538	83.11
280.753	38.06
280.969	-15.19
281.184	3.24
281.399	7.34
281.615	-7
281.83	31.91
282.045	-47.96
282.26	83.11
282.476	-21.33
282.691	11.43
282.906	-0.85
283.122	44.2
283.337	58.54
283.552	29.87
283.767	21.67
283.983	81.07
284.198	31.91
284.413	62.63
284.628	19.63
284.843	62.63
285.058	64.68
285.274	52.39
285.489	-21.33
285.704	27.82
285.919	-4.95
286.134	-2.9
286.349	74.92
286.564	19.63
286.779	93.35
286.995	33.96
287.21	-2.9
287.425	87.21
287.64	111.78
287.855	31.91
288.07	15.53
288.285	79.02
288.5	152.74
288.715	36.01
288.93	40.11
289.145	9.39
289.36	-2.9
289.575	19.63
289.79	79.02
290.004	36.01
290.219	130.22
290.434	17.58
290.649	21.67
290.864	50.35
291.079	54.44
291.294	122.02
291.509	-45.91
291.724	48.3
291.938	-25.43
292.153	42.15
292.368	36.01
292.583	36.01
292.798	91.31
293.012	95.4
293.227	52.39
293.442	-23.38
293.657	44.2
293.871	42.15
294.086	-21.33
294.301	36.01
294.516	85.16
294.73	60.59
294.945	29.87
295.16	29.87
295.374	62.63
295.589	74.92
295.804	70.83
296.018	56.49
296.233	-2.9
296.447	7.34
296.662	-4.95
296.877	62.63
297.091	126.12
297.306	76.97
297.52	36.01
297.735	81.07
297.949	40.11
298.164	31.91
298.378	-29.52
298.593	-23.38
298.807	64.68
299.022	99.5
299.236	7.34
299.451	64.68
299.665	76.97
299.88	56.49
300.094	36.01
300.309	85.16
300.523	79.02
300.737	-4.95
300.952	-45.91
301.166	27.82
301.381	-39.76
301.595	38.06
301.809	11.43
302.024	-29.52
302.238	66.73
302.452	11.43
302.667	27.82
302.881	70.83
303.095	68.78
303.309	132.26
303.524	23.72
303.738	117.93
303.952	38.06
304.166	72.87
304.381	33.96
304.595	119.98
304.809	93.35
305.023	25.77
305.237	58.54
305.452	72.87
305.666	40.11
305.88	27.82
306.094	72.87
306.308	19.63
306.522	3.24
306.736	29.87
306.95	11.43
307.164	-29.52
307.379	-41.81
307.593	93.35
307.807	15.53
308.021	113.83
308.235	13.48
308.449	46.25
308.663	50.35
308.877	36.01
309.091	13.48
309.305	-13.14
309.519	76.97
309.733	146.6
309.947	-0.85
310.161	58.54
310.374	115.88
310.588	66.73
310.802	-56.15
311.016	5.29
311.23	27.82
311.444	-2.9
311.658	-39.76
311.872	128.17
312.085	113.83
312.299	101.55
312.513	124.07
312.727	101.55
312.941	23.72
313.154	50.35
313.368	9.39
313.582	140.46
313.796	21.67
314.009	33.96
314.223	81.07
314.437	56.49
314.651	60.59
314.864	68.78
315.078	95.4
315.292	56.49
315.505	13.48
315.719	-15.19
315.933	74.92
316.146	13.48
316.36	19.63
316.573	142.5
316.787	33.96
317.001	105.64
317.214	7.34
317.428	111.78
317.641	-33.62
317.855	15.53
318.068	19.63
318.282	113.83
318.495	85.16
318.709	29.87
318.922	31.91
319.136	144.55
319.349	58.54
319.563	23.72
319.776	7.34
319.99	85.16
320.203	58.54
320.417	-0.85
320.63	56.49
320.843	148.65
321.057	54.44
321.27	62.63
321.483	17.58
321.697	128.17
321.91	83.11
322.124	115.88
322.337	113.83
322.55	3.24
322.763	33.96
322.977	36.01
323.19	13.48
323.403	81.07
323.617	23.72
323.83	103.59
324.043	56.49
324.256	60.59
324.469	19.63
324.683	144.55
324.896	27.82
325.109	79.02
325.322	31.91
325.535	79.02
325.748	33.96
325.962	-2.9
326.175	48.3
326.388	-13.14
326.601	-25.43
326.814	13.48
327.027	-7
327.24	107.69
327.453	42.15
327.666	-45.91
327.879	29.87
328.092	83.11
328.305	101.55
328.518	101.55
328.731	-2.9
328.944	21.67
329.157	66.73
329.37	95.4
329.583	60.59
329.796	81.07
330.009	44.2
330.222	25.77
330.435	76.97
330.648	74.92
330.861	19.63
331.073	11.43
331.286	38.06
331.499	-23.38
331.712	50.35
331.925	62.63
332.138	44.2
332.35	124.07
332.563	60.59
332.776	23.72
332.989	25.77
333.202	40.11
333.414	15.53
333.627	62.63
333.84	56.49
334.053	29.87
334.265	27.82
334.478	13.48
334.691	40.11
334.903	33.96
335.116	122.02
335.329	89.26
335.541	7.34
335.754	128.17
335.966	62.63
336.179	21.67
336.392	58.54
336.604	68.78
336.817	19.63
337.029	52.39
337.242	74.92
337.454	52.39
337.667	48.3
337.88	38.06
338.092	93.35
338.305	154.79
338.517	93.35
338.729	87.21
338.942	56.49
339.154	3.24
339.367	7.34
339.579	105.64
339.792	126.12
340.004	29.87
340.217	52.39
340.429	-23.38
340.641	-0.85
340.854	3.24
341.066	-9.05
341.278	46.25
341.491	27.82
341.703	97.45
341.915	17.58
342.128	56.49
342.34	81.07
342.552	13.48
342.764	81.07
342.977	40.11
343.189	62.63
343.401	126.12
343.613	3.24
343.826	79.02
344.038	74.92
344.25	83.11
344.462	87.21
344.674	97.45
344.886	15.53
345.099	105.64
345.311	31.91
345.523	19.63
345.735	27.82
345.947	64.68
346.159	27.82
346.371	33.96
346.583	126.12
346.795	111.78
347.007	44.2
347.219	36.01
347.431	17.58
347.643	76.97
347.855	89.26
348.067	19.63
348.279	33.96
348.491	101.55
348.703	25.77
348.915	-21.33
349.127	29.87
349.339	23.72
349.551	36.01
349.763	99.5
349.975	74.92
350.187	72.87
350.399	50.35
350.61	68.78
350.822	13.48
351.034	117.93
351.246	31.91
351.458	130.22
351.669	27.82
351.881	60.59
352.093	83.11
352.305	60.59
352.517	113.83
352.728	-11.09
352.94	52.39
353.152	115.88
353.363	27.82
353.575	70.83
353.787	60.59
353.999	44.2
354.21	97.45
354.422	40.11
354.633	42.15
354.845	25.77
355.057	44.2
355.268	23.72
355.48	52.39
355.692	64.68
355.903	23.72
356.115	42.15
356.326	11.43
356.538	103.59
356.749	68.78
356.961	27.82
357.172	25.77
357.384	68.78
357.595	99.5
357.807	52.39
358.018	46.25
358.23	68.78
358.441	130.22
358.653	89.26
358.864	-31.57
359.075	81.07
359.287	85.16
359.498	115.88
359.709	99.5
359.921	76.97
360.132	50.35
360.344	79.02
360.555	23.72
360.766	5.29
360.977	19.63
361.189	54.44
361.4	56.49
361.611	11.43
361.823	138.41
362.034	101.55
362.245	-2.9
362.456	109.74
362.667	56.49
362.879	36.01
363.09	89.26
363.301	160.94
363.512	76.97
363.723	50.35
363.935	-7
364.146	46.25
364.357	13.48
364.568	97.45
364.779	76.97
364.99	31.91
365.201	62.63
365.412	115.88
365.623	15.53
365.834	68.78
366.045	46.25
366.256	97.45
366.467	81.07
366.678	95.4
366.889	29.87
367.1	7.34
367.311	83.11
367.522	81.07
367.733	85.16
367.944	142.5
368.155	87.21
368.366	105.64
368.577	76.97
368.788	158.89
368.999	56.49
369.209	74.92
369.42	132.26
369.631	142.5
369.842	130.22
370.053	44.2
370.264	152.74
370.474	60.59
370.685	17.58
370.896	50.35
371.107	99.5
371.317	93.35
371.528	99.5
371.739	64.68
371.95	62.63
372.16	76.97
372.371	91.31
372.582	15.53
372.792	50.35
373.003	87.21
373.214	-33.62
373.424	52.39
373.635	66.73
373.846	136.36
374.056	117.93
374.267	105.64
374.477	23.72
374.688	56.49
374.898	87.21
375.109	56.49
375.319	126.12
375.53	93.35
375.74	62.63
375.951	-31.57
376.161	60.59
376.372	17.58
376.582	13.48
376.793	70.83
377.003	70.83
377.214	31.91
377.424	52.39
377.635	62.63
377.845	-4.95
378.055	60.59
378.266	52.39
378.476	5.29
378.686	44.2
378.897	97.45
379.107	74.92
379.317	54.44
379.528	46.25
379.738	134.31
379.948	36.01
380.158	72.87
380.369	-7
380.579	31.91
380.789	146.6
380.999	-4.95
381.21	130.22
381.42	99.5
381.63	17.58
381.84	60.59
382.05	91.31
382.261	138.41
382.471	122.02
382.681	76.97
382.891	113.83
383.101	130.22
383.311	66.73
383.521	23.72
383.731	21.67
383.941	122.02
384.151	58.54
384.361	111.78
384.571	70.83
384.781	56.49
384.991	130.22
385.201	124.07
385.411	138.41
385.621	44.2
385.831	105.64
386.041	117.93
386.251	85.16
386.461	154.79
386.671	74.92
386.881	76.97
387.091	3.24
387.301	-13.14
387.511	101.55
387.72	95.4
387.93	-0.85
388.14	-9.05
388.35	81.07
388.56	97.45
388.769	154.79
388.979	58.54
389.189	72.87
389.399	36.01
389.609	58.54
389.818	72.87
390.028	126.12
390.238	-0.85
390.447	64.68
390.657	72.87
390.867	130.22
391.076	101.55
391.286	136.36
391.496	113.83
391.705	93.35
391.915	154.79
392.125	142.5
392.334	64.68
392.544	44.2
392.753	74.92
392.963	9.39
393.172	91.31
393.382	89.26
393.591	138.41
393.801	107.69
394.01	113.83
394.22	101.55
394.429	25.77
394.639	130.22
394.848	115.88
395.058	68.78
395.267	113.83
395.477	48.3
395.686	93.35
395.895	185.51
396.105	171.18
396.314	126.12
396.524	154.79
396.733	93.35
396.942	95.4
397.152	109.74
397.361	185.51
397.57	234.66
397.78	134.31
397.989	126.12
398.198	195.75
398.407	128.17
398.617	119.98
398.826	154.79
399.035	140.46
399.244	199.85
399.453	189.61
399.663	124.07
399.872	146.6
400.081	70.83
400.29	158.89
400.499	162.98
400.708	175.27
400.917	107.69
401.127	150.7
401.336	68.78
401.545	142.5
401.754	193.7
401.963	167.08
402.172	126.12
402.381	234.66
402.59	187.56
402.799	177.32
403.008	183.46
403.217	234.66
403.426	205.99
403.635	132.26
403.844	167.08
404.053	185.51
404.262	210.09
404.471	277.67
404.68	234.66
404.888	183.46
405.097	230.57
405.306	187.56
405.515	296.1
405.724	251.05
405.933	259.24
406.142	267.43
406.35	214.18
406.559	199.85
406.768	197.8
406.977	273.57
407.185	214.18
407.394	275.62
407.603	289.96
407.812	201.9
408.02	273.57
408.229	337.06
408.438	324.77
408.646	224.42
408.855	353.45
409.064	318.63
409.272	433.32
409.481	359.59
409.69	433.32
409.898	476.32
410.107	421.03
410.315	431.27
410.524	412.84
410.733	492.71
410.941	490.66
411.15	478.37
411.358	554.15
411.567	437.41
411.775	531.62
411.984	511.14
412.192	607.39
412.401	625.83
412.609	699.55
412.818	634.02
413.026	666.78
413.234	662.69
413.443	730.27
413.651	746.66
413.86	799.9
414.068	838.81
414.276	855.2
414.485	892.06
414.693	851.1
414.901	908.44
415.11	996.51
415.318	994.46
415.526	1021.08
415.734	912.54
415.943	1150.11
416.151	1168.54
416.359	1143.96
416.567	1213.59
416.776	1260.7
416.984	1303.7
417.192	1404.05
417.4	1399.96
417.608	1338.52
417.817	1412.25
418.025	1461.4
418.233	1723.54
418.441	1481.88
418.649	1668.24
418.857	1803.41
419.065	1715.34
419.273	1873.04
419.481	1911.95
419.689	2112.65
419.897	2073.74
420.105	2047.12
420.313	2155.66
420.521	2241.67
420.729	2368.65
420.937	2428.04
421.145	2405.51
421.353	2485.38
421.561	2688.13
421.769	2784.38
421.977	2929.79
422.185	2835.58
422.393	2880.64
422.601	3259.51
422.809	3198.07
423.017	3286.14
423.224	3441.78
423.432	3556.47
423.64	3505.27
423.848	3773.55
424.056	3730.55
424.263	4021.36
424.471	4033.65
424.679	4109.42
424.887	4361.32
425.094	4361.32
425.302	4338.79
425.51	4523.11
425.718	4775.01
425.925	4721.76
426.133	5020.77
426.341	5299.29
426.548	5532.76
426.756	5553.24
426.964	5682.26
427.171	5801.04
427.379	6292.55
427.586	6212.68
427.794	6401.1
428.001	6597.7
428.209	7103.55
428.417	6814.79
428.624	7435.32
428.832	7507
429.039	7255.1
429.247	7449.66
429.454	8033.33
429.662	8778.79
429.869	8004.66
430.076	8506.41
430.284	8322.09
430.491	8629.29
430.699	9352.22
430.906	9176.09
431.114	9468.95
431.321	9692.18
431.528	9989.14
431.736	10292.24
431.943	11111.43
432.15	10867.72
432.358	10863.62
432.565	11416.57
432.772	11277.31
432.979	11965.43
433.187	12186.61
433.394	12280.82
433.601	12882.92
433.808	13190.11
434.016	13046.76
434.223	13585.37
434.43	14349.26
434.637	14175.19
434.844	15127.49
435.052	15330.24
435.259	15029.19
435.466	15401.92
435.673	15211.46
435.88	16470.96
436.087	17079.21
436.294	16909.22
436.501	16526.25
436.708	17159.08
436.915	17660.83
437.122	18363.28
437.329	18285.46
437.537	18983.82
437.743	19303.3
437.95	19098.5
438.157	20091.77
438.364	21089.13
438.571	20808.56
438.778	21013.35
438.985	23112.52
439.192	21965.66
439.399	22616.91
439.606	22156.12
439.813	23405.38
440.02	24937.26
440.227	24511.28
440.433	24380.21
440.64	25178.92
440.847	24843.06
441.054	25475.88
441.261	27220.75
441.467	26819.35
441.674	27380.49
441.881	28336.89
442.088	28439.29
442.294	27886.34
442.501	28689.14
442.708	29190.89
442.914	30739.16
443.121	31918.79
443.328	30855.89
443.534	33129.14
443.741	32334.53
443.948	31961.79
444.154	34431.65
444.361	33729.19
444.568	34278.05
444.774	34099.87
444.981	34218.66
445.187	35693.19
445.394	36950.65
445.6	36467.33
445.807	40038.98
446.013	38122.08
446.22	38992.47
446.426	40616.51
446.633	40471.11
446.839	41839.15
447.046	40202.82
447.252	42322.47
447.459	42535.46
447.665	42418.72
447.871	44274.18
448.078	45871.6
448.284	43704.85
448.491	44630.53
448.697	46660.07
448.903	47010.27
449.11	47284.7
449.316	46426.6
449.522	47264.22
449.728	48419.27
449.935	48792
450.141	48914.88
450.347	49559.99
450.553	48239.05
450.76	48579.01
450.966	49596.85
451.172	49140.16
451.378	50684.33
451.584	49521.08
451.791	50520.49
451.997	50540.97
452.203	51241.37
452.409	51077.54
452.615	50952.61
452.821	48669.12
453.027	48718.28
453.233	50827.68
453.44	49080.77
453.646	49291.71
453.852	49680.82
454.058	50237.87
454.264	48531.91
454.47	49402.3
454.676	47940.05
454.882	49676.72
455.088	45713.91
455.294	46207.47
455.5	46746.08
455.705	46813.66
455.911	44847.61
456.117	44110.35
456.323	43391.51
456.529	41015.86
456.735	42603.04
456.941	41638.45
457.147	41148.98
457.352	39803.47
457.558	39006.81
457.764	39324.24
457.97	38617.69
458.176	37700.2
458.381	37497.45
458.587	35877.51
458.793	35613.32
458.999	33798.82
459.204	36074.12
459.41	35238.54
459.616	33094.32
459.821	33055.41
460.027	32991.92
460.233	31785.67
460.438	30454.49
460.644	30755.54
460.85	29190.89
461.055	29172.46
461.261	29137.65
461.466	26694.42
461.672	25942.81
461.878	27851.52
462.083	25938.72
462.289	25768.74
462.494	25420.58
462.7	24142.65
462.905	23429.96
463.111	24363.83
463.316	24443.7
463.522	24019.77
463.727	23935.81
463.932	23835.45
464.138	24005.44
464.343	23868.22
464.549	23200.58
464.754	23900.99
464.959	23548.74
465.165	23589.7
465.37	22641.49
465.575	21967.71
465.781	23051.08
465.986	23272.26
466.191	22203.22
466.397	21801.82
466.602	20861.8
466.807	21605.22
467.012	21412.71
467.218	21588.83
467.423	20923.24
467.628	21611.36
467.833	22203.22
468.038	21590.88
468.244	20642.67
468.449	21322.6
468.654	20927.34
468.859	20626.29
469.064	20781.93
469.269	19874.68
469.474	19788.67
469.679	20185.97
469.885	19653.5
470.09	19989.37
470.295	19964.79
470.5	19094.41
470.705	19592.06
470.91	18881.42
471.115	18867.08
471.32	19069.83
471.525	18811.79
471.73	18701.2
471.935	18566.03
472.139	17986.46
472.344	17982.36
472.549	18054.04
472.754	17755.04
472.959	17279.91
473.164	16751.53
473.369	16976.81
473.574	17421.22
473.778	17267.62
473.983	16995.24
474.188	16642.99
474.393	15889.34
474.598	16235.44
474.802	15944.63
475.007	16040.89
475.212	15739.83
475.417	15381.44
475.621	15565.76
475.826	15420.35
476.031	15074.24
476.235	15049.67
476.44	15047.62
476.645	14879.69
476.849	14670.79
477.054	14687.18
477.259	14435.28
477.463	14324.69
477.668	14089.17
477.872	14500.81
478.077	13892.57
478.282	13546.46
478.486	13587.42
478.691	13626.33
478.895	13644.76
479.1	13497.31
479.304	13437.92
479.509	13165.54
479.713	13265.89
479.918	12960.74
480.122	12567.53
480.326	13046.76
480.531	12999.65
480.735	12651.5
480.94	12780.52
481.144	13112.29
481.348	12512.24
481.553	12471.28
481.757	12327.92
481.961	12622.83
482.166	12780.52
482.37	12723.18
482.574	12272.62
482.778	12458.99
482.983	12561.39
483.187	12741.61
483.391	12729.32
483.595	12434.41
483.8	12458.99
484.004	12557.29
484.208	12778.47
484.412	12516.33
484.616	12344.3
484.821	12757.99
485.025	12235.76
485.229	12680.17
485.433	12428.27
485.637	12669.93
485.841	12407.79
486.045	12356.59
486.249	12692.46
486.453	12252.14
486.657	12348.4
486.861	12514.28
487.065	12231.66
487.269	12409.84
487.473	12332.01
487.677	12594.15
487.881	12704.74
488.085	12528.62
488.289	12475.37
488.493	12577.77
488.697	12858.34
488.901	12723.18
489.105	12708.84
489.309	12737.51
489.512	12817.38
489.716	12807.14
489.92	12862.44
490.124	12784.62
490.328	12813.29
490.531	13016.04
490.735	12827.62
490.939	13091.81
491.143	13104.1
491.346	12975.08
491.55	13343.71
491.754	13106.15
491.958	13362.14
492.161	13208.55
492.365	13405.15
492.569	13329.38
492.772	13323.23
492.976	13751.26
493.18	13882.33
493.383	13771.74
493.587	13818.84
493.79	13968.34
493.994	13808.6
494.197	14074.84
494.401	14330.83
494.605	14394.32
494.808	14429.13
495.012	14504.91
495.215	14740.43
495.419	14724.04
495.622	14818.25
495.825	14822.34
496.029	14664.65
496.232	15268.8
496.436	15389.63
496.639	15524.8
496.843	15512.51
497.046	15934.39
497.249	16053.17
497.453	16110.52
497.656	16110.52
497.859	16438.19
498.063	16466.86
498.266	16776.11
498.469	16702.38
498.673	16939.94
498.876	17189.8
499.079	17394.59
499.282	17238.95
499.485	17959.83
499.689	17810.33
499.892	18316.18
500.095	18019.22
500.298	18496.4
500.501	18342.8
500.705	19078.02
500.908	19069.83
501.111	19411.84
501.314	19544.96
501.517	19766.14
501.72	20200.31
501.923	20036.47
502.126	20351.86
502.329	20609.9
502.532	20689.77
502.735	21228.39
502.938	21496.67
503.141	21279.59
503.344	21982.04
503.547	22106.97
503.75	22219.61
503.953	22776.66
504.156	22676.3
504.359	22821.71
504.562	22936.4
504.765	23395.14
504.968	23628.61
505.17	24054.59
505.373	23982.91
505.576	24595.25
505.779	24687.41
505.982	24982.32
506.185	25529.13
506.387	25518.89
506.59	25400.1
506.793	26116.89
506.996	26508.05
507.198	26899.22
507.401	26616.6
507.604	27087.63
507.807	27708.16
508.009	27804.42
508.212	28029.69
508.415	28306.17
508.617	28836.59
508.82	28844.79
509.022	28918.51
509.225	29463.27
509.428	29874.91
509.63	29956.83
509.833	29950.69
510.035	30843.6
510.238	30526.17
510.44	30986.96
510.643	31537.87
510.845	31824.58
511.048	31337.16
511.25	32373.44
511.453	32541.37
511.655	33346.22
511.858	33102.51
512.06	33524.4
512.262	34026.15
512.465	33761.96
512.667	34349.73
512.87	34867.86
513.072	34691.74
513.274	35693.19
513.477	35795.59
513.679	35963.53
513.881	36237.95
514.084	36586.11
514.286	36665.98
514.488	37141.11
514.69	38138.47
514.893	38206.05
515.095	38216.29
515.297	38554.21
515.499	38556.25
515.701	39438.93
515.904	39899.72
516.106	40333.89
516.308	40327.75
516.51	40743.48
516.712	40489.54
516.914	41595.44
517.116	42431.01
517.318	42103.34
517.52	42512.93
517.722	42629.66
517.925	42709.53
518.127	43864.59
518.329	43844.11
518.531	43573.78
518.733	44233.22
518.935	44749.31
519.136	44909.05
519.338	45707.76
519.54	45433.33
519.742	46260.71
519.944	46780.9
520.146	47251.93
520.348	47165.91
520.55	48015.82
520.752	47849.94
520.954	48734.66
521.155	48243.15
521.357	49211.84
521.559	49295.8
521.761	49998.26
521.963	49969.58
522.164	50471.34
522.366	50532.78
522.568	51038.62
522.77	51190.17
522.971	52326.8
523.173	51517.85
523.375	52189.58
523.576	51945.87
523.778	52621.7
523.98	52857.22
524.181	53639.54
524.383	53031.3
524.584	53621.11
524.786	53737.85
524.988	53526.91
525.189	54352.24
525.391	54636.9
525.592	55091.55
525.794	55036.26
525.995	55230.82
526.197	55529.82
526.398	55474.52
526.6	55875.93
526.801	56078.67
527.003	56908.1
527.204	56504.65
527.406	57319.74
527.607	56754.5
527.808	57375.04
528.01	56381.77
528.211	57284.93
528.412	58032.44
528.614	57729.34
528.815	58052.92
529.016	58708.27
529.218	57766.2
529.419	58360.11
529.62	58233.14
529.822	58347.82
530.023	58468.65
530.224	58954.02
530.425	58712.36
530.626	58620.2
530.828	58153.27
531.029	59453.73
531.23	58765.61
531.431	58857.77
531.632	59556.13
531.833	59363.62
532.035	59130.15
532.236	59322.66
532.437	59568.41
532.638	59011.37
532.839	59898.14
533.04	59679
533.241	59058.47
533.442	59969.82
533.643	59900.18
533.844	59535.65
534.045	59992.34
534.246	59724.06
534.447	59902.23
534.648	59449.63
534.849	60074.26
535.05	59789.59
535.251	59857.18
535.451	59748.63
535.652	59791.64
535.853	60162.32
536.054	59986.2
536.255	60301.59
536.456	59625.76
536.657	60397.84
536.857	59949.34
537.058	59633.95
537.259	60147.99
537.46	60193.04
537.66	60219.67
537.861	60496.14
538.062	59799.83
538.263	60057.88
538.463	59298.08
538.664	59955.48
538.865	59908.38
539.065	60203.28
539.266	59820.31
539.466	60201.24
539.667	59154.72
539.868	60322.07
540.068	59904.28
540.269	59418.91
540.469	59877.66
540.67	59470.11
540.87	59666.72
541.071	60049.69
541.271	59801.88
541.472	60113.17
541.672	59578.65
541.873	59527.45
542.073	59130.15
542.274	59560.22
542.474	59957.53
542.675	59455.78
542.875	59496.73
543.075	59543.84
543.276	59351.33
543.476	59734.3
543.676	59400.48
543.877	59586.85
544.077	59257.12
544.277	59367.71
544.478	59068.71
544.678	59638.04
544.878	59324.71
545.078	59199.78
545.279	59042.09
545.479	59265.31
545.679	59334.95
545.879	58982.69
546.079	59267.36
546.28	59013.41
546.48	58712.36
546.68	59177.25
546.88	59275.55
547.08	59244.83
547.28	59003.17
547.48	58853.67
547.68	58798.38
547.88	58571.05
548.081	59117.86
548.281	58687.79
548.481	58673.45
548.681	59355.42
548.881	58738.99
549.081	58313.01
549.28	58560.81
549.48	58757.42
549.68	58650.92
549.88	59552.03
550.08	58482.99
550.28	58888.49
550.48	58296.63
550.68	59074.85
550.88	58601.77
551.08	58493.23
551.279	58405.17
551.479	58417.46
551.679	58646.83
551.879	58569
552.079	58636.59
552.278	58319.15
552.478	58370.35
552.678	58437.93
552.878	58825
553.077	58372.4
553.277	58038.58
553.477	58429.74
553.676	58384.69
553.876	58265.91
554.076	57889.08
554.275	57768.25
554.475	57557.31
554.674	58196.27
554.874	58110.26
555.074	57856.31
555.273	57971
555.473	57868.6
555.672	57188.67
555.872	57741.63
556.071	57641.28
556.271	58036.53
556.47	57893.18
556.67	56963.4
556.869	57481.53
557.068	57479.49
557.268	56783.18
557.467	57176.39
557.667	56758.6
557.866	57264.45
558.065	56797.51
558.265	56664.39
558.464	56826.18
558.663	57096.52
558.863	56242.51
559.062	57233.73
559.261	56422.73
559.461	57217.35
559.66	55918.93
559.859	56648.01
560.058	56287.57
560.258	56455.5
560.457	55955.8
560.656	56078.67
560.855	55744.86
561.054	56287.57
561.253	55783.77
561.453	55730.52
561.652	55914.84
561.851	56064.34
562.05	55341.41
562.249	55220.58
562.448	55931.22
562.647	55122.27
562.846	55417.18
563.045	55333.21
563.244	54641
563.443	55370.08
563.642	54088.05
563.841	54696.3
564.04	54468.97
564.239	55296.35
564.438	54102.39
564.637	54253.93
564.836	55001.44
565.035	54032.75
565.234	54520.17
565.432	53907.83
565.631	53608.82
565.83	53866.87
566.029	53547.39
566.228	53240.19
566.427	53285.25
566.625	53424.51
566.824	52574.6
567.023	53500.28
567.222	52064.66
567.42	52920.71
567.619	53174.66
567.818	52806.02
568.016	52156.81
568.215	52730.25
568.414	52212.11
568.612	52705.67
568.811	51935.63
569.01	52091.28
569.208	51437.98
569.407	51923.35
569.605	51063.2
569.804	51970.45
570.002	51589.53
570.201	51696.02
570.4	50979.23
570.598	50844.07
570.797	50555.3
570.995	51122.59
571.193	50327.98
571.392	51057.06
571.59	50657.7
571.789	50323.88
571.987	50334.12
572.186	50246.06
572.384	49295.8
572.582	50346.41
572.781	49766.84
572.979	49525.17
573.177	49748.4
573.376	49818.03
573.574	48961.98
573.772	49490.36
573.971	49025.47
574.169	49007.04
574.367	48478.66
574.565	49086.91
574.763	48460.23
574.962	48730.56
575.16	48046.54
575.358	48871.87
575.556	47411.67
575.754	48570.82
575.952	47837.65
576.151	48064.97
576.349	47604.18
576.547	47530.45
576.745	47708.63
576.943	47610.32
577.141	47253.98
577.339	47309.27
577.537	47253.98
577.735	46821.86
577.933	46428.65
578.131	46897.63
578.329	46504.42
578.527	46207.47
578.725	46504.42
578.923	46658.02
579.121	45838.83
579.319	45662.71
579.516	46416.36
579.714	45707.76
579.912	45595.12
580.11	45812.21
580.308	46197.23
580.506	45644.27
580.704	44952.06
580.901	45226.49
581.099	45535.73
581.297	44933.63
581.495	44638.72
581.692	45300.22
581.89	44577.28
582.088	44810.75
582.285	44356.1
582.483	44913.15
582.681	44581.38
582.878	44096.01
583.076	43926.03
583.274	44374.53
583.471	43864.59
583.669	43932.17
583.866	43100.7
584.064	43770.38
584.262	43151.9
584.459	43655.7
584.657	43004.44
584.854	43389.46
585.052	42299.94
585.249	43127.32
585.447	42824.22
585.644	42535.46
585.841	42902.04
586.039	42560.03
586.236	42349.09
586.434	41957.93
586.631	42211.88
586.828	42263.08
587.026	42123.82
587.223	42015.27
587.42	41751.09
587.618	41548.34
587.815	41296.44
588.012	41796.14
588.21	41245.24
588.407	41351.73
588.604	41155.13
588.801	40786.49
588.999	40804.92
589.196	41030.2
589.393	40837.69
589.59	40796.73
589.787	40530.5
589.984	40243.78
590.182	40118.85
590.379	40120.9
590.576	39991.88
590.773	39866.95
590.97	39805.52
591.167	39602.77
591.364	39015
591.561	39672.4
591.758	39373.39
591.955	39371.35
592.152	39422.55
592.349	39164.5
592.546	39170.64
592.743	38748.76
592.94	38638.17
593.137	39008.86
593.334	38644.32
593.531	38070.89
593.727	38646.36
593.924	38171.24
594.121	37704.3
594.318	38107.75
594.515	37898.86
594.712	38220.39
594.908	37458.54
595.105	37737.07
595.302	37507.69
595.499	37401.2
595.696	37311.09
595.892	37069.43
596.089	37380.72
596.286	37403.25
596.482	36682.36
596.679	37016.18
596.876	37012.09
597.072	36745.85
597.269	36831.86
597.466	36201.09
597.662	36151.94
597.859	36381.31
598.055	36237.95
598.252	36168.32
598.448	36188.8
598.645	35725.96
598.841	35568.27
599.038	35828.36
599.234	35566.22
599.431	35230.35
599.627	35058.32
599.824	35084.95
600.02	35062.42
600.217	35058.32
600.413	35046.04
600.609	34882.2
600.806	34796.18
601.002	34896.53
601.198	34468.51
601.395	34534.04
601.591	34228.9
601.787	34497.18
601.984	34126.5
602.18	34624.15
602.376	33735.34
602.572	34007.72
602.769	33890.98
602.965	33573.55
603.161	33747.62
603.357	33616.55
603.553	33284.78
603.75	33612.46
603.946	33411.76
604.142	33323.69
604.338	32916.15
604.534	33127.09
604.73	32469.69
604.926	32461.5
605.122	32453.31
605.318	32432.83
605.514	32168.64
605.71	32142.02
605.906	32232.13
606.102	32182.98
606.298	32576.19
606.494	32080.58
606.69	31744.71
606.886	31986.37
607.082	31312.59
607.278	31765.19
607.474	31066.83
607.67	31648.46
607.866	31183.57
608.062	31541.96
608.257	31253.2
608.453	31501
608.649	31509.19
608.845	30855.89
609.041	30909.14
609.236	31400.65
609.432	30886.61
609.628	30948.05
609.824	30751.45
610.019	30532.31
610.215	30520.02
610.411	31021.78
610.606	30384.86
610.802	30671.57
610.998	30008.03
611.193	30405.34
611.389	30302.94
611.584	30149.34
611.78	29887.2
611.976	30059.23
612.171	30175.97
612.367	30239.45
612.562	29926.11
612.758	29672.17
612.953	29469.42
613.149	29801.19
613.344	29377.26
613.539	29954.79
613.735	29612.77
613.93	29842.15
614.126	29039.34
614.321	29477.61
614.517	29207.28
614.712	29631.21
614.907	29307.63
615.103	29231.85
615.298	29041.39
615.493	29485.8
615.688	28326.65
615.884	29334.25
616.079	28746.48
616.274	29135.6
616.47	28758.77
616.665	28619.51
616.86	28547.83
617.055	28326.65
617.25	28478.2
617.445	28658.42
617.641	28162.81
617.836	28609.27
618.031	27749.12
618.226	28300.03
618.421	27945.73
618.616	28363.51
618.811	27896.58
619.006	27941.63
619.201	27345.67
619.396	27863.81
619.591	27575.05
619.786	27867.91
619.981	27171.6
620.176	27360.01
620.371	26882.83
620.566	27040.53
620.761	26874.64
620.956	26762
621.151	26518.29
621.346	26374.94
621.541	26030.88
621.735	26647.32
621.93	25897.76
622.125	26125.08
622.32	25680.67
622.515	25680.67
622.709	25656.1
622.904	25774.88
623.099	25297.7
623.294	25201.45
623.488	25010.99
623.683	25099.05
623.878	24617.78
624.072	24650.55
624.267	24867.63
624.462	24531.76
624.656	24314.68
624.851	24347.45
625.046	23870.27
625.24	23970.62
625.435	23655.23
625.629	23487.3
625.824	23309.13
626.018	23413.57
626.213	22651.73
626.407	23171.91
626.602	22639.44
626.796	23075.66
626.991	23055.18
627.185	22795.09
627.38	22260.57
627.574	22340.44
627.768	22309.72
627.963	22268.76
628.157	21951.32
628.352	22096.73
628.546	21640.03
628.74	21883.74
628.935	21502.82
629.129	21488.48
629.323	21179.24
629.517	21351.27
629.712	21175.14
629.906	21058.41
630.1	20677.49
630.294	20900.72
630.489	20806.51
630.683	20947.82
630.877	20312.95
631.071	20138.87
631.265	20319.09
631.459	20142.97
631.653	19999.61
631.848	19925.88
632.042	19901.31
632.236	19852.16
632.43	19413.89
632.624	19526.53
632.818	18959.24
633.012	19196.81
633.206	19172.23
633.4	18957.19
633.594	18672.53
633.788	18703.25
633.982	18830.22
634.176	18525.07
634.369	18469.78
634.563	18465.68
634.757	18158.49
634.951	18424.72
635.145	18279.32
635.339	18090.9
635.533	17671.07
635.726	18140.05
635.92	17658.78
636.114	17486.75
636.308	17523.62
636.501	17470.37
636.695	17324.96
636.889	17148.84
637.083	17128.36
637.276	17107.88
637.47	16927.66
637.664	16909.22
637.857	16710.57
638.051	16671.66
638.244	16530.35
638.438	16536.49
638.632	16247.73
638.825	16249.78
639.019	16112.56
639.212	16061.37
639.406	16171.96
639.599	16065.46
639.793	16040.89
639.986	15627.2
640.18	15745.98
640.373	15672.25
640.567	15397.82
640.76	15408.06
640.954	15205.31
641.147	15006.66
641.34	15080.39
641.534	15070.15
641.727	14752.71
641.92	14896.07
642.114	14754.76
642.307	14627.79
642.5	14928.84
642.694	14263.25
642.887	14482.38
643.08	14519.25
643.273	14443.47
643.467	14250.96
643.66	14029.78
643.853	14042.07
644.046	13700.06
644.239	14015.44
644.432	13829.08
644.626	13738.97
644.819	13536.22
645.012	13622.23
645.205	13542.36
645.398	13384.67
645.591	13274.08
645.784	13370.33
645.977	13128.67
646.17	13231.07
646.363	12913.64
646.556	12870.63
646.749	12934.12
646.942	13026.28
647.135	12844.01
647.328	12887.01
647.521	12510.19
647.714	12608.49
647.907	12551.15
648.099	12385.26
648.292	12436.46
648.485	12297.2
648.678	12102.64
648.871	12104.69
649.064	11996.15
649.256	12022.77
649.449	11920.37
649.642	11869.17
649.835	11643.9
650.027	11871.22
650.22	11600.89
650.413	11529.21
650.605	11607.03
650.798	11635.71
650.991	11435
651.183	11179.01
651.376	11043.84
651.568	11254.78
651.761	11332.61
651.954	11158.53
652.146	11078.66
652.339	10908.68
652.531	11074.56
652.724	10818.57
652.916	10812.42
653.109	10759.17
653.301	10714.12
653.494	10775.56
653.686	10591.24
653.879	10630.15
654.071	10499.08
654.263	10449.93
654.456	10445.84
654.648	10466.31
654.84	9985.04
655.033	10140.69
655.225	10232.85
655.417	9890.84
655.61	10165.26
655.802	10155.02
655.994	9874.45
656.186	9964.56
656.379	9729.05
656.571	9729.05
656.763	9534.49
656.955	9561.11
657.148	9727
657.34	9522.2
657.532	9489.43
657.724	9382.94
657.916	9544.73
658.108	9178.14
658.3	9395.23
658.492	9272.35
658.684	9161.76
658.876	9169.95
659.068	8991.78
659.26	8952.87
659.452	8938.53
659.644	9069.6
659.836	8815.65
660.028	8889.38
660.22	8631.33
660.412	8637.48
660.604	8754.21
660.796	8741.93
660.988	8625.19
661.18	8512.55
661.372	8471.59
661.563	8424.49
661.755	8438.83
661.947	8471.59
662.139	8346.67
662.331	8315.95
662.522	8244.27
662.714	8227.89
662.906	8082.48
663.097	8096.82
663.289	8100.91
663.481	8135.73
663.673	7937.07
663.864	7801.91
664.056	7920.69
664.247	8006.7
664.439	7853.11
664.631	7629.88
664.822	7791.67
665.014	7638.07
665.205	7758.9
665.397	7857.2
665.588	7646.26
665.78	7396.41
665.971	7570.49
666.163	7404.6
666.354	7533.62
666.546	7502.9
666.737	7408.7
666.929	7523.38
667.12	7441.47
667.311	7439.42
667.503	7228.48
667.694	7144.51
667.885	7081.02
668.077	7322.68
668.268	7083.07
668.459	7048.26
668.651	7128.13
668.842	6952
669.033	6958.14
669.224	6941.76
669.416	7052.35
669.607	6929.47
669.798	6847.55
669.989	6888.51
670.18	6745.16
670.371	6759.49
670.563	6624.33
670.754	6929.47
670.945	6648.9
671.136	6616.13
671.327	6603.85
671.518	6593.61
671.709	6552.65
671.9	6855.75
672.091	6622.28
672.282	6540.36
672.473	6442.06
672.664	6603.85
672.855	6560.84
673.046	6407.24
673.237	6501.45
673.428	6306.89
673.619	6362.19
673.809	6325.32
674	6227.02
674.191	6421.58
674.382	6345.8
674.573	6249.55
674.764	6229.07
674.954	6323.27
675.145	6065.23
675.336	6188.11
675.527	5999.7
675.717	6253.64
675.908	5971.02
676.099	6081.61
676.289	6179.92
676.48	6095.95
676.671	5868.63
676.861	6294.6
677.052	6065.23
677.243	5915.73
677.433	5966.93
677.624	6024.27
677.814	5932.11
678.005	6118.48
678.195	5737.56
678.386	5987.41
678.576	5936.21
678.767	5823.57
678.957	5968.98
679.148	6052.94
679.338	6001.74
679.529	5915.73
679.719	5987.41
679.909	5868.63
680.1	5786.71
680.29	5893.2
680.481	5827.67
680.671	5776.47
680.861	5655.64
681.052	5686.36
681.242	5721.17
681.432	5813.33
681.622	5606.49
681.813	5684.31
682.003	5682.26
682.193	5811.28
682.383	5731.41
682.573	5694.55
682.764	5723.22
682.954	5811.28
683.144	5518.42
683.334	5581.91
683.524	5778.51
683.714	5663.83
683.904	5549.14
684.094	5579.86
684.284	5352.54
684.474	5528.66
684.664	5559.38
684.854	5596.25
685.044	5485.65
685.234	5426.26
685.424	5440.6
685.614	5336.15
685.804	5545.05
685.994	5346.39
686.184	5418.07
686.374	5438.55
686.564	5391.45
686.753	5354.58
686.943	5383.26
687.133	5383.26
687.323	5252.19
687.513	5200.99
687.702	5186.65
687.892	5311.58
688.082	5119.07
688.272	5164.12
688.461	5133.4
688.651	5344.35
688.841	4963.42
689.03	4996.19
689.22	5112.92
689.41	4908.13
689.599	4901.98
689.789	4947.04
689.979	4799.59
690.168	5012.57
690.358	4914.27
690.547	4912.22
690.737	4861.02
690.926	4893.79
691.116	4846.69
691.305	4969.57
691.495	4725.86
691.684	4713.57
691.874	4836.45
692.063	4850.78
692.252	4709.47
692.442	4754.53
692.631	4605.03
692.82	4668.52
693.01	4584.55
693.199	4645.99
693.388	4555.88
693.578	4570.21
693.767	4469.86
693.956	4506.73
694.146	4455.53
694.335	4537.45
694.524	4514.92
694.713	4602.98
694.902	4525.16
695.092	4506.73
695.281	4275.31
695.47	4420.71
695.659	4336.74
695.848	4523.11
696.037	4312.17
696.226	4332.65
696.415	4353.13
696.604	4367.46
696.793	4385.9
696.982	4287.59
697.171	4525.16
697.36	4422.76
697.549	4351.08
697.738	4324.46
697.927	4316.26
698.116	4471.91
698.305	4381.8
698.494	4377.7
698.683	4379.75
698.872	4316.26
699.061	4267.11
699.25	4320.36
699.438	4297.83
699.627	4289.64
699.816	4287.59
700.005	4404.33
700.193	4320.36
700.382	4398.18
700.571	4177
700.76	4367.46
700.948	4316.26
701.137	4240.49
701.326	4211.82
701.514	4052.08
701.703	4342.89
701.892	4242.54
702.08	4312.17
702.269	4308.07
702.457	4299.88
702.646	4217.96
702.834	4146.28
703.023	4209.77
703.212	4256.87
703.4	4195.43
703.589	4226.15
703.777	4260.97
703.965	4234.35
704.154	4123.76
704.342	4125.8
704.531	4242.54
704.719	4195.43
704.907	4310.12
705.096	4093.04
705.284	4177
705.472	4113.52
705.661	4172.91
705.849	4295.79
706.037	4228.2
706.226	4248.68
706.414	4250.73
706.602	4177
706.79	4326.5
706.979	4230.25
707.167	4131.95
707.355	4162.67
707.543	4246.63
707.731	4320.36
707.919	4301.93
708.107	4222.06
708.296	4312.17
708.484	4228.2
708.672	4205.67
708.86	4072.56
709.048	4310.12
709.236	4232.3
709.424	4250.73
709.612	4123.76
709.8	4187.24
709.988	4099.18
710.176	4381.8
710.364	4125.8
710.551	4207.72
710.739	4107.37
710.927	4277.35
711.115	4134
711.303	4232.3
711.491	4066.41
711.679	4084.84
711.866	4158.57
712.054	4244.59
712.242	4131.95
712.43	4224.11
712.617	4146.28
712.805	4097.13
712.993	4134
713.181	4224.11
713.368	4193.39
713.556	4144.24
713.744	4136.04
713.931	4361.32
714.119	4144.24
714.306	4420.71
714.494	4201.58
714.682	4224.11
714.869	4238.44
715.057	4277.35
715.244	3996.78
715.432	4197.48
715.619	4160.62
715.807	4301.93
715.994	4119.66
716.182	4295.79
716.369	4217.96
716.556	4279.4
716.744	4220.01
716.931	4287.59
717.119	4213.87
717.306	4215.91
717.493	4213.87
717.681	4140.14
717.868	4066.41
718.055	4281.45
718.242	4263.02
718.43	4144.24
718.617	4230.25
718.804	4086.89
718.991	4168.81
719.179	4105.32
719.366	4086.89
719.553	4287.59
719.74	4162.67
719.927	4113.52
720.114	4322.41
720.301	4179.05
720.488	4095.08
720.676	4166.76
720.863	4088.94
721.05	4275.31
721.237	4168.81
721.424	4213.87
721.611	4129.9
721.798	4078.7
721.985	4007.02
722.172	4072.56
722.358	4181.1
722.545	4189.29
722.732	4179.05
722.919	4009.07
723.106	4039.79
723.293	4099.18
723.48	4203.63
723.667	4168.81
723.853	4099.18
724.04	4199.53
724.227	4152.43
724.414	4113.52
724.6	4047.98
724.787	4199.53
724.974	4260.97
725.161	4082.8
725.347	4058.22
725.534	4070.51
725.72	4123.76
725.907	4045.93
726.094	4134
726.28	4039.79
726.467	4002.93
726.653	4193.39
726.84	4177
727.027	4150.38
727.213	4068.46
727.4	4166.76
727.586	4013.17
727.773	4082.8
727.959	3923.05
728.145	3980.4
728.332	4004.97
728.518	3982.45
728.705	3955.82
728.891	4052.08
729.077	4000.88
729.264	4099.18
729.45	3970.16
729.636	4062.32
729.823	3998.83
730.009	4041.84
730.195	3951.73
730.382	3957.87
730.568	4054.12
730.754	4039.79
730.94	3984.49
731.126	4017.26
731.313	3990.64
731.499	3892.34
731.685	3949.68
731.871	3992.69
732.057	3890.29
732.243	3959.92
732.429	4009.07
732.615	3884.14
732.801	3900.53
732.987	3867.76
733.173	3777.65
733.359	3763.31
733.545	3839.09
733.731	3834.99
733.917	3800.18
734.103	3878
734.289	3880.05
734.475	3824.75
734.661	4011.12
734.847	3898.48
735.033	3828.85
735.219	3740.79
735.404	3787.89
735.59	3847.28
735.776	3830.9
735.962	3873.9
736.148	3818.61
736.333	3888.24
736.519	3748.98
736.705	3773.55
736.89	3800.18
737.076	3755.12
737.262	3744.88
737.447	3613.81
737.633	3656.82
737.819	3757.17
738.004	3822.7
738.19	3728.5
738.375	3572.85
738.561	3777.65
738.747	3648.63
738.932	3730.55
739.118	3660.91
739.303	3697.78
739.489	3538.04
739.674	3624.05
739.859	3599.48
740.045	3564.66
740.23	3587.19
740.416	3441.78
740.601	3769.46
740.786	3732.59
740.972	3443.83
741.157	3480.69
741.342	3521.65
741.528	3507.32
741.713	3558.52
741.898	3511.41
742.084	3331.19
742.269	3413.11
742.454	3263.61
742.639	3488.89
742.824	3312.76
743.01	3501.17
743.195	3464.31
743.38	3337.34
743.565	3257.46
743.75	3228.79
743.935	3210.36
744.12	3263.61
744.305	3222.65
744.49	3169.4
744.675	3257.46
744.86	3124.35
745.045	3185.79
745.23	3279.99
745.415	3206.27
745.6	3187.83
745.785	3130.49
745.97	3179.64
746.155	3099.77
746.34	3234.94
746.525	3153.02
746.71	3036.28
746.895	3038.33
747.079	2942.08
747.264	3019.9
747.449	2925.69
747.634	2833.54
747.819	3105.92
748.003	2954.37
748.188	2913.41
748.373	2962.56
748.557	2907.26
748.742	2890.88
748.927	2710.66
749.111	2745.47
749.296	2843.78
749.481	2806.91
749.665	2751.62
749.85	2759.81
750.034	2833.54
750.219	2595.97
750.404	2641.03
750.588	2763.9
750.773	2616.45
750.957	2643.07
751.141	2755.71
751.326	2526.34
751.51	2655.36
751.695	2497.67
751.879	2415.75
752.064	2565.25
752.248	2649.22
752.432	2401.41
752.617	2583.68
752.801	2446.47
752.985	2376.84
753.17	2395.27
753.354	2497.67
753.538	2391.17
753.722	2417.8
753.907	2395.27
754.091	2407.56
754.275	2395.27
754.459	2280.58
754.643	2391.17
754.828	2256.01
755.012	2305.16
755.196	2247.82
755.38	2161.8
755.564	2133.13
755.748	2135.18
755.932	2190.47
756.116	2012.3
756.3	2219.14
756.484	2065.55
756.668	2153.61
756.852	2073.74
757.036	2083.98
757.22	2063.5
757.404	2026.64
757.588	1995.92
757.772	2034.83
757.956	1963.15
758.14	2055.31
758.323	2004.11
758.507	2043.02
758.691	1866.89
758.875	1885.33
759.059	2030.73
759.242	1959.05
759.426	1858.7
759.61	1889.42
759.794	1842.32
759.977	1897.61
760.161	1959.05
760.345	1834.13
760.528	1834.13
760.712	1797.26
760.895	1762.45
761.079	1774.74
761.263	1723.54
761.446	1770.64
761.63	1807.5
761.813	1782.93
761.997	1723.54
762.18	1709.2
762.364	1789.07
762.547	1778.83
762.731	1713.3
762.914	1651.86
763.098	1590.42
763.281	1655.95
763.464	1686.67
763.648	1647.76
763.831	1631.38
764.015	1610.9
764.198	1598.61
764.381	1682.58
764.564	1698.96
764.748	1608.85
764.931	1614.99
765.114	1541.27
765.297	1698.96
765.481	1547.41
765.664	1592.47
765.847	1576.08
766.03	1635.47
766.213	1514.64
766.397	1545.36
766.58	1543.32
766.763	1696.91
766.946	1463.44
767.129	1602.71
767.312	1537.17
767.495	1479.83
767.678	1488.02
767.861	1590.42
768.044	1442.96
768.227	1451.16
768.41	1410.2
768.593	1359
768.776	1571.99
768.959	1438.87
769.142	1551.51
769.324	1488.02
769.507	1510.55
769.69	1371.29
769.873	1387.67
770.056	1467.54
770.239	1526.93
770.421	1367.19
770.604	1447.06
770.787	1344.66
770.97	1234.07
771.152	1246.36
771.335	1359
771.518	1318.04
771.7	1324.18
771.883	1348.76
772.066	1356.95
772.248	1293.46
772.431	1322.13
772.613	1318.04
772.796	1264.79
772.978	1340.57
773.161	1195.16
773.343	1258.65
773.526	1199.26
773.708	1111.19
773.891	1209.5
774.073	1203.35
774.256	1166.49
774.438	1270.94
774.621	1258.65
774.803	1164.44
774.985	1129.63
775.168	1193.11
775.35	1133.72
775.532	1121.43
775.715	1088.67
775.897	1182.87
776.079	1012.89
776.261	1037.47
776.444	1174.68
776.626	1082.52
776.808	1047.71
776.99	1049.75
777.173	1174.68
777.355	1016.99
777.537	992.41
777.719	1043.61
777.901	1059.99
778.083	976.03
778.265	1010.84
778.447	1074.33
778.629	1029.27
778.811	1072.28
778.993	953.5
779.175	1004.7
779.357	953.5
779.539	867.49
779.721	986.27
779.903	941.21
780.085	951.45
780.267	904.35
780.449	928.92
780.631	908.44
780.812	986.27
780.994	875.68
781.176	877.73
781.358	894.11
781.54	797.85
781.721	922.78
781.903	816.29
782.085	736.42
782.267	844.96
782.448	697.5
782.63	781.47
782.812	814.24
782.993	838.81
783.175	883.87
783.357	771.23
783.538	769.18
783.72	756.9
783.901	765.09
784.083	769.18
784.264	797.85
784.446	785.57
784.627	699.55
784.809	738.46
784.99	689.31
785.172	769.18
785.353	707.74
785.535	720.03
785.716	609.44
785.897	756.9
786.079	658.59
786.26	732.32
786.441	783.52
786.623	683.17
786.804	691.36
786.985	593.06
787.167	709.79
787.348	648.35
787.529	662.69
787.71	677.02
787.891	744.61
788.073	677.02
788.254	609.44
788.435	648.35
788.616	584.87
788.797	529.57
788.978	664.74
789.159	556.19
789.34	580.77
789.522	582.82
789.703	705.7
789.884	580.77
790.065	576.67
790.246	584.87
790.427	541.86
790.607	650.4
790.788	654.5
790.969	582.82
791.15	548
791.331	554.15
791.512	543.91
791.693	535.71
791.874	517.28
792.054	642.21
792.235	584.87
792.416	513.19
792.597	500.9
792.778	509.09
792.958	488.61
793.139	550.05
793.32	566.43
793.5	507.04
793.681	576.67
793.862	541.86
794.042	523.43
794.223	482.47
794.404	421.03
794.584	437.41
794.765	433.32
794.945	433.32
795.126	437.41
795.306	500.9
795.487	507.04
795.667	459.94
795.848	490.66
796.028	451.75
796.209	431.27
796.389	529.57
796.57	410.79
796.75	418.98
796.93	421.03
797.111	418.98
797.291	453.8
797.471	445.6
797.652	384.16
797.832	433.32
798.012	496.8
798.192	443.56
798.373	466.08
798.553	337.06
798.733	437.41
798.913	410.79
799.093	404.64
799.274	507.04
799.454	490.66
799.634	363.69
799.814	480.42
799.994	388.26
800.174	400.55
800.354	365.73
800.534	363.69
800.714	386.21
800.894	324.77
801.074	359.59
801.254	386.21
801.434	359.59
801.614	339.11
801.794	412.84
801.974	812.19
802.154	339.11
802.334	355.49
802.514	304.29
802.693	425.12
802.873	359.59
803.053	353.45
803.233	228.52
803.413	359.59
803.592	429.22
803.772	402.6
803.952	367.78
804.131	328.87
804.311	390.31
804.491	322.73
804.67	339.11
804.85	277.67
805.03	294.05
805.209	375.97
805.389	318.63
805.568	322.73
805.748	281.77
805.928	382.12
806.107	287.91
806.287	318.63
806.466	361.64
806.646	386.21
806.825	271.53
807.004	324.77
807.184	257.19
807.363	312.49
807.543	269.48
807.722	232.62
807.901	289.96
808.081	230.57
808.26	216.23
808.439	251.05
808.619	324.77
808.798	253.09
808.977	273.57
809.156	324.77
809.336	175.27
809.515	335.01
809.694	214.18
809.873	361.64
810.052	259.24
810.231	330.92
810.411	316.58
810.59	292.01
810.769	257.19
810.948	328.87
811.127	240.81
811.306	246.95
811.485	261.29
811.664	306.34
811.843	335.01
812.022	339.11
812.201	199.85
812.38	273.57
812.559	218.28
812.737	294.05
812.916	261.29
813.095	201.9
813.274	134.31
813.453	312.49
813.632	308.39
813.811	144.55
813.989	224.42
814.168	257.19
814.347	199.85
814.526	253.09
814.704	253.09
814.883	283.81
815.062	179.37
815.24	242.85
815.419	175.27
815.598	240.81
815.776	189.61
815.955	199.85
816.133	189.61
816.312	203.94
816.49	175.27
816.669	320.68
816.847	197.8
817.026	210.09
817.204	169.13
817.383	185.51
817.561	195.75
817.74	169.13
817.918	234.66
818.097	249
818.275	222.38
818.453	216.23
818.632	246.95
818.81	232.62
818.988	193.7
819.167	230.57
819.345	265.38
819.523	167.08
819.701	232.62
819.879	187.56
820.058	115.88
820.236	128.17
820.414	236.71
820.592	162.98
820.77	205.99
820.948	142.5
821.127	107.69
821.305	203.94
821.483	183.46
821.661	222.38
821.839	218.28
822.017	226.47
822.195	175.27
822.373	253.09
822.551	134.31
822.729	265.38
822.907	154.79
823.085	195.75
823.262	179.37
823.44	197.8
823.618	205.99
823.796	105.64
823.974	109.74
824.152	160.94
824.329	27.82
824.507	165.03
824.685	146.6
824.863	193.7
825.04	140.46
825.218	162.98
825.396	193.7
825.574	132.26
825.751	228.52
825.929	240.81
826.107	230.57
826.284	224.42
826.462	150.7
826.639	183.46
826.817	113.83
826.994	162.98
827.172	162.98
827.349	224.42
827.527	173.22
827.704	134.31
827.882	175.27
828.059	150.7
828.237	154.79
828.414	201.9
828.591	113.83
828.769	152.74
828.946	89.26
829.124	171.18
829.301	142.5
829.478	85.16
829.655	228.52
829.833	128.17
830.01	117.93
830.187	158.89
830.364	171.18
830.542	122.02
830.719	113.83
830.896	138.41
831.073	103.59
831.25	54.44
831.427	154.79
831.604	142.5
831.782	165.03
831.959	193.7
832.136	148.65
832.313	109.74
832.49	158.89
832.667	109.74
832.844	76.97
833.021	154.79
833.198	154.79
833.374	70.83
833.551	130.22
833.728	64.68
833.905	89.26
834.082	60.59
834.259	54.44
834.436	165.03
834.612	54.44
834.789	101.55
834.966	146.6
835.143	60.59
835.319	48.3
835.496	117.93
835.673	89.26
835.85	124.07
836.026	132.26
836.203	56.49
836.38	165.03
836.556	119.98
836.733	66.73
836.909	150.7
837.086	81.07
837.262	103.59
837.439	101.55
837.616	142.5
837.792	122.02
837.968	64.68
838.145	56.49
838.321	64.68
838.498	210.09
838.674	152.74
838.851	29.87
839.027	101.55
839.203	56.49
839.38	134.31
839.556	154.79
839.732	179.37
839.909	50.35
840.085	117.93
840.261	144.55
840.437	50.35
840.614	68.78
840.79	50.35
840.966	115.88
841.142	136.36
841.318	50.35
841.494	97.45
841.671	66.73
841.847	42.15
842.023	44.2
842.199	111.78
842.375	115.88
842.551	25.77
842.727	-43.86
842.903	169.13
843.079	105.64
843.255	179.37
843.431	138.41
843.607	107.69
843.783	-15.19
843.959	158.89
844.134	81.07
844.31	146.6
844.486	76.97
844.662	36.01
844.838	33.96
845.013	72.87
845.189	99.5
845.365	83.11
845.541	97.45
845.716	105.64
845.892	103.59
846.068	76.97
846.244	58.54
846.419	103.59
846.595	-2.9
846.77	70.83
846.946	103.59
847.122	31.91
847.297	79.02
847.473	152.74
847.648	13.48
847.824	33.96
847.999	56.49
848.175	76.97
848.35	107.69
848.526	60.59
848.701	40.11
848.876	50.35
849.052	99.5
849.227	81.07
849.403	87.21
849.578	-7
849.753	60.59
849.929	119.98
850.104	79.02
850.279	105.64
850.454	68.78
850.63	81.07
850.805	148.65
850.98	42.15
851.155	27.82
851.33	60.59
851.505	33.96
851.681	42.15
851.856	48.3
852.031	85.16
852.206	50.35
852.381	29.87
852.556	44.2
852.731	60.59
852.906	66.73
853.081	95.4
853.256	72.87
853.431	81.07
853.606	89.26
853.781	29.87
853.956	21.67
854.131	105.64
854.305	25.77
854.48	15.53
854.655	93.35
854.83	44.2
855.005	19.63
855.18	40.11
855.354	76.97
855.529	46.25
855.704	-2.9
855.879	27.82
856.053	70.83
856.228	-13.14
856.403	-0.85
856.577	33.96
856.752	64.68
856.926	64.68
857.101	60.59
857.276	48.3
857.45	60.59
857.625	97.45
857.799	31.91
857.974	17.58
858.148	68.78
858.323	21.67
858.497	40.11
858.672	79.02
858.846	54.44
859.02	64.68
859.195	52.39
859.369	113.83
859.543	29.87
859.718	29.87
859.892	44.2
860.066	19.63
860.241	66.73
860.415	70.83
860.589	85.16
860.763	-11.09
860.938	13.48
861.112	130.22
861.286	-62.29
861.46	46.25
861.634	-21.33
861.808	13.48
861.982	-13.14
862.157	40.11
862.331	48.3
862.505	11.43
862.679	-17.24
862.853	15.53
863.027	-27.48
863.201	64.68
863.375	38.06
863.549	27.82
863.722	62.63
863.896	48.3
864.07	-4.95
864.244	50.35
864.418	-23.38
864.592	17.58
864.766	58.54
864.939	36.01
865.113	-39.76
865.287	60.59
865.461	-27.48
865.634	17.58
865.808	33.96
865.982	76.97
866.156	64.68
866.329	15.53
866.503	48.3
866.676	85.16
866.85	85.16
867.024	44.2
867.197	93.35
867.371	68.78
867.544	93.35
867.718	1.19
867.891	21.67
868.065	42.15
868.238	72.87
868.412	46.25
868.585	56.49
868.759	-15.19
868.932	-21.33
869.105	-54.1
869.279	-17.24
869.452	19.63
869.625	31.91
869.799	25.77
869.972	64.68
870.145	38.06
870.319	21.67
870.492	38.06
870.665	11.43
870.838	23.72
871.011	5.29
871.185	38.06
871.358	44.2
871.531	25.77
871.704	-33.62
871.877	27.82
872.05	13.48
872.223	-54.1
872.396	11.43
872.569	60.59
872.742	9.39
872.915	54.44
873.088	-45.91
873.261	23.72
873.434	33.96
873.607	60.59
873.78	-25.43
873.953	-4.95
874.126	-9.05
874.299	97.45
874.471	-17.24
874.644	-4.95
874.817	36.01
874.99	76.97
875.163	-17.24
875.335	-2.9
875.508	31.91
875.681	52.39
875.853	-64.34
876.026	42.15
876.199	33.96
876.371	29.87
876.544	-19.29
876.717	29.87
876.889	-0.85
877.062	27.82
877.234	-33.62
877.407	42.15
877.579	-54.1
877.752	3.24
877.924	60.59
878.097	33.96
878.269	81.07
878.442	91.31
878.614	11.43
878.786	5.29
878.959	40.11
879.131	3.24
879.303	-72.53
879.476	15.53
879.648	-13.14
879.82	27.82
879.993	7.34
880.165	-17.24
880.337	-70.48
880.509	66.73
880.681	-88.92
880.854	9.39
881.026	42.15
881.198	33.96
881.37	66.73
881.542	15.53
881.714	9.39
881.886	-0.85
882.058	-7
882.23	29.87
882.402	-23.38
882.574	1.19
882.746	17.58
882.918	33.96
883.09	11.43
883.262	-54.1
883.434	56.49
883.606	-0.85
883.778	33.96
883.95	101.55
884.122	42.15
884.293	42.15
884.465	-4.95
884.637	42.15
884.809	-17.24
884.98	44.2
885.152	11.43
885.324	-19.29
885.496	29.87
885.667	-21.33
885.839	-29.52
886.011	56.49
886.182	11.43
886.354	-0.85
886.525	27.82
886.697	29.87
886.869	11.43
887.04	25.77
887.212	-52.05
887.383	115.88
887.555	-47.96
887.726	29.87
887.897	-56.15
888.069	-54.1
888.24	29.87
888.412	25.77
888.583	-0.85
888.754	-2.9
888.926	-17.24
889.097	23.72
889.268	-7
889.44	-103.25
889.611	-29.52
889.782	23.72
889.953	11.43
890.125	9.39
890.296	-31.57
890.467	42.15
890.638	-25.43
890.809	31.91
890.98	17.58
891.151	27.82
891.323	-7
891.494	-52.05
891.665	-52.05
891.836	52.39
892.007	40.11
892.178	62.63
892.349	-2.9
892.52	13.48
892.691	-54.1
892.862	-4.95
893.032	-19.29
893.203	33.96
893.374	7.34
893.545	58.54
893.716	-25.43
893.887	48.3
894.057	-7
894.228	21.67
894.399	-45.91
894.57	74.92
894.74	-7
894.911	-11.09
895.082	-17.24
895.253	27.82
895.423	36.01
895.594	27.82
895.764	36.01
895.935	-54.1
896.106	-37.72
896.276	87.21
896.447	-13.14
896.617	52.39
896.788	-27.48
896.958	19.63
897.129	-54.1
897.299	-47.96
897.47	50.35
897.64	33.96
897.81	56.49
897.981	-7
898.151	23.72
898.322	-21.33
898.492	81.07
898.662	-56.15
898.832	-4.95
899.003	11.43
899.173	66.73
899.343	-15.19
899.513	-66.39
