Data from USB4F104151__289__10-42-22-355.txt Node

Date: Wed Mar 12 10:42:22 EDT 2025
User: louis
Spectrometer: USB4F10415
Trigger mode: 4
Integration Time (sec): 3.000000E-2
Scans to average: 1
Electric dark correction enabled: true
Nonlinearity correction enabled: false
Boxcar width: 0
XAxis mode: Wavelengths
Number of Pixels in Spectrum: 3648
>>>>>Begin Spectral Data<<<<<
178.204	-84.31
178.424	-84.31
178.644	-84.31
178.864	-98.64
179.084	-129.36
179.304	-53.59
179.524	26.28
179.744	52.91
179.964	-10.58
180.184	52.91
180.404	-49.49
180.624	-90.45
180.844	16.04
181.064	1.71
181.283	-39.25
181.503	11.95
181.723	81.58
181.943	-41.3
182.163	1.71
182.383	16.04
182.602	50.86
182.822	5.8
183.042	13.99
183.262	-22.87
183.482	42.67
183.701	67.24
183.921	-22.87
184.141	50.86
184.361	-8.53
184.58	-8.53
184.8	-22.87
185.02	7.85
185.239	65.19
185.459	52.91
185.679	28.33
185.898	7.85
186.118	57
186.338	-2.39
186.557	28.33
186.777	91.82
186.997	-59.73
187.216	38.57
187.436	75.43
187.655	30.38
187.875	3.75
188.095	-57.68
188.314	120.49
188.534	46.76
188.753	52.91
188.973	48.81
189.192	100.01
189.412	1.71
189.631	-18.77
189.851	-104.79
190.07	28.33
190.29	32.43
190.509	44.71
190.729	-18.77
190.948	57
191.168	153.26
191.387	26.28
191.607	9.9
191.826	-18.77
192.045	7.85
192.265	46.76
192.484	28.33
192.704	75.43
192.923	-82.26
193.142	97.96
193.362	46.76
193.581	54.95
193.8	89.77
194.02	79.53
194.239	40.62
194.458	9.9
194.678	-39.25
194.897	34.47
195.116	3.75
195.335	93.87
195.555	110.25
195.774	-12.63
195.993	28.33
196.212	9.9
196.432	57
196.651	69.29
196.87	-4.44
197.089	13.99
197.308	97.96
197.528	54.95
197.747	-4.44
197.966	28.33
198.185	89.77
198.404	40.62
198.623	38.57
198.842	38.57
199.062	65.19
199.281	5.8
199.5	16.04
199.719	-31.06
199.938	28.33
200.157	44.71
200.376	16.04
200.595	46.76
200.814	30.38
201.033	85.67
201.252	93.87
201.471	77.48
201.69	-14.68
201.909	13.99
202.128	-22.87
202.347	48.81
202.566	5.8
202.785	38.57
203.004	16.04
203.223	116.39
203.442	16.04
203.661	91.82
203.879	48.81
204.098	-26.96
204.317	1.71
204.536	52.91
204.755	77.48
204.974	30.38
205.193	22.19
205.411	77.48
205.63	40.62
205.849	1.71
206.068	183.98
206.287	-18.77
206.505	13.99
206.724	71.34
206.943	11.95
207.162	67.24
207.381	-24.92
207.599	59.05
207.818	71.34
208.037	-20.82
208.255	61.1
208.474	-33.11
208.693	42.67
208.911	-10.58
209.13	89.77
209.349	-0.34
209.567	42.67
209.786	65.19
210.005	106.15
210.223	16.04
210.442	-2.39
210.661	18.09
210.879	-37.2
211.098	18.09
211.316	3.75
211.535	44.71
211.753	71.34
211.972	38.57
212.191	13.99
212.409	7.85
212.628	57
212.846	-22.87
213.065	-12.63
213.283	63.15
213.502	16.04
213.72	16.04
213.938	-47.44
214.157	-37.2
214.375	40.62
214.594	24.23
214.812	5.8
215.031	57
215.249	36.52
215.467	73.39
215.686	38.57
215.904	163.5
216.122	-33.11
216.341	67.24
216.559	16.04
216.778	32.43
216.996	93.87
217.214	-14.68
217.432	-0.34
217.651	1.71
217.869	24.23
218.087	48.81
218.306	-33.11
218.524	77.48
218.742	57
218.96	34.47
219.179	-24.92
219.397	48.81
219.615	46.76
219.833	122.54
220.051	30.38
220.27	120.49
220.488	9.9
220.706	9.9
220.924	-10.58
221.142	46.76
221.36	61.1
221.578	38.57
221.796	32.43
222.015	-10.58
222.233	77.48
222.451	97.96
222.669	54.95
222.887	67.24
223.105	24.23
223.323	-24.92
223.541	-53.59
223.759	71.34
223.977	85.67
224.195	89.77
224.413	87.72
224.631	32.43
224.849	52.91
225.067	110.25
225.285	22.19
225.503	67.24
225.721	-45.4
225.939	61.1
226.157	-2.39
226.375	100.01
226.592	52.91
226.81	-4.44
227.028	42.67
227.246	87.72
227.464	-2.39
227.682	50.86
227.9	87.72
228.117	42.67
228.335	59.05
228.553	36.52
228.771	59.05
228.989	26.28
229.206	50.86
229.424	-86.36
229.642	-51.54
229.86	71.34
230.077	13.99
230.295	24.23
230.513	22.19
230.731	-12.63
230.948	95.91
231.166	130.73
231.384	-14.68
231.601	73.39
231.819	54.95
232.037	3.75
232.254	-49.49
232.472	38.57
232.689	57
232.907	-2.39
233.125	-4.44
233.342	11.95
233.56	-0.34
233.777	40.62
233.995	28.33
234.213	73.39
234.43	-29.01
234.648	46.76
234.865	26.28
235.083	32.43
235.3	61.1
235.518	-16.73
235.735	48.81
235.953	75.43
236.17	48.81
236.388	-49.49
236.605	54.95
236.822	46.76
237.04	32.43
237.257	79.53
237.475	-39.25
237.692	-14.68
237.909	40.62
238.127	50.86
238.344	61.1
238.562	79.53
238.779	-61.78
238.996	-22.87
239.214	52.91
239.431	46.76
239.648	-6.49
239.865	13.99
240.083	34.47
240.3	-0.34
240.517	-33.11
240.735	-10.58
240.952	40.62
241.169	40.62
241.386	106.15
241.603	-24.92
241.821	-61.78
242.038	54.95
242.255	32.43
242.472	-10.58
242.689	32.43
242.907	40.62
243.124	89.77
243.341	126.63
243.558	114.34
243.775	48.81
243.992	-18.77
244.209	38.57
244.426	52.91
244.643	79.53
244.86	16.04
245.078	-4.44
245.295	71.34
245.512	-18.77
245.729	-55.64
245.946	93.87
246.163	79.53
246.38	32.43
246.597	91.82
246.814	-2.39
247.031	-4.44
247.248	13.99
247.464	7.85
247.681	-31.06
247.898	11.95
248.115	54.95
248.332	-43.35
248.549	44.71
248.766	95.91
248.983	118.44
249.2	16.04
249.417	28.33
249.633	61.1
249.85	81.58
250.067	40.62
250.284	3.75
250.501	24.23
250.717	79.53
250.934	22.19
251.151	102.06
251.368	40.62
251.585	34.47
251.801	32.43
252.018	83.63
252.235	89.77
252.451	-4.44
252.668	34.47
252.885	11.95
253.102	42.67
253.318	24.23
253.535	11.95
253.752	52.91
253.968	126.63
254.185	50.86
254.401	87.72
254.618	48.81
254.835	7.85
255.051	81.58
255.268	65.19
255.484	81.58
255.701	40.62
255.917	100.01
256.134	36.52
256.351	13.99
256.567	48.81
256.784	48.81
257	-10.58
257.217	71.34
257.433	16.04
257.65	46.76
257.866	11.95
258.082	63.15
258.299	-59.73
258.515	30.38
258.732	22.19
258.948	20.14
259.165	30.38
259.381	-2.39
259.597	108.2
259.814	5.8
260.03	40.62
260.246	71.34
260.463	36.52
260.679	44.71
260.895	102.06
261.112	-6.49
261.328	-37.2
261.544	5.8
261.761	183.98
261.977	28.33
262.193	36.52
262.409	18.09
262.626	26.28
262.842	114.34
263.058	52.91
263.274	81.58
263.49	36.52
263.707	54.95
263.923	110.25
264.139	-14.68
264.355	71.34
264.571	91.82
264.787	-45.4
265.004	75.43
265.22	75.43
265.436	32.43
265.652	-18.77
265.868	75.43
266.084	-59.73
266.3	65.19
266.516	24.23
266.732	9.9
266.948	52.91
267.164	5.8
267.38	46.76
267.596	34.47
267.812	40.62
268.028	7.85
268.244	1.71
268.46	67.24
268.676	36.52
268.892	77.48
269.108	-0.34
269.324	28.33
269.54	-20.82
269.756	44.71
269.972	63.15
270.188	7.85
270.403	-12.63
270.619	-26.96
270.835	3.75
271.051	75.43
271.267	93.87
271.483	143.02
271.698	73.39
271.914	81.58
272.13	52.91
272.346	87.72
272.562	-41.3
272.777	122.54
272.993	40.62
273.209	30.38
273.425	97.96
273.64	-4.44
273.856	102.06
274.072	69.29
274.287	-43.35
274.503	-10.58
274.719	-4.44
274.934	61.1
275.15	-10.58
275.366	16.04
275.581	20.14
275.797	50.86
276.012	-8.53
276.228	-2.39
276.444	73.39
276.659	61.1
276.875	-37.2
277.09	34.47
277.306	81.58
277.521	-31.06
277.737	36.52
277.952	13.99
278.168	79.53
278.383	18.09
278.599	-78.16
278.814	63.15
279.03	114.34
279.245	93.87
279.461	46.76
279.676	61.1
279.892	40.62
280.107	3.75
280.322	-10.58
280.538	-20.82
280.753	-18.77
280.969	-4.44
281.184	13.99
281.399	104.11
281.615	5.8
281.83	75.43
282.045	5.8
282.26	57
282.476	59.05
282.691	63.15
282.906	-0.34
283.122	1.71
283.337	13.99
283.552	63.15
283.767	18.09
283.983	67.24
284.198	-35.16
284.413	16.04
284.628	9.9
284.843	3.75
285.058	-4.44
285.274	134.82
285.489	-20.82
285.704	-2.39
285.919	-8.53
286.134	-2.39
286.349	-0.34
286.564	57
286.779	85.67
286.995	57
287.21	-8.53
287.425	42.67
287.64	36.52
287.855	42.67
288.07	44.71
288.285	81.58
288.5	63.15
288.715	104.11
288.93	30.38
289.145	7.85
289.36	73.39
289.575	46.76
289.79	97.96
290.004	89.77
290.219	116.39
290.434	52.91
290.649	-2.39
290.864	57
291.079	-43.35
291.294	30.38
291.509	22.19
291.724	36.52
291.938	69.29
292.153	-16.73
292.368	24.23
292.583	71.34
292.798	30.38
293.012	38.57
293.227	38.57
293.442	24.23
293.657	44.71
293.871	13.99
294.086	30.38
294.301	102.06
294.516	40.62
294.73	32.43
294.945	7.85
295.16	57
295.374	24.23
295.589	-35.16
295.804	7.85
296.018	32.43
296.233	132.78
296.447	11.95
296.662	11.95
296.877	28.33
297.091	26.28
297.306	-29.01
297.52	89.77
297.735	50.86
297.949	54.95
298.164	7.85
298.378	104.11
298.593	20.14
298.807	1.71
299.022	59.05
299.236	50.86
299.451	36.52
299.665	52.91
299.88	40.62
300.094	18.09
300.309	42.67
300.523	5.8
300.737	85.67
300.952	-31.06
301.166	-35.16
301.381	-24.92
301.595	13.99
301.809	91.82
302.024	112.3
302.238	-22.87
302.452	108.2
302.667	50.86
302.881	77.48
303.095	-6.49
303.309	28.33
303.524	-14.68
303.738	11.95
303.952	30.38
304.166	46.76
304.381	30.38
304.595	5.8
304.809	87.72
305.023	9.9
305.237	63.15
305.452	69.29
305.666	-18.77
305.88	81.58
306.094	59.05
306.308	65.19
306.522	65.19
306.736	11.95
306.95	-0.34
307.164	9.9
307.379	22.19
307.593	59.05
307.807	118.44
308.021	40.62
308.235	22.19
308.449	24.23
308.663	71.34
308.877	59.05
309.091	48.81
309.305	20.14
309.519	73.39
309.733	128.68
309.947	-16.73
310.161	79.53
310.374	93.87
310.588	-24.92
310.802	32.43
311.016	163.5
311.23	114.34
311.444	7.85
311.658	52.91
311.872	73.39
312.085	61.1
312.299	28.33
312.513	22.19
312.727	36.52
312.941	11.95
313.154	24.23
313.368	-26.96
313.582	-0.34
313.796	138.92
314.009	16.04
314.223	13.99
314.437	28.33
314.651	95.91
314.864	-26.96
315.078	87.72
315.292	50.86
315.505	-45.4
315.719	87.72
315.933	106.15
316.146	1.71
316.36	57
316.573	134.82
316.787	24.23
317.001	40.62
317.214	63.15
317.428	-14.68
317.641	-8.53
317.855	13.99
318.068	69.29
318.282	42.67
318.495	93.87
318.709	61.1
318.922	40.62
319.136	50.86
319.349	9.9
319.563	44.71
319.776	7.85
319.99	-29.01
320.203	75.43
320.417	114.34
320.63	112.3
320.843	110.25
321.057	-67.92
321.27	77.48
321.483	89.77
321.697	124.58
321.91	1.71
322.124	102.06
322.337	65.19
322.55	36.52
322.763	67.24
322.977	7.85
323.19	36.52
323.403	65.19
323.617	36.52
323.83	32.43
324.043	5.8
324.256	34.47
324.469	71.34
324.683	73.39
324.896	73.39
325.109	28.33
325.322	69.29
325.535	77.48
325.748	-0.34
325.962	30.38
326.175	118.44
326.388	134.82
326.601	46.76
326.814	30.38
327.027	5.8
327.24	112.3
327.453	-43.35
327.666	95.91
327.879	77.48
328.092	38.57
328.305	24.23
328.518	26.28
328.731	48.81
328.944	116.39
329.157	155.3
329.37	52.91
329.583	65.19
329.796	20.14
330.009	3.75
330.222	36.52
330.435	52.91
330.648	54.95
330.861	26.28
331.073	50.86
331.286	79.53
331.499	91.82
331.712	57
331.925	104.11
332.138	48.81
332.35	38.57
332.563	48.81
332.776	122.54
332.989	-2.39
333.202	104.11
333.414	44.71
333.627	61.1
333.84	61.1
334.053	73.39
334.265	22.19
334.478	52.91
334.691	16.04
334.903	44.71
335.116	22.19
335.329	85.67
335.541	85.67
335.754	69.29
335.966	48.81
336.179	57
336.392	95.91
336.604	11.95
336.817	93.87
337.029	67.24
337.242	-4.44
337.454	126.63
337.667	-0.34
337.88	77.48
338.092	40.62
338.305	7.85
338.517	-0.34
338.729	140.97
338.942	50.86
339.154	20.14
339.367	69.29
339.579	81.58
339.792	-31.06
340.004	50.86
340.217	9.9
340.429	65.19
340.641	57
340.854	-94.55
341.066	-29.01
341.278	116.39
341.491	91.82
341.703	22.19
341.915	65.19
342.128	143.02
342.34	24.23
342.552	54.95
342.764	18.09
342.977	18.09
343.189	75.43
343.401	-10.58
343.613	52.91
343.826	28.33
344.038	18.09
344.25	-49.49
344.462	65.19
344.674	18.09
344.886	-14.68
345.099	16.04
345.311	132.78
345.523	-4.44
345.735	-18.77
345.947	65.19
346.159	42.67
346.371	59.05
346.583	81.58
346.795	102.06
347.007	120.49
347.219	59.05
347.431	7.85
347.643	122.54
347.855	73.39
348.067	71.34
348.279	-57.68
348.491	28.33
348.703	79.53
348.915	79.53
349.127	32.43
349.339	-35.16
349.551	-26.96
349.763	143.02
349.975	65.19
350.187	26.28
350.399	71.34
350.61	67.24
350.822	42.67
351.034	120.49
351.246	50.86
351.458	69.29
351.669	104.11
351.881	-4.44
352.093	48.81
352.305	50.86
352.517	65.19
352.728	163.5
352.94	52.91
353.152	30.38
353.363	22.19
353.575	24.23
353.787	136.87
353.999	54.95
354.21	91.82
354.422	89.77
354.633	-8.53
354.845	95.91
355.057	93.87
355.268	102.06
355.48	50.86
355.692	48.81
355.903	54.95
356.115	-57.68
356.326	71.34
356.538	95.91
356.749	48.81
356.961	61.1
357.172	52.91
357.384	-2.39
357.595	132.78
357.807	65.19
358.018	52.91
358.23	24.23
358.441	44.71
358.653	34.47
358.864	81.58
359.075	30.38
359.287	44.71
359.498	73.39
359.709	95.91
359.921	30.38
360.132	95.91
360.344	110.25
360.555	36.52
360.766	100.01
360.977	32.43
361.189	67.24
361.4	38.57
361.611	114.34
361.823	71.34
362.034	81.58
362.245	59.05
362.456	44.71
362.667	-24.92
362.879	-53.59
363.09	-2.39
363.301	69.29
363.512	36.52
363.723	-4.44
363.935	1.71
364.146	57
364.357	36.52
364.568	16.04
364.779	22.19
364.99	16.04
365.201	22.19
365.412	81.58
365.623	38.57
365.834	124.58
366.045	32.43
366.256	79.53
366.467	77.48
366.678	85.67
366.889	11.95
367.1	91.82
367.311	52.91
367.522	16.04
367.733	42.67
367.944	91.82
368.155	22.19
368.366	36.52
368.577	132.78
368.788	36.52
368.999	40.62
369.209	5.8
369.42	130.73
369.631	63.15
369.842	73.39
370.053	89.77
370.264	-4.44
370.474	-16.73
370.685	79.53
370.896	93.87
371.107	73.39
371.317	81.58
371.528	13.99
371.739	87.72
371.95	13.99
372.16	79.53
372.371	95.91
372.582	61.1
372.792	114.34
373.003	69.29
373.214	40.62
373.424	22.19
373.635	61.1
373.846	89.77
374.056	36.52
374.267	108.2
374.477	89.77
374.688	-14.68
374.898	134.82
375.109	130.73
375.319	87.72
375.53	81.58
375.74	57
375.951	91.82
376.161	-31.06
376.372	83.63
376.582	30.38
376.793	69.29
377.003	-33.11
377.214	75.43
377.424	67.24
377.635	61.1
377.845	32.43
378.055	48.81
378.266	32.43
378.476	102.06
378.686	57
378.897	112.3
379.107	65.19
379.317	120.49
379.528	52.91
379.738	136.87
379.948	-8.53
380.158	112.3
380.369	22.19
380.579	77.48
380.789	22.19
380.999	50.86
381.21	77.48
381.42	67.24
381.63	91.82
381.84	61.1
382.05	114.34
382.261	95.91
382.471	108.2
382.681	48.81
382.891	106.15
383.101	79.53
383.311	24.23
383.521	-6.49
383.731	71.34
383.941	52.91
384.151	69.29
384.361	97.96
384.571	95.91
384.781	71.34
384.991	112.3
385.201	48.81
385.411	57
385.621	108.2
385.831	77.48
386.041	-12.63
386.251	-14.68
386.461	138.92
386.671	13.99
386.881	61.1
387.091	3.75
387.301	116.39
387.511	81.58
387.72	40.62
387.93	104.11
388.14	-0.34
388.35	136.87
388.56	100.01
388.769	130.73
388.979	48.81
389.189	26.28
389.399	22.19
389.609	83.63
389.818	179.88
390.028	-37.2
390.238	87.72
390.447	59.05
390.657	175.78
390.867	77.48
391.076	87.72
391.286	57
391.496	-2.39
391.705	108.2
391.915	153.26
392.125	73.39
392.334	3.75
392.544	102.06
392.753	30.38
392.963	145.06
393.172	50.86
393.382	83.63
393.591	171.69
393.801	118.44
394.01	97.96
394.22	134.82
394.429	87.72
394.639	61.1
394.848	110.25
395.058	118.44
395.267	54.95
395.477	151.21
395.686	36.52
395.895	93.87
396.105	155.3
396.314	114.34
396.524	143.02
396.733	106.15
396.942	145.06
397.152	130.73
397.361	126.63
397.57	151.21
397.78	116.39
397.989	67.24
398.198	202.41
398.407	171.69
398.617	128.68
398.826	179.88
399.035	75.43
399.244	120.49
399.453	63.15
399.663	167.59
399.872	153.26
400.081	159.4
400.29	188.07
400.499	153.26
400.708	124.58
400.917	69.29
401.127	159.4
401.336	65.19
401.545	157.35
401.754	136.87
401.963	106.15
402.172	202.41
402.381	183.98
402.59	120.49
402.799	237.22
403.008	181.93
403.217	169.64
403.426	145.06
403.635	204.46
403.844	171.69
404.053	145.06
404.262	157.35
404.471	204.46
404.68	192.17
404.888	194.22
405.097	147.11
405.306	177.83
405.515	241.32
405.724	212.65
405.933	165.54
406.142	235.18
406.35	204.46
406.559	302.76
406.768	214.7
406.977	245.41
407.185	278.18
407.394	286.37
407.603	212.65
407.812	308.9
408.02	327.33
408.229	261.8
408.438	351.91
408.646	302.76
408.855	290.47
409.064	286.37
409.272	347.81
409.481	433.83
409.69	360.1
409.898	476.84
410.107	396.96
410.315	411.3
410.524	382.63
410.733	399.01
410.941	368.29
411.15	489.12
411.358	437.92
411.567	478.88
411.775	540.32
411.984	540.32
412.192	560.8
412.401	515.75
412.609	528.03
412.818	632.48
413.026	605.86
413.234	655.01
413.443	589.47
413.651	724.64
413.86	691.87
414.068	775.84
414.276	859.81
414.485	736.93
414.693	859.81
414.901	900.76
415.11	845.47
415.318	857.76
415.526	990.88
415.734	1017.5
415.943	1085.08
416.151	1062.55
416.359	1066.65
416.567	1128.09
416.776	1216.15
416.984	1265.3
417.192	1293.97
417.4	1263.26
417.608	1304.21
417.817	1289.88
418.025	1373.85
418.233	1515.16
418.441	1375.89
418.649	1531.54
418.857	1625.75
419.065	1625.75
419.273	1734.29
419.481	1719.95
419.689	1810.06
419.897	1912.46
420.105	1951.37
420.313	2043.53
420.521	2025.1
420.729	2156.17
420.937	2197.13
421.145	2354.82
421.353	2358.92
421.561	2508.42
421.769	2506.37
421.977	2653.83
422.185	2662.02
422.393	2758.27
422.601	2979.45
422.809	3128.95
423.017	3090.04
423.224	3139.19
423.432	3253.88
423.64	3251.83
423.848	3538.55
424.056	3368.57
424.263	3706.48
424.471	3718.77
424.679	3710.58
424.887	4089.45
425.094	4234.86
425.302	4132.46
425.51	4238.95
425.718	4468.33
425.925	4466.28
426.133	4658.79
426.341	5013.09
426.548	5119.58
426.756	5140.06
426.964	5191.26
427.171	5426.78
427.379	5551.7
427.586	5717.59
427.794	5891.66
428.001	6270.54
428.209	6350.41
428.417	6256.2
428.624	6778.44
428.832	6813.25
429.039	6841.92
429.247	6749.76
429.454	7339.58
429.662	7904.82
429.869	7335.48
430.076	7880.24
430.284	7783.99
430.491	8087.09
430.699	8652.33
430.906	8703.53
431.114	8752.68
431.321	8814.12
431.528	9039.39
431.736	9479.71
431.943	10092.05
432.15	9926.16
432.358	10153.49
432.565	10493.45
432.772	10548.75
432.979	11095.55
433.187	10980.87
433.394	11269.63
433.601	12011
433.808	11963.89
434.016	11787.77
434.223	12383.73
434.43	13172.19
434.637	12871.14
434.844	13698.52
435.052	14085.59
435.259	13813.21
435.466	14136.79
435.673	13909.46
435.88	14908.87
436.087	15553.98
436.294	15668.67
436.501	15300.03
436.708	15472.06
436.915	16094.65
437.122	16833.96
437.329	16823.72
437.537	17259.94
437.743	17704.35
437.95	17481.12
438.157	18320.79
438.364	19172.74
438.571	18548.11
438.778	19002.76
438.985	20845.93
439.192	20059.51
439.399	20743.53
439.606	20290.93
439.813	21024.11
440.02	22762.83
440.227	22248.79
440.433	22087
440.64	22703.44
440.847	22537.55
441.054	23309.64
441.261	24909.1
441.467	24249.66
441.674	24827.18
441.881	25703.71
442.088	25838.88
442.294	25355.56
442.501	26369.3
442.708	26875.15
442.914	27809.03
443.121	28763.38
443.328	28101.89
443.534	30092.51
443.741	29230.32
443.948	28957.94
444.154	31024.34
444.361	30610.65
444.568	31259.85
444.774	31192.27
444.981	31212.75
445.187	32208.06
445.394	33608.87
445.6	33047.73
445.807	36465.79
446.013	34995.35
446.22	35486.86
446.426	36981.88
446.633	36949.11
446.839	38181.99
447.046	36836.47
447.252	39052.37
447.459	38773.85
447.665	38401.12
447.871	40473.67
448.078	41831.47
448.284	39685.2
448.491	40901.69
448.697	42404.9
448.903	43170.84
449.11	43521.04
449.316	42507.3
449.522	43168.79
449.728	44538.88
449.935	44846.08
450.141	44459.01
450.347	45536.24
450.553	43996.17
450.76	44704.77
450.966	45870.06
451.172	45706.23
451.378	46474.21
451.584	45439.99
451.791	46523.36
451.997	46345.19
452.203	47358.94
452.409	47016.93
452.615	47076.32
452.821	45339.64
453.027	44780.54
453.233	47217.63
453.44	45200.38
453.646	45499.38
453.852	45921.26
454.058	46328.81
454.264	45222.9
454.47	46263.27
454.676	44639.23
454.882	46310.38
455.088	42517.54
455.294	42738.72
455.5	43729.94
455.705	43844.62
455.911	41892.91
456.117	41110.58
456.323	40897.59
456.529	38644.83
456.735	40010.82
456.941	39019.61
457.147	38308.96
457.352	37287.03
457.558	36539.52
457.764	36750.46
457.97	36162.69
458.176	35202.19
458.381	35450
458.587	33709.22
458.793	33447.08
458.999	31753.41
459.204	34112.67
459.41	33420.46
459.616	31134.93
459.821	31028.43
460.027	30969.04
460.233	30389.47
460.438	28851.44
460.644	29244.65
460.85	27667.72
461.055	27643.14
461.261	27501.83
461.466	25345.32
461.672	24653.11
461.878	26440.98
462.083	24571.19
462.289	24210.75
462.494	24018.24
462.7	23010.64
462.905	22443.35
463.111	23199.05
463.316	22883.66
463.522	22371.67
463.727	22605.14
463.932	22392.15
464.138	22508.88
464.343	22646.1
464.549	22029.66
464.754	22607.19
464.959	22486.36
465.165	22060.38
465.37	21566.82
465.575	20964.71
465.781	21587.3
465.986	21691.74
466.191	21083.5
466.397	20628.85
466.602	19705.21
466.807	20313.46
467.012	20364.66
467.218	19871.1
467.423	20120.95
467.628	20397.43
467.833	20886.89
468.038	20249.97
468.244	19598.72
468.449	20370.8
468.654	19719.55
468.859	19361.16
469.064	19467.65
469.269	18593.17
469.474	18681.23
469.679	19250.56
469.885	18834.83
470.09	18992.52
470.295	18986.38
470.5	18404.75
470.705	18525.58
470.91	18148.76
471.115	17802.65
471.32	18066.84
471.525	17788.32
471.73	17577.37
471.935	17225.12
472.139	16969.13
472.344	17190.31
472.549	16854.44
472.754	16760.23
472.959	16602.54
473.164	16025.01
473.369	16088.5
473.574	16446.9
473.778	16053.69
473.983	16092.6
474.188	16045.49
474.393	15521.21
474.598	15361.47
474.802	15281.6
475.007	15078.85
475.212	15306.18
475.417	14691.79
475.621	14849.48
475.826	14517.71
476.031	14550.48
476.235	14337.49
476.44	14220.75
476.645	13987.29
476.849	14206.42
477.054	13868.5
477.259	13823.45
477.463	13864.41
477.668	13180.39
477.872	13643.23
478.077	13143.52
478.282	13077.99
478.486	13061.6
478.691	12830.18
478.895	12959.2
479.1	12695.02
479.304	12803.56
479.509	12355.05
479.713	12717.54
479.918	12625.39
480.122	12039.67
480.326	12582.38
480.531	12254.7
480.735	12213.74
480.94	12070.39
481.144	12449.26
481.348	12066.29
481.553	12090.87
481.757	11916.79
481.961	12193.26
482.166	12076.53
482.37	12324.33
482.574	11746.81
482.778	11998.71
482.983	12133.87
483.187	11832.82
483.391	12006.9
483.595	11711.99
483.8	11847.16
484.004	11945.46
484.208	12000.76
484.412	11914.74
484.616	11761.14
484.821	11920.88
485.025	11787.77
485.229	12068.34
485.433	11740.66
485.637	12039.67
485.841	11855.35
486.045	11992.56
486.249	11863.54
486.453	11898.36
486.657	12166.64
486.861	11945.46
487.065	11597.31
487.269	11836.92
487.473	11699.7
487.677	11953.65
487.881	12080.63
488.085	12068.34
488.289	12133.87
488.493	11906.55
488.697	12121.59
488.901	12125.68
489.105	12025.33
489.309	12170.74
489.512	12234.22
489.716	12180.98
489.92	11994.61
490.124	12123.63
490.328	12467.69
490.531	12230.13
490.735	12475.88
490.939	12156.4
491.143	12359.15
491.346	12375.53
491.55	12617.19
491.754	12320.24
491.958	12658.15
492.161	12670.44
492.365	12695.02
492.569	12447.21
492.772	12699.11
492.976	12795.37
493.18	12760.55
493.383	13086.18
493.587	13059.56
493.79	13153.76
493.994	12948.97
494.197	13385.18
494.401	13346.27
494.605	13549.02
494.808	13614.55
495.012	13745.62
495.215	13968.85
495.419	13690.33
495.622	13956.57
495.825	13936.09
496.029	13921.75
496.232	14224.85
496.436	14329.3
496.639	14640.59
496.843	14398.93
497.046	14904.78
497.249	15009.22
497.453	15003.08
497.656	15117.76
497.859	15295.94
498.063	15365.57
498.266	15736.25
498.469	15842.74
498.673	15920.57
498.876	16082.36
499.079	16133.56
499.282	16266.67
499.485	16684.46
499.689	16727.47
499.892	16876.97
500.095	17159.59
500.298	17651.1
500.501	17278.37
500.705	17829.27
500.908	18148.76
501.111	18261.4
501.314	18355.6
501.517	18245.01
501.72	18900.36
501.923	18728.33
502.126	18939.27
502.329	19551.62
502.532	19369.35
502.735	19795.32
502.938	20014.46
503.141	20108.66
503.344	20548.98
503.547	20561.26
503.75	20489.59
503.953	21106.02
504.156	21413.22
504.359	21407.08
504.562	21859.68
504.765	22199.64
504.968	22525.27
505.17	22674.77
505.373	22420.82
505.576	22975.82
505.779	23221.58
505.982	23268.68
506.185	23745.86
506.387	23921.98
506.59	24175.93
506.793	24786.22
506.996	24673.59
507.198	25097.52
507.401	24892.72
507.604	25232.68
507.807	26047.77
508.009	25980.19
508.212	26191.13
508.415	26404.12
508.617	26539.29
508.82	26805.52
509.022	26602.77
509.225	27604.23
509.428	27829.51
509.63	27921.66
509.833	28042.49
510.035	28749.04
510.238	28792.05
510.44	29074.67
510.643	29674.73
510.845	29920.48
511.048	29279.47
511.25	30242.01
511.453	30086.37
511.655	31560.91
511.858	31053.01
512.06	31462.6
512.262	31612.1
512.465	31780.04
512.667	32316.61
512.87	32523.45
513.072	32359.61
513.274	33506.48
513.477	33559.72
513.679	33758.38
513.881	34202.78
514.084	34378.91
514.286	34440.35
514.488	34727.06
514.69	35415.18
514.893	35665.03
515.095	35656.84
515.297	36437.12
515.499	36209.79
515.701	36721.79
515.904	36867.19
516.106	37362.8
516.308	37835.88
516.51	38188.13
516.712	38270.05
516.914	38663.26
517.116	39160.92
517.318	39369.81
517.52	39300.18
517.722	39597.13
517.925	40072.26
518.127	40700.99
518.329	40948.79
518.531	40795.2
518.733	41753.65
518.935	42128.42
519.136	42054.7
519.338	42329.12
519.54	42404.9
519.742	43093.02
519.944	43334.68
520.146	44088.33
520.348	44600.32
520.55	44737.54
520.752	44667.91
520.954	45116.41
521.155	44751.87
521.357	46074.86
521.559	46050.28
521.761	46416.87
521.963	46275.56
522.164	46441.45
522.366	47082.46
522.568	47592.4
522.77	47512.53
522.971	48251.85
523.173	47956.94
523.375	48645.06
523.576	48333.77
523.778	48604.1
523.98	49253.31
524.181	49193.92
524.383	49810.35
524.584	50430.89
524.786	50336.68
524.988	49982.38
525.189	50705.32
525.391	51151.77
525.592	51368.86
525.794	51293.08
525.995	51399.58
526.197	51377.05
526.398	51876.76
526.6	52134.8
526.801	52401.04
527.003	52642.7
527.204	52650.89
527.406	53162.88
527.607	53285.76
527.808	53511.03
528.01	52667.27
528.211	53310.33
528.412	54240.11
528.614	53603.19
528.815	53812.09
529.016	54358.89
529.218	53564.28
529.419	54752.1
529.62	54797.16
529.822	54455.15
530.023	54670.18
530.224	54598.51
530.425	54551.4
530.626	54006.64
530.828	54365.04
531.029	55597.91
531.23	55165.79
531.431	54743.91
531.632	55341.92
531.833	55434.08
532.035	55100.26
532.236	55219.04
532.437	55976.79
532.638	55075.68
532.839	55665.5
533.04	55559
533.241	54944.61
533.442	55829.33
533.643	55464.8
533.844	55468.89
534.045	56042.32
534.246	55667.55
534.447	56025.94
534.648	55774.04
534.849	55780.18
535.05	55778.14
535.251	56001.36
535.451	55784.28
535.652	56226.64
535.853	55866.2
536.054	56238.93
536.255	56329.04
536.456	55446.36
536.657	56666.95
536.857	55720.79
537.058	56095.57
537.259	56550.22
537.46	56089.43
537.66	55999.32
537.861	55999.32
538.062	56107.86
538.263	56410.96
538.463	55878.49
538.664	55866.2
538.865	56423.25
539.065	56456.01
539.266	55726.94
539.466	56226.64
539.667	55745.37
539.868	56648.52
540.068	56128.34
540.269	55933.78
540.469	56271.7
540.67	56157.01
540.87	55677.79
541.071	56478.54
541.271	56027.99
541.472	55550.81
541.672	55595.87
541.873	55804.76
542.073	55450.46
542.274	56376.14
542.474	55743.32
542.675	55733.08
542.875	56296.27
543.075	55878.49
543.276	55407.45
543.476	56218.45
543.676	55753.56
543.877	56044.37
544.077	56034.13
544.277	56200.02
544.478	55694.17
544.678	56081.23
544.878	55825.24
545.078	55956.31
545.279	55638.87
545.479	55806.81
545.679	55968.6
545.879	55481.18
546.079	55815
546.28	55354.21
546.48	55665.5
546.68	56025.94
546.88	55671.64
547.08	55804.76
547.28	55477.08
547.48	54977.38
547.68	55585.63
547.88	55518.04
548.081	55839.57
548.281	55659.35
548.481	55739.22
548.681	55841.62
548.881	55702.36
549.081	55845.72
549.28	55149.41
549.48	55792.47
549.68	55419.74
549.88	56320.85
550.08	55118.69
550.28	55460.7
550.48	54907.75
550.68	55747.42
550.88	55292.77
551.08	55391.07
551.279	55550.81
551.479	55090.02
551.679	55075.68
551.879	55559
552.079	55429.98
552.278	55116.64
552.478	55245.66
552.678	54741.86
552.878	54903.65
553.077	55116.64
553.277	54655.85
553.477	55696.22
553.676	55386.97
553.876	55128.93
554.076	54600.55
554.275	54477.68
554.475	54661.99
554.674	54997.86
554.874	54748.01
555.074	54696.81
555.273	54731.62
555.473	55346.01
555.672	54467.44
555.872	54748.01
556.071	54829.93
556.271	54924.13
556.47	54334.32
556.67	54315.89
556.869	54336.37
557.068	54379.37
557.268	54133.62
557.467	54385.52
557.667	54453.1
557.866	54027.12
558.065	54121.33
558.265	53691.26
558.464	53789.56
558.663	54420.33
558.863	53191.55
559.062	54610.79
559.261	53369.72
559.461	54461.29
559.66	53150.59
559.859	53640.06
560.058	53357.44
560.258	53779.32
560.457	52435.85
560.656	53527.42
560.855	53138.3
561.054	53087.1
561.253	52822.92
561.453	52913.03
561.652	52933.51
561.851	53111.68
562.05	52804.48
562.249	52280.2
562.448	53060.48
562.647	52978.56
562.846	52874.12
563.045	52790.15
563.244	51839.89
563.443	52847.49
563.642	52108.18
563.841	52460.43
564.04	51886.99
564.239	52423.56
564.438	51706.77
564.637	52384.65
564.836	51762.07
565.035	51350.43
565.234	51733.4
565.432	51430.3
565.631	51360.67
565.83	51418.01
566.029	51383.19
566.228	51139.49
566.427	50754.47
566.625	50871.2
566.824	50508.71
567.023	51327.9
567.222	49988.53
567.42	50791.33
567.619	50510.76
567.818	50416.55
568.016	49984.43
568.215	50647.97
568.414	50002.86
568.612	50160.56
568.811	49587.13
569.01	49847.22
569.208	49042.37
569.407	49963.95
569.605	49124.29
569.804	49900.47
570.002	48769.99
570.201	49365.95
570.4	48636.87
570.598	48868.29
570.797	48311.24
570.995	48776.13
571.193	48376.78
571.392	48696.26
571.59	48004.05
571.789	48507.85
571.987	48088.01
572.186	48047.05
572.384	47395.8
572.582	47942.61
572.781	48055.25
572.979	47121.37
573.177	47825.87
573.376	47473.62
573.574	47154.14
573.772	47588.31
573.971	47098.84
574.169	46855.14
574.367	46461.93
574.565	47211.48
574.763	47064.03
574.962	46818.27
575.16	45904.88
575.358	46312.42
575.556	45616.11
575.754	46646.24
575.952	45802.48
576.151	46035.95
576.349	45323.26
576.547	45589.49
576.745	45986.8
576.943	45894.64
577.141	45558.77
577.339	45136.89
577.537	44930.05
577.735	45411.32
577.933	44753.92
578.131	45114.36
578.329	44317.7
578.527	44872.7
578.725	44180.49
578.923	44700.67
579.121	44389.38
579.319	44024.84
579.516	44547.07
579.714	44078.09
579.912	43848.72
580.11	43648.02
580.308	43926.54
580.506	43887.63
580.704	43170.84
580.901	43412.5
581.099	43910.16
581.297	43289.62
581.495	43217.94
581.692	43414.55
581.89	42849.31
582.088	42986.52
582.285	42583.07
582.483	42759.2
582.681	42638.37
582.878	42273.83
583.076	42032.17
583.274	42208.29
583.471	41706.54
583.669	42220.58
583.866	41684.01
584.064	42030.12
584.262	41251.89
584.459	41669.68
584.657	41489.46
584.854	41585.71
585.052	40682.56
585.249	41157.69
585.447	41264.18
585.644	40764.48
585.841	40621.12
586.039	41346.1
586.236	40563.78
586.434	40414.27
586.631	40164.42
586.828	40490.05
587.026	39881.8
587.223	40078.41
587.42	39646.29
587.618	40080.46
587.815	39203.92
588.012	39339.09
588.21	39482.45
588.407	39629.9
588.604	39273.56
588.801	39079
588.999	38988.89
589.196	39054.42
589.393	38573.15
589.59	38798.43
589.787	38870.11
589.984	38311.01
590.182	38579.29
590.379	38270.05
590.576	38138.98
590.773	38259.81
590.97	37409.9
591.167	37971.05
591.364	37717.1
591.561	37618.8
591.758	37364.85
591.955	37252.21
592.152	37682.28
592.349	37201.01
592.546	37268.59
592.743	37276.79
592.94	36394.11
593.137	36811.9
593.334	37022.84
593.531	36590.72
593.727	36938.87
593.924	36566.14
594.121	36177.03
594.318	36539.52
594.515	35798.15
594.712	36424.83
594.908	35859.59
595.105	35880.07
595.302	35654.79
595.499	35781.77
595.696	35464.33
595.892	35077.27
596.089	35374.22
596.286	35505.29
596.482	35005.59
596.679	35237.01
596.876	35030.16
597.072	35001.49
597.269	34843.8
597.466	34569.37
597.662	34595.99
597.859	34210.98
598.055	34524.32
598.252	33713.32
598.448	34186.4
598.645	34223.26
598.841	33518.76
599.038	33785
599.234	33889.45
599.431	33395.89
599.627	33344.69
599.824	33719.46
600.02	33293.49
600.217	33551.53
600.413	33023.15
600.609	32769.21
600.806	32740.54
601.002	32982.2
601.198	32441.53
601.395	32668.86
601.591	32482.49
601.787	32490.68
601.984	32263.36
602.18	32539.83
602.376	32414.91
602.572	32427.2
602.769	31595.72
602.965	31474.89
603.161	31921.35
603.357	31556.81
603.553	31657.16
603.75	31626.44
603.946	31411.4
604.142	31407.31
604.338	30930.13
604.534	31591.62
604.73	30745.81
604.926	31104.21
605.122	31124.69
605.318	30567.64
605.514	30465.24
605.71	30260.44
605.906	30559.45
606.102	30538.97
606.298	30321.88
606.494	30180.57
606.69	29918.43
606.886	30524.63
607.082	29861.09
607.278	30043.36
607.474	29779.17
607.67	30092.51
607.866	29453.55
608.062	29707.49
608.257	29490.41
608.453	29822.18
608.649	29291.76
608.845	29392.11
609.041	29459.69
609.236	29445.35
609.432	29283.56
609.628	28763.38
609.824	28919.03
610.019	28839.15
610.215	28867.83
610.411	29263.08
610.606	28611.83
610.802	28814.58
610.998	28419.32
611.193	28671.22
611.389	28632.31
611.584	28366.07
611.78	28269.82
611.976	28243.2
612.171	28351.74
612.367	28413.18
612.562	28280.06
612.758	27778.31
612.953	27651.33
613.149	28359.93
613.344	27968.77
613.539	28308.73
613.735	27831.55
613.93	27901.18
614.126	27634.95
614.321	28083.45
614.517	27761.92
614.712	27182.35
614.907	27125
615.103	27415.82
615.298	27372.81
615.493	27628.81
615.688	27229.45
615.884	27546.89
616.079	27153.68
616.274	27237.64
616.47	27430.15
616.665	27528.45
616.86	26725.65
617.055	26832.15
617.25	26920.21
617.445	26912.02
617.641	26412.31
617.836	26744.08
618.031	26348.82
618.226	26729.75
618.421	26201.37
618.616	26686.74
618.811	26012.96
619.006	26617.11
619.201	25832.74
619.396	26322.2
619.591	25937.18
619.786	26039.58
619.981	25552.16
620.176	25785.63
620.371	25449.77
620.566	25566.5
620.761	25021.74
620.956	25404.71
621.151	24323.38
621.346	25435.43
621.541	24640.82
621.735	24814.9
621.93	24388.92
622.125	24554.8
622.32	23946.56
622.515	24339.77
622.709	23881.02
622.904	23876.93
623.099	23770.43
623.294	24282.42
623.488	23385.41
623.683	23436.61
623.878	23227.72
624.072	23450.95
624.267	23244.1
624.462	23276.87
624.656	22697.3
624.851	22955.34
625.046	22486.36
625.24	22760.78
625.435	22179.16
625.629	22613.33
625.824	22154.58
626.018	22379.86
626.213	21566.82
626.407	21947.74
626.602	21370.21
626.796	21638.5
626.991	21310.82
627.185	21366.12
627.38	21296.49
627.574	21409.12
627.768	21063.02
627.963	20919.66
628.157	20915.56
628.352	20864.36
628.546	20493.68
628.74	20743.53
628.935	20233.59
629.129	20129.14
629.323	20196.73
629.517	20096.38
629.712	20108.66
629.906	19901.82
630.1	19727.74
630.294	19568
630.489	19385.73
630.683	19594.62
630.877	19113.35
631.071	19156.36
631.265	18955.66
631.459	19154.31
631.653	19000.71
631.848	19031.43
632.042	18681.23
632.236	19109.26
632.43	18597.26
632.624	18470.29
632.818	18281.88
633.012	18064.79
633.206	18165.14
633.4	18177.43
633.594	17903
633.788	17784.22
633.982	17749.4
634.176	17681.82
634.369	17604
634.563	17411.49
634.757	17348
634.951	17608.09
635.145	17511.84
635.339	17393.06
635.533	17102.25
635.726	17153.44
635.92	16827.82
636.114	16819.63
636.308	16704.94
636.501	16926.12
636.695	16663.98
636.889	16407.98
637.083	16293.3
637.276	16305.59
637.47	16524.72
637.664	16221.62
637.857	16104.88
638.051	16053.69
638.244	15779.26
638.438	15771.07
638.632	15424.96
638.825	15447.49
639.019	15756.73
639.212	15287.75
639.406	15564.22
639.599	15324.61
639.793	15410.62
639.986	14755.27
640.18	14958.02
640.373	14955.97
640.567	14769.61
640.76	14872.01
640.954	14747.08
641.147	14499.28
641.34	14425.55
641.534	14519.76
641.727	14634.44
641.92	14394.83
642.114	14185.94
642.307	14210.51
642.5	14208.47
642.694	14128.6
642.887	13866.46
643.08	13858.26
643.273	13985.24
643.467	13901.27
643.66	13805.02
643.853	13411.81
644.046	13440.48
644.239	13381.09
644.432	13297.12
644.626	13436.38
644.819	13221.34
645.012	13073.89
645.205	13145.57
645.398	12924.39
645.591	12852.71
645.784	12975.59
645.977	12834.28
646.17	12783.08
646.363	12561.9
646.556	12365.29
646.749	12557.8
646.942	12527.08
647.135	12283.38
647.328	12353.01
647.521	12260.85
647.714	12285.42
647.907	12217.84
648.099	12101.11
648.292	11914.74
648.485	11918.84
648.678	11900.41
648.871	11845.11
649.064	11656.7
649.256	11939.32
649.449	11744.76
649.642	11550.2
649.835	11292.16
650.027	11433.47
650.22	11490.81
650.413	11378.17
650.605	11281.92
650.798	11200
650.991	11179.52
651.183	11118.08
651.376	11056.64
651.568	11034.11
651.761	10911.24
651.954	10808.84
652.146	10888.71
652.339	10595.85
652.531	10663.43
652.724	10538.51
652.916	10333.71
653.109	10583.56
653.301	10495.5
653.494	10464.78
653.686	10427.92
653.879	10460.68
654.071	10069.52
654.263	10163.73
654.456	10128.91
654.648	10198.54
654.84	10028.56
655.033	10030.61
655.225	9819.67
655.417	9838.1
655.61	9850.39
655.802	9772.57
655.994	9645.59
656.186	9731.61
656.379	9623.06
656.571	9655.83
656.763	9600.54
656.955	9504.28
657.148	9612.82
657.34	9432.6
657.532	9213.47
657.724	9279.01
657.916	9127.46
658.108	8928.8
658.3	9113.12
658.492	9152.03
658.684	8961.57
658.876	8920.61
659.068	8947.23
659.26	8844.84
659.452	8807.97
659.644	8818.21
659.836	8633.89
660.028	8910.37
660.22	8504.87
660.412	8807.97
660.604	8590.89
660.796	8543.78
660.988	8508.97
661.18	8433.19
661.372	8345.13
661.563	8457.77
661.755	8390.19
661.947	8447.53
662.139	8201.77
662.331	8185.39
662.522	8150.57
662.714	8234.54
662.906	8054.32
663.097	8048.18
663.289	7976.5
663.481	7872.05
663.673	7874.1
663.864	7880.24
664.056	7765.56
664.247	7673.4
664.439	7614.01
664.631	7788.08
664.822	7849.52
665.014	7788.08
665.205	7691.83
665.397	7603.77
665.588	7593.53
665.78	7429.69
665.971	7466.55
666.163	7509.56
666.354	7423.55
666.546	7208.51
666.737	7198.27
666.929	7241.28
667.12	7188.03
667.311	7093.82
667.503	7218.75
667.694	7249.47
667.885	7018.05
668.077	7212.6
668.268	6913.6
668.459	7018.05
668.651	6917.7
668.842	6921.79
669.033	7089.73
669.224	6970.94
669.416	6968.9
669.607	6778.44
669.798	6786.63
669.989	6764.1
670.18	6686.28
670.371	6733.38
670.563	6559.3
670.754	6585.93
670.945	6547.01
671.136	6630.98
671.327	6567.49
671.518	6645.32
671.709	6530.63
671.9	6700.61
672.091	6319.69
672.282	6331.98
672.473	6340.17
672.664	6403.66
672.855	6329.93
673.046	6358.6
673.237	6440.52
673.428	6350.41
673.619	6358.6
673.809	6162
674	6374.99
674.191	6358.6
674.382	6059.6
674.573	6188.62
674.764	6325.83
674.954	6190.67
675.145	6143.56
675.336	6239.82
675.527	6190.67
675.717	6145.61
675.908	5959.25
676.099	6090.32
676.289	5869.14
676.48	5996.11
676.671	5951.06
676.861	6012.49
677.052	6006.35
677.243	5774.93
677.433	5828.18
677.624	5797.46
677.814	5764.69
678.005	6043.21
678.195	5776.98
678.386	6037.07
678.576	5813.84
678.767	5709.4
678.957	5688.92
679.148	5688.92
679.338	5690.96
679.529	5815.89
679.719	5717.59
679.909	5830.23
680.1	5723.73
680.29	5527.13
680.481	5725.78
680.671	5805.65
680.861	5563.99
681.052	5627.48
681.242	5496.41
681.432	5533.27
681.622	5471.83
681.813	5508.69
682.003	5590.61
682.193	5432.92
682.383	5520.98
682.573	5615.19
682.764	5557.85
682.954	5701.2
683.144	5586.52
683.334	5406.3
683.524	5525.08
683.714	5371.48
683.904	5277.27
684.094	5424.73
684.284	5234.27
684.474	5353.05
684.664	5402.2
684.854	5447.26
685.044	5260.89
685.234	5264.99
685.424	5248.6
685.614	5283.42
685.804	5224.03
685.994	5197.4
686.184	5318.23
686.374	5181.02
686.564	5140.06
686.753	5142.11
686.943	4972.13
687.133	5213.79
687.323	4955.74
687.513	5023.33
687.702	5121.63
687.892	4853.34
688.082	5025.37
688.272	4875.87
688.461	4939.36
688.651	4984.41
688.841	4744.8
689.03	4982.37
689.22	4988.51
689.41	4789.86
689.599	4744.8
689.789	5008.99
689.979	4736.61
690.168	4781.67
690.358	4802.15
690.547	4699.75
690.737	4718.18
690.926	4693.6
691.116	4572.77
691.305	4650.6
691.495	4664.93
691.684	4707.94
691.874	4576.87
692.063	4548.2
692.252	4750.95
692.442	4578.92
692.631	4355.69
692.82	4578.92
693.01	4554.34
693.199	4515.43
693.388	4333.16
693.578	4415.08
693.767	4443.75
693.956	4349.54
694.146	4478.57
694.335	4410.98
694.524	4288.11
694.713	4462.18
694.902	4316.78
695.092	4339.3
695.281	4361.83
695.47	4320.87
695.659	4167.28
695.848	4189.8
696.037	4267.63
696.226	4111.98
696.415	4181.61
696.604	4132.46
696.793	4116.08
696.982	4294.25
697.171	4109.93
697.36	4097.64
697.549	4111.98
697.738	4013.68
697.927	4173.42
698.116	4032.11
698.305	4191.85
698.494	4183.66
698.683	4177.51
698.872	4095.6
699.061	4187.75
699.25	3935.85
699.438	4042.35
699.627	4185.71
699.816	4007.53
700.005	3927.66
700.193	4142.7
700.382	4122.22
700.571	4060.78
700.76	3958.38
700.948	4058.73
701.137	3962.48
701.326	4107.88
701.514	3935.85
701.703	4056.68
701.892	3980.91
702.08	4017.77
702.269	3956.33
702.457	3812.98
702.646	3995.25
702.834	3935.85
703.023	3870.32
703.212	4001.39
703.4	3886.7
703.589	3886.7
703.777	3903.09
703.965	3860.08
704.154	3923.57
704.342	3886.7
704.531	3868.27
704.719	3714.67
704.907	3929.71
705.096	3737.2
705.284	3866.22
705.472	3851.89
705.661	3855.98
705.849	3843.7
706.037	3829.36
706.226	3855.98
706.414	3976.81
706.602	3808.88
706.79	3726.96
706.979	3890.8
707.167	3837.55
707.355	3806.83
707.543	3692.15
707.731	3841.65
707.919	3817.07
708.107	3747.44
708.296	3825.26
708.484	3724.91
708.672	3669.62
708.86	3870.32
709.048	3741.3
709.236	3821.17
709.424	3718.77
709.612	3706.48
709.8	3634.8
709.988	3733.11
710.176	3837.55
710.364	3794.54
710.551	3696.24
710.739	3640.95
710.927	3786.35
711.115	3593.84
711.303	3559.03
711.491	3653.23
711.679	3804.78
711.866	3745.39
712.054	3647.09
712.242	3774.07
712.43	3847.79
712.617	3774.07
712.805	3763.83
712.993	3673.71
713.181	3653.23
713.368	3741.3
713.556	3755.63
713.744	3716.72
713.931	3790.45
714.119	3530.36
714.306	3657.33
714.494	3602.04
714.682	3749.49
714.869	3567.22
715.057	3694.19
715.244	3614.32
715.432	3690.1
715.619	3765.87
715.807	3661.43
715.994	3692.15
716.182	3610.23
716.369	3643
716.556	3729.01
716.744	3694.19
716.931	3708.53
717.119	3722.87
717.306	3681.91
717.493	3628.66
717.681	3737.2
717.868	3671.67
718.055	3628.66
718.242	3747.44
718.43	3634.8
718.617	3700.34
718.804	3643
718.991	3585.65
719.179	3784.3
719.366	3626.61
719.553	3720.82
719.74	3640.95
719.927	3677.81
720.114	3583.6
720.301	3696.24
720.488	3520.12
720.676	3473.01
720.863	3524.21
721.05	3550.84
721.237	3628.66
721.424	3585.65
721.611	3509.88
721.798	3554.93
721.985	3387
722.172	3446.39
722.358	3559.03
722.545	3556.98
722.732	3497.59
722.919	3638.9
723.106	3604.08
723.293	3534.45
723.48	3618.42
723.667	3616.37
723.853	3552.88
724.04	3536.5
724.227	3501.69
724.414	3595.89
724.6	3358.33
724.787	3462.77
724.974	3540.6
725.161	3534.45
725.347	3575.41
725.534	3493.49
725.72	3563.12
725.907	3391.09
726.094	3503.73
726.28	3552.88
726.467	3501.69
726.653	3341.94
726.84	3589.75
727.027	3610.23
727.213	3497.59
727.4	3434.1
727.586	3446.39
727.773	3485.3
727.959	3489.4
728.145	3534.45
728.332	3321.46
728.518	3401.33
728.705	3415.67
728.891	3462.77
729.077	3411.57
729.264	3456.63
729.45	3528.31
729.636	3366.52
729.823	3462.77
730.009	3501.69
730.195	3452.53
730.382	3401.33
730.568	3329.66
730.754	3419.77
730.94	3382.9
731.126	3559.03
731.313	3432.05
731.499	3372.66
731.685	3427.96
731.871	3350.14
732.057	3368.57
732.243	3425.91
732.429	3339.9
732.615	3409.53
732.801	3391.09
732.987	3520.12
733.173	3362.42
733.359	3268.22
733.545	3448.44
733.731	3206.78
733.917	3407.48
734.103	3393.14
734.289	3313.27
734.475	3251.83
734.661	3317.37
734.847	3307.13
735.033	3327.61
735.219	3364.47
735.404	3282.55
735.59	3219.07
735.776	3180.15
735.962	3380.86
736.148	3264.12
736.333	3223.16
736.519	3186.3
736.705	3249.79
736.89	3161.72
737.076	3249.79
737.262	3110.52
737.447	3169.91
737.633	3114.62
737.819	3157.63
738.004	3307.13
738.19	3079.8
738.375	3098.24
738.561	3212.92
738.747	3153.53
738.932	3133.05
739.118	3233.4
739.303	3235.45
739.489	3194.49
739.674	3055.23
739.859	3128.95
740.045	2961.02
740.23	3042.94
740.416	3059.32
740.601	3034.75
740.786	3120.76
740.972	3092.09
741.157	2938.49
741.342	2860.67
741.528	2958.97
741.713	2987.65
741.898	2952.83
742.084	3092.09
742.269	3024.51
742.454	2885.25
742.639	2850.43
742.824	2850.43
743.01	2954.88
743.195	3038.84
743.38	2868.86
743.565	2815.62
743.75	2899.58
743.935	2795.14
744.12	2764.42
744.305	2750.08
744.49	2676.35
744.675	2825.86
744.86	2827.9
745.045	2741.89
745.23	2729.6
745.415	2791.04
745.6	2713.22
745.785	2776.7
745.97	2664.07
746.155	2674.31
746.34	2766.46
746.525	2600.58
746.71	2573.96
746.895	2586.24
747.079	2578.05
747.264	2584.2
747.449	2606.72
747.634	2557.57
747.819	2545.28
748.003	2559.62
748.188	2510.47
748.373	2524.8
748.557	2506.37
748.742	2457.22
748.927	2512.52
749.111	2354.82
749.296	2383.49
749.481	2354.82
749.665	2242.18
749.85	2348.68
750.034	2338.44
750.219	2266.76
750.404	2291.34
750.588	2274.95
750.773	2289.29
750.957	2272.9
751.141	2328.2
751.326	2363.01
751.51	2121.35
751.695	2100.87
751.879	2084.49
752.064	2154.12
752.248	2217.61
752.432	2115.21
752.617	2137.74
752.801	2156.17
752.985	2002.57
753.17	2240.14
753.354	2055.82
753.538	2053.77
753.722	1953.42
753.907	1926.8
754.091	1912.46
754.275	2010.76
754.459	1875.6
754.643	1949.32
754.828	1842.83
755.012	1861.26
755.196	1887.89
755.38	1969.8
755.564	1941.13
755.748	1822.35
755.932	1969.8
756.116	1810.06
756.3	1736.34
756.484	1859.21
756.668	1853.07
756.852	1918.61
757.036	1795.73
757.22	1801.87
757.404	1762.96
757.588	1732.24
757.772	1654.42
757.956	1703.57
758.14	1808.02
758.323	1640.08
758.507	1752.72
758.691	1765.01
758.875	1654.42
759.059	1654.42
759.242	1558.16
759.426	1646.23
759.61	1595.03
759.794	1572.5
759.977	1564.31
760.161	1685.14
760.345	1584.79
760.528	1466
760.712	1515.16
760.895	1623.7
761.079	1648.27
761.263	1494.68
761.446	1455.76
761.63	1443.48
761.813	1552.02
761.997	1566.35
762.18	1459.86
762.364	1416.85
762.547	1492.63
762.731	1390.23
762.914	1519.25
763.098	1431.19
763.281	1429.14
763.464	1455.76
763.648	1445.52
763.831	1449.62
764.015	1412.76
764.198	1449.62
764.381	1296.02
764.564	1339.03
764.748	1359.51
764.931	1347.22
765.114	1304.21
765.297	1521.3
765.481	1289.88
765.664	1365.65
765.847	1289.88
766.03	1324.69
766.213	1326.74
766.397	1296.02
766.58	1298.07
766.763	1279.64
766.946	1316.5
767.129	1300.12
767.312	1230.49
767.495	1257.11
767.678	1308.31
767.861	1263.26
768.044	1267.35
768.227	1277.59
768.41	1246.87
768.593	1162.9
768.776	1154.71
768.959	1216.15
769.142	1316.5
769.324	1293.97
769.507	1175.19
769.69	1230.49
769.873	1146.52
770.056	1269.4
770.239	1169.05
770.421	1199.77
770.604	1238.68
770.787	1156.76
770.97	1203.86
771.152	1150.62
771.335	1212.06
771.518	1093.27
771.7	1230.49
771.883	1109.66
772.066	1089.18
772.248	1097.37
772.431	1085.08
772.613	1164.95
772.796	1111.71
772.978	1212.06
773.161	1068.7
773.343	1160.86
773.526	1134.23
773.708	1140.38
773.891	978.59
774.073	984.73
774.256	1128.09
774.438	1009.31
774.621	980.64
774.803	1015.45
774.985	994.97
775.168	962.2
775.35	974.49
775.532	1048.22
775.715	1119.9
775.897	990.88
776.079	1052.31
776.261	1031.83
776.444	949.92
776.626	990.88
776.808	1003.16
776.99	933.53
777.173	837.28
777.355	851.61
777.537	921.24
777.719	816.8
777.901	896.67
778.083	884.38
778.265	960.16
778.447	980.64
778.629	872.09
778.811	861.85
778.993	894.62
779.175	896.67
779.357	827.04
779.539	831.13
779.721	837.28
779.903	835.23
780.085	812.7
780.267	788.13
780.449	757.41
780.631	863.9
780.812	781.98
780.994	802.46
781.176	802.46
781.358	763.55
781.54	786.08
781.721	745.12
781.903	827.04
782.085	728.74
782.267	777.89
782.448	671.39
782.63	655.01
782.812	659.1
782.993	712.35
783.175	673.44
783.357	614.05
783.538	683.68
783.72	691.87
783.901	695.97
784.083	749.22
784.264	679.58
784.446	612
784.627	657.06
784.809	659.1
784.99	622.24
785.172	630.43
785.353	632.48
785.535	675.49
785.716	642.72
785.897	458.4
786.079	560.8
786.26	595.62
786.441	536.23
786.623	585.38
786.804	581.28
786.985	573.09
787.167	546.47
787.348	523.94
787.529	566.95
787.71	669.34
787.891	585.38
788.073	562.85
788.254	546.47
788.435	609.95
788.616	499.36
788.797	536.23
788.978	513.7
789.159	446.12
789.34	513.7
789.522	532.13
789.703	521.89
789.884	491.17
790.065	548.51
790.246	595.62
790.427	448.16
790.607	530.08
790.788	544.42
790.969	495.27
791.15	517.79
791.331	589.47
791.512	417.44
791.693	517.79
791.874	454.31
792.054	560.8
792.235	454.31
792.416	462.5
792.597	435.88
792.778	442.02
792.958	462.5
793.139	466.6
793.32	454.31
793.5	347.81
793.681	480.93
793.862	396.96
794.042	423.59
794.223	462.5
794.404	425.64
794.584	370.34
794.765	362.15
794.945	372.39
795.126	433.83
795.306	425.64
795.487	351.91
795.667	405.16
795.848	347.81
796.028	413.35
796.209	421.54
796.389	253.61
796.57	421.54
796.75	376.48
796.93	327.33
797.111	349.86
797.291	349.86
797.471	409.25
797.652	294.57
797.832	329.38
798.012	345.77
798.192	341.67
798.373	347.81
798.553	417.44
798.733	278.18
798.913	294.57
799.093	294.57
799.274	358.05
799.454	419.49
799.634	409.25
799.814	415.4
799.994	374.44
800.174	380.58
800.354	347.81
800.534	372.39
800.714	280.23
800.894	249.51
801.074	267.94
801.254	362.15
801.434	310.95
801.614	351.91
801.794	321.19
801.974	853.66
802.154	356.01
802.334	319.14
802.514	298.66
802.693	241.32
802.873	290.47
803.053	339.62
803.233	351.91
803.413	306.85
803.592	222.89
803.772	313
803.952	298.66
804.131	308.9
804.311	308.9
804.491	308.9
804.67	313
804.85	310.95
805.03	315.05
805.209	353.96
805.389	269.99
805.568	265.89
805.748	396.96
805.928	255.65
806.107	267.94
806.287	319.14
806.466	235.18
806.646	284.33
806.825	317.09
807.004	251.56
807.184	276.13
807.363	315.05
807.543	274.09
807.722	175.78
807.901	272.04
808.081	257.7
808.26	192.17
808.439	306.85
808.619	290.47
808.798	310.95
808.977	249.51
809.156	272.04
809.336	206.5
809.515	249.51
809.694	147.11
809.873	208.55
810.052	317.09
810.231	255.65
810.411	261.8
810.59	257.7
810.769	186.02
810.948	167.59
811.127	106.15
811.306	243.37
811.485	267.94
811.664	204.46
811.843	255.65
812.022	276.13
812.201	249.51
812.38	190.12
812.559	233.13
812.737	247.46
812.916	171.69
813.095	196.26
813.274	165.54
813.453	159.4
813.632	237.22
813.811	288.42
813.989	226.98
814.168	110.25
814.347	159.4
814.526	284.33
814.704	204.46
814.883	284.33
815.062	186.02
815.24	198.31
815.419	186.02
815.598	157.35
815.776	149.16
815.955	214.7
816.133	204.46
816.312	261.8
816.49	163.5
816.669	175.78
816.847	161.45
817.026	179.88
817.204	116.39
817.383	151.21
817.561	128.68
817.74	106.15
817.918	181.93
818.097	208.55
818.275	114.34
818.453	267.94
818.632	177.83
818.81	85.67
818.988	151.21
819.167	130.73
819.345	192.17
819.523	173.74
819.701	171.69
819.879	208.55
820.058	169.64
820.236	237.22
820.414	159.4
820.592	155.3
820.77	210.6
820.948	192.17
821.127	151.21
821.305	233.13
821.483	200.36
821.661	202.41
821.839	153.26
822.017	147.11
822.195	138.92
822.373	171.69
822.551	171.69
822.729	198.31
822.907	153.26
823.085	231.08
823.262	112.3
823.44	93.87
823.618	159.4
823.796	173.74
823.974	140.97
824.152	128.68
824.329	95.91
824.507	132.78
824.685	126.63
824.863	218.79
825.04	124.58
825.218	122.54
825.396	97.96
825.574	200.36
825.751	130.73
825.929	114.34
826.107	77.48
826.284	85.67
826.462	124.58
826.639	138.92
826.817	106.15
826.994	143.02
827.172	134.82
827.349	102.06
827.527	122.54
827.704	175.78
827.882	147.11
828.059	192.17
828.237	106.15
828.414	134.82
828.591	40.62
828.769	157.35
828.946	48.81
829.124	116.39
829.301	155.3
829.478	145.06
829.655	130.73
829.833	38.57
830.01	87.72
830.187	114.34
830.364	104.11
830.542	112.3
830.719	136.87
830.896	179.88
831.073	136.87
831.25	151.21
831.427	87.72
831.604	147.11
831.782	222.89
831.959	108.2
832.136	167.59
832.313	73.39
832.49	124.58
832.667	118.44
832.844	126.63
833.021	134.82
833.198	175.78
833.374	134.82
833.551	75.43
833.728	79.53
833.905	116.39
834.082	20.14
834.259	87.72
834.436	167.59
834.612	71.34
834.789	57
834.966	36.52
835.143	104.11
835.319	38.57
835.496	151.21
835.673	48.81
835.85	87.72
836.026	128.68
836.203	136.87
836.38	130.73
836.556	65.19
836.733	20.14
836.909	87.72
837.086	46.76
837.262	81.58
837.439	38.57
837.616	32.43
837.792	36.52
837.968	52.91
838.145	40.62
838.321	7.85
838.498	63.15
838.674	110.25
838.851	110.25
839.027	118.44
839.203	13.99
839.38	130.73
839.556	91.82
839.732	67.24
839.909	22.19
840.085	89.77
840.261	36.52
840.437	26.28
840.614	93.87
840.79	73.39
840.966	79.53
841.142	42.67
841.318	157.35
841.494	67.24
841.671	36.52
841.847	61.1
842.023	44.71
842.199	128.68
842.375	38.57
842.551	61.1
842.727	9.9
842.903	102.06
843.079	20.14
843.255	73.39
843.431	38.57
843.607	112.3
843.783	75.43
843.959	48.81
844.134	48.81
844.31	145.06
844.486	11.95
844.662	26.28
844.838	112.3
845.013	91.82
845.189	93.87
845.365	89.77
845.541	59.05
845.716	52.91
845.892	81.58
846.068	77.48
846.244	24.23
846.419	77.48
846.595	59.05
846.77	69.29
846.946	97.96
847.122	20.14
847.297	112.3
847.473	83.63
847.648	81.58
847.824	112.3
847.999	40.62
848.175	-12.63
848.35	63.15
848.526	30.38
848.701	77.48
848.876	59.05
849.052	48.81
849.227	61.1
849.403	38.57
849.578	73.39
849.753	22.19
849.929	48.81
850.104	34.47
850.279	44.71
850.454	59.05
850.63	85.67
850.805	122.54
850.98	46.76
851.155	93.87
851.33	67.24
851.505	7.85
851.681	106.15
851.856	7.85
852.031	46.76
852.206	20.14
852.381	48.81
852.556	20.14
852.731	108.2
852.906	42.67
853.081	16.04
853.256	93.87
853.431	100.01
853.606	81.58
853.781	16.04
853.956	-59.73
854.131	85.67
854.305	26.28
854.48	22.19
854.655	61.1
854.83	-16.73
855.005	-18.77
855.18	26.28
855.354	34.47
855.529	81.58
855.704	9.9
855.879	-2.39
856.053	16.04
856.228	46.76
856.403	13.99
856.577	52.91
856.752	-26.96
856.926	52.91
857.101	36.52
857.276	42.67
857.45	67.24
857.625	89.77
857.799	32.43
857.974	108.2
858.148	-14.68
858.323	16.04
858.497	42.67
858.672	11.95
858.846	102.06
859.02	-2.39
859.195	48.81
859.369	81.58
859.543	5.8
859.718	122.54
859.892	87.72
860.066	7.85
860.241	13.99
860.415	11.95
860.589	-2.39
860.763	61.1
860.938	-24.92
861.112	116.39
861.286	-8.53
861.46	67.24
861.634	28.33
861.808	16.04
861.982	7.85
862.157	34.47
862.331	-12.63
862.505	40.62
862.679	7.85
862.853	20.14
863.027	11.95
863.201	9.9
863.375	20.14
863.549	9.9
863.722	-24.92
863.896	67.24
864.07	-69.97
864.244	3.75
864.418	22.19
864.592	36.52
864.766	28.33
864.939	97.96
865.113	3.75
865.287	-2.39
865.461	-10.58
865.634	44.71
865.808	40.62
865.982	48.81
866.156	13.99
866.329	3.75
866.503	-6.49
866.676	128.68
866.85	-12.63
867.024	-6.49
867.197	5.8
867.371	22.19
867.544	-6.49
867.718	30.38
867.891	61.1
868.065	26.28
868.238	28.33
868.412	32.43
868.585	65.19
868.759	100.01
868.932	-4.44
869.105	22.19
869.279	-2.39
869.452	77.48
869.625	75.43
869.799	-4.44
869.972	-12.63
870.145	50.86
870.319	40.62
870.492	36.52
870.665	18.09
870.838	-12.63
871.011	-16.73
871.185	11.95
871.358	13.99
871.531	-16.73
871.704	-4.44
871.877	-24.92
872.05	-29.01
872.223	-37.2
872.396	57
872.569	38.57
872.742	-24.92
872.915	-12.63
873.088	-0.34
873.261	24.23
873.434	-18.77
873.607	46.76
873.78	36.52
873.953	-39.25
874.126	89.77
874.299	57
874.471	9.9
874.644	79.53
874.817	-4.44
874.99	24.23
875.163	24.23
875.335	18.09
875.508	5.8
875.681	73.39
875.853	30.38
876.026	48.81
876.199	71.34
876.371	20.14
876.544	50.86
876.717	-47.44
876.889	18.09
877.062	5.8
877.234	26.28
877.407	-37.2
877.579	-18.77
877.752	11.95
877.924	128.68
878.097	-69.97
878.269	71.34
878.442	36.52
878.614	102.06
878.786	-8.53
878.959	40.62
879.131	18.09
879.303	20.14
879.476	32.43
879.648	83.63
879.82	-0.34
879.993	3.75
880.165	34.47
880.337	22.19
880.509	54.95
880.681	-61.78
880.854	-45.4
881.026	59.05
881.198	36.52
881.37	32.43
881.542	24.23
881.714	77.48
881.886	13.99
882.058	-29.01
882.23	63.15
882.402	1.71
882.574	-26.96
882.746	85.67
882.918	50.86
883.09	13.99
883.262	85.67
883.434	-14.68
883.606	-57.68
883.778	7.85
883.95	-2.39
884.122	63.15
884.293	-6.49
884.465	65.19
884.637	57
884.809	-53.59
884.98	130.73
885.152	63.15
885.324	63.15
885.496	-16.73
885.667	-2.39
885.839	13.99
886.011	40.62
886.182	89.77
886.354	65.19
886.525	44.71
886.697	32.43
886.869	30.38
887.04	97.96
887.212	54.95
887.383	69.29
887.555	-24.92
887.726	-4.44
887.897	-69.97
888.069	24.23
888.24	-24.92
888.412	-29.01
888.583	3.75
888.754	69.29
888.926	-35.16
889.097	52.91
889.268	-0.34
889.44	-37.2
889.611	-61.78
889.782	73.39
889.953	-59.73
890.125	-45.4
890.296	-18.77
890.467	-14.68
890.638	-4.44
890.809	50.86
890.98	7.85
891.151	83.63
891.323	44.71
891.494	46.76
891.665	-0.34
891.836	-20.82
892.007	40.62
892.178	-35.16
892.349	112.3
892.52	-78.16
892.691	22.19
892.862	28.33
893.032	-45.4
893.203	-0.34
893.374	-14.68
893.545	42.67
893.716	-63.83
893.887	26.28
894.057	-43.35
894.228	9.9
894.399	13.99
894.57	24.23
894.74	-22.87
894.911	73.39
895.082	-47.44
895.253	52.91
895.423	24.23
895.594	-16.73
895.764	-10.58
895.935	-65.88
896.106	22.19
896.276	18.09
896.447	-12.63
896.617	32.43
896.788	36.52
896.958	-6.49
897.129	-18.77
897.299	11.95
897.47	87.72
897.64	11.95
897.81	85.67
897.981	38.57
898.151	7.85
898.322	46.76
898.492	-106.84
898.662	54.95
898.832	42.67
899.003	38.57
899.173	44.71
899.343	-72.02
899.513	16.04
