Data from USB4F104151__76__10-24-11-831.txt Node

Date: Wed Mar 12 10:24:11 EDT 2025
User: louis
Spectrometer: USB4F10415
Trigger mode: 4
Integration Time (sec): 3.000000E-2
Scans to average: 1
Electric dark correction enabled: true
Nonlinearity correction enabled: false
Boxcar width: 0
XAxis mode: Wavelengths
Number of Pixels in Spectrum: 3648
>>>>>Begin Spectral Data<<<<<
178.204	-175.1
178.424	-175.1
178.644	-175.1
178.864	-99.33
179.084	-89.09
179.304	41.98
179.524	-54.27
179.744	-60.42
179.964	56.32
180.184	48.13
180.404	82.94
180.624	9.22
180.844	-5.12
181.064	-93.18
181.283	80.89
181.503	-105.47
181.723	-1.02
181.943	-33.79
182.163	60.42
182.383	-17.41
182.602	31.74
182.822	27.65
183.042	84.99
183.262	19.46
183.482	15.36
183.701	35.84
183.921	58.37
184.141	3.07
184.361	33.79
184.58	1.02
184.8	54.27
185.02	-3.07
185.239	25.6
185.459	23.55
185.679	11.26
185.898	39.94
186.118	74.75
186.338	25.6
186.557	50.18
186.777	-48.13
186.997	15.36
187.216	7.17
187.436	91.13
187.655	9.22
187.875	-3.07
188.095	-109.57
188.314	35.84
188.534	56.32
188.753	66.56
188.973	-48.13
189.192	21.5
189.412	25.6
189.631	66.56
189.851	23.55
190.07	9.22
190.29	-1.02
190.509	33.79
190.729	-56.32
190.948	13.31
191.168	87.04
191.387	87.04
191.607	5.12
191.826	15.36
192.045	-3.07
192.265	33.79
192.484	64.51
192.704	37.89
192.923	-3.07
193.142	115.71
193.362	15.36
193.581	-1.02
193.8	54.27
194.02	39.94
194.239	39.94
194.458	1.02
194.678	31.74
194.897	66.56
195.116	11.26
195.335	11.26
195.555	39.94
195.774	87.04
195.993	17.41
196.212	33.79
196.432	-27.65
196.651	33.79
196.87	-7.17
197.089	74.75
197.308	9.22
197.528	37.89
197.747	31.74
197.966	44.03
198.185	125.95
198.404	29.7
198.623	97.28
198.842	68.61
199.062	37.89
199.281	29.7
199.5	1.02
199.719	87.04
199.938	66.56
200.157	76.8
200.376	-1.02
200.595	60.42
200.814	41.98
201.033	-3.07
201.252	54.27
201.471	39.94
201.69	89.09
201.909	1.02
202.128	74.75
202.347	27.65
202.566	115.71
202.785	1.02
203.004	-7.17
203.223	107.52
203.442	72.7
203.661	66.56
203.879	39.94
204.098	-15.36
204.317	39.94
204.536	58.37
204.755	31.74
204.974	58.37
205.193	41.98
205.411	70.65
205.63	82.94
205.849	58.37
206.068	-37.89
206.287	56.32
206.505	25.6
206.724	9.22
206.943	41.98
207.162	-9.22
207.381	7.17
207.599	54.27
207.818	-1.02
208.037	33.79
208.255	25.6
208.474	-70.65
208.693	7.17
208.911	74.75
209.13	31.74
209.349	17.41
209.567	-21.5
209.786	68.61
210.005	-52.22
210.223	3.07
210.442	29.7
210.661	95.23
210.879	78.85
211.098	-7.17
211.316	15.36
211.535	103.42
211.753	-13.31
211.972	-48.13
212.191	-27.65
212.409	21.5
212.628	33.79
212.846	-39.94
213.065	19.46
213.283	70.65
213.502	50.18
213.72	58.37
213.938	56.32
214.157	13.31
214.375	41.98
214.594	-54.27
214.812	-41.98
215.031	21.5
215.249	-5.12
215.467	37.89
215.686	13.31
215.904	64.51
216.122	103.42
216.341	15.36
216.559	66.56
216.778	91.13
216.996	58.37
217.214	-13.31
217.432	-50.18
217.651	21.5
217.869	58.37
218.087	72.7
218.306	82.94
218.524	9.22
218.742	3.07
218.96	66.56
219.179	13.31
219.397	-33.79
219.615	72.7
219.833	27.65
220.051	13.31
220.27	82.94
220.488	29.7
220.706	-5.12
220.924	-7.17
221.142	60.42
221.36	25.6
221.578	72.7
221.796	78.85
222.015	35.84
222.233	-31.74
222.451	-7.17
222.669	17.41
222.887	54.27
223.105	33.79
223.323	7.17
223.541	-33.79
223.759	128
223.977	13.31
224.195	37.89
224.413	87.04
224.631	15.36
224.849	82.94
225.067	117.76
225.285	58.37
225.503	48.13
225.721	23.55
225.939	15.36
226.157	39.94
226.375	89.09
226.592	87.04
226.81	80.89
227.028	58.37
227.246	50.18
227.464	44.03
227.682	23.55
227.9	-3.07
228.117	89.09
228.335	25.6
228.553	76.8
228.771	23.55
228.989	68.61
229.206	68.61
229.424	-9.22
229.642	17.41
229.86	-1.02
230.077	27.65
230.295	15.36
230.513	-29.7
230.731	-3.07
230.948	33.79
231.166	3.07
231.384	29.7
231.601	44.03
231.819	1.02
232.037	-7.17
232.254	-17.41
232.472	25.6
232.689	-31.74
232.907	39.94
233.125	-39.94
233.342	23.55
233.56	5.12
233.777	-66.56
233.995	9.22
234.213	-7.17
234.43	17.41
234.648	1.02
234.865	58.37
235.083	56.32
235.3	-21.5
235.518	29.7
235.735	9.22
235.953	70.65
236.17	44.03
236.388	72.7
236.605	-23.55
236.822	64.51
237.04	1.02
237.257	13.31
237.475	-39.94
237.692	23.55
237.909	5.12
238.127	9.22
238.344	64.51
238.562	58.37
238.779	-25.6
238.996	23.55
239.214	78.85
239.431	21.5
239.648	35.84
239.865	-17.41
240.083	13.31
240.3	74.75
240.517	31.74
240.735	9.22
240.952	68.61
241.169	82.94
241.386	-11.26
241.603	97.28
241.821	-17.41
242.038	82.94
242.255	84.99
242.472	-33.79
242.689	111.61
242.907	58.37
243.124	95.23
243.341	9.22
243.558	-33.79
243.775	9.22
243.992	-33.79
244.209	95.23
244.426	136.19
244.643	-29.7
244.86	-7.17
245.078	1.02
245.295	82.94
245.512	54.27
245.729	-39.94
245.946	35.84
246.163	13.31
246.38	5.12
246.597	-17.41
246.814	50.18
247.031	54.27
247.248	93.18
247.464	-9.22
247.681	54.27
247.898	5.12
248.115	50.18
248.332	25.6
248.549	70.65
248.766	146.43
248.983	5.12
249.2	9.22
249.417	41.98
249.633	-23.55
249.85	7.17
250.067	1.02
250.284	-15.36
250.501	78.85
250.717	21.5
250.934	-19.46
251.151	66.56
251.368	17.41
251.585	13.31
251.801	-7.17
252.018	23.55
252.235	60.42
252.451	33.79
252.668	11.26
252.885	48.13
253.102	-35.84
253.318	-23.55
253.535	99.33
253.752	23.55
253.968	72.7
254.185	19.46
254.401	11.26
254.618	-33.79
254.835	-60.42
255.051	27.65
255.268	3.07
255.484	27.65
255.701	48.13
255.917	72.7
256.134	-29.7
256.351	46.08
256.567	-1.02
256.784	21.5
257	-13.31
257.217	82.94
257.433	23.55
257.65	72.7
257.866	91.13
258.082	-76.8
258.299	70.65
258.515	44.03
258.732	15.36
258.948	7.17
259.165	64.51
259.381	62.46
259.597	29.7
259.814	25.6
260.03	-23.55
260.246	-48.13
260.463	95.23
260.679	21.5
260.895	31.74
261.112	52.22
261.328	5.12
261.544	13.31
261.761	115.71
261.977	5.12
262.193	-97.28
262.409	80.89
262.626	62.46
262.842	-48.13
263.058	17.41
263.274	87.04
263.49	41.98
263.707	54.27
263.923	58.37
264.139	-64.51
264.355	68.61
264.571	93.18
264.787	5.12
265.004	58.37
265.22	-3.07
265.436	25.6
265.652	-13.31
265.868	80.89
266.084	9.22
266.3	-3.07
266.516	7.17
266.732	91.13
266.948	111.61
267.164	-23.55
267.38	-5.12
267.596	46.08
267.812	62.46
268.028	-1.02
268.244	93.18
268.46	70.65
268.676	66.56
268.892	58.37
269.108	-19.46
269.324	-15.36
269.54	-9.22
269.756	76.8
269.972	-23.55
270.188	37.89
270.403	-97.28
270.619	7.17
270.835	-3.07
271.051	23.55
271.267	21.5
271.483	60.42
271.698	13.31
271.914	-21.5
272.13	33.79
272.346	39.94
272.562	23.55
272.777	17.41
272.993	-5.12
273.209	58.37
273.425	74.75
273.64	-37.89
273.856	58.37
274.072	7.17
274.287	-39.94
274.503	-41.98
274.719	44.03
274.934	-9.22
275.15	29.7
275.366	-15.36
275.581	46.08
275.797	56.32
276.012	19.46
276.228	54.27
276.444	35.84
276.659	60.42
276.875	39.94
277.09	46.08
277.306	1.02
277.521	11.26
277.737	76.8
277.952	56.32
278.168	-1.02
278.383	119.81
278.599	82.94
278.814	66.56
279.03	-13.31
279.245	46.08
279.461	-11.26
279.676	60.42
279.892	-11.26
280.107	-39.94
280.322	13.31
280.538	-1.02
280.753	64.51
280.969	58.37
281.184	89.09
281.399	82.94
281.615	11.26
281.83	52.22
282.045	-31.74
282.26	7.17
282.476	-52.22
282.691	60.42
282.906	68.61
283.122	-74.75
283.337	-7.17
283.552	13.31
283.767	-19.46
283.983	84.99
284.198	46.08
284.413	70.65
284.628	-1.02
284.843	-7.17
285.058	-9.22
285.274	46.08
285.489	68.61
285.704	60.42
285.919	-84.99
286.134	-13.31
286.349	50.18
286.564	13.31
286.779	33.79
286.995	23.55
287.21	-1.02
287.425	70.65
287.64	27.65
287.855	82.94
288.07	62.46
288.285	74.75
288.5	93.18
288.715	66.56
288.93	103.42
289.145	19.46
289.36	134.14
289.575	15.36
289.79	21.5
290.004	50.18
290.219	11.26
290.434	44.03
290.649	13.31
290.864	-1.02
291.079	56.32
291.294	76.8
291.509	-39.94
291.724	-3.07
291.938	50.18
292.153	76.8
292.368	-1.02
292.583	33.79
292.798	64.51
293.012	15.36
293.227	35.84
293.442	37.89
293.657	64.51
293.871	33.79
294.086	48.13
294.301	74.75
294.516	72.7
294.73	17.41
294.945	50.18
295.16	44.03
295.374	89.09
295.589	58.37
295.804	54.27
296.018	66.56
296.233	52.22
296.447	56.32
296.662	25.6
296.877	91.13
297.091	19.46
297.306	89.09
297.52	95.23
297.735	37.89
297.949	44.03
298.164	111.61
298.378	35.84
298.593	-27.65
298.807	5.12
299.022	76.8
299.236	64.51
299.451	80.89
299.665	66.56
299.88	48.13
300.094	11.26
300.309	31.74
300.523	33.79
300.737	-25.6
300.952	-1.02
301.166	39.94
301.381	15.36
301.595	76.8
301.809	50.18
302.024	7.17
302.238	27.65
302.452	80.89
302.667	50.18
302.881	54.27
303.095	58.37
303.309	189.44
303.524	41.98
303.738	33.79
303.952	68.61
304.166	105.47
304.381	9.22
304.595	48.13
304.809	-17.41
305.023	80.89
305.237	11.26
305.452	76.8
305.666	31.74
305.88	33.79
306.094	58.37
306.308	91.13
306.522	140.29
306.736	41.98
306.95	48.13
307.164	37.89
307.379	50.18
307.593	74.75
307.807	107.52
308.021	66.56
308.235	25.6
308.449	52.22
308.663	1.02
308.877	78.85
309.091	74.75
309.305	37.89
309.519	-68.61
309.733	39.94
309.947	3.07
310.161	134.14
310.374	95.23
310.588	97.28
310.802	-44.03
311.016	-21.5
311.23	62.46
311.444	78.85
311.658	-3.07
311.872	68.61
312.085	99.33
312.299	62.46
312.513	89.09
312.727	23.55
312.941	-17.41
313.154	-13.31
313.368	-3.07
313.582	7.17
313.796	54.27
314.009	23.55
314.223	93.18
314.437	72.7
314.651	64.51
314.864	37.89
315.078	48.13
315.292	7.17
315.505	70.65
315.719	87.04
315.933	23.55
316.146	-1.02
316.36	78.85
316.573	62.46
316.787	-66.56
317.001	39.94
317.214	-21.5
317.428	76.8
317.641	60.42
317.855	68.61
318.068	68.61
318.282	125.95
318.495	74.75
318.709	52.22
318.922	11.26
319.136	68.61
319.349	46.08
319.563	70.65
319.776	62.46
319.99	-25.6
320.203	25.6
320.417	17.41
320.63	13.31
320.843	41.98
321.057	11.26
321.27	52.22
321.483	48.13
321.697	76.8
321.91	80.89
322.124	74.75
322.337	31.74
322.55	70.65
322.763	33.79
322.977	35.84
323.19	-87.04
323.403	37.89
323.617	-7.17
323.83	37.89
324.043	-64.51
324.256	54.27
324.469	48.13
324.683	97.28
324.896	-39.94
325.109	17.41
325.322	50.18
325.535	54.27
325.748	119.81
325.962	62.46
326.175	-21.5
326.388	58.37
326.601	17.41
326.814	56.32
327.027	123.9
327.24	80.89
327.453	9.22
327.666	113.66
327.879	5.12
328.092	52.22
328.305	60.42
328.518	-19.46
328.731	52.22
328.944	41.98
329.157	46.08
329.37	62.46
329.583	66.56
329.796	74.75
330.009	56.32
330.222	70.65
330.435	31.74
330.648	78.85
330.861	33.79
331.073	44.03
331.286	103.42
331.499	84.99
331.712	64.51
331.925	91.13
332.138	-7.17
332.35	87.04
332.563	23.55
332.776	50.18
332.989	21.5
333.202	31.74
333.414	66.56
333.627	35.84
333.84	56.32
334.053	-25.6
334.265	21.5
334.478	7.17
334.691	72.7
334.903	25.6
335.116	17.41
335.329	52.22
335.541	9.22
335.754	173.05
335.966	44.03
336.179	146.43
336.392	44.03
336.604	9.22
336.817	35.84
337.029	41.98
337.242	19.46
337.454	91.13
337.667	37.89
337.88	62.46
338.092	82.94
338.305	15.36
338.517	109.57
338.729	66.56
338.942	33.79
339.154	52.22
339.367	-41.98
339.579	91.13
339.792	7.17
340.004	48.13
340.217	-11.26
340.429	50.18
340.641	15.36
340.854	-29.7
341.066	13.31
341.278	31.74
341.491	27.65
341.703	19.46
341.915	-1.02
342.128	76.8
342.34	95.23
342.552	15.36
342.764	-3.07
342.977	-17.41
343.189	44.03
343.401	80.89
343.613	25.6
343.826	78.85
344.038	13.31
344.25	5.12
344.462	21.5
344.674	54.27
344.886	-39.94
345.099	66.56
345.311	56.32
345.523	66.56
345.735	9.22
345.947	3.07
346.159	56.32
346.371	-35.84
346.583	29.7
346.795	82.94
347.007	33.79
347.219	82.94
347.431	-3.07
347.643	84.99
347.855	3.07
348.067	95.23
348.279	35.84
348.491	93.18
348.703	62.46
348.915	46.08
349.127	74.75
349.339	5.12
349.551	-1.02
349.763	70.65
349.975	23.55
350.187	46.08
350.399	76.8
350.61	146.43
350.822	5.12
351.034	66.56
351.246	-7.17
351.458	87.04
351.669	44.03
351.881	111.61
352.093	7.17
352.305	62.46
352.517	66.56
352.728	68.61
352.94	68.61
353.152	95.23
353.363	-17.41
353.575	72.7
353.787	64.51
353.999	29.7
354.21	113.66
354.422	58.37
354.633	89.09
354.845	54.27
355.057	68.61
355.268	54.27
355.48	82.94
355.692	23.55
355.903	31.74
356.115	-44.03
356.326	31.74
356.538	138.24
356.749	105.47
356.961	29.7
357.172	31.74
357.384	41.98
357.595	193.53
357.807	52.22
358.018	58.37
358.23	17.41
358.441	115.71
358.653	25.6
358.864	78.85
359.075	70.65
359.287	21.5
359.498	97.28
359.709	-15.36
359.921	54.27
360.132	82.94
360.344	70.65
360.555	-11.26
360.766	68.61
360.977	89.09
361.189	54.27
361.4	21.5
361.611	50.18
361.823	87.04
362.034	37.89
362.245	21.5
362.456	23.55
362.667	54.27
362.879	48.13
363.09	72.7
363.301	87.04
363.512	15.36
363.723	80.89
363.935	91.13
364.146	103.42
364.357	33.79
364.568	-1.02
364.779	5.12
364.99	15.36
365.201	64.51
365.412	136.19
365.623	-17.41
365.834	93.18
366.045	15.36
366.256	78.85
366.467	113.66
366.678	82.94
366.889	87.04
367.1	31.74
367.311	132.09
367.522	138.24
367.733	54.27
367.944	109.57
368.155	84.99
368.366	58.37
368.577	142.33
368.788	37.89
368.999	78.85
369.209	64.51
369.42	50.18
369.631	101.37
369.842	76.8
370.053	41.98
370.264	117.76
370.474	76.8
370.685	62.46
370.896	9.22
371.107	76.8
371.317	64.51
371.528	1.02
371.739	82.94
371.95	66.56
372.16	62.46
372.371	-7.17
372.582	35.84
372.792	91.13
373.003	-9.22
373.214	44.03
373.424	171.01
373.635	-11.26
373.846	48.13
374.056	87.04
374.267	54.27
374.477	50.18
374.688	41.98
374.898	62.46
375.109	84.99
375.319	74.75
375.53	68.61
375.74	46.08
375.951	44.03
376.161	95.23
376.372	105.47
376.582	74.75
376.793	62.46
377.003	-11.26
377.214	-1.02
377.424	121.85
377.635	-1.02
377.845	-17.41
378.055	117.76
378.266	123.9
378.476	72.7
378.686	80.89
378.897	33.79
379.107	21.5
379.317	105.47
379.528	23.55
379.738	187.39
379.948	37.89
380.158	82.94
380.369	136.19
380.579	78.85
380.789	80.89
380.999	82.94
381.21	58.37
381.42	80.89
381.63	-3.07
381.84	62.46
382.05	41.98
382.261	132.09
382.471	144.38
382.681	93.18
382.891	146.43
383.101	68.61
383.311	123.9
383.521	35.84
383.731	56.32
383.941	160.77
384.151	44.03
384.361	27.65
384.571	144.38
384.781	89.09
384.991	134.14
385.201	91.13
385.411	44.03
385.621	95.23
385.831	80.89
386.041	60.42
386.251	148.48
386.461	58.37
386.671	60.42
386.881	113.66
387.091	13.31
387.301	123.9
387.511	97.28
387.72	46.08
387.93	76.8
388.14	50.18
388.35	82.94
388.56	29.7
388.769	150.53
388.979	33.79
389.189	48.13
389.399	29.7
389.609	95.23
389.818	117.76
390.028	-27.65
390.238	56.32
390.447	74.75
390.657	54.27
390.867	80.89
391.076	99.33
391.286	33.79
391.496	21.5
391.705	25.6
391.915	78.85
392.125	31.74
392.334	-41.98
392.544	76.8
392.753	105.47
392.963	130.05
393.172	35.84
393.382	76.8
393.591	123.9
393.801	87.04
394.01	111.61
394.22	105.47
394.429	84.99
394.639	113.66
394.848	66.56
395.058	197.63
395.267	97.28
395.477	154.62
395.686	181.25
395.895	107.52
396.105	144.38
396.314	68.61
396.524	111.61
396.733	37.89
396.942	130.05
397.152	168.96
397.361	84.99
397.57	105.47
397.78	58.37
397.989	119.81
398.198	218.11
398.407	119.81
398.617	132.09
398.826	168.96
399.035	140.29
399.244	95.23
399.453	111.61
399.663	164.86
399.872	140.29
400.081	140.29
400.29	107.52
400.499	179.2
400.708	101.37
400.917	146.43
401.127	162.81
401.336	66.56
401.545	168.96
401.754	162.81
401.963	128
402.172	82.94
402.381	181.25
402.59	185.34
402.799	218.11
403.008	187.39
403.217	162.81
403.426	136.19
403.635	142.33
403.844	177.15
404.053	123.9
404.262	201.72
404.471	259.07
404.68	269.31
404.888	150.53
405.097	138.24
405.306	236.54
405.515	171.01
405.724	261.12
405.933	201.72
406.142	259.07
406.35	267.26
406.559	269.31
406.768	226.3
406.977	300.03
407.185	316.41
407.394	269.31
407.603	216.06
407.812	369.66
408.02	439.29
408.229	228.35
408.438	308.22
408.646	332.79
408.855	349.18
409.064	390.14
409.272	293.88
409.481	435.19
409.69	320.51
409.898	326.65
410.107	465.91
410.315	412.67
410.524	537.59
410.733	510.97
410.941	492.54
411.15	478.2
411.358	510.97
411.567	586.74
411.775	523.26
411.984	637.94
412.192	588.79
412.401	599.03
412.609	689.14
412.818	658.42
413.026	695.29
413.234	687.09
413.443	721.91
413.651	699.38
413.86	771.06
414.068	801.78
414.276	984.05
414.485	859.12
414.693	910.32
414.901	996.34
415.11	1047.54
415.318	908.27
415.526	1106.93
415.734	1012.72
415.943	1125.36
416.151	1215.47
416.359	1106.93
416.567	1217.52
416.776	1283.05
416.984	1369.07
417.192	1303.53
417.4	1344.49
417.608	1426.41
417.817	1399.79
418.025	1563.62
418.233	1663.97
418.441	1446.89
418.649	1674.21
418.857	1852.39
419.065	1709.03
419.273	1737.7
419.481	1836
419.689	2003.94
419.897	2008.03
420.105	2159.58
420.313	2180.06
420.521	2356.19
420.729	2249.69
420.937	2307.04
421.145	2386.91
421.353	2622.42
421.561	2669.53
421.769	2679.77
421.977	2855.89
422.185	2851.8
422.393	3050.45
422.601	3081.17
422.809	3062.74
423.017	3228.62
423.224	3308.49
423.432	3425.23
423.64	3484.62
423.848	3726.28
424.056	3765.19
424.263	3974.08
424.471	3910.6
424.679	4051.91
424.887	4244.42
425.094	4481.98
425.302	4402.11
425.51	4465.6
425.718	4690.87
425.925	4787.13
426.133	5036.98
426.341	5340.08
426.548	5518.25
426.756	5432.24
426.964	5473.2
427.171	5718.95
427.379	5966.76
427.586	6144.93
427.794	6194.08
428.001	6552.48
428.209	6919.06
428.417	6669.21
428.624	7146.39
428.832	7228.31
429.039	7119.76
429.247	7304.08
429.454	7713.67
429.662	8375.17
429.869	7938.95
430.076	8237.95
430.284	8016.77
430.491	8532.86
430.699	9018.23
430.906	9075.57
431.114	9259.89
431.321	9188.21
431.528	9634.67
431.736	10081.13
431.943	10732.38
432.15	10503.01
432.358	10556.25
432.565	11150.17
432.772	10769.24
432.979	11541.33
433.187	11801.42
433.394	11791.18
433.601	12614.46
433.808	12874.56
434.016	12546.88
434.223	13400.88
434.43	13933.36
434.637	13746.99
434.844	14666.53
435.052	14887.71
435.259	14715.68
435.466	14861.09
435.673	14666.53
435.88	15688.46
436.087	16694.02
436.294	16708.35
436.501	15928.08
436.708	16284.42
436.915	17113.85
437.122	17928.94
437.329	17767.15
437.537	17777.39
437.743	18481.89
437.95	18569.96
438.157	19360.47
438.364	19981.01
438.571	20040.4
438.778	19878.61
438.985	21891.76
439.192	20902.59
439.399	21719.73
439.606	21277.37
439.813	22444.71
440.02	23812.76
440.227	23323.29
440.433	22887.07
440.64	24072.85
440.847	23429.79
441.054	24402.57
441.261	26059.38
441.467	25475.71
441.674	26049.14
441.881	26978.92
442.088	26442.35
442.294	26671.72
442.501	27476.57
442.708	27834.97
442.914	29065.8
443.121	30016.05
443.328	29299.26
443.534	31779.36
443.741	30417.46
443.948	29882.94
444.154	32578.06
444.361	31951.38
444.568	32268.82
444.774	32619.02
444.981	32696.85
445.187	33344
445.394	34705.9
445.6	34458.1
445.807	37810.62
446.013	36176.34
446.22	36952.52
446.426	38132.15
446.633	38435.25
446.839	39946.65
447.046	38101.43
447.252	39834.02
447.459	39965.09
447.665	39803.3
447.871	41460.1
448.078	43059.57
448.284	41638.28
448.491	41988.48
448.697	44104.03
448.903	44501.34
449.11	44583.26
449.316	43911.52
449.522	44468.57
449.728	45668.68
449.935	46088.51
450.141	45723.97
450.347	46879.03
450.553	45441.35
450.76	45787.46
450.966	47253.81
451.172	46788.92
451.378	47763.75
451.584	46987.57
451.791	48089.38
451.997	47243.57
452.203	48558.36
452.409	48568.6
452.615	48535.84
452.821	46494.01
453.027	46108.99
453.233	48531.74
453.44	46145.86
453.646	46788.92
453.852	47034.67
454.058	47726.89
454.264	46115.14
454.47	47118.64
454.676	46057.79
454.882	47188.27
455.088	43325.8
455.294	44011.87
455.5	44282.2
455.705	45304.14
455.911	43420.01
456.117	42752.37
456.323	41738.63
456.529	39485.86
456.735	41228.68
456.941	39999.9
457.147	39422.37
457.352	38259.13
457.558	37915.07
457.764	37851.58
457.97	37120.46
458.176	36587.99
458.381	36334.04
458.587	34363.89
458.793	34322.93
458.999	32825.87
459.204	35049.96
459.41	34167.29
459.616	31937.05
459.821	32018.97
460.027	31672.86
460.233	31150.63
460.438	30065.21
460.644	29882.94
460.85	28627.53
461.055	28414.54
461.261	28201.55
461.466	26036.85
461.672	25434.75
461.878	26987.11
462.083	25512.57
462.289	24943.24
462.494	24677
462.7	23728.79
462.905	22799.01
463.111	23814.8
463.316	23720.6
463.522	23507.61
463.727	23263.9
463.932	23071.39
464.138	22917.79
464.343	22866.6
464.549	22571.69
464.754	23141.02
464.959	22962.85
465.165	22760.1
465.37	21768.88
465.575	21455.54
465.781	22000.3
465.986	22158
466.191	21439.16
466.397	21240.51
466.602	19983.06
466.807	20884.16
467.012	21144.25
467.218	20470.47
467.423	20230.86
467.628	20728.52
467.833	21383.87
468.038	20564.68
468.244	19993.29
468.449	20720.32
468.654	20089.55
468.859	19909.33
469.064	19997.39
469.269	19380.95
469.474	19391.19
469.679	19634.9
469.885	19190.49
470.09	19165.92
470.295	19002.08
470.5	18621.16
470.705	18756.32
470.91	18373.35
471.115	17965.81
471.32	18469.61
471.525	18445.03
471.73	18014.96
471.935	17937.13
472.139	17050.36
472.344	17369.85
472.549	17689.33
472.754	17160.95
472.959	16810.75
473.164	16339.72
473.369	16120.59
473.574	16601.86
473.778	16538.37
473.983	16507.65
474.188	16249.61
474.393	15751.95
474.598	15809.29
474.802	15713.04
475.007	15373.08
475.212	15305.49
475.417	15082.27
475.621	14828.32
475.826	15051.55
476.031	14547.75
476.235	14332.71
476.44	14748.45
476.645	14363.43
476.849	14381.86
477.054	14148.39
477.259	14138.15
477.463	13710.13
477.668	13501.23
477.872	13976.36
478.077	13536.05
478.282	13230.9
478.486	13126.46
478.691	13101.88
478.895	13042.49
479.1	13083.45
479.304	12942.14
479.509	12649.28
479.713	12813.12
479.918	12673.85
480.122	12266.31
480.326	12589.89
480.531	12829.5
480.735	12436.29
480.94	12288.84
481.144	12632.9
481.348	12084.04
481.553	12331.84
481.757	11979.59
481.961	12071.75
482.166	12260.16
482.37	12292.93
482.574	12098.38
482.778	12174.15
482.983	12436.29
483.187	12243.78
483.391	12223.3
483.595	12016.46
483.8	11944.78
484.004	12026.7
484.208	12317.51
484.412	12002.12
484.616	12012.36
484.821	12022.6
485.025	12008.26
485.229	12321.6
485.433	11692.88
485.637	12157.77
485.841	11895.63
486.045	11926.35
486.249	12028.74
486.453	12104.52
486.657	12041.03
486.861	12098.38
487.065	11721.55
487.269	11887.43
487.473	11936.59
487.677	12143.43
487.881	12047.18
488.085	11959.11
488.289	12256.07
488.493	12022.6
488.697	12084.04
488.901	12264.26
489.105	12272.45
489.309	12329.8
489.512	12190.53
489.716	12184.39
489.92	12057.42
490.124	12395.33
490.328	12579.65
490.531	12655.42
490.735	12313.41
490.939	12184.39
491.143	12354.37
491.346	12608.32
491.55	12729.15
491.754	12659.52
491.958	12802.88
492.161	12854.08
492.365	12915.51
492.569	12612.42
492.772	12841.79
492.976	12847.93
493.18	12946.23
493.383	12886.84
493.587	13144.89
493.79	13296.44
493.994	13067.06
494.197	13376.31
494.401	13347.64
494.605	13476.66
494.808	13534
495.012	13892.4
495.215	13857.58
495.419	13796.14
495.622	14023.47
495.825	14197.54
496.029	13871.92
496.232	14209.83
496.436	14449.44
496.639	14615.33
496.843	14578.47
497.046	15121.18
497.249	15090.46
497.453	15121.18
497.656	15252.25
497.859	15291.16
498.063	15553.3
498.266	15776.53
498.469	15764.24
498.673	15948.56
498.876	16220.94
499.079	16454.4
499.282	16255.75
499.485	16698.11
499.689	16915.2
499.892	17119.99
500.095	17062.65
500.298	17500.92
500.501	17582.84
500.705	17793.78
500.908	18033.39
501.111	18244.33
501.314	18399.98
501.517	18797.28
501.72	18688.74
501.923	18854.62
502.126	19276.51
502.329	19493.59
502.532	19663.57
502.735	19921.62
502.938	20030.16
503.141	20046.54
503.344	20601.54
503.547	20724.42
503.75	20789.95
503.953	21189.31
504.156	21365.43
504.359	21424.83
504.562	21240.51
504.765	22356.65
504.968	22393.51
505.17	22592.17
505.373	22469.29
505.576	23106.21
505.779	23173.79
505.982	23300.76
506.185	24142.48
506.387	23571.1
506.59	24038.03
506.793	24511.11
506.996	24459.91
507.198	25199.23
507.401	25148.03
507.604	25371.26
507.807	26042.99
508.009	25975.41
508.212	26120.82
508.415	26208.88
508.617	26753.64
508.82	27302.5
509.022	27056.74
509.225	28138.07
509.428	27976.28
509.63	28148.31
509.833	28209.75
510.035	28838.47
510.238	28660.3
510.44	29436.48
510.643	29774.39
510.845	29766.2
511.048	29706.81
511.25	30308.91
511.453	30245.43
511.655	31767.07
511.858	30847.53
512.06	31562.27
512.262	31672.86
512.465	31793.69
512.667	32526.86
512.87	32442.9
513.072	32795.15
513.274	33513.98
513.477	33743.36
513.679	33673.73
513.881	34408.95
514.084	34560.5
514.286	34574.83
514.488	34955.75
514.69	35817.95
514.893	35965.4
515.095	35914.2
515.297	36426.2
515.499	36579.79
515.701	36630.99
515.904	37706.18
516.106	37538.24
516.308	37853.63
516.51	38435.25
516.712	38635.95
516.914	39055.79
517.116	39459.24
517.318	39385.51
517.52	40020.38
517.722	40249.75
517.925	40880.53
518.127	40978.83
518.329	41187.72
518.531	41083.28
518.733	41855.36
518.935	42146.17
519.136	42125.69
519.338	43084.14
519.54	43133.29
519.742	43288.94
519.944	43387.24
520.146	44513.62
520.348	44536.15
520.55	44532.06
520.752	44538.2
520.954	45738.31
521.155	45836.61
521.357	45961.54
521.559	46332.22
521.761	47364.4
521.963	46698.81
522.164	47315.25
522.366	47327.53
522.568	48103.71
522.77	48056.61
522.971	49019.16
523.173	48695.58
523.375	48998.68
523.576	48929.05
523.778	49025.3
523.98	49996.04
524.181	50182.4
524.383	49795.34
524.584	50555.13
524.786	50510.08
524.988	50551.04
525.189	51185.91
525.391	51570.93
525.592	52140.26
525.794	51515.63
525.995	52136.16
526.197	52091.11
526.398	52035.81
526.6	52603.1
526.801	52855
527.003	52967.64
527.204	53078.23
527.406	53455.06
527.607	53416.14
527.808	54173.89
528.01	53139.67
528.211	53715.15
528.412	54765.76
528.614	54188.23
528.815	54618.3
529.016	54749.37
529.218	54696.13
529.419	54270.15
529.62	54810.81
529.822	54710.46
530.023	54698.17
530.224	54974.65
530.425	55363.76
530.626	54708.41
530.828	54339.78
531.029	55972.01
531.23	55425.2
531.431	55736.49
531.632	55460.02
531.833	55838.89
532.035	55969.96
532.236	55969.96
532.437	55765.17
532.638	55853.23
532.839	56246.44
533.04	56033.45
533.241	55691.44
533.442	56633.5
533.643	56580.26
533.844	55883.95
534.045	56338.6
534.246	56354.98
534.447	56297.64
534.648	56496.29
534.849	56457.38
535.05	56195.24
535.251	56584.35
535.451	56293.54
535.652	56457.38
535.853	56645.79
536.054	56473.76
536.255	56809.63
536.456	56563.87
536.657	57071.77
536.857	55990.44
537.058	56502.43
537.259	57165.98
537.46	56594.59
537.66	56637.6
537.861	56735.9
538.062	56342.69
538.263	56596.64
538.463	56420.52
538.664	56463.52
538.865	56557.73
539.065	57133.21
539.266	55945.39
539.466	56928.41
539.667	55838.89
539.868	57213.08
540.068	56826.01
540.269	56342.69
540.469	56416.42
540.67	56258.73
540.87	56543.39
541.071	56332.45
541.271	56342.69
541.472	56543.39
541.672	55879.85
541.873	56236.2
542.073	55273.65
542.274	56731.81
542.474	56387.75
542.675	56037.54
542.875	56049.83
543.075	56180.9
543.276	55808.17
543.476	56637.6
543.676	56121.51
543.877	56191.14
544.077	55988.39
544.277	56287.4
544.478	56141.99
544.678	56125.61
544.878	56307.88
545.078	56133.8
545.279	55861.42
545.479	55693.49
545.679	56428.71
545.879	56182.95
546.079	56395.94
546.28	55826.6
546.48	55564.46
546.68	56027.31
546.88	55953.58
547.08	56311.97
547.28	55972.01
547.48	55437.49
547.68	55613.62
547.88	55543.98
548.081	56354.98
548.281	55892.14
548.481	55578.8
548.681	55937.19
548.881	55904.43
549.081	55617.71
549.28	55857.32
549.48	56367.27
549.68	55906.47
549.88	56301.73
550.08	55300.28
550.28	55883.95
550.48	55888.04
550.68	56555.68
550.88	55539.89
551.08	55300.28
551.279	55400.63
551.479	55464.11
551.679	55904.43
551.879	55832.75
552.079	55908.52
552.278	55324.85
552.478	55691.44
552.678	55797.93
552.878	55986.35
553.077	55216.31
553.277	55384.24
553.477	55568.56
553.676	55101.62
553.876	55644.33
554.076	54945.98
554.275	54831.29
554.475	54503.62
554.674	55412.91
554.874	55439.54
555.074	55070.9
555.273	54909.11
555.473	55511.22
555.672	54708.41
555.872	55046.33
556.071	55158.97
556.271	54966.46
556.47	54679.74
556.67	54429.89
556.869	54683.84
557.068	54802.62
557.268	54337.73
557.467	54757.56
557.667	54429.89
557.866	54591.68
558.065	54382.79
558.265	54421.7
558.464	54124.74
558.663	54476.99
558.863	53946.57
559.062	54696.13
559.261	53991.62
559.461	54169.8
559.66	53432.53
559.859	53790.92
560.058	53201.11
560.258	53743.82
560.457	53086.42
560.656	53737.68
560.855	53438.67
561.054	53758.16
561.253	52947.16
561.453	53754.06
561.652	53289.17
561.851	53352.66
562.05	52934.87
562.249	52742.36
562.448	53278.93
562.647	52988.12
562.846	52863.19
563.045	52844.76
563.244	52426.98
563.443	53188.82
563.642	52009.19
563.841	52525.28
564.04	51765.48
564.239	52648.16
564.438	51558.64
564.637	52037.86
564.836	52478.18
565.035	51294.45
565.234	51638.51
565.432	51611.88
565.631	51214.58
565.83	52115.68
566.029	51269.87
566.228	51169.52
566.427	51013.88
566.625	50856.18
566.824	50473.21
567.023	51337.46
567.222	50204.93
567.42	51259.63
567.619	50489.6
567.818	50215.17
568.016	50469.12
568.215	50643.2
568.414	49950.98
568.612	50417.92
568.811	50057.48
569.01	49944.84
569.208	49033.49
569.407	50096.39
569.605	49088.79
569.804	49516.81
570.002	49031.44
570.201	49613.07
570.4	49209.62
570.598	48908.57
570.797	48789.78
570.995	48400.67
571.193	48363.81
571.392	49088.79
571.59	48247.07
571.789	48294.18
571.987	48425.25
572.186	48159.01
572.384	47786.28
572.582	47827.24
572.781	48111.91
572.979	47415.6
573.177	47716.65
573.376	47694.12
573.574	47245.62
573.772	47378.73
573.971	47155.5
574.169	46872.88
574.367	46436.67
574.565	47122.74
574.763	46776.63
574.962	46215.49
575.16	45910.34
575.358	46242.11
575.556	46076.22
575.754	46885.17
575.952	45680.97
576.151	46090.56
576.349	45605.19
576.547	45891.91
576.745	45502.79
576.943	45801.8
577.141	45820.23
577.339	46096.7
577.537	45082.96
577.735	44857.68
577.933	44706.13
578.131	45001.04
578.329	44837.2
578.527	44394.84
578.725	44831.06
578.923	44306.78
579.121	44128.61
579.319	44294.49
579.516	44241.24
579.714	44562.78
579.912	44185.95
580.11	44190.05
580.308	43909.47
580.506	43524.46
580.704	43151.73
580.901	43563.37
581.099	43682.15
581.297	43313.52
581.495	42881.39
581.692	43458.92
581.89	42938.74
582.088	42787.19
582.285	42473.85
582.483	42572.15
582.681	42711.41
582.878	42578.29
583.076	42008.96
583.274	42645.88
583.471	41601.41
583.669	42129.79
583.866	41726.34
584.064	42211.71
584.262	41517.45
584.459	42051.97
584.657	41587.08
584.854	41783.68
585.052	40786.32
585.249	41294.22
585.447	41175.44
585.644	40536.47
585.841	40685.97
586.039	41281.93
586.236	40520.09
586.434	40667.54
586.631	40194.46
586.828	40532.37
587.026	40212.89
587.223	40147.36
587.42	39924.13
587.618	40155.55
587.815	39815.58
588.012	39741.86
588.21	39532.96
588.407	39788.96
588.604	39111.08
588.801	38957.49
588.999	38928.81
589.196	38994.35
589.393	38900.14
589.59	39373.22
589.787	38627.76
589.984	38877.61
590.182	37958.08
590.379	38621.62
590.576	38255.03
590.773	38205.88
590.97	38166.97
591.167	38076.86
591.364	37935.55
591.561	38048.19
591.758	37669.31
591.955	37495.24
592.152	37800.38
592.349	37284.3
592.546	37640.64
592.743	37349.83
592.94	36850.13
593.137	37165.51
593.334	37296.58
593.531	36538.83
593.727	36927.95
593.924	36776.4
594.121	36336.09
594.318	36438.48
594.515	36299.22
594.712	36710.86
594.908	36153.82
595.105	36375
595.302	35596.77
595.499	35875.29
595.696	35611.1
595.892	35224.04
596.089	35688.93
596.286	35836.38
596.482	35729.89
596.679	35199.46
596.876	35369.44
597.072	35355.11
597.269	35265
597.466	35011.05
597.662	34646.51
597.859	34765.29
598.055	34972.14
598.252	34351.6
598.448	34300.4
598.645	34236.92
598.841	33978.87
599.038	34284.02
599.234	33911.29
599.431	33763.84
599.627	33690.11
599.824	33788.41
600.02	33387.01
600.217	33585.66
600.413	33278.47
600.609	33204.74
600.806	32946.7
601.002	33178.12
601.198	32829.96
601.395	32799.24
601.591	32752.14
601.787	32954.89
601.984	32414.23
602.18	33208.84
602.376	32301.59
602.572	31980.06
602.769	32365.07
602.965	32066.07
603.161	32119.32
603.357	31455.78
603.553	32102.93
603.75	31865.37
603.946	31824.41
604.142	31556.13
604.338	31289.89
604.534	31582.75
604.73	31031.85
604.926	30990.89
605.122	31459.87
605.318	30749.23
605.514	31048.23
605.71	31015.46
605.906	30642.73
606.102	30845.48
606.298	30673.45
606.494	30497.33
606.69	30470.7
606.886	30528.05
607.082	30026.29
607.278	30405.17
607.474	29745.72
607.67	30196.28
607.866	29428.29
608.062	30394.93
608.257	29569.6
608.453	29909.56
608.649	29639.23
608.845	29749.82
609.041	29661.76
609.236	29731.39
609.432	29381.18
609.628	29856.31
609.824	29602.36
610.019	29137.48
610.215	29006.41
610.411	29057.6
610.606	29035.08
610.802	29151.81
610.998	29024.84
611.193	28772.94
611.389	28901.96
611.584	28742.22
611.78	28396.11
611.976	29018.69
612.171	28584.52
612.367	28351.06
612.562	28740.17
612.758	28226.13
612.953	28009.04
613.149	28199.51
613.344	27832.92
613.539	28373.58
613.735	27978.33
613.93	28025.43
614.126	28097.11
614.321	28361.3
614.517	27959.89
614.712	27925.08
614.907	27863.64
615.103	27837.02
615.298	27890.26
615.493	27800.15
615.688	27302.5
615.884	27920.98
616.079	27114.08
616.274	27615.83
616.47	27533.92
616.665	27697.75
616.86	27058.79
617.055	27376.22
617.25	27050.6
617.445	27333.21
617.641	26954.34
617.836	27122.27
618.031	26610.28
618.226	27007.59
618.421	26710.63
618.616	27198.05
618.811	26020.47
619.006	26815.08
619.201	26235.5
619.396	26647.15
619.591	26153.58
619.786	26051.19
619.981	25809.53
620.176	25864.82
620.371	25707.13
620.566	25727.61
620.761	25498.23
620.956	25631.35
621.151	25049.73
621.346	25129.6
621.541	24871.56
621.735	25154.18
621.93	24879.75
622.125	24834.69
622.32	24146.58
622.515	24480.39
622.709	24187.53
622.904	24013.46
623.099	24109.71
623.294	24199.82
623.488	23810.71
623.683	24031.89
623.878	23513.75
624.072	23823
624.267	23313.05
624.462	23483.03
624.656	23112.35
624.851	23263.9
625.046	23057.06
625.24	22842.02
625.435	22669.99
625.629	22612.65
625.824	22381.23
626.018	22590.12
626.213	21867.19
626.407	22264.49
626.602	21906.1
626.796	21848.75
626.991	22067.89
627.185	21551.8
627.38	21574.33
627.574	21609.14
627.768	21369.53
627.963	21402.3
628.157	20986.56
628.352	21195.45
628.546	20761.28
628.74	20722.37
628.935	20679.36
629.129	20550.34
629.323	20273.87
629.517	20511.43
629.712	20196.04
629.906	20163.28
630.1	19921.62
630.294	19626.71
630.489	19798.74
630.683	19854.03
630.877	19530.45
631.071	19395.29
631.265	19702.48
631.459	19094.24
631.653	19096.28
631.848	18989.79
632.042	18977.5
632.236	18965.21
632.43	18723.55
632.624	18760.42
632.818	18643.68
633.012	18569.96
633.206	18244.33
633.4	18504.42
633.594	18264.81
633.788	18303.72
633.982	18195.18
634.176	18088.68
634.369	17877.74
634.563	17842.93
634.757	17707.76
634.951	17400.57
635.145	17474.29
635.339	17373.94
635.533	17156.86
635.726	17363.7
635.92	17052.41
636.114	17050.36
636.308	16978.68
636.501	17036.03
636.695	16876.29
636.889	16569.09
637.083	16528.13
637.276	16651.01
637.47	16507.65
637.664	16536.32
637.857	16130.83
638.051	16177.93
638.244	16184.07
638.438	15948.56
638.632	15684.37
638.825	15762.19
639.019	15682.32
639.212	15700.75
639.406	15491.86
639.599	15352.6
639.793	15608.59
639.986	15201.05
640.18	15373.08
640.373	15006.49
640.567	15022.87
640.76	15037.21
640.954	14797.6
641.147	14863.13
641.34	14867.23
641.534	14566.18
641.727	14490.4
641.92	14494.5
642.114	14459.68
642.307	14533.41
642.5	14385.96
642.694	14289.7
642.887	14089
643.08	14093.1
643.273	14340.9
643.467	13982.51
643.66	13540.15
643.853	13835.05
644.046	13425.46
644.239	13499.19
644.432	13624.11
644.626	13447.99
644.819	13278.01
645.012	13388.6
645.205	13267.77
645.398	13134.65
645.591	12956.47
645.784	12921.66
645.977	12772.16
646.17	12845.88
646.363	12579.65
646.556	12704.57
646.749	12593.98
646.942	12682.05
647.135	12669.76
647.328	12485.44
647.521	12477.25
647.714	12102.47
647.907	12417.86
648.099	11942.73
648.292	12127.05
648.485	12079.94
648.678	11967.31
648.871	11813.71
649.064	11748.17
649.256	11809.61
649.449	11828.04
649.642	11791.18
649.835	11610.96
650.027	11385.68
650.22	11172.69
650.413	11483.98
650.605	11307.86
650.798	11371.35
650.991	11174.74
651.183	11461.46
651.376	11045.72
651.568	11074.39
651.761	10965.85
651.954	11154.26
652.146	11055.96
652.339	10793.82
652.531	10716
652.724	10652.51
652.916	10589.02
653.109	10599.26
653.301	10537.82
653.494	10552.16
653.686	10294.11
653.879	10447.71
654.071	10449.76
654.263	10242.92
654.456	10308.45
654.648	10267.49
654.84	9991.02
655.033	10156.9
655.225	9950.06
655.417	10138.47
655.61	9915.24
655.802	9780.07
655.994	9708.4
656.186	9747.31
656.379	9720.68
656.571	9775.98
656.763	9710.44
656.955	9509.74
657.148	9587.57
657.34	9544.56
657.532	9237.36
657.724	9413.49
657.916	9182.07
658.108	9304.95
658.3	9235.32
658.492	9083.77
658.684	8956.79
658.876	9124.72
659.068	8928.12
659.26	8979.32
659.452	8921.98
659.644	8833.91
659.836	8846.2
660.028	8823.67
660.22	8684.41
660.412	8846.2
660.604	8594.3
660.796	8622.97
660.988	8563.58
661.18	8389.5
661.372	8328.06
661.563	8371.07
661.755	8272.77
661.947	8266.63
662.139	8270.72
662.331	8276.87
662.522	8084.36
662.714	8184.71
662.906	8246.15
663.097	8098.69
663.289	7996.29
663.481	8127.36
663.673	8008.58
663.864	7920.52
664.056	7779.21
664.247	7967.62
664.439	7732.11
664.631	7656.33
664.822	7996.29
665.014	7642
665.205	7619.47
665.397	7652.24
665.588	7437.2
665.78	7611.28
665.971	7502.73
666.163	7574.41
666.354	7433.1
666.546	7330.7
666.737	7404.43
666.929	7316.37
667.12	7388.05
667.311	7246.74
667.503	7205.78
667.694	7246.74
667.885	7263.12
668.077	7101.33
668.268	7205.78
668.459	7295.89
668.651	7025.56
668.842	7043.99
669.033	7117.72
669.224	6906.77
669.416	6880.15
669.607	6859.67
669.798	6869.91
669.989	7076.76
670.18	6949.78
670.371	6884.25
670.563	6720.41
670.754	6761.37
670.945	6527.9
671.136	6742.94
671.327	6652.83
671.518	6755.22
671.709	6615.96
671.9	6613.92
672.091	6554.52
672.282	6611.87
672.473	6601.63
672.664	6591.39
672.855	6263.71
673.046	6405.02
673.237	6554.52
673.428	6472.61
673.619	6325.15
673.809	6384.54
674	6214.56
674.191	6396.83
674.382	6177.7
674.573	6177.7
674.764	6265.76
674.954	6224.8
675.145	6247.33
675.336	6300.58
675.527	6206.37
675.717	6208.42
675.908	6171.55
676.099	6173.6
676.289	5886.89
676.48	6177.7
676.671	5923.75
676.861	6091.68
677.052	5968.8
677.243	6017.96
677.433	5893.03
677.624	5987.24
677.814	5972.9
678.005	6058.92
678.195	5917.61
678.386	6011.81
678.576	5888.93
678.767	5903.27
678.957	5792.68
679.148	5888.93
679.338	5966.76
679.529	5919.65
679.719	5809.06
679.909	5970.85
680.1	5968.8
680.29	5841.83
680.481	5786.54
680.671	5850.02
680.861	5696.43
681.052	5651.37
681.242	5706.66
681.432	5792.68
681.622	5858.21
681.813	5657.51
682.003	5546.92
682.193	5673.9
682.383	5733.29
682.573	5782.44
682.764	5630.89
682.954	5565.36
683.144	5655.47
683.334	5675.95
683.524	5645.23
683.714	5602.22
683.904	5422
684.094	5522.35
684.284	5546.92
684.474	5602.22
684.664	5561.26
684.854	5471.15
685.044	5551.02
685.234	5520.3
685.424	5440.43
685.614	5366.7
685.804	5391.28
685.994	5383.09
686.184	5352.37
686.374	5465
686.564	5360.56
686.753	5247.92
686.943	5305.26
687.133	5266.35
687.323	5290.93
687.513	5366.7
687.702	5002.16
687.892	5188.53
688.082	5125.04
688.272	5131.19
688.461	5127.09
688.651	5137.33
688.841	4893.62
689.03	4981.68
689.22	5071.79
689.41	5026.74
689.599	5047.22
689.789	4815.8
689.979	4852.66
690.168	4936.63
690.358	4801.46
690.547	4922.29
690.737	4817.85
690.926	4914.1
691.116	4789.17
691.305	4807.61
691.495	4819.89
691.684	4858.81
691.874	4862.9
692.063	4764.6
692.252	4594.62
692.442	4717.5
692.631	4684.73
692.82	4580.28
693.01	4768.7
693.199	4721.59
693.388	4598.71
693.578	4608.95
693.767	4670.39
693.956	4527.03
694.146	4514.75
694.335	4457.4
694.524	4559.8
694.713	4496.32
694.902	4590.52
695.092	4621.24
695.281	4383.68
695.47	4381.63
695.659	4588.47
695.848	4328.38
696.037	4502.46
696.226	4312
696.415	4361.15
696.604	4443.07
696.793	4285.37
696.982	4258.75
697.171	4359.1
697.36	4332.48
697.549	4387.77
697.738	4182.98
697.927	4266.94
698.116	4336.57
698.305	4148.16
698.494	4361.15
698.683	4228.03
698.872	4258.75
699.061	4201.41
699.25	4334.53
699.438	4203.46
699.627	4127.68
699.816	4197.31
700.005	4142.02
700.193	4182.98
700.382	4176.83
700.571	4203.46
700.76	4291.52
700.948	4189.12
701.137	4137.92
701.326	4287.42
701.514	4129.73
701.703	4072.39
701.892	4047.81
702.08	4176.83
702.269	4168.64
702.457	3957.7
702.646	4182.98
702.834	4031.43
703.023	4144.06
703.212	4129.73
703.4	4115.39
703.589	3939.27
703.777	4045.76
703.965	4051.91
704.154	3906.5
704.342	4111.3
704.531	3943.36
704.719	3990.47
704.907	4060.1
705.096	4101.06
705.284	4088.77
705.472	4019.14
705.661	3906.5
705.849	3992.52
706.037	4121.54
706.226	4039.62
706.414	4060.1
706.602	3949.51
706.79	3908.55
706.979	3974.08
707.167	3861.45
707.355	3879.88
707.543	4008.9
707.731	3875.78
707.919	3965.89
708.107	3963.84
708.296	3974.08
708.484	3892.16
708.672	3875.78
708.86	3888.07
709.048	3941.32
709.236	3912.64
709.424	4101.06
709.612	3793.86
709.8	3718.09
709.988	3773.38
710.176	3873.73
710.364	3832.77
710.551	3806.15
710.739	3783.62
710.927	3953.6
711.115	3662.79
711.303	3945.41
711.491	3840.97
711.679	3736.52
711.866	3888.07
712.054	3883.97
712.242	3793.86
712.43	3810.25
712.617	3769.29
712.805	3881.92
712.993	3840.97
713.181	3800.01
713.368	3861.45
713.556	3857.35
713.744	3701.7
713.931	3978.18
714.119	3781.57
714.306	3822.53
714.494	3818.44
714.682	3904.45
714.869	3775.43
715.057	3767.24
715.244	3658.7
715.432	3658.7
715.619	3730.38
715.807	3865.54
715.994	3691.46
716.182	3775.43
716.369	3759.05
716.556	3730.38
716.744	3797.96
716.931	3718.09
717.119	3793.86
717.306	3763.14
717.493	3673.03
717.681	3648.46
717.868	3791.81
718.055	3564.49
718.242	3595.21
718.43	3791.81
718.617	3521.48
718.804	3853.25
718.991	3654.6
719.179	3681.22
719.366	3763.14
719.553	3783.62
719.74	3695.56
719.927	3759.05
720.114	3562.44
720.301	3623.88
720.488	3638.22
720.676	3597.26
720.863	3660.74
721.05	3699.66
721.237	3728.33
721.424	3523.53
721.611	3554.25
721.798	3525.58
721.985	3537.87
722.172	3623.88
722.358	3419.08
722.545	3564.49
722.732	3603.4
722.919	3660.74
723.106	3509.19
723.293	3429.32
723.48	3478.47
723.667	3605.45
723.853	3630.02
724.04	3519.43
724.227	3490.76
724.414	3513.29
724.6	3605.45
724.787	3486.67
724.974	3441.61
725.161	3468.24
725.347	3404.75
725.534	3494.86
725.72	3496.91
725.907	3582.92
726.094	3394.51
726.28	3449.8
726.467	3427.28
726.653	3537.87
726.84	3419.08
727.027	3541.96
727.213	3359.69
727.4	3306.45
727.586	3419.08
727.773	3404.75
727.959	3331.02
728.145	3390.41
728.332	3374.03
728.518	3480.52
728.705	3458
728.891	3396.56
729.077	3345.36
729.264	3433.42
729.45	3398.6
729.636	3412.94
729.823	3402.7
730.009	3374.03
730.195	3245.01
730.382	3478.47
730.568	3269.58
730.754	3265.49
730.94	3259.34
731.126	3386.32
731.313	3312.59
731.499	3308.49
731.685	3245.01
731.871	3271.63
732.057	3365.84
732.243	3380.17
732.429	3208.14
732.615	3281.87
732.801	3226.57
732.987	3177.42
733.173	3181.52
733.359	3310.54
733.545	3261.39
733.731	3179.47
733.917	3216.33
734.103	3294.16
734.289	3247.05
734.475	3169.23
734.661	3255.25
734.847	3228.62
735.033	3251.15
735.219	3245.01
735.404	3126.22
735.59	3158.99
735.776	3220.43
735.962	3140.56
736.148	3212.24
736.333	3179.47
736.519	3070.93
736.705	3152.85
736.89	3083.22
737.076	3005.39
737.262	3029.97
737.447	3099.6
737.633	3191.76
737.819	3230.67
738.004	3173.33
738.19	3025.87
738.375	3165.14
738.561	3052.5
738.747	2814.93
738.932	2907.09
739.118	3029.97
739.303	3036.11
739.489	3048.4
739.674	3115.98
739.859	2909.14
740.045	2935.76
740.23	2900.95
740.416	2868.18
740.601	2954.19
740.786	2925.52
740.972	2986.96
741.157	2909.14
741.342	2929.62
741.528	2773.97
741.713	2905.04
741.898	2921.43
742.084	2778.07
742.269	2864.08
742.454	2782.17
742.639	2700.25
742.824	2739.16
743.01	2778.07
743.195	2757.59
743.38	2874.32
743.565	2806.74
743.75	2792.41
743.935	2673.62
744.12	2798.55
744.305	2659.29
744.49	2491.35
744.675	2687.96
744.86	2728.92
745.045	2485.21
745.23	2728.92
745.415	2610.14
745.6	2558.94
745.785	2567.13
745.97	2581.46
746.155	2542.55
746.34	2595.8
746.525	2515.93
746.71	2548.7
746.895	2585.56
747.079	2401.24
747.264	2489.31
747.449	2569.18
747.634	2288.61
747.819	2436.06
748.003	2448.35
748.188	2331.61
748.373	2311.13
748.557	2493.4
748.742	2384.86
748.927	2368.48
749.111	2415.58
749.296	2294.75
749.481	2339.8
749.665	2319.32
749.85	2249.69
750.034	2229.21
750.219	2245.6
750.404	2161.63
750.588	2210.78
750.773	2139.1
750.957	2223.07
751.141	2235.36
751.326	2188.25
751.51	2094.05
751.695	2085.86
751.879	2126.82
752.064	2151.39
752.248	2016.23
752.432	2048.99
752.617	1997.79
752.801	2055.14
752.985	2057.18
753.17	2036.7
753.354	1995.75
753.538	2012.13
753.722	1942.5
753.907	1922.02
754.091	1803.24
754.275	1901.54
754.459	1852.39
754.643	1733.61
754.828	1909.73
755.012	1747.94
755.196	1766.37
755.38	1729.51
755.564	1686.5
755.748	1715.17
755.932	1821.67
756.116	1696.74
756.3	1704.93
756.484	1797.09
756.668	1709.03
756.852	1686.5
757.036	1735.65
757.22	1639.4
757.404	1612.78
757.588	1586.15
757.772	1620.97
757.956	1582.06
758.14	1692.65
758.323	1580.01
758.507	1641.45
758.691	1608.68
758.875	1618.92
759.059	1569.77
759.242	1502.19
759.426	1483.75
759.61	1534.95
759.794	1518.57
759.977	1537
760.161	1522.66
760.345	1457.13
760.528	1616.87
760.712	1407.98
760.895	1526.76
761.079	1407.98
761.263	1332.2
761.446	1410.03
761.63	1395.69
761.813	1371.12
761.997	1438.7
762.18	1430.51
762.364	1471.47
762.547	1436.65
762.731	1436.65
762.914	1334.25
763.098	1291.24
763.281	1319.92
763.464	1330.16
763.648	1367.02
763.831	1412.07
764.015	1403.88
764.198	1391.59
764.381	1293.29
764.564	1311.72
764.748	1295.34
764.931	1399.79
765.114	1289.2
765.297	1326.06
765.481	1272.81
765.664	1344.49
765.847	1260.52
766.03	1293.29
766.213	1188.85
766.397	1100.78
766.58	1219.57
766.763	1283.05
766.946	1194.99
767.129	1238
767.312	1209.33
767.495	1223.66
767.678	1149.93
767.861	1211.37
768.044	1156.08
768.227	1182.7
768.41	1188.85
768.593	1184.75
768.776	1160.17
768.959	1072.11
769.142	1162.22
769.324	1115.12
769.507	1164.27
769.69	1211.37
769.873	1139.69
770.056	1205.23
770.239	1141.74
770.421	1094.64
770.604	1221.61
770.787	1123.31
770.97	1115.12
771.152	1170.41
771.335	1180.65
771.518	1078.26
771.7	1197.04
771.883	1051.63
772.066	1088.5
772.248	1057.78
772.431	1059.82
772.613	1072.11
772.796	1043.44
772.978	1063.92
773.161	1043.44
773.343	955.38
773.526	992.24
773.708	918.51
773.891	869.36
774.073	936.95
774.256	1051.63
774.438	1094.64
774.621	959.47
774.803	926.71
774.985	943.09
775.168	885.75
775.35	926.71
775.532	963.57
775.715	877.55
775.897	941.04
776.079	920.56
776.261	898.03
776.444	979.95
776.626	922.61
776.808	922.61
776.99	818.16
777.173	828.4
777.355	912.37
777.537	861.17
777.719	891.89
777.901	865.27
778.083	807.92
778.265	744.44
778.447	871.41
778.629	836.6
778.811	834.55
778.993	828.4
779.175	832.5
779.357	707.57
779.539	713.72
779.721	781.3
779.903	762.87
780.085	639.99
780.267	885.75
780.449	730.1
780.631	793.59
780.812	730.1
780.994	691.19
781.176	678.9
781.358	709.62
781.54	764.92
781.721	721.91
781.903	746.48
782.085	668.66
782.267	758.77
782.448	709.62
782.63	672.76
782.812	654.33
782.993	746.48
783.175	642.04
783.357	611.32
783.538	695.29
783.72	642.04
783.901	621.56
784.083	625.65
784.264	650.23
784.446	584.7
784.627	601.08
784.809	588.79
784.99	664.57
785.172	605.17
785.353	621.56
785.535	627.7
785.716	564.22
785.897	607.22
786.079	515.06
786.26	556.02
786.441	594.93
786.623	529.4
786.804	543.74
786.985	566.26
787.167	531.45
787.348	639.99
787.529	580.6
787.71	541.69
787.891	517.11
788.073	390.14
788.254	506.87
788.435	508.92
788.616	531.45
788.797	492.54
788.978	445.43
789.159	472.06
789.34	539.64
789.522	443.39
789.703	490.49
789.884	476.15
790.065	435.19
790.246	506.87
790.427	437.24
790.607	435.19
790.788	543.74
790.969	451.58
791.15	496.63
791.331	470.01
791.512	431.1
791.693	441.34
791.874	373.75
792.054	556.02
792.235	484.34
792.416	416.76
792.597	357.37
792.778	457.72
792.958	433.15
793.139	359.42
793.32	359.42
793.5	388.09
793.681	465.91
793.862	347.13
794.042	375.8
794.223	414.71
794.404	383.99
794.584	345.08
794.765	410.62
794.945	353.27
795.126	408.57
795.306	328.7
795.487	478.2
795.667	338.94
795.848	383.99
796.028	424.95
796.209	394.23
796.389	406.52
796.57	427
796.75	324.6
796.93	361.47
797.111	410.62
797.291	392.19
797.471	357.37
797.652	377.85
797.832	390.14
798.012	408.57
798.192	345.08
798.373	304.12
798.553	365.56
798.733	308.22
798.913	304.12
799.093	316.41
799.274	302.08
799.454	340.99
799.634	269.31
799.814	369.66
799.994	396.28
800.174	349.18
800.354	275.45
800.534	263.16
800.714	373.75
800.894	328.7
801.074	263.16
801.254	287.74
801.434	367.61
801.614	289.79
801.794	295.93
801.974	791.54
802.154	328.7
802.334	312.32
802.514	238.59
802.693	287.74
802.873	304.12
803.053	336.89
803.233	320.51
803.413	295.93
803.592	218.11
803.772	293.88
803.952	291.84
804.131	189.44
804.311	275.45
804.491	283.64
804.67	203.77
804.85	261.12
805.03	230.4
805.209	302.08
805.389	248.83
805.568	220.16
805.748	201.72
805.928	189.44
806.107	228.35
806.287	250.88
806.466	244.73
806.646	279.55
806.825	132.09
807.004	287.74
807.184	263.16
807.363	211.96
807.543	207.87
807.722	277.5
807.901	338.94
808.081	263.16
808.26	181.25
808.439	197.63
808.619	310.27
808.798	250.88
808.977	257.02
809.156	265.21
809.336	273.4
809.515	226.3
809.694	189.44
809.873	203.77
810.052	295.93
810.231	222.2
810.411	246.78
810.59	254.97
810.769	252.92
810.948	291.84
811.127	128
811.306	236.54
811.485	218.11
811.664	246.78
811.843	201.72
812.022	236.54
812.201	267.26
812.38	140.29
812.559	230.4
812.737	187.39
812.916	144.38
813.095	152.57
813.274	281.6
813.453	246.78
813.632	201.72
813.811	222.2
813.989	195.58
814.168	150.53
814.347	181.25
814.526	160.77
814.704	214.01
814.883	189.44
815.062	222.2
815.24	195.58
815.419	195.58
815.598	205.82
815.776	164.86
815.955	244.73
816.133	148.48
816.312	156.67
816.49	146.43
816.669	197.63
816.847	224.25
817.026	128
817.204	132.09
817.383	144.38
817.561	160.77
817.74	132.09
817.918	189.44
818.097	168.96
818.275	144.38
818.453	173.05
818.632	168.96
818.81	132.09
818.988	195.58
819.167	140.29
819.345	107.52
819.523	103.42
819.701	87.04
819.879	95.23
820.058	142.33
820.236	199.68
820.414	175.1
820.592	142.33
820.77	130.05
820.948	136.19
821.127	187.39
821.305	224.25
821.483	128
821.661	234.49
821.839	107.52
822.017	115.71
822.195	62.46
822.373	132.09
822.551	107.52
822.729	185.34
822.907	123.9
823.085	138.24
823.262	113.66
823.44	209.92
823.618	87.04
823.796	168.96
823.974	-25.6
824.152	128
824.329	160.77
824.507	80.89
824.685	140.29
824.863	150.53
825.04	58.37
825.218	207.87
825.396	156.67
825.574	164.86
825.751	111.61
825.929	136.19
826.107	115.71
826.284	156.67
826.462	91.13
826.639	148.48
826.817	93.18
826.994	125.95
827.172	150.53
827.349	181.25
827.527	72.7
827.704	121.85
827.882	293.88
828.059	146.43
828.237	76.8
828.414	152.57
828.591	54.27
828.769	58.37
828.946	128
829.124	115.71
829.301	142.33
829.478	84.99
829.655	154.62
829.833	74.75
830.01	82.94
830.187	168.96
830.364	132.09
830.542	146.43
830.719	238.59
830.896	197.63
831.073	46.08
831.25	37.89
831.427	97.28
831.604	97.28
831.782	76.8
831.959	166.91
832.136	80.89
832.313	78.85
832.49	62.46
832.667	58.37
832.844	37.89
833.021	125.95
833.198	132.09
833.374	78.85
833.551	78.85
833.728	25.6
833.905	66.56
834.082	113.66
834.259	181.25
834.436	142.33
834.612	80.89
834.789	132.09
834.966	74.75
835.143	37.89
835.319	48.13
835.496	197.63
835.673	99.33
835.85	117.76
836.026	87.04
836.203	99.33
836.38	3.07
836.556	144.38
836.733	-33.79
836.909	168.96
837.086	82.94
837.262	21.5
837.439	72.7
837.616	95.23
837.792	115.71
837.968	78.85
838.145	46.08
838.321	74.75
838.498	50.18
838.674	99.33
838.851	105.47
839.027	89.09
839.203	171.01
839.38	78.85
839.556	140.29
839.732	60.42
839.909	62.46
840.085	117.76
840.261	23.55
840.437	87.04
840.614	52.22
840.79	99.33
840.966	-1.02
841.142	33.79
841.318	52.22
841.494	132.09
841.671	97.28
841.847	1.02
842.023	107.52
842.199	95.23
842.375	52.22
842.551	80.89
842.727	25.6
842.903	44.03
843.079	91.13
843.255	19.46
843.431	128
843.607	13.31
843.783	58.37
843.959	95.23
844.134	91.13
844.31	66.56
844.486	33.79
844.662	52.22
844.838	13.31
845.013	107.52
845.189	41.98
845.365	113.66
845.541	74.75
845.716	70.65
845.892	152.57
846.068	95.23
846.244	27.65
846.419	121.85
846.595	-1.02
846.77	31.74
846.946	115.71
847.122	15.36
847.297	17.41
847.473	89.09
847.648	-1.02
847.824	37.89
847.999	25.6
848.175	-7.17
848.35	39.94
848.526	105.47
848.701	64.51
848.876	48.13
849.052	33.79
849.227	-3.07
849.403	50.18
849.578	64.51
849.753	-27.65
849.929	99.33
850.104	19.46
850.279	33.79
850.454	62.46
850.63	25.6
850.805	152.57
850.98	46.08
851.155	27.65
851.33	82.94
851.505	1.02
851.681	132.09
851.856	-3.07
852.031	-7.17
852.206	76.8
852.381	87.04
852.556	121.85
852.731	117.76
852.906	23.55
853.081	29.7
853.256	80.89
853.431	17.41
853.606	7.17
853.781	-31.74
853.956	37.89
854.131	54.27
854.305	-7.17
854.48	-35.84
854.655	37.89
854.83	3.07
855.005	17.41
855.18	33.79
855.354	41.98
855.529	74.75
855.704	66.56
855.879	52.22
856.053	48.13
856.228	25.6
856.403	66.56
856.577	50.18
856.752	9.22
856.926	54.27
857.101	48.13
857.276	52.22
857.45	99.33
857.625	21.5
857.799	72.7
857.974	-39.94
858.148	-3.07
858.323	21.5
858.497	-41.98
858.672	-68.61
858.846	9.22
859.02	50.18
859.195	39.94
859.369	70.65
859.543	66.56
859.718	54.27
859.892	-9.22
860.066	39.94
860.241	1.02
860.415	19.46
860.589	9.22
860.763	-17.41
860.938	-15.36
861.112	37.89
861.286	9.22
861.46	29.7
861.634	5.12
861.808	66.56
861.982	-5.12
862.157	-3.07
862.331	17.41
862.505	-11.26
862.679	44.03
862.853	89.09
863.027	17.41
863.201	101.37
863.375	-15.36
863.549	25.6
863.722	-3.07
863.896	60.42
864.07	37.89
864.244	91.13
864.418	7.17
864.592	-46.08
864.766	-17.41
864.939	60.42
865.113	7.17
865.287	7.17
865.461	-84.99
865.634	50.18
865.808	-23.55
865.982	35.84
866.156	1.02
866.329	33.79
866.503	11.26
866.676	17.41
866.85	-7.17
867.024	-15.36
867.197	-13.31
867.371	46.08
867.544	-3.07
867.718	-17.41
867.891	97.28
868.065	-7.17
868.238	19.46
868.412	99.33
868.585	-29.7
868.759	33.79
868.932	11.26
869.105	-72.7
869.279	50.18
869.452	19.46
869.625	25.6
869.799	44.03
869.972	-1.02
870.145	-33.79
870.319	44.03
870.492	11.26
870.665	-39.94
870.838	21.5
871.011	5.12
871.185	-46.08
871.358	-7.17
871.531	25.6
871.704	5.12
871.877	5.12
872.05	-37.89
872.223	-17.41
872.396	-46.08
872.569	41.98
872.742	21.5
872.915	-1.02
873.088	-19.46
873.261	-27.65
873.434	7.17
873.607	-17.41
873.78	21.5
873.953	25.6
874.126	62.46
874.299	3.07
874.471	5.12
874.644	-33.79
874.817	-50.18
874.99	70.65
875.163	5.12
875.335	58.37
875.508	-87.04
875.681	48.13
875.853	-9.22
876.026	72.7
876.199	-13.31
876.371	3.07
876.544	-27.65
876.717	39.94
876.889	-37.89
877.062	-29.7
877.234	-39.94
877.407	17.41
877.579	-15.36
877.752	50.18
877.924	-5.12
878.097	9.22
878.269	-15.36
878.442	54.27
878.614	52.22
878.786	-11.26
878.959	35.84
879.131	21.5
879.303	-68.61
879.476	-15.36
879.648	33.79
879.82	1.02
879.993	-35.84
880.165	17.41
880.337	-21.5
880.509	21.5
880.681	17.41
880.854	64.51
881.026	11.26
881.198	29.7
881.37	-17.41
881.542	-56.32
881.714	15.36
881.886	19.46
882.058	72.7
882.23	-11.26
882.402	31.74
882.574	5.12
882.746	41.98
882.918	33.79
883.09	19.46
883.262	1.02
883.434	13.31
883.606	-64.51
883.778	105.47
883.95	-25.6
884.122	3.07
884.293	35.84
884.465	1.02
884.637	1.02
884.809	27.65
884.98	-11.26
885.152	1.02
885.324	7.17
885.496	-48.13
885.667	-9.22
885.839	-11.26
886.011	82.94
886.182	60.42
886.354	-41.98
886.525	-17.41
886.697	76.8
886.869	-31.74
887.04	27.65
887.212	39.94
887.383	25.6
887.555	-72.7
887.726	-72.7
887.897	-9.22
888.069	21.5
888.24	-33.79
888.412	13.31
888.583	-9.22
888.754	-25.6
888.926	-60.42
889.097	17.41
889.268	-15.36
889.44	46.08
889.611	-31.74
889.782	-13.31
889.953	-41.98
890.125	62.46
890.296	-56.32
890.467	-3.07
890.638	-52.22
890.809	15.36
890.98	-60.42
891.151	-29.7
891.323	48.13
891.494	9.22
891.665	15.36
891.836	-39.94
892.007	15.36
892.178	-23.55
892.349	37.89
892.52	-7.17
892.691	-48.13
892.862	-66.56
893.032	-41.98
893.203	-25.6
893.374	3.07
893.545	48.13
893.716	33.79
893.887	54.27
894.057	41.98
894.228	74.75
894.399	-121.85
894.57	58.37
894.74	5.12
894.911	3.07
895.082	-7.17
895.253	68.61
895.423	-9.22
895.594	-25.6
895.764	-64.51
895.935	-13.31
896.106	-13.31
896.276	-50.18
896.447	29.7
896.617	-56.32
896.788	-13.31
896.958	7.17
897.129	-56.32
897.299	-7.17
897.47	23.55
897.64	15.36
897.81	-50.18
897.981	37.89
898.151	-17.41
898.322	60.42
898.492	-3.07
898.662	-37.89
898.832	-17.41
899.003	-31.74
899.173	62.46
899.343	64.51
899.513	-17.41
