Data from USB4F104151__160__10-27-10-431.txt Node

Date: Wed Mar 12 10:27:10 EDT 2025
User: louis
Spectrometer: USB4F10415
Trigger mode: 4
Integration Time (sec): 3.000000E-2
Scans to average: 1
Electric dark correction enabled: true
Nonlinearity correction enabled: false
Boxcar width: 0
XAxis mode: Wavelengths
Number of Pixels in Spectrum: 3648
>>>>>Begin Spectral Data<<<<<
178.204	-103.42
178.424	-103.42
178.644	-103.42
178.864	-84.99
179.084	-199.68
179.304	-62.46
179.524	39.94
179.744	-21.5
179.964	87.04
180.184	-35.84
180.404	-48.13
180.624	27.65
180.844	-1.02
181.064	-5.12
181.283	7.17
181.503	13.31
181.723	-1.02
181.943	-48.13
182.163	72.7
182.383	54.27
182.602	-1.02
182.822	62.46
183.042	66.56
183.262	-7.17
183.482	23.55
183.701	-35.84
183.921	25.6
184.141	35.84
184.361	25.6
184.58	52.22
184.8	103.42
185.02	50.18
185.239	97.28
185.459	39.94
185.679	56.32
185.898	5.12
186.118	74.75
186.338	19.46
186.557	74.75
186.777	-11.26
186.997	70.65
187.216	15.36
187.436	-3.07
187.655	52.22
187.875	48.13
188.095	44.03
188.314	44.03
188.534	68.61
188.753	-13.31
188.973	109.57
189.192	66.56
189.412	70.65
189.631	89.09
189.851	1.02
190.07	60.42
190.29	-68.61
190.509	-3.07
190.729	-7.17
190.948	58.37
191.168	138.24
191.387	56.32
191.607	41.98
191.826	15.36
192.045	19.46
192.265	31.74
192.484	56.32
192.704	70.65
192.923	41.98
193.142	58.37
193.362	39.94
193.581	70.65
193.8	39.94
194.02	54.27
194.239	-17.41
194.458	35.84
194.678	-17.41
194.897	60.42
195.116	23.55
195.335	-54.27
195.555	68.61
195.774	-1.02
195.993	-11.26
196.212	-15.36
196.432	74.75
196.651	52.22
196.87	11.26
197.089	66.56
197.308	46.08
197.528	41.98
197.747	-19.46
197.966	50.18
198.185	105.47
198.404	7.17
198.623	3.07
198.842	3.07
199.062	97.28
199.281	78.85
199.5	-9.22
199.719	3.07
199.938	31.74
200.157	31.74
200.376	89.09
200.595	68.61
200.814	107.52
201.033	50.18
201.252	-5.12
201.471	13.31
201.69	148.48
201.909	-1.02
202.128	80.89
202.347	87.04
202.566	13.31
202.785	-29.7
203.004	-9.22
203.223	35.84
203.442	35.84
203.661	-19.46
203.879	41.98
204.098	54.27
204.317	-29.7
204.536	3.07
204.755	39.94
204.974	62.46
205.193	89.09
205.411	35.84
205.63	78.85
205.849	41.98
206.068	41.98
206.287	80.89
206.505	72.7
206.724	29.7
206.943	-44.03
207.162	13.31
207.381	68.61
207.599	23.55
207.818	-9.22
208.037	72.7
208.255	21.5
208.474	68.61
208.693	5.12
208.911	91.13
209.13	-13.31
209.349	76.8
209.567	9.22
209.786	93.18
210.005	-29.7
210.223	-7.17
210.442	35.84
210.661	27.65
210.879	89.09
211.098	109.57
211.316	33.79
211.535	76.8
211.753	-21.5
211.972	-29.7
212.191	-33.79
212.409	29.7
212.628	46.08
212.846	109.57
213.065	72.7
213.283	39.94
213.502	84.99
213.72	-41.98
213.938	15.36
214.157	46.08
214.375	41.98
214.594	46.08
214.812	37.89
215.031	25.6
215.249	-1.02
215.467	7.17
215.686	72.7
215.904	-21.5
216.122	19.46
216.341	-13.31
216.559	-48.13
216.778	7.17
216.996	72.7
217.214	23.55
217.432	46.08
217.651	64.51
217.869	23.55
218.087	29.7
218.306	125.95
218.524	15.36
218.742	-3.07
218.96	31.74
219.179	33.79
219.397	7.17
219.615	72.7
219.833	44.03
220.051	-25.6
220.27	103.42
220.488	50.18
220.706	33.79
220.924	-5.12
221.142	76.8
221.36	-21.5
221.578	58.37
221.796	44.03
222.015	56.32
222.233	46.08
222.451	27.65
222.669	39.94
222.887	76.8
223.105	76.8
223.323	21.5
223.541	15.36
223.759	66.56
223.977	5.12
224.195	54.27
224.413	76.8
224.631	15.36
224.849	11.26
225.067	91.13
225.285	19.46
225.503	-35.84
225.721	-27.65
225.939	87.04
226.157	56.32
226.375	111.61
226.592	41.98
226.81	-11.26
227.028	23.55
227.246	89.09
227.464	46.08
227.682	-19.46
227.9	23.55
228.117	89.09
228.335	31.74
228.553	21.5
228.771	60.42
228.989	105.47
229.206	125.95
229.424	-9.22
229.642	-21.5
229.86	-52.22
230.077	27.65
230.295	31.74
230.513	84.99
230.731	50.18
230.948	78.85
231.166	23.55
231.384	-25.6
231.601	3.07
231.819	95.23
232.037	-25.6
232.254	-74.75
232.472	39.94
232.689	48.13
232.907	64.51
233.125	62.46
233.342	44.03
233.56	-37.89
233.777	-17.41
233.995	11.26
234.213	70.65
234.43	148.48
234.648	89.09
234.865	23.55
235.083	109.57
235.3	64.51
235.518	27.65
235.735	-1.02
235.953	113.66
236.17	7.17
236.388	29.7
236.605	5.12
236.822	80.89
237.04	5.12
237.257	109.57
237.475	11.26
237.692	64.51
237.909	-21.5
238.127	5.12
238.344	84.99
238.562	37.89
238.779	7.17
238.996	48.13
239.214	15.36
239.431	52.22
239.648	35.84
239.865	87.04
240.083	35.84
240.3	78.85
240.517	-50.18
240.735	82.94
240.952	66.56
241.169	37.89
241.386	44.03
241.603	19.46
241.821	-19.46
242.038	60.42
242.255	46.08
242.472	23.55
242.689	60.42
242.907	87.04
243.124	68.61
243.341	44.03
243.558	80.89
243.775	44.03
243.992	-31.74
244.209	5.12
244.426	39.94
244.643	84.99
244.86	29.7
245.078	15.36
245.295	37.89
245.512	-17.41
245.729	76.8
245.946	60.42
246.163	23.55
246.38	-11.26
246.597	11.26
246.814	29.7
247.031	52.22
247.248	72.7
247.464	62.46
247.681	31.74
247.898	39.94
248.115	80.89
248.332	23.55
248.549	70.65
248.766	15.36
248.983	68.61
249.2	37.89
249.417	72.7
249.633	3.07
249.85	15.36
250.067	33.79
250.284	123.9
250.501	39.94
250.717	52.22
250.934	46.08
251.151	-44.03
251.368	72.7
251.585	1.02
251.801	13.31
252.018	5.12
252.235	-3.07
252.451	62.46
252.668	60.42
252.885	111.61
253.102	35.84
253.318	19.46
253.535	13.31
253.752	-1.02
253.968	-21.5
254.185	3.07
254.401	115.71
254.618	78.85
254.835	56.32
255.051	74.75
255.268	82.94
255.484	23.55
255.701	-11.26
255.917	48.13
256.134	37.89
256.351	31.74
256.567	21.5
256.784	82.94
257	-19.46
257.217	5.12
257.433	64.51
257.65	41.98
257.866	74.75
258.082	25.6
258.299	5.12
258.515	64.51
258.732	15.36
258.948	7.17
259.165	56.32
259.381	-7.17
259.597	31.74
259.814	-27.65
260.03	107.52
260.246	70.65
260.463	64.51
260.679	27.65
260.895	21.5
261.112	58.37
261.328	89.09
261.544	15.36
261.761	89.09
261.977	-17.41
262.193	-29.7
262.409	11.26
262.626	25.6
262.842	19.46
263.058	11.26
263.274	31.74
263.49	35.84
263.707	52.22
263.923	-5.12
264.139	19.46
264.355	-9.22
264.571	33.79
264.787	64.51
265.004	95.23
265.22	-3.07
265.436	91.13
265.652	103.42
265.868	-7.17
266.084	-25.6
266.3	11.26
266.516	-9.22
266.732	33.79
266.948	58.37
267.164	11.26
267.38	64.51
267.596	72.7
267.812	93.18
268.028	76.8
268.244	35.84
268.46	37.89
268.676	9.22
268.892	-9.22
269.108	-11.26
269.324	-21.5
269.54	78.85
269.756	21.5
269.972	-3.07
270.188	56.32
270.403	29.7
270.619	-5.12
270.835	-9.22
271.051	54.27
271.267	111.61
271.483	52.22
271.698	7.17
271.914	-1.02
272.13	23.55
272.346	35.84
272.562	37.89
272.777	62.46
272.993	44.03
273.209	-19.46
273.425	52.22
273.64	-23.55
273.856	97.28
274.072	41.98
274.287	-1.02
274.503	95.23
274.719	64.51
274.934	52.22
275.15	-52.22
275.366	25.6
275.581	-1.02
275.797	44.03
276.012	-25.6
276.228	93.18
276.444	-33.79
276.659	66.56
276.875	13.31
277.09	3.07
277.306	46.08
277.521	60.42
277.737	-9.22
277.952	58.37
278.168	13.31
278.383	60.42
278.599	44.03
278.814	21.5
279.03	58.37
279.245	37.89
279.461	3.07
279.676	-11.26
279.892	39.94
280.107	125.95
280.322	-5.12
280.538	103.42
280.753	-27.65
280.969	-5.12
281.184	-11.26
281.399	93.18
281.615	62.46
281.83	35.84
282.045	5.12
282.26	-13.31
282.476	56.32
282.691	111.61
282.906	37.89
283.122	39.94
283.337	-27.65
283.552	113.66
283.767	19.46
283.983	50.18
284.198	52.22
284.413	35.84
284.628	-19.46
284.843	91.13
285.058	60.42
285.274	87.04
285.489	-19.46
285.704	21.5
285.919	25.6
286.134	41.98
286.349	39.94
286.564	39.94
286.779	31.74
286.995	-9.22
287.21	11.26
287.425	9.22
287.64	9.22
287.855	29.7
288.07	7.17
288.285	123.9
288.5	35.84
288.715	33.79
288.93	9.22
289.145	50.18
289.36	84.99
289.575	93.18
289.79	68.61
290.004	17.41
290.219	68.61
290.434	-64.51
290.649	44.03
290.864	31.74
291.079	19.46
291.294	-11.26
291.509	-87.04
291.724	78.85
291.938	119.81
292.153	84.99
292.368	99.33
292.583	17.41
292.798	11.26
293.012	13.31
293.227	50.18
293.442	-19.46
293.657	91.13
293.871	95.23
294.086	66.56
294.301	60.42
294.516	5.12
294.73	33.79
294.945	-52.22
295.16	5.12
295.374	29.7
295.589	107.52
295.804	-3.07
296.018	5.12
296.233	70.65
296.447	48.13
296.662	78.85
296.877	56.32
297.091	1.02
297.306	11.26
297.52	3.07
297.735	-3.07
297.949	64.51
298.164	35.84
298.378	3.07
298.593	17.41
298.807	-72.7
299.022	15.36
299.236	39.94
299.451	-5.12
299.665	13.31
299.88	97.28
300.094	35.84
300.309	-13.31
300.523	35.84
300.737	72.7
300.952	-25.6
301.166	33.79
301.381	-3.07
301.595	25.6
301.809	35.84
302.024	58.37
302.238	27.65
302.452	64.51
302.667	46.08
302.881	46.08
303.095	44.03
303.309	21.5
303.524	54.27
303.738	35.84
303.952	-25.6
304.166	15.36
304.381	17.41
304.595	66.56
304.809	-9.22
305.023	74.75
305.237	-27.65
305.452	23.55
305.666	39.94
305.88	48.13
306.094	35.84
306.308	52.22
306.522	25.6
306.736	54.27
306.95	62.46
307.164	95.23
307.379	21.5
307.593	72.7
307.807	84.99
308.021	31.74
308.235	29.7
308.449	29.7
308.663	39.94
308.877	101.37
309.091	29.7
309.305	39.94
309.519	-5.12
309.733	84.99
309.947	-21.5
310.161	66.56
310.374	72.7
310.588	33.79
310.802	68.61
311.016	7.17
311.23	7.17
311.444	68.61
311.658	93.18
311.872	97.28
312.085	72.7
312.299	-11.26
312.513	97.28
312.727	23.55
312.941	80.89
313.154	105.47
313.368	76.8
313.582	72.7
313.796	80.89
314.009	15.36
314.223	89.09
314.437	78.85
314.651	39.94
314.864	-1.02
315.078	48.13
315.292	5.12
315.505	19.46
315.719	13.31
315.933	-27.65
316.146	130.05
316.36	-25.6
316.573	29.7
316.787	15.36
317.001	33.79
317.214	80.89
317.428	72.7
317.641	-5.12
317.855	31.74
318.068	9.22
318.282	48.13
318.495	64.51
318.709	48.13
318.922	68.61
319.136	76.8
319.349	7.17
319.563	13.31
319.776	48.13
319.99	3.07
320.203	91.13
320.417	13.31
320.63	130.05
320.843	35.84
321.057	13.31
321.27	21.5
321.483	76.8
321.697	33.79
321.91	95.23
322.124	76.8
322.337	39.94
322.55	54.27
322.763	80.89
322.977	13.31
323.19	-11.26
323.403	5.12
323.617	29.7
323.83	72.7
324.043	33.79
324.256	19.46
324.469	11.26
324.683	64.51
324.896	39.94
325.109	91.13
325.322	-37.89
325.535	60.42
325.748	87.04
325.962	48.13
326.175	78.85
326.388	19.46
326.601	84.99
326.814	48.13
327.027	95.23
327.24	125.95
327.453	-21.5
327.666	64.51
327.879	15.36
328.092	17.41
328.305	52.22
328.518	68.61
328.731	-7.17
328.944	13.31
329.157	87.04
329.37	39.94
329.583	56.32
329.796	111.61
330.009	66.56
330.222	138.24
330.435	35.84
330.648	15.36
330.861	60.42
331.073	66.56
331.286	82.94
331.499	31.74
331.712	37.89
331.925	-31.74
332.138	19.46
332.35	41.98
332.563	113.66
332.776	54.27
332.989	62.46
333.202	35.84
333.414	39.94
333.627	39.94
333.84	-33.79
334.053	31.74
334.265	46.08
334.478	7.17
334.691	74.75
334.903	56.32
335.116	-1.02
335.329	-11.26
335.541	39.94
335.754	17.41
335.966	60.42
336.179	37.89
336.392	27.65
336.604	3.07
336.817	39.94
337.029	121.85
337.242	31.74
337.454	68.61
337.667	11.26
337.88	68.61
338.092	78.85
338.305	50.18
338.517	15.36
338.729	152.57
338.942	27.65
339.154	25.6
339.367	-9.22
339.579	80.89
339.792	13.31
340.004	-13.31
340.217	91.13
340.429	64.51
340.641	37.89
340.854	50.18
341.066	37.89
341.278	80.89
341.491	97.28
341.703	68.61
341.915	54.27
342.128	117.76
342.34	64.51
342.552	33.79
342.764	46.08
342.977	72.7
343.189	9.22
343.401	37.89
343.613	-5.12
343.826	29.7
344.038	3.07
344.25	123.9
344.462	19.46
344.674	72.7
344.886	-13.31
345.099	117.76
345.311	23.55
345.523	80.89
345.735	1.02
345.947	33.79
346.159	-1.02
346.371	44.03
346.583	-41.98
346.795	109.57
347.007	-5.12
347.219	105.47
347.431	134.14
347.643	60.42
347.855	35.84
348.067	50.18
348.279	-58.37
348.491	17.41
348.703	15.36
348.915	35.84
349.127	66.56
349.339	52.22
349.551	3.07
349.763	48.13
349.975	-19.46
350.187	31.74
350.399	70.65
350.61	17.41
350.822	91.13
351.034	37.89
351.246	44.03
351.458	60.42
351.669	70.65
351.881	19.46
352.093	31.74
352.305	31.74
352.517	72.7
352.728	27.65
352.94	11.26
353.152	37.89
353.363	23.55
353.575	68.61
353.787	95.23
353.999	78.85
354.21	80.89
354.422	11.26
354.633	68.61
354.845	39.94
355.057	93.18
355.268	87.04
355.48	50.18
355.692	46.08
355.903	39.94
356.115	62.46
356.326	25.6
356.538	113.66
356.749	105.47
356.961	37.89
357.172	3.07
357.384	44.03
357.595	140.29
357.807	39.94
358.018	52.22
358.23	76.8
358.441	76.8
358.653	130.05
358.864	35.84
359.075	72.7
359.287	44.03
359.498	80.89
359.709	70.65
359.921	23.55
360.132	41.98
360.344	97.28
360.555	78.85
360.766	82.94
360.977	-48.13
361.189	50.18
361.4	15.36
361.611	52.22
361.823	113.66
362.034	60.42
362.245	74.75
362.456	87.04
362.667	31.74
362.879	35.84
363.09	21.5
363.301	136.19
363.512	15.36
363.723	11.26
363.935	5.12
364.146	5.12
364.357	84.99
364.568	68.61
364.779	48.13
364.99	87.04
365.201	21.5
365.412	130.05
365.623	-89.09
365.834	58.37
366.045	62.46
366.256	39.94
366.467	5.12
366.678	72.7
366.889	9.22
367.1	105.47
367.311	82.94
367.522	-35.84
367.733	62.46
367.944	95.23
368.155	64.51
368.366	46.08
368.577	76.8
368.788	29.7
368.999	109.57
369.209	105.47
369.42	91.13
369.631	101.37
369.842	31.74
370.053	44.03
370.264	15.36
370.474	17.41
370.685	72.7
370.896	99.33
371.107	132.09
371.317	-11.26
371.528	60.42
371.739	52.22
371.95	39.94
372.16	68.61
372.371	37.89
372.582	-29.7
372.792	46.08
373.003	95.23
373.214	119.81
373.424	84.99
373.635	17.41
373.846	132.09
374.056	62.46
374.267	60.42
374.477	93.18
374.688	162.81
374.898	103.42
375.109	35.84
375.319	74.75
375.53	68.61
375.74	80.89
375.951	97.28
376.161	54.27
376.372	107.52
376.582	56.32
376.793	17.41
377.003	-25.6
377.214	70.65
377.424	5.12
377.635	111.61
377.845	-13.31
378.055	66.56
378.266	39.94
378.476	7.17
378.686	80.89
378.897	142.33
379.107	25.6
379.317	35.84
379.528	48.13
379.738	113.66
379.948	80.89
380.158	89.09
380.369	76.8
380.579	132.09
380.789	72.7
380.999	1.02
381.21	113.66
381.42	142.33
381.63	70.65
381.84	80.89
382.05	-7.17
382.261	29.7
382.471	134.14
382.681	76.8
382.891	41.98
383.101	80.89
383.311	82.94
383.521	31.74
383.731	70.65
383.941	41.98
384.151	91.13
384.361	52.22
384.571	-3.07
384.781	52.22
384.991	80.89
385.201	121.85
385.411	68.61
385.621	-31.74
385.831	82.94
386.041	68.61
386.251	64.51
386.461	17.41
386.671	31.74
386.881	-5.12
387.091	66.56
387.301	48.13
387.511	113.66
387.72	138.24
387.93	62.46
388.14	-19.46
388.35	27.65
388.56	62.46
388.769	56.32
388.979	48.13
389.189	-7.17
389.399	-1.02
389.609	99.33
389.818	115.71
390.028	89.09
390.238	95.23
390.447	84.99
390.657	44.03
390.867	27.65
391.076	9.22
391.286	113.66
391.496	109.57
391.705	56.32
391.915	93.18
392.125	113.66
392.334	66.56
392.544	121.85
392.753	103.42
392.963	-5.12
393.172	105.47
393.382	84.99
393.591	128
393.801	50.18
394.01	140.29
394.22	84.99
394.429	87.04
394.639	93.18
394.848	60.42
395.058	82.94
395.267	119.81
395.477	160.77
395.686	132.09
395.895	160.77
396.105	181.25
396.314	107.52
396.524	107.52
396.733	33.79
396.942	128
397.152	68.61
397.361	87.04
397.57	111.61
397.78	74.75
397.989	109.57
398.198	185.34
398.407	136.19
398.617	89.09
398.826	15.36
399.035	168.96
399.244	150.53
399.453	140.29
399.663	111.61
399.872	134.14
400.081	76.8
400.29	156.67
400.499	76.8
400.708	115.71
400.917	105.47
401.127	93.18
401.336	123.9
401.545	175.1
401.754	203.77
401.963	109.57
402.172	142.33
402.381	107.52
402.59	173.05
402.799	203.77
403.008	160.77
403.217	146.43
403.426	164.86
403.635	109.57
403.844	140.29
404.053	156.67
404.262	105.47
404.471	224.25
404.68	154.62
404.888	171.01
405.097	203.77
405.306	199.68
405.515	246.78
405.724	209.92
405.933	195.58
406.142	199.68
406.35	193.53
406.559	183.29
406.768	162.81
406.977	261.12
407.185	203.77
407.394	220.16
407.603	228.35
407.812	250.88
408.02	318.46
408.229	281.6
408.438	330.75
408.646	244.73
408.855	269.31
409.064	265.21
409.272	257.02
409.481	300.03
409.69	365.56
409.898	306.17
410.107	353.27
410.315	326.65
410.524	328.7
410.733	318.46
410.941	351.23
411.15	394.23
411.358	318.46
411.567	410.62
411.775	535.54
411.984	412.67
412.192	580.6
412.401	459.77
412.609	586.74
412.818	564.22
413.026	490.49
413.234	519.16
413.443	568.31
413.651	537.59
413.86	596.98
414.068	670.71
414.276	723.96
414.485	683
414.693	752.63
414.901	871.41
415.11	809.97
415.318	785.4
415.526	891.89
415.734	822.26
415.943	875.51
416.151	807.92
416.359	904.18
416.567	830.45
416.776	1049.58
416.984	977.91
417.192	1057.78
417.4	1027.06
417.608	1031.15
417.817	1119.21
418.025	1205.23
418.233	1256.43
418.441	1281
418.649	1238
418.857	1393.64
419.065	1504.23
419.273	1424.36
419.481	1418.22
419.689	1551.34
419.897	1620.97
420.105	1651.69
420.313	1659.88
420.521	1711.08
420.729	1709.03
420.937	1846.24
421.145	1768.42
421.353	1864.68
421.561	2089.95
421.769	2106.34
421.977	2141.15
422.185	2100.19
422.393	2374.62
422.601	2485.21
422.809	2452.44
423.017	2522.07
423.224	2501.59
423.432	2663.38
423.64	2683.86
423.848	3029.97
424.056	2898.9
424.263	3109.84
424.471	3099.6
424.679	3081.17
424.887	3460.04
425.094	3341.26
425.302	3521.48
425.51	3523.53
425.718	3611.59
425.925	3705.8
426.133	3836.87
426.341	4070.34
426.548	4209.6
426.756	4260.8
426.964	4146.11
427.171	4385.73
427.379	4783.03
427.586	4619.19
427.794	4719.54
428.001	5002.16
428.209	5321.65
428.417	5215.15
428.624	5700.52
428.832	5532.59
429.039	5606.31
429.247	5551.02
429.454	6003.62
429.662	6474.65
429.869	5964.71
430.076	6347.68
430.284	6478.75
430.491	6560.67
430.699	7013.27
430.906	7140.24
431.114	7101.33
431.321	7293.84
431.528	7480.21
431.736	7916.42
431.943	8303.49
432.15	8014.73
432.358	8170.37
432.565	8547.2
432.772	8543.1
432.979	8885.11
433.187	9270.13
433.394	9163.64
433.601	9692.01
433.808	9775.98
434.016	9771.88
434.223	10126.18
434.43	11035.48
434.637	10683.23
434.844	11062.1
435.052	11408.21
435.259	11365.2
435.466	11488.08
435.673	11191.13
435.88	12084.04
436.087	12548.93
436.294	12874.56
436.501	12528.45
436.708	12512.07
436.915	13286.2
437.122	13556.53
437.329	13685.55
437.537	14164.78
437.743	14019.37
437.95	14281.51
438.157	14740.26
438.364	15328.02
438.571	15235.86
438.778	15590.16
438.985	16941.82
439.192	16239.37
439.399	16857.85
439.606	16370.44
439.813	17330.94
440.02	18418.41
440.227	17912.56
440.433	17672.95
440.64	18565.86
440.847	18217.71
441.054	18655.97
441.261	19884.75
441.467	19798.74
441.674	20253.39
441.881	20871.87
442.088	20726.47
442.294	20861.63
442.501	21459.64
442.708	21545.66
442.914	22301.36
443.121	23198.37
443.328	22692.52
443.534	24435.34
443.741	23599.77
443.948	23288.48
444.154	24949.38
444.361	24629.9
444.568	25043.59
444.774	25076.35
444.981	25279.1
445.187	25891.44
445.394	27101.79
445.6	26372.72
445.807	29311.55
446.013	27906.65
446.22	28158.55
446.426	29596.22
446.633	29540.93
446.839	30687.79
447.046	29667.9
447.252	30972.46
447.459	31244.84
447.665	31007.27
447.871	32518.67
448.078	33372.67
448.284	31777.31
448.491	32926.22
448.697	34148.85
448.903	34656.75
449.11	34689.52
449.316	34062.84
449.522	35021.29
449.728	35607.01
449.935	35639.78
450.141	35748.32
450.347	36524.5
450.553	35572.19
450.76	35670.5
450.966	36725.2
451.172	36823.5
451.378	37253.58
451.584	36684.24
451.791	37702.08
451.997	37026.25
452.203	37999.04
452.409	37888.45
452.615	37511.62
452.821	36258.26
453.027	35867.1
453.233	37411.27
453.44	36139.48
453.646	36549.07
453.852	36622.8
454.058	37294.53
454.264	36004.31
454.47	36985.29
454.676	35709.41
454.882	37257.67
455.088	34097.66
455.294	34281.97
455.5	34744.81
455.705	34984.43
455.911	33745.41
456.117	33059.34
456.323	32363.03
456.529	30896.68
456.735	31945.24
456.941	31103.53
457.147	30976.55
457.352	30104.12
457.558	29389.38
457.764	29766.2
457.97	29078.08
458.176	28379.73
458.381	28140.11
458.587	27271.78
458.793	26839.65
458.999	25588.35
459.204	27064.93
459.41	26985.06
459.616	24889.99
459.821	24832.65
460.027	24748.68
460.233	24378
460.438	23069.34
460.644	23321.24
460.85	22196.91
461.055	22053.55
461.261	22145.71
461.466	20091.6
461.672	19725.01
461.878	21295.8
462.083	19964.62
462.289	19438.3
462.494	19090.14
462.7	18326.25
462.905	17648.37
463.111	18422.5
463.316	18563.81
463.522	18242.28
463.727	18250.47
463.932	18291.43
464.138	17771.25
464.343	17713.91
464.549	17652.47
464.754	17869.55
464.959	17988.33
465.165	17902.32
465.37	17165.05
465.575	16558.85
465.781	17189.63
465.986	17425.14
466.191	16907.01
466.397	16507.65
466.602	15416.08
466.807	15928.08
467.012	16218.89
467.218	16087.82
467.423	16016.14
467.628	16073.48
467.833	16917.25
468.038	16071.43
468.244	15713.04
468.449	16251.66
468.654	15561.49
468.859	15692.56
469.064	15469.33
469.269	15106.84
469.474	15047.45
469.679	15311.64
469.885	14732.06
470.09	15061.79
470.295	14924.57
470.5	14406.44
470.705	14560.03
470.91	14205.74
471.115	14215.98
471.32	14375.72
471.525	14224.17
471.73	14091.05
471.935	14041.9
472.139	13474.61
472.344	13638.45
472.549	13402.93
472.754	13357.88
472.959	13251.38
473.164	12862.27
473.369	12684.09
473.574	13101.88
473.778	13093.69
473.983	12544.83
474.188	12741.44
474.393	12053.32
474.598	12272.45
474.802	12241.73
475.007	12139.33
475.212	12165.96
475.417	11869
475.621	11672.4
475.826	11858.76
476.031	11449.17
476.235	11369.3
476.44	11443.03
476.645	11287.38
476.849	11213.65
477.054	11193.17
477.259	10914.65
477.463	10928.99
477.668	10480.48
477.872	10777.44
478.077	10670.94
478.282	10388.32
478.486	10416.99
478.691	10230.63
478.895	10287.97
479.1	10099.56
479.304	10322.79
479.509	9870.19
479.713	10027.88
479.918	9755.5
480.122	9792.36
480.326	9911.14
480.531	9886.57
480.735	9763.69
480.94	9907.05
481.144	10066.79
481.348	9591.66
481.553	9583.47
481.757	9296.75
481.961	9542.51
482.166	9599.85
482.37	9640.81
482.574	9374.58
482.778	9649
482.983	9745.26
483.187	9345.91
483.391	9685.87
483.595	9562.99
483.8	9591.66
484.004	9507.69
484.208	9581.42
484.412	9495.41
484.616	9431.92
484.821	9757.55
485.025	9403.25
485.229	9462.64
485.433	9370.48
485.637	9493.36
485.841	9378.67
486.045	9481.07
486.249	9378.67
486.453	9364.34
486.657	9507.69
486.861	9530.22
487.065	9288.56
487.269	9659.24
487.473	9366.39
487.677	9554.8
487.881	9728.88
488.085	9472.88
488.289	9687.92
488.493	9493.36
488.697	9577.33
488.901	9735.02
489.105	9472.88
489.309	9407.34
489.512	9753.45
489.716	9630.57
489.92	9403.25
490.124	9886.57
490.328	9755.5
490.531	9671.53
490.735	9986.92
490.939	9735.02
491.143	9538.41
491.346	9714.54
491.55	9937.77
491.754	9839.47
491.958	10132.33
492.161	9915.24
492.365	10007.4
492.569	9870.19
492.772	10054.5
492.976	10009.45
493.18	10353.51
493.383	10339.17
493.587	10222.44
493.79	10523.49
493.994	10365.79
494.197	10595.17
494.401	10586.97
494.605	10644.32
494.808	10787.68
495.012	10740.57
495.215	10775.39
495.419	11125.59
495.622	10965.85
495.825	11285.33
496.029	11332.44
496.232	11332.44
496.436	11279.19
496.639	11660.11
496.843	11506.51
497.046	11668.3
497.249	11805.52
497.453	11854.67
497.656	12344.13
497.859	11959.11
498.063	12276.55
498.266	12475.2
498.469	12553.02
498.673	12831.55
498.876	12831.55
499.079	12999.48
499.282	12968.76
499.485	13159.22
499.689	13194.04
499.892	13697.84
500.095	13656.88
500.298	13777.71
500.501	13697.84
500.705	14385.96
500.908	14447.4
501.111	14375.72
501.314	14557.99
501.517	14615.33
501.72	14859.04
501.923	14840.61
502.126	15291.16
502.329	15379.22
502.532	15506.2
502.735	15538.96
502.938	15905.55
503.141	15938.32
503.344	16237.32
503.547	16175.88
503.75	16536.32
503.953	16990.97
504.156	16825.09
504.359	16913.15
504.562	17025.79
504.765	17670.9
504.968	17689.33
505.17	17930.99
505.373	18117.36
505.576	18195.18
505.779	18359.02
505.982	18393.83
506.185	18784.99
506.387	19098.33
506.59	19176.16
506.793	19434.2
506.996	19280.6
507.198	20036.3
507.401	19874.51
507.604	19946.19
507.807	20304.59
508.009	20882.11
508.212	20624.07
508.415	21277.37
508.617	21637.81
508.82	21504.7
509.022	21209.79
509.225	21996.21
509.428	21844.66
509.63	21961.39
509.833	22346.41
510.035	22799.01
510.238	22555.3
510.44	23247.52
510.643	23181.98
510.845	23722.65
511.048	23622.3
511.25	23777.94
511.453	24158.86
511.655	24967.81
511.858	24726.15
512.06	25062.02
512.262	25414.27
512.465	25270.91
512.667	25600.63
512.87	25580.15
513.072	25488
513.274	26088.05
513.477	26651.24
513.679	26573.42
513.881	27075.17
514.084	27390.56
514.286	27560.54
514.488	27689.56
514.69	28316.24
514.893	28318.29
515.095	28461.65
515.297	29125.19
515.499	29035.08
515.701	29340.22
515.904	29250.11
516.106	29823.54
516.308	30128.69
516.51	30480.94
516.712	30636.59
516.914	31046.18
517.116	31443.49
517.318	31697.44
517.52	31394.34
517.722	31752.73
517.925	32371.22
518.127	32086.55
518.329	32768.52
518.531	32811.53
518.733	33214.98
518.935	33368.58
519.136	33567.23
519.338	34388.47
519.54	34273.78
519.742	34875.88
519.944	34570.74
520.146	35467.75
520.348	35459.55
520.55	35498.47
520.752	35725.79
520.954	36768.21
521.155	36377.04
521.357	36901.32
521.559	37020.11
521.761	37566.91
521.963	37388.74
522.164	37843.39
522.366	37534.15
522.568	38289.85
522.77	38392.25
522.971	38904.24
523.173	38666.67
523.375	39215.53
523.576	38842.8
523.778	39176.62
523.98	40067.48
524.181	40366.49
524.383	40186.27
524.584	40438.17
524.786	40479.13
524.988	40472.98
525.189	41005.45
525.391	41066.89
525.592	41230.73
525.794	41832.83
525.995	42027.39
526.197	41656.71
526.398	41836.93
526.6	42545.53
526.801	42332.54
527.003	42549.62
527.204	42770.8
527.406	43186.54
527.607	43057.52
527.808	43483.5
528.01	42983.79
528.211	43446.63
528.412	44058.98
528.614	43948.39
528.815	43977.06
529.016	44671.32
529.218	44245.34
529.419	44290.4
529.62	44196.19
529.822	44177.76
530.023	44542.3
530.224	44497.24
530.425	44585.3
530.626	44319.07
530.828	44513.62
531.029	45365.58
531.23	44804.44
531.431	44663.13
531.632	44998.99
531.833	45146.45
532.035	45304.14
532.236	45269.33
532.437	45533.51
532.638	45064.53
532.839	45310.28
533.04	45572.42
533.241	44847.44
533.442	45582.66
533.643	45510.99
533.844	45394.25
534.045	45986.11
534.246	45451.59
534.447	45699.4
534.648	45578.57
534.849	45826.37
535.05	44992.85
535.251	45830.47
535.451	45267.28
535.652	45723.97
535.853	46070.08
536.054	46012.74
536.255	46018.88
536.456	45541.71
536.657	46661.94
536.857	45887.81
537.058	45500.75
537.259	46080.32
537.46	46233.92
537.66	45900.1
537.861	45930.82
538.062	46317.89
538.263	45918.53
538.463	45781.32
538.664	46020.93
538.865	45885.76
539.065	46285.12
539.266	45619.53
539.466	46213.44
539.667	45377.87
539.868	46176.58
540.068	45564.23
540.269	45674.82
540.469	45932.87
540.67	45621.58
540.87	45912.39
541.071	45762.89
541.271	46231.87
541.472	45711.69
541.672	45846.85
541.873	45572.42
542.073	45490.51
542.274	45697.35
542.474	45781.32
542.675	45261.13
542.875	45717.83
543.075	45785.41
543.276	45285.71
543.476	45893.96
543.676	45490.51
543.877	45617.48
544.077	45482.31
544.277	45265.23
544.478	45592.9
544.678	45842.76
544.878	45816.13
545.078	45947.2
545.279	45191.5
545.479	45535.56
545.679	45771.08
545.879	45601.1
546.079	45928.77
546.28	45687.11
546.48	45193.55
546.68	45777.22
546.88	45799.75
547.08	45418.83
547.28	45424.97
547.48	45371.72
547.68	45306.19
547.88	45216.08
548.081	45478.22
548.281	45439.31
548.481	45046.1
548.681	45666.63
548.881	45355.34
549.081	45394.25
549.28	44996.95
549.48	45457.74
549.68	45033.81
549.88	46137.66
550.08	45236.56
550.28	45652.3
550.48	45232.46
550.68	45553.99
550.88	45189.45
551.08	45179.21
551.279	45203.79
551.479	44699.99
551.679	45478.22
551.879	45236.56
552.079	45424.97
552.278	44958.03
552.478	45285.71
552.678	45295.95
552.878	45498.7
553.077	45285.71
553.277	45072.72
553.477	45416.78
553.676	44607.83
553.876	45007.19
554.076	44781.91
554.275	45037.9
554.475	44321.12
554.674	44874.07
554.874	44974.42
555.074	44781.91
555.273	44693.85
555.473	44968.27
555.672	44450.14
555.872	44704.09
556.071	44794.2
556.271	45175.12
556.47	44413.27
556.67	43977.06
556.869	44237.15
557.068	44573.02
557.268	44630.36
557.467	44380.51
557.667	44327.26
557.866	44024.16
558.065	43868.51
558.265	43999.58
558.464	43821.41
558.663	44548.44
558.863	43796.84
559.062	44294.49
559.261	43379.05
559.461	44378.46
559.66	43286.89
559.859	43811.17
560.058	43309.42
560.258	43557.22
560.457	42895.73
560.656	43706.73
560.855	42998.13
561.054	43393.39
561.253	43278.7
561.453	42981.74
561.652	42852.72
561.851	43381.1
562.05	42934.64
562.249	42725.75
562.448	42781.04
562.647	42934.64
562.846	42744.18
563.045	42701.17
563.244	42230.14
563.443	42858.87
563.642	42156.41
563.841	42357.11
564.04	41914.75
564.239	42459.51
564.438	41673.09
564.637	42336.63
564.836	41824.64
565.035	41718.15
565.234	42144.12
565.432	41816.45
565.631	41490.82
565.83	41922.94
566.029	41539.97
566.228	41226.63
566.427	40915.34
566.625	40937.87
566.824	40839.57
567.023	41386.38
567.222	40300.95
567.42	40984.97
567.619	41107.85
567.818	40280.47
568.016	40305.05
568.215	40667.54
568.414	40241.56
568.612	40405.4
568.811	40149.4
569.01	40479.13
569.208	39717.28
569.407	40051.1
569.605	39498.15
569.804	39672.23
570.002	39512.49
570.201	39641.51
570.4	39236.01
570.598	38928.81
570.797	39025.07
570.995	39055.79
571.193	39313.83
571.392	39322.02
571.59	39068.08
571.789	38623.67
571.987	38650.29
572.186	38746.54
572.384	38523.32
572.582	38588.85
572.781	38539.7
572.979	38050.24
573.177	38101.43
573.376	38085.05
573.574	37974.46
573.772	37953.98
573.971	37939.65
574.169	37767.62
574.367	37568.96
574.565	37503.43
574.763	37525.96
574.962	37337.54
575.16	36921.8
575.358	37212.62
575.556	36811.21
575.754	36952.52
575.952	36225.5
576.151	37212.62
576.349	36698.58
576.547	36975.05
576.745	37011.92
576.943	36454.87
577.141	36348.37
577.339	36434.39
577.537	35918.3
577.735	36295.13
577.933	35887.58
578.131	35987.93
578.329	35992.03
578.527	35590.62
578.725	35750.37
578.923	35615.2
579.121	35574.24
579.319	35531.23
579.516	35611.1
579.714	35637.73
579.912	34998.76
580.11	35340.77
580.308	34810.35
580.506	35084.78
580.704	34454
580.901	34701.81
581.099	35090.92
581.297	34673.13
581.495	34474.48
581.692	34599.41
581.89	34353.65
582.088	34556.4
582.285	34482.67
582.483	34327.03
582.681	34030.07
582.878	33839.61
583.076	33661.44
583.274	34095.61
583.471	33264.13
583.669	33769.98
583.866	33419.78
584.064	33501.7
584.262	33485.31
584.459	33454.59
584.657	33024.52
584.854	33571.33
585.052	32379.41
585.249	32844.3
585.447	33128.97
585.644	32412.18
585.841	32557.58
586.039	32893.45
586.236	32096.79
586.434	32195.09
586.631	32207.38
586.828	32365.07
587.026	32270.87
587.223	32375.31
587.42	31814.17
587.618	32066.07
587.815	31605.28
588.012	31588.89
588.21	31564.32
588.407	31613.47
588.604	31334.95
588.801	31189.54
588.999	31316.51
589.196	31244.84
589.393	31033.89
589.59	30886.44
589.787	31355.43
589.984	30804.52
590.182	30331.44
590.379	30708.27
590.576	30583.34
590.773	30569.01
590.97	30333.49
591.167	30118.45
591.364	29858.36
591.561	30378.54
591.758	30079.54
591.955	29649.47
592.152	30167.6
592.349	29743.67
592.546	29782.59
592.743	29651.52
592.94	29319.74
593.137	29651.52
593.334	29852.22
593.531	29200.96
593.727	29532.73
593.924	29520.45
594.121	28789.32
594.318	29399.62
594.515	28957.25
594.712	29301.31
594.908	28662.35
595.105	28848.71
595.302	28262.99
595.499	28729.93
595.696	28226.13
595.892	28224.08
596.089	28570.19
596.286	28432.97
596.482	28021.33
596.679	27843.16
596.876	27935.32
597.072	27744.86
597.269	27712.09
597.466	27509.34
597.662	28045.91
597.859	27791.96
598.055	27439.71
598.252	27218.53
598.448	27413.09
598.645	27284.06
598.841	27107.94
599.038	27349.6
599.234	27030.12
599.431	26690.15
599.627	26706.54
599.824	26888.81
600.02	26698.34
600.217	26968.68
600.413	26675.82
600.609	26485.36
600.806	26315.37
601.002	26655.34
601.198	26491.5
601.395	26131.06
601.591	26153.58
601.787	26016.37
601.984	26143.35
602.18	26247.79
602.376	26022.51
602.572	25670.26
602.769	25793.14
602.965	25553.53
603.161	25664.12
603.357	25520.76
603.553	25268.86
603.75	25346.69
603.946	25338.49
604.142	25721.46
604.338	24875.65
604.534	24941.19
604.73	24320.65
604.926	24945.28
605.122	24846.98
605.318	24728.2
605.514	24539.79
605.71	24400.52
605.906	24363.66
606.102	24441.48
606.298	23923.35
606.494	24423.05
606.69	24218.25
606.886	24251.02
607.082	23866
607.278	24228.49
607.474	23833.24
607.67	24109.71
607.866	23749.27
608.062	24007.31
608.257	23870.1
608.453	23689.88
608.649	23683.73
608.845	23388.83
609.041	23587.48
609.236	23704.21
609.432	23327.39
609.628	23282.33
609.824	23181.98
610.019	23270.04
610.215	23380.64
610.411	23095.97
610.606	23106.21
610.802	23173.79
610.998	23112.35
611.193	23155.36
611.389	23059.1
611.584	22713
611.78	22702.76
611.976	22721.19
612.171	22667.94
612.367	22778.53
612.562	22913.7
612.758	22305.45
612.953	22325.93
613.149	22602.41
613.344	22430.38
613.539	22831.78
613.735	22348.46
613.93	22545.06
614.126	22160.05
614.321	22457
614.517	22053.55
614.712	21985.97
614.907	22084.27
615.103	22102.7
615.298	21932.72
615.493	22252.2
615.688	21981.87
615.884	22100.65
616.079	21684.92
616.274	21752.5
616.47	21709.49
616.665	21904.05
616.86	21672.63
617.055	21615.29
617.25	21273.28
617.445	21629.62
617.641	21244.6
617.836	21377.72
618.031	21093.05
618.226	21441.21
618.421	20939.46
618.616	21316.28
618.811	20845.25
619.006	21244.6
619.201	20941.5
619.396	20896.45
619.591	20699.84
619.786	20466.38
619.981	20466.38
620.176	20802.24
620.371	20097.74
620.566	20323.02
620.761	20030.16
620.956	20544.2
621.151	19892.94
621.346	19751.63
621.541	19735.25
621.735	20030.16
621.93	19864.27
622.125	19923.66
622.32	19223.26
622.515	19507.93
622.709	19276.51
622.904	19571.41
623.099	19243.74
623.294	19458.78
623.488	19069.66
623.683	18950.88
623.878	18692.83
624.072	18633.44
624.267	18662.12
624.462	18502.37
624.656	18395.88
624.851	18242.28
625.046	18133.74
625.24	18219.75
625.435	17781.49
625.629	17922.8
625.824	17900.27
626.018	17648.37
626.213	17373.94
626.407	17650.42
626.602	17044.22
626.796	17570.55
626.991	17484.53
627.185	17228.54
627.38	16986.88
627.574	16907.01
627.768	16712.45
627.963	17011.45
628.157	16505.6
628.352	16790.27
628.546	16294.66
628.74	16521.99
628.935	16104.2
629.129	16362.25
629.323	16005.9
629.517	16075.53
629.712	15956.75
629.906	15887.12
630.1	15635.22
630.294	15717.14
630.489	15696.66
630.683	15596.31
630.877	15442.71
631.071	15094.55
631.265	15418.13
631.459	15268.63
631.653	15405.84
631.848	14971.68
632.042	15115.03
632.236	15112.99
632.43	14719.78
632.624	14871.33
632.818	14668.58
633.012	14627.62
633.206	14435.11
633.4	14773.02
633.594	14340.9
633.788	14451.49
633.982	14412.58
634.176	14242.6
634.369	14027.56
634.563	14142.25
634.757	13757.23
634.951	13890.35
635.145	13710.13
635.339	13959.98
635.533	13523.76
635.726	13710.13
635.92	13515.57
636.114	13407.03
636.308	13505.33
636.501	13517.62
636.695	13171.51
636.889	13048.63
637.083	13062.97
637.276	12862.27
637.47	12845.88
637.664	12823.36
637.857	12759.87
638.051	12833.6
638.244	12452.67
638.438	12733.25
638.632	12510.02
638.825	12467.01
639.019	12391.23
639.212	12188.49
639.406	12348.23
639.599	12348.23
639.793	12309.32
639.986	11989.83
640.18	12004.17
640.373	11678.54
640.567	11729.74
640.76	11729.74
640.954	11608.91
641.147	11709.26
641.34	11586.38
641.534	11572.05
641.727	11408.21
641.92	11250.52
642.114	11283.28
642.307	11203.41
642.5	11352.91
642.694	11109.21
642.887	10990.42
643.08	11072.34
643.273	11162.45
643.467	10814.3
643.66	10816.35
643.853	10756.96
644.046	10691.42
644.239	10609.5
644.432	10681.18
644.626	10423.14
644.819	10537.82
645.012	10333.03
645.205	10283.88
645.398	10402.66
645.591	9958.25
645.784	10163.04
645.977	10183.52
646.17	10234.72
646.363	9941.86
646.556	10054.5
646.749	9880.43
646.942	9751.4
647.135	9741.16
647.328	9900.9
647.521	9886.57
647.714	9550.7
647.907	9726.83
648.099	9476.98
648.292	9395.06
648.485	9374.58
648.678	9204.6
648.871	9456.5
649.064	9247.6
649.256	9470.83
649.449	9233.27
649.642	9069.43
649.835	8911.74
650.027	9010.04
650.22	8971.13
650.413	8924.02
650.605	8807.29
650.798	8727.42
650.991	8622.97
651.183	8706.94
651.376	8582.01
651.568	8579.97
651.761	8637.31
651.954	8545.15
652.146	8467.33
652.339	8600.44
652.531	8319.87
652.724	8395.65
652.916	8137.6
653.109	8196.99
653.301	8313.73
653.494	8194.95
653.686	8096.64
653.879	8149.89
654.071	8051.59
654.263	7906.18
654.456	7961.48
654.648	7904.14
654.84	7959.43
655.033	7875.46
655.225	7799.69
655.417	7707.53
655.61	7502.73
655.802	7775.11
655.994	7596.94
656.186	7609.23
656.379	7547.79
656.571	7472.01
656.763	7322.51
656.955	7390.1
657.148	7408.53
657.34	7400.34
657.532	7269.27
657.724	7359.38
657.916	7302.03
658.108	7201.68
658.3	7072.66
658.492	7189.39
658.684	6863.77
658.876	7121.81
659.068	7019.41
659.26	7015.32
659.452	6843.29
659.644	6949.78
659.836	6843.29
660.028	6882.2
660.22	6673.31
660.412	6622.11
660.604	6636.44
660.796	6863.77
660.988	6577.05
661.18	6564.76
661.372	6515.61
661.563	6525.85
661.755	6407.07
661.947	6425.5
662.139	6357.92
662.331	6372.25
662.522	6427.55
662.714	6278.05
662.906	6331.3
663.097	6136.74
663.289	6202.27
663.481	6063.01
663.673	5981.09
663.864	6165.41
664.056	5981.09
664.247	6085.54
664.439	5761.96
664.631	5839.78
664.822	5792.68
665.014	5856.17
665.205	5862.31
665.397	5862.31
665.588	5958.57
665.78	5794.73
665.971	5702.57
666.163	5483.44
666.354	5702.57
666.546	5620.65
666.737	5456.81
666.929	5499.82
667.12	5479.34
667.311	5495.72
667.503	5440.43
667.694	5413.81
667.885	5407.66
668.077	5401.52
668.268	5413.81
668.459	5305.26
668.651	5266.35
668.842	5297.07
669.033	5118.9
669.224	5155.76
669.416	5151.67
669.607	5217.2
669.798	5088.18
669.989	5237.68
670.18	5147.57
670.371	5069.75
670.563	5039.03
670.754	4959.16
670.945	4924.34
671.136	4895.67
671.327	4953.01
671.518	4942.77
671.709	4946.87
671.9	4717.5
672.091	4721.59
672.282	4871.09
672.473	4875.19
672.664	4807.61
672.855	4637.63
673.046	4770.74
673.237	4817.85
673.428	4684.73
673.619	4611
673.809	4537.27
674	4770.74
674.191	4596.67
674.382	4467.64
674.573	4627.39
674.764	4555.71
674.954	4486.08
675.145	4508.6
675.336	4424.64
675.527	4449.21
675.717	4486.08
675.908	4424.64
676.099	4531.13
676.289	4291.52
676.48	4297.66
676.671	4340.67
676.861	4180.93
677.052	4303.81
677.243	4297.66
677.433	4248.51
677.624	4398.01
677.814	4168.64
678.005	4152.26
678.195	4139.97
678.386	4166.59
678.576	4221.89
678.767	4123.59
678.957	4029.38
679.148	4162.5
679.338	4072.39
679.529	4119.49
679.719	3906.5
679.909	4156.35
680.1	3988.42
680.29	4017.09
680.481	4066.24
680.671	4070.34
680.861	3853.25
681.052	3988.42
681.242	3865.54
681.432	3922.88
681.622	3820.49
681.813	3843.01
682.003	3808.2
682.193	3804.1
682.383	3785.67
682.573	3716.04
682.764	3759.05
682.954	3836.87
683.144	3877.83
683.334	3769.29
683.524	3800.01
683.714	3732.42
683.904	3687.37
684.094	3734.47
684.284	3650.5
684.474	3877.83
684.664	3691.46
684.854	3699.66
685.044	3697.61
685.234	3662.79
685.424	3652.55
685.614	3615.69
685.804	3593.16
685.994	3566.54
686.184	3517.39
686.374	3482.57
686.564	3431.37
686.753	3472.33
686.943	3494.86
687.133	3425.23
687.323	3419.08
687.513	3587.02
687.702	3429.32
687.892	3425.23
688.082	3480.52
688.272	3371.98
688.461	3472.33
688.651	3439.56
688.841	3349.45
689.03	3378.12
689.22	3335.12
689.41	3292.11
689.599	3374.03
689.789	3404.75
689.979	3343.31
690.168	3351.5
690.358	3232.72
690.547	3337.17
690.737	3140.56
690.926	3273.68
691.116	3322.83
691.305	3249.1
691.495	3048.4
691.684	3072.98
691.874	3132.37
692.063	3083.22
692.252	3077.07
692.442	3175.38
692.631	3161.04
692.82	3206.1
693.01	3193.81
693.199	3050.45
693.388	3101.65
693.578	2956.24
693.767	3056.59
693.956	3158.99
694.146	2958.29
694.335	2986.96
694.524	3093.46
694.713	3103.7
694.902	2997.2
695.092	2986.96
695.281	2962.39
695.47	2989.01
695.659	3025.87
695.848	3029.97
696.037	3054.55
696.226	2972.63
696.415	2972.63
696.604	2925.52
696.793	3021.78
696.982	3036.11
697.171	3001.3
697.36	2915.28
697.549	2925.52
697.738	2982.87
697.927	2851.8
698.116	2894.8
698.305	2833.36
698.494	2952.15
698.683	2984.91
698.872	2995.15
699.061	2923.48
699.25	2868.18
699.438	2915.28
699.627	2810.84
699.816	2952.15
700.005	2843.6
700.193	2849.75
700.382	2923.48
700.571	2915.28
700.76	2874.32
700.948	2763.73
701.137	2839.51
701.326	2831.32
701.514	2829.27
701.703	2874.32
701.892	2747.35
702.08	2788.31
702.269	2962.39
702.457	2919.38
702.646	2841.56
702.834	2874.32
703.023	2776.02
703.212	2841.56
703.4	2845.65
703.589	2849.75
703.777	2878.42
703.965	2794.45
704.154	2835.41
704.342	2900.95
704.531	2839.51
704.719	2814.93
704.907	2853.84
705.096	2831.32
705.284	2771.93
705.472	2876.37
705.661	2972.63
705.849	2903
706.037	2792.41
706.226	2874.32
706.414	2718.68
706.602	2798.55
706.79	2857.94
706.979	2839.51
707.167	2804.69
707.355	2706.39
707.543	2763.73
707.731	2855.89
707.919	2841.56
708.107	2718.68
708.296	2718.68
708.484	2810.84
708.672	2886.61
708.86	2784.21
709.048	2755.54
709.236	2751.45
709.424	2841.56
709.612	2868.18
709.8	2866.13
709.988	2702.29
710.176	2874.32
710.364	2845.65
710.551	2931.67
710.739	2839.51
710.927	2841.56
711.115	2796.5
711.303	2751.45
711.491	2874.32
711.679	2819.03
711.866	2876.37
712.054	2780.12
712.242	2812.89
712.43	2839.51
712.617	2868.18
712.805	2907.09
712.993	2798.55
713.181	2698.2
713.368	2647
713.556	2747.35
713.744	2837.46
713.931	2751.45
714.119	2700.25
714.306	2724.82
714.494	2749.4
714.682	2792.41
714.869	2780.12
715.057	2808.79
715.244	2704.34
715.432	2814.93
715.619	2878.42
715.807	2792.41
715.994	2714.58
716.182	2911.19
716.369	2726.87
716.556	2839.51
716.744	2700.25
716.931	2849.75
717.119	2786.26
717.306	2685.91
717.493	2692.05
717.681	2739.16
717.868	2675.67
718.055	2825.17
718.242	2722.77
718.43	2776.02
718.617	2677.72
718.804	2706.39
718.991	2759.64
719.179	2618.33
719.366	2722.77
719.553	2702.29
719.74	2608.09
719.927	2653.14
720.114	2636.76
720.301	2681.82
720.488	2683.86
720.676	2536.41
720.863	2726.87
721.05	2653.14
721.237	2755.54
721.424	2728.92
721.611	2661.34
721.798	2632.66
721.985	2714.58
722.172	2642.9
722.358	2603.99
722.545	2724.82
722.732	2712.53
722.919	2573.27
723.106	2472.92
723.293	2579.42
723.48	2477.02
723.667	2550.75
723.853	2673.62
724.04	2569.18
724.227	2573.27
724.414	2659.29
724.6	2487.26
724.787	2665.43
724.974	2612.18
725.161	2599.9
725.347	2495.45
725.534	2468.83
725.72	2587.61
725.907	2583.51
726.094	2509.79
726.28	2526.17
726.467	2391
726.653	2442.2
726.84	2556.89
727.027	2522.07
727.213	2452.44
727.4	2513.88
727.586	2692.05
727.773	2509.79
727.959	2436.06
728.145	2583.51
728.332	2485.21
728.518	2546.65
728.705	2563.03
728.891	2470.87
729.077	2505.69
729.264	2472.92
729.45	2370.52
729.636	2540.51
729.823	2487.26
730.009	2438.11
730.195	2352.09
730.382	2458.59
730.568	2378.72
730.754	2434.01
730.94	2399.2
731.126	2415.58
731.313	2554.84
731.499	2399.2
731.685	2284.51
731.871	2421.72
732.057	2468.83
732.243	2440.15
732.429	2313.18
732.615	2438.11
732.801	2362.33
732.987	2501.59
733.173	2255.84
733.359	2378.72
733.545	2374.62
733.731	2284.51
733.917	2450.39
734.103	2210.78
734.289	2356.19
734.475	2282.46
734.661	2315.23
734.847	2345.95
735.033	2364.38
735.219	2210.78
735.404	2165.73
735.59	2216.93
735.776	2364.38
735.962	2190.3
736.148	2184.16
736.333	2128.86
736.519	2110.43
736.705	2200.54
736.89	2227.17
737.076	2202.59
737.262	2169.82
737.447	2094.05
737.633	2184.16
737.819	2046.94
738.004	2167.77
738.19	2214.88
738.375	2237.41
738.561	2231.26
738.747	2116.58
738.932	2042.85
739.118	2075.62
739.303	2147.3
739.489	2163.68
739.674	2065.38
739.859	2104.29
740.045	2149.34
740.23	2137.06
740.416	2063.33
740.601	2186.21
740.786	1928.16
740.972	2003.94
741.157	1981.41
741.342	1960.93
741.528	2092
741.713	2073.57
741.898	1936.35
742.084	1883.11
742.269	1960.93
742.454	1997.79
742.639	1926.11
742.824	1948.64
743.01	1960.93
743.195	1999.84
743.38	1897.44
743.565	1897.44
743.75	1907.68
743.935	1883.11
744.12	2012.13
744.305	1790.95
744.49	1829.86
744.675	1772.52
744.86	1879.01
745.045	1934.31
745.23	1844.2
745.415	1907.68
745.6	1790.95
745.785	1831.91
745.97	1772.52
746.155	1776.61
746.34	1752.04
746.525	1770.47
746.71	1733.61
746.895	1668.07
747.079	1682.41
747.264	1645.54
747.449	1895.4
747.634	1813.48
747.819	1598.44
748.003	1719.27
748.188	1760.23
748.373	1684.45
748.557	1686.5
748.742	1848.29
748.927	1596.39
749.111	1604.58
749.296	1631.21
749.481	1543.14
749.665	1614.82
749.85	1530.86
750.034	1655.78
750.219	1580.01
750.404	1496.04
750.588	1590.25
750.773	1551.34
750.957	1575.91
751.141	1444.84
751.326	1506.28
751.51	1473.51
751.695	1471.47
751.879	1444.84
752.064	1534.95
752.248	1469.42
752.432	1526.76
752.617	1397.74
752.801	1471.47
752.985	1428.46
753.17	1467.37
753.354	1416.17
753.538	1332.2
753.722	1432.55
753.907	1293.29
754.091	1338.35
754.275	1285.1
754.459	1313.77
754.643	1305.58
754.828	1358.83
755.012	1317.87
755.196	1203.18
755.38	1252.33
755.564	1108.98
755.748	1256.43
755.932	1233.9
756.116	1192.94
756.3	1170.41
756.484	1192.94
756.668	1219.57
756.852	1123.31
757.036	1162.22
757.22	1162.22
757.404	1166.32
757.588	1209.33
757.772	1260.52
757.956	1174.51
758.14	1225.71
758.323	1061.87
758.507	1229.81
758.691	1084.4
758.875	1141.74
759.059	1194.99
759.242	1197.04
759.426	1117.17
759.61	1156.08
759.794	1061.87
759.977	1117.17
760.161	1092.59
760.345	1137.65
760.528	1082.35
760.712	1057.78
760.895	1129.45
761.079	1035.25
761.263	1006.58
761.446	1010.67
761.63	1027.06
761.813	1047.54
761.997	1125.36
762.18	965.62
762.364	1022.96
762.547	1053.68
762.731	1090.54
762.914	1055.73
763.098	1029.1
763.281	963.57
763.464	902.13
763.648	1043.44
763.831	887.79
764.015	979.95
764.198	1010.67
764.381	1113.07
764.564	908.27
764.748	863.22
764.931	949.23
765.114	855.03
765.297	973.81
765.481	959.47
765.664	1053.68
765.847	928.75
766.03	1000.43
766.213	881.65
766.397	992.24
766.58	926.71
766.763	908.27
766.946	881.65
767.129	934.9
767.312	949.23
767.495	963.57
767.678	971.76
767.861	922.61
768.044	898.03
768.227	898.03
768.41	893.94
768.593	928.75
768.776	938.99
768.959	943.09
769.142	971.76
769.324	869.36
769.507	881.65
769.69	900.08
769.873	912.37
770.056	943.09
770.239	898.03
770.421	803.83
770.604	873.46
770.787	953.33
770.97	850.93
771.152	769.01
771.335	809.97
771.518	814.07
771.7	826.36
771.883	902.13
772.066	785.4
772.248	863.22
772.431	859.12
772.613	879.6
772.796	805.88
772.978	814.07
773.161	816.12
773.343	750.58
773.526	850.93
773.708	807.92
773.891	728.05
774.073	820.21
774.256	758.77
774.438	809.97
774.621	785.4
774.803	752.63
774.985	807.92
775.168	783.35
775.35	732.15
775.532	812.02
775.715	721.91
775.897	707.57
776.079	666.61
776.261	719.86
776.444	711.67
776.626	689.14
776.808	717.81
776.99	726
777.173	693.24
777.355	592.89
777.537	723.96
777.719	707.57
777.901	637.94
778.083	693.24
778.265	670.71
778.447	680.95
778.629	617.46
778.811	648.18
778.993	652.28
779.175	666.61
779.357	668.66
779.539	605.17
779.721	617.46
779.903	644.09
780.085	564.22
780.267	642.04
780.449	609.27
780.631	551.93
780.812	637.94
780.994	629.75
781.176	574.46
781.358	519.16
781.54	504.82
781.721	590.84
781.903	576.5
782.085	533.5
782.267	605.17
782.448	590.84
782.63	582.65
782.812	533.5
782.993	551.93
783.175	558.07
783.357	447.48
783.538	506.87
783.72	535.54
783.901	510.97
784.083	445.43
784.264	584.7
784.446	404.47
784.627	453.63
784.809	541.69
784.99	553.98
785.172	470.01
785.353	451.58
785.535	478.2
785.716	484.34
785.897	416.76
786.079	478.2
786.26	515.06
786.441	537.59
786.623	498.68
786.804	463.86
786.985	482.3
787.167	465.91
787.348	441.34
787.529	437.24
787.71	490.49
787.891	465.91
788.073	449.53
788.254	420.86
788.435	424.95
788.616	455.67
788.797	445.43
788.978	416.76
789.159	427
789.34	449.53
789.522	398.33
789.703	326.65
789.884	416.76
790.065	457.72
790.246	404.47
790.427	361.47
790.607	416.76
790.788	431.1
790.969	390.14
791.15	402.43
791.331	289.79
791.512	400.38
791.693	379.9
791.874	449.53
792.054	400.38
792.235	349.18
792.416	351.23
792.597	439.29
792.778	404.47
792.958	355.32
793.139	261.12
793.32	336.89
793.5	379.9
793.681	445.43
793.862	343.03
794.042	363.51
794.223	289.79
794.404	369.66
794.584	343.03
794.765	326.65
794.945	267.26
795.126	377.85
795.306	365.56
795.487	326.65
795.667	396.28
795.848	304.12
796.028	257.02
796.209	302.08
796.389	424.95
796.57	340.99
796.75	314.36
796.93	314.36
797.111	353.27
797.291	306.17
797.471	310.27
797.652	259.07
797.832	322.56
798.012	261.12
798.192	185.34
798.373	267.26
798.553	291.84
798.733	252.92
798.913	222.2
799.093	222.2
799.274	195.58
799.454	293.88
799.634	250.88
799.814	240.64
799.994	265.21
800.174	275.45
800.354	236.54
800.534	191.49
800.714	277.5
800.894	285.69
801.074	261.12
801.254	220.16
801.434	261.12
801.614	162.81
801.794	259.07
801.974	764.92
802.154	214.01
802.334	304.12
802.514	269.31
802.693	275.45
802.873	293.88
803.053	205.82
803.233	228.35
803.413	207.87
803.592	254.97
803.772	175.1
803.952	257.02
804.131	236.54
804.311	211.96
804.491	236.54
804.67	248.83
804.85	285.69
805.03	297.98
805.209	304.12
805.389	248.83
805.568	203.77
805.748	183.29
805.928	195.58
806.107	230.4
806.287	220.16
806.466	238.59
806.646	191.49
806.825	250.88
807.004	228.35
807.184	265.21
807.363	228.35
807.543	177.15
807.722	109.57
807.901	283.64
808.081	261.12
808.26	193.53
808.439	175.1
808.619	222.2
808.798	228.35
808.977	191.49
809.156	173.05
809.336	101.37
809.515	279.55
809.694	222.2
809.873	273.4
810.052	125.95
810.231	279.55
810.411	183.29
810.59	193.53
810.769	187.39
810.948	203.77
811.127	166.91
811.306	140.29
811.485	201.72
811.664	195.58
811.843	207.87
812.022	185.34
812.201	228.35
812.38	132.09
812.559	121.85
812.737	130.05
812.916	138.24
813.095	158.72
813.274	128
813.453	134.14
813.632	195.58
813.811	226.3
813.989	140.29
814.168	214.01
814.347	89.09
814.526	99.33
814.704	193.53
814.883	230.4
815.062	130.05
815.24	193.53
815.419	113.66
815.598	189.44
815.776	93.18
815.955	168.96
816.133	183.29
816.312	44.03
816.49	125.95
816.669	150.53
816.847	107.52
817.026	130.05
817.204	158.72
817.383	228.35
817.561	162.81
817.74	207.87
817.918	171.01
818.097	142.33
818.275	64.51
818.453	160.77
818.632	136.19
818.81	187.39
818.988	152.57
819.167	138.24
819.345	166.91
819.523	134.14
819.701	117.76
819.879	171.01
820.058	156.67
820.236	152.57
820.414	52.22
820.592	91.13
820.77	142.33
820.948	171.01
821.127	128
821.305	142.33
821.483	89.09
821.661	134.14
821.839	185.34
822.017	74.75
822.195	121.85
822.373	162.81
822.551	111.61
822.729	150.53
822.907	148.48
823.085	93.18
823.262	154.62
823.44	27.65
823.618	80.89
823.796	138.24
823.974	130.05
824.152	76.8
824.329	23.55
824.507	60.42
824.685	117.76
824.863	93.18
825.04	103.42
825.218	134.14
825.396	64.51
825.574	117.76
825.751	111.61
825.929	199.68
826.107	21.5
826.284	80.89
826.462	111.61
826.639	56.32
826.817	128
826.994	95.23
827.172	62.46
827.349	119.81
827.527	101.37
827.704	91.13
827.882	164.86
828.059	3.07
828.237	11.26
828.414	197.63
828.591	97.28
828.769	64.51
828.946	97.28
829.124	152.57
829.301	101.37
829.478	115.71
829.655	121.85
829.833	70.65
830.01	44.03
830.187	105.47
830.364	154.62
830.542	95.23
830.719	101.37
830.896	119.81
831.073	72.7
831.25	80.89
831.427	74.75
831.604	130.05
831.782	50.18
831.959	130.05
832.136	125.95
832.313	140.29
832.49	62.46
832.667	97.28
832.844	7.17
833.021	54.27
833.198	80.89
833.374	87.04
833.551	41.98
833.728	60.42
833.905	56.32
834.082	17.41
834.259	101.37
834.436	95.23
834.612	91.13
834.789	123.9
834.966	80.89
835.143	72.7
835.319	33.79
835.496	60.42
835.673	60.42
835.85	84.99
836.026	93.18
836.203	105.47
836.38	27.65
836.556	68.61
836.733	56.32
836.909	117.76
837.086	84.99
837.262	80.89
837.439	117.76
837.616	103.42
837.792	76.8
837.968	84.99
838.145	39.94
838.321	50.18
838.498	115.71
838.674	128
838.851	52.22
839.027	44.03
839.203	64.51
839.38	31.74
839.556	33.79
839.732	70.65
839.909	52.22
840.085	76.8
840.261	58.37
840.437	99.33
840.614	54.27
840.79	101.37
840.966	89.09
841.142	142.33
841.318	89.09
841.494	29.7
841.671	37.89
841.847	46.08
842.023	31.74
842.199	66.56
842.375	103.42
842.551	78.85
842.727	54.27
842.903	97.28
843.079	3.07
843.255	101.37
843.431	101.37
843.607	103.42
843.783	52.22
843.959	-11.26
844.134	44.03
844.31	99.33
844.486	64.51
844.662	11.26
844.838	13.31
845.013	62.46
845.189	76.8
845.365	56.32
845.541	29.7
845.716	64.51
845.892	64.51
846.068	3.07
846.244	13.31
846.419	142.33
846.595	105.47
846.77	87.04
846.946	23.55
847.122	19.46
847.297	84.99
847.473	46.08
847.648	35.84
847.824	76.8
847.999	-1.02
848.175	19.46
848.35	46.08
848.526	93.18
848.701	-5.12
848.876	31.74
849.052	125.95
849.227	64.51
849.403	23.55
849.578	-11.26
849.753	62.46
849.929	60.42
850.104	-25.6
850.279	52.22
850.454	31.74
850.63	48.13
850.805	-13.31
850.98	64.51
851.155	54.27
851.33	52.22
851.505	1.02
851.681	80.89
851.856	29.7
852.031	44.03
852.206	48.13
852.381	3.07
852.556	60.42
852.731	84.99
852.906	-3.07
853.081	21.5
853.256	15.36
853.431	66.56
853.606	31.74
853.781	60.42
853.956	1.02
854.131	13.31
854.305	-21.5
854.48	-3.07
854.655	80.89
854.83	70.65
855.005	66.56
855.18	64.51
855.354	31.74
855.529	-3.07
855.704	19.46
855.879	50.18
856.053	60.42
856.228	33.79
856.403	9.22
856.577	64.51
856.752	15.36
856.926	39.94
857.101	46.08
857.276	103.42
857.45	27.65
857.625	48.13
857.799	-11.26
857.974	95.23
858.148	103.42
858.323	37.89
858.497	80.89
858.672	27.65
858.846	74.75
859.02	89.09
859.195	13.31
859.369	23.55
859.543	-17.41
859.718	19.46
859.892	23.55
860.066	11.26
860.241	-82.94
860.415	23.55
860.589	9.22
860.763	21.5
860.938	13.31
861.112	27.65
861.286	101.37
861.46	56.32
861.634	72.7
861.808	97.28
861.982	-5.12
862.157	56.32
862.331	27.65
862.505	64.51
862.679	-9.22
862.853	31.74
863.027	27.65
863.201	82.94
863.375	-1.02
863.549	46.08
863.722	41.98
863.896	9.22
864.07	-62.46
864.244	-37.89
864.418	125.95
864.592	82.94
864.766	-1.02
864.939	93.18
865.113	11.26
865.287	74.75
865.461	-3.07
865.634	-17.41
865.808	-44.03
865.982	35.84
866.156	-11.26
866.329	-33.79
866.503	70.65
866.676	44.03
866.85	56.32
867.024	31.74
867.197	31.74
867.371	62.46
867.544	37.89
867.718	39.94
867.891	121.85
868.065	76.8
868.238	103.42
868.412	48.13
868.585	-9.22
868.759	19.46
868.932	-13.31
869.105	11.26
869.279	11.26
869.452	-33.79
869.625	21.5
869.799	15.36
869.972	15.36
870.145	60.42
870.319	-23.55
870.492	60.42
870.665	11.26
870.838	27.65
871.011	-97.28
871.185	64.51
871.358	11.26
871.531	136.19
871.704	-27.65
871.877	-5.12
872.05	-5.12
872.223	27.65
872.396	-9.22
872.569	113.66
872.742	-91.13
872.915	62.46
873.088	-21.5
873.261	33.79
873.434	-5.12
873.607	46.08
873.78	48.13
873.953	15.36
874.126	37.89
874.299	80.89
874.471	82.94
874.644	3.07
874.817	76.8
874.99	33.79
875.163	-27.65
875.335	54.27
875.508	17.41
875.681	39.94
875.853	-41.98
876.026	-17.41
876.199	46.08
876.371	21.5
876.544	52.22
876.717	70.65
876.889	33.79
877.062	-39.94
877.234	-29.7
877.407	-72.7
877.579	-19.46
877.752	3.07
877.924	72.7
878.097	46.08
878.269	-25.6
878.442	-7.17
878.614	54.27
878.786	-41.98
878.959	56.32
879.131	76.8
879.303	-41.98
879.476	3.07
879.648	48.13
879.82	60.42
879.993	-5.12
880.165	-25.6
880.337	-84.99
880.509	27.65
880.681	25.6
880.854	-5.12
881.026	113.66
881.198	33.79
881.37	29.7
881.542	84.99
881.714	7.17
881.886	21.5
882.058	-1.02
882.23	-9.22
882.402	-50.18
882.574	66.56
882.746	17.41
882.918	80.89
883.09	31.74
883.262	33.79
883.434	-19.46
883.606	64.51
883.778	41.98
883.95	95.23
884.122	15.36
884.293	31.74
884.465	50.18
884.637	37.89
884.809	62.46
884.98	82.94
885.152	-46.08
885.324	64.51
885.496	44.03
885.667	7.17
885.839	3.07
886.011	-33.79
886.182	-25.6
886.354	19.46
886.525	39.94
886.697	-17.41
886.869	-70.65
887.04	-5.12
887.212	23.55
887.383	107.52
887.555	37.89
887.726	23.55
887.897	-37.89
888.069	68.61
888.24	48.13
888.412	-5.12
888.583	-13.31
888.754	-25.6
888.926	-31.74
889.097	13.31
889.268	-21.5
889.44	58.37
889.611	-80.89
889.782	-25.6
889.953	-3.07
890.125	15.36
890.296	-58.37
890.467	37.89
890.638	74.75
890.809	-15.36
890.98	78.85
891.151	23.55
891.323	-31.74
891.494	-25.6
891.665	13.31
891.836	35.84
892.007	52.22
892.178	31.74
892.349	7.17
892.52	-31.74
892.691	13.31
892.862	-17.41
893.032	-70.65
893.203	-17.41
893.374	-46.08
893.545	87.04
893.716	5.12
893.887	-7.17
894.057	-3.07
894.228	35.84
894.399	-11.26
894.57	87.04
894.74	11.26
894.911	48.13
895.082	3.07
895.253	7.17
895.423	3.07
895.594	33.79
895.764	-33.79
895.935	25.6
896.106	17.41
896.276	-11.26
896.447	23.55
896.617	44.03
896.788	17.41
896.958	-9.22
897.129	-50.18
897.299	35.84
897.47	19.46
897.64	54.27
897.81	23.55
897.981	11.26
898.151	66.56
898.322	64.51
898.492	-5.12
898.662	-29.7
898.832	-3.07
899.003	21.5
899.173	25.6
899.343	17.41
899.513	-25.6
