Data from USB4F104151__122__10-25-15-454.txt Node

Date: Wed Mar 12 10:25:15 EDT 2025
User: louis
Spectrometer: USB4F10415
Trigger mode: 4
Integration Time (sec): 3.000000E-2
Scans to average: 1
Electric dark correction enabled: true
Nonlinearity correction enabled: false
Boxcar width: 0
XAxis mode: Wavelengths
Number of Pixels in Spectrum: 3648
>>>>>Begin Spectral Data<<<<<
178.204	-69.8
178.424	-69.8
178.644	-69.8
178.864	-98.47
179.084	-110.76
179.304	71.51
179.524	14.17
179.744	-8.36
179.964	-34.99
180.184	-30.89
180.404	-26.79
180.624	51.03
180.844	3.93
181.064	-0.17
181.283	-14.51
181.503	-51.37
181.723	26.45
181.943	8.02
182.163	67.41
182.383	24.4
182.602	110.42
182.822	59.22
183.042	36.69
183.262	53.08
183.482	-14.51
183.701	51.03
183.921	104.28
184.141	-59.56
184.361	36.69
184.58	102.23
184.8	10.07
185.02	71.51
185.239	91.99
185.459	67.41
185.679	81.75
185.898	-51.37
186.118	75.6
186.338	38.74
186.557	89.94
186.777	57.17
186.997	51.03
187.216	10.07
187.436	40.79
187.655	104.28
187.875	-4.27
188.095	38.74
188.314	55.12
188.534	67.41
188.753	75.6
188.973	67.41
189.192	69.46
189.412	40.79
189.631	51.03
189.851	59.22
190.07	34.64
190.29	24.4
190.509	34.64
190.729	48.98
190.948	59.22
191.168	149.33
191.387	-12.46
191.607	32.6
191.826	59.22
192.045	57.17
192.265	8.02
192.484	75.6
192.704	59.22
192.923	-116.9
193.142	77.65
193.362	63.32
193.581	94.04
193.8	89.94
194.02	89.94
194.239	-22.7
194.458	67.41
194.678	67.41
194.897	38.74
195.116	10.07
195.335	71.51
195.555	44.88
195.774	48.98
195.993	85.84
196.212	42.84
196.432	10.07
196.651	42.84
196.87	8.02
197.089	159.57
197.308	48.98
197.528	42.84
197.747	34.64
197.966	8.02
198.185	34.64
198.404	-0.17
198.623	18.26
198.842	108.37
199.062	108.37
199.281	18.26
199.5	30.55
199.719	22.36
199.938	108.37
200.157	91.99
200.376	40.79
200.595	110.42
200.814	71.51
201.033	-16.55
201.252	51.03
201.471	28.5
201.69	87.89
201.909	1.88
202.128	30.55
202.347	89.94
202.566	65.36
202.785	-10.41
203.004	65.36
203.223	71.51
203.442	-32.94
203.661	-12.46
203.879	65.36
204.098	36.69
204.317	-6.31
204.536	51.03
204.755	3.93
204.974	71.51
205.193	94.04
205.411	141.14
205.63	65.36
205.849	3.93
206.068	73.56
206.287	32.6
206.505	48.98
206.724	104.28
206.943	24.4
207.162	-22.7
207.381	51.03
207.599	32.6
207.818	38.74
208.037	20.31
208.255	1.88
208.474	3.93
208.693	89.94
208.911	106.32
209.13	67.41
209.349	59.22
209.567	51.03
209.786	48.98
210.005	40.79
210.223	65.36
210.442	-30.89
210.661	30.55
210.879	-43.18
211.098	79.7
211.316	-12.46
211.535	44.88
211.753	-34.99
211.972	26.45
212.191	89.94
212.409	-10.41
212.628	16.21
212.846	61.27
213.065	116.56
213.283	14.17
213.502	-43.18
213.72	55.12
213.938	83.8
214.157	24.4
214.375	26.45
214.594	100.18
214.812	16.21
215.031	61.27
215.249	28.5
215.467	34.64
215.686	48.98
215.904	38.74
216.122	30.55
216.341	83.8
216.559	-12.46
216.778	55.12
216.996	-2.22
217.214	10.07
217.432	-43.18
217.651	30.55
217.869	-47.27
218.087	63.32
218.306	46.93
218.524	22.36
218.742	16.21
218.96	40.79
219.179	26.45
219.397	26.45
219.615	139.09
219.833	30.55
220.051	108.37
220.27	81.75
220.488	36.69
220.706	106.32
220.924	22.36
221.142	22.36
221.36	46.93
221.578	57.17
221.796	34.64
222.015	91.99
222.233	65.36
222.451	75.6
222.669	28.5
222.887	96.08
223.105	28.5
223.323	51.03
223.541	14.17
223.759	53.08
223.977	8.02
224.195	18.26
224.413	32.6
224.631	24.4
224.849	30.55
225.067	85.84
225.285	-24.75
225.503	16.21
225.721	-24.75
225.939	34.64
226.157	44.88
226.375	157.52
226.592	-49.32
226.81	30.55
227.028	104.28
227.246	120.66
227.464	-24.75
227.682	51.03
227.9	28.5
228.117	128.85
228.335	-51.37
228.553	-2.22
228.771	89.94
228.989	-2.22
229.206	57.17
229.424	51.03
229.642	5.97
229.86	22.36
230.077	73.56
230.295	73.56
230.513	57.17
230.731	114.52
230.948	-2.22
231.166	83.8
231.384	30.55
231.601	106.32
231.819	81.75
232.037	65.36
232.254	14.17
232.472	18.26
232.689	8.02
232.907	83.8
233.125	42.84
233.342	94.04
233.56	1.88
233.777	26.45
233.995	48.98
234.213	132.95
234.43	71.51
234.648	53.08
234.865	20.31
235.083	104.28
235.3	-14.51
235.518	24.4
235.735	61.27
235.953	18.26
236.17	73.56
236.388	-6.31
236.605	-8.36
236.822	-28.84
237.04	96.08
237.257	-6.31
237.475	-6.31
237.692	59.22
237.909	32.6
238.127	124.76
238.344	-18.6
238.562	40.79
238.779	1.88
238.996	53.08
239.214	-0.17
239.431	112.47
239.648	38.74
239.865	89.94
240.083	71.51
240.3	42.84
240.517	-16.55
240.735	48.98
240.952	30.55
241.169	139.09
241.386	-14.51
241.603	-18.6
241.821	1.88
242.038	69.46
242.255	55.12
242.472	91.99
242.689	71.51
242.907	108.37
243.124	69.46
243.341	-63.66
243.558	63.32
243.775	20.31
243.992	63.32
244.209	75.6
244.426	57.17
244.643	59.22
244.86	28.5
245.078	46.93
245.295	-30.89
245.512	32.6
245.729	-14.51
245.946	69.46
246.163	51.03
246.38	12.12
246.597	75.6
246.814	120.66
247.031	14.17
247.248	46.93
247.464	91.99
247.681	120.66
247.898	10.07
248.115	75.6
248.332	24.4
248.549	73.56
248.766	79.7
248.983	81.75
249.2	73.56
249.417	34.64
249.633	-10.41
249.85	12.12
250.067	75.6
250.284	22.36
250.501	71.51
250.717	59.22
250.934	-20.65
251.151	-16.55
251.368	46.93
251.585	67.41
251.801	28.5
252.018	34.64
252.235	63.32
252.451	-12.46
252.668	46.93
252.885	114.52
253.102	-8.36
253.318	100.18
253.535	122.71
253.752	18.26
253.968	-49.32
254.185	-67.75
254.401	38.74
254.618	51.03
254.835	38.74
255.051	130.9
255.268	38.74
255.484	46.93
255.701	22.36
255.917	71.51
256.134	-6.31
256.351	46.93
256.567	-0.17
256.784	46.93
257	22.36
257.217	67.41
257.433	14.17
257.65	81.75
257.866	91.99
258.082	51.03
258.299	32.6
258.515	42.84
258.732	53.08
258.948	46.93
259.165	38.74
259.381	38.74
259.597	89.94
259.814	10.07
260.03	22.36
260.246	63.32
260.463	51.03
260.679	102.23
260.895	59.22
261.112	69.46
261.328	18.26
261.544	53.08
261.761	120.66
261.977	30.55
262.193	-6.31
262.409	114.52
262.626	48.98
262.842	26.45
263.058	18.26
263.274	104.28
263.49	-6.31
263.707	16.21
263.923	106.32
264.139	18.26
264.355	51.03
264.571	44.88
264.787	57.17
265.004	157.52
265.22	-39.08
265.436	18.26
265.652	79.7
265.868	-20.65
266.084	75.6
266.3	51.03
266.516	5.97
266.732	81.75
266.948	30.55
267.164	55.12
267.38	-20.65
267.596	-24.75
267.812	79.7
268.028	3.93
268.244	24.4
268.46	98.13
268.676	85.84
268.892	81.75
269.108	20.31
269.324	-49.32
269.54	-73.9
269.756	71.51
269.972	-28.84
270.188	61.27
270.403	-6.31
270.619	24.4
270.835	10.07
271.051	30.55
271.267	16.21
271.483	75.6
271.698	67.41
271.914	1.88
272.13	-0.17
272.346	32.6
272.562	18.26
272.777	112.47
272.993	51.03
273.209	75.6
273.425	-32.94
273.64	67.41
273.856	108.37
274.072	147.28
274.287	44.88
274.503	112.47
274.719	53.08
274.934	26.45
275.15	-18.6
275.366	65.36
275.581	59.22
275.797	-26.79
276.012	89.94
276.228	91.99
276.444	57.17
276.659	141.14
276.875	-39.08
277.09	108.37
277.306	-0.17
277.521	59.22
277.737	48.98
277.952	53.08
278.168	114.52
278.383	-12.46
278.599	55.12
278.814	48.98
279.03	-30.89
279.245	108.37
279.461	59.22
279.676	83.8
279.892	14.17
280.107	5.97
280.322	-10.41
280.538	5.97
280.753	18.26
280.969	10.07
281.184	5.97
281.399	100.18
281.615	18.26
281.83	3.93
282.045	10.07
282.26	94.04
282.476	26.45
282.691	30.55
282.906	20.31
283.122	106.32
283.337	42.84
283.552	61.27
283.767	-14.51
283.983	96.08
284.198	28.5
284.413	65.36
284.628	5.97
284.843	73.56
285.058	53.08
285.274	38.74
285.489	108.37
285.704	-8.36
285.919	59.22
286.134	81.75
286.349	16.21
286.564	79.7
286.779	114.52
286.995	65.36
287.21	59.22
287.425	67.41
287.64	30.55
287.855	42.84
288.07	63.32
288.285	71.51
288.5	126.8
288.715	71.51
288.93	-39.08
289.145	48.98
289.36	73.56
289.575	87.89
289.79	89.94
290.004	79.7
290.219	102.23
290.434	75.6
290.649	26.45
290.864	44.88
291.079	5.97
291.294	46.93
291.509	65.36
291.724	34.64
291.938	75.6
292.153	132.95
292.368	-34.99
292.583	36.69
292.798	87.89
293.012	87.89
293.227	18.26
293.442	65.36
293.657	124.76
293.871	51.03
294.086	16.21
294.301	63.32
294.516	32.6
294.73	42.84
294.945	16.21
295.16	59.22
295.374	24.4
295.589	141.14
295.804	48.98
296.018	26.45
296.233	83.8
296.447	79.7
296.662	59.22
296.877	98.13
297.091	38.74
297.306	85.84
297.52	65.36
297.735	16.21
297.949	-18.6
298.164	118.61
298.378	16.21
298.593	18.26
298.807	94.04
299.022	130.9
299.236	108.37
299.451	26.45
299.665	104.28
299.88	-2.22
300.094	38.74
300.309	55.12
300.523	65.36
300.737	3.93
300.952	91.99
301.166	141.14
301.381	83.8
301.595	-30.89
301.809	42.84
302.024	53.08
302.238	-0.17
302.452	57.17
302.667	65.36
302.881	55.12
303.095	75.6
303.309	32.6
303.524	57.17
303.738	61.27
303.952	34.64
304.166	-6.31
304.381	40.79
304.595	102.23
304.809	53.08
305.023	71.51
305.237	24.4
305.452	12.12
305.666	3.93
305.88	67.41
306.094	75.6
306.308	71.51
306.522	26.45
306.736	48.98
306.95	22.36
307.164	91.99
307.379	59.22
307.593	141.14
307.807	83.8
308.021	79.7
308.235	38.74
308.449	-26.79
308.663	85.84
308.877	81.75
309.091	48.98
309.305	98.13
309.519	10.07
309.733	91.99
309.947	-14.51
310.161	112.47
310.374	79.7
310.588	42.84
310.802	-16.55
311.016	44.88
311.23	42.84
311.444	20.31
311.658	53.08
311.872	182.1
312.085	51.03
312.299	130.9
312.513	14.17
312.727	63.32
312.941	24.4
313.154	75.6
313.368	24.4
313.582	-0.17
313.796	-4.27
314.009	44.88
314.223	71.51
314.437	71.51
314.651	51.03
314.864	67.41
315.078	-8.36
315.292	1.88
315.505	71.51
315.719	87.89
315.933	61.27
316.146	5.97
316.36	24.4
316.573	55.12
316.787	30.55
317.001	63.32
317.214	38.74
317.428	98.13
317.641	-22.7
317.855	36.69
318.068	22.36
318.282	26.45
318.495	83.8
318.709	81.75
318.922	89.94
319.136	75.6
319.349	110.42
319.563	32.6
319.776	63.32
319.99	51.03
320.203	83.8
320.417	32.6
320.63	36.69
320.843	180.05
321.057	30.55
321.27	94.04
321.483	75.6
321.697	59.22
321.91	24.4
322.124	67.41
322.337	48.98
322.55	83.8
322.763	91.99
322.977	16.21
323.19	20.31
323.403	3.93
323.617	22.36
323.83	67.41
324.043	1.88
324.256	108.37
324.469	-14.51
324.683	42.84
324.896	42.84
325.109	83.8
325.322	32.6
325.535	94.04
325.748	83.8
325.962	51.03
326.175	83.8
326.388	87.89
326.601	114.52
326.814	71.51
327.027	34.64
327.24	51.03
327.453	-0.17
327.666	89.94
327.879	36.69
328.092	42.84
328.305	-16.55
328.518	14.17
328.731	14.17
328.944	14.17
329.157	61.27
329.37	-2.22
329.583	120.66
329.796	71.51
330.009	-45.23
330.222	63.32
330.435	59.22
330.648	83.8
330.861	-71.85
331.073	59.22
331.286	100.18
331.499	22.36
331.712	155.47
331.925	10.07
332.138	128.85
332.35	59.22
332.563	28.5
332.776	67.41
332.989	1.88
333.202	114.52
333.414	18.26
333.627	-18.6
333.84	51.03
334.053	57.17
334.265	63.32
334.478	42.84
334.691	44.88
334.903	26.45
335.116	63.32
335.329	-0.17
335.541	145.24
335.754	110.42
335.966	24.4
336.179	18.26
336.392	-0.17
336.604	12.12
336.817	42.84
337.029	30.55
337.242	57.17
337.454	83.8
337.667	18.26
337.88	91.99
338.092	65.36
338.305	40.79
338.517	18.26
338.729	65.36
338.942	57.17
339.154	16.21
339.367	28.5
339.579	32.6
339.792	1.88
340.004	24.4
340.217	83.8
340.429	69.46
340.641	-6.31
340.854	-12.46
341.066	79.7
341.278	100.18
341.491	67.41
341.703	87.89
341.915	-2.22
342.128	42.84
342.34	24.4
342.552	-26.79
342.764	48.98
342.977	3.93
343.189	89.94
343.401	42.84
343.613	-14.51
343.826	-0.17
344.038	-18.6
344.25	98.13
344.462	44.88
344.674	16.21
344.886	55.12
345.099	79.7
345.311	10.07
345.523	67.41
345.735	65.36
345.947	48.98
346.159	59.22
346.371	28.5
346.583	18.26
346.795	208.72
347.007	69.46
347.219	120.66
347.431	28.5
347.643	63.32
347.855	40.79
348.067	96.08
348.279	-0.17
348.491	118.61
348.703	67.41
348.915	46.93
349.127	59.22
349.339	10.07
349.551	24.4
349.763	-43.18
349.975	108.37
350.187	139.09
350.399	110.42
350.61	124.76
350.822	61.27
351.034	1.88
351.246	-8.36
351.458	77.65
351.669	18.26
351.881	106.32
352.093	104.28
352.305	57.17
352.517	89.94
352.728	94.04
352.94	96.08
353.152	79.7
353.363	20.31
353.575	55.12
353.787	126.8
353.999	1.88
354.21	65.36
354.422	83.8
354.633	-4.27
354.845	139.09
355.057	-12.46
355.268	73.56
355.48	30.55
355.692	77.65
355.903	22.36
356.115	55.12
356.326	55.12
356.538	16.21
356.749	108.37
356.961	106.32
357.172	59.22
357.384	42.84
357.595	67.41
357.807	104.28
358.018	-4.27
358.23	75.6
358.441	77.65
358.653	175.95
358.864	71.51
359.075	-8.36
359.287	89.94
359.498	73.56
359.709	40.79
359.921	57.17
360.132	28.5
360.344	100.18
360.555	75.6
360.766	96.08
360.977	8.02
361.189	87.89
361.4	22.36
361.611	96.08
361.823	48.98
362.034	89.94
362.245	18.26
362.456	42.84
362.667	87.89
362.879	59.22
363.09	55.12
363.301	120.66
363.512	20.31
363.723	51.03
363.935	51.03
364.146	91.99
364.357	48.98
364.568	46.93
364.779	48.98
364.99	69.46
365.201	-18.6
365.412	94.04
365.623	10.07
365.834	30.55
366.045	89.94
366.256	26.45
366.467	-6.31
366.678	89.94
366.889	104.28
367.1	32.6
367.311	104.28
367.522	83.8
367.733	96.08
367.944	112.47
368.155	34.64
368.366	81.75
368.577	87.89
368.788	102.23
368.999	44.88
369.209	83.8
369.42	122.71
369.631	118.61
369.842	63.32
370.053	96.08
370.264	59.22
370.474	77.65
370.685	65.36
370.896	30.55
371.107	69.46
371.317	102.23
371.528	71.51
371.739	75.6
371.95	73.56
372.16	91.99
372.371	96.08
372.582	30.55
372.792	48.98
373.003	38.74
373.214	104.28
373.424	83.8
373.635	89.94
373.846	51.03
374.056	67.41
374.267	108.37
374.477	94.04
374.688	89.94
374.898	79.7
375.109	118.61
375.319	67.41
375.53	81.75
375.74	34.64
375.951	122.71
376.161	89.94
376.372	67.41
376.582	79.7
376.793	79.7
377.003	124.76
377.214	61.27
377.424	116.56
377.635	85.84
377.845	51.03
378.055	32.6
378.266	53.08
378.476	87.89
378.686	48.98
378.897	122.71
379.107	137.04
379.317	73.56
379.528	53.08
379.738	77.65
379.948	67.41
380.158	96.08
380.369	26.45
380.579	81.75
380.789	1.88
380.999	135
381.21	48.98
381.42	77.65
381.63	91.99
381.84	38.74
382.05	38.74
382.261	63.32
382.471	26.45
382.681	28.5
382.891	83.8
383.101	108.37
383.311	67.41
383.521	32.6
383.731	16.21
383.941	120.66
384.151	87.89
384.361	149.33
384.571	102.23
384.781	106.32
384.991	94.04
385.201	149.33
385.411	139.09
385.621	69.46
385.831	102.23
386.041	26.45
386.251	94.04
386.461	137.04
386.671	120.66
386.881	110.42
387.091	34.64
387.301	63.32
387.511	59.22
387.72	44.88
387.93	89.94
388.14	67.41
388.35	141.14
388.56	63.32
388.769	22.36
388.979	120.66
389.189	83.8
389.399	30.55
389.609	10.07
389.818	91.99
390.028	100.18
390.238	51.03
390.447	34.64
390.657	124.76
390.867	-0.17
391.076	34.64
391.286	63.32
391.496	51.03
391.705	-41.13
391.915	71.51
392.125	169.81
392.334	100.18
392.544	128.85
392.753	22.36
392.963	171.86
393.172	77.65
393.382	71.51
393.591	112.47
393.801	67.41
394.01	157.52
394.22	77.65
394.429	51.03
394.639	184.15
394.848	48.98
395.058	87.89
395.267	65.36
395.477	132.95
395.686	151.38
395.895	69.46
396.105	126.8
396.314	175.95
396.524	81.75
396.733	18.26
396.942	128.85
397.152	137.04
397.361	112.47
397.57	147.28
397.78	169.81
397.989	208.72
398.198	145.24
398.407	61.27
398.617	75.6
398.826	143.19
399.035	63.32
399.244	171.86
399.453	116.56
399.663	106.32
399.872	132.95
400.081	104.28
400.29	145.24
400.499	102.23
400.708	202.58
400.917	132.95
401.127	130.9
401.336	100.18
401.545	145.24
401.754	108.37
401.963	139.09
402.172	145.24
402.381	145.24
402.59	165.71
402.799	161.62
403.008	139.09
403.217	182.1
403.426	147.28
403.635	102.23
403.844	173.91
404.053	130.9
404.262	137.04
404.471	167.76
404.68	130.9
404.888	186.19
405.097	178
405.306	212.82
405.515	239.44
405.724	110.42
405.933	159.57
406.142	165.71
406.35	192.34
406.559	206.67
406.768	223.06
406.977	202.58
407.185	194.39
407.394	239.44
407.603	247.63
407.812	231.25
408.02	243.54
408.229	171.86
408.438	247.63
408.646	309.07
408.855	253.78
409.064	290.64
409.272	354.13
409.481	315.22
409.69	278.35
409.898	335.7
410.107	304.98
410.315	395.09
410.524	315.22
410.733	411.47
410.941	356.18
411.15	368.46
411.358	452.43
411.567	419.66
411.775	417.61
411.984	393.04
412.192	458.57
412.401	483.15
412.609	585.55
412.818	509.77
413.026	542.54
413.234	550.73
413.443	517.97
413.651	536.4
413.86	546.64
414.068	587.6
414.276	683.85
414.485	716.62
414.693	681.8
414.901	808.78
415.11	730.95
415.318	755.53
415.526	757.58
415.734	859.98
415.943	796.49
416.151	870.22
416.359	894.79
416.567	896.84
416.776	911.18
416.984	1019.72
417.192	1021.77
417.4	1019.72
417.608	1107.78
417.817	1038.15
418.025	1167.17
418.233	1232.71
418.441	1189.7
418.649	1349.44
418.857	1361.73
419.065	1341.25
419.273	1386.3
419.481	1478.46
419.689	1523.52
419.897	1638.2
420.105	1597.24
420.313	1566.53
420.521	1632.06
420.729	1711.93
420.937	1843
421.145	1855.29
421.353	2008.89
421.561	2101.05
421.769	2082.61
421.977	2162.48
422.185	2197.3
422.393	2281.27
422.601	2473.78
422.809	2352.95
423.017	2424.62
423.224	2604.85
423.432	2582.32
423.64	2721.58
423.848	2922.28
424.056	2740.01
424.263	2987.82
424.471	2901.8
424.679	3057.45
424.887	3313.44
425.094	3335.97
425.302	3311.39
425.51	3428.13
425.718	3544.86
425.925	3655.45
426.133	3774.24
426.341	4036.38
426.548	4120.34
426.756	4101.91
426.964	4089.62
427.171	4534.03
427.379	4505.36
427.586	4605.71
427.794	4839.18
428.001	4990.73
428.209	5287.68
428.417	5099.27
428.624	5447.43
428.832	5543.68
429.039	5476.1
429.247	5351.17
429.454	6096.63
429.662	6412.02
429.869	5953.27
430.076	6149.88
430.284	6266.61
430.491	6616.82
430.699	6768.37
430.906	6862.57
431.114	6930.16
431.321	7177.96
431.528	7245.54
431.736	7741.15
431.943	8201.94
432.15	7685.86
432.358	8066.78
432.565	8457.94
432.772	8496.85
432.979	8804.05
433.187	9094.86
433.394	8715.98
433.601	9608.9
433.808	9594.56
434.016	9531.08
434.223	9979.58
434.43	10593.97
434.637	10469.05
434.844	11065
435.052	11265.71
435.259	11079.34
435.466	11118.25
435.673	11128.49
435.88	11650.72
436.087	12418.71
436.294	12521.11
436.501	12086.94
436.708	12478.1
436.915	12936.85
437.122	13602.44
437.329	13266.57
437.537	13698.69
437.743	14104.19
437.95	13883.01
438.157	14767.73
438.364	14911.09
438.571	15152.75
438.778	15124.08
438.985	16537.18
439.192	15906.4
439.399	16545.37
439.606	15945.31
439.813	16805.46
440.02	17856.07
440.227	17534.54
440.433	17514.06
440.64	17913.41
440.847	17841.73
441.054	18306.62
441.261	19357.23
441.467	19390
441.674	19754.54
441.881	20383.26
442.088	20393.5
442.294	20133.41
442.501	20753.94
442.708	20946.45
442.914	22031.88
443.121	23006.71
443.328	22167.04
443.534	23913.96
443.741	23107.06
443.948	22533.63
444.154	24839.64
444.361	24073.7
444.568	24698.33
444.774	24585.69
444.981	24851.93
445.187	25488.85
445.394	26492.35
445.6	25984.46
445.807	28730.78
446.013	27446.71
446.22	28235.17
446.426	28915.1
446.633	29138.33
446.839	30262.66
447.046	28882.33
447.252	30639.49
447.459	30875.01
447.665	30375.3
447.871	31628.66
448.078	33135.96
448.284	31427.96
448.491	32386.41
448.697	33592.66
448.903	34174.28
449.11	34231.63
449.316	33813.84
449.522	34227.53
449.728	35077.44
449.935	35595.57
450.141	35466.55
450.347	36021.55
450.553	34731.33
450.76	35454.26
450.966	36902.18
451.172	35808.56
451.378	37082.4
451.584	36400.43
451.791	36846.88
451.997	36898.08
452.203	37258.52
452.409	37276.96
452.615	37203.23
452.821	35638.58
453.027	35329.34
453.233	37416.22
453.44	35577.14
453.646	36062.51
453.852	36586.79
454.058	36715.81
454.264	35872.05
454.47	36597.03
454.676	35153.21
454.882	36631.85
455.088	33437.02
455.294	33721.68
455.5	34274.63
455.705	34731.33
455.911	33410.39
456.117	32574.82
456.323	32208.23
456.529	30516.61
456.735	31806.83
456.941	31012.22
457.147	30424.45
457.352	30018.96
457.558	29169.05
457.764	29056.41
457.97	28616.1
458.176	27874.73
458.381	28210.6
458.587	26611.14
458.793	26707.39
458.999	25595.34
459.204	27178.42
459.41	26164.68
459.616	24714.72
459.821	24497.63
460.027	24530.4
460.233	23877.1
460.438	22924.79
460.644	23154.16
460.85	21999.11
461.055	21909
461.261	21696.01
461.466	20041.25
461.672	19365.42
461.878	20975.13
462.083	19656.23
462.289	19154.48
462.494	19191.34
462.7	18234.94
462.905	17503.82
463.111	18116.16
463.316	18347.58
463.522	18048.58
463.727	18132.54
463.932	17989.19
464.138	17669.7
464.343	17712.71
464.549	17370.7
464.754	17868.36
464.959	17604.17
465.165	17327.69
465.37	16901.72
465.575	16500.31
465.781	17047.12
465.986	17065.55
466.191	16475.74
466.397	16289.37
466.602	15545.96
466.807	15949.41
467.012	15939.17
467.218	15984.23
467.423	15638.12
467.628	16131.68
467.833	16422.49
468.038	15943.27
468.244	15392.36
468.449	16002.66
468.654	15554.15
468.859	15588.97
469.064	15519.34
469.269	14564.98
469.474	14796.4
469.679	15132.27
469.885	14431.87
470.09	15134.32
470.295	14792.31
470.5	14552.7
470.705	14464.63
470.91	14331.51
471.115	14085.76
471.32	14102.14
471.525	14280.32
471.73	13645.45
471.935	13586.05
472.139	13225.61
472.344	13332.11
472.549	13317.77
472.754	13086.35
472.959	13026.96
473.164	12670.61
473.369	12375.7
473.574	12856.98
473.778	12717.72
473.983	12586.65
474.188	12592.79
474.393	12129.95
474.598	12154.52
474.802	11984.54
475.007	11974.3
475.212	11812.51
475.417	11429.54
475.621	11433.64
475.826	11626.15
476.031	11355.82
476.235	11206.31
476.44	11329.19
476.645	11060.91
476.849	11286.19
477.054	10903.21
477.259	10845.87
477.463	10665.65
477.668	10510
477.872	10630.84
478.077	10403.51
478.282	10194.62
478.486	10094.27
478.691	10094.27
478.895	10200.76
479.1	10170.04
479.304	9965.25
479.509	9676.48
479.713	9912
479.918	9817.79
480.122	9590.47
480.326	9461.44
480.531	9699.01
480.735	9459.4
480.94	9332.42
481.144	9805.5
481.348	9496.26
481.553	9469.64
481.757	9041.61
481.961	9453.25
482.166	9549.51
482.37	9285.32
482.574	9240.26
482.778	9137.87
482.983	9586.37
483.187	9313.99
483.391	9549.51
483.595	9402.05
483.8	9111.24
484.004	9158.35
484.208	9279.18
484.412	9094.86
484.616	9336.52
484.821	9313.99
485.025	9137.87
485.229	9191.11
485.433	9422.53
485.637	9465.54
485.841	9203.4
486.045	9168.59
486.249	9391.81
486.453	9152.2
486.657	9203.4
486.861	9209.54
487.065	9258.7
487.269	8976.08
487.473	9246.41
487.677	9340.61
487.881	9301.7
488.085	9168.59
488.289	9395.91
488.493	9197.26
488.697	9227.98
488.901	9252.55
489.105	9105.1
489.309	9334.47
489.512	9377.48
489.716	9357
489.92	9324.23
490.124	9453.25
490.328	9483.97
490.531	9520.84
490.735	9494.21
490.939	9623.23
491.143	9346.76
491.346	9592.51
491.55	9533.12
491.754	9696.96
491.958	9674.43
492.161	9778.88
492.365	10000.06
492.569	9813.7
492.772	9762.5
492.976	10030.78
493.18	9764.54
493.383	10188.47
493.587	10274.49
493.79	10133.18
493.994	10079.93
494.197	10303.16
494.401	10469.05
494.605	10278.58
494.808	10694.32
495.012	10450.61
495.215	10526.39
495.419	10639.03
495.622	10397.37
495.825	10843.82
496.029	10825.39
496.232	11108.01
496.436	11093.68
496.639	11237.03
496.843	11353.77
497.046	11400.87
497.249	11738.79
497.453	11599.52
497.656	11929.25
497.859	11646.63
498.063	11914.91
498.266	12332.7
498.469	12172.96
498.673	12617.36
498.876	12668.56
499.079	12781.2
499.282	12732.05
499.485	13057.68
499.689	13096.59
499.892	13313.67
500.095	13006.48
500.298	13334.15
500.501	13491.85
500.705	13686.4
500.908	13977.22
501.111	13887.11
501.314	14173.82
501.517	14458.49
501.72	14397.05
501.923	14573.17
502.126	14702.2
502.329	15117.93
502.532	15122.03
502.735	15099.5
502.938	15607.4
503.141	15451.75
503.344	15640.17
503.547	15986.27
503.75	16213.6
503.953	16496.22
504.156	16494.17
504.359	16840.28
504.562	16649.82
504.765	17088.08
504.968	17122.9
505.17	17331.79
505.373	17587.78
505.576	17743.43
505.779	18294.33
505.982	18021.95
506.185	18327.1
506.387	18632.25
506.59	18562.62
506.793	19287.6
506.996	19086.9
507.198	19484.2
507.401	19459.63
507.604	19682.86
507.807	19947.04
508.009	20071.97
508.212	20190.75
508.415	21036.56
508.617	20831.77
508.82	20948.5
509.022	20899.35
509.225	21739.02
509.428	21669.39
509.63	21655.05
509.833	21933.57
510.035	22314.5
510.238	22304.26
510.44	22578.68
510.643	23051.77
510.845	23389.68
511.048	23188.98
511.25	23649.77
511.453	23582.19
511.655	24339.94
511.858	24262.12
512.06	24743.39
512.262	24858.07
512.465	24671.71
512.667	25308.63
512.87	25415.12
513.072	25548.24
513.274	25912.78
513.477	26361.28
513.679	26533.31
513.881	26656.19
514.084	27008.44
514.286	27176.37
514.488	27399.6
514.69	28118.44
514.893	28054.95
515.095	28329.38
515.297	28753.31
515.499	28900.76
515.701	29218.2
515.904	29656.46
516.106	29834.64
516.308	29961.61
516.51	30297.48
516.712	30610.82
516.914	30840.19
517.116	31278.46
517.318	31559.03
517.52	31599.99
517.722	31608.18
517.925	32226.67
518.127	32744.8
518.329	33160.54
518.531	32845.15
518.733	33213.79
518.935	33541.46
519.136	33756.5
519.338	34499.91
519.54	34624.84
519.742	34544.97
519.944	35155.26
520.146	35521.85
520.348	35732.79
520.55	36257.07
520.752	36056.37
520.954	36746.53
521.155	36527.4
521.357	37231.9
521.559	37457.18
521.761	37747.99
521.963	37901.59
522.164	37956.88
522.366	38075.66
522.568	38806.79
522.77	38810.89
522.971	39597.31
523.173	39365.88
523.375	39974.13
523.576	39335.17
523.778	39955.7
523.98	40432.88
524.181	40760.55
524.383	40611.05
524.584	41149.67
524.786	41667.8
524.988	41123.04
525.189	41825.5
525.391	42153.17
525.592	42081.49
525.794	42525.9
525.995	42298.58
526.197	42458.32
526.398	42790.09
526.6	43199.68
526.801	43363.52
527.003	43304.13
527.204	43781.31
527.406	43852.98
527.607	43764.92
527.808	44444.85
528.01	43703.48
528.211	44530.86
528.412	45116.58
528.614	44874.92
528.815	45010.09
529.016	45399.2
529.218	44854.44
529.419	45485.22
529.62	45501.6
529.822	44944.55
530.023	45552.8
530.224	45685.92
530.425	45788.31
530.626	45501.6
530.828	45612.19
531.029	46734.48
531.23	45792.41
531.431	46509.2
531.632	46007.45
531.833	46468.24
532.035	46341.27
532.236	46539.92
532.437	46603.41
532.638	46582.93
532.839	46611.6
533.04	46967.94
533.241	46552.21
533.442	47148.17
533.643	47013
533.844	47156.36
534.045	47565.95
534.246	46781.58
534.447	47631.49
534.648	46828.68
534.849	46992.52
535.05	46840.97
535.251	47387.78
535.451	47023.24
535.652	47152.26
535.853	47666.3
536.054	47531.14
536.255	47713.41
536.456	46769.29
536.657	47733.88
536.857	47068.3
537.058	47297.67
537.259	47635.58
537.46	47664.25
537.66	47275.14
537.861	47369.35
538.062	47434.88
538.263	47748.22
538.463	47336.58
538.664	47539.33
538.865	47860.86
539.065	47676.54
539.266	47101.06
539.466	47850.62
539.667	46877.83
539.868	47881.34
540.068	47422.59
540.269	47537.28
540.469	47627.39
540.67	47303.81
540.87	47463.55
541.071	47488.13
541.271	47955.07
541.472	47639.68
541.672	47352.96
541.873	47383.68
542.073	46607.5
542.274	47774.84
542.474	47258.76
542.675	46771.34
542.875	48051.32
543.075	47467.65
543.276	46935.18
543.476	47557.76
543.676	47352.96
543.877	47137.93
544.077	47535.23
544.277	47400.07
544.478	47305.86
544.678	47584.38
544.878	47033.48
545.078	47500.42
545.279	46959.75
545.479	46976.14
545.679	47269
545.879	47502.46
546.079	46814.35
546.28	47070.34
546.48	46965.9
546.68	47123.59
546.88	47107.21
547.08	46910.6
547.28	46621.84
547.48	46701.71
547.68	47211.65
547.88	46836.87
548.081	47066.25
548.281	46994.57
548.481	46775.44
548.681	47481.98
548.881	47154.31
549.081	47123.59
549.28	46607.5
549.48	47336.58
549.68	47060.1
549.88	47512.7
550.08	46939.27
550.28	47230.08
550.48	46951.56
550.68	47524.99
550.88	46691.47
551.08	46691.47
551.279	47185.03
551.479	46451.86
551.679	46992.52
551.879	46568.59
552.079	46820.49
552.278	46484.62
552.478	46953.61
552.678	46984.33
552.878	47105.16
553.077	46662.8
553.277	46249.11
553.477	47150.21
553.676	46468.24
553.876	46636.17
554.076	46414.99
554.275	46771.34
554.475	45694.11
554.674	46292.11
554.874	46156.95
555.074	46013.59
555.273	46423.18
555.473	46484.62
555.672	46337.17
555.872	46021.78
556.071	46351.51
556.271	46304.4
556.47	45769.88
556.67	45825.18
556.869	45870.23
557.068	46263.44
557.268	45380.77
557.467	45606.05
557.667	45452.45
557.866	45878.43
558.065	45456.54
558.265	44895.4
558.464	45374.62
558.663	45503.65
558.863	44876.97
559.062	45448.35
559.261	44768.43
559.461	45857.95
559.66	44799.15
559.859	44907.69
560.058	44477.61
560.258	44944.55
560.457	44330.16
560.656	44915.88
560.855	44508.33
561.054	44825.77
561.253	44227.76
561.453	44510.38
561.652	44858.54
561.851	44291.25
562.05	43986.1
562.249	43771.07
562.448	44133.56
562.647	44174.52
562.846	43646.14
563.045	44022.97
563.244	43527.36
563.443	43908.28
563.642	43273.41
563.841	43316.42
564.04	43095.24
564.239	43572.41
564.438	42972.36
564.637	43445.44
564.836	42560.72
565.035	42855.62
565.234	42843.34
565.432	42271.95
565.631	42736.84
565.83	42659.02
566.029	41977.04
566.228	41813.21
566.427	41917.65
566.625	41659.61
566.824	41747.67
567.023	41975
567.222	41252.06
567.42	41913.56
567.619	41604.31
567.818	41186.53
568.016	41282.78
568.215	41059.55
568.414	40842.47
568.612	41233.63
568.811	40602.86
569.01	40879.33
569.208	40393.96
569.407	40565.99
569.605	40125.68
569.804	40668.39
570.002	39990.52
570.201	40463.6
570.4	39468.28
570.598	39509.24
570.797	39582.97
570.995	39644.41
571.193	39111.94
571.392	39566.59
571.59	38960.39
571.789	39359.74
571.987	39070.98
572.186	39060.74
572.384	38722.82
572.582	38866.18
572.781	38665.48
572.979	38671.62
573.177	38288.65
573.376	38501.64
573.574	37971.22
573.772	38556.94
573.971	37893.4
574.169	37917.97
574.367	37250.33
574.565	38008.08
574.763	37371.16
574.962	37811.48
575.16	37262.62
575.358	37788.95
575.556	36816.16
575.754	37428.51
575.952	36545.83
576.151	37004.58
576.349	36394.28
576.547	36322.6
576.745	36576.55
576.943	36506.92
577.141	36322.6
577.339	36068.65
577.537	35824.95
577.735	36332.84
577.933	35829.04
578.131	35945.78
578.329	35986.74
578.527	35394.87
578.725	35364.15
578.923	35417.4
579.121	35347.77
579.319	34800.96
579.516	35046.72
579.714	34934.08
579.912	35069.25
580.11	34987.33
580.308	34760
580.506	34911.55
580.704	34168.14
580.901	34614.6
581.099	34604.36
581.297	34139.47
581.495	34198.86
581.692	34268.49
581.89	33885.52
582.088	34127.18
582.285	33910.1
582.483	33922.38
582.681	33666.39
582.878	33650
583.076	33084.76
583.274	33557.85
583.471	33037.66
583.669	33015.13
583.866	33289.56
584.064	33238.36
584.262	32718.18
584.459	32972.13
584.657	32476.52
584.854	33205.59
585.052	31876.46
585.249	32390.5
585.447	32583.01
585.644	32142.7
585.841	32132.46
586.039	32243.05
586.236	31755.63
586.434	31616.37
586.631	31722.87
586.828	31724.91
587.026	31706.48
587.223	31661.43
587.42	31518.07
587.618	31411.57
587.815	30989.69
588.012	30721.41
588.21	31030.65
588.407	31001.98
588.604	30774.66
588.801	30682.5
588.999	30698.88
589.196	30451.08
589.393	30322.05
589.59	30393.73
589.787	30258.57
589.984	30115.21
590.182	29773.2
590.379	30174.6
590.576	29535.63
590.773	29846.93
590.97	29638.03
591.167	29648.27
591.364	29138.33
591.561	29701.52
591.758	29375.89
591.955	29210.01
592.152	29203.86
592.349	29220.25
592.546	29134.23
592.743	29091.23
592.94	28683.68
593.137	29083.03
593.334	28814.75
593.531	28454.31
593.727	28433.83
593.924	28626.34
594.121	27846.06
594.318	28609.95
594.515	27897.26
594.712	28214.69
594.908	27934.12
595.105	27758
595.302	27600.3
595.499	28171.69
595.696	27796.91
595.892	27487.67
596.089	27704.75
596.286	27809.2
596.482	27311.54
596.679	27407.8
596.876	27381.17
597.072	27135.42
597.269	27258.29
597.466	26740.16
597.662	26795.45
597.859	26875.32
598.055	26785.21
598.252	26494.4
598.448	26650.05
598.645	26400.19
598.841	26457.54
599.038	26514.88
599.234	26361.28
599.431	25802.19
599.627	26043.85
599.824	26181.06
600.02	25693.65
600.217	25800.14
600.413	25873.87
600.609	25644.49
600.806	25480.66
601.002	25726.41
601.198	25120.21
601.395	25245.14
601.591	25028.06
601.787	25095.64
601.984	25116.12
602.18	25294.29
602.376	25060.82
602.572	24796.63
602.769	25034.2
602.965	24856.03
603.161	24733.15
603.357	24759.77
603.553	24428
603.75	24501.73
603.946	24266.21
604.142	24554.97
604.338	23963.11
604.534	24249.83
604.73	23868.91
604.926	24274.4
605.122	24010.21
605.318	23981.54
605.514	23522.8
605.71	23805.42
605.906	23768.55
606.102	23481.84
606.298	23733.74
606.494	23574
606.69	23457.26
606.886	23340.53
607.082	23264.75
607.278	23383.54
607.474	22730.23
607.67	23215.6
607.866	22953.46
608.062	23262.71
608.257	22734.33
608.453	22922.74
608.649	22902.26
608.845	22654.46
609.041	22980.09
609.236	22930.94
609.432	22615.55
609.628	22689.28
609.824	22474.24
610.019	22285.83
610.215	22590.97
610.411	22369.79
610.606	22003.21
610.802	22326.78
610.998	22345.22
611.193	22361.6
611.389	21818.89
611.584	22021.64
611.78	21822.98
611.976	21894.66
612.171	21972.49
612.367	21904.9
612.562	21616.14
612.758	21571.08
612.953	21538.32
613.149	21618.19
613.344	21487.12
613.539	21728.78
613.735	21497.36
613.93	21650.95
614.126	21194.26
614.321	21909
614.517	21614.09
614.712	21235.22
614.907	21181.97
615.103	21425.68
615.298	21089.81
615.493	21470.73
615.688	20760.09
615.884	21646.86
616.079	20706.84
616.274	21200.4
616.47	20833.82
616.665	20573.72
616.86	20772.38
617.055	21077.52
617.25	20567.58
617.445	20567.58
617.641	20555.29
617.836	20571.68
618.031	20346.4
618.226	20649.5
618.421	20319.78
618.616	20502.04
618.811	20301.34
619.006	20262.43
619.201	19940.9
619.396	20055.59
619.591	19789.35
619.786	19762.73
619.981	19525.16
620.176	19848.74
620.371	19521.07
620.566	19580.46
620.761	19285.55
620.956	19289.65
621.151	19177.01
621.346	19428.91
621.541	18939.44
621.735	19156.53
621.93	18693.69
622.125	18826.81
622.32	18777.65
622.515	18947.64
622.709	18304.57
622.904	18366.01
623.099	18347.58
623.294	18488.89
623.488	18277.95
623.683	18232.9
623.878	17911.36
624.072	17954.37
624.267	18069.06
624.462	17675.85
624.656	17405.52
624.851	17937.99
625.046	17628.74
625.24	17415.76
625.435	17114.7
625.629	17348.17
625.824	17176.14
626.018	16868.95
626.213	16682.58
626.407	16756.31
626.602	16528.99
626.796	16827.99
626.991	16655.96
627.185	16479.83
627.38	16207.45
627.574	16354.91
627.768	16244.32
627.963	16080.48
628.157	15967.84
628.352	16244.32
628.546	15523.43
628.74	15771.24
628.935	15697.51
629.129	15750.76
629.323	15605.35
629.517	15550.06
629.712	15285.87
629.906	15308.4
630.1	15042.16
630.294	15115.89
630.489	15220.33
630.683	15060.59
630.877	14896.75
631.071	14827.12
631.265	14980.72
631.459	14642.81
631.653	14509.69
631.848	14587.51
632.042	14495.35
632.236	14546.55
632.43	14077.57
632.624	14192.25
632.818	14048.89
633.012	14374.52
633.206	14020.22
633.4	13936.26
633.594	13651.59
633.788	13524.61
633.982	13790.85
634.176	13862.53
634.369	13678.21
634.563	13598.34
634.757	13414.02
634.951	13483.66
635.145	13223.56
635.339	13368.97
635.533	13225.61
635.726	13233.8
635.92	13041.29
636.114	12889.74
636.308	13080.21
636.501	12979.86
636.695	13004.43
636.889	12555.93
637.083	12512.92
637.276	12500.63
637.47	12508.82
637.664	12138.14
637.857	12504.73
638.051	12367.51
638.244	12146.33
638.438	12222.11
638.632	12076.7
638.825	11949.73
639.019	12072.61
639.212	12138.14
639.406	11902.62
639.599	11640.48
639.793	11638.44
639.986	11693.73
640.18	11542.18
640.373	11607.72
640.567	11509.41
640.76	11462.31
640.954	11179.69
641.147	11151.02
641.34	11058.86
641.534	11032.24
641.727	11044.52
641.92	11005.61
642.114	11151.02
642.307	11046.57
642.5	10809.01
642.694	10643.12
642.887	10583.73
643.08	11003.57
643.273	10710.71
643.467	10618.55
643.66	10495.67
643.853	10442.42
644.046	10254.01
644.239	10450.61
644.432	10352.31
644.626	10077.88
644.819	10163.9
645.012	10149.56
645.205	10280.63
645.398	9887.42
645.591	10000.06
645.784	9621.19
645.977	9635.52
646.17	9899.71
646.363	9619.14
646.556	9645.76
646.749	9713.35
646.942	9606.85
647.135	9543.36
647.328	9320.14
647.521	9418.44
647.714	9359.05
647.907	9232.07
648.099	9313.99
648.292	9299.66
648.485	9227.98
648.678	9125.58
648.871	9060.04
649.064	8896.21
649.256	9062.09
649.449	8939.21
649.642	8863.44
649.835	8672.98
650.027	8666.83
650.22	8601.3
650.413	8732.37
650.605	8763.09
650.798	8748.75
650.991	8466.13
651.183	8488.66
651.376	8261.34
651.568	8568.53
651.761	8425.17
651.954	8339.16
652.146	8330.97
652.339	8263.38
652.531	8193.75
652.724	8310.49
652.916	8066.78
653.109	7972.57
653.301	8025.82
653.494	8103.64
653.686	7825.12
653.879	8042.2
654.071	8070.87
654.263	7886.56
654.456	7737.06
654.648	7796.45
654.84	7718.62
655.033	7657.18
655.225	7653.09
655.417	7485.16
655.61	7724.77
655.802	7507.68
655.994	7540.45
656.186	7460.58
656.379	7513.83
656.571	7554.79
656.763	7063.27
656.955	7552.74
657.148	7245.54
657.34	7159.53
657.532	7184.1
657.724	6956.78
657.916	7032.55
658.108	7145.19
658.3	7048.94
658.492	7044.84
658.684	6905.58
658.876	6979.31
659.068	6979.31
659.26	6749.93
659.452	6819.57
659.644	6905.58
659.836	6668.02
660.028	6772.46
660.22	6489.84
660.412	6790.89
660.604	6557.43
660.796	6526.71
660.988	6610.67
661.18	6436.6
661.372	6395.64
661.563	6383.35
661.755	6409.97
661.947	6414.07
662.139	6299.38
662.331	6391.54
662.522	6311.67
662.714	6207.22
662.906	6283
663.097	6180.6
663.289	6217.46
663.481	6106.87
663.673	6227.7
663.864	6106.87
664.056	5885.69
664.247	5959.42
664.439	6043.39
664.631	6002.43
664.822	5902.08
665.014	5910.27
665.205	5940.99
665.397	5877.5
665.588	5764.86
665.78	5902.08
665.971	5672.7
666.163	5766.91
666.354	5734.14
666.546	5687.04
666.737	5635.84
666.929	5801.72
667.12	5478.15
667.311	5525.25
667.503	5570.3
667.694	5496.58
667.885	5633.79
668.077	5424.9
668.268	5506.82
668.459	5494.53
668.651	5474.05
668.842	5486.34
669.033	5420.8
669.224	5236.49
669.416	5353.22
669.607	5357.32
669.798	5179.14
669.989	5277.44
670.18	5213.96
670.371	5375.75
670.563	5154.57
670.754	5316.36
670.945	5066.5
671.136	5275.4
671.327	5097.22
671.518	5256.97
671.709	5232.39
671.9	5256.97
672.091	5154.57
672.282	5103.37
672.473	5123.85
672.664	5216.01
672.855	5013.26
673.046	5048.07
673.237	5181.19
673.428	4908.81
673.619	5039.88
673.809	5039.88
674	4953.87
674.191	4974.35
674.382	5013.26
674.573	4990.73
674.764	4886.28
674.954	5015.3
675.145	4839.18
675.336	4923.15
675.527	4947.72
675.717	4718.35
675.908	4849.42
676.099	4939.53
676.289	4910.86
676.48	4941.58
676.671	4904.71
676.861	4839.18
677.052	4718.35
677.243	4830.99
677.433	4884.23
677.624	4716.3
677.814	4876.04
678.005	4753.16
678.195	4675.34
678.386	4816.65
678.576	4566.8
678.767	4792.08
678.957	4609.81
679.148	4800.27
679.338	4624.14
679.529	4777.74
679.719	4675.34
679.909	4761.36
680.1	4650.77
680.29	4667.15
680.481	4814.6
680.671	4704.01
680.861	4734.73
681.052	4751.12
681.242	4714.25
681.432	4763.4
681.622	4685.58
681.813	4669.2
682.003	4724.49
682.193	4644.62
682.383	4658.96
682.573	4577.04
682.764	4570.9
682.954	4712.21
683.144	4724.49
683.334	4607.76
683.524	4574.99
683.714	4456.21
683.904	4663.05
684.094	4646.67
684.284	4550.42
684.474	4640.53
684.664	4456.21
684.854	4570.9
685.044	4523.79
685.234	4427.54
685.424	4560.66
685.614	4382.48
685.804	4591.38
685.994	4466.45
686.184	4521.74
686.374	4499.22
686.564	4396.82
686.753	4368.15
686.943	4376.34
687.133	4319
687.323	4470.55
687.513	4470.55
687.702	4417.3
687.892	4300.56
688.082	4210.45
688.272	4247.32
688.461	4405.01
688.651	4413.2
688.841	4235.03
689.03	4286.23
689.22	4243.22
689.41	4263.7
689.599	4216.6
689.789	4204.31
689.979	4204.31
690.168	4112.15
690.358	4155.16
690.547	4058.9
690.737	4206.36
690.926	4261.65
691.116	4079.38
691.305	4118.29
691.495	4157.21
691.684	3991.32
691.874	4022.04
692.063	3936.03
692.252	3938.07
692.442	3983.13
692.631	3909.4
692.82	3956.5
693.01	3870.49
693.199	4101.91
693.388	3733.28
693.578	3923.74
693.767	3876.63
693.956	3974.94
694.146	3829.53
694.335	3878.68
694.524	3852.06
694.713	3858.2
694.902	3835.67
695.092	3921.69
695.281	3880.73
695.47	3876.63
695.659	3862.3
695.848	3708.7
696.037	3741.47
696.226	3727.13
696.415	3759.9
696.604	3774.24
696.793	3753.76
696.982	3757.85
697.171	3698.46
697.36	3792.67
697.549	3637.02
697.738	3868.44
697.927	3718.94
698.116	3718.94
698.305	3729.18
698.494	3733.28
698.683	3714.84
698.872	3727.13
699.061	3694.36
699.25	3583.77
699.438	3639.07
699.627	3634.97
699.816	3821.34
700.005	3634.97
700.193	3618.59
700.382	3766.04
700.571	3761.95
700.76	3751.71
700.948	3671.84
701.137	3727.13
701.326	3614.49
701.514	3645.21
701.703	3753.76
701.892	3567.39
702.08	3647.26
702.269	3718.94
702.457	3571.49
702.646	3589.92
702.834	3591.97
703.023	3712.8
703.212	3680.03
703.4	3620.64
703.589	3626.78
703.777	3704.6
703.965	3647.26
704.154	3718.94
704.342	3766.04
704.531	3739.42
704.719	3487.52
704.907	3759.9
705.096	3802.91
705.284	3508
705.472	3610.4
705.661	3475.23
705.849	3774.24
706.037	3677.98
706.226	3634.97
706.414	3622.69
706.602	3575.58
706.79	3673.89
706.979	3569.44
707.167	3503.9
707.355	3553.06
707.543	3467.04
707.731	3614.49
707.919	3634.97
708.107	3579.68
708.296	3819.29
708.484	3632.93
708.672	3663.65
708.86	3639.07
709.048	3630.88
709.236	3606.3
709.424	3702.56
709.612	3741.47
709.8	3637.02
709.988	3594.01
710.176	3598.11
710.364	3591.97
710.551	3753.76
710.739	3628.83
710.927	3616.54
711.115	3661.6
711.303	3692.32
711.491	3622.69
711.679	3596.06
711.866	3583.77
712.054	3671.84
712.242	3643.17
712.43	3632.93
712.617	3589.92
712.805	3608.35
712.993	3757.85
713.181	3632.93
713.368	3735.32
713.556	3786.52
713.744	3637.02
713.931	3704.6
714.119	3671.84
714.306	3630.88
714.494	3585.82
714.682	3684.13
714.869	3667.74
715.057	3768.09
715.244	3682.08
715.432	3700.51
715.619	3614.49
715.807	3645.21
715.994	3649.31
716.182	3618.59
716.369	3704.6
716.556	3614.49
716.744	3620.64
716.931	3714.84
717.119	3684.13
717.306	3704.6
717.493	3694.36
717.681	3815.2
717.868	3696.41
718.055	3598.11
718.242	3594.01
718.43	3647.26
718.617	3641.12
718.804	3647.26
718.991	3663.65
719.179	3673.89
719.366	3720.99
719.553	3634.97
719.74	3639.07
719.927	3594.01
720.114	3489.57
720.301	3745.56
720.488	3733.28
720.676	3508
720.863	3606.3
721.05	3718.94
721.237	3735.32
721.424	3837.72
721.611	3655.45
721.798	3571.49
721.985	3675.93
722.172	3632.93
722.358	3575.58
722.545	3704.6
722.732	3557.15
722.919	3518.24
723.106	3438.37
723.293	3649.31
723.48	3741.47
723.667	3469.09
723.853	3632.93
724.04	3598.11
724.227	3620.64
724.414	3591.97
724.6	3532.58
724.787	3702.56
724.974	3694.36
725.161	3587.87
725.347	3639.07
725.534	3551.01
725.72	3571.49
725.907	3538.72
726.094	3628.83
726.28	3510.05
726.467	3542.82
726.653	3641.12
726.84	3598.11
727.027	3655.45
727.213	3467.04
727.4	3514.14
727.586	3649.31
727.773	3424.03
727.959	3524.38
728.145	3516.19
728.332	3577.63
728.518	3512.1
728.705	3571.49
728.891	3516.19
729.077	3614.49
729.264	3454.75
729.45	3415.84
729.636	3501.86
729.823	3454.75
730.009	3637.02
730.195	3634.97
730.382	3602.21
730.568	3618.59
730.754	3532.58
730.94	3419.94
731.126	3475.23
731.313	3512.1
731.499	3577.63
731.685	3487.52
731.871	3469.09
732.057	3376.93
732.243	3452.7
732.429	3534.62
732.615	3467.04
732.801	3385.12
732.987	3444.51
733.173	3335.97
733.359	3475.23
733.545	3487.52
733.731	3358.5
733.917	3469.09
734.103	3387.17
734.289	3438.37
734.475	3446.56
734.661	3428.13
734.847	3346.21
735.033	3460.9
735.219	3419.94
735.404	3460.9
735.59	3411.75
735.776	3417.89
735.962	3510.05
736.148	3319.59
736.333	3348.26
736.519	3327.78
736.705	3360.55
736.89	3397.41
737.076	3286.82
737.262	3262.24
737.447	3368.74
737.633	3303.2
737.819	3360.55
738.004	3290.92
738.19	3364.64
738.375	3274.53
738.561	3297.06
738.747	3225.38
738.932	3200.8
739.118	3338.02
739.303	3309.35
739.489	3190.56
739.674	3192.61
739.859	3292.96
740.045	3254.05
740.23	3137.32
740.416	3096.36
740.601	3278.63
740.786	3151.65
740.972	3264.29
741.157	3104.55
741.342	3055.4
741.528	3155.75
741.713	3252
741.898	3022.63
742.084	3098.41
742.269	3032.87
742.454	3082.02
742.639	2977.58
742.824	3120.93
743.01	3106.6
743.195	2961.19
743.38	3088.17
743.565	2944.81
743.75	3024.68
743.935	2864.94
744.12	2959.14
744.305	2856.75
744.49	2811.69
744.675	2950.95
744.86	2946.86
745.045	2926.38
745.23	2815.79
745.415	2856.75
745.6	2973.48
745.785	2740.01
745.97	2897.71
746.155	2899.75
746.34	2873.13
746.525	2758.44
746.71	2750.25
746.895	2699.05
747.079	2707.24
747.264	2692.91
747.449	2654
747.634	2662.19
747.819	2668.33
748.003	2445.1
748.188	2639.66
748.373	2610.99
748.557	2467.63
748.742	2637.61
748.927	2553.65
749.111	2428.72
749.296	2469.68
749.481	2516.78
749.665	2514.73
749.85	2428.72
750.034	2494.26
750.219	2535.21
750.404	2484.02
750.588	2328.37
750.773	2330.42
750.957	2266.93
751.141	2250.55
751.326	2375.47
751.51	2277.17
751.695	2264.88
751.879	2205.49
752.064	2342.71
752.248	2271.03
752.432	2215.73
752.617	2197.3
752.801	2162.48
752.985	2225.97
753.17	2045.75
753.354	2225.97
753.538	2146.1
753.722	2170.68
753.907	2051.89
754.091	1976.12
754.275	2070.33
754.459	1990.45
754.643	2037.56
754.828	1922.87
755.012	1943.35
755.196	1931.06
755.38	1883.96
755.564	1955.64
755.748	1881.91
755.932	1963.83
756.116	1859.38
756.3	1843
756.484	2068.28
756.668	1869.62
756.852	1797.95
757.036	1849.15
757.22	1795.9
757.404	1804.09
757.588	1777.47
757.772	1771.32
757.956	1726.27
758.14	1900.34
758.323	1734.46
758.507	1818.43
758.691	1664.83
758.875	1726.27
759.059	1679.16
759.242	1636.16
759.426	1763.13
759.61	1705.79
759.794	1658.68
759.977	1670.97
760.161	1640.25
760.345	1630.01
760.528	1668.92
760.712	1636.16
760.895	1564.48
761.079	1673.02
761.263	1656.64
761.446	1546.05
761.63	1503.04
761.813	1492.8
761.997	1529.66
762.18	1492.8
762.364	1539.9
762.547	1388.35
762.731	1490.75
762.914	1484.61
763.098	1374.02
763.281	1447.74
763.464	1425.22
763.648	1374.02
763.831	1517.37
764.015	1419.07
764.198	1470.27
764.381	1447.74
764.564	1537.85
764.748	1427.26
764.931	1406.78
765.114	1341.25
765.297	1384.26
765.481	1386.3
765.664	1427.26
765.847	1374.02
766.03	1462.08
766.213	1376.06
766.397	1357.63
766.58	1333.06
766.763	1404.74
766.946	1359.68
767.129	1382.21
767.312	1253.19
767.495	1216.32
767.678	1382.21
767.861	1251.14
768.044	1333.06
768.227	1347.39
768.41	1228.61
768.593	1296.19
768.776	1210.18
768.959	1298.24
769.142	1349.44
769.324	1296.19
769.507	1247.04
769.69	1294.15
769.873	1310.53
770.056	1259.33
770.239	1173.32
770.421	1195.84
770.604	1181.51
770.787	1165.12
770.97	1163.08
771.152	1134.4
771.335	1210.18
771.518	1208.13
771.7	1201.99
771.883	1115.97
772.066	1124.16
772.248	1185.6
772.431	1109.83
772.613	1177.41
772.796	1193.8
772.978	1124.16
773.161	1111.88
773.343	1132.36
773.526	1142.6
773.708	1077.06
773.891	1118.02
774.073	995.14
774.256	1062.73
774.438	1048.39
774.621	1136.45
774.803	1060.68
774.985	892.74
775.168	1042.25
775.35	1081.16
775.532	1046.34
775.715	1001.29
775.897	900.94
776.079	995.14
776.261	1011.53
776.444	954.18
776.626	1011.53
776.808	960.33
776.99	907.08
777.173	943.94
777.355	878.41
777.537	968.52
777.719	952.13
777.901	902.98
778.083	857.93
778.265	935.75
778.447	952.13
778.629	882.5
778.811	829.26
778.993	915.27
779.175	829.26
779.357	780.11
779.539	812.87
779.721	823.11
779.903	808.78
780.085	798.54
780.267	800.59
780.449	778.06
780.631	909.13
780.812	796.49
780.994	843.59
781.176	730.95
781.358	790.35
781.54	759.63
781.721	763.72
781.903	728.91
782.085	735.05
782.267	808.78
782.448	726.86
782.63	771.91
782.812	657.23
782.993	733
783.175	728.91
783.357	628.56
783.538	718.67
783.72	667.47
783.901	597.84
784.083	595.79
784.264	765.77
784.446	616.27
784.627	689.99
784.809	671.56
784.99	614.22
785.172	640.84
785.353	659.28
785.535	653.13
785.716	608.08
785.897	548.68
786.079	597.84
786.26	616.27
786.441	581.45
786.623	526.16
786.804	505.68
786.985	593.74
787.167	517.97
787.348	563.02
787.529	657.23
787.71	616.27
787.891	636.75
788.073	585.55
788.254	483.15
788.435	538.45
788.616	520.01
788.797	542.54
788.978	503.63
789.159	587.6
789.34	474.96
789.522	581.45
789.703	450.38
789.884	497.49
790.065	536.4
790.246	493.39
790.427	534.35
790.607	526.16
790.788	603.98
790.969	450.38
791.15	501.58
791.331	522.06
791.512	538.45
791.693	438.09
791.874	534.35
792.054	503.63
792.235	493.39
792.416	409.42
792.597	450.38
792.778	440.14
792.958	458.57
793.139	440.14
793.32	452.43
793.5	438.09
793.681	460.62
793.862	458.57
794.042	460.62
794.223	458.57
794.404	468.81
794.584	472.91
794.765	464.72
794.945	411.47
795.126	345.94
795.306	413.52
795.487	456.53
795.667	397.14
795.848	477.01
796.028	464.72
796.209	393.04
796.389	405.33
796.57	413.52
796.75	386.9
796.93	362.32
797.111	395.09
797.291	309.07
797.471	407.38
797.652	378.7
797.832	339.79
798.012	417.61
798.192	321.36
798.373	339.79
798.553	304.98
798.733	368.46
798.913	311.12
799.093	415.57
799.274	362.32
799.454	380.75
799.634	356.18
799.814	284.5
799.994	335.7
800.174	356.18
800.354	329.55
800.534	327.5
800.714	366.42
800.894	333.65
801.074	343.89
801.254	374.61
801.434	288.59
801.614	276.31
801.794	276.31
801.974	788.3
802.154	253.78
802.334	335.7
802.514	407.38
802.693	362.32
802.873	276.31
803.053	331.6
803.233	270.16
803.413	390.99
803.592	286.54
803.772	309.07
803.952	335.7
804.131	304.98
804.311	354.13
804.491	268.11
804.67	358.22
804.85	302.93
805.03	286.54
805.209	327.5
805.389	278.35
805.568	284.5
805.748	225.11
805.928	323.41
806.107	278.35
806.287	264.02
806.466	317.26
806.646	290.64
806.825	270.16
807.004	313.17
807.184	284.5
807.363	288.59
807.543	235.35
807.722	249.68
807.901	292.69
808.081	280.4
808.26	214.87
808.439	175.95
808.619	317.26
808.798	251.73
808.977	268.11
809.156	360.27
809.336	304.98
809.515	243.54
809.694	186.19
809.873	290.64
810.052	212.82
810.231	276.31
810.411	251.73
810.59	274.26
810.769	255.83
810.948	259.92
811.127	110.42
811.306	204.63
811.485	247.63
811.664	237.39
811.843	239.44
812.022	235.35
812.201	247.63
812.38	290.64
812.559	239.44
812.737	245.59
812.916	249.68
813.095	235.35
813.274	210.77
813.453	272.21
813.632	255.83
813.811	282.45
813.989	194.39
814.168	317.26
814.347	280.4
814.526	214.87
814.704	169.81
814.883	202.58
815.062	206.67
815.24	221.01
815.419	145.24
815.598	235.35
815.776	169.81
815.955	239.44
816.133	221.01
816.312	149.33
816.49	155.47
816.669	194.39
816.847	190.29
817.026	198.48
817.204	165.71
817.383	227.15
817.561	188.24
817.74	157.52
817.918	311.12
818.097	192.34
818.275	261.97
818.453	112.47
818.632	212.82
818.81	124.76
818.988	243.54
819.167	206.67
819.345	124.76
819.523	243.54
819.701	145.24
819.879	210.77
820.058	294.74
820.236	178
820.414	167.76
820.592	175.95
820.77	186.19
820.948	192.34
821.127	159.57
821.305	157.52
821.483	100.18
821.661	321.36
821.839	143.19
822.017	218.96
822.195	141.14
822.373	210.77
822.551	149.33
822.729	196.43
822.907	167.76
823.085	122.71
823.262	81.75
823.44	108.37
823.618	130.9
823.796	202.58
823.974	155.47
824.152	124.76
824.329	169.81
824.507	184.15
824.685	118.61
824.863	196.43
825.04	118.61
825.218	218.96
825.396	135
825.574	182.1
825.751	190.29
825.929	190.29
826.107	126.8
826.284	83.8
826.462	161.62
826.639	83.8
826.817	112.47
826.994	122.71
827.172	124.76
827.349	116.56
827.527	135
827.704	216.91
827.882	165.71
828.059	128.85
828.237	139.09
828.414	79.7
828.591	98.13
828.769	128.85
828.946	108.37
829.124	128.85
829.301	122.71
829.478	46.93
829.655	106.32
829.833	96.08
830.01	126.8
830.187	81.75
830.364	112.47
830.542	85.84
830.719	132.95
830.896	122.71
831.073	190.29
831.25	153.43
831.427	137.04
831.604	132.95
831.782	83.8
831.959	128.85
832.136	83.8
832.313	180.05
832.49	104.28
832.667	145.24
832.844	108.37
833.021	137.04
833.198	98.13
833.374	153.43
833.551	104.28
833.728	126.8
833.905	157.52
834.082	163.67
834.259	100.18
834.436	190.29
834.612	141.14
834.789	145.24
834.966	120.66
835.143	116.56
835.319	51.03
835.496	108.37
835.673	171.86
835.85	89.94
836.026	132.95
836.203	192.34
836.38	120.66
836.556	61.27
836.733	130.9
836.909	116.56
837.086	118.61
837.262	14.17
837.439	26.45
837.616	120.66
837.792	122.71
837.968	104.28
838.145	89.94
838.321	137.04
838.498	132.95
838.674	188.24
838.851	124.76
839.027	91.99
839.203	169.81
839.38	155.47
839.556	116.56
839.732	67.41
839.909	89.94
840.085	106.32
840.261	87.89
840.437	108.37
840.614	89.94
840.79	153.43
840.966	89.94
841.142	116.56
841.318	73.56
841.494	65.36
841.671	32.6
841.847	120.66
842.023	22.36
842.199	135
842.375	55.12
842.551	38.74
842.727	48.98
842.903	100.18
843.079	96.08
843.255	118.61
843.431	67.41
843.607	24.4
843.783	26.45
843.959	118.61
844.134	94.04
844.31	110.42
844.486	67.41
844.662	91.99
844.838	38.74
845.013	130.9
845.189	83.8
845.365	67.41
845.541	46.93
845.716	120.66
845.892	139.09
846.068	91.99
846.244	26.45
846.419	51.03
846.595	30.55
846.77	51.03
846.946	139.09
847.122	10.07
847.297	75.6
847.473	98.13
847.648	10.07
847.824	81.75
847.999	-18.6
848.175	85.84
848.35	48.98
848.526	116.56
848.701	83.8
848.876	106.32
849.052	53.08
849.227	79.7
849.403	63.32
849.578	48.98
849.753	48.98
849.929	100.18
850.104	42.84
850.279	18.26
850.454	102.23
850.63	20.31
850.805	108.37
850.98	71.51
851.155	73.56
851.33	55.12
851.505	-28.84
851.681	102.23
851.856	36.69
852.031	75.6
852.206	96.08
852.381	100.18
852.556	65.36
852.731	40.79
852.906	178
853.081	79.7
853.256	96.08
853.431	120.66
853.606	14.17
853.781	34.64
853.956	16.21
854.131	59.22
854.305	-49.32
854.48	48.98
854.655	8.02
854.83	24.4
855.005	71.51
855.18	48.98
855.354	85.84
855.529	-6.31
855.704	14.17
855.879	71.51
856.053	75.6
856.228	100.18
856.403	-14.51
856.577	57.17
856.752	57.17
856.926	100.18
857.101	-8.36
857.276	-8.36
857.45	96.08
857.625	57.17
857.799	8.02
857.974	51.03
858.148	-2.22
858.323	8.02
858.497	32.6
858.672	14.17
858.846	1.88
859.02	83.8
859.195	73.56
859.369	100.18
859.543	71.51
859.718	30.55
859.892	8.02
860.066	34.64
860.241	73.56
860.415	59.22
860.589	-18.6
860.763	8.02
860.938	96.08
861.112	75.6
861.286	-61.61
861.46	10.07
861.634	38.74
861.808	104.28
861.982	42.84
862.157	-0.17
862.331	-24.75
862.505	24.4
862.679	1.88
862.853	1.88
863.027	79.7
863.201	145.24
863.375	59.22
863.549	55.12
863.722	18.26
863.896	1.88
864.07	63.32
864.244	-10.41
864.418	67.41
864.592	8.02
864.766	65.36
864.939	63.32
865.113	10.07
865.287	48.98
865.461	-14.51
865.634	51.03
865.808	1.88
865.982	20.31
866.156	10.07
866.329	51.03
866.503	14.17
866.676	38.74
866.85	55.12
867.024	79.7
867.197	24.4
867.371	55.12
867.544	32.6
867.718	65.36
867.891	57.17
868.065	40.79
868.238	71.51
868.412	38.74
868.585	83.8
868.759	14.17
868.932	-6.31
869.105	26.45
869.279	18.26
869.452	75.6
869.625	67.41
869.799	12.12
869.972	-92.33
870.145	26.45
870.319	114.52
870.492	-22.7
870.665	77.65
870.838	112.47
871.011	8.02
871.185	73.56
871.358	-63.66
871.531	91.99
871.704	28.5
871.877	67.41
872.05	53.08
872.223	161.62
872.396	100.18
872.569	18.26
872.742	30.55
872.915	12.12
873.088	34.64
873.261	-10.41
873.434	34.64
873.607	8.02
873.78	30.55
873.953	26.45
874.126	61.27
874.299	20.31
874.471	65.36
874.644	34.64
874.817	42.84
874.99	12.12
875.163	1.88
875.335	51.03
875.508	55.12
875.681	87.89
875.853	-0.17
876.026	-22.7
876.199	28.5
876.371	48.98
876.544	-18.6
876.717	5.97
876.889	10.07
877.062	61.27
877.234	-14.51
877.407	65.36
877.579	-49.32
877.752	87.89
877.924	10.07
878.097	12.12
878.269	14.17
878.442	46.93
878.614	51.03
878.786	57.17
878.959	-14.51
879.131	38.74
879.303	22.36
879.476	1.88
879.648	75.6
879.82	67.41
879.993	67.41
880.165	71.51
880.337	16.21
880.509	53.08
880.681	-18.6
880.854	-59.56
881.026	57.17
881.198	63.32
881.37	34.64
881.542	16.21
881.714	14.17
881.886	38.74
882.058	18.26
882.23	44.88
882.402	14.17
882.574	44.88
882.746	10.07
882.918	14.17
883.09	34.64
883.262	3.93
883.434	18.26
883.606	-0.17
883.778	48.98
883.95	34.64
884.122	5.97
884.293	-26.79
884.465	65.36
884.637	61.27
884.809	26.45
884.98	53.08
885.152	1.88
885.324	106.32
885.496	-43.18
885.667	16.21
885.839	20.31
886.011	10.07
886.182	36.69
886.354	89.94
886.525	30.55
886.697	32.6
886.869	1.88
887.04	24.4
887.212	14.17
887.383	51.03
887.555	-39.08
887.726	-53.42
887.897	-22.7
888.069	55.12
888.24	71.51
888.412	51.03
888.583	-24.75
888.754	5.97
888.926	55.12
889.097	-30.89
889.268	-6.31
889.44	79.7
889.611	24.4
889.782	-14.51
889.953	-4.27
890.125	18.26
890.296	-6.31
890.467	3.93
890.638	14.17
890.809	24.4
890.98	61.27
891.151	40.79
891.323	-12.46
891.494	34.64
891.665	-16.55
891.836	91.99
892.007	16.21
892.178	18.26
892.349	89.94
892.52	22.36
892.691	85.84
892.862	18.26
893.032	-14.51
893.203	8.02
893.374	16.21
893.545	83.8
893.716	10.07
893.887	36.69
894.057	-14.51
894.228	71.51
894.399	-14.51
894.57	32.6
894.74	-6.31
894.911	30.55
895.082	-26.79
895.253	-30.89
895.423	110.42
895.594	83.8
895.764	20.31
895.935	5.97
896.106	34.64
896.276	42.84
896.447	26.45
896.617	34.64
896.788	51.03
896.958	61.27
897.129	-47.27
897.299	59.22
897.47	87.89
897.64	16.21
897.81	-10.41
897.981	22.36
898.151	-6.31
898.322	48.98
898.492	16.21
898.662	-16.55
898.832	24.4
899.003	12.12
899.173	51.03
899.343	-10.41
899.513	-41.13
