Data from USB4F104151__188__10-28-44-711.txt Node

Date: Wed Mar 12 10:28:44 EDT 2025
User: louis
Spectrometer: USB4F10415
Trigger mode: 4
Integration Time (sec): 3.000000E-2
Scans to average: 1
Electric dark correction enabled: true
Nonlinearity correction enabled: false
Boxcar width: 0
XAxis mode: Wavelengths
Number of Pixels in Spectrum: 3648
>>>>>Begin Spectral Data<<<<<
178.204	-112.13
178.424	-112.13
178.644	-112.13
178.864	-116.22
179.084	-214.52
179.304	0.51
179.524	-9.73
179.744	4.61
179.964	47.62
180.184	10.75
180.404	25.09
180.624	-5.63
180.844	12.8
181.064	-89.6
181.283	-19.97
181.503	29.18
181.723	-5.63
181.943	-13.82
182.163	78.33
182.383	61.95
182.602	35.33
182.822	80.38
183.042	51.71
183.262	47.62
183.482	100.86
183.701	-60.93
183.921	14.85
184.141	-54.78
184.361	113.15
184.58	-3.58
184.8	74.24
185.02	78.33
185.239	70.14
185.459	25.09
185.679	29.18
185.898	10.75
186.118	53.76
186.338	23.04
186.557	-19.97
186.777	57.86
186.997	31.23
187.216	12.8
187.436	41.47
187.655	-52.74
187.875	76.29
188.095	31.23
188.314	96.77
188.534	82.43
188.753	92.67
188.973	72.19
189.192	64
189.412	45.57
189.631	-24.06
189.851	27.14
190.07	20.99
190.29	10.75
190.509	27.14
190.729	8.7
190.948	-11.78
191.168	64
191.387	8.7
191.607	12.8
191.826	64
192.045	-22.02
192.265	68.09
192.484	31.23
192.704	23.04
192.923	-62.98
193.142	64
193.362	-22.02
193.581	80.38
193.8	66.05
194.02	8.7
194.239	57.86
194.458	2.56
194.678	35.33
194.897	-22.02
195.116	25.09
195.335	53.76
195.555	33.28
195.774	-11.78
195.993	-50.69
196.212	25.09
196.432	94.72
196.651	107.01
196.87	8.7
197.089	49.66
197.308	23.04
197.528	78.33
197.747	59.9
197.966	72.19
198.185	59.9
198.404	-28.16
198.623	33.28
198.842	20.99
199.062	51.71
199.281	66.05
199.5	92.67
199.719	29.18
199.938	133.63
200.157	12.8
200.376	39.42
200.595	76.29
200.814	35.33
201.033	78.33
201.252	18.94
201.471	35.33
201.69	80.38
201.909	16.9
202.128	31.23
202.347	18.94
202.566	10.75
202.785	-38.4
203.004	-1.54
203.223	127.49
203.442	109.05
203.661	-13.82
203.879	-54.78
204.098	49.66
204.317	-7.68
204.536	25.09
204.755	29.18
204.974	47.62
205.193	14.85
205.411	90.62
205.63	31.23
205.849	29.18
206.068	66.05
206.287	31.23
206.505	20.99
206.724	25.09
206.943	88.57
207.162	-5.63
207.381	6.66
207.599	12.8
207.818	51.71
208.037	53.76
208.255	-54.78
208.474	84.48
208.693	-5.63
208.911	8.7
209.13	64
209.349	-15.87
209.567	80.38
209.786	70.14
210.005	59.9
210.223	51.71
210.442	-15.87
210.661	-5.63
210.879	-17.92
211.098	41.47
211.316	-17.92
211.535	51.71
211.753	6.66
211.972	88.57
212.191	43.52
212.409	12.8
212.628	68.09
212.846	16.9
213.065	43.52
213.283	57.86
213.502	-40.45
213.72	80.38
213.938	31.23
214.157	-15.87
214.375	-19.97
214.594	-52.74
214.812	6.66
215.031	8.7
215.249	6.66
215.467	27.14
215.686	10.75
215.904	119.29
216.122	12.8
216.341	72.19
216.559	109.05
216.778	49.66
216.996	53.76
217.214	68.09
217.432	18.94
217.651	-22.02
217.869	27.14
218.087	27.14
218.306	66.05
218.524	27.14
218.742	-13.82
218.96	27.14
219.179	20.99
219.397	55.81
219.615	121.34
219.833	59.9
220.051	-28.16
220.27	59.9
220.488	76.29
220.706	14.85
220.924	61.95
221.142	66.05
221.36	35.33
221.578	92.67
221.796	47.62
222.015	29.18
222.233	55.81
222.451	121.34
222.669	0.51
222.887	47.62
223.105	16.9
223.323	-58.88
223.541	-17.92
223.759	14.85
223.977	25.09
224.195	131.58
224.413	74.24
224.631	-5.63
224.849	72.19
225.067	64
225.285	2.56
225.503	84.48
225.721	-36.35
225.939	16.9
226.157	102.91
226.375	39.42
226.592	43.52
226.81	123.39
227.028	-11.78
227.246	100.86
227.464	23.04
227.682	47.62
227.9	6.66
228.117	2.56
228.335	76.29
228.553	-5.63
228.771	14.85
228.989	16.9
229.206	18.94
229.424	8.7
229.642	8.7
229.86	23.04
230.077	121.34
230.295	-32.26
230.513	80.38
230.731	29.18
230.948	47.62
231.166	-26.11
231.384	-15.87
231.601	39.42
231.819	57.86
232.037	-7.68
232.254	43.52
232.472	53.76
232.689	39.42
232.907	76.29
233.125	98.81
233.342	8.7
233.56	-13.82
233.777	107.01
233.995	-28.16
234.213	137.73
234.43	14.85
234.648	59.9
234.865	-17.92
235.083	35.33
235.3	92.67
235.518	68.09
235.735	18.94
235.953	37.38
236.17	80.38
236.388	49.66
236.605	53.76
236.822	88.57
237.04	64
237.257	59.9
237.475	16.9
237.692	137.73
237.909	18.94
238.127	-9.73
238.344	117.25
238.562	84.48
238.779	-44.54
238.996	-5.63
239.214	-3.58
239.431	27.14
239.648	33.28
239.865	-11.78
240.083	64
240.3	80.38
240.517	80.38
240.735	27.14
240.952	-13.82
241.169	39.42
241.386	45.57
241.603	29.18
241.821	76.29
242.038	59.9
242.255	49.66
242.472	80.38
242.689	2.56
242.907	109.05
243.124	27.14
243.341	80.38
243.558	-1.54
243.775	14.85
243.992	8.7
244.209	23.04
244.426	53.76
244.643	-5.63
244.86	-13.82
245.078	98.81
245.295	18.94
245.512	45.57
245.729	31.23
245.946	57.86
246.163	27.14
246.38	8.7
246.597	-40.45
246.814	49.66
247.031	61.95
247.248	-13.82
247.464	4.61
247.681	70.14
247.898	82.43
248.115	49.66
248.332	0.51
248.549	18.94
248.766	125.44
248.983	55.81
249.2	27.14
249.417	80.38
249.633	35.33
249.85	23.04
250.067	57.86
250.284	64
250.501	92.67
250.717	8.7
250.934	10.75
251.151	-1.54
251.368	14.85
251.585	72.19
251.801	-24.06
252.018	59.9
252.235	51.71
252.451	-19.97
252.668	35.33
252.885	88.57
253.102	25.09
253.318	-5.63
253.535	92.67
253.752	20.99
253.968	41.47
254.185	59.9
254.401	113.15
254.618	-19.97
254.835	18.94
255.051	72.19
255.268	35.33
255.484	47.62
255.701	39.42
255.917	102.91
256.134	76.29
256.351	55.81
256.567	-17.92
256.784	-28.16
257	78.33
257.217	49.66
257.433	43.52
257.65	47.62
257.866	2.56
258.082	68.09
258.299	39.42
258.515	68.09
258.732	-22.02
258.948	20.99
259.165	76.29
259.381	-13.82
259.597	12.8
259.814	33.28
260.03	14.85
260.246	8.7
260.463	27.14
260.679	113.15
260.895	107.01
261.112	88.57
261.328	10.75
261.544	31.23
261.761	84.48
261.977	33.28
262.193	12.8
262.409	59.9
262.626	2.56
262.842	59.9
263.058	47.62
263.274	80.38
263.49	8.7
263.707	14.85
263.923	57.86
264.139	43.52
264.355	57.86
264.571	41.47
264.787	2.56
265.004	-1.54
265.22	27.14
265.436	27.14
265.652	31.23
265.868	113.15
266.084	2.56
266.3	33.28
266.516	31.23
266.732	43.52
266.948	27.14
267.164	35.33
267.38	39.42
267.596	59.9
267.812	96.77
268.028	70.14
268.244	51.71
268.46	64
268.676	68.09
268.892	37.38
269.108	-36.35
269.324	-3.58
269.54	25.09
269.756	27.14
269.972	12.8
270.188	33.28
270.403	4.61
270.619	4.61
270.835	39.42
271.051	16.9
271.267	-7.68
271.483	43.52
271.698	43.52
271.914	76.29
272.13	14.85
272.346	90.62
272.562	-5.63
272.777	25.09
272.993	51.71
273.209	6.66
273.425	45.57
273.64	14.85
273.856	43.52
274.072	8.7
274.287	76.29
274.503	68.09
274.719	47.62
274.934	35.33
275.15	2.56
275.366	49.66
275.581	18.94
275.797	29.18
276.012	37.38
276.228	45.57
276.444	68.09
276.659	74.24
276.875	29.18
277.09	-19.97
277.306	57.86
277.521	37.38
277.737	25.09
277.952	55.81
278.168	68.09
278.383	35.33
278.599	80.38
278.814	-1.54
279.03	80.38
279.245	27.14
279.461	16.9
279.676	127.49
279.892	-36.35
280.107	47.62
280.322	43.52
280.538	41.47
280.753	82.43
280.969	-40.45
281.184	78.33
281.399	-11.78
281.615	43.52
281.83	31.23
282.045	10.75
282.26	12.8
282.476	84.48
282.691	45.57
282.906	43.52
283.122	31.23
283.337	27.14
283.552	57.86
283.767	-38.4
283.983	25.09
284.198	4.61
284.413	35.33
284.628	-1.54
284.843	47.62
285.058	98.81
285.274	64
285.489	25.09
285.704	43.52
285.919	16.9
286.134	90.62
286.349	31.23
286.564	76.29
286.779	33.28
286.995	47.62
287.21	16.9
287.425	84.48
287.64	-9.73
287.855	92.67
288.07	18.94
288.285	0.51
288.5	14.85
288.715	29.18
288.93	27.14
289.145	20.99
289.36	43.52
289.575	57.86
289.79	59.9
290.004	29.18
290.219	68.09
290.434	59.9
290.649	41.47
290.864	12.8
291.079	27.14
291.294	35.33
291.509	86.53
291.724	31.23
291.938	10.75
292.153	-15.87
292.368	14.85
292.583	72.19
292.798	82.43
293.012	49.66
293.227	80.38
293.442	-13.82
293.657	43.52
293.871	98.81
294.086	68.09
294.301	160.25
294.516	78.33
294.73	137.73
294.945	64
295.16	39.42
295.374	2.56
295.589	68.09
295.804	72.19
296.018	8.7
296.233	78.33
296.447	102.91
296.662	18.94
296.877	53.76
297.091	80.38
297.306	33.28
297.52	47.62
297.735	-52.74
297.949	53.76
298.164	33.28
298.378	49.66
298.593	4.61
298.807	39.42
299.022	14.85
299.236	90.62
299.451	70.14
299.665	59.9
299.88	127.49
300.094	-28.16
300.309	14.85
300.523	41.47
300.737	39.42
300.952	68.09
301.166	84.48
301.381	39.42
301.595	-3.58
301.809	10.75
302.024	-1.54
302.238	0.51
302.452	59.9
302.667	84.48
302.881	61.95
303.095	53.76
303.309	10.75
303.524	14.85
303.738	64
303.952	20.99
304.166	57.86
304.381	43.52
304.595	111.1
304.809	41.47
305.023	14.85
305.237	2.56
305.452	18.94
305.666	78.33
305.88	121.34
306.094	27.14
306.308	82.43
306.522	68.09
306.736	27.14
306.95	74.24
307.164	53.76
307.379	20.99
307.593	109.05
307.807	-5.63
308.021	-19.97
308.235	-17.92
308.449	-93.69
308.663	72.19
308.877	133.63
309.091	68.09
309.305	68.09
309.519	6.66
309.733	-9.73
309.947	27.14
310.161	68.09
310.374	51.71
310.588	14.85
310.802	18.94
311.016	-7.68
311.23	-5.63
311.444	68.09
311.658	45.57
311.872	55.81
312.085	2.56
312.299	78.33
312.513	12.8
312.727	-17.92
312.941	4.61
313.154	82.43
313.368	41.47
313.582	41.47
313.796	6.66
314.009	39.42
314.223	53.76
314.437	70.14
314.651	-1.54
314.864	55.81
315.078	51.71
315.292	12.8
315.505	68.09
315.719	49.66
315.933	16.9
316.146	-7.68
316.36	51.71
316.573	72.19
316.787	47.62
317.001	-71.17
317.214	33.28
317.428	88.57
317.641	27.14
317.855	104.96
318.068	76.29
318.282	76.29
318.495	39.42
318.709	23.04
318.922	-11.78
319.136	49.66
319.349	129.53
319.563	86.53
319.776	35.33
319.99	-19.97
320.203	43.52
320.417	100.86
320.63	72.19
320.843	104.96
321.057	100.86
321.27	72.19
321.483	59.9
321.697	64
321.91	49.66
322.124	70.14
322.337	10.75
322.55	51.71
322.763	45.57
322.977	-17.92
323.19	10.75
323.403	113.15
323.617	18.94
323.83	113.15
324.043	47.62
324.256	47.62
324.469	78.33
324.683	80.38
324.896	76.29
325.109	10.75
325.322	8.7
325.535	68.09
325.748	117.25
325.962	72.19
326.175	31.23
326.388	94.72
326.601	23.04
326.814	59.9
327.027	-5.63
327.24	100.86
327.453	-1.54
327.666	35.33
327.879	53.76
328.092	78.33
328.305	61.95
328.518	14.85
328.731	115.2
328.944	64
329.157	111.1
329.37	8.7
329.583	47.62
329.796	137.73
330.009	41.47
330.222	117.25
330.435	88.57
330.648	74.24
330.861	43.52
331.073	18.94
331.286	59.9
331.499	57.86
331.712	82.43
331.925	14.85
332.138	55.81
332.35	66.05
332.563	39.42
332.776	35.33
332.989	-19.97
333.202	-30.21
333.414	-5.63
333.627	68.09
333.84	39.42
334.053	88.57
334.265	74.24
334.478	51.71
334.691	-5.63
334.903	10.75
335.116	43.52
335.329	61.95
335.541	96.77
335.754	135.68
335.966	57.86
336.179	53.76
336.392	80.38
336.604	41.47
336.817	74.24
337.029	20.99
337.242	53.76
337.454	88.57
337.667	66.05
337.88	43.52
338.092	66.05
338.305	64
338.517	12.8
338.729	92.67
338.942	64
339.154	10.75
339.367	43.52
339.579	51.71
339.792	64
340.004	2.56
340.217	33.28
340.429	35.33
340.641	12.8
340.854	6.66
341.066	68.09
341.278	37.38
341.491	145.92
341.703	27.14
341.915	59.9
342.128	-38.4
342.34	33.28
342.552	25.09
342.764	20.99
342.977	66.05
343.189	64
343.401	121.34
343.613	27.14
343.826	64
344.038	23.04
344.25	102.91
344.462	35.33
344.674	115.2
344.886	80.38
345.099	133.63
345.311	92.67
345.523	64
345.735	-17.92
345.947	49.66
346.159	121.34
346.371	78.33
346.583	43.52
346.795	123.39
347.007	78.33
347.219	41.47
347.431	43.52
347.643	119.29
347.855	-5.63
348.067	37.38
348.279	25.09
348.491	47.62
348.703	72.19
348.915	66.05
349.127	47.62
349.339	72.19
349.551	84.48
349.763	68.09
349.975	47.62
350.187	61.95
350.399	43.52
350.61	98.81
350.822	18.94
351.034	72.19
351.246	49.66
351.458	37.38
351.669	-24.06
351.881	137.73
352.093	53.76
352.305	94.72
352.517	80.38
352.728	100.86
352.94	61.95
353.152	57.86
353.363	49.66
353.575	27.14
353.787	66.05
353.999	49.66
354.21	94.72
354.422	-17.92
354.633	66.05
354.845	-3.58
355.057	66.05
355.268	92.67
355.48	115.2
355.692	80.38
355.903	129.53
356.115	76.29
356.326	2.56
356.538	74.24
356.749	6.66
356.961	39.42
357.172	41.47
357.384	-3.58
357.595	96.77
357.807	29.18
358.018	59.9
358.23	47.62
358.441	119.29
358.653	133.63
358.864	37.38
359.075	51.71
359.287	-5.63
359.498	68.09
359.709	57.86
359.921	107.01
360.132	43.52
360.344	18.94
360.555	16.9
360.766	80.38
360.977	18.94
361.189	150.01
361.4	37.38
361.611	64
361.823	100.86
362.034	-1.54
362.245	-54.78
362.456	18.94
362.667	8.7
362.879	64
363.09	27.14
363.301	14.85
363.512	109.05
363.723	20.99
363.935	0.51
364.146	66.05
364.357	74.24
364.568	123.39
364.779	51.71
364.99	100.86
365.201	70.14
365.412	64
365.623	49.66
365.834	109.05
366.045	100.86
366.256	158.21
366.467	29.18
366.678	-5.63
366.889	-24.06
367.1	100.86
367.311	139.77
367.522	10.75
367.733	100.86
367.944	88.57
368.155	-17.92
368.366	115.2
368.577	100.86
368.788	88.57
368.999	27.14
369.209	45.57
369.42	35.33
369.631	74.24
369.842	84.48
370.053	-5.63
370.264	29.18
370.474	84.48
370.685	66.05
370.896	57.86
371.107	98.81
371.317	115.2
371.528	88.57
371.739	113.15
371.95	51.71
372.16	39.42
372.371	82.43
372.582	80.38
372.792	107.01
373.003	104.96
373.214	41.47
373.424	66.05
373.635	25.09
373.846	98.81
374.056	12.8
374.267	33.28
374.477	59.9
374.688	55.81
374.898	119.29
375.109	96.77
375.319	78.33
375.53	152.06
375.74	92.67
375.951	23.04
376.161	131.58
376.372	43.52
376.582	27.14
376.793	119.29
377.003	61.95
377.214	35.33
377.424	98.81
377.635	76.29
377.845	68.09
378.055	117.25
378.266	20.99
378.476	88.57
378.686	16.9
378.897	92.67
379.107	61.95
379.317	66.05
379.528	41.47
379.738	145.92
379.948	-7.68
380.158	72.19
380.369	18.94
380.579	16.9
380.789	115.2
380.999	113.15
381.21	111.1
381.42	94.72
381.63	31.23
381.84	84.48
382.05	84.48
382.261	98.81
382.471	115.2
382.681	158.21
382.891	94.72
383.101	70.14
383.311	84.48
383.521	102.91
383.731	109.05
383.941	162.3
384.151	-19.97
384.361	51.71
384.571	37.38
384.781	68.09
384.991	64
385.201	119.29
385.411	113.15
385.621	107.01
385.831	90.62
386.041	25.09
386.251	29.18
386.461	129.53
386.671	57.86
386.881	37.38
387.091	92.67
387.301	119.29
387.511	-17.92
387.72	33.28
387.93	76.29
388.14	162.3
388.35	135.68
388.56	154.11
388.769	39.42
388.979	86.53
389.189	92.67
389.399	115.2
389.609	57.86
389.818	74.24
390.028	133.63
390.238	88.57
390.447	80.38
390.657	88.57
390.867	98.81
391.076	18.94
391.286	96.77
391.496	137.73
391.705	145.92
391.915	109.05
392.125	117.25
392.334	98.81
392.544	94.72
392.753	92.67
392.963	127.49
393.172	86.53
393.382	92.67
393.591	213.5
393.801	64
394.01	178.69
394.22	88.57
394.429	117.25
394.639	201.21
394.848	107.01
395.058	168.45
395.267	188.93
395.477	109.05
395.686	107.01
395.895	219.64
396.105	176.64
396.314	160.25
396.524	117.25
396.733	82.43
396.942	158.21
397.152	160.25
397.361	168.45
397.57	205.31
397.78	145.92
397.989	145.92
398.198	195.07
398.407	186.88
398.617	166.4
398.826	164.35
399.035	82.43
399.244	145.92
399.453	168.45
399.663	86.53
399.872	174.59
400.081	150.01
400.29	145.92
400.499	152.06
400.708	162.3
400.917	57.86
401.127	221.69
401.336	188.93
401.545	168.45
401.754	172.54
401.963	147.97
402.172	76.29
402.381	158.21
402.59	172.54
402.799	143.87
403.008	193.02
403.217	211.45
403.426	154.11
403.635	100.86
403.844	170.49
404.053	168.45
404.262	117.25
404.471	199.16
404.68	231.93
404.888	233.98
405.097	203.26
405.306	195.07
405.515	334.33
405.724	223.74
405.933	268.8
406.142	283.13
406.35	279.04
406.559	289.28
406.768	229.88
406.977	350.71
407.185	289.28
407.394	303.61
407.603	252.41
407.812	383.48
408.02	369.15
408.229	344.57
408.438	328.19
408.646	383.48
408.855	307.71
409.064	334.33
409.272	334.33
409.481	291.32
409.69	410.11
409.898	367.1
410.107	397.82
410.315	424.44
410.524	436.73
410.733	471.54
410.941	428.54
411.15	600.57
411.358	553.46
411.567	606.71
411.775	524.79
411.984	551.42
412.192	629.24
412.401	541.18
412.609	614.9
412.818	698.87
413.026	672.25
413.234	664.05
413.443	678.39
413.651	768.5
413.86	825.84
414.068	834.04
414.276	844.28
414.485	813.56
414.693	862.71
414.901	991.73
415.11	1055.22
415.318	1006.06
415.526	1018.35
415.734	1075.7
415.943	1124.85
416.151	1065.46
416.359	1153.52
416.567	1284.59
416.776	1321.45
416.984	1247.72
417.192	1282.54
417.4	1407.47
417.608	1315.31
417.817	1489.39
418.025	1563.11
418.233	1761.77
418.441	1632.74
418.649	1649.13
418.857	1767.91
419.065	1729
419.273	1786.34
419.481	1898.98
419.689	1905.12
419.897	2071.01
420.105	2073.06
420.313	2163.17
420.521	2273.76
420.729	2306.52
420.937	2363.87
421.145	2505.18
421.353	2527.71
421.561	2574.81
421.769	2771.41
421.977	2804.18
422.185	2886.1
422.393	3086.8
422.601	3242.45
422.809	3125.71
423.017	3185.1
423.224	3346.89
423.432	3635.66
423.64	3480.01
423.848	3838.41
424.056	3746.25
424.263	4012.48
424.471	4127.17
424.679	4069.83
424.887	4374.97
425.094	4596.15
425.302	4501.95
425.51	4569.53
425.718	4786.61
425.925	4735.42
426.133	5099.95
426.341	5290.42
426.548	5501.36
426.756	5466.54
426.964	5659.05
427.171	5949.86
427.379	6119.84
427.586	6191.52
427.794	6160.8
428.001	6470.05
428.209	6824.34
428.417	6734.23
428.624	7227.79
428.832	7434.64
429.039	7100.82
429.247	7307.66
429.454	7917.96
429.662	8649.08
429.869	7983.49
430.076	8407.42
430.284	8176
430.491	8610.17
430.699	9030.01
430.906	9218.42
431.114	9275.76
431.321	9451.89
431.528	9714.03
431.736	10180.96
431.943	10795.36
432.15	10377.57
432.358	10594.65
432.565	11200.85
432.772	11188.57
432.979	11454.8
433.187	11805
433.394	11925.83
433.601	12769.6
433.808	12927.29
434.016	12865.85
434.223	13502.77
434.43	14086.44
434.637	13781.29
434.844	14575.91
435.052	15184.15
435.259	14958.88
435.466	15272.21
435.673	15044.89
435.88	15679.76
436.087	16615.68
436.294	16767.23
436.501	16353.54
436.708	16926.97
436.915	17152.25
437.122	17889.52
437.329	17701.11
437.537	18276.59
437.743	18737.38
437.95	18727.14
438.157	19597.52
438.364	20445.38
438.571	20306.12
438.778	20148.43
438.985	22132.91
439.192	21469.37
439.399	22034.61
439.606	21393.59
439.813	22722.73
440.02	24297.61
440.227	23455.9
440.433	23576.73
440.64	24258.7
440.847	24115.34
441.054	24871.04
441.261	26257.52
441.467	25905.27
441.674	26527.85
441.881	27400.29
442.088	27338.85
442.294	27023.46
442.501	27865.17
442.708	28522.57
442.914	29431.87
443.121	30732.33
443.328	29960.25
443.534	32040.98
443.741	31330.34
443.948	30588.97
444.154	32487.44
444.361	32694.29
444.568	32987.14
444.774	32884.75
444.981	33290.24
445.187	34119.67
445.394	35700.7
445.6	34996.2
445.807	38162.36
446.013	37113.8
446.22	37480.39
446.426	38688.69
446.633	39333.8
446.839	40355.74
447.046	39061.42
447.252	41244.55
447.459	40963.98
447.665	41351.05
447.871	42635.13
448.078	44468.06
448.284	42262.4
448.491	43224.94
448.697	44646.23
448.903	45889.35
449.11	45969.22
449.316	44857.17
449.522	45838.15
449.728	46937.91
449.935	47208.24
450.141	47550.25
450.347	48590.62
450.553	46939.96
450.76	47132.46
450.966	48455.45
451.172	48379.68
451.378	49553.16
451.584	48652.06
451.791	49198.87
451.997	49553.16
452.203	50024.2
452.409	49860.36
452.615	49504.01
452.821	48121.63
453.027	47771.43
453.233	49968.9
453.44	47796.01
453.646	48557.85
453.852	48168.74
454.058	49454.86
454.264	47472.43
454.47	48690.97
454.676	47376.17
454.882	49096.47
455.088	44787.54
455.294	46051.14
455.5	45834.05
455.705	46505.79
455.911	44785.49
456.117	43870.05
456.323	43224.94
456.529	41285.51
456.735	42631.03
456.941	41406.34
457.147	41385.86
457.352	39858.08
457.558	39505.83
457.764	39217.07
457.97	38539.19
458.176	38076.35
458.381	37818.3
458.587	35786.72
458.793	36149.21
458.999	34433.01
459.204	36554.71
459.41	35837.92
459.616	33419.27
459.821	33312.77
460.027	33185.8
460.233	32604.17
460.438	30801.96
460.644	30906.41
460.85	29796.41
461.055	29675.58
461.261	29466.69
461.466	27334.75
461.672	26351.73
461.878	28137.55
462.083	26286.19
462.289	26136.69
462.494	25663.61
462.7	24408.2
462.905	24105.1
463.111	24707.21
463.316	25004.16
463.522	24404.11
463.727	24236.17
463.932	24324.24
464.138	24078.48
464.343	23873.68
464.549	23644.31
464.754	24049.81
464.959	24277.13
465.165	23894.16
465.37	22878.37
465.575	22403.24
465.781	23359.64
465.986	23429.27
466.191	22624.42
466.397	22370.47
466.602	21098.69
466.807	21434.55
467.012	21889.2
467.218	21612.73
467.423	21385.4
467.628	21547.19
467.833	22364.33
468.038	21592.25
468.244	20701.38
468.449	21991.6
468.654	21248.19
468.859	20902.08
469.064	20809.92
469.269	20119.76
469.474	20019.41
469.679	20822.21
469.885	20089.04
470.09	20277.45
470.295	20017.36
470.5	19658.96
470.705	19634.39
470.91	19474.65
471.115	19196.12
471.32	19519.7
471.525	19392.73
471.73	19040.48
471.935	19093.72
472.139	18307.3
472.344	18481.38
472.549	18137.32
472.754	18032.88
472.959	17641.71
473.164	17266.94
473.369	17047.8
473.574	17668.34
473.778	17600.76
473.983	17244.41
474.188	17414.39
474.393	16623.87
474.598	16572.68
474.802	16419.08
475.007	16537.86
475.212	16476.42
475.417	15872.27
475.621	15902.99
475.826	15819.02
476.031	15440.15
476.235	15284.5
476.44	15415.57
476.645	15157.53
476.849	15194.39
477.054	14819.61
477.259	14549.28
477.463	14807.33
477.668	14252.33
477.872	14338.34
478.077	14479.65
478.282	13771.05
478.486	13957.42
478.691	13723.95
478.895	13664.56
479.1	13814.06
479.304	13736.24
479.509	13308.21
479.713	13551.92
479.918	13232.44
480.122	13252.92
480.326	13226.29
480.531	13408.56
480.735	13072.7
480.94	13130.04
481.144	13336.88
481.348	12644.67
481.553	13019.45
481.757	12802.36
481.961	12900.67
482.166	13140.28
482.37	12896.57
482.574	12765.5
482.778	12575.04
482.983	13058.36
483.187	12681.53
483.391	12968.25
483.595	12659.01
483.8	12544.32
484.004	12835.13
484.208	12890.43
484.412	12953.91
484.616	13097.27
484.821	13029.69
485.025	12386.63
485.229	12646.72
485.433	12720.45
485.637	12634.43
485.841	12642.62
486.045	12720.45
486.249	12712.25
486.453	12562.75
486.657	12665.15
486.861	12919.1
487.065	12228.93
487.269	12730.69
487.473	12511.55
487.677	12724.54
487.881	12759.36
488.085	12831.04
488.289	12810.56
488.493	12550.46
488.697	12814.65
488.901	13005.11
489.105	12636.48
489.309	13070.65
489.512	12777.79
489.716	13050.17
489.92	12788.03
490.124	12974.39
490.328	13207.86
490.531	12958.01
490.735	13091.13
490.939	13285.69
491.143	12796.22
491.346	13060.41
491.55	13254.97
491.754	13494.58
491.958	13410.61
492.161	13449.52
492.365	13689.14
492.569	13502.77
492.772	13406.52
492.976	13527.35
493.18	13754.67
493.383	13932.84
493.587	14154.02
493.79	14070.06
493.994	13936.94
494.197	13977.9
494.401	14352.68
494.605	13977.9
494.808	14414.12
495.012	14629.15
495.215	14604.58
495.419	14790.94
495.622	14719.26
495.825	14985.5
496.029	14625.06
496.232	15329.56
496.436	15235.35
496.639	15517.97
496.843	15423.76
497.046	15696.14
497.249	15986.96
497.453	15821.07
497.656	16042.25
497.859	16257.29
498.063	16281.86
498.266	16677.12
498.469	16695.55
498.673	16783.62
498.876	17096.96
499.079	17207.55
499.282	17207.55
499.485	17828.08
499.689	17735.92
499.892	18059.5
500.095	18067.69
500.298	18565.35
500.501	18108.65
500.705	18866.4
500.908	19271.9
501.111	19335.38
501.314	19101.92
501.517	19583.19
501.72	19691.73
501.923	19593.43
502.126	20336.84
502.329	20228.3
502.532	20584.65
502.735	20748.48
502.938	21031.1
503.141	20922.56
503.344	21764.28
503.547	21551.29
503.75	22010.03
503.953	22429.87
504.156	22442.15
504.359	22507.69
504.562	22589.61
504.765	23253.15
504.968	23410.84
505.17	23435.42
505.373	23662.74
505.576	24164.5
505.779	24252.56
505.982	24514.7
506.185	25073.79
506.387	25081.99
506.59	25358.46
506.793	25725.05
506.996	25806.97
507.198	26312.81
507.401	26286.19
507.604	26759.27
507.807	27191.39
508.009	27269.22
508.212	27553.88
508.415	27730.01
508.617	28407.89
508.82	28391.5
509.022	28119.12
509.225	28946.5
509.428	29225.03
509.63	29300.8
509.833	29601.85
510.035	30410.8
510.238	30058.55
510.44	30801.96
510.643	31434.78
510.845	31410.21
511.048	30885.93
511.25	31670.3
511.453	31961.11
511.655	32952.33
511.858	32530.45
512.06	33081.35
512.262	33368.07
512.465	33615.87
512.667	33804.28
512.87	34404.34
513.072	34340.85
513.274	34916.33
513.477	35256.29
513.679	35452.9
513.881	35899.36
514.084	36280.28
514.286	36433.88
514.488	36673.49
514.69	37803.97
514.893	37146.57
515.095	37545.92
515.297	38070.2
515.499	38277.05
515.701	38795.18
515.904	39172.01
516.106	39473.06
516.308	39462.82
516.51	40179.61
516.712	40220.57
516.914	40662.93
517.116	41404.3
517.318	41738.12
517.52	41578.37
517.722	41568.13
517.925	42532.73
518.127	42848.11
518.329	43364.2
518.531	43208.56
518.733	44021.6
518.935	44234.59
519.136	44408.67
519.338	44830.55
519.54	45371.21
519.742	45494.09
519.944	46149.44
520.146	46284.61
520.348	46911.28
520.55	46968.63
520.752	47331.12
520.954	47994.66
521.155	47497
521.357	48394.01
521.559	48740.12
521.761	49313.55
521.963	49260.3
522.164	49712.91
522.366	49934.09
522.568	50257.67
522.77	50556.67
522.971	51255.03
523.173	51179.25
523.375	51392.24
523.576	51578.6
523.778	51670.76
523.98	52436.7
524.181	52842.2
524.383	52842.2
524.584	53524.18
524.786	53554.89
524.988	52678.36
525.189	53948.1
525.391	54095.56
525.592	54087.37
525.794	54668.99
525.995	55062.2
526.197	54460.1
526.398	54521.54
526.6	55522.99
526.801	55725.74
527.003	55697.07
527.204	56063.66
527.406	56309.41
527.607	56612.51
527.808	56696.48
528.01	56147.62
528.211	56645.28
528.412	57632.4
528.614	57192.09
528.815	57347.73
529.016	57933.45
529.218	57380.5
529.419	57794.19
529.62	57536.15
529.822	58009.23
530.023	57867.92
530.224	58384.01
530.425	58097.29
530.626	57884.3
530.828	57960.08
531.029	59197.05
531.23	58564.23
531.431	58576.51
531.632	58846.85
531.833	59438.71
532.035	58836.61
532.236	59362.93
532.437	59272.82
532.638	58799.74
532.839	59440.76
533.04	59428.47
533.241	59055.74
533.442	60216.94
533.643	59444.85
533.844	59625.07
534.045	59750
534.246	59360.89
534.447	59653.75
534.648	59686.51
534.849	59631.22
535.05	59555.44
535.251	59799.15
535.451	59518.58
535.652	59797.1
535.853	59905.65
536.054	59893.36
536.255	60391.01
536.456	59465.33
536.657	60372.58
536.857	59661.94
537.058	59600.5
537.259	60456.55
537.46	60298.86
537.66	60192.36
537.861	59940.46
538.062	59649.65
538.263	60132.97
538.463	59623.03
538.664	60092.01
538.865	60042.86
539.065	60790.37
539.266	59903.6
539.466	60288.62
539.667	58973.82
539.868	60395.11
540.068	60087.92
540.269	59973.23
540.469	60157.55
540.67	59731.57
540.87	59919.98
541.071	60069.48
541.271	59897.45
541.472	60190.31
541.672	59715.18
541.873	59506.29
542.073	58994.3
542.274	60329.58
542.474	59600.5
542.675	59813.49
542.875	59793.01
543.075	60255.85
543.276	59338.36
543.476	60028.52
543.676	59750
543.877	60124.78
544.077	60130.92
544.277	59881.07
544.478	59606.64
544.678	59958.89
544.878	60151.4
545.078	59844.21
545.279	59469.43
545.479	59776.62
545.679	59899.5
545.879	59780.72
546.079	59981.42
546.28	59850.35
546.48	59737.71
546.68	60128.87
546.88	59833.97
547.08	59496.05
547.28	60102.25
547.48	59301.5
547.68	59997.8
547.88	59227.77
548.081	59879.02
548.281	59657.84
548.481	59203.19
548.681	59747.95
548.881	59328.12
549.081	59575.92
549.28	59379.32
549.48	59977.32
549.68	59465.33
549.88	59977.32
550.08	59063.93
550.28	59485.81
550.48	59309.69
550.68	59735.66
550.88	59041.4
551.08	59629.17
551.279	59461.24
551.479	58986.11
551.679	59407.99
551.879	59412.09
552.079	59534.96
552.278	59297.4
552.478	59448.95
552.678	58889.85
552.878	59326.07
553.077	59123.32
553.277	58713.73
553.477	59723.38
553.676	58941.05
553.876	59268.73
554.076	58740.35
554.275	58996.35
554.475	58109.58
554.674	59080.31
554.874	58936.96
555.074	58695.3
555.273	58617.47
555.473	58789.5
555.672	58693.25
555.872	58478.21
556.071	58736.26
556.271	58429.06
556.47	58773.12
556.67	58152.58
556.869	58404.48
557.068	58285.7
557.268	58205.83
557.467	58168.97
557.667	57945.74
557.866	57966.22
558.065	58058.38
558.265	57759.37
558.464	57675.41
558.663	57826.96
558.863	57241.24
559.062	58300.04
559.261	57097.88
559.461	58136.2
559.66	57073.31
559.859	57667.22
560.058	57327.25
560.258	57038.49
560.457	56925.85
560.656	57611.92
560.855	56897.18
561.054	57405.08
561.253	56577.7
561.453	57032.35
561.652	57069.21
561.851	57095.83
562.05	56463.01
562.249	56802.97
562.448	56389.28
562.647	56669.86
562.846	56389.28
563.045	56456.87
563.244	55600.82
563.443	56645.28
563.642	55746.22
563.841	55844.52
564.04	55355.06
564.239	55940.78
564.438	55340.72
564.637	55631.54
564.836	55738.03
565.035	55064.25
565.234	55471.79
565.432	54965.95
565.631	54802.11
565.83	54908.6
566.029	54718.14
566.228	55070.39
566.427	54877.88
566.625	54181.57
566.824	53812.94
567.023	54662.85
567.222	53651.15
567.42	54687.42
567.619	54228.68
567.818	53901
568.016	53710.54
568.215	53751.5
568.414	53475.02
568.612	53417.68
568.811	53358.29
569.01	53499.6
569.208	52899.54
569.407	53391.06
569.605	52342.5
569.804	53169.88
570.002	52719.32
570.201	52809.43
570.4	52256.48
570.598	51939.05
570.797	51568.37
570.995	52377.31
571.193	51265.27
571.392	51973.86
571.59	51314.42
571.789	51629.8
571.987	51234.55
572.186	51023.61
572.384	51150.58
572.582	51226.35
572.781	51457.77
572.979	50786.04
573.177	50368.26
573.376	50783.99
573.574	50470.65
573.772	50552.57
573.971	50155.27
574.169	50312.96
574.367	49841.93
574.565	50077.44
574.763	49952.52
574.962	49809.16
575.16	49280.78
575.358	49692.43
575.556	49260.3
575.754	49555.21
575.952	48926.49
576.151	49157.91
576.349	48516.89
576.547	48830.23
576.745	48467.74
576.943	48672.54
577.141	48484.12
577.339	48287.52
577.537	47939.36
577.735	48115.49
577.933	47744.81
578.131	48041.76
578.329	47632.17
578.527	47564.59
578.725	47380.27
578.923	47226.67
579.121	47028.02
579.319	47052.59
579.516	47025.97
579.714	46788.41
579.912	46860.08
580.11	46716.73
580.308	46688.06
580.506	46151.49
580.704	45623.11
580.901	46337.85
581.099	46475.07
581.297	45895.49
581.495	45647.69
581.692	46159.68
581.89	45203.28
582.088	45952.83
582.285	45391.69
582.483	45141.84
582.681	45260.62
582.878	45240.14
583.076	44590.94
583.274	45190.99
583.471	44568.41
583.669	44650.33
583.866	44091.23
584.064	44545.88
584.262	44003.17
584.459	44615.51
584.657	43753.32
584.854	44265.31
585.052	43110.25
585.249	43585.38
585.447	43759.46
585.644	43525.99
585.841	43386.73
586.039	43839.33
586.236	42749.81
586.434	42864.5
586.631	42536.82
586.828	42954.61
587.026	42426.23
587.223	42628.98
587.42	42397.56
587.618	42459
587.815	41971.58
588.012	42239.87
588.21	41881.47
588.407	42168.19
588.604	41785.22
588.801	41725.83
588.999	41549.7
589.196	41228.17
589.393	41076.62
589.59	41340.81
589.787	40673.17
589.984	41213.84
590.182	40560.53
590.379	40918.93
590.576	40501.14
590.773	40544.15
590.97	40357.78
591.167	40423.32
591.364	39937.95
591.561	40224.67
591.758	39514.02
591.955	39841.7
592.152	39933.85
592.349	39724.96
592.546	39784.35
592.743	39442.34
592.94	38723.51
593.137	39229.35
593.334	39497.64
593.531	39067.56
593.727	39038.89
593.924	38729.65
594.121	38485.94
594.318	38508.47
594.515	38072.25
594.712	38838.19
594.908	38092.73
595.105	38498.23
595.302	37865.41
595.499	37859.26
595.696	37543.88
595.892	37664.71
596.089	37597.12
596.286	37732.29
596.482	37322.69
596.679	37017.55
596.876	36876.24
597.072	36792.27
597.269	37279.69
597.466	36472.79
597.662	36354.01
597.859	36374.48
598.055	36673.49
598.252	36384.72
598.448	36161.5
598.645	36388.82
598.841	36188.12
599.038	36274.13
599.234	36222.94
599.431	35614.69
599.627	35340.26
599.824	35491.81
600.02	35108.84
600.217	35852.25
600.413	34850.8
600.609	35233.77
600.806	34729.97
601.002	35069.93
601.198	34508.79
601.395	34330.61
601.591	34400.24
601.787	34428.91
601.984	34105.34
602.18	34101.24
602.376	34052.09
602.572	33923.07
602.769	33951.74
602.965	33626.11
603.161	34025.46
603.357	33593.34
603.553	33542.14
603.75	33525.76
603.946	33480.71
604.142	33228.8
604.338	33224.71
604.534	33277.96
604.73	32731.15
604.926	32911.37
605.122	32700.43
605.318	32593.93
605.514	32393.23
605.71	32323.6
605.906	31987.74
606.102	32184.34
606.298	32008.22
606.494	32430.1
606.69	31963.16
606.886	32225.3
607.082	31754.27
607.278	32073.75
607.474	31375.39
607.67	31717.4
607.866	31406.11
608.062	31643.68
608.257	31164.45
608.453	31162.4
608.649	31344.67
608.845	31180.84
609.041	31127.59
609.236	30758.95
609.432	31088.68
609.628	30945.32
609.824	30892.07
610.019	30445.62
610.215	30777.39
610.411	30865.45
610.606	30603.31
610.802	30709.8
610.998	30292.02
611.193	30482.48
611.389	30216.24
611.584	30165.04
611.78	29882.42
611.976	29823.03
612.171	29947.96
612.367	29958.2
612.562	30076.98
612.758	29978.68
612.953	29673.53
613.149	29952.05
613.344	29620.28
613.539	30031.93
613.735	29425.73
613.93	29595.71
614.126	29673.53
614.321	29679.68
614.517	29220.93
614.712	29263.94
614.907	29079.62
615.103	29423.68
615.298	28837.96
615.493	29636.67
615.688	28860.49
615.884	29573.18
616.079	28667.98
616.274	28811.34
616.47	28915.78
616.665	28921.93
616.86	28672.07
617.055	28436.56
617.25	28487.76
617.445	28766.28
617.641	28139.6
617.836	28622.92
618.031	28035.16
618.226	28350.54
618.421	27820.12
618.616	28227.67
618.811	27574.36
619.006	28442.7
619.201	27514.97
619.396	27725.91
619.591	27474.01
619.786	27523.16
619.981	26994.79
620.176	27203.68
620.371	26769.51
620.566	27162.72
620.761	26742.89
620.956	26906.73
621.151	26398.83
621.346	26108.02
621.541	26302.57
621.735	26329.2
621.93	25895.03
622.125	25933.94
622.32	25534.59
622.515	25823.35
622.709	25733.24
622.904	25716.86
623.099	25518.2
623.294	25411.71
623.488	25161.86
623.683	24834.18
623.878	24330.38
624.072	24733.83
624.267	24660.1
624.462	24498.31
624.656	24207.5
624.851	24572.04
625.046	24187.02
625.24	24209.55
625.435	23828.63
625.629	23533.72
625.824	23804.05
626.018	23488.67
626.213	23021.73
626.407	23240.86
626.602	22941.86
626.796	23230.62
626.991	23089.31
627.185	22972.58
627.38	22730.92
627.574	22466.73
627.768	22556.84
627.963	22171.82
628.157	21975.22
628.352	22243.5
628.546	21823.67
628.74	21956.78
628.935	21938.35
629.129	21604.53
629.323	21250.24
629.517	21424.31
629.712	21321.91
629.906	21262.52
630.1	20834.5
630.294	20965.57
630.489	21055.68
630.683	21115.07
630.877	20809.92
631.071	20261.07
631.265	20588.74
631.459	20353.23
631.653	20187.34
631.848	20240.59
632.042	19785.94
632.236	20039.89
632.43	19517.65
632.624	20152.52
632.818	19605.72
633.012	19333.34
633.206	19271.9
633.4	19380.44
633.594	19323.1
633.788	19144.92
633.982	19013.85
634.176	19169.5
634.369	18757.86
634.563	18950.37
634.757	18522.34
634.951	18727.14
635.145	18434.28
635.339	18510.05
635.533	18413.8
635.726	18237.67
635.92	18161.9
636.114	18047.21
636.308	17772.78
636.501	17905.9
636.695	17565.94
636.889	17486.07
637.083	17428.73
637.276	17320.18
637.47	17328.38
637.664	17189.11
637.857	17447.16
638.051	16888.06
638.244	16851.2
638.438	16894.21
638.632	16703.75
638.825	16455.94
639.019	16455.94
639.212	16644.35
639.406	16673.03
639.599	16075.02
639.793	16437.51
639.986	15956.24
640.18	15933.71
640.373	15958.28
640.567	15829.26
640.76	16021.77
640.954	15560.98
641.147	15763.73
641.34	15716.62
641.534	15276.31
641.727	15470.87
641.92	15214.87
642.114	14989.6
642.307	15118.62
642.5	14917.92
642.694	14922.01
642.887	14819.61
643.08	14862.62
643.273	14672.16
643.467	14969.12
643.66	14403.88
643.853	14692.64
644.046	14291.24
644.239	14522.66
644.432	14160.17
644.626	14127.4
644.819	14305.57
645.012	13893.93
645.205	13977.9
645.398	13850.92
645.591	13979.95
645.784	13646.13
645.977	13453.62
646.17	13558.07
646.363	13404.47
646.556	13375.8
646.749	13437.23
646.942	13277.49
647.135	13238.58
647.328	13310.26
647.521	12880.19
647.714	12919.1
647.907	13005.11
648.099	12716.35
648.292	12896.57
648.485	13017.4
648.678	12652.86
648.871	12634.43
649.064	12423.49
649.256	12423.49
649.449	12534.08
649.642	12618.05
649.835	12220.74
650.027	12362.05
650.22	12214.6
650.413	12144.97
650.605	12036.42
650.798	12069.19
650.991	11843.92
651.183	11934.03
651.376	11911.5
651.568	11811.15
651.761	11678.03
651.954	11596.11
652.146	11737.42
652.339	11526.48
652.531	11503.95
652.724	11452.75
652.916	11227.48
653.109	11239.76
653.301	11223.38
653.494	11266.39
653.686	11010.39
653.879	11071.83
654.071	11047.26
654.263	10877.27
654.456	10848.6
654.648	11039.06
654.84	10789.21
655.033	10600.8
655.225	10635.61
655.417	10565.98
655.61	10545.5
655.802	10512.74
655.994	10422.62
656.186	10527.07
656.379	10316.13
656.571	10213.73
656.763	10088.81
656.955	10099.05
657.148	10295.65
657.34	10015.08
657.532	9898.34
657.724	10045.8
657.916	9834.86
658.108	9898.34
658.3	9771.37
658.492	9744.75
658.684	9539.95
658.876	9668.97
659.068	9488.75
659.26	9693.55
659.452	9519.47
659.644	9513.33
659.836	9406.83
660.028	9519.47
660.22	9245.04
660.412	9410.93
660.604	9177.46
660.796	9220.47
660.988	9066.87
661.18	9081.21
661.372	9032.05
661.563	8860.02
661.755	8874.36
661.947	8939.9
662.139	8823.16
662.331	8685.95
662.522	8495.49
662.714	8712.57
662.906	8714.62
663.097	8765.82
663.289	8542.59
663.481	8536.45
663.673	8493.44
663.864	8608.12
664.056	8317.31
664.247	8305.03
664.439	8188.29
664.631	8307.07
664.822	8198.53
665.014	8001.93
665.205	8223.11
665.397	8194.43
665.588	8114.56
665.78	7797.13
665.971	7995.78
666.163	8087.94
666.354	8010.12
666.546	7838.09
666.737	7721.35
666.929	7776.65
667.12	7778.7
667.311	7772.55
667.503	7655.82
667.694	7655.82
667.885	7455.12
668.077	7569.8
668.268	7682.44
668.459	7621
668.651	7377.3
668.842	7451.02
669.033	7598.48
669.224	7526.8
669.416	7348.62
669.607	7190.93
669.798	7082.39
669.989	7328.14
670.18	7215.51
670.371	7274.9
670.563	7293.33
670.754	7238.03
670.945	7080.34
671.136	7219.6
671.327	6986.13
671.518	6982.04
671.709	7117.2
671.9	7014.8
672.091	7072.15
672.282	6996.37
672.473	6801.82
672.664	6787.48
672.855	6873.5
673.046	6812.06
673.237	6652.31
673.428	6728.09
673.619	6764.95
673.809	6832.54
674	6623.64
674.191	6767
674.382	6588.83
674.573	6545.82
674.764	6662.55
674.954	6719.9
675.145	6500.76
675.336	6582.68
675.527	6531.48
675.717	6613.4
675.908	6422.94
676.099	6494.62
676.289	6429.09
676.48	6488.48
676.671	6302.11
676.861	6408.61
677.052	6232.48
677.243	6252.96
677.433	6314.4
677.624	6334.88
677.814	6128.03
678.005	6336.93
678.195	6214.05
678.386	6115.75
678.576	6117.79
678.767	6212
678.957	6128.03
679.148	6183.33
679.338	6087.08
679.529	6238.62
679.719	6027.68
679.909	6214.05
680.1	6109.6
680.29	6197.67
680.481	6132.13
680.671	6238.62
680.861	6009.25
681.052	6027.68
681.242	5929.38
681.432	6091.17
681.622	5939.62
681.813	6078.88
682.003	5884.33
682.193	5896.61
682.383	5933.48
682.573	5968.29
682.764	5970.34
682.954	5927.33
683.144	5941.67
683.334	5816.74
683.524	5841.32
683.714	5898.66
683.904	5896.61
684.094	5783.98
684.284	5611.95
684.474	5820.84
684.664	5620.14
684.854	5783.98
685.044	5634.47
685.234	5769.64
685.424	5724.58
685.614	5591.47
685.804	5599.66
685.994	5712.3
686.184	5630.38
686.374	5597.61
686.564	5472.68
686.753	5605.8
686.943	5429.68
687.133	5575.08
687.323	5411.25
687.513	5374.38
687.702	5323.18
687.892	5323.18
688.082	5380.53
688.272	5411.25
688.461	5339.57
688.651	5339.57
688.841	5329.33
689.03	5269.94
689.22	5288.37
689.41	5257.65
689.599	5212.59
689.789	5304.75
689.979	4985.27
690.168	5052.85
690.358	5106.1
690.547	5036.47
690.737	5128.63
690.926	4923.83
691.116	4942.26
691.305	5001.65
691.495	5145.01
691.684	4991.41
691.874	5003.7
692.063	4944.31
692.252	4850.1
692.442	4870.58
692.631	4850.1
692.82	4870.58
693.01	4690.36
693.199	4852.15
693.388	4964.79
693.578	4807.09
693.767	4639.16
693.956	4686.26
694.146	4745.66
694.335	4542.91
694.524	4753.85
694.713	4848.05
694.902	4655.54
695.092	4719.03
695.281	4555.19
695.47	4759.99
695.659	4514.24
695.848	4571.58
696.037	4612.54
696.226	4587.96
696.415	4618.68
696.604	4567.48
696.793	4567.48
696.982	4489.66
697.171	4512.19
697.36	4506.04
697.549	4491.71
697.738	4612.54
697.927	4522.43
698.116	4506.04
698.305	4401.6
698.494	4442.56
698.683	4413.88
698.872	4573.63
699.061	4493.76
699.25	4311.49
699.438	4352.45
699.627	4323.77
699.816	4469.18
700.005	4340.16
700.193	4260.29
700.382	4516.28
700.571	4291.01
700.76	4352.45
700.948	4520.38
701.137	4295.1
701.326	4360.64
701.514	4284.86
701.703	4422.08
701.892	4229.57
702.08	4387.26
702.269	4336.06
702.457	4362.69
702.646	4331.97
702.834	4348.35
703.023	4243.9
703.212	4327.87
703.4	4217.28
703.589	4241.86
703.777	4374.97
703.965	4209.09
704.154	4471.23
704.342	4245.95
704.531	4317.63
704.719	4129.22
704.907	4327.87
705.096	4186.56
705.284	4131.26
705.472	4221.38
705.661	4202.94
705.849	4264.38
706.037	4319.68
706.226	4235.71
706.414	4200.9
706.602	4274.62
706.79	4233.66
706.979	4190.66
707.167	4245.95
707.355	4110.79
707.543	4233.66
707.731	4286.91
707.919	4260.29
708.107	4139.46
708.296	4059.59
708.484	4147.65
708.672	4186.56
708.86	4145.6
709.048	4100.55
709.236	4174.27
709.424	4250.05
709.612	4237.76
709.8	4172.22
709.988	4053.44
710.176	4184.51
710.364	4137.41
710.551	4211.14
710.739	4116.93
710.927	4147.65
711.115	4213.18
711.303	4065.73
711.491	4045.25
711.679	4096.45
711.866	4131.26
712.054	4272.57
712.242	4188.61
712.43	4114.88
712.617	4147.65
712.805	4221.38
712.993	4073.92
713.181	4127.17
713.368	4243.9
713.556	4278.72
713.744	4037.06
713.931	4262.33
714.119	4155.84
714.306	4035.01
714.494	4184.51
714.682	4059.59
714.869	3922.37
715.057	4186.56
715.244	3973.57
715.432	4227.52
715.619	4024.77
715.807	4063.68
715.994	4143.55
716.182	3951.04
716.369	4096.45
716.556	4080.07
716.744	3979.72
716.931	4057.54
717.119	3924.42
717.306	4039.11
717.493	3967.43
717.681	4088.26
717.868	4061.63
718.055	4108.74
718.242	4006.34
718.43	3891.65
718.617	4065.73
718.804	4039.11
718.991	4012.48
719.179	4053.44
719.366	3926.47
719.553	4061.63
719.74	4075.97
719.927	3949
720.114	3824.07
720.301	4012.48
720.488	3897.8
720.676	4026.82
720.863	4123.07
721.05	3934.66
721.237	3963.33
721.424	3992
721.611	3979.72
721.798	3989.96
721.985	4018.63
722.172	3914.18
722.358	3951.04
722.545	3867.08
722.732	3946.95
722.919	3996.1
723.106	3959.24
723.293	3828.17
723.48	3926.47
723.667	3881.41
723.853	3832.26
724.04	4024.77
724.227	3809.73
724.414	3877.32
724.6	3828.17
724.787	3951.04
724.974	3918.28
725.161	3992
725.347	3975.62
725.534	3889.6
725.72	3822.02
725.907	3787.21
726.094	3897.8
726.28	3877.32
726.467	3785.16
726.653	3801.54
726.84	3891.65
727.027	3899.84
727.213	3822.02
727.4	3795.4
727.586	3807.69
727.773	3836.36
727.959	3729.86
728.145	3789.25
728.332	3850.69
728.518	3860.93
728.705	3717.58
728.891	3801.54
729.077	3670.47
729.264	3754.44
729.45	3832.26
729.636	3774.92
729.823	3881.41
730.009	3803.59
730.195	3750.34
730.382	3631.56
730.568	3709.38
730.754	3750.34
730.94	3668.42
731.126	3764.68
731.313	3645.9
731.499	3819.97
731.685	3758.53
731.871	3678.66
732.057	3617.22
732.243	3697.1
732.429	3660.23
732.615	3731.91
732.801	3842.5
732.987	3719.62
733.173	3654.09
733.359	3699.14
733.545	3615.18
733.731	3785.16
733.917	3762.63
734.103	3619.27
734.289	3553.74
734.475	3572.17
734.661	3725.77
734.847	3662.28
735.033	3725.77
735.219	3551.69
735.404	3504.59
735.59	3625.42
735.776	3518.92
735.962	3615.18
736.148	3592.65
736.333	3570.12
736.519	3416.52
736.705	3525.07
736.89	3561.93
737.076	3525.07
737.262	3660.23
737.447	3576.27
737.633	3477.96
737.819	3500.49
738.004	3486.15
738.19	3566.03
738.375	3473.87
738.561	3375.56
738.747	3336.65
738.932	3373.52
739.118	3418.57
739.303	3340.75
739.489	3391.95
739.674	3445.2
739.859	3346.89
740.045	3361.23
740.23	3484.11
740.416	3277.26
740.601	3326.41
740.786	3205.58
740.972	3318.22
741.157	3279.31
741.342	3168.72
741.528	3326.41
741.713	3301.84
741.898	3172.82
742.084	3156.43
742.269	3230.16
742.454	3228.11
742.639	3101.14
742.824	3162.58
743.01	3156.43
743.195	3123.66
743.38	3029.46
743.565	3105.23
743.75	3203.54
743.935	3158.48
744.12	3129.81
744.305	3033.55
744.49	2968.02
744.675	3031.51
744.86	2916.82
745.045	3076.56
745.23	2976.21
745.415	2992.59
745.6	2984.4
745.785	3025.36
745.97	2984.4
746.155	2955.73
746.34	2894.29
746.525	2857.43
746.71	2972.11
746.895	2890.2
747.079	2820.56
747.264	2714.07
747.449	2886.1
747.634	2656.73
747.819	2798.04
748.003	2851.28
748.188	2640.34
748.373	2750.93
748.557	2664.92
748.742	2644.44
748.927	2644.44
749.111	2632.15
749.296	2443.74
749.481	2626.01
749.665	2636.25
749.85	2601.43
750.034	2447.83
750.219	2398.68
750.404	2558.42
750.588	2441.69
750.773	2468.31
750.957	2398.68
751.141	2339.29
751.326	2441.69
751.51	2382.3
751.695	2304.48
751.879	2324.96
752.064	2546.14
752.248	2351.58
752.432	2316.76
752.617	2345.44
752.801	2279.9
752.985	2183.65
753.17	2312.67
753.354	2290.14
753.538	2290.14
753.722	2228.7
753.907	2245.09
754.091	2114.02
754.275	2126.3
754.459	2079.2
754.643	2099.68
754.828	2091.49
755.012	2095.58
755.196	2005.47
755.38	2083.3
755.564	1917.41
755.748	2099.68
755.932	2120.16
756.116	2009.57
756.3	2046.43
756.484	1901.03
756.668	1896.93
756.852	1845.73
757.036	1894.88
757.22	1948.13
757.404	1978.85
757.588	1880.55
757.772	1849.83
757.956	1925.6
758.14	1929.7
758.323	1765.86
758.507	1827.3
758.691	1706.47
758.875	1870.31
759.059	1780.2
759.242	1825.25
759.426	1747.43
759.61	1739.24
759.794	1802.72
759.977	1749.48
760.161	1821.16
760.345	1739.24
760.528	1712.61
760.712	1765.86
760.895	1694.18
761.079	1722.85
761.263	1673.7
761.446	1657.32
761.63	1542.63
761.813	1657.32
761.997	1524.2
762.18	1677.8
762.364	1548.78
762.547	1579.5
762.731	1612.26
762.914	1524.2
763.098	1540.58
763.281	1589.74
763.464	1503.72
763.648	1458.67
763.831	1505.77
764.015	1575.4
764.198	1473
764.381	1559.02
764.564	1444.33
764.748	1526.25
764.931	1518.06
765.114	1448.43
765.297	1438.19
765.481	1413.61
765.664	1470.95
765.847	1470.95
766.03	1407.47
766.213	1395.18
766.397	1391.08
766.58	1337.84
766.763	1438.19
766.946	1352.17
767.129	1354.22
767.312	1444.33
767.495	1464.81
767.678	1358.32
767.861	1425.9
768.044	1327.6
768.227	1337.84
768.41	1362.41
768.593	1368.56
768.776	1374.7
768.959	1303.02
769.142	1321.45
769.324	1329.64
769.507	1407.47
769.69	1266.16
769.873	1245.68
770.056	1419.75
770.239	1255.92
770.421	1282.54
770.604	1292.78
770.787	1253.87
770.97	1243.63
771.152	1120.75
771.335	1264.11
771.518	1163.76
771.7	1282.54
771.883	1190.38
772.066	1229.29
772.248	1214.96
772.431	1135.09
772.613	1194.48
772.796	1247.72
772.978	1225.2
773.161	1231.34
773.343	1167.85
773.526	1165.81
773.708	1141.23
773.891	1141.23
774.073	1143.28
774.256	1044.98
774.438	1065.46
774.621	1063.41
774.803	1106.42
774.985	1049.07
775.168	1141.23
775.35	1055.22
775.532	1124.85
775.715	1059.31
775.897	1026.54
776.079	1069.55
776.261	983.54
776.444	1053.17
776.626	1038.83
776.808	948.72
776.99	948.72
777.173	977.39
777.355	965.11
777.537	961.01
777.719	928.24
777.901	887.28
778.083	938.48
778.265	958.96
778.447	911.86
778.629	963.06
778.811	989.68
778.993	938.48
779.175	952.82
779.357	926.19
779.539	895.47
779.721	885.23
779.903	795.12
780.085	874.99
780.267	801.27
780.449	903.67
780.631	795.12
780.812	965.11
780.994	809.46
781.176	825.84
781.358	715.25
781.54	885.23
781.721	760.31
781.903	854.51
782.085	909.81
782.267	825.84
782.448	788.98
782.63	795.12
782.812	793.08
782.993	784.88
783.175	707.06
783.357	813.56
783.538	737.78
783.72	670.2
783.901	707.06
784.083	705.01
784.264	707.06
784.446	745.97
784.627	672.25
784.809	719.35
784.99	647.67
785.172	762.36
785.353	680.44
785.535	711.16
785.716	616.95
785.897	715.25
786.079	625.14
786.26	670.2
786.441	621.05
786.623	569.85
786.804	459.26
786.985	649.72
787.167	666.1
787.348	590.33
787.529	672.25
787.71	588.28
787.891	543.22
788.073	569.85
788.254	643.57
788.435	629.24
788.616	625.14
788.797	555.51
788.978	619
789.159	524.79
789.34	555.51
789.522	573.94
789.703	526.84
789.884	563.7
790.065	522.74
790.246	535.03
790.427	500.22
790.607	541.18
790.788	481.78
790.969	522.74
791.15	547.32
791.331	545.27
791.512	582.14
791.693	465.4
791.874	537.08
792.054	530.94
792.235	549.37
792.416	563.7
792.597	494.07
792.778	467.45
792.958	510.46
793.139	516.6
793.32	510.46
793.5	403.96
793.681	537.08
793.862	408.06
794.042	477.69
794.223	426.49
794.404	477.69
794.584	408.06
794.765	455.16
794.945	399.87
795.126	436.73
795.306	432.63
795.487	469.5
795.667	436.73
795.848	440.83
796.028	412.15
796.209	414.2
796.389	406.01
796.57	453.11
796.75	403.96
796.93	371.19
797.111	360.95
797.291	399.87
797.471	430.59
797.652	336.38
797.832	383.48
798.012	444.92
798.192	330.23
798.373	375.29
798.553	363
798.733	354.81
798.913	373.24
799.093	360.95
799.274	436.73
799.454	430.59
799.634	317.95
799.814	424.44
799.994	455.16
800.174	328.19
800.354	293.37
800.534	322.04
800.714	403.96
800.894	393.72
801.074	352.76
801.254	430.59
801.434	334.33
801.614	264.7
801.794	320
801.974	872.95
802.154	346.62
802.334	324.09
802.514	276.99
802.693	356.86
802.873	322.04
803.053	389.63
803.233	395.77
803.413	352.76
803.592	391.67
803.772	254.46
803.952	342.52
804.131	262.65
804.311	344.57
804.491	326.14
804.67	279.04
804.85	381.43
805.03	399.87
805.209	317.95
805.389	299.52
805.568	289.28
805.748	330.23
805.928	346.62
806.107	287.23
806.287	283.13
806.466	281.08
806.646	268.8
806.825	320
807.004	281.08
807.184	354.81
807.363	264.7
807.543	313.85
807.722	330.23
807.901	229.88
808.081	268.8
808.26	178.69
808.439	250.36
808.619	266.75
808.798	281.08
808.977	295.42
809.156	244.22
809.336	166.4
809.515	276.99
809.694	350.71
809.873	258.56
810.052	238.08
810.231	313.85
810.411	305.66
810.59	350.71
810.769	244.22
810.948	248.32
811.127	182.78
811.306	266.75
811.485	244.22
811.664	289.28
811.843	281.08
812.022	254.46
812.201	270.84
812.38	231.93
812.559	252.41
812.737	305.66
812.916	199.16
813.095	231.93
813.274	264.7
813.453	268.8
813.632	195.07
813.811	285.18
813.989	190.97
814.168	215.55
814.347	154.11
814.526	342.52
814.704	291.32
814.883	238.08
815.062	279.04
815.24	262.65
815.419	215.55
815.598	279.04
815.776	256.51
815.955	154.11
816.133	154.11
816.312	238.08
816.49	229.88
816.669	217.6
816.847	154.11
817.026	172.54
817.204	178.69
817.383	113.15
817.561	158.21
817.74	195.07
817.918	242.17
818.097	199.16
818.275	236.03
818.453	223.74
818.632	246.27
818.81	225.79
818.988	141.82
819.167	141.82
819.345	184.83
819.523	141.82
819.701	150.01
819.879	170.49
820.058	129.53
820.236	135.68
820.414	158.21
820.592	133.63
820.77	182.78
820.948	190.97
821.127	98.81
821.305	219.64
821.483	150.01
821.661	252.41
821.839	160.25
822.017	178.69
822.195	162.3
822.373	219.64
822.551	137.73
822.729	141.82
822.907	150.01
823.085	184.83
823.262	170.49
823.44	211.45
823.618	125.44
823.796	199.16
823.974	145.92
824.152	102.91
824.329	115.2
824.507	121.34
824.685	82.43
824.863	111.1
825.04	160.25
825.218	178.69
825.396	129.53
825.574	211.45
825.751	150.01
825.929	215.55
826.107	174.59
826.284	150.01
826.462	158.21
826.639	174.59
826.817	176.64
826.994	186.88
827.172	96.77
827.349	172.54
827.527	178.69
827.704	139.77
827.882	133.63
828.059	176.64
828.237	72.19
828.414	182.78
828.591	100.86
828.769	199.16
828.946	107.01
829.124	115.2
829.301	164.35
829.478	111.1
829.655	141.82
829.833	109.05
830.01	147.97
830.187	145.92
830.364	115.2
830.542	131.58
830.719	156.16
830.896	100.86
831.073	197.12
831.25	115.2
831.427	84.48
831.604	193.02
831.782	90.62
831.959	182.78
832.136	86.53
832.313	78.33
832.49	20.99
832.667	119.29
832.844	84.48
833.021	88.57
833.198	152.06
833.374	197.12
833.551	98.81
833.728	125.44
833.905	158.21
834.082	55.81
834.259	121.34
834.436	141.82
834.612	68.09
834.789	154.11
834.966	76.29
835.143	139.77
835.319	20.99
835.496	76.29
835.673	158.21
835.85	129.53
836.026	104.96
836.203	94.72
836.38	2.56
836.556	64
836.733	154.11
836.909	92.67
837.086	31.23
837.262	78.33
837.439	158.21
837.616	164.35
837.792	109.05
837.968	55.81
838.145	78.33
838.321	78.33
838.498	51.71
838.674	92.67
838.851	164.35
839.027	111.1
839.203	104.96
839.38	109.05
839.556	78.33
839.732	102.91
839.909	70.14
840.085	59.9
840.261	43.52
840.437	55.81
840.614	184.83
840.79	115.2
840.966	57.86
841.142	94.72
841.318	154.11
841.494	14.85
841.671	135.68
841.847	152.06
842.023	76.29
842.199	90.62
842.375	74.24
842.551	14.85
842.727	-9.73
842.903	104.96
843.079	49.66
843.255	129.53
843.431	111.1
843.607	111.1
843.783	80.38
843.959	57.86
844.134	45.57
844.31	102.91
844.486	-9.73
844.662	92.67
844.838	8.7
845.013	82.43
845.189	111.1
845.365	51.71
845.541	129.53
845.716	45.57
845.892	131.58
846.068	139.77
846.244	80.38
846.419	96.77
846.595	27.14
846.77	43.52
846.946	27.14
847.122	131.58
847.297	18.94
847.473	107.01
847.648	33.28
847.824	16.9
847.999	59.9
848.175	68.09
848.35	104.96
848.526	141.82
848.701	51.71
848.876	18.94
849.052	80.38
849.227	64
849.403	70.14
849.578	102.91
849.753	23.04
849.929	29.18
850.104	68.09
850.279	59.9
850.454	90.62
850.63	39.42
850.805	53.76
850.98	49.66
851.155	147.97
851.33	94.72
851.505	43.52
851.681	98.81
851.856	43.52
852.031	66.05
852.206	18.94
852.381	51.71
852.556	49.66
852.731	-9.73
852.906	41.47
853.081	100.86
853.256	92.67
853.431	86.53
853.606	37.38
853.781	-17.92
853.956	23.04
854.131	145.92
854.305	-1.54
854.48	55.81
854.655	76.29
854.83	51.71
855.005	57.86
855.18	51.71
855.354	-5.63
855.529	51.71
855.704	80.38
855.879	29.18
856.053	12.8
856.228	84.48
856.403	41.47
856.577	35.33
856.752	23.04
856.926	84.48
857.101	131.58
857.276	10.75
857.45	12.8
857.625	27.14
857.799	141.82
857.974	0.51
858.148	8.7
858.323	37.38
858.497	57.86
858.672	55.81
858.846	39.42
859.02	100.86
859.195	70.14
859.369	-46.59
859.543	12.8
859.718	78.33
859.892	-17.92
860.066	76.29
860.241	37.38
860.415	51.71
860.589	-48.64
860.763	2.56
860.938	94.72
861.112	70.14
861.286	84.48
861.46	82.43
861.634	57.86
861.808	64
861.982	68.09
862.157	0.51
862.331	35.33
862.505	18.94
862.679	2.56
862.853	0.51
863.027	70.14
863.201	115.2
863.375	-3.58
863.549	104.96
863.722	82.43
863.896	74.24
864.07	-1.54
864.244	59.9
864.418	-7.68
864.592	33.28
864.766	55.81
864.939	6.66
865.113	-22.02
865.287	57.86
865.461	49.66
865.634	41.47
865.808	59.9
865.982	43.52
866.156	6.66
866.329	-11.78
866.503	-34.3
866.676	10.75
866.85	53.76
867.024	70.14
867.197	59.9
867.371	23.04
867.544	-1.54
867.718	4.61
867.891	27.14
868.065	-3.58
868.238	35.33
868.412	57.86
868.585	-40.45
868.759	23.04
868.932	43.52
869.105	88.57
869.279	82.43
869.452	64
869.625	14.85
869.799	-9.73
869.972	25.09
870.145	20.99
870.319	72.19
870.492	49.66
870.665	88.57
870.838	-36.35
871.011	-28.16
871.185	57.86
871.358	-30.21
871.531	76.29
871.704	18.94
871.877	31.23
872.05	-38.4
872.223	-26.11
872.396	98.81
872.569	33.28
872.742	4.61
872.915	121.34
873.088	47.62
873.261	31.23
873.434	-26.11
873.607	2.56
873.78	14.85
873.953	-34.3
874.126	86.53
874.299	35.33
874.471	23.04
874.644	4.61
874.817	96.77
874.99	96.77
875.163	0.51
875.335	66.05
875.508	33.28
875.681	45.57
875.853	109.05
876.026	29.18
876.199	18.94
876.371	37.38
876.544	18.94
876.717	-17.92
876.889	27.14
877.062	35.33
877.234	2.56
877.407	-15.87
877.579	96.77
877.752	-22.02
877.924	6.66
878.097	-1.54
878.269	16.9
878.442	59.9
878.614	0.51
878.786	78.33
878.959	14.85
879.131	47.62
879.303	12.8
879.476	59.9
879.648	39.42
879.82	10.75
879.993	-34.3
880.165	2.56
880.337	4.61
880.509	8.7
880.681	-75.26
880.854	49.66
881.026	51.71
881.198	57.86
881.37	8.7
881.542	-7.68
881.714	18.94
881.886	78.33
882.058	-17.92
882.23	-50.69
882.402	-3.58
882.574	16.9
882.746	43.52
882.918	66.05
883.09	8.7
883.262	27.14
883.434	-30.21
883.606	14.85
883.778	-48.64
883.95	27.14
884.122	-22.02
884.293	82.43
884.465	35.33
884.637	-13.82
884.809	-42.5
884.98	18.94
885.152	8.7
885.324	78.33
885.496	2.56
885.667	-34.3
885.839	57.86
886.011	31.23
886.182	74.24
886.354	90.62
886.525	29.18
886.697	-24.06
886.869	27.14
887.04	10.75
887.212	82.43
887.383	29.18
887.555	-32.26
887.726	0.51
887.897	57.86
888.069	-58.88
888.24	12.8
888.412	-17.92
888.583	51.71
888.754	-22.02
888.926	-42.5
889.097	41.47
889.268	27.14
889.44	31.23
889.611	14.85
889.782	23.04
889.953	12.8
890.125	113.15
890.296	23.04
890.467	23.04
890.638	-26.11
890.809	4.61
890.98	-5.63
891.151	-54.78
891.323	23.04
891.494	29.18
891.665	72.19
891.836	2.56
892.007	43.52
892.178	35.33
892.349	61.95
892.52	12.8
892.691	55.81
892.862	31.23
893.032	-58.88
893.203	-13.82
893.374	27.14
893.545	61.95
893.716	12.8
893.887	43.52
894.057	-22.02
894.228	61.95
894.399	25.09
894.57	45.57
894.74	31.23
894.911	41.47
895.082	-22.02
895.253	31.23
895.423	25.09
895.594	6.66
895.764	10.75
895.935	-17.92
896.106	-1.54
896.276	45.57
896.447	33.28
896.617	0.51
896.788	-9.73
896.958	-34.3
897.129	0.51
897.299	27.14
897.47	72.19
897.64	51.71
897.81	-50.69
897.981	0.51
898.151	-1.54
898.322	47.62
898.492	-5.63
898.662	-26.11
898.832	-15.87
899.003	33.28
899.173	-7.68
899.343	-15.87
899.513	35.33
