Data from USB4F104151__202__10-29-35-496.txt Node

Date: Wed Mar 12 10:29:35 EDT 2025
User: louis
Spectrometer: USB4F10415
Trigger mode: 4
Integration Time (sec): 3.000000E-2
Scans to average: 1
Electric dark correction enabled: true
Nonlinearity correction enabled: false
Boxcar width: 0
XAxis mode: Wavelengths
Number of Pixels in Spectrum: 3648
>>>>>Begin Spectral Data<<<<<
178.204	-57.17
178.424	-57.17
178.644	-57.17
178.864	-139.09
179.084	-106.32
179.304	26.79
179.524	63.66
179.744	37.03
179.964	-59.22
180.184	-1.88
180.404	14.51
180.624	-38.74
180.844	53.42
181.064	-18.26
181.283	-24.4
181.503	-22.36
181.723	-30.55
181.943	-44.88
182.163	16.55
182.383	18.6
182.602	43.18
182.822	26.79
183.042	61.61
183.262	-71.51
183.482	-53.08
183.701	-10.07
183.921	24.75
184.141	-22.36
184.361	121
184.58	12.46
184.8	-26.45
185.02	-18.26
185.239	45.23
185.459	-14.17
185.679	2.22
185.898	0.17
186.118	24.75
186.338	34.99
186.557	-32.6
186.777	-30.55
186.997	-91.99
187.216	-67.41
187.436	-30.55
187.655	65.71
187.875	75.95
188.095	-34.64
188.314	41.13
188.534	-5.97
188.753	-18.26
188.973	47.27
189.192	88.23
189.412	-34.64
189.631	-18.26
189.851	-57.17
190.07	-24.4
190.29	-57.17
190.509	0.17
190.729	39.08
190.948	94.38
191.168	98.47
191.387	59.56
191.607	16.55
191.826	-22.36
192.045	-1.88
192.265	-12.12
192.484	-16.21
192.704	84.14
192.923	10.41
193.142	57.51
193.362	16.55
193.581	-5.97
193.8	-1.88
194.02	-26.45
194.239	37.03
194.458	14.51
194.678	14.51
194.897	-1.88
195.116	-18.26
195.335	51.37
195.555	-5.97
195.774	34.99
195.993	53.42
196.212	10.41
196.432	-69.46
196.651	28.84
196.87	-10.07
197.089	39.08
197.308	-18.26
197.528	32.94
197.747	-32.6
197.966	37.03
198.185	-34.64
198.404	34.99
198.623	6.31
198.842	92.33
199.062	63.66
199.281	82.09
199.5	-59.22
199.719	28.84
199.938	6.31
200.157	2.22
200.376	-51.03
200.595	22.7
200.814	10.41
201.033	18.6
201.252	57.51
201.471	-32.6
201.69	16.55
201.909	-8.02
202.128	6.31
202.347	-1.88
202.566	-16.21
202.785	-8.02
203.004	24.75
203.223	63.66
203.442	0.17
203.661	57.51
203.879	41.13
204.098	-34.64
204.317	-1.88
204.536	71.85
204.755	-24.4
204.974	18.6
205.193	-20.31
205.411	110.76
205.63	32.94
205.849	-10.07
206.068	-79.7
206.287	14.51
206.505	80.04
206.724	10.41
206.943	-16.21
207.162	16.55
207.381	-40.79
207.599	-5.97
207.818	-34.64
208.037	-20.31
208.255	8.36
208.474	20.65
208.693	14.51
208.911	-51.03
209.13	-59.22
209.349	49.32
209.567	-5.97
209.786	59.56
210.005	-24.4
210.223	51.37
210.442	30.89
210.661	53.42
210.879	2.22
211.098	53.42
211.316	34.99
211.535	116.9
211.753	-5.97
211.972	86.19
212.191	-5.97
212.409	-51.03
212.628	-46.93
212.846	4.27
213.065	12.46
213.283	61.61
213.502	-42.84
213.72	-26.45
213.938	34.99
214.157	6.31
214.375	10.41
214.594	6.31
214.812	-10.07
215.031	-22.36
215.249	-16.21
215.467	47.27
215.686	67.75
215.904	14.51
216.122	39.08
216.341	88.23
216.559	-8.02
216.778	43.18
216.996	55.47
217.214	-30.55
217.432	37.03
217.651	30.89
217.869	16.55
218.087	-57.17
218.306	26.79
218.524	22.7
218.742	39.08
218.96	6.31
219.179	-34.64
219.397	32.94
219.615	45.23
219.833	30.89
220.051	-16.21
220.27	-5.97
220.488	-5.97
220.706	-16.21
220.924	-67.41
221.142	-1.88
221.36	-34.64
221.578	96.43
221.796	-22.36
222.015	30.89
222.233	28.84
222.451	51.37
222.669	37.03
222.887	-67.41
223.105	0.17
223.323	-57.17
223.541	-44.88
223.759	0.17
223.977	-1.88
224.195	14.51
224.413	24.75
224.631	22.7
224.849	32.94
225.067	-38.74
225.285	18.6
225.503	-8.02
225.721	-106.32
225.939	53.42
226.157	18.6
226.375	75.95
226.592	-1.88
226.81	57.51
227.028	82.09
227.246	14.51
227.464	8.36
227.682	49.32
227.9	8.36
228.117	-22.36
228.335	61.61
228.553	18.6
228.771	41.13
228.989	18.6
229.206	30.89
229.424	-14.17
229.642	18.6
229.86	32.94
230.077	-10.07
230.295	10.41
230.513	100.52
230.731	-24.4
230.948	45.23
231.166	106.67
231.384	20.65
231.601	-51.03
231.819	20.65
232.037	0.17
232.254	18.6
232.472	43.18
232.689	-30.55
232.907	57.51
233.125	-16.21
233.342	18.6
233.56	-26.45
233.777	24.75
233.995	8.36
234.213	53.42
234.43	37.03
234.648	-8.02
234.865	22.7
235.083	-1.88
235.3	-46.93
235.518	26.79
235.735	34.99
235.953	145.58
236.17	6.31
236.388	-14.17
236.605	41.13
236.822	69.8
237.04	6.31
237.257	45.23
237.475	-77.65
237.692	41.13
237.909	90.28
238.127	30.89
238.344	22.7
238.562	-12.12
238.779	-3.93
238.996	-5.97
239.214	-32.6
239.431	84.14
239.648	-24.4
239.865	41.13
240.083	6.31
240.3	-24.4
240.517	-36.69
240.735	-5.97
240.952	86.19
241.169	-12.12
241.386	18.6
241.603	-14.17
241.821	-28.5
242.038	-1.88
242.255	51.37
242.472	45.23
242.689	47.27
242.907	41.13
243.124	16.55
243.341	0.17
243.558	-24.4
243.775	6.31
243.992	2.22
244.209	-18.26
244.426	39.08
244.643	47.27
244.86	26.79
245.078	43.18
245.295	-34.64
245.512	30.89
245.729	10.41
245.946	34.99
246.163	6.31
246.38	-14.17
246.597	-30.55
246.814	20.65
247.031	22.7
247.248	67.75
247.464	49.32
247.681	12.46
247.898	-10.07
248.115	26.79
248.332	51.37
248.549	45.23
248.766	26.79
248.983	8.36
249.2	82.09
249.417	6.31
249.633	8.36
249.85	8.36
250.067	-14.17
250.284	-3.93
250.501	24.75
250.717	67.75
250.934	-26.45
251.151	43.18
251.368	-30.55
251.585	86.19
251.801	-5.97
252.018	26.79
252.235	55.47
252.451	34.99
252.668	-22.36
252.885	30.89
253.102	2.22
253.318	-32.6
253.535	-89.94
253.752	-44.88
253.968	22.7
254.185	22.7
254.401	53.42
254.618	71.85
254.835	-36.69
255.051	-22.36
255.268	-20.31
255.484	-30.55
255.701	-36.69
255.917	71.85
256.134	-44.88
256.351	-63.32
256.567	-3.93
256.784	-8.02
257	71.85
257.217	43.18
257.433	80.04
257.65	-14.17
257.866	65.71
258.082	20.65
258.299	-18.26
258.515	-8.02
258.732	-24.4
258.948	14.51
259.165	-8.02
259.381	-20.31
259.597	-14.17
259.814	-20.31
260.03	-36.69
260.246	12.46
260.463	18.6
260.679	45.23
260.895	-34.64
261.112	18.6
261.328	-10.07
261.544	-42.84
261.761	73.9
261.977	26.79
262.193	20.65
262.409	-26.45
262.626	10.41
262.842	49.32
263.058	-40.79
263.274	-3.93
263.49	10.41
263.707	-22.36
263.923	6.31
264.139	-40.79
264.355	57.51
264.571	94.38
264.787	28.84
265.004	2.22
265.22	30.89
265.436	-30.55
265.652	26.79
265.868	123.05
266.084	30.89
266.3	12.46
266.516	12.46
266.732	2.22
266.948	67.75
267.164	55.47
267.38	8.36
267.596	32.94
267.812	82.09
268.028	43.18
268.244	34.99
268.46	18.6
268.676	28.84
268.892	63.66
269.108	-8.02
269.324	14.51
269.54	30.89
269.756	106.67
269.972	39.08
270.188	51.37
270.403	-5.97
270.619	32.94
270.835	26.79
271.051	18.6
271.267	-38.74
271.483	-30.55
271.698	43.18
271.914	26.79
272.13	10.41
272.346	32.94
272.562	-46.93
272.777	67.75
272.993	55.47
273.209	43.18
273.425	-26.45
273.64	-1.88
273.856	43.18
274.072	32.94
274.287	12.46
274.503	49.32
274.719	55.47
274.934	45.23
275.15	-44.88
275.366	14.51
275.581	39.08
275.797	45.23
276.012	-5.97
276.228	-3.93
276.444	88.23
276.659	59.56
276.875	-28.5
277.09	51.37
277.306	49.32
277.521	65.71
277.737	-12.12
277.952	-10.07
278.168	6.31
278.383	-8.02
278.599	32.94
278.814	51.37
279.03	39.08
279.245	145.58
279.461	-48.98
279.676	26.79
279.892	-46.93
280.107	-22.36
280.322	-22.36
280.538	24.75
280.753	57.51
280.969	53.42
281.184	-53.08
281.399	12.46
281.615	39.08
281.83	47.27
282.045	49.32
282.26	30.89
282.476	51.37
282.691	28.84
282.906	-16.21
283.122	24.75
283.337	-8.02
283.552	75.95
283.767	-89.94
283.983	16.55
284.198	-14.17
284.413	-24.4
284.628	-32.6
284.843	10.41
285.058	51.37
285.274	47.27
285.489	-3.93
285.704	2.22
285.919	65.71
286.134	2.22
286.349	-14.17
286.564	18.6
286.779	73.9
286.995	55.47
287.21	4.27
287.425	32.94
287.64	-34.64
287.855	0.17
288.07	-26.45
288.285	24.75
288.5	30.89
288.715	39.08
288.93	20.65
289.145	10.41
289.36	32.94
289.575	80.04
289.79	28.84
290.004	-1.88
290.219	28.84
290.434	-12.12
290.649	-42.84
290.864	26.79
291.079	-5.97
291.294	37.03
291.509	-51.03
291.724	-3.93
291.938	39.08
292.153	49.32
292.368	2.22
292.583	0.17
292.798	34.99
293.012	53.42
293.227	43.18
293.442	-48.98
293.657	-5.97
293.871	98.47
294.086	90.28
294.301	47.27
294.516	-22.36
294.73	73.9
294.945	18.6
295.16	51.37
295.374	112.81
295.589	45.23
295.804	18.6
296.018	20.65
296.233	43.18
296.447	41.13
296.662	2.22
296.877	88.23
297.091	24.75
297.306	6.31
297.52	123.05
297.735	59.56
297.949	-5.97
298.164	18.6
298.378	20.65
298.593	-16.21
298.807	20.65
299.022	92.33
299.236	110.76
299.451	-53.08
299.665	-30.55
299.88	55.47
300.094	26.79
300.309	-20.31
300.523	121
300.737	32.94
300.952	51.37
301.166	110.76
301.381	-22.36
301.595	73.9
301.809	59.56
302.024	-46.93
302.238	10.41
302.452	2.22
302.667	6.31
302.881	118.95
303.095	26.79
303.309	-1.88
303.524	-1.88
303.738	-22.36
303.952	26.79
304.166	8.36
304.381	-8.02
304.595	2.22
304.809	14.51
305.023	39.08
305.237	34.99
305.452	67.75
305.666	53.42
305.88	-12.12
306.094	37.03
306.308	37.03
306.522	-57.17
306.736	16.55
306.95	28.84
307.164	63.66
307.379	-55.12
307.593	34.99
307.807	59.56
308.021	4.27
308.235	106.67
308.449	10.41
308.663	16.55
308.877	47.27
309.091	45.23
309.305	18.6
309.519	49.32
309.733	106.67
309.947	28.84
310.161	90.28
310.374	63.66
310.588	-38.74
310.802	-1.88
311.016	45.23
311.23	4.27
311.444	30.89
311.658	2.22
311.872	12.46
312.085	55.47
312.299	43.18
312.513	16.55
312.727	57.51
312.941	26.79
313.154	84.14
313.368	59.56
313.582	65.71
313.796	-34.64
314.009	14.51
314.223	55.47
314.437	37.03
314.651	0.17
314.864	14.51
315.078	-12.12
315.292	12.46
315.505	84.14
315.719	37.03
315.933	18.6
316.146	-5.97
316.36	-30.55
316.573	98.47
316.787	20.65
317.001	55.47
317.214	28.84
317.428	92.33
317.641	10.41
317.855	43.18
318.068	53.42
318.282	41.13
318.495	14.51
318.709	-16.21
318.922	-10.07
319.136	41.13
319.349	108.71
319.563	16.55
319.776	82.09
319.99	30.89
320.203	34.99
320.417	32.94
320.63	-14.17
320.843	84.14
321.057	26.79
321.27	12.46
321.483	57.51
321.697	51.37
321.91	-3.93
322.124	90.28
322.337	18.6
322.55	-30.55
322.763	6.31
322.977	20.65
323.19	16.55
323.403	-22.36
323.617	0.17
323.83	16.55
324.043	41.13
324.256	61.61
324.469	-44.88
324.683	28.84
324.896	-38.74
325.109	24.75
325.322	-16.21
325.535	96.43
325.748	39.08
325.962	30.89
326.175	63.66
326.388	37.03
326.601	43.18
326.814	26.79
327.027	53.42
327.24	-1.88
327.453	-30.55
327.666	-8.02
327.879	41.13
328.092	-3.93
328.305	43.18
328.518	-3.93
328.731	-8.02
328.944	63.66
329.157	92.33
329.37	-59.22
329.583	4.27
329.796	0.17
330.009	24.75
330.222	65.71
330.435	-14.17
330.648	77.99
330.861	34.99
331.073	2.22
331.286	39.08
331.499	32.94
331.712	41.13
331.925	55.47
332.138	32.94
332.35	67.75
332.563	34.99
332.776	96.43
332.989	34.99
333.202	14.51
333.414	82.09
333.627	4.27
333.84	47.27
334.053	41.13
334.265	8.36
334.478	12.46
334.691	53.42
334.903	137.38
335.116	0.17
335.329	14.51
335.541	14.51
335.754	86.19
335.966	-38.74
336.179	51.37
336.392	22.7
336.604	-10.07
336.817	8.36
337.029	47.27
337.242	41.13
337.454	65.71
337.667	24.75
337.88	106.67
338.092	43.18
338.305	39.08
338.517	0.17
338.729	67.75
338.942	82.09
339.154	-32.6
339.367	43.18
339.579	-3.93
339.792	-38.74
340.004	39.08
340.217	-14.17
340.429	43.18
340.641	34.99
340.854	-28.5
341.066	41.13
341.278	51.37
341.491	88.23
341.703	108.71
341.915	51.37
342.128	75.95
342.34	112.81
342.552	20.65
342.764	6.31
342.977	-30.55
343.189	63.66
343.401	84.14
343.613	12.46
343.826	6.31
344.038	6.31
344.25	75.95
344.462	24.75
344.674	12.46
344.886	-8.02
345.099	75.95
345.311	24.75
345.523	16.55
345.735	26.79
345.947	67.75
346.159	41.13
346.371	24.75
346.583	6.31
346.795	65.71
347.007	-16.21
347.219	14.51
347.431	-30.55
347.643	37.03
347.855	75.95
348.067	53.42
348.279	-1.88
348.491	69.8
348.703	43.18
348.915	-75.6
349.127	30.89
349.339	-51.03
349.551	-61.27
349.763	65.71
349.975	26.79
350.187	47.27
350.399	26.79
350.61	45.23
350.822	34.99
351.034	6.31
351.246	-10.07
351.458	67.75
351.669	65.71
351.881	96.43
352.093	53.42
352.305	65.71
352.517	16.55
352.728	26.79
352.94	6.31
353.152	67.75
353.363	0.17
353.575	118.95
353.787	59.56
353.999	47.27
354.21	92.33
354.422	65.71
354.633	-8.02
354.845	0.17
355.057	30.89
355.268	55.47
355.48	45.23
355.692	2.22
355.903	-59.22
356.115	18.6
356.326	65.71
356.538	67.75
356.749	98.47
356.961	96.43
357.172	8.36
357.384	-28.5
357.595	108.71
357.807	-20.31
358.018	4.27
358.23	28.84
358.441	100.52
358.653	82.09
358.864	69.8
359.075	37.03
359.287	75.95
359.498	77.99
359.709	98.47
359.921	59.56
360.132	37.03
360.344	39.08
360.555	75.95
360.766	16.55
360.977	34.99
361.189	30.89
361.4	-18.26
361.611	-26.45
361.823	88.23
362.034	75.95
362.245	6.31
362.456	41.13
362.667	2.22
362.879	43.18
363.09	63.66
363.301	53.42
363.512	49.32
363.723	-5.97
363.935	73.9
364.146	65.71
364.357	71.85
364.568	34.99
364.779	67.75
364.99	80.04
365.201	2.22
365.412	77.99
365.623	12.46
365.834	84.14
366.045	24.75
366.256	65.71
366.467	92.33
366.678	-12.12
366.889	-12.12
367.1	55.47
367.311	32.94
367.522	28.84
367.733	39.08
367.944	34.99
368.155	67.75
368.366	28.84
368.577	116.9
368.788	94.38
368.999	22.7
369.209	4.27
369.42	114.86
369.631	114.86
369.842	104.62
370.053	112.81
370.264	116.9
370.474	-5.97
370.685	59.56
370.896	8.36
371.107	84.14
371.317	24.75
371.528	-12.12
371.739	71.85
371.95	82.09
372.16	-20.31
372.371	-22.36
372.582	30.89
372.792	14.51
373.003	84.14
373.214	116.9
373.424	121
373.635	-22.36
373.846	32.94
374.056	59.56
374.267	-5.97
374.477	28.84
374.688	-22.36
374.898	6.31
375.109	26.79
375.319	53.42
375.53	88.23
375.74	92.33
375.951	28.84
376.161	67.75
376.372	57.51
376.582	129.19
376.793	71.85
377.003	12.46
377.214	55.47
377.424	47.27
377.635	30.89
377.845	32.94
378.055	116.9
378.266	-16.21
378.476	65.71
378.686	135.34
378.897	-24.4
379.107	112.81
379.317	49.32
379.528	10.41
379.738	14.51
379.948	16.55
380.158	28.84
380.369	157.86
380.579	12.46
380.789	14.51
380.999	2.22
381.21	34.99
381.42	92.33
381.63	49.32
381.84	37.03
382.05	43.18
382.261	96.43
382.471	86.19
382.681	37.03
382.891	174.25
383.101	55.47
383.311	-5.97
383.521	65.71
383.731	71.85
383.941	112.81
384.151	4.27
384.361	75.95
384.571	22.7
384.781	-12.12
384.991	73.9
385.201	98.47
385.411	110.76
385.621	65.71
385.831	61.61
386.041	104.62
386.251	8.36
386.461	92.33
386.671	98.47
386.881	53.42
387.091	0.17
387.301	75.95
387.511	39.08
387.72	94.38
387.93	30.89
388.14	2.22
388.35	30.89
388.56	71.85
388.769	8.36
388.979	104.62
389.189	6.31
389.399	-1.88
389.609	51.37
389.818	4.27
390.028	147.62
390.238	149.67
390.447	92.33
390.657	73.9
390.867	41.13
391.076	37.03
391.286	123.05
391.496	6.31
391.705	131.24
391.915	61.61
392.125	84.14
392.334	90.28
392.544	92.33
392.753	53.42
392.963	67.75
393.172	112.81
393.382	0.17
393.591	108.71
393.801	106.67
394.01	106.67
394.22	106.67
394.429	59.56
394.639	77.99
394.848	82.09
395.058	106.67
395.267	94.38
395.477	86.19
395.686	45.23
395.895	153.77
396.105	96.43
396.314	69.8
396.524	118.95
396.733	90.28
396.942	65.71
397.152	80.04
397.361	153.77
397.57	110.76
397.78	133.29
397.989	104.62
398.198	186.54
398.407	153.77
398.617	77.99
398.826	164.01
399.035	125.1
399.244	202.92
399.453	178.34
399.663	88.23
399.872	149.67
400.081	174.25
400.29	88.23
400.499	114.86
400.708	92.33
400.917	92.33
401.127	100.52
401.336	98.47
401.545	131.24
401.754	137.38
401.963	166.06
402.172	133.29
402.381	129.19
402.59	137.38
402.799	170.15
403.008	182.44
403.217	145.58
403.426	137.38
403.635	170.15
403.844	118.95
404.053	161.96
404.262	155.82
404.471	188.58
404.68	94.38
404.888	123.05
405.097	96.43
405.306	190.63
405.515	227.5
405.724	235.69
405.933	207.02
406.142	256.17
406.35	229.54
406.559	217.26
406.768	215.21
406.977	215.21
407.185	247.97
407.394	252.07
407.603	192.68
407.812	233.64
408.02	327.85
408.229	276.65
408.438	297.13
408.646	295.08
408.855	262.31
409.064	372.9
409.272	323.75
409.481	338.09
409.69	303.27
409.898	305.32
410.107	420
410.315	329.89
410.524	303.27
410.733	366.76
410.941	379.04
411.15	401.57
411.358	501.92
411.567	571.55
411.775	409.76
411.984	428.2
412.192	544.93
412.401	469.16
412.609	540.83
412.818	567.46
413.026	616.61
413.234	624.8
413.443	546.98
413.651	632.99
413.86	624.8
414.068	706.72
414.276	716.96
414.485	682.14
414.693	882.85
414.901	850.08
415.11	907.42
415.318	936.09
415.526	870.56
415.734	1015.96
415.943	921.76
416.151	991.39
416.359	1038.49
416.567	987.29
416.776	1108.12
416.984	1222.81
417.192	1239.19
417.4	1190.04
417.608	1210.52
417.817	1206.42
418.025	1409.17
418.233	1384.6
418.441	1355.93
418.649	1364.12
418.857	1491.09
419.065	1626.26
419.273	1599.63
419.481	1591.44
419.689	1796.24
419.897	1863.82
420.105	1927.31
420.313	1925.26
420.521	1970.32
420.729	1947.79
420.937	2080.91
421.145	2257.03
421.353	2314.38
421.561	2353.29
421.769	2496.64
421.977	2637.95
422.185	2500.74
422.393	2748.54
422.601	2836.61
422.809	2678.91
423.017	2816.13
423.224	2930.81
423.432	3098.75
423.64	3094.65
423.848	3346.55
424.056	3274.87
424.263	3516.53
424.471	3432.57
424.679	3475.57
424.887	3846.26
425.094	3981.42
425.302	3883.12
425.51	4065.39
425.718	4114.54
425.925	4247.66
426.133	4376.68
426.341	4681.83
426.548	4778.08
426.756	4921.44
426.964	5011.55
427.171	5179.48
427.379	5138.52
427.586	5419.1
427.794	5568.6
428.001	5881.94
428.209	5939.28
428.417	5974.1
428.624	6359.11
428.832	6473.8
429.039	6395.98
429.247	6547.53
429.454	7002.18
429.662	7450.68
429.869	6967.36
430.076	7372.86
430.284	7034.94
430.491	7678.01
430.699	8079.41
430.906	7952.43
431.114	7813.17
431.321	8458.28
431.528	8554.54
431.736	9123.87
431.943	9578.52
432.15	9279.52
432.358	9457.69
432.565	9652.25
432.772	9730.07
432.979	10487.82
433.187	10487.82
433.394	10676.23
433.601	11378.69
433.808	11323.39
434.016	11128.83
434.223	11515.9
434.43	12195.82
434.637	12290.03
434.844	12709.86
435.052	13058.02
435.259	13109.22
435.466	13371.36
435.673	12824.55
435.88	13758.42
436.087	14829.51
436.294	14731.21
436.501	14188.5
436.708	14571.47
436.915	15177.67
437.122	15880.12
437.329	15626.17
437.537	16232.37
437.743	16365.49
437.95	16328.63
438.157	17201.06
438.364	17766.3
438.571	17772.44
438.778	18184.09
438.985	19502.98
439.192	18675.6
439.399	19513.22
439.606	18710.41
439.813	20168.57
440.02	20926.32
440.227	21051.24
440.433	20459.38
440.64	21544.8
440.847	21047.15
441.054	21843.81
441.261	22949.71
441.467	22738.77
441.674	23277.38
441.881	23947.07
442.088	23836.48
442.294	23822.14
442.501	24665.91
442.708	24958.77
442.914	25710.37
443.121	27072.27
443.328	26179.36
443.534	28143.36
443.741	27027.21
443.948	26646.29
444.154	29198.06
444.361	28827.38
444.568	28823.28
444.774	28903.15
444.981	29388.52
445.187	30009.06
445.394	31051.47
445.6	30869.2
445.807	33621.67
446.013	32239.29
446.22	32685.75
446.426	34176.67
446.633	34354.85
446.839	35767.94
447.046	33967.78
447.252	36038.28
447.459	35931.78
447.665	35597.96
447.871	37391.98
448.078	38848.09
448.284	36757.11
448.491	38252.13
448.697	39753.29
448.903	39894.6
449.11	40394.31
449.316	39523.92
449.522	40205.89
449.728	40949.31
449.935	41672.24
450.141	41512.5
450.347	42339.88
450.553	40781.37
450.76	41365.04
450.966	42792.48
451.172	42030.63
451.378	43099.67
451.584	42417.7
451.791	43378.2
451.997	43175.45
452.203	43994.64
452.409	43896.33
452.615	43349.53
452.821	41842.22
453.027	41643.57
453.233	43824.65
453.44	41662
453.646	42257.96
453.852	42446.37
454.058	43392.53
454.264	41891.37
454.47	42763.81
454.676	41838.12
454.882	43154.97
455.088	39374.42
455.294	39808.59
455.5	40097.35
455.705	40969.79
455.911	39341.65
456.117	38659.68
456.323	37992.04
456.529	35720.84
456.735	37254.77
456.941	36423.29
457.147	35950.21
457.352	34891.41
457.558	34328.22
457.764	34799.26
457.97	34076.32
458.176	32872.12
458.381	33185.46
458.587	31495.88
458.793	31117.01
458.999	29409
459.204	31993.54
459.41	31127.25
459.616	28716.79
459.821	28788.47
460.027	28829.43
460.233	28370.68
460.438	26820.37
460.644	27277.07
460.85	26021.66
461.055	25710.37
461.261	25546.53
461.466	23723.84
461.672	22878.03
461.878	24526.64
462.083	23295.82
462.289	22896.46
462.494	22544.21
462.7	21542.75
462.905	20881.26
463.111	21651.3
463.316	21774.17
463.522	21356.39
463.727	21290.85
463.932	21090.15
464.138	21024.62
464.343	20973.42
464.549	20637.55
464.754	21372.77
464.959	21186.41
465.165	20782.96
465.37	19945.34
465.575	19263.36
465.781	20465.52
465.986	20313.97
466.191	20033.4
466.397	19199.88
466.602	18388.88
466.807	19220.36
467.012	19031.94
467.218	18984.84
467.423	18868.11
467.628	18868.11
467.833	19699.58
468.038	19068.81
468.244	18413.46
468.449	19146.63
468.654	18345.87
468.859	18237.33
469.064	18487.18
469.269	17737.63
469.474	17686.43
469.679	18030.49
469.885	17504.16
470.09	17733.53
470.295	17610.65
470.5	17387.43
470.705	17362.85
470.91	16926.63
471.115	16693.16
471.32	17018.79
471.525	17104.81
471.73	16218.04
471.935	16609.2
472.139	15851.45
472.344	16125.88
472.549	15916.98
472.754	15724.47
472.959	15458.24
473.164	15050.69
473.369	14940.1
473.574	15368.13
473.778	15441.86
473.983	15108.04
474.188	15257.54
474.393	14440.4
474.598	14481.36
474.802	14507.98
475.007	14145.49
475.212	14319.57
475.417	13834.2
475.621	13752.28
475.826	13768.66
476.031	13664.22
476.235	13354.97
476.44	13471.71
476.645	13207.52
476.849	13326.3
477.054	13137.89
477.259	12808.17
477.463	13135.84
477.668	12503.02
477.872	12797.93
478.077	12683.24
478.282	12206.06
478.486	12269.55
478.691	12457.96
478.895	12105.71
479.1	12091.38
479.304	12011.51
479.509	11675.64
479.713	11939.83
479.918	11593.72
480.122	11382.78
480.326	12052.47
480.531	11542.52
480.735	11436.03
480.94	11386.88
481.144	11765.75
481.348	11214.85
481.553	11532.28
481.757	11388.92
481.961	11429.88
482.166	11601.91
482.37	11384.83
482.574	11245.57
482.778	11251.71
482.983	11425.79
483.187	11395.07
483.391	11470.84
483.595	11319.29
483.8	11139.07
484.004	11323.39
484.208	11519.99
484.412	11241.47
484.616	11270.14
484.821	11403.26
485.025	10917.89
485.229	11626.49
485.433	11175.94
485.637	11223.04
485.841	11202.56
486.045	11257.85
486.249	11286.53
486.453	11427.84
486.657	11288.57
486.861	11180.03
487.065	10850.31
487.269	11331.58
487.473	11067.39
487.677	11245.57
487.881	11315.2
488.085	11204.61
488.289	11485.18
488.493	11304.96
488.697	11270.14
488.901	11505.66
489.105	11343.87
489.309	11315.2
489.512	11413.5
489.716	11511.8
489.92	11442.17
490.124	11390.97
490.328	11554.81
490.531	11311.1
490.735	11587.58
490.939	11659.26
491.143	11585.53
491.346	11669.5
491.55	11741.18
491.754	11747.32
491.958	11845.62
492.161	11874.29
492.365	11980.79
492.569	11888.63
492.772	11968.5
492.976	12089.33
493.18	12124.15
493.383	12269.55
493.587	12484.59
493.79	12378.09
493.994	12365.81
494.197	12560.36
494.401	12769.26
494.605	12830.69
494.808	12929
495.012	12922.85
495.215	12658.67
495.419	12990.44
495.622	12947.43
495.825	13297.63
496.029	13305.82
496.232	13496.28
496.436	13404.13
496.639	13584.35
496.843	13776.86
497.046	14055.38
497.249	14282.7
497.453	14055.38
497.656	14223.31
497.859	14286.8
498.063	14518.22
498.266	14718.92
498.469	14735.31
498.673	14864.33
498.876	15249.35
499.079	15501.25
499.282	15484.86
499.485	15398.85
499.689	15765.43
499.892	15804.35
500.095	15972.28
500.298	16428.98
500.501	16228.28
500.705	16865.19
500.908	17065.89
501.111	17059.75
501.314	16912.3
501.517	17188.77
501.72	17248.16
501.923	17629.09
502.126	17938.33
502.329	18110.36
502.532	18276.24
502.735	18311.06
502.938	18784.14
503.141	18759.56
503.344	19363.72
503.547	19109.77
503.75	19523.46
503.953	19955.58
504.156	19883.9
504.359	20031.35
504.562	20150.14
504.765	20629.36
504.968	20957.03
505.17	20987.75
505.373	21141.35
505.576	21327.72
505.779	21761.89
505.982	21667.68
506.185	22114.14
506.387	22241.11
506.59	22499.16
506.793	22738.77
506.996	22669.14
507.198	23072.59
507.401	23461.7
507.604	23813.95
507.807	23932.73
508.009	23732.03
508.212	24155.96
508.415	24651.57
508.617	24860.46
508.82	24807.22
509.022	24694.58
509.225	25724.71
509.428	25788.19
509.63	26232.6
509.833	26029.85
510.035	26853.14
510.238	26588.95
510.44	27109.13
510.643	27258.63
510.845	27158.28
511.048	27657.99
511.25	27971.33
511.453	27922.18
511.655	29011.7
511.858	28587.77
512.06	29069.04
512.262	29023.98
512.465	29101.81
512.667	29535.98
512.87	30033.63
513.072	30103.26
513.274	30717.65
513.477	31178.45
513.679	31049.42
513.881	31612.62
514.084	31669.96
514.286	31850.18
514.488	32007.87
514.69	33205.94
514.893	32814.77
515.095	33105.59
515.297	33390.25
515.499	33300.14
515.701	33767.08
515.904	34662.04
516.106	34479.77
516.308	34557.6
516.51	35221.14
516.712	35505.8
516.914	35724.94
517.116	36040.32
517.318	36204.16
517.52	36343.42
517.722	36722.3
517.925	37236.34
518.127	37289.59
518.329	38104.68
518.531	37269.11
518.733	38424.16
518.935	38725.21
519.136	38649.44
519.338	39122.52
519.54	39261.78
519.742	39368.27
519.944	40048.2
520.146	40408.64
520.348	40709.69
520.55	40816.19
520.752	40934.97
520.954	41725.49
521.155	41434.67
521.357	42040.87
521.559	42419.75
521.761	42917.4
521.963	42790.43
522.164	43243.03
522.366	43054.62
522.568	43695.63
522.77	43380.24
522.971	44350.98
523.173	44060.17
523.375	44310.02
523.576	44191.24
523.778	44756.48
523.98	45258.23
524.181	45200.89
524.383	45420.02
524.584	46188.01
524.786	46280.17
524.988	46118.38
525.189	46624.23
525.391	46929.37
525.592	47056.35
525.794	47533.53
525.995	47216.09
526.197	47240.67
526.398	47652.31
526.6	47906.26
526.801	47967.69
527.003	48221.64
527.204	48278.99
527.406	48633.28
527.607	48647.62
527.808	49026.49
528.01	48324.04
528.211	48651.72
528.412	49370.55
528.614	49165.76
528.815	49178.04
529.016	50148.78
529.218	49499.58
529.419	50242.99
529.62	49878.45
529.822	49419.7
530.023	49878.45
530.224	49870.26
530.425	50073.01
530.626	49997.23
530.828	49835.44
531.029	50834.85
531.23	50122.16
531.431	50490.79
531.632	50415.02
531.833	50615.72
532.035	50623.91
532.236	50970.02
532.437	51015.07
532.638	50652.58
532.839	50986.4
533.04	51152.29
533.241	50398.63
533.442	51901.84
533.643	51115.42
533.844	50886.05
534.045	51146.14
534.246	50728.36
534.447	51305.88
534.648	51455.39
534.849	51422.62
535.05	50910.63
535.251	51424.67
535.451	50892.19
535.652	51215.77
535.853	51293.6
536.054	51092.9
536.255	51375.51
536.456	50644.39
536.657	51629.46
536.857	51129.76
537.058	51060.13
537.259	51719.57
537.46	51281.31
537.66	51309.98
537.861	51336.6
538.062	51606.94
538.263	51729.81
538.463	50894.24
538.664	51246.49
538.865	51678.61
539.065	51613.08
539.266	50771.36
539.466	51957.14
539.667	51148.19
539.868	51926.42
540.068	51195.29
540.269	51398.04
540.469	51733.91
540.67	51090.85
540.87	51430.81
541.071	51535.26
541.271	51465.63
541.472	51590.55
541.672	51039.65
541.873	51260.83
542.073	50716.07
542.274	51527.06
542.474	51258.78
542.675	50859.43
542.875	51369.37
543.075	51727.77
543.276	50548.14
543.476	51428.76
543.676	50806.18
543.877	51611.03
544.077	51023.26
544.277	51191.2
544.478	50904.48
544.678	51766.68
544.878	51080.61
545.078	50902.43
545.279	50806.18
545.479	50931.11
545.679	51525.02
545.879	51297.69
546.079	51264.92
546.28	51025.31
546.48	50711.97
546.68	51174.81
546.88	51451.29
547.08	51185.05
547.28	51273.12
547.48	50793.89
547.68	51221.92
547.88	50548.14
548.081	51486.11
548.281	50691.49
548.481	50730.4
548.681	51197.34
548.881	51047.84
549.081	51039.65
549.28	50509.22
549.48	51015.07
549.68	51275.16
549.88	51752.34
550.08	50671.01
550.28	50972.06
550.48	50771.36
550.68	51269.02
550.88	50664.87
551.08	50767.27
551.279	50781.6
551.479	50531.75
551.679	50894.24
551.879	50664.87
552.079	50865.57
552.278	50875.81
552.478	50992.54
552.678	50464.17
552.878	51133.85
553.077	50838.95
553.277	50617.77
553.477	51033.5
553.676	50503.08
553.876	50974.11
554.076	50578.85
554.275	50765.22
554.475	50781.6
554.674	50687.4
554.874	50552.23
555.074	50122.16
555.273	51013.02
555.473	50470.31
555.672	50455.98
555.872	50367.91
556.071	50064.81
556.271	51084.7
556.47	50056.62
556.67	50052.53
556.869	50265.52
557.068	49946.03
557.268	49876.4
557.467	50240.94
557.667	50097.58
557.866	50269.61
558.065	49962.42
558.265	49911.22
558.464	49507.77
558.663	50087.34
558.863	49102.27
559.062	50312.62
559.261	49274.3
559.461	50724.26
559.66	49073.6
559.859	49679.8
560.058	49747.38
560.258	49647.03
560.457	49010.11
560.656	49579.45
560.855	49143.23
561.054	49253.82
561.253	48872.9
561.453	48903.62
561.652	49550.77
561.851	49429.94
562.05	48989.63
562.249	48442.82
562.448	49051.07
562.647	48815.55
562.846	48729.54
563.045	48967.1
563.244	48352.71
563.443	48698.82
563.642	48238.03
563.841	48362.95
564.04	48555.46
564.239	48756.16
564.438	48213.45
564.637	48209.36
564.836	48141.77
565.035	47535.57
565.234	47984.08
565.432	47525.33
565.631	47429.08
565.83	47558.1
566.029	47433.17
566.228	47484.37
566.427	47668.69
566.625	47021.53
566.824	46890.46
567.023	47556.05
567.222	46517.73
567.42	47023.58
567.619	46796.26
567.818	46730.72
568.016	46767.59
568.215	47443.41
568.414	46548.45
568.612	46808.54
568.811	46370.28
569.01	46566.88
569.208	45962.73
569.407	46589.41
569.605	45594.1
569.804	46421.48
570.002	45444.6
570.201	46114.28
570.4	45680.11
570.598	45420.02
570.797	45215.22
570.995	45538.8
571.193	44598.79
571.392	45422.07
571.59	45276.66
571.789	44973.56
571.987	44692.99
572.186	44740.1
572.384	44826.11
572.582	44617.22
572.781	44942.84
572.979	44338.69
573.177	44568.07
573.376	44645.89
573.574	43984.4
573.772	44215.82
573.971	44078.6
574.169	43482.64
574.367	43736.59
574.565	44047.88
574.763	43408.92
574.962	43564.56
575.16	43267.61
575.358	43478.55
575.556	43007.51
575.754	43247.13
575.952	42915.36
576.151	43560.47
576.349	42561.06
576.547	42495.52
576.745	42417.7
576.943	42798.62
577.141	42702.37
577.339	42479.14
577.537	42372.64
577.735	42552.87
577.933	41752.11
578.131	42391.08
578.329	41948.71
578.527	41762.35
578.725	41881.13
578.923	41874.99
579.121	41483.83
579.319	41575.98
579.516	41815.6
579.714	41240.12
579.912	41385.52
580.11	40975.93
580.308	41143.86
580.506	41266.74
580.704	40261.19
580.901	41225.78
581.099	40771.13
581.297	40330.82
581.495	40582.72
581.692	40777.28
581.89	39902.79
582.088	40588.86
582.285	39841.35
582.483	40185.41
582.681	39919.18
582.878	39497.3
583.076	38909.53
583.274	39626.32
583.471	39206.48
583.669	39683.66
583.866	39398.99
584.064	39865.93
584.262	38415.97
584.459	39140.95
584.657	39036.5
584.854	38921.82
585.052	38704.73
585.249	38739.55
585.447	38889.05
585.644	38186.6
585.841	38452.83
586.039	38522.46
586.236	38041.19
586.434	38104.68
586.631	37867.11
586.828	37807.72
587.026	37842.54
587.223	37518.96
587.42	38016.61
587.618	37707.37
587.815	37301.87
588.012	37353.07
588.21	36943.48
588.407	37414.51
588.604	37017.21
588.801	36585.08
588.999	36529.79
589.196	36454.01
589.393	36748.92
589.59	36515.45
589.787	36122.24
589.984	36222.59
590.182	36001.41
590.379	36372.1
590.576	36157.06
590.773	35999.37
590.97	35581.58
591.167	35745.42
591.364	35022.48
591.561	35192.47
591.758	35249.81
591.955	35206.8
592.152	35534.48
592.349	35204.75
592.546	34975.38
592.743	35321.49
592.94	34344.61
593.137	34733.72
593.334	34557.6
593.531	34246.3
593.727	34160.29
593.924	34580.12
594.121	34068.13
594.318	34395.81
594.515	33943.2
594.712	34463.39
594.908	33730.22
595.105	33959.59
595.302	33566.38
595.499	33674.92
595.696	33662.63
595.892	33205.94
596.089	33412.78
596.286	33265.33
596.482	32673.46
596.679	32904.88
596.876	32849.59
597.072	32358.08
597.269	32714.42
597.466	32489.15
597.662	32067.27
597.859	32487.1
598.055	32231.1
598.252	32382.65
598.448	32104.13
598.645	32132.8
598.841	31921.86
599.038	32167.62
599.234	31977.15
599.431	31426.25
599.627	31330
599.824	31444.68
600.02	31524.55
600.217	31581.9
600.413	31375.05
600.609	30848.72
600.806	30926.55
601.002	30779.09
601.198	30656.21
601.395	30811.86
601.591	30342.88
601.787	30457.56
601.984	30605.02
602.18	30756.57
602.376	30209.76
602.572	30068.45
602.769	30095.07
602.965	29691.62
603.161	29802.21
603.357	29699.81
603.553	29501.16
603.75	29789.92
603.946	29378.28
604.142	29304.56
604.338	29042.42
604.534	29439.72
604.73	28880.63
604.926	29011.7
605.122	28860.15
605.318	28763.89
605.514	28628.73
605.71	28647.16
605.906	28649.21
606.102	28602.1
606.298	28724.98
606.494	28428.02
606.69	28311.29
606.886	28190.46
607.082	28417.79
607.278	28425.98
607.474	28065.53
607.67	28129.02
607.866	27512.58
608.062	28225.28
608.257	27870.98
608.453	27535.11
608.649	27537.16
608.845	27479.82
609.041	27940.61
609.236	27696.9
609.432	27324.17
609.628	27279.11
609.824	27434.76
610.019	27227.92
610.215	27078.41
610.411	27109.13
610.606	27014.93
610.802	27217.68
610.998	26973.97
611.193	26767.12
611.389	26849.04
611.584	26617.62
611.78	26541.85
611.976	26343.19
612.171	26607.38
612.367	26724.11
612.562	26367.77
612.758	26345.24
612.953	25886.5
613.149	26545.94
613.344	26052.38
613.539	26556.18
613.735	26036
613.93	26097.44
614.126	26062.62
614.321	26275.61
614.517	25896.74
614.712	25671.46
614.907	25454.37
615.103	25853.73
615.298	25468.71
615.493	25884.45
615.688	25366.31
615.884	25841.44
616.079	25372.46
616.274	25564.96
616.47	25411.37
616.665	25567.01
616.86	25411.37
617.055	25177.9
617.25	25130.8
617.445	25368.36
617.641	24637.23
617.836	24966.96
618.031	24741.68
618.226	24825.65
618.421	24596.28
618.616	24882.99
618.811	24682.29
619.006	24850.22
619.201	24342.33
619.396	24371
619.591	24192.83
619.786	24074.04
619.981	23752.51
620.176	24201.02
620.371	23670.59
620.566	23924.54
620.761	23570.24
620.956	23609.15
621.151	23275.34
621.346	23369.54
621.541	23054.15
621.735	23009.1
621.93	22974.28
622.125	23258.95
622.32	22493.01
622.515	22773.58
622.709	22415.19
622.904	22560.59
623.099	22067.03
623.294	22450
623.488	22056.79
623.683	22124.38
623.878	21579.62
624.072	21792.61
624.267	21696.35
624.462	21477.22
624.656	21208.94
624.851	21409.64
625.046	21067.63
625.24	21124.97
625.435	20789.1
625.629	20823.92
625.824	20811.63
626.018	20309.88
626.213	20393.84
626.407	20397.94
626.602	20137.85
626.796	20612.98
626.991	20264.82
627.185	20297.59
627.38	19967.87
627.574	19734.4
627.768	19701.63
627.963	19154.82
628.157	19318.66
628.352	19390.34
628.546	19113.86
628.74	19468.16
628.935	18931.59
629.129	18894.73
629.323	18982.79
629.517	18886.54
629.712	18556.82
629.906	18597.77
630.1	18401.17
630.294	18345.87
630.489	18229.14
630.683	18298.77
630.877	17760.16
631.071	18026.39
631.265	18098.07
631.459	18073.49
631.653	17649.57
631.848	17668
632.042	17385.38
632.236	17739.68
632.43	17229.73
632.624	17543.07
632.818	17022.89
633.012	16916.39
633.206	17117.09
633.4	16848.81
633.594	16484.27
633.788	16912.3
633.982	16721.84
634.176	16660.4
634.369	16385.97
634.563	16367.54
634.757	16283.57
634.951	16246.71
635.145	16175.03
635.339	16170.93
635.533	15923.13
635.726	16064.44
635.92	15589.31
636.114	15775.67
636.308	15568.83
636.501	15773.63
636.695	15601.6
636.889	15267.78
637.083	15349.7
637.276	15067.08
637.47	15185.86
637.664	14966.73
637.857	15105.99
638.051	15349.7
638.244	14839.75
638.438	14747.59
638.632	14649.29
638.825	14499.79
639.019	14360.53
639.212	14374.86
639.406	14399.44
639.599	14092.24
639.793	14239.7
639.986	14106.58
640.18	14204.88
640.373	14155.73
640.567	14036.95
640.76	13903.83
640.954	13891.54
641.147	13547.48
641.34	13699.03
641.534	13516.76
641.727	13465.57
641.92	13330.4
642.114	13359.07
642.307	13305.82
642.5	13205.47
642.694	12996.58
642.887	13041.64
643.08	13363.17
643.273	12976.1
643.467	12724.2
643.66	12935.14
643.853	12822.5
644.046	12664.81
644.239	12595.18
644.432	12380.14
644.626	12576.75
644.819	12408.81
645.012	12296.18
645.205	12384.24
645.398	12380.14
645.591	12064.75
645.784	12074.99
645.977	11677.69
646.17	11956.21
646.363	11972.6
646.556	11575.29
646.749	11784.18
646.942	11845.62
647.135	11599.87
647.328	11495.42
647.521	11519.99
647.714	11659.26
647.907	11325.44
648.099	11386.88
648.292	11249.66
648.485	11436.03
648.678	11046.91
648.871	11149.31
649.064	10973.19
649.256	11032.58
649.449	11032.58
649.642	10842.12
649.835	10715.14
650.027	10870.79
650.22	10770.44
650.413	10493.96
650.605	10709
650.798	10491.91
650.991	10270.73
651.183	10487.82
651.376	10287.12
651.568	10385.42
651.761	10194.96
651.954	10315.79
652.146	10274.83
652.339	10143.76
652.531	10090.51
652.724	10106.9
652.916	9609.24
653.109	9838.61
653.301	9803.8
653.494	9660.44
653.686	9842.71
653.879	9680.92
654.071	9465.88
654.263	9570.33
654.456	9779.22
654.648	9582.62
654.84	9250.85
655.033	9326.62
655.225	9281.57
655.417	9209.89
655.61	9351.2
655.802	9287.71
655.994	9164.83
656.186	9101.34
656.379	9179.17
656.571	9101.34
656.763	9095.2
656.955	9000.99
657.148	9000.99
657.34	8953.89
657.532	8781.86
657.724	8765.48
657.916	8822.82
658.108	8661.03
658.3	8482.86
658.492	8529.96
658.684	8572.97
658.876	8454.19
659.068	8421.42
659.26	8353.84
659.452	8497.19
659.644	8259.63
659.836	8151.09
660.028	8329.26
660.22	8159.28
660.412	8230.96
660.604	8110.13
660.796	8230.96
660.988	8126.51
661.18	7950.39
661.372	7905.33
661.563	8009.78
661.755	7714.87
661.947	7809.08
662.139	7743.54
662.331	7829.56
662.522	7458.87
662.714	7745.59
662.906	7559.22
663.097	7759.92
663.289	7415.87
663.481	7534.65
663.673	7481.4
663.864	7446.59
664.056	7254.08
664.247	7338.04
664.439	7297.08
664.631	7239.74
664.822	7317.56
665.014	7153.73
665.205	7075.9
665.397	7348.28
665.588	7235.64
665.78	7141.44
665.971	7100.48
666.163	7200.83
666.354	7018.56
666.546	6977.6
666.737	6867.01
666.929	6893.63
667.12	6817.86
667.311	6948.93
667.503	6971.46
667.694	6813.76
667.885	6858.82
668.077	6791.24
668.268	6621.25
668.459	6627.4
668.651	6502.47
668.842	6557.77
669.033	6537.29
669.224	6348.87
669.416	6645.83
669.607	6481.99
669.798	6457.42
669.989	6627.4
670.18	6371.4
670.371	6381.64
670.563	6318.15
670.754	6307.91
670.945	6242.38
671.136	6336.59
671.327	6244.43
671.518	6176.84
671.709	6256.72
671.9	6305.87
672.091	5931.09
672.282	6154.32
672.473	5916.75
672.664	6084.69
672.855	6045.77
673.046	6086.73
673.237	5974.1
673.428	5931.09
673.619	6082.64
673.809	5965.9
674	5847.12
674.191	5814.35
674.382	5963.86
674.573	5931.09
674.764	5851.22
674.954	5892.18
675.145	5871.7
675.336	5724.24
675.527	5732.44
675.717	5890.13
675.908	5750.87
676.099	5673.04
676.289	5757.01
676.48	5613.65
676.671	5589.08
676.861	5658.71
677.052	5490.77
677.243	5341.27
677.433	5582.93
677.624	5625.94
677.814	5513.3
678.005	5611.61
678.195	5390.42
678.386	5566.55
678.576	5523.54
678.767	5474.39
678.957	5472.34
679.148	5550.17
679.338	5298.27
679.529	5462.1
679.719	5320.79
679.909	5351.51
680.1	5343.32
680.29	5380.18
680.481	5425.24
680.671	5441.62
680.861	5306.46
681.052	5380.18
681.242	5318.75
681.432	5267.55
681.622	5101.66
681.813	5273.69
682.003	5247.07
682.193	5195.87
682.383	5277.79
682.573	5085.28
682.764	5197.92
682.954	5072.99
683.144	5027.93
683.334	5060.7
683.524	5101.66
683.714	5118.04
683.904	5021.79
684.094	5175.39
684.284	5036.13
684.474	5042.27
684.664	4950.11
684.854	5136.48
685.044	4974.69
685.234	4884.58
685.424	5148.76
685.614	4933.73
685.804	4767.84
685.994	4929.63
686.184	4823.14
686.374	4771.94
686.564	4788.32
686.753	4778.08
686.943	4679.78
687.133	4724.83
687.323	4714.59
687.513	4741.22
687.702	4690.02
687.892	4720.74
688.082	4745.31
688.272	4669.54
688.461	4683.88
688.651	4720.74
688.841	4558.95
689.03	4491.37
689.22	4534.37
689.41	4655.2
689.599	4612.2
689.789	4421.74
689.979	4622.44
690.168	4364.39
690.358	4446.31
690.547	4415.59
690.737	4341.86
690.926	4429.93
691.116	4120.68
691.305	4456.55
691.495	4382.82
691.684	4374.63
691.874	4257.9
692.063	4257.9
692.252	4247.66
692.442	4212.84
692.631	4122.73
692.82	4151.4
693.01	4137.07
693.199	4022.38
693.388	4096.11
693.578	4145.26
693.767	4190.31
693.956	4059.24
694.146	4065.39
694.335	4018.29
694.524	4001.9
694.713	3983.47
694.902	4001.9
695.092	4006
695.281	3938.41
695.47	3944.56
695.659	3940.46
695.848	3962.99
696.037	3979.37
696.226	3876.98
696.415	3975.28
696.604	3930.22
696.793	3811.44
696.982	3909.74
697.171	3801.2
697.36	3942.51
697.549	3850.35
697.738	3860.59
697.927	3702.9
698.116	3706.99
698.305	3844.21
698.494	3725.43
698.683	3809.39
698.872	3811.44
699.061	3709.04
699.25	3786.86
699.438	3743.86
699.627	3727.47
699.816	3782.77
700.005	3801.2
700.193	3750
700.382	3750
700.571	3680.37
700.76	3801.2
700.948	3797.1
701.137	3569.78
701.326	3668.08
701.514	3604.6
701.703	3573.88
701.892	3641.46
702.08	3741.81
702.269	3774.58
702.457	3516.53
702.646	3463.29
702.834	3692.66
703.023	3545.2
703.212	3453.05
703.4	3606.64
703.589	3661.94
703.777	3670.13
703.965	3500.15
704.154	3537.01
704.342	3491.96
704.531	3506.29
704.719	3377.27
704.907	3532.92
705.096	3530.87
705.284	3614.84
705.472	3461.24
705.661	3483.77
705.849	3457.14
706.037	3522.68
706.226	3504.25
706.414	3436.66
706.602	3504.25
706.79	3510.39
706.979	3672.18
707.167	3496.05
707.355	3434.61
707.543	3469.43
707.731	3551.35
707.919	3438.71
708.107	3430.52
708.296	3467.38
708.484	3393.65
708.672	3444.85
708.86	3553.4
709.048	3489.91
709.236	3401.85
709.424	3563.64
709.612	3387.51
709.8	3397.75
709.988	3426.42
710.176	3369.08
710.364	3416.18
710.551	3369.08
710.739	3395.7
710.927	3465.33
711.115	3410.04
711.303	3453.05
711.491	3477.62
711.679	3289.21
711.866	3399.8
712.054	3391.61
712.242	3405.94
712.43	3332.22
712.617	3356.79
712.805	3326.07
712.993	3430.52
713.181	3393.65
713.368	3455.09
713.556	3311.74
713.744	3246.2
713.931	3287.16
714.119	3410.04
714.306	3350.65
714.494	3414.13
714.682	3250.3
714.869	3369.08
715.057	3391.61
715.244	3373.18
715.432	3295.35
715.619	3238.01
715.807	3262.58
715.994	3266.68
716.182	3311.74
716.369	3324.02
716.556	3252.35
716.744	3211.39
716.931	3283.06
717.119	3324.02
717.306	3369.08
717.493	3158.14
717.681	3360.89
717.868	3344.5
718.055	3446.9
718.242	3131.51
718.43	3354.74
718.617	3242.11
718.804	3319.93
718.991	3195
719.179	3348.6
719.366	3281.02
719.553	3209.34
719.74	3283.06
719.927	3274.87
720.114	3188.86
720.301	3305.59
720.488	3162.23
720.676	3141.75
720.863	3313.78
721.05	3205.24
721.237	3186.81
721.424	3197.05
721.611	3145.85
721.798	3113.08
721.985	3154.04
722.172	3162.23
722.358	3197.05
722.545	3190.91
722.732	3281.02
722.919	3207.29
723.106	3061.88
723.293	3131.51
723.48	3160.19
723.667	3129.47
723.853	3084.41
724.04	3065.98
724.227	3076.22
724.414	3061.88
724.6	3139.71
724.787	3186.81
724.974	3156.09
725.161	3090.56
725.347	3156.09
725.534	3080.32
725.72	3014.78
725.907	2951.29
726.094	3115.13
726.28	2967.68
726.467	3078.27
726.653	3145.85
726.84	2994.3
727.027	3160.19
727.213	2969.73
727.4	3160.19
727.586	3176.57
727.773	3039.36
727.959	3100.8
728.145	2961.53
728.332	2988.16
728.518	3047.55
728.705	3063.93
728.891	3025.02
729.077	3016.83
729.264	3025.02
729.45	2998.4
729.636	3020.92
729.823	2973.82
730.009	3055.74
730.195	2844.8
730.382	3072.12
730.568	2973.82
730.754	2947.2
730.94	2904.19
731.126	2977.92
731.313	2969.73
731.499	2973.82
731.685	2887.81
731.871	2842.75
732.057	2932.86
732.243	2889.85
732.429	2951.29
732.615	2918.53
732.801	2975.87
732.987	2914.43
733.173	2904.19
733.359	2891.9
733.545	2906.24
733.731	2838.66
733.917	2779.26
734.103	2906.24
734.289	2902.14
734.475	2883.71
734.661	2779.26
734.847	2812.03
735.033	2814.08
735.219	2820.22
735.404	2850.94
735.59	2771.07
735.776	2814.08
735.962	2910.33
736.148	2820.22
736.333	2828.42
736.519	2842.75
736.705	2785.41
736.89	2701.44
737.076	2676.87
737.262	2783.36
737.447	2736.26
737.633	2873.47
737.819	2746.5
738.004	2730.11
738.19	2721.92
738.375	2730.11
738.561	2748.54
738.747	2709.63
738.932	2680.96
739.118	2775.17
739.303	2617.47
739.489	2713.73
739.674	2594.95
739.859	2699.39
740.045	2646.15
740.23	2635.91
740.416	2496.64
740.601	2607.23
740.786	2668.67
740.972	2476.16
741.157	2545.8
741.342	2562.18
741.528	2422.92
741.713	2584.71
741.898	2547.84
742.084	2457.73
742.269	2531.46
742.454	2527.36
742.639	2607.23
742.824	2541.7
743.01	2482.31
743.195	2486.4
743.38	2424.97
743.565	2398.34
743.75	2486.4
743.935	2332.81
744.12	2525.32
744.305	2365.57
744.49	2420.87
744.675	2457.73
744.86	2238.6
745.045	2302.09
745.23	2377.86
745.415	2373.77
745.6	2361.48
745.785	2308.23
745.97	2334.86
746.155	2304.14
746.34	2320.52
746.525	2220.17
746.71	2222.22
746.895	2230.41
747.079	2279.56
747.264	2173.07
747.449	2187.4
747.634	2254.98
747.819	2109.58
748.003	2064.52
748.188	1949.84
748.373	2117.77
748.557	2166.92
748.742	2101.39
748.927	2033.8
749.111	2125.96
749.296	2052.24
749.481	2099.34
749.665	2031.76
749.85	2056.33
750.034	2058.38
750.219	1982.6
750.404	1935.5
750.588	1996.94
750.773	1943.69
750.957	1960.08
751.141	2001.04
751.326	1876.11
751.51	1818.77
751.695	1915.02
751.879	1935.5
752.064	1894.54
752.248	1829.01
752.432	1802.38
752.617	1865.87
752.801	1792.14
752.985	1675.41
753.17	1722.51
753.354	1730.7
753.538	1652.88
753.722	1757.33
753.907	1687.7
754.091	1663.12
754.275	1634.45
754.459	1714.32
754.643	1697.94
754.828	1640.59
755.012	1542.29
755.196	1644.69
755.38	1712.27
755.564	1581.2
755.748	1573.01
755.932	1568.91
756.116	1493.14
756.3	1538.2
756.484	1505.43
756.668	1525.91
756.852	1511.57
757.036	1478.8
757.22	1523.86
757.404	1552.53
757.588	1345.69
757.772	1460.37
757.956	1439.89
758.14	1415.32
758.323	1482.9
758.507	1423.51
758.691	1396.89
758.875	1464.47
759.059	1435.8
759.242	1380.5
759.426	1317.01
759.61	1312.92
759.794	1382.55
759.977	1357.97
760.161	1413.27
760.345	1368.21
760.528	1343.64
760.712	1364.12
760.895	1312.92
761.079	1364.12
761.263	1259.67
761.446	1261.72
761.63	1294.49
761.813	1237.14
761.997	1210.52
762.18	1278.1
762.364	1157.27
762.547	1198.23
762.731	1181.85
762.914	1282.2
763.098	1175.7
763.281	1200.28
763.464	1192.09
763.648	1239.19
763.831	1155.23
764.015	1130.65
764.198	1300.63
764.381	1114.27
764.564	1114.27
764.748	1153.18
764.931	1210.52
765.114	1228.95
765.297	1140.89
765.481	1140.89
765.664	1085.59
765.847	1071.26
766.03	1286.3
766.213	1149.08
766.397	1124.51
766.58	1173.66
766.763	1198.23
766.946	1036.44
767.129	1149.08
767.312	1097.88
767.495	1171.61
767.678	1073.31
767.861	1087.64
768.044	1116.31
768.227	1067.16
768.41	1206.42
768.593	1073.31
768.776	1001.63
768.959	1011.87
769.142	1140.89
769.324	972.96
769.507	1001.63
769.69	1110.17
769.873	1042.59
770.056	1030.3
770.239	1061.02
770.421	1048.73
770.604	981.15
770.787	936.09
770.97	938.14
771.152	960.67
771.335	987.29
771.518	917.66
771.7	1038.49
771.883	960.67
772.066	966.81
772.248	993.44
772.431	1009.82
772.613	977.05
772.796	929.95
772.978	940.19
773.161	858.27
773.343	956.57
773.526	805.02
773.708	893.09
773.891	886.94
774.073	929.95
774.256	876.7
774.438	874.65
774.621	866.46
774.803	866.46
774.985	764.06
775.168	800.93
775.35	845.98
775.532	813.21
775.715	766.11
775.897	860.32
776.079	802.97
776.261	762.02
776.444	798.88
776.626	876.7
776.808	788.64
776.99	811.17
777.173	764.06
777.355	727.2
777.537	780.45
777.719	800.93
777.901	667.81
778.083	786.59
778.265	618.66
778.447	757.92
778.629	641.18
778.811	747.68
778.993	737.44
779.175	676
779.357	673.95
779.539	663.71
779.721	737.44
779.903	714.91
780.085	665.76
780.267	618.66
780.449	643.23
780.631	602.27
780.812	702.62
780.994	694.43
781.176	526.5
781.358	575.65
781.54	622.75
781.721	645.28
781.903	725.15
782.085	585.89
782.267	592.03
782.448	528.55
782.63	663.71
782.812	581.79
782.993	532.64
783.175	526.5
783.357	606.37
783.538	624.8
783.72	553.12
783.901	598.18
784.083	534.69
784.264	589.99
784.446	508.07
784.627	501.92
784.809	452.77
784.99	497.83
785.172	649.38
785.353	499.88
785.535	532.64
785.716	524.45
785.897	506.02
786.079	458.92
786.26	559.27
786.441	501.92
786.623	506.02
786.804	485.54
786.985	428.2
787.167	481.44
787.348	362.66
787.529	452.77
787.71	467.11
787.891	471.2
788.073	516.26
788.254	428.2
788.435	477.35
788.616	446.63
788.797	440.48
788.978	460.96
789.159	477.35
789.34	395.43
789.522	391.33
789.703	499.88
789.884	379.04
790.065	395.43
790.246	469.16
790.427	442.53
790.607	374.95
790.788	530.59
790.969	454.82
791.15	460.96
791.331	370.85
791.512	450.72
791.693	415.91
791.874	366.76
792.054	385.19
792.235	362.66
792.416	401.57
792.597	360.61
792.778	338.09
792.958	399.52
793.139	403.62
793.32	362.66
793.5	331.94
793.681	395.43
793.862	303.27
794.042	364.71
794.223	370.85
794.404	379.04
794.584	346.28
794.765	383.14
794.945	348.33
795.126	393.38
795.306	327.85
795.487	342.18
795.667	346.28
795.848	354.47
796.028	303.27
796.209	354.47
796.389	288.93
796.57	274.6
796.75	272.55
796.93	297.13
797.111	305.32
797.291	256.17
797.471	331.94
797.652	317.61
797.832	319.65
798.012	389.28
798.192	305.32
798.373	297.13
798.553	227.5
798.733	319.65
798.913	284.84
799.093	245.93
799.274	311.46
799.454	217.26
799.634	323.75
799.814	385.19
799.994	293.03
800.174	293.03
800.354	274.6
800.534	323.75
800.714	313.51
800.894	260.26
801.074	157.86
801.254	319.65
801.434	282.79
801.614	262.31
801.794	247.97
801.974	776.35
802.154	243.88
802.334	276.65
802.514	155.82
802.693	182.44
802.873	338.09
803.053	243.88
803.233	235.69
803.413	198.82
803.592	207.02
803.772	329.89
803.952	239.78
804.131	145.58
804.311	295.08
804.491	256.17
804.67	260.26
804.85	149.67
805.03	256.17
805.209	229.54
805.389	172.2
805.568	284.84
805.748	161.96
805.928	235.69
806.107	221.35
806.287	170.15
806.466	121
806.646	182.44
806.825	151.72
807.004	272.55
807.184	190.63
807.363	241.83
807.543	262.31
807.722	297.13
807.901	180.39
808.081	166.06
808.26	135.34
808.439	180.39
808.619	252.07
808.798	200.87
808.977	182.44
809.156	200.87
809.336	272.55
809.515	178.34
809.694	139.43
809.873	227.5
810.052	268.45
810.231	256.17
810.411	209.06
810.59	145.58
810.769	137.38
810.948	215.21
811.127	121
811.306	174.25
811.485	170.15
811.664	170.15
811.843	188.58
812.022	256.17
812.201	178.34
812.38	258.21
812.559	170.15
812.737	196.78
812.916	98.47
813.095	190.63
813.274	188.58
813.453	131.24
813.632	127.14
813.811	172.2
813.989	215.21
814.168	215.21
814.347	129.19
814.526	252.07
814.704	207.02
814.883	196.78
815.062	166.06
815.24	172.2
815.419	116.9
815.598	75.95
815.776	63.66
815.955	186.54
816.133	190.63
816.312	116.9
816.49	137.38
816.669	192.68
816.847	198.82
817.026	200.87
817.204	90.28
817.383	172.2
817.561	71.85
817.74	168.1
817.918	135.34
818.097	131.24
818.275	123.05
818.453	145.58
818.632	125.1
818.81	149.67
818.988	166.06
819.167	125.1
819.345	129.19
819.523	98.47
819.701	94.38
819.879	84.14
820.058	112.81
820.236	116.9
820.414	121
820.592	106.67
820.77	88.23
820.948	84.14
821.127	116.9
821.305	141.48
821.483	121
821.661	153.77
821.839	137.38
822.017	112.81
822.195	92.33
822.373	180.39
822.551	94.38
822.729	114.86
822.907	200.87
823.085	147.62
823.262	88.23
823.44	53.42
823.618	57.51
823.796	161.96
823.974	143.53
824.152	75.95
824.329	129.19
824.507	102.57
824.685	153.77
824.863	125.1
825.04	108.71
825.218	159.91
825.396	106.67
825.574	135.34
825.751	129.19
825.929	88.23
826.107	84.14
826.284	61.61
826.462	139.43
826.639	108.71
826.817	100.52
826.994	118.95
827.172	14.51
827.349	192.68
827.527	88.23
827.704	86.19
827.882	75.95
828.059	114.86
828.237	-22.36
828.414	112.81
828.591	-8.02
828.769	84.14
828.946	129.19
829.124	125.1
829.301	102.57
829.478	41.13
829.655	133.29
829.833	96.43
830.01	51.37
830.187	118.95
830.364	18.6
830.542	104.62
830.719	71.85
830.896	149.67
831.073	84.14
831.25	88.23
831.427	67.75
831.604	114.86
831.782	-5.97
831.959	86.19
832.136	26.79
832.313	55.47
832.49	108.71
832.667	39.08
832.844	51.37
833.021	112.81
833.198	53.42
833.374	123.05
833.551	75.95
833.728	96.43
833.905	75.95
834.082	20.65
834.259	47.27
834.436	88.23
834.612	100.52
834.789	82.09
834.966	123.05
835.143	49.32
835.319	90.28
835.496	106.67
835.673	55.47
835.85	96.43
836.026	45.23
836.203	133.29
836.38	43.18
836.556	-1.88
836.733	22.7
836.909	86.19
837.086	104.62
837.262	84.14
837.439	67.75
837.616	55.47
837.792	63.66
837.968	61.61
838.145	96.43
838.321	0.17
838.498	96.43
838.674	69.8
838.851	-14.17
839.027	6.31
839.203	98.47
839.38	98.47
839.556	12.46
839.732	110.76
839.909	41.13
840.085	37.03
840.261	-10.07
840.437	39.08
840.614	34.99
840.79	131.24
840.966	-51.03
841.142	30.89
841.318	6.31
841.494	63.66
841.671	-5.97
841.847	51.37
842.023	24.75
842.199	65.71
842.375	51.37
842.551	16.55
842.727	-16.21
842.903	129.19
843.079	30.89
843.255	65.71
843.431	49.32
843.607	75.95
843.783	49.32
843.959	47.27
844.134	-30.55
844.31	100.52
844.486	63.66
844.662	0.17
844.838	80.04
845.013	16.55
845.189	24.75
845.365	59.56
845.541	71.85
845.716	53.42
845.892	96.43
846.068	88.23
846.244	59.56
846.419	71.85
846.595	26.79
846.77	10.41
846.946	88.23
847.122	-10.07
847.297	10.41
847.473	77.99
847.648	24.75
847.824	24.75
847.999	-51.03
848.175	18.6
848.35	4.27
848.526	10.41
848.701	106.67
848.876	118.95
849.052	73.9
849.227	94.38
849.403	67.75
849.578	98.47
849.753	63.66
849.929	30.89
850.104	-42.84
850.279	45.23
850.454	26.79
850.63	112.81
850.805	51.37
850.98	2.22
851.155	47.27
851.33	26.79
851.505	-32.6
851.681	110.76
851.856	34.99
852.031	55.47
852.206	-5.97
852.381	37.03
852.556	49.32
852.731	18.6
852.906	71.85
853.081	123.05
853.256	18.6
853.431	45.23
853.606	6.31
853.781	43.18
853.956	-5.97
854.131	30.89
854.305	-3.93
854.48	53.42
854.655	-10.07
854.83	26.79
855.005	-38.74
855.18	24.75
855.354	-75.6
855.529	-3.93
855.704	12.46
855.879	47.27
856.053	53.42
856.228	63.66
856.403	-67.41
856.577	63.66
856.752	-46.93
856.926	26.79
857.101	-3.93
857.276	-28.5
857.45	-3.93
857.625	80.04
857.799	82.09
857.974	49.32
858.148	0.17
858.323	20.65
858.497	28.84
858.672	-16.21
858.846	-3.93
859.02	2.22
859.195	-91.99
859.369	24.75
859.543	16.55
859.718	-10.07
859.892	14.51
860.066	12.46
860.241	43.18
860.415	-36.69
860.589	8.36
860.763	6.31
860.938	-22.36
861.112	-30.55
861.286	-1.88
861.46	53.42
861.634	65.71
861.808	-8.02
861.982	34.99
862.157	-32.6
862.331	12.46
862.505	-38.74
862.679	-81.75
862.853	-44.88
863.027	-8.02
863.201	63.66
863.375	-3.93
863.549	-26.45
863.722	45.23
863.896	16.55
864.07	-46.93
864.244	-16.21
864.418	22.7
864.592	-1.88
864.766	59.56
864.939	-1.88
865.113	-51.03
865.287	84.14
865.461	-10.07
865.634	-16.21
865.808	-18.26
865.982	-12.12
866.156	51.37
866.329	-16.21
866.503	61.61
866.676	8.36
866.85	-16.21
867.024	-26.45
867.197	39.08
867.371	14.51
867.544	12.46
867.718	43.18
867.891	14.51
868.065	-42.84
868.238	-20.31
868.412	67.75
868.585	6.31
868.759	-46.93
868.932	22.7
869.105	-18.26
869.279	8.36
869.452	65.71
869.625	-14.17
869.799	-32.6
869.972	-38.74
870.145	14.51
870.319	67.75
870.492	43.18
870.665	0.17
870.838	55.47
871.011	-34.64
871.185	-1.88
871.358	-8.02
871.531	30.89
871.704	24.75
871.877	16.55
872.05	-3.93
872.223	-5.97
872.396	71.85
872.569	-20.31
872.742	-42.84
872.915	22.7
873.088	-16.21
873.261	-18.26
873.434	2.22
873.607	-63.32
873.78	18.6
873.953	-28.5
874.126	-12.12
874.299	102.57
874.471	-10.07
874.644	4.27
874.817	18.6
874.99	8.36
875.163	-3.93
875.335	-10.07
875.508	55.47
875.681	22.7
875.853	-40.79
876.026	-40.79
876.199	-14.17
876.371	-53.08
876.544	-38.74
876.717	125.1
876.889	-16.21
877.062	65.71
877.234	-22.36
877.407	43.18
877.579	-32.6
877.752	-5.97
877.924	4.27
878.097	-44.88
878.269	22.7
878.442	-48.98
878.614	24.75
878.786	-26.45
878.959	22.7
879.131	6.31
879.303	-42.84
879.476	20.65
879.648	-14.17
879.82	8.36
879.993	-24.4
880.165	-67.41
880.337	65.71
880.509	-46.93
880.681	-38.74
880.854	47.27
881.026	8.36
881.198	32.94
881.37	8.36
881.542	12.46
881.714	-36.69
881.886	-20.31
882.058	28.84
882.23	-5.97
882.402	12.46
882.574	16.55
882.746	-16.21
882.918	8.36
883.09	-16.21
883.262	43.18
883.434	-5.97
883.606	43.18
883.778	-67.41
883.95	-12.12
884.122	6.31
884.293	6.31
884.465	14.51
884.637	6.31
884.809	-26.45
884.98	14.51
885.152	-30.55
885.324	6.31
885.496	-98.13
885.667	-77.65
885.839	57.51
886.011	28.84
886.182	8.36
886.354	32.94
886.525	22.7
886.697	-75.6
886.869	-18.26
887.04	-10.07
887.212	-5.97
887.383	65.71
887.555	30.89
887.726	61.61
887.897	-18.26
888.069	41.13
888.24	43.18
888.412	-16.21
888.583	-36.69
888.754	96.43
888.926	-55.12
889.097	-65.36
889.268	-79.7
889.44	14.51
889.611	-89.94
889.782	-16.21
889.953	-34.64
890.125	32.94
890.296	24.75
890.467	26.79
890.638	26.79
890.809	-32.6
890.98	24.75
891.151	28.84
891.323	-28.5
891.494	-3.93
891.665	-75.6
891.836	-38.74
892.007	-30.55
892.178	-22.36
892.349	-10.07
892.52	30.89
892.691	4.27
892.862	-1.88
893.032	-18.26
893.203	22.7
893.374	12.46
893.545	-40.79
893.716	2.22
893.887	-18.26
894.057	-22.36
894.228	-40.79
894.399	0.17
894.57	16.55
894.74	-46.93
894.911	80.04
895.082	-5.97
895.253	-67.41
895.423	82.09
895.594	-91.99
895.764	73.9
895.935	-30.55
896.106	8.36
896.276	59.56
896.447	-16.21
896.617	-73.56
896.788	-48.98
896.958	-10.07
897.129	-46.93
897.299	-38.74
897.47	75.95
897.64	2.22
897.81	-26.45
897.981	-30.55
898.151	-12.12
898.322	16.55
898.492	-30.55
898.662	-14.17
898.832	6.31
899.003	-48.98
899.173	-24.4
899.343	-38.74
899.513	-26.45
