Data from USB4F104151__158__10-27-09-262.txt Node

Date: Wed Mar 12 10:27:09 EDT 2025
User: louis
Spectrometer: USB4F10415
Trigger mode: 4
Integration Time (sec): 3.000000E-2
Scans to average: 1
Electric dark correction enabled: true
Nonlinearity correction enabled: false
Boxcar width: 0
XAxis mode: Wavelengths
Number of Pixels in Spectrum: 3648
>>>>>Begin Spectral Data<<<<<
178.204	-112.98
178.424	-112.98
178.644	-112.98
178.864	-147.8
179.084	-80.21
179.304	-51.54
179.524	7.85
179.744	-65.88
179.964	59.05
180.184	30.38
180.404	32.43
180.624	-16.73
180.844	-24.92
181.064	-10.58
181.283	48.81
181.503	11.95
181.723	-20.82
181.943	-49.49
182.163	71.34
182.383	57
182.602	46.76
182.822	24.23
183.042	9.9
183.262	-2.39
183.482	-0.34
183.701	-37.2
183.921	50.86
184.141	1.71
184.361	95.91
184.58	-6.49
184.8	-22.87
185.02	46.76
185.239	91.82
185.459	5.8
185.679	38.57
185.898	28.33
186.118	22.19
186.338	38.57
186.557	9.9
186.777	-10.58
186.997	-16.73
187.216	-2.39
187.436	65.19
187.655	30.38
187.875	42.67
188.095	-47.44
188.314	83.63
188.534	36.52
188.753	-10.58
188.973	65.19
189.192	69.29
189.412	32.43
189.631	-14.68
189.851	26.28
190.07	40.62
190.29	42.67
190.509	36.52
190.729	20.14
190.948	79.53
191.168	169.64
191.387	71.34
191.607	9.9
191.826	46.76
192.045	-14.68
192.265	-14.68
192.484	-14.68
192.704	-16.73
192.923	40.62
193.142	149.16
193.362	91.82
193.581	52.91
193.8	52.91
194.02	67.24
194.239	-47.44
194.458	122.54
194.678	57
194.897	40.62
195.116	7.85
195.335	38.57
195.555	-8.53
195.774	48.81
195.993	52.91
196.212	-14.68
196.432	13.99
196.651	18.09
196.87	22.19
197.089	65.19
197.308	120.49
197.528	93.87
197.747	34.47
197.966	22.19
198.185	32.43
198.404	5.8
198.623	34.47
198.842	89.77
199.062	48.81
199.281	7.85
199.5	54.95
199.719	95.91
199.938	57
200.157	89.77
200.376	24.23
200.595	-18.77
200.814	-59.73
201.033	-12.63
201.252	26.28
201.471	30.38
201.69	75.43
201.909	9.9
202.128	26.28
202.347	50.86
202.566	16.04
202.785	-39.25
203.004	7.85
203.223	102.06
203.442	-10.58
203.661	67.24
203.879	-18.77
204.098	67.24
204.317	-16.73
204.536	63.15
204.755	48.81
204.974	116.39
205.193	57
205.411	40.62
205.63	48.81
205.849	1.71
206.068	91.82
206.287	46.76
206.505	126.63
206.724	104.11
206.943	22.19
207.162	-16.73
207.381	104.11
207.599	16.04
207.818	100.01
208.037	89.77
208.255	7.85
208.474	100.01
208.693	69.29
208.911	1.71
209.13	20.14
209.349	42.67
209.567	36.52
209.786	22.19
210.005	114.34
210.223	48.81
210.442	-12.63
210.661	22.19
210.879	13.99
211.098	40.62
211.316	24.23
211.535	61.1
211.753	40.62
211.972	-22.87
212.191	63.15
212.409	79.53
212.628	-51.54
212.846	24.23
213.065	52.91
213.283	97.96
213.502	32.43
213.72	38.57
213.938	18.09
214.157	65.19
214.375	26.28
214.594	-0.34
214.812	32.43
215.031	-65.88
215.249	-8.53
215.467	5.8
215.686	40.62
215.904	91.82
216.122	9.9
216.341	44.71
216.559	26.28
216.778	52.91
216.996	108.2
217.214	36.52
217.432	-14.68
217.651	73.39
217.869	30.38
218.087	9.9
218.306	-16.73
218.524	104.11
218.742	48.81
218.96	81.58
219.179	44.71
219.397	18.09
219.615	108.2
219.833	79.53
220.051	63.15
220.27	24.23
220.488	149.16
220.706	36.52
220.924	138.92
221.142	30.38
221.36	71.34
221.578	106.15
221.796	26.28
222.015	40.62
222.233	28.33
222.451	40.62
222.669	-31.06
222.887	5.8
223.105	52.91
223.323	48.81
223.541	-8.53
223.759	40.62
223.977	63.15
224.195	71.34
224.413	32.43
224.631	9.9
224.849	-14.68
225.067	93.87
225.285	-24.92
225.503	-14.68
225.721	1.71
225.939	1.71
226.157	48.81
226.375	114.34
226.592	34.47
226.81	5.8
227.028	28.33
227.246	108.2
227.464	18.09
227.682	65.19
227.9	46.76
228.117	91.82
228.335	-14.68
228.553	5.8
228.771	-2.39
228.989	126.63
229.206	57
229.424	61.1
229.642	24.23
229.86	50.86
230.077	54.95
230.295	42.67
230.513	79.53
230.731	36.52
230.948	104.11
231.166	112.3
231.384	30.38
231.601	57
231.819	85.67
232.037	44.71
232.254	52.91
232.472	-8.53
232.689	-22.87
232.907	-37.2
233.125	38.57
233.342	67.24
233.56	54.95
233.777	30.38
233.995	-35.16
234.213	145.06
234.43	63.15
234.648	24.23
234.865	-14.68
235.083	36.52
235.3	61.1
235.518	95.91
235.735	97.96
235.953	67.24
236.17	-31.06
236.388	30.38
236.605	38.57
236.822	85.67
237.04	118.44
237.257	34.47
237.475	32.43
237.692	32.43
237.909	24.23
238.127	32.43
238.344	48.81
238.562	5.8
238.779	40.62
238.996	-4.44
239.214	20.14
239.431	59.05
239.648	-0.34
239.865	89.77
240.083	54.95
240.3	138.92
240.517	7.85
240.735	57
240.952	97.96
241.169	50.86
241.386	38.57
241.603	3.75
241.821	50.86
242.038	122.54
242.255	120.49
242.472	-4.44
242.689	59.05
242.907	134.82
243.124	-2.39
243.341	46.76
243.558	28.33
243.775	16.04
243.992	34.47
244.209	69.29
244.426	69.29
244.643	40.62
244.86	26.28
245.078	9.9
245.295	-55.64
245.512	116.39
245.729	30.38
245.946	73.39
246.163	59.05
246.38	79.53
246.597	30.38
246.814	30.38
247.031	112.3
247.248	13.99
247.464	24.23
247.681	57
247.898	-14.68
248.115	57
248.332	46.76
248.549	52.91
248.766	50.86
248.983	69.29
249.2	-22.87
249.417	40.62
249.633	-12.63
249.85	26.28
250.067	7.85
250.284	34.47
250.501	32.43
250.717	9.9
250.934	9.9
251.151	71.34
251.368	42.67
251.585	71.34
251.801	7.85
252.018	-31.06
252.235	106.15
252.451	-29.01
252.668	-31.06
252.885	67.24
253.102	9.9
253.318	40.62
253.535	11.95
253.752	9.9
253.968	-8.53
254.185	42.67
254.401	-29.01
254.618	79.53
254.835	-6.49
255.051	79.53
255.268	40.62
255.484	46.76
255.701	151.21
255.917	108.2
256.134	-10.58
256.351	38.57
256.567	93.87
256.784	-33.11
257	-6.49
257.217	42.67
257.433	18.09
257.65	73.39
257.866	59.05
258.082	3.75
258.299	1.71
258.515	81.58
258.732	100.01
258.948	-24.92
259.165	-35.16
259.381	97.96
259.597	18.09
259.814	59.05
260.03	32.43
260.246	108.2
260.463	-12.63
260.679	-24.92
260.895	30.38
261.112	50.86
261.328	-20.82
261.544	93.87
261.761	75.43
261.977	46.76
262.193	-22.87
262.409	100.01
262.626	-16.73
262.842	134.82
263.058	24.23
263.274	13.99
263.49	59.05
263.707	34.47
263.923	1.71
264.139	54.95
264.355	73.39
264.571	67.24
264.787	59.05
265.004	91.82
265.22	50.86
265.436	7.85
265.652	65.19
265.868	16.04
266.084	-35.16
266.3	34.47
266.516	7.85
266.732	20.14
266.948	30.38
267.164	59.05
267.38	44.71
267.596	69.29
267.812	116.39
268.028	-2.39
268.244	-6.49
268.46	124.58
268.676	18.09
268.892	97.96
269.108	20.14
269.324	9.9
269.54	-55.64
269.756	75.43
269.972	40.62
270.188	26.28
270.403	22.19
270.619	1.71
270.835	22.19
271.051	63.15
271.267	11.95
271.483	67.24
271.698	24.23
271.914	63.15
272.13	65.19
272.346	20.14
272.562	-45.4
272.777	59.05
272.993	1.71
273.209	75.43
273.425	38.57
273.64	-31.06
273.856	71.34
274.072	20.14
274.287	28.33
274.503	67.24
274.719	77.48
274.934	18.09
275.15	-8.53
275.366	57
275.581	57
275.797	40.62
276.012	-0.34
276.228	26.28
276.444	75.43
276.659	69.29
276.875	-18.77
277.09	69.29
277.306	79.53
277.521	81.58
277.737	79.53
277.952	57
278.168	110.25
278.383	-39.25
278.599	-29.01
278.814	73.39
279.03	132.78
279.245	9.9
279.461	18.09
279.676	104.11
279.892	3.75
280.107	87.72
280.322	-10.58
280.538	16.04
280.753	-59.73
280.969	-57.68
281.184	57
281.399	110.25
281.615	79.53
281.83	63.15
282.045	38.57
282.26	26.28
282.476	18.09
282.691	69.29
282.906	-22.87
283.122	50.86
283.337	87.72
283.552	54.95
283.767	30.38
283.983	38.57
284.198	-16.73
284.413	24.23
284.628	67.24
284.843	24.23
285.058	18.09
285.274	-6.49
285.489	11.95
285.704	67.24
285.919	48.81
286.134	50.86
286.349	85.67
286.564	13.99
286.779	71.34
286.995	100.01
287.21	9.9
287.425	110.25
287.64	34.47
287.855	93.87
288.07	-18.77
288.285	32.43
288.5	73.39
288.715	85.67
288.93	-12.63
289.145	7.85
289.36	89.77
289.575	50.86
289.79	128.68
290.004	71.34
290.219	1.71
290.434	22.19
290.649	100.01
290.864	50.86
291.079	36.52
291.294	22.19
291.509	75.43
291.724	32.43
291.938	-31.06
292.153	48.81
292.368	87.72
292.583	97.96
292.798	77.48
293.012	50.86
293.227	71.34
293.442	81.58
293.657	34.47
293.871	91.82
294.086	83.63
294.301	59.05
294.516	9.9
294.73	93.87
294.945	9.9
295.16	11.95
295.374	59.05
295.589	91.82
295.804	28.33
296.018	91.82
296.233	52.91
296.447	-6.49
296.662	57
296.877	79.53
297.091	18.09
297.306	57
297.52	-22.87
297.735	59.05
297.949	16.04
298.164	87.72
298.378	128.68
298.593	-4.44
298.807	30.38
299.022	110.25
299.236	34.47
299.451	18.09
299.665	91.82
299.88	83.63
300.094	71.34
300.309	59.05
300.523	32.43
300.737	97.96
300.952	91.82
301.166	73.39
301.381	5.8
301.595	26.28
301.809	-26.96
302.024	34.47
302.238	-14.68
302.452	-6.49
302.667	13.99
302.881	9.9
303.095	67.24
303.309	-26.96
303.524	24.23
303.738	46.76
303.952	16.04
304.166	50.86
304.381	-43.35
304.595	34.47
304.809	-2.39
305.023	57
305.237	26.28
305.452	102.06
305.666	73.39
305.88	32.43
306.094	48.81
306.308	89.77
306.522	87.72
306.736	87.72
306.95	26.28
307.164	24.23
307.379	20.14
307.593	192.17
307.807	40.62
308.021	79.53
308.235	42.67
308.449	-18.77
308.663	106.15
308.877	95.91
309.091	42.67
309.305	91.82
309.519	-6.49
309.733	20.14
309.947	-18.77
310.161	54.95
310.374	106.15
310.588	28.33
310.802	36.52
311.016	9.9
311.23	40.62
311.444	18.09
311.658	52.91
311.872	-18.77
312.085	71.34
312.299	32.43
312.513	87.72
312.727	24.23
312.941	22.19
313.154	104.11
313.368	1.71
313.582	71.34
313.796	89.77
314.009	32.43
314.223	67.24
314.437	-24.92
314.651	42.67
314.864	28.33
315.078	20.14
315.292	104.11
315.505	93.87
315.719	24.23
315.933	63.15
316.146	-16.73
316.36	18.09
316.573	130.73
316.787	75.43
317.001	122.54
317.214	57
317.428	83.63
317.641	30.38
317.855	69.29
318.068	-2.39
318.282	89.77
318.495	69.29
318.709	100.01
318.922	165.54
319.136	9.9
319.349	42.67
319.563	93.87
319.776	89.77
319.99	81.58
320.203	38.57
320.417	89.77
320.63	-8.53
320.843	48.81
321.057	69.29
321.27	67.24
321.483	124.58
321.697	102.06
321.91	42.67
322.124	52.91
322.337	85.67
322.55	67.24
322.763	13.99
322.977	-43.35
323.19	75.43
323.403	61.1
323.617	52.91
323.83	79.53
324.043	20.14
324.256	30.38
324.469	-35.16
324.683	79.53
324.896	63.15
325.109	65.19
325.322	7.85
325.535	-10.58
325.748	22.19
325.962	26.28
326.175	34.47
326.388	69.29
326.601	97.96
326.814	-6.49
327.027	3.75
327.24	126.63
327.453	-12.63
327.666	112.3
327.879	73.39
328.092	48.81
328.305	65.19
328.518	95.91
328.731	13.99
328.944	44.71
329.157	48.81
329.37	28.33
329.583	73.39
329.796	87.72
330.009	32.43
330.222	91.82
330.435	63.15
330.648	48.81
330.861	46.76
331.073	7.85
331.286	87.72
331.499	5.8
331.712	79.53
331.925	57
332.138	44.71
332.35	34.47
332.563	9.9
332.776	147.11
332.989	48.81
333.202	54.95
333.414	52.91
333.627	5.8
333.84	18.09
334.053	110.25
334.265	85.67
334.478	-18.77
334.691	36.52
334.903	1.71
335.116	124.58
335.329	46.76
335.541	-26.96
335.754	100.01
335.966	20.14
336.179	46.76
336.392	79.53
336.604	-31.06
336.817	-2.39
337.029	83.63
337.242	69.29
337.454	42.67
337.667	32.43
337.88	32.43
338.092	97.96
338.305	34.47
338.517	52.91
338.729	42.67
338.942	67.24
339.154	67.24
339.367	1.71
339.579	46.76
339.792	24.23
340.004	63.15
340.217	91.82
340.429	57
340.641	7.85
340.854	67.24
341.066	20.14
341.278	83.63
341.491	153.26
341.703	83.63
341.915	73.39
342.128	93.87
342.34	30.38
342.552	26.28
342.764	48.81
342.977	34.47
343.189	116.39
343.401	87.72
343.613	-63.83
343.826	52.91
344.038	26.28
344.25	40.62
344.462	20.14
344.674	9.9
344.886	71.34
345.099	81.58
345.311	91.82
345.523	54.95
345.735	30.38
345.947	52.91
346.159	20.14
346.371	73.39
346.583	18.09
346.795	69.29
347.007	48.81
347.219	50.86
347.431	-22.87
347.643	79.53
347.855	50.86
348.067	149.16
348.279	59.05
348.491	-2.39
348.703	108.2
348.915	112.3
349.127	48.81
349.339	50.86
349.551	71.34
349.763	-35.16
349.975	79.53
350.187	83.63
350.399	95.91
350.61	110.25
350.822	34.47
351.034	118.44
351.246	57
351.458	83.63
351.669	40.62
351.881	100.01
352.093	83.63
352.305	67.24
352.517	40.62
352.728	71.34
352.94	67.24
353.152	71.34
353.363	83.63
353.575	30.38
353.787	52.91
353.999	32.43
354.21	87.72
354.422	63.15
354.633	91.82
354.845	-18.77
355.057	63.15
355.268	59.05
355.48	46.76
355.692	63.15
355.903	1.71
356.115	50.86
356.326	5.8
356.538	34.47
356.749	122.54
356.961	75.43
357.172	71.34
357.384	-0.34
357.595	114.34
357.807	40.62
358.018	59.05
358.23	-22.87
358.441	50.86
358.653	179.88
358.864	22.19
359.075	18.09
359.287	44.71
359.498	91.82
359.709	65.19
359.921	73.39
360.132	87.72
360.344	69.29
360.555	136.87
360.766	16.04
360.977	89.77
361.189	44.71
361.4	5.8
361.611	85.67
361.823	50.86
362.034	40.62
362.245	89.77
362.456	50.86
362.667	52.91
362.879	-12.63
363.09	9.9
363.301	24.23
363.512	-6.49
363.723	67.24
363.935	59.05
364.146	7.85
364.357	120.49
364.568	59.05
364.779	20.14
364.99	114.34
365.201	81.58
365.412	97.96
365.623	18.09
365.834	69.29
366.045	-65.88
366.256	93.87
366.467	18.09
366.678	81.58
366.889	42.67
367.1	30.38
367.311	13.99
367.522	22.19
367.733	50.86
367.944	61.1
368.155	32.43
368.366	102.06
368.577	75.43
368.788	83.63
368.999	46.76
369.209	36.52
369.42	-2.39
369.631	63.15
369.842	100.01
370.053	71.34
370.264	124.58
370.474	-16.73
370.685	63.15
370.896	63.15
371.107	75.43
371.317	3.75
371.528	16.04
371.739	143.02
371.95	63.15
372.16	34.47
372.371	65.19
372.582	30.38
372.792	69.29
373.003	57
373.214	73.39
373.424	93.87
373.635	24.23
373.846	110.25
374.056	75.43
374.267	124.58
374.477	63.15
374.688	11.95
374.898	32.43
375.109	75.43
375.319	75.43
375.53	34.47
375.74	40.62
375.951	108.2
376.161	85.67
376.372	54.95
376.582	65.19
376.793	61.1
377.003	44.71
377.214	95.91
377.424	100.01
377.635	38.57
377.845	42.67
378.055	57
378.266	91.82
378.476	67.24
378.686	85.67
378.897	69.29
379.107	40.62
379.317	97.96
379.528	34.47
379.738	102.06
379.948	38.57
380.158	46.76
380.369	-6.49
380.579	59.05
380.789	100.01
380.999	89.77
381.21	143.02
381.42	138.92
381.63	-18.77
381.84	95.91
382.05	40.62
382.261	122.54
382.471	57
382.681	-24.92
382.891	132.78
383.101	126.63
383.311	54.95
383.521	85.67
383.731	50.86
383.941	32.43
384.151	93.87
384.361	73.39
384.571	97.96
384.781	132.78
384.991	46.76
385.201	126.63
385.411	18.09
385.621	16.04
385.831	91.82
386.041	40.62
386.251	7.85
386.461	138.92
386.671	57
386.881	79.53
387.091	79.53
387.301	75.43
387.511	3.75
387.72	65.19
387.93	67.24
388.14	-41.3
388.35	59.05
388.56	85.67
388.769	153.26
388.979	50.86
389.189	83.63
389.399	104.11
389.609	108.2
389.818	108.2
390.028	57
390.238	124.58
390.447	114.34
390.657	40.62
390.867	42.67
391.076	16.04
391.286	79.53
391.496	116.39
391.705	89.77
391.915	149.16
392.125	67.24
392.334	20.14
392.544	149.16
392.753	89.77
392.963	59.05
393.172	75.43
393.382	67.24
393.591	134.82
393.801	93.87
394.01	91.82
394.22	91.82
394.429	147.11
394.639	57
394.848	112.3
395.058	22.19
395.267	77.48
395.477	128.68
395.686	145.06
395.895	169.64
396.105	124.58
396.314	65.19
396.524	116.39
396.733	112.3
396.942	165.54
397.152	93.87
397.361	85.67
397.57	122.54
397.78	132.78
397.989	79.53
398.198	95.91
398.407	116.39
398.617	65.19
398.826	112.3
399.035	147.11
399.244	173.74
399.453	134.82
399.663	233.13
399.872	118.44
400.081	116.39
400.29	110.25
400.499	40.62
400.708	175.78
400.917	149.16
401.127	122.54
401.336	183.98
401.545	167.59
401.754	116.39
401.963	155.3
402.172	108.2
402.381	87.72
402.59	169.64
402.799	83.63
403.008	190.12
403.217	212.65
403.426	188.07
403.635	165.54
403.844	83.63
404.053	206.5
404.262	132.78
404.471	181.93
404.68	147.11
404.888	126.63
405.097	112.3
405.306	112.3
405.515	190.12
405.724	192.17
405.933	243.37
406.142	132.78
406.35	261.8
406.559	143.02
406.768	177.83
406.977	181.93
407.185	222.89
407.394	208.55
407.603	132.78
407.812	206.5
408.02	313
408.229	208.55
408.438	206.5
408.646	167.59
408.855	292.52
409.064	321.19
409.272	341.67
409.481	335.53
409.69	310.95
409.898	341.67
410.107	282.28
410.315	349.86
410.524	358.05
410.733	302.76
410.941	392.87
411.15	413.35
411.358	421.54
411.567	386.72
411.775	411.3
411.984	439.97
412.192	480.93
412.401	427.68
412.609	564.9
412.818	519.84
413.026	501.41
413.234	552.61
413.443	626.34
413.651	536.23
413.86	478.88
414.068	671.39
414.276	741.02
414.485	630.43
414.693	704.16
414.901	724.64
415.11	741.02
415.318	749.22
415.526	835.23
415.734	759.46
415.943	886.43
416.151	919.2
416.359	896.67
416.567	970.4
416.776	984.73
416.984	1042.07
417.192	988.83
417.4	992.92
417.608	1037.98
417.817	1087.13
418.025	1097.37
418.233	1136.28
418.441	1246.87
418.649	1306.26
418.857	1349.27
419.065	1275.54
419.273	1230.49
419.481	1423
419.689	1547.92
419.897	1584.79
420.105	1576.59
420.313	1666.71
420.521	1717.9
420.729	1771.15
420.937	1715.86
421.145	1730.19
421.353	1943.18
421.561	1996.43
421.769	2025.1
421.977	2086.54
422.185	2107.02
422.393	2197.13
422.601	2338.44
422.809	2395.78
423.017	2442.89
423.224	2541.19
423.432	2582.15
423.64	2588.29
423.848	2782.85
424.056	2698.88
424.263	2950.78
424.471	3057.28
424.679	3139.19
424.887	3266.17
425.094	3339.9
425.302	3255.93
425.51	3434.1
425.718	3536.5
425.925	3528.31
426.133	3698.29
426.341	3933.81
426.548	4077.16
426.756	4040.3
426.964	4040.3
427.171	4388.46
427.379	4591.2
427.586	4458.09
427.794	4619.88
428.001	4816.48
428.209	4920.93
428.417	5080.67
428.624	5312.09
428.832	5246.55
429.039	5480.02
429.247	5389.91
429.454	5965.39
429.662	6274.63
429.869	5801.55
430.076	6278.73
430.284	5965.39
430.491	6411.85
430.699	6657.61
430.906	6800.96
431.114	6966.85
431.321	6850.11
431.528	7196.22
431.736	7521.85
431.943	7980.59
432.15	7790.13
432.358	7958.07
432.565	8142.38
432.772	8162.86
432.979	8631.85
433.187	8744.49
433.394	8646.18
433.601	9268.77
433.808	9571.86
434.016	9270.81
434.223	9747.99
434.43	10343.95
434.637	10190.35
434.844	10630.66
435.052	10808.84
435.259	10849.8
435.466	11038.21
435.673	10790.41
435.88	11499
436.087	12215.79
436.294	12211.7
436.501	11982.32
436.708	12107.25
436.915	12465.64
437.122	13108.71
437.329	13063.65
437.537	13657.56
437.743	13778.39
437.95	13755.86
438.157	14435.79
438.364	14734.79
438.571	14370.26
438.778	14884.3
438.985	16231.86
439.192	15353.28
439.399	16022.97
439.606	15699.39
439.813	16743.85
440.02	17423.78
440.227	17208.74
440.433	16965.03
440.64	17616.29
440.847	17550.75
441.054	17954.2
441.261	19019.14
441.467	18910.6
441.674	19213.7
441.881	19910.01
442.088	20131.19
442.294	20118.9
442.501	20254.07
442.708	20641.14
442.914	21630.3
443.121	22406.48
443.328	21759.33
443.534	23563.59
443.741	22666.58
443.948	22441.3
444.154	23964.99
444.361	23903.55
444.568	23717.18
444.774	24124.73
444.981	24200.51
445.187	25122.09
445.394	26318.11
445.6	25582.88
445.807	28067.07
446.013	27079.95
446.22	27350.28
446.426	28507.38
446.633	28411.13
446.839	29709.54
447.046	28017.92
447.252	29846.76
447.459	29979.87
447.665	29998.3
447.871	31233.23
448.078	32255.17
448.284	30739.67
448.491	31796.42
448.697	32734.39
448.903	33328.3
449.11	33434.8
449.316	32517.31
449.522	33488.04
449.728	33983.65
449.935	34518.17
450.141	34745.5
450.347	34915.48
450.553	33957.03
450.76	34514.08
450.966	35437.71
451.172	35525.77
451.378	35941.51
451.584	35441.81
451.791	35982.47
451.997	36097.16
452.203	36801.66
452.409	36555.9
452.615	36226.18
452.821	34956.44
453.027	34770.07
453.233	36304
453.44	34532.51
453.646	35021.97
453.852	35335.31
454.058	35998.85
454.264	34718.87
454.47	35310.74
454.676	34712.73
454.882	35714.19
455.088	32640.18
455.294	33092.79
455.5	33313.97
455.705	33551.53
455.911	32349.37
456.117	31878.34
456.323	31382.73
456.529	29607.14
456.735	31026.39
456.941	30057.7
457.147	29332.72
457.352	28644.6
457.558	28273.92
457.764	28396.79
457.97	27559.17
458.176	27405.58
458.381	27192.59
458.587	25779.49
458.793	25705.76
458.999	24591.67
459.204	26133.79
459.41	25484.58
459.616	23805.25
459.821	23899.45
460.027	23926.08
460.233	23532.87
460.438	21951.84
460.644	22461.78
460.85	21433.7
461.055	20938.09
461.261	21044.59
461.466	19821.95
461.672	18904.46
461.878	20194.68
462.083	18810.25
462.289	18574.74
462.494	18316.69
462.7	17704.35
462.905	17233.32
463.111	17634.72
463.316	17778.08
463.522	17485.22
463.727	17458.59
463.932	17436.06
464.138	17204.64
464.343	17241.51
464.549	16879.02
464.754	17391.01
464.959	17210.79
465.165	17012.14
465.37	16524.72
465.575	15822.27
465.781	16815.53
465.986	16606.64
466.191	16268.72
466.397	15744.44
466.602	15068.61
466.807	15703.48
467.012	15709.63
467.218	15558.08
467.423	15306.18
467.628	15404.48
467.833	16068.02
468.038	15500.73
468.244	15029.7
468.449	15375.81
468.654	14947.78
468.859	15044.04
469.064	14976.45
469.269	14429.65
469.474	14200.27
469.679	14532.04
469.885	14147.03
470.09	14601.68
470.295	14202.32
470.5	14001.62
470.705	14081.49
470.91	13743.58
471.115	13780.44
471.32	13845.98
471.525	13942.23
471.73	13542.88
471.935	13256.16
472.139	12936.68
472.344	13184.48
472.549	12987.88
472.754	12836.33
472.959	12623.34
473.164	12320.24
473.369	12273.14
473.574	12738.02
473.778	12494.32
473.983	12285.42
474.188	12344.81
474.393	11785.72
474.598	11828.73
474.802	11804.15
475.007	11593.21
475.212	11564.54
475.417	11302.4
475.621	11195.9
475.826	11234.82
476.031	11142.66
476.235	11070.98
476.44	11060.74
476.645	10704.39
476.849	10612.23
477.054	10716.68
477.259	10440.2
477.463	10755.59
477.668	10389
477.872	10315.28
478.077	10272.27
478.282	9747.99
478.486	10186.26
478.691	9922.07
478.895	9983.51
479.1	9874.96
479.304	9852.44
479.509	9592.34
479.713	9768.47
479.918	9690.65
480.122	9487.9
480.326	9539.1
480.531	9375.26
480.735	9328.16
480.94	9326.11
481.144	9821.72
481.348	9039.39
481.553	9401.88
481.757	9145.89
481.961	9184.8
482.166	9274.91
482.37	9328.16
482.574	9043.49
482.778	9143.84
482.983	9346.59
483.187	9098.78
483.391	9240.09
483.595	8982.05
483.8	9045.54
484.004	9045.54
484.208	9238.05
484.412	9172.51
484.616	9166.37
484.821	9276.96
485.025	8904.23
485.229	9012.77
485.433	8939.04
485.637	9121.31
485.841	8930.85
486.045	8955.43
486.249	9164.32
486.453	9121.31
486.657	9201.18
486.861	9297.44
487.065	8934.95
487.269	9088.54
487.473	8908.32
487.677	9172.51
487.881	9451.03
488.085	9092.64
488.289	9203.23
488.493	9207.33
488.697	9182.75
488.901	9315.87
489.105	9037.34
489.309	9250.33
489.512	9414.17
489.716	9444.89
489.92	9328.16
490.124	9221.66
490.328	9524.76
490.531	9211.42
490.735	9313.82
490.939	9311.77
491.143	9299.48
491.346	9203.23
491.55	9504.28
491.754	9621.02
491.958	9659.93
492.161	9692.69
492.365	9680.41
492.569	9741.85
492.772	9596.44
492.976	9762.33
493.18	9821.72
493.383	9928.21
493.587	10051.09
493.79	10182.16
493.994	9739.8
494.197	10206.73
494.401	10309.13
494.605	10188.3
494.808	10372.62
495.012	10532.36
495.215	10485.26
495.419	10616.33
495.622	10581.51
495.825	10778.12
496.029	10706.44
496.232	10954.24
496.436	11122.18
496.639	11116.03
496.843	11058.69
497.046	11304.45
497.249	11394.56
497.453	11531.77
497.656	11607.55
497.859	11685.37
498.063	11990.52
498.266	11691.51
498.469	11963.89
498.673	12062.19
498.876	12420.59
499.079	12283.38
499.282	12527.08
499.485	12619.24
499.689	12617.19
499.892	13141.47
500.095	13114.85
500.298	13553.12
500.501	13141.47
500.705	13520.35
500.908	13524.44
501.111	13682.14
501.314	14058.96
501.517	14226.9
501.72	14073.3
501.923	14294.48
502.126	14667.21
502.329	14874.06
502.532	15066.56
502.735	15119.81
502.938	15338.94
503.141	15361.47
503.344	15549.89
503.547	15685.05
503.75	15816.12
503.953	16006.58
504.156	16332.21
504.359	16401.84
504.562	16389.55
504.765	16793
504.968	17012.14
505.17	16950.7
505.373	17081.77
505.576	17515.94
505.779	17743.26
505.982	17624.48
506.185	17921.43
506.387	18265.49
506.59	18191.77
506.793	18744.72
506.996	18734.48
507.198	19314.05
507.401	19051.91
507.604	19600.77
507.807	19557.76
508.009	19621.25
508.212	19907.96
508.415	20170.1
508.617	20612.46
508.82	20782.45
509.022	20319.6
509.225	21116.26
509.428	21368.16
509.63	21470.56
509.833	21548.39
510.035	22103.39
510.238	22091.1
510.44	22256.98
510.643	22474.07
510.845	22826.32
511.048	22865.23
511.25	23182.66
511.453	23326.02
511.655	23999.8
511.858	23870.78
512.06	23979.32
512.262	24202.55
512.465	24337.72
512.667	24382.77
512.87	24735.03
513.072	25046.32
513.274	25552.16
513.477	25797.92
513.679	25986.33
513.881	26195.23
514.084	26461.46
514.286	26803.47
514.488	26443.03
514.69	27391.24
514.893	27274.51
515.095	27692.29
515.297	27677.96
515.499	27933.95
515.701	28331.26
515.904	28497.14
516.106	28593.4
516.308	29078.77
516.51	29484.26
516.712	29324.52
516.914	29611.24
517.116	29975.78
517.318	30244.06
517.52	30485.72
517.722	30469.34
517.925	31108.3
518.127	31466.7
518.329	31755.46
518.531	31597.77
518.733	32091.33
518.935	32419
519.136	32345.28
519.338	32769.21
519.54	33184.94
519.742	33332.4
519.944	33641.64
520.146	33868.97
520.348	34346.14
520.55	34397.34
520.752	34180.26
520.954	35081.36
521.155	34886.81
521.357	35515.53
521.559	35591.31
521.761	36203.65
521.963	36031.62
522.164	36136.07
522.366	36226.18
522.568	36846.71
522.77	36942.97
522.971	37891.18
523.173	37743.72
523.375	38020.2
523.576	37803.11
523.778	38059.11
523.98	38382.69
524.181	38782.04
524.383	39062.61
524.584	38696.03
524.786	39011.42
524.988	39038.04
525.189	39574.61
525.391	39963.72
525.592	40279.11
525.794	40105.03
525.995	40813.63
526.197	40154.18
526.398	40750.14
526.6	40297.54
526.801	41180.21
527.003	41165.88
527.204	41231.41
527.406	41303.09
527.607	41577.52
527.808	41817.13
528.01	41143.35
528.211	41937.96
528.412	42794.01
528.614	42267.69
528.815	42220.58
529.016	42624.03
529.218	42296.36
529.419	42454.05
529.62	42621.98
529.822	42355.75
530.023	42814.49
530.224	43031.58
530.425	43252.76
530.626	42740.77
530.828	42603.55
531.029	44071.95
531.23	43185.18
531.431	43396.12
531.632	43701.26
531.833	43742.22
532.035	43854.86
532.236	43678.74
532.437	43811.85
532.638	43838.48
532.839	43940.88
533.04	43787.28
533.241	43527.19
533.442	44293.13
533.643	44219.4
533.844	44143.63
534.045	44030.99
534.246	43758.61
534.447	43975.69
534.648	43938.83
534.849	44274.7
535.05	43871.25
535.251	44239.88
535.451	43951.12
535.652	44424.2
535.853	44141.58
536.054	44489.73
536.255	44874.75
536.456	44094.47
536.657	44590.08
536.857	44348.42
537.058	43922.44
537.259	44854.27
537.46	44389.38
537.66	44428.29
537.861	44514.31
538.062	44162.06
538.263	44575.75
538.463	44512.26
538.664	44504.07
538.865	44235.78
539.065	44674.05
539.266	44172.3
539.466	44715.01
539.667	43656.21
539.868	44792.83
540.068	43994.12
540.269	44254.22
540.469	44655.62
540.67	44190.73
540.87	44057.61
541.071	44387.33
541.271	44170.25
541.472	44346.37
541.672	44305.41
541.873	44157.96
542.073	43914.25
542.274	45059.07
542.474	44153.86
542.675	43631.63
542.875	44506.12
543.075	44344.33
543.276	43713.55
543.476	44563.46
543.676	44174.34
543.877	44043.27
544.077	44035.08
544.277	44182.54
544.478	43920.4
544.678	44319.75
544.878	44084.23
545.078	44567.55
545.279	43674.64
545.479	43967.5
545.679	44264.46
545.879	44026.89
546.079	43815.95
546.28	44133.39
546.48	43539.47
546.68	44198.92
546.88	44264.46
547.08	44409.86
547.28	44129.29
547.48	43830.29
547.68	44174.34
547.88	43510.8
548.081	44049.42
548.281	43789.33
548.481	43420.69
548.681	44141.58
548.881	43461.65
549.081	43836.43
549.28	43543.57
549.48	43858.96
549.68	44041.23
549.88	44702.72
550.08	43703.31
550.28	43750.42
550.48	43709.46
550.68	44305.41
550.88	43445.27
551.08	43435.03
551.279	43795.47
551.479	43346.97
551.679	43856.91
551.879	43805.71
552.079	43805.71
552.278	43559.95
552.478	43486.23
552.678	43670.54
552.878	44071.95
553.077	43424.79
553.277	43256.85
553.477	44100.62
553.676	43660.3
553.876	43404.31
554.076	43643.92
554.275	42761.25
554.475	42826.78
554.674	43326.49
554.874	43109.4
555.074	43080.73
555.273	43387.92
555.473	43416.6
555.672	43054.11
555.872	43271.19
556.071	43138.07
556.271	43050.01
556.47	42771.49
556.67	42769.44
556.869	42808.35
557.068	42978.33
557.268	42748.96
557.467	43117.59
557.667	42570.79
557.866	42429.48
558.065	42492.96
558.265	42282.02
558.464	42241.06
558.663	42669.09
558.863	42044.46
559.062	43082.78
559.261	41882.67
559.461	43017.24
559.66	41634.86
559.859	42167.34
560.058	41307.19
560.258	42136.62
560.457	41536.56
560.656	42437.67
560.855	41903.15
561.054	41704.49
561.253	41690.16
561.453	41847.85
561.652	41509.94
561.851	41763.89
562.05	41372.72
562.249	40944.7
562.448	41645.1
562.647	41235.51
562.846	41481.27
563.045	41036.86
563.244	40975.42
563.443	41632.82
563.642	40756.28
563.841	41159.73
564.04	40645.69
564.239	41108.54
564.438	40311.88
564.637	40551.49
564.836	40492.1
565.035	40438.85
565.234	40729.66
565.432	40039.5
565.631	40080.46
565.83	40393.79
566.029	39646.29
566.228	39818.32
566.427	39916.62
566.625	39527.5
566.824	38779.99
567.023	39603.28
567.222	39199.83
567.42	39767.12
567.619	39760.97
567.818	39085.14
568.016	39181.4
568.215	39122.01
568.414	38945.88
568.612	39222.36
568.811	38661.21
569.01	38943.83
569.208	38313.06
569.407	38677.6
569.605	38128.74
569.804	38796.38
570.002	38124.64
570.201	38341.73
570.4	38171.75
570.598	37704.81
570.797	37960.81
570.995	37776.49
571.193	37342.32
571.392	37717.1
571.59	37201.01
571.789	37053.56
571.987	37332.08
572.186	37188.72
572.384	36951.16
572.582	37483.63
572.781	37088.37
572.979	36625.53
573.177	37043.32
573.376	36516.99
573.574	36596.86
573.772	36521.09
573.971	36476.03
574.169	36170.88
574.367	36052.1
574.565	36179.07
574.763	36375.68
574.962	36117.64
575.16	35493.01
575.358	36113.54
575.556	35298.45
575.754	35925.13
575.952	35546.25
576.151	35636.36
576.349	34907.29
576.547	35304.59
576.745	35026.07
576.943	35341.46
577.141	34913.43
577.339	35140.75
577.537	34755.74
577.735	34886.81
577.933	34673.82
578.131	34708.63
578.329	34712.73
578.527	34430.11
578.725	34417.82
578.923	34446.49
579.121	34307.23
579.319	34186.4
579.516	34538.65
579.714	33750.18
579.912	33836.2
580.11	33639.59
580.308	33606.83
580.506	33856.68
580.704	33182.9
580.901	33375.41
581.099	33590.44
581.297	33516.72
581.495	33057.97
581.692	33420.46
581.89	32789.69
582.088	33281.2
582.285	32457.92
582.483	32951.48
582.681	32992.44
582.878	32822.45
583.076	32244.93
583.274	32707.77
583.471	31995.07
583.669	32302.27
583.866	31984.83
584.064	32310.46
584.262	31767.75
584.459	32271.55
584.657	31548.62
584.854	32169.15
585.052	31532.23
585.249	31677.64
585.447	31673.54
585.644	31388.88
585.841	31345.87
586.039	31487.18
586.236	30993.62
586.434	30971.09
586.631	30932.18
586.828	31386.83
587.026	30805.2
587.223	31053.01
587.42	30588.12
587.618	30923.99
587.815	30702.81
588.012	30061.79
588.21	30235.87
588.407	30104.8
588.604	30016.74
588.801	30125.28
588.999	30297.31
589.196	30043.36
589.393	29938.91
589.59	29740.26
589.787	29904.1
589.984	29695.21
590.182	29353.19
590.379	29381.87
590.576	29527.27
590.773	29719.78
590.97	28947.7
591.167	29445.35
591.364	29140.21
591.561	28970.22
591.758	28572.92
591.955	28755.19
592.152	29072.62
592.349	28716.28
592.546	28828.91
592.743	28593.4
592.94	28296.44
593.137	28511.48
593.334	28523.77
593.531	28241.15
593.727	28585.21
593.924	28065.02
594.121	27972.86
594.318	27985.15
594.515	27432.2
594.712	28062.97
594.908	27862.27
595.105	27626.76
595.302	27510.02
595.499	27442.44
595.696	27340.04
595.892	27159.82
596.089	27294.99
596.286	27206.92
596.482	27231.5
596.679	27131.15
596.876	27190.54
597.072	26809.62
597.269	26912.02
597.466	26590.48
597.662	26453.27
597.859	26684.69
598.055	26662.16
598.252	26266.91
598.448	26424.6
598.645	26152.22
598.841	26221.85
599.038	26289.43
599.234	26266.91
599.431	25750.82
599.627	25851.17
599.824	25853.22
600.02	25677.09
600.217	25543.97
600.413	25539.88
600.609	25445.67
600.806	25046.32
601.002	25482.53
601.198	25191.72
601.395	25167.15
601.591	25148.71
601.787	25042.22
601.984	24995.12
602.18	25326.89
602.376	24837.42
602.572	24634.67
602.769	24794.42
602.965	24538.42
603.161	24636.72
603.357	24468.79
603.553	24421.69
603.75	24294.71
603.946	24044.86
604.142	24069.44
604.338	23811.39
604.534	24188.22
604.73	23731.52
604.926	23752
605.122	23899.45
605.318	24032.57
605.514	23639.36
605.71	23477.57
605.906	23688.51
606.102	23631.17
606.298	23391.56
606.494	23514.44
606.69	23475.52
606.886	23070.03
607.082	22920.52
607.278	23426.37
607.474	22867.28
607.67	23020.88
607.866	22766.93
608.062	22805.84
608.257	22852.94
608.453	22748.5
608.649	23059.79
608.845	22465.88
609.041	22668.62
609.236	22752.59
609.432	22777.17
609.628	22535.51
609.824	22588.75
610.019	22515.03
610.215	22320.47
610.411	22443.35
610.606	22017.37
610.802	22095.19
610.998	22222.17
611.193	22453.59
611.389	22003.03
611.584	21849.44
611.78	21966.17
611.976	21831.01
612.171	21939.55
612.367	21751.13
612.562	21736.8
612.758	21556.58
612.953	21532
613.149	21749.09
613.344	21286.25
613.539	21767.52
613.735	21368.16
613.93	21532
614.126	21290.34
614.321	21652.83
614.517	21310.82
614.712	21151.08
614.907	20999.53
615.103	21265.77
615.298	21044.59
615.493	21435.75
615.688	21024.11
615.884	21189.99
616.079	20422
616.274	21099.88
616.47	20753.77
616.665	20964.71
616.86	20641.14
617.055	20704.62
617.25	20426.1
617.445	21038.44
617.641	20403.57
617.836	20571.5
618.031	20233.59
618.226	20346.23
618.421	20311.41
618.616	20520.31
618.811	20125.05
619.006	20503.92
619.201	19991.93
619.396	20143.48
619.591	19531.14
619.786	20139.38
619.981	19817.85
620.176	19772.8
620.371	19547.52
620.566	19748.22
620.761	19547.52
620.956	19582.34
621.151	19230.09
621.346	19299.72
621.541	18961.8
621.735	19127.69
621.93	18791.82
622.125	18875.79
622.32	18722.19
622.515	18679.18
622.709	18408.85
622.904	18322.84
623.099	18408.85
623.294	18468.24
623.488	18255.25
623.683	18376.08
623.878	17958.3
624.072	18050.46
624.267	18126.23
624.462	17679.77
624.656	17356.19
624.851	17739.16
625.046	17317.28
625.24	17257.89
625.435	17302.95
625.629	16934.31
625.824	17098.15
626.018	17065.38
626.213	16567.73
626.407	17059.24
626.602	16625.07
626.796	16735.66
626.991	16539.05
627.185	16414.13
627.38	16373.17
627.574	16272.82
627.768	16088.5
627.963	16137.65
628.157	16190.9
628.352	15906.23
628.546	15472.06
628.74	15941.05
628.935	15558.08
629.129	15930.81
629.323	15611.32
629.517	15451.58
629.712	15209.92
629.906	15189.44
630.1	14943.69
630.294	15074.76
630.489	15015.37
630.683	15214.02
630.877	14779.85
631.071	14597.58
631.265	14501.33
631.459	14491.09
631.653	14628.3
631.848	14339.54
632.042	14278.1
632.236	14368.21
632.43	14046.68
632.624	14300.62
632.818	13901.27
633.012	14233.04
633.206	13903.32
633.4	14018
633.594	13878.74
633.788	13755.86
633.982	13876.69
634.176	13690.33
634.369	13315.55
634.563	13411.81
634.757	13512.16
634.951	13622.75
635.145	13387.23
635.339	13274.59
635.533	13084.13
635.726	13127.14
635.92	12709.35
636.114	12989.92
636.308	12891.62
636.501	12750.31
636.695	12727.78
636.889	12727.78
637.083	12547.56
637.276	12514.8
637.47	12490.22
637.664	12338.67
637.857	12449.26
638.051	12213.74
638.244	12178.93
638.438	12305.9
638.632	12029.43
638.825	12006.9
639.019	11767.29
639.212	11783.67
639.406	11875.83
639.599	11865.59
639.793	11630.07
639.986	11527.67
640.18	11515.39
640.373	11427.32
640.567	11316.73
640.76	11326.97
640.954	11167.23
641.147	11200
641.34	11177.47
641.534	11050.5
641.727	10941.96
641.92	10939.91
642.114	10710.54
642.307	10843.65
642.5	10806.79
642.694	10567.18
642.887	10440.2
643.08	10534.41
643.273	10489.35
643.467	10413.58
643.66	10288.65
643.853	10452.49
644.046	10122.77
644.239	10006.03
644.432	10194.45
644.626	10092.05
644.819	9893.4
645.012	9973.27
645.205	10057.23
645.398	9795.09
645.591	9858.58
645.784	9465.37
645.977	9780.76
646.17	9733.65
646.363	9512.47
646.556	9309.72
646.749	9508.38
646.942	9598.49
647.135	9360.92
647.328	9367.07
647.521	9262.62
647.714	9328.16
647.907	9057.82
648.099	9129.5
648.292	9356.83
648.485	9147.94
648.678	8699.43
648.871	8840.74
649.064	8746.53
649.256	8980
649.449	8767.01
649.642	8701.48
649.835	8672.81
650.027	8709.67
650.22	8635.94
650.413	8379.95
650.605	8427.05
650.798	8418.86
650.991	8300.08
651.183	8357.42
651.376	8199.73
651.568	8351.28
651.761	8173.1
651.954	8334.89
652.146	8187.44
652.339	8017.46
652.531	8128.05
652.724	8054.32
652.916	7882.29
653.109	7947.83
653.301	7896.63
653.494	7849.52
653.686	7857.71
653.879	7976.5
654.071	7532.09
654.263	7847.47
654.456	7794.23
654.648	7564.86
654.84	7370.3
655.033	7530.04
655.225	7349.82
655.417	7425.59
655.61	7388.73
655.802	7478.84
655.994	7183.93
656.186	7396.92
656.379	7247.42
656.571	6979.14
656.763	7251.52
656.955	7093.82
657.148	7153.21
657.34	6979.14
657.532	6993.47
657.724	7065.15
657.916	6993.47
658.108	6958.66
658.3	6811.2
658.492	6751.81
658.684	6686.28
658.876	6843.97
659.068	6807.11
659.26	6536.77
659.452	6628.93
659.644	6555.21
659.836	6651.46
660.028	6538.82
660.22	6327.88
660.412	6514.25
660.604	6307.4
660.796	6452.81
660.988	6293.07
661.18	6276.68
661.372	6200.91
661.563	6270.54
661.755	6202.96
661.947	6309.45
662.139	6194.76
662.331	6069.84
662.522	6010.45
662.714	6057.55
662.906	5781.07
663.097	5883.47
663.289	5912.14
663.481	5852.75
663.673	5934.67
663.864	5762.64
664.056	5817.94
664.247	5758.55
664.439	5711.44
664.631	5658.2
664.822	5748.31
665.014	5594.71
665.205	5570.13
665.397	5674.58
665.588	5535.32
665.78	5465.69
665.971	5525.08
666.163	5514.84
666.354	5336.67
666.546	5445.21
666.737	5351
666.929	5387.86
667.12	5330.52
667.311	5160.54
667.503	5191.26
667.694	5279.32
667.885	5226.07
668.077	5015.13
668.268	4982.37
668.459	5058.14
668.651	5117.53
668.842	5031.52
669.033	4965.98
669.224	5019.23
669.416	5054.05
669.607	5060.19
669.798	4970.08
669.989	5004.89
670.18	4884.06
670.371	4945.5
670.563	4888.16
670.754	4814.43
670.945	4769.38
671.136	4660.84
671.327	4834.91
671.518	4755.04
671.709	4859.49
671.9	4664.93
672.091	4761.19
672.282	4736.61
672.473	4597.35
672.664	4658.79
672.855	4501.09
673.046	4556.39
673.237	4591.2
673.428	4486.76
673.619	4431.46
673.809	4433.51
674	4533.86
674.191	4427.37
674.382	4236.91
674.573	4474.47
674.764	4333.16
674.954	4392.55
675.145	4359.78
675.336	4284.01
675.527	4396.65
675.717	4363.88
675.908	4228.71
676.099	4105.84
676.289	4247.15
676.48	4310.63
676.671	3980.91
676.861	4216.43
677.052	4050.54
677.243	4120.17
677.433	4101.74
677.624	4230.76
677.814	4109.93
678.005	4111.98
678.195	4009.58
678.386	4173.42
678.576	4085.36
678.767	3946.09
678.957	4105.84
679.148	4030.06
679.338	4015.73
679.529	3876.46
679.719	3792.5
679.909	3892.85
680.1	3894.9
680.29	3980.91
680.481	3661.43
680.671	3767.92
680.861	3882.61
681.052	3741.3
681.242	3950.19
681.432	3896.94
681.622	3700.34
681.813	3759.73
682.003	3735.15
682.193	3772.02
682.383	3665.52
682.573	3808.88
682.764	3612.28
682.954	3575.41
683.144	3724.91
683.334	3587.7
683.524	3657.33
683.714	3620.47
683.904	3438.2
684.094	3491.45
684.284	3538.55
684.474	3550.84
684.664	3583.6
684.854	3612.28
685.044	3567.22
685.234	3534.45
685.424	3677.81
685.614	3540.6
685.804	3458.68
685.994	3450.49
686.184	3389.05
686.374	3387
686.564	3350.14
686.753	3317.37
686.943	3274.36
687.133	3278.46
687.323	3348.09
687.513	3378.81
687.702	3296.89
687.892	3317.37
688.082	3354.23
688.272	3380.86
688.461	3280.5
688.651	3225.21
688.841	3225.21
689.03	3178.11
689.22	3153.53
689.41	3108.48
689.599	3147.39
689.789	3114.62
689.979	3231.35
690.168	3219.07
690.358	3171.96
690.547	3188.35
690.737	3208.83
690.926	3147.39
691.116	3024.51
691.305	3096.19
691.495	3202.68
691.684	3065.47
691.874	3030.65
692.063	3083.9
692.252	2989.69
692.442	3067.52
692.631	3022.46
692.82	3018.36
693.01	3038.84
693.199	3016.32
693.388	2981.5
693.578	2889.34
693.767	2963.07
693.956	2991.74
694.146	3030.65
694.335	2954.88
694.524	2913.92
694.713	2905.73
694.902	2991.74
695.092	2901.63
695.281	2967.17
695.47	2711.17
695.659	2909.82
695.848	3004.03
696.037	2834.05
696.226	2963.07
696.415	2868.86
696.604	2815.62
696.793	2950.78
696.982	2883.2
697.171	2934.4
697.36	2975.36
697.549	2877.05
697.738	2950.78
697.927	2815.62
698.116	2846.34
698.305	2909.82
698.494	2795.14
698.683	2879.1
698.872	2889.34
699.061	2770.56
699.25	2850.43
699.438	2825.86
699.627	2743.94
699.816	2854.53
700.005	2786.94
700.193	2778.75
700.382	2883.2
700.571	2860.67
700.76	2817.66
700.948	2809.47
701.137	2905.73
701.326	2815.62
701.514	2811.52
701.703	2760.32
701.892	2803.33
702.08	2963.07
702.269	2702.98
702.457	2819.71
702.646	2793.09
702.834	2717.31
703.023	2793.09
703.212	2819.71
703.4	2836.1
703.589	2832
703.777	2762.37
703.965	2686.59
704.154	2731.65
704.342	2836.1
704.531	2907.77
704.719	2711.17
704.907	2795.14
705.096	2608.77
705.284	2719.36
705.472	2776.7
705.661	2926.21
705.849	2793.09
706.037	2748.03
706.226	2678.4
706.414	2709.12
706.602	2819.71
706.79	2815.62
706.979	2752.13
707.167	2809.47
707.355	2784.9
707.543	2678.4
707.731	2971.26
707.919	2745.98
708.107	2616.96
708.296	2788.99
708.484	2819.71
708.672	2670.21
708.86	2768.51
709.048	2713.22
709.236	2815.62
709.424	2795.14
709.612	2862.72
709.8	2819.71
709.988	2745.98
710.176	2768.51
710.364	2897.53
710.551	2858.62
710.739	2688.64
710.927	2770.56
711.115	2756.22
711.303	2676.35
711.491	2758.27
711.679	2719.36
711.866	2705.03
712.054	2803.33
712.242	2754.18
712.43	2698.88
712.617	2717.31
712.805	2793.09
712.993	2760.32
713.181	2696.83
713.368	2813.57
713.556	2803.33
713.744	2713.22
713.931	2926.21
714.119	2705.03
714.306	2604.67
714.494	2657.92
714.682	2647.68
714.869	2733.7
715.057	2741.89
715.244	2795.14
715.432	2647.68
715.619	2705.03
715.807	2758.27
715.994	2610.82
716.182	2756.22
716.369	2739.84
716.556	2748.03
716.744	2721.41
716.931	2651.78
717.119	2647.68
717.306	2653.83
717.493	2707.07
717.681	2733.7
717.868	2715.27
718.055	2584.2
718.242	2608.77
718.43	2612.87
718.617	2750.08
718.804	2676.35
718.991	2625.15
719.179	2688.64
719.366	2555.52
719.553	2655.87
719.74	2576
719.927	2651.78
720.114	2567.81
720.301	2576
720.488	2539.14
720.676	2567.81
720.863	2506.37
721.05	2610.82
721.237	2533
721.424	2590.34
721.611	2619.01
721.798	2485.89
721.985	2549.38
722.172	2494.08
722.358	2651.78
722.545	2606.72
722.732	2584.2
722.919	2672.26
723.106	2616.96
723.293	2496.13
723.48	2375.3
723.667	2473.6
723.853	2481.8
724.04	2573.96
724.227	2547.33
724.414	2571.91
724.6	2498.18
724.787	2573.96
724.974	2528.9
725.161	2655.87
725.347	2487.94
725.534	2588.29
725.72	2504.32
725.907	2670.21
726.094	2465.41
726.28	2496.13
726.467	2471.56
726.653	2485.89
726.84	2506.37
727.027	2471.56
727.213	2383.49
727.4	2606.72
727.586	2475.65
727.773	2479.75
727.959	2424.45
728.145	2512.52
728.332	2481.8
728.518	2506.37
728.705	2393.73
728.891	2467.46
729.077	2389.64
729.264	2295.43
729.45	2320.01
729.636	2446.98
729.823	2369.16
730.009	2291.34
730.195	2379.4
730.382	2442.89
730.568	2416.26
730.754	2360.97
730.94	2420.36
731.126	2389.64
731.313	2410.12
731.499	2397.83
731.685	2395.78
731.871	2342.53
732.057	2530.95
732.243	2307.72
732.429	2377.35
732.615	2344.58
732.801	2332.3
732.987	2221.7
733.173	2270.86
733.359	2283.14
733.545	2279.05
733.731	2229.9
733.917	2416.26
734.103	2334.34
734.289	2342.53
734.475	2389.64
734.661	2303.62
734.847	2289.29
735.033	2147.98
735.219	2311.82
735.404	2195.08
735.59	2111.11
735.776	2293.38
735.962	2238.09
736.148	2246.28
736.333	2184.84
736.519	2229.9
736.705	2139.79
736.89	2084.49
737.076	2137.74
737.262	2236.04
737.447	2078.35
737.633	2238.09
737.819	2315.91
738.004	2102.92
738.19	2150.03
738.375	2045.58
738.561	2102.92
738.747	2143.88
738.932	2049.68
739.118	2098.83
739.303	2090.63
739.489	2252.42
739.674	2045.58
739.859	2004.62
740.045	2059.92
740.23	2129.55
740.416	2006.67
740.601	2162.31
740.786	2059.92
740.972	2023.05
741.157	1986.19
741.342	1963.66
741.528	2012.81
741.713	2100.87
741.898	2078.35
742.084	1857.17
742.269	1969.8
742.454	2021
742.639	1986.19
742.824	1959.56
743.01	1951.37
743.195	1867.41
743.38	1900.17
743.565	1871.5
743.75	1851.02
743.935	1877.65
744.12	1943.18
744.305	1810.06
744.49	1799.82
744.675	1666.71
744.86	1871.5
745.045	1785.49
745.23	1758.86
745.415	1734.29
745.6	1902.22
745.785	1715.86
745.97	1838.73
746.155	1779.34
746.34	1771.15
746.525	1674.9
746.71	1789.58
746.895	1701.52
747.079	1676.95
747.264	1588.88
747.449	1664.66
747.634	1625.75
747.819	1789.58
748.003	1676.95
748.188	1607.31
748.373	1678.99
748.557	1617.55
748.742	1658.51
748.927	1656.47
749.111	1617.55
749.296	1603.22
749.481	1541.78
749.665	1498.77
749.85	1500.82
750.034	1574.55
750.219	1584.79
750.404	1582.74
750.588	1500.82
750.773	1492.63
750.957	1580.69
751.141	1513.11
751.326	1486.48
751.51	1420.95
751.695	1435.28
751.879	1365.65
752.064	1437.33
752.248	1437.33
752.432	1363.61
752.617	1345.17
752.801	1515.16
752.985	1373.85
753.17	1455.76
753.354	1443.48
753.538	1388.18
753.722	1347.22
753.907	1316.5
754.091	1304.21
754.275	1265.3
754.459	1277.59
754.643	1285.78
754.828	1359.51
755.012	1298.07
755.196	1259.16
755.38	1253.02
755.564	1289.88
755.748	1265.3
755.932	1232.54
756.116	1177.24
756.3	1253.02
756.484	1179.29
756.668	1146.52
756.852	1142.43
757.036	1236.63
757.22	1140.38
757.404	1095.32
757.588	1152.67
757.772	1121.95
757.956	1144.47
758.14	1185.43
758.323	1169.05
758.507	1255.06
758.691	1105.56
758.875	1203.86
759.059	1160.86
759.242	1048.22
759.426	1062.55
759.61	1083.03
759.794	1121.95
759.977	1105.56
760.161	1115.8
760.345	1119.9
760.528	1103.51
760.712	1074.84
760.895	1011.36
761.079	1052.31
761.263	1060.51
761.446	1001.12
761.63	1064.6
761.813	1003.16
761.997	982.68
762.18	968.35
762.364	970.4
762.547	1074.84
762.731	1074.84
762.914	964.25
763.098	1044.12
763.281	919.2
763.464	1037.98
763.648	1007.26
763.831	898.72
764.015	863.9
764.198	972.44
764.381	986.78
764.564	976.54
764.748	1033.88
764.931	992.92
765.114	1015.45
765.297	986.78
765.481	976.54
765.664	917.15
765.847	919.2
766.03	935.58
766.213	898.72
766.397	892.57
766.58	845.47
766.763	919.2
766.946	868
767.129	902.81
767.312	943.77
767.495	919.2
767.678	886.43
767.861	818.85
768.044	804.51
768.227	908.96
768.41	812.7
768.593	880.29
768.776	845.47
768.959	917.15
769.142	884.38
769.324	820.89
769.507	884.38
769.69	839.33
769.873	845.47
770.056	937.63
770.239	857.76
770.421	747.17
770.604	767.65
770.787	863.9
770.97	829.09
771.152	855.71
771.335	857.76
771.518	812.7
771.7	833.18
771.883	812.7
772.066	812.7
772.248	937.63
772.431	771.74
772.613	888.48
772.796	788.13
772.978	781.98
773.161	695.97
773.343	796.32
773.526	747.17
773.708	751.26
773.891	771.74
774.073	761.5
774.256	677.54
774.438	728.74
774.621	730.78
774.803	720.54
774.985	685.73
775.168	689.82
775.35	702.11
775.532	763.55
775.715	687.78
775.897	648.86
776.079	695.97
776.261	704.16
776.444	681.63
776.626	773.79
776.808	679.58
776.99	640.67
777.173	702.11
777.355	599.71
777.537	681.63
777.719	673.44
777.901	599.71
778.083	622.24
778.265	577.19
778.447	642.72
778.629	614.05
778.811	689.82
778.993	530.08
779.175	673.44
779.357	607.91
779.539	607.91
779.721	566.95
779.903	562.85
780.085	646.82
780.267	636.58
780.449	534.18
780.631	530.08
780.812	642.72
780.994	564.9
781.176	497.32
781.358	603.81
781.54	599.71
781.721	513.7
781.903	595.62
782.085	507.55
782.267	472.74
782.448	499.36
782.63	460.45
782.812	521.89
782.993	525.99
783.175	607.91
783.357	478.88
783.538	493.22
783.72	460.45
783.901	521.89
784.083	431.78
784.264	536.23
784.446	519.84
784.627	450.21
784.809	607.91
784.99	491.17
785.172	546.47
785.353	419.49
785.535	401.06
785.716	542.37
785.897	401.06
786.079	466.6
786.26	427.68
786.441	460.45
786.623	442.02
786.804	439.97
786.985	480.93
787.167	439.97
787.348	437.92
787.529	444.07
787.71	427.68
787.891	417.44
788.073	448.16
788.254	401.06
788.435	356.01
788.616	407.2
788.797	335.53
788.978	386.72
789.159	382.63
789.34	433.83
789.522	403.11
789.703	417.44
789.884	390.82
790.065	433.83
790.246	384.68
790.427	333.48
790.607	409.25
790.788	396.96
790.969	335.53
791.15	431.78
791.331	329.38
791.512	417.44
791.693	317.09
791.874	380.58
792.054	409.25
792.235	417.44
792.416	384.68
792.597	290.47
792.778	310.95
792.958	446.12
793.139	286.37
793.32	362.15
793.5	343.72
793.681	405.16
793.862	323.24
794.042	272.04
794.223	298.66
794.404	349.86
794.584	329.38
794.765	304.81
794.945	347.81
795.126	405.16
795.306	347.81
795.487	366.25
795.667	351.91
795.848	280.23
796.028	315.05
796.209	292.52
796.389	300.71
796.57	360.1
796.75	261.8
796.93	255.65
797.111	292.52
797.291	261.8
797.471	245.41
797.652	220.84
797.832	288.42
798.012	222.89
798.192	269.99
798.373	323.24
798.553	243.37
798.733	243.37
798.913	304.81
799.093	218.79
799.274	194.22
799.454	319.14
799.634	337.57
799.814	272.04
799.994	315.05
800.174	233.13
800.354	220.84
800.534	239.27
800.714	269.99
800.894	241.32
801.074	202.41
801.254	269.99
801.434	272.04
801.614	200.36
801.794	239.27
801.974	734.88
802.154	269.99
802.334	222.89
802.514	226.98
802.693	278.18
802.873	194.22
803.053	259.75
803.233	263.85
803.413	188.07
803.592	155.3
803.772	294.57
803.952	212.65
804.131	149.16
804.311	214.7
804.491	255.65
804.67	220.84
804.85	229.03
805.03	216.74
805.209	181.93
805.389	196.26
805.568	177.83
805.748	167.59
805.928	171.69
806.107	235.18
806.287	200.36
806.466	181.93
806.646	222.89
806.825	179.88
807.004	241.32
807.184	259.75
807.363	218.79
807.543	190.12
807.722	190.12
807.901	214.7
808.081	216.74
808.26	155.3
808.439	140.97
808.619	165.54
808.798	177.83
808.977	165.54
809.156	198.31
809.336	194.22
809.515	257.7
809.694	190.12
809.873	179.88
810.052	177.83
810.231	220.84
810.411	229.03
810.59	237.22
810.769	175.78
810.948	222.89
811.127	89.77
811.306	91.82
811.485	122.54
811.664	220.84
811.843	153.26
812.022	159.4
812.201	71.34
812.38	112.3
812.559	173.74
812.737	140.97
812.916	120.49
813.095	140.97
813.274	181.93
813.453	210.6
813.632	233.13
813.811	175.78
813.989	87.72
814.168	151.21
814.347	149.16
814.526	173.74
814.704	118.44
814.883	212.65
815.062	83.63
815.24	157.35
815.419	157.35
815.598	188.07
815.776	118.44
815.955	130.73
816.133	124.58
816.312	159.4
816.49	114.34
816.669	167.59
816.847	165.54
817.026	118.44
817.204	116.39
817.383	124.58
817.561	161.45
817.74	145.06
817.918	157.35
818.097	102.06
818.275	159.4
818.453	157.35
818.632	134.82
818.81	136.87
818.988	106.15
819.167	116.39
819.345	128.68
819.523	175.78
819.701	124.58
819.879	120.49
820.058	229.03
820.236	181.93
820.414	165.54
820.592	122.54
820.77	138.92
820.948	220.84
821.127	71.34
821.305	93.87
821.483	153.26
821.661	173.74
821.839	149.16
822.017	87.72
822.195	69.29
822.373	134.82
822.551	120.49
822.729	116.39
822.907	149.16
823.085	108.2
823.262	151.21
823.44	73.39
823.618	91.82
823.796	149.16
823.974	112.3
824.152	163.5
824.329	36.52
824.507	106.15
824.685	95.91
824.863	130.73
825.04	89.77
825.218	153.26
825.396	91.82
825.574	126.63
825.751	61.1
825.929	155.3
826.107	69.29
826.284	67.24
826.462	143.02
826.639	91.82
826.817	91.82
826.994	124.58
827.172	132.78
827.349	77.48
827.527	77.48
827.704	106.15
827.882	34.47
828.059	122.54
828.237	59.05
828.414	186.02
828.591	3.75
828.769	69.29
828.946	67.24
829.124	140.97
829.301	102.06
829.478	50.86
829.655	69.29
829.833	87.72
830.01	65.19
830.187	202.41
830.364	48.81
830.542	52.91
830.719	100.01
830.896	116.39
831.073	71.34
831.25	57
831.427	59.05
831.604	91.82
831.782	93.87
831.959	122.54
832.136	79.53
832.313	169.64
832.49	136.87
832.667	42.67
832.844	138.92
833.021	16.04
833.198	75.43
833.374	143.02
833.551	61.1
833.728	22.19
833.905	83.63
834.082	1.71
834.259	54.95
834.436	132.78
834.612	61.1
834.789	128.68
834.966	69.29
835.143	104.11
835.319	85.67
835.496	132.78
835.673	73.39
835.85	89.77
836.026	-18.77
836.203	106.15
836.38	57
836.556	134.82
836.733	22.19
836.909	87.72
837.086	116.39
837.262	100.01
837.439	79.53
837.616	28.33
837.792	50.86
837.968	102.06
838.145	50.86
838.321	67.24
838.498	-10.58
838.674	57
838.851	102.06
839.027	-0.34
839.203	161.45
839.38	108.2
839.556	59.05
839.732	67.24
839.909	73.39
840.085	89.77
840.261	69.29
840.437	48.81
840.614	26.28
840.79	110.25
840.966	83.63
841.142	79.53
841.318	13.99
841.494	100.01
841.671	75.43
841.847	18.09
842.023	16.04
842.199	26.28
842.375	77.48
842.551	30.38
842.727	16.04
842.903	138.92
843.079	46.76
843.255	30.38
843.431	-0.34
843.607	30.38
843.783	32.43
843.959	63.15
844.134	104.11
844.31	-10.58
844.486	85.67
844.662	42.67
844.838	95.91
845.013	114.34
845.189	50.86
845.365	89.77
845.541	91.82
845.716	22.19
845.892	130.73
846.068	59.05
846.244	42.67
846.419	155.3
846.595	69.29
846.77	22.19
846.946	65.19
847.122	77.48
847.297	59.05
847.473	67.24
847.648	108.2
847.824	104.11
847.999	-33.11
848.175	30.38
848.35	79.53
848.526	34.47
848.701	106.15
848.876	79.53
849.052	143.02
849.227	147.11
849.403	65.19
849.578	7.85
849.753	100.01
849.929	126.63
850.104	-0.34
850.279	87.72
850.454	110.25
850.63	87.72
850.805	75.43
850.98	71.34
851.155	-22.87
851.33	75.43
851.505	24.23
851.681	118.44
851.856	57
852.031	147.11
852.206	46.76
852.381	20.14
852.556	73.39
852.731	9.9
852.906	46.76
853.081	34.47
853.256	73.39
853.431	20.14
853.606	34.47
853.781	13.99
853.956	-16.73
854.131	116.39
854.305	44.71
854.48	30.38
854.655	-8.53
854.83	18.09
855.005	69.29
855.18	1.71
855.354	34.47
855.529	5.8
855.704	-31.06
855.879	65.19
856.053	36.52
856.228	11.95
856.403	30.38
856.577	81.58
856.752	-8.53
856.926	73.39
857.101	87.72
857.276	50.86
857.45	30.38
857.625	-51.54
857.799	108.2
857.974	24.23
858.148	22.19
858.323	26.28
858.497	-2.39
858.672	48.81
858.846	67.24
859.02	59.05
859.195	9.9
859.369	18.09
859.543	20.14
859.718	69.29
859.892	67.24
860.066	67.24
860.241	30.38
860.415	18.09
860.589	50.86
860.763	59.05
860.938	-35.16
861.112	3.75
861.286	46.76
861.46	91.82
861.634	-35.16
861.808	28.33
861.982	42.67
862.157	-18.77
862.331	54.95
862.505	36.52
862.679	24.23
862.853	5.8
863.027	77.48
863.201	-0.34
863.375	52.91
863.549	67.24
863.722	71.34
863.896	120.49
864.07	-61.78
864.244	-8.53
864.418	28.33
864.592	9.9
864.766	22.19
864.939	95.91
865.113	-14.68
865.287	65.19
865.461	18.09
865.634	54.95
865.808	-14.68
865.982	67.24
866.156	16.04
866.329	59.05
866.503	18.09
866.676	-0.34
866.85	-6.49
867.024	22.19
867.197	132.78
867.371	38.57
867.544	34.47
867.718	-59.73
867.891	57
868.065	-4.44
868.238	118.44
868.412	-4.44
868.585	7.85
868.759	24.23
868.932	-22.87
869.105	28.33
869.279	34.47
869.452	50.86
869.625	-59.73
869.799	28.33
869.972	-39.25
870.145	-2.39
870.319	44.71
870.492	34.47
870.665	34.47
870.838	22.19
871.011	-63.83
871.185	36.52
871.358	36.52
871.531	69.29
871.704	7.85
871.877	57
872.05	48.81
872.223	32.43
872.396	42.67
872.569	71.34
872.742	7.85
872.915	26.28
873.088	-35.16
873.261	34.47
873.434	48.81
873.607	3.75
873.78	57
873.953	24.23
874.126	22.19
874.299	32.43
874.471	-10.58
874.644	-14.68
874.817	18.09
874.99	38.57
875.163	-0.34
875.335	30.38
875.508	52.91
875.681	104.11
875.853	32.43
876.026	42.67
876.199	54.95
876.371	102.06
876.544	-10.58
876.717	-20.82
876.889	-10.58
877.062	-8.53
877.234	20.14
877.407	-6.49
877.579	-39.25
877.752	-2.39
877.924	69.29
878.097	30.38
878.269	32.43
878.442	75.43
878.614	65.19
878.786	59.05
878.959	-35.16
879.131	-8.53
879.303	-35.16
879.476	-12.63
879.648	11.95
879.82	5.8
879.993	32.43
880.165	-22.87
880.337	-39.25
880.509	-26.96
880.681	59.05
880.854	44.71
881.026	114.34
881.198	95.91
881.37	3.75
881.542	-18.77
881.714	50.86
881.886	-14.68
882.058	-16.73
882.23	16.04
882.402	34.47
882.574	63.15
882.746	91.82
882.918	22.19
883.09	-39.25
883.262	1.71
883.434	36.52
883.606	63.15
883.778	42.67
883.95	-26.96
884.122	67.24
884.293	-6.49
884.465	7.85
884.637	71.34
884.809	-41.3
884.98	-22.87
885.152	22.19
885.324	20.14
885.496	18.09
885.667	11.95
885.839	-37.2
886.011	-4.44
886.182	26.28
886.354	16.04
886.525	65.19
886.697	-18.77
886.869	-6.49
887.04	24.23
887.212	1.71
887.383	16.04
887.555	65.19
887.726	-80.21
887.897	50.86
888.069	-80.21
888.24	18.09
888.412	-14.68
888.583	32.43
888.754	26.28
888.926	-26.96
889.097	1.71
889.268	26.28
889.44	79.53
889.611	-14.68
889.782	-74.07
889.953	-31.06
890.125	85.67
890.296	-31.06
890.467	16.04
890.638	26.28
890.809	95.91
890.98	44.71
891.151	13.99
891.323	52.91
891.494	13.99
891.665	32.43
891.836	100.01
892.007	26.28
892.178	32.43
892.349	-8.53
892.52	-80.21
892.691	83.63
892.862	73.39
893.032	-33.11
893.203	1.71
893.374	-8.53
893.545	30.38
893.716	1.71
893.887	46.76
894.057	65.19
894.228	16.04
894.399	42.67
894.57	13.99
894.74	67.24
894.911	28.33
895.082	-16.73
895.253	42.67
895.423	5.8
895.594	-24.92
895.764	-16.73
895.935	54.95
896.106	50.86
896.276	46.76
896.447	7.85
896.617	-43.35
896.788	-55.64
896.958	-10.58
897.129	9.9
897.299	-6.49
897.47	65.19
897.64	-8.53
897.81	-31.06
897.981	-39.25
898.151	11.95
898.322	91.82
898.492	46.76
898.662	-63.83
898.832	-12.63
899.003	7.85
899.173	73.39
899.343	-10.58
899.513	-43.35
