Data from USB4F104151__117__10-25-02-856.txt Node

Date: Wed Mar 12 10:25:02 EDT 2025
User: louis
Spectrometer: USB4F10415
Trigger mode: 4
Integration Time (sec): 3.000000E-2
Scans to average: 1
Electric dark correction enabled: true
Nonlinearity correction enabled: false
Boxcar width: 0
XAxis mode: Wavelengths
Number of Pixels in Spectrum: 3648
>>>>>Begin Spectral Data<<<<<
178.204	-78.33
178.424	-78.33
178.644	-78.33
178.864	-104.96
179.084	-147.97
179.304	-6.66
179.524	7.68
179.744	-35.33
179.964	67.07
180.184	-6.66
180.404	-20.99
180.624	26.11
180.844	30.21
181.064	-18.94
181.283	-14.85
181.503	-14.85
181.723	-12.8
181.943	-37.38
182.163	103.93
182.383	93.69
182.602	-16.9
182.822	36.35
183.042	60.93
183.262	87.55
183.482	83.45
183.701	48.64
183.921	22.02
184.141	22.02
184.361	24.06
184.58	26.11
184.8	105.98
185.02	103.93
185.239	87.55
185.459	67.07
185.679	13.82
185.898	69.12
186.118	58.88
186.338	-0.51
186.557	77.31
186.777	116.22
186.997	22.02
187.216	13.82
187.436	1.54
187.655	17.92
187.875	32.26
188.095	11.78
188.314	52.74
188.534	73.21
188.753	67.07
188.973	67.07
189.192	71.17
189.412	83.45
189.631	26.11
189.851	17.92
190.07	101.89
190.29	22.02
190.509	15.87
190.729	-0.51
190.948	1.54
191.168	153.09
191.387	22.02
191.607	9.73
191.826	44.54
192.045	48.64
192.265	32.26
192.484	44.54
192.704	65.02
192.923	17.92
193.142	99.84
193.362	95.74
193.581	97.79
193.8	-31.23
194.02	93.69
194.239	42.5
194.458	71.17
194.678	-6.66
194.897	42.5
195.116	-47.62
195.335	1.54
195.555	-61.95
195.774	-16.9
195.993	67.07
196.212	65.02
196.432	17.92
196.651	60.93
196.87	7.68
197.089	69.12
197.308	67.07
197.528	24.06
197.747	-31.23
197.966	54.78
198.185	99.84
198.404	62.98
198.623	9.73
198.842	-37.38
199.062	65.02
199.281	38.4
199.5	11.78
199.719	48.64
199.938	34.3
200.157	144.89
200.376	22.02
200.595	130.56
200.814	-35.33
201.033	36.35
201.252	38.4
201.471	30.21
201.69	48.64
201.909	28.16
202.128	-12.8
202.347	62.98
202.566	-16.9
202.785	13.82
203.004	38.4
203.223	77.31
203.442	17.92
203.661	7.68
203.879	65.02
204.098	60.93
204.317	-25.09
204.536	60.93
204.755	93.69
204.974	93.69
205.193	46.59
205.411	136.7
205.63	-2.56
205.849	56.83
206.068	-2.56
206.287	50.69
206.505	-8.7
206.724	62.98
206.943	81.41
207.162	-37.38
207.381	54.78
207.599	-35.33
207.818	65.02
208.037	-12.8
208.255	3.58
208.474	38.4
208.693	17.92
208.911	44.54
209.13	40.45
209.349	-0.51
209.567	-2.56
209.786	81.41
210.005	32.26
210.223	32.26
210.442	7.68
210.661	5.63
210.879	-43.52
211.098	-10.75
211.316	28.16
211.535	124.41
211.753	-10.75
211.972	17.92
212.191	11.78
212.409	34.3
212.628	-2.56
212.846	62.98
213.065	30.21
213.283	81.41
213.502	30.21
213.72	38.4
213.938	-14.85
214.157	69.12
214.375	153.09
214.594	-12.8
214.812	15.87
215.031	103.93
215.249	48.64
215.467	22.02
215.686	56.83
215.904	-6.66
216.122	-6.66
216.341	56.83
216.559	19.97
216.778	60.93
216.996	69.12
217.214	-57.86
217.432	26.11
217.651	42.5
217.869	71.17
218.087	-16.9
218.306	-16.9
218.524	52.74
218.742	5.63
218.96	48.64
219.179	34.3
219.397	75.26
219.615	50.69
219.833	38.4
220.051	71.17
220.27	56.83
220.488	58.88
220.706	46.59
220.924	-51.71
221.142	1.54
221.36	-39.42
221.578	9.73
221.796	24.06
222.015	69.12
222.233	50.69
222.451	161.28
222.669	42.5
222.887	42.5
223.105	56.83
223.323	-4.61
223.541	24.06
223.759	69.12
223.977	42.5
224.195	110.08
224.413	42.5
224.631	-33.28
224.849	38.4
225.067	42.5
225.285	-64
225.503	9.73
225.721	7.68
225.939	103.93
226.157	50.69
226.375	81.41
226.592	-6.66
226.81	65.02
227.028	50.69
227.246	67.07
227.464	30.21
227.682	116.22
227.9	73.21
228.117	36.35
228.335	81.41
228.553	17.92
228.771	1.54
228.989	54.78
229.206	95.74
229.424	38.4
229.642	-16.9
229.86	79.36
230.077	75.26
230.295	42.5
230.513	-29.18
230.731	28.16
230.948	77.31
231.166	93.69
231.384	-16.9
231.601	28.16
231.819	73.21
232.037	42.5
232.254	30.21
232.472	11.78
232.689	87.55
232.907	56.83
233.125	30.21
233.342	9.73
233.56	19.97
233.777	13.82
233.995	-16.9
234.213	89.6
234.43	58.88
234.648	-10.75
234.865	112.13
235.083	15.87
235.3	40.45
235.518	50.69
235.735	42.5
235.953	140.8
236.17	17.92
236.388	-45.57
236.605	38.4
236.822	71.17
237.04	56.83
237.257	-10.75
237.475	-23.04
237.692	40.45
237.909	67.07
238.127	19.97
238.344	-4.61
238.562	13.82
238.779	-27.14
238.996	-12.8
239.214	24.06
239.431	83.45
239.648	97.79
239.865	89.6
240.083	108.03
240.3	40.45
240.517	9.73
240.735	15.87
240.952	124.41
241.169	93.69
241.386	79.36
241.603	83.45
241.821	7.68
242.038	40.45
242.255	30.21
242.472	-14.85
242.689	-10.75
242.907	75.26
243.124	13.82
243.341	36.35
243.558	17.92
243.775	77.31
243.992	-2.56
244.209	71.17
244.426	114.17
244.643	101.89
244.86	52.74
245.078	58.88
245.295	50.69
245.512	79.36
245.729	48.64
245.946	38.4
246.163	13.82
246.38	34.3
246.597	-16.9
246.814	26.11
247.031	73.21
247.248	9.73
247.464	71.17
247.681	50.69
247.898	83.45
248.115	69.12
248.332	56.83
248.549	40.45
248.766	81.41
248.983	67.07
249.2	38.4
249.417	11.78
249.633	-6.66
249.85	71.17
250.067	1.54
250.284	89.6
250.501	17.92
250.717	75.26
250.934	50.69
251.151	19.97
251.368	50.69
251.585	38.4
251.801	-6.66
252.018	7.68
252.235	30.21
252.451	-25.09
252.668	75.26
252.885	44.54
253.102	95.74
253.318	50.69
253.535	-2.56
253.752	38.4
253.968	3.58
254.185	65.02
254.401	40.45
254.618	3.58
254.835	30.21
255.051	65.02
255.268	17.92
255.484	52.74
255.701	42.5
255.917	56.83
256.134	-72.19
256.351	19.97
256.567	34.3
256.784	73.21
257	13.82
257.217	48.64
257.433	54.78
257.65	91.65
257.866	58.88
258.082	32.26
258.299	1.54
258.515	-10.75
258.732	-88.57
258.948	-6.66
259.165	26.11
259.381	67.07
259.597	1.54
259.814	26.11
260.03	-12.8
260.246	24.06
260.463	17.92
260.679	75.26
260.895	81.41
261.112	19.97
261.328	13.82
261.544	32.26
261.761	140.8
261.977	140.8
262.193	-20.99
262.409	75.26
262.626	30.21
262.842	89.6
263.058	-6.66
263.274	50.69
263.49	-14.85
263.707	69.12
263.923	67.07
264.139	67.07
264.355	-6.66
264.571	50.69
264.787	95.74
265.004	54.78
265.22	42.5
265.436	87.55
265.652	-18.94
265.868	9.73
266.084	-6.66
266.3	56.83
266.516	93.69
266.732	52.74
266.948	75.26
267.164	85.5
267.38	87.55
267.596	38.4
267.812	83.45
268.028	81.41
268.244	50.69
268.46	-16.9
268.676	1.54
268.892	65.02
269.108	32.26
269.324	-14.85
269.54	26.11
269.756	34.3
269.972	60.93
270.188	-16.9
270.403	40.45
270.619	-2.56
270.835	38.4
271.051	17.92
271.267	9.73
271.483	13.82
271.698	28.16
271.914	97.79
272.13	91.65
272.346	46.59
272.562	24.06
272.777	114.17
272.993	75.26
273.209	1.54
273.425	3.58
273.64	67.07
273.856	42.5
274.072	9.73
274.287	65.02
274.503	83.45
274.719	1.54
274.934	32.26
275.15	-23.04
275.366	36.35
275.581	126.46
275.797	26.11
276.012	-6.66
276.228	91.65
276.444	83.45
276.659	130.56
276.875	19.97
277.09	5.63
277.306	50.69
277.521	54.78
277.737	-12.8
277.952	9.73
278.168	95.74
278.383	58.88
278.599	-6.66
278.814	48.64
279.03	34.3
279.245	60.93
279.461	132.61
279.676	9.73
279.892	52.74
280.107	56.83
280.322	7.68
280.538	69.12
280.753	15.87
280.969	62.98
281.184	50.69
281.399	19.97
281.615	52.74
281.83	-86.53
282.045	38.4
282.26	54.78
282.476	13.82
282.691	153.09
282.906	36.35
283.122	5.63
283.337	71.17
283.552	9.73
283.767	67.07
283.983	26.11
284.198	40.45
284.413	38.4
284.628	-18.94
284.843	116.22
285.058	114.17
285.274	81.41
285.489	58.88
285.704	54.78
285.919	50.69
286.134	69.12
286.349	44.54
286.564	52.74
286.779	56.83
286.995	79.36
287.21	-10.75
287.425	38.4
287.64	58.88
287.855	60.93
288.07	42.5
288.285	42.5
288.5	79.36
288.715	77.31
288.93	-57.86
289.145	48.64
289.36	30.21
289.575	50.69
289.79	11.78
290.004	77.31
290.219	3.58
290.434	17.92
290.649	-6.66
290.864	9.73
291.079	1.54
291.294	73.21
291.509	5.63
291.724	30.21
291.938	3.58
292.153	52.74
292.368	38.4
292.583	32.26
292.798	71.17
293.012	54.78
293.227	56.83
293.442	110.08
293.657	48.64
293.871	3.58
294.086	128.51
294.301	134.65
294.516	9.73
294.73	62.98
294.945	15.87
295.16	36.35
295.374	44.54
295.589	89.6
295.804	-18.94
296.018	67.07
296.233	-0.51
296.447	58.88
296.662	17.92
296.877	50.69
297.091	7.68
297.306	24.06
297.52	91.65
297.735	128.51
297.949	34.3
298.164	9.73
298.378	40.45
298.593	46.59
298.807	-4.61
299.022	-18.94
299.236	95.74
299.451	46.59
299.665	34.3
299.88	5.63
300.094	99.84
300.309	40.45
300.523	79.36
300.737	73.21
300.952	-6.66
301.166	28.16
301.381	28.16
301.595	54.78
301.809	11.78
302.024	11.78
302.238	-6.66
302.452	85.5
302.667	65.02
302.881	46.59
303.095	1.54
303.309	32.26
303.524	11.78
303.738	83.45
303.952	-61.95
304.166	67.07
304.381	56.83
304.595	89.6
304.809	11.78
305.023	75.26
305.237	42.5
305.452	77.31
305.666	73.21
305.88	116.22
306.094	40.45
306.308	-2.56
306.522	34.3
306.736	9.73
306.95	36.35
307.164	22.02
307.379	19.97
307.593	108.03
307.807	62.98
308.021	48.64
308.235	24.06
308.449	-4.61
308.663	5.63
308.877	40.45
309.091	30.21
309.305	50.69
309.519	3.58
309.733	75.26
309.947	-41.47
310.161	77.31
310.374	95.74
310.588	73.21
310.802	30.21
311.016	24.06
311.23	34.3
311.444	124.41
311.658	83.45
311.872	48.64
312.085	30.21
312.299	83.45
312.513	-0.51
312.727	32.26
312.941	85.5
313.154	46.59
313.368	-29.18
313.582	15.87
313.796	99.84
314.009	40.45
314.223	124.41
314.437	30.21
314.651	67.07
314.864	65.02
315.078	69.12
315.292	-6.66
315.505	69.12
315.719	60.93
315.933	48.64
316.146	17.92
316.36	101.89
316.573	89.6
316.787	81.41
317.001	26.11
317.214	42.5
317.428	105.98
317.641	65.02
317.855	26.11
318.068	17.92
318.282	9.73
318.495	108.03
318.709	7.68
318.922	26.11
319.136	30.21
319.349	30.21
319.563	19.97
319.776	81.41
319.99	26.11
320.203	91.65
320.417	15.87
320.63	-6.66
320.843	73.21
321.057	19.97
321.27	83.45
321.483	22.02
321.697	99.84
321.91	-4.61
322.124	-0.51
322.337	73.21
322.55	24.06
322.763	81.41
322.977	71.17
323.19	99.84
323.403	85.5
323.617	-47.62
323.83	99.84
324.043	-23.04
324.256	67.07
324.469	48.64
324.683	83.45
324.896	26.11
325.109	50.69
325.322	1.54
325.535	40.45
325.748	83.45
325.962	73.21
326.175	97.79
326.388	71.17
326.601	28.16
326.814	67.07
327.027	73.21
327.24	110.08
327.453	24.06
327.666	26.11
327.879	126.46
328.092	9.73
328.305	15.87
328.518	40.45
328.731	36.35
328.944	52.74
329.157	103.93
329.37	79.36
329.583	87.55
329.796	99.84
330.009	54.78
330.222	118.27
330.435	99.84
330.648	1.54
330.861	22.02
331.073	36.35
331.286	108.03
331.499	9.73
331.712	-0.51
331.925	19.97
332.138	50.69
332.35	30.21
332.563	-23.04
332.776	108.03
332.989	42.5
333.202	73.21
333.414	-27.14
333.627	1.54
333.84	-8.7
334.053	71.17
334.265	83.45
334.478	50.69
334.691	60.93
334.903	32.26
335.116	17.92
335.329	62.98
335.541	30.21
335.754	48.64
335.966	73.21
336.179	56.83
336.392	-12.8
336.604	97.79
336.817	71.17
337.029	62.98
337.242	-2.56
337.454	36.35
337.667	19.97
337.88	71.17
338.092	-59.9
338.305	79.36
338.517	85.5
338.729	9.73
338.942	54.78
339.154	-14.85
339.367	-18.94
339.579	101.89
339.792	50.69
340.004	148.99
340.217	67.07
340.429	87.55
340.641	48.64
340.854	93.69
341.066	7.68
341.278	38.4
341.491	81.41
341.703	77.31
341.915	-55.81
342.128	112.13
342.34	77.31
342.552	17.92
342.764	87.55
342.977	9.73
343.189	17.92
343.401	17.92
343.613	-55.81
343.826	26.11
344.038	75.26
344.25	-14.85
344.462	-0.51
344.674	99.84
344.886	19.97
345.099	46.59
345.311	-14.85
345.523	34.3
345.735	48.64
345.947	38.4
346.159	24.06
346.371	73.21
346.583	116.22
346.795	85.5
347.007	48.64
347.219	50.69
347.431	9.73
347.643	69.12
347.855	67.07
348.067	9.73
348.279	42.5
348.491	89.6
348.703	91.65
348.915	95.74
349.127	-20.99
349.339	38.4
349.551	3.58
349.763	46.59
349.975	-4.61
350.187	67.07
350.399	28.16
350.61	36.35
350.822	32.26
351.034	24.06
351.246	40.45
351.458	9.73
351.669	17.92
351.881	146.94
352.093	73.21
352.305	95.74
352.517	73.21
352.728	79.36
352.94	22.02
353.152	114.17
353.363	46.59
353.575	34.3
353.787	42.5
353.999	42.5
354.21	77.31
354.422	38.4
354.633	71.17
354.845	38.4
355.057	65.02
355.268	81.41
355.48	75.26
355.692	17.92
355.903	85.5
356.115	-8.7
356.326	-16.9
356.538	50.69
356.749	67.07
356.961	44.54
357.172	40.45
357.384	146.94
357.595	112.13
357.807	38.4
358.018	42.5
358.23	83.45
358.441	71.17
358.653	1.54
358.864	30.21
359.075	5.63
359.287	85.5
359.498	65.02
359.709	34.3
359.921	9.73
360.132	-2.56
360.344	50.69
360.555	42.5
360.766	56.83
360.977	17.92
361.189	118.27
361.4	15.87
361.611	101.89
361.823	85.5
362.034	1.54
362.245	-20.99
362.456	5.63
362.667	56.83
362.879	40.45
363.09	87.55
363.301	69.12
363.512	38.4
363.723	97.79
363.935	-0.51
364.146	32.26
364.357	58.88
364.568	34.3
364.779	24.06
364.99	128.51
365.201	15.87
365.412	32.26
365.623	-12.8
365.834	56.83
366.045	-0.51
366.256	132.61
366.467	101.89
366.678	50.69
366.889	155.13
367.1	17.92
367.311	91.65
367.522	13.82
367.733	60.93
367.944	87.55
368.155	58.88
368.366	87.55
368.577	128.51
368.788	54.78
368.999	-0.51
369.209	62.98
369.42	114.17
369.631	110.08
369.842	81.41
370.053	71.17
370.264	87.55
370.474	75.26
370.685	38.4
370.896	75.26
371.107	89.6
371.317	42.5
371.528	32.26
371.739	140.8
371.95	67.07
372.16	19.97
372.371	26.11
372.582	9.73
372.792	38.4
373.003	26.11
373.214	34.3
373.424	71.17
373.635	-49.66
373.846	142.85
374.056	99.84
374.267	48.64
374.477	71.17
374.688	67.07
374.898	44.54
375.109	97.79
375.319	1.54
375.53	79.36
375.74	87.55
375.951	38.4
376.161	134.65
376.372	118.27
376.582	122.37
376.793	-6.66
377.003	19.97
377.214	34.3
377.424	67.07
377.635	58.88
377.845	48.64
378.055	91.65
378.266	9.73
378.476	79.36
378.686	87.55
378.897	126.46
379.107	97.79
379.317	62.98
379.528	44.54
379.738	91.65
379.948	11.78
380.158	71.17
380.369	30.21
380.579	7.68
380.789	58.88
380.999	44.54
381.21	34.3
381.42	110.08
381.63	44.54
381.84	5.63
382.05	54.78
382.261	54.78
382.471	56.83
382.681	54.78
382.891	91.65
383.101	87.55
383.311	83.45
383.521	-33.28
383.731	50.69
383.941	95.74
384.151	52.74
384.361	-6.66
384.571	81.41
384.781	32.26
384.991	97.79
385.201	58.88
385.411	62.98
385.621	15.87
385.831	54.78
386.041	22.02
386.251	46.59
386.461	87.55
386.671	99.84
386.881	73.21
387.091	91.65
387.301	40.45
387.511	114.17
387.72	67.07
387.93	116.22
388.14	62.98
388.35	87.55
388.56	85.5
388.769	155.13
388.979	79.36
389.189	22.02
389.399	99.84
389.609	89.6
389.818	159.23
390.028	7.68
390.238	108.03
390.447	54.78
390.657	34.3
390.867	75.26
391.076	99.84
391.286	17.92
391.496	22.02
391.705	-6.66
391.915	99.84
392.125	97.79
392.334	81.41
392.544	87.55
392.753	-0.51
392.963	87.55
393.172	65.02
393.382	19.97
393.591	56.83
393.801	134.65
394.01	114.17
394.22	24.06
394.429	116.22
394.639	32.26
394.848	46.59
395.058	38.4
395.267	120.32
395.477	60.93
395.686	105.98
395.895	93.69
396.105	167.42
396.314	83.45
396.524	95.74
396.733	99.84
396.942	161.28
397.152	75.26
397.361	161.28
397.57	124.41
397.78	167.42
397.989	114.17
398.198	140.8
398.407	36.35
398.617	71.17
398.826	110.08
399.035	65.02
399.244	75.26
399.453	65.02
399.663	99.84
399.872	136.7
400.081	81.41
400.29	212.48
400.499	108.03
400.708	120.32
400.917	89.6
401.127	87.55
401.336	155.13
401.545	128.51
401.754	120.32
401.963	130.56
402.172	93.69
402.381	81.41
402.59	126.46
402.799	142.85
403.008	134.65
403.217	165.37
403.426	114.17
403.635	136.7
403.844	95.74
404.053	108.03
404.262	120.32
404.471	157.18
404.68	128.51
404.888	155.13
405.097	179.71
405.306	214.52
405.515	128.51
405.724	128.51
405.933	159.23
406.142	163.33
406.35	169.47
406.559	212.48
406.768	210.43
406.977	192
407.185	159.23
407.394	196.09
407.603	142.85
407.812	218.62
408.02	261.63
408.229	189.95
408.438	214.52
408.646	163.33
408.855	261.63
409.064	284.16
409.272	189.95
409.481	247.29
409.69	292.35
409.898	335.35
410.107	302.59
410.315	275.96
410.524	306.68
410.733	351.74
410.941	278.01
411.15	417.27
411.358	300.54
411.567	396.79
411.775	376.31
411.984	390.65
412.192	357.88
412.401	452.09
412.609	464.38
412.818	447.99
413.026	474.62
413.234	359.93
413.443	443.9
413.651	568.82
413.86	480.76
414.068	517.62
414.276	587.26
414.485	548.34
414.693	642.55
414.901	677.37
415.11	624.12
415.318	642.55
415.526	708.09
415.734	689.65
415.943	667.13
416.151	738.8
416.359	712.18
416.567	808.44
416.776	947.7
416.984	804.34
417.192	982.51
417.4	931.31
417.608	984.56
417.817	894.45
418.025	1029.62
418.233	1005.04
418.441	1052.14
418.649	1078.77
418.857	1136.11
419.065	1121.77
419.273	1181.17
419.481	1224.17
419.689	1156.59
419.897	1330.67
420.105	1248.75
420.313	1410.54
420.521	1443.31
420.729	1426.92
420.937	1504.75
421.145	1527.27
421.353	1619.43
421.561	1670.63
421.769	1723.88
421.977	1830.37
422.185	1824.23
422.393	1967.59
422.601	1979.87
422.809	2016.74
423.017	2141.66
423.224	2119.14
423.432	2203.1
423.64	2209.25
423.848	2321.88
424.056	2323.93
424.263	2430.43
424.471	2577.88
424.679	2663.9
424.887	2598.36
425.094	2721.24
425.302	2868.69
425.51	3046.87
425.718	3104.21
425.925	2962.9
426.133	3202.51
426.341	3319.25
426.548	3382.73
426.756	3433.93
426.964	3390.92
427.171	3628.49
427.379	3845.57
427.586	3786.18
427.794	4040.13
428.001	4259.26
428.209	4251.07
428.417	4189.63
428.624	4638.14
428.832	4554.17
429.039	4744.63
429.247	4621.75
429.454	4967.86
429.662	5436.85
429.869	5041.59
430.076	5414.32
430.284	4959.67
430.491	5514.67
430.699	5830.06
430.906	5834.15
431.114	5774.76
431.321	6038.95
431.528	6071.72
431.736	6538.65
431.943	6808.98
432.15	6677.91
432.358	6765.98
432.565	7009.69
432.772	6909.33
432.979	7495.05
433.187	7433.61
433.394	7482.77
433.601	7939.46
433.808	7972.23
434.016	7974.28
434.223	8488.32
434.43	8809.85
434.637	8740.22
434.844	9147.76
435.052	9346.42
435.259	9184.63
435.466	9293.17
435.673	9305.46
435.88	10040.68
436.087	10454.37
436.294	10390.88
436.501	9993.58
436.708	10431.84
436.915	10749.28
437.122	11179.35
437.329	11058.52
437.537	11500.88
437.743	11773.26
437.95	11683.15
438.157	12295.49
438.364	12768.57
438.571	12647.74
438.778	12590.4
438.985	13772.08
439.192	13372.72
439.399	13718.83
439.606	13434.16
439.813	14271.78
440.02	14943.52
440.227	14755.1
440.433	14734.62
440.64	14972.19
440.847	15093.02
441.054	15404.31
441.261	16268.55
441.467	16121.1
441.674	16545.03
441.881	17061.12
442.088	17036.54
442.294	17061.12
442.501	17403.13
442.708	17640.69
442.914	18509.03
443.121	19242.2
443.328	18783.46
443.534	20040.91
443.741	19401.94
443.948	19252.44
444.154	20821.19
444.361	20509.9
444.568	20567.24
444.774	20686.02
444.981	20624.58
445.187	21632.18
445.394	22428.84
445.6	21939.38
445.807	24323.21
446.013	22817.96
446.22	23405.72
446.426	24140.94
446.633	24462.47
446.839	25248.89
447.046	24091.79
447.252	25818.23
447.459	25623.67
447.665	25629.82
447.871	26498.16
448.078	27675.74
448.284	26260.59
448.491	26852.45
448.697	28023.89
448.903	28513.36
449.11	28832.84
449.316	28273.74
449.522	28578.89
449.728	29652.03
449.935	29709.37
450.141	29486.14
450.347	30395.44
450.553	29131.84
450.76	29498.43
450.966	30850.09
451.172	29779
451.378	31036.45
451.584	30465.07
451.791	31145
451.997	30921.77
452.203	31069.22
452.409	31013.93
452.615	31333.41
452.821	29942.84
453.027	29647.93
453.233	31577.12
453.44	29879.35
453.646	30479.41
453.852	30243.89
454.058	30714.92
454.264	29662.27
454.47	30409.78
454.676	29307.97
454.882	30473.26
455.088	28062.8
455.294	28404.81
455.5	28564.56
455.705	29127.75
455.911	27903.06
456.117	27278.43
456.323	26911.85
456.529	25805.94
456.735	26645.61
456.941	26023.03
457.147	25402.49
457.352	24546.44
457.558	24489.1
457.764	24640.65
457.97	23979.15
458.176	23098.53
458.381	23553.18
458.587	22279.34
458.793	22262.96
458.999	21101.76
459.204	22733.99
459.41	21961.9
459.616	20546.76
459.821	20858.05
460.027	20493.51
460.233	19791.06
460.438	18869.47
460.644	19293.4
460.85	18427.11
461.055	18148.59
461.261	18009.33
461.466	16483.59
461.672	16078.09
461.878	17540.34
462.083	16168.2
462.289	15861.01
462.494	15854.86
462.7	15164.7
462.905	14730.53
463.111	15219.99
463.316	15170.84
463.522	15033.63
463.727	14751.01
463.932	14996.76
464.138	14736.67
464.343	14789.92
464.549	14339.37
464.754	14767.39
464.959	14849.31
465.165	14615.84
465.37	14103.85
465.575	13770.03
465.781	14351.65
465.986	14198.06
466.191	13817.13
466.397	13546.8
466.602	13024.57
466.807	13395.25
467.012	13147.45
467.218	13141.3
467.423	12905.79
467.628	13147.45
467.833	13755.69
468.038	13303.09
468.244	12799.29
468.449	13188.41
468.654	12903.74
468.859	12913.98
469.064	12799.29
469.269	12098.89
469.474	12571.97
469.679	12559.68
469.885	12227.91
470.09	12346.69
470.295	12340.55
470.5	11838.8
470.705	12066.12
470.91	11732.3
471.115	11799.88
471.32	11951.43
471.525	11867.47
471.73	11621.71
471.935	11500.88
472.139	11140.44
472.344	11384.15
472.549	11128.15
472.754	10851.67
472.959	10872.15
473.164	10562.91
473.369	10517.86
473.574	10939.74
473.778	10675.55
473.983	10585.44
474.188	10503.52
474.393	10034.53
474.598	10157.41
474.802	9844.07
475.007	9872.75
475.212	9995.62
475.417	9698.67
475.621	9516.4
475.826	9713
476.031	9301.36
476.235	9405.81
476.44	9411.95
476.645	9190.77
476.849	9418.1
477.054	9143.67
477.259	9127.28
477.463	8881.53
477.668	8895.86
477.872	8936.82
478.077	8619.39
478.282	8668.54
478.486	8426.88
478.691	8516.99
478.895	8347.01
479.1	8260.99
479.304	8396.16
479.509	8230.27
479.713	8445.31
479.918	8236.42
480.122	7914.89
480.326	8109.44
480.531	7912.84
480.735	7863.69
480.94	7865.74
481.144	8013.19
481.348	7759.24
481.553	7918.98
481.757	7665.04
481.961	8058.25
482.166	8142.21
482.37	7978.37
482.574	7847.3
482.778	7808.39
482.983	7990.66
483.187	7841.16
483.391	7669.13
483.595	7810.44
483.8	7767.43
484.004	7900.55
484.208	7796.11
484.412	7961.99
484.616	7626.12
484.821	7820.68
485.025	7808.39
485.229	7839.11
485.433	7726.47
485.637	7681.42
485.841	7646.6
486.045	7638.41
486.249	7634.32
486.453	7730.57
486.657	7808.39
486.861	7824.78
487.065	7632.27
487.269	7855.5
487.473	7640.46
487.677	7892.36
487.881	7703.95
488.085	7828.87
488.289	7718.28
488.493	7826.82
488.697	7861.64
488.901	7794.06
489.105	7845.26
489.309	7976.33
489.512	7800.2
489.716	7964.04
489.92	7878.02
490.124	7851.4
490.328	8162.69
490.531	7966.09
490.735	8013.19
490.939	8088.96
491.143	7959.94
491.346	7849.35
491.55	8271.23
491.754	8148.36
491.958	8197.51
492.161	8263.04
492.365	8181.12
492.569	8248.71
492.772	8174.98
492.976	8398.21
493.18	8549.76
493.383	8521.09
493.587	8410.5
493.79	8641.92
493.994	8574.33
494.197	8633.72
494.401	8650.11
494.605	8764.79
494.808	8875.38
495.012	8914.3
495.215	8732.03
495.419	8998.26
495.622	9065.85
495.825	9276.79
496.029	9002.36
496.232	9569.65
496.436	9338.23
496.639	9424.24
496.843	9518.45
497.046	9741.68
497.249	9661.8
497.453	9790.83
497.656	9856.36
497.859	9731.44
498.063	10081.64
498.266	10452.32
498.469	10321.25
498.673	10364.26
498.876	10556.77
499.079	10425.7
499.282	10739.04
499.485	10949.98
499.689	10999.13
499.892	11109.72
500.095	11115.86
500.298	11425.11
500.501	11398.48
500.705	11629.9
500.908	11879.75
501.111	11801.93
501.314	11816.27
501.517	12254.53
501.72	12059.98
501.923	12072.26
502.126	12643.65
502.329	12553.54
502.532	12705.09
502.735	12899.64
502.938	13122.87
503.141	13251.89
503.344	13405.49
503.547	13303.09
503.75	13516.08
503.953	13878.57
504.156	14101.8
504.359	13874.48
504.562	14109.99
504.765	14542.11
504.968	14748.96
505.17	14583.07
505.373	14916.89
505.576	15070.49
505.779	15148.31
505.982	15250.71
506.185	15766.8
506.387	15596.82
506.59	15996.17
506.793	16160.01
506.996	15893.77
507.198	16715.01
507.401	16522.5
507.604	16624.9
507.807	17048.83
508.009	17014.01
508.212	17227
508.415	17362.17
508.617	17597.68
508.82	17605.88
509.022	17716.47
509.225	18189.55
509.428	18181.35
509.63	18345.19
509.833	18281.71
510.035	19152.09
510.238	18822.37
510.44	19119.32
510.643	19657.94
510.845	19731.67
511.048	19508.44
511.25	20002
511.453	20131.02
511.655	20753.6
511.858	20475.08
512.06	20532.42
512.262	20739.27
512.465	20964.54
512.667	21306.55
512.87	21689.53
513.072	21740.72
513.274	22086.83
513.477	22404.27
513.679	22385.83
513.881	22860.96
514.084	22977.7
514.286	22801.57
514.488	22785.19
514.69	23712.92
514.893	24081.55
515.095	24071.31
515.297	24177.81
515.499	24517.77
515.701	24444.04
515.904	24722.57
516.106	25066.63
516.308	25072.77
516.51	25345.15
516.712	25543.8
516.914	26072.18
517.116	26487.92
517.318	26418.28
517.52	26672.23
517.722	26707.05
517.925	27352.16
518.127	27692.12
518.329	27280.48
518.531	27749.46
518.733	28011.6
518.935	28480.59
519.136	28472.4
519.338	28855.37
519.54	28795.98
519.742	29436.99
519.944	29168.71
520.146	30055.48
520.348	30274.61
520.55	30610.48
520.752	30426.16
520.954	31028.26
521.155	30694.44
521.357	31468.58
521.559	31677.47
521.761	31884.31
521.963	31656.99
522.164	32089.11
522.366	32416.79
522.568	32732.17
522.77	32889.87
522.971	33291.27
523.173	32922.63
523.375	33385.47
523.576	33274.88
523.778	33922.04
523.98	34216.95
524.181	34259.96
524.383	34565.1
524.584	34952.17
524.786	34626.54
524.988	34704.37
525.189	35296.23
525.391	35642.34
525.592	35531.75
525.794	35564.51
525.995	35865.56
526.197	35773.41
526.398	36068.31
526.6	36385.75
526.801	36592.59
527.003	36596.69
527.204	37082.06
527.406	37260.23
527.607	36961.23
527.808	37837.76
528.01	37530.56
528.211	37505.99
528.412	38030.27
528.614	37870.53
528.815	38403
529.016	38728.63
529.218	38009.79
529.419	38058.94
529.62	38292.41
529.822	38276.02
530.023	37952.44
530.224	38554.55
530.425	38556.6
530.626	38570.93
530.828	38409.14
531.029	39465.89
531.23	39011.24
531.431	38923.18
531.632	39029.68
531.833	39603.11
532.035	39529.38
532.236	39459.75
532.437	39476.13
532.638	39238.57
532.839	39652.26
533.04	39758.75
533.241	39148.46
533.442	40160.16
533.643	39703.46
533.844	39560.1
534.045	39951.26
534.246	39508.9
534.447	40100.76
534.648	39685.03
534.849	39840.67
535.05	39332.78
535.251	40063.9
535.451	39871.39
535.652	40072.09
535.853	39484.33
536.054	40293.27
536.255	39965.6
536.456	39904.16
536.657	40350.62
536.857	39621.54
537.058	40024.99
537.259	40024.99
537.46	40088.48
537.66	39998.37
537.861	39959.45
538.062	39775.14
538.263	40063.9
538.463	39799.71
538.664	39947.17
538.865	40371.1
539.065	40457.11
539.266	39693.22
539.466	40647.57
539.667	39513
539.868	40094.62
540.068	39789.47
540.269	39902.11
540.469	40102.81
540.67	39635.88
540.87	40006.56
541.071	39615.4
541.271	40313.75
541.472	40070.04
541.672	39902.11
541.873	39855.01
542.073	39586.72
542.274	40362.9
542.474	39771.04
542.675	39459.75
542.875	40336.28
543.075	39762.85
543.276	39138.22
543.476	40219.55
543.676	39621.54
543.877	40285.08
544.077	39463.85
544.277	39922.59
544.478	39654.31
544.678	40078.24
544.878	39660.45
545.078	39619.49
545.279	39324.58
545.479	39693.22
545.679	39422.89
545.879	39699.36
546.079	39654.31
546.28	39568.29
546.48	39590.82
546.68	39592.87
546.88	40006.56
547.08	39822.24
547.28	39531.43
547.48	38849.46
547.68	39619.49
547.88	39154.6
548.081	39545.76
548.281	39486.37
548.481	39508.9
548.681	39596.96
548.881	39619.49
549.081	39250.86
549.28	39177.13
549.48	39867.3
549.68	39175.08
549.88	39709.6
550.08	39291.82
550.28	39400.36
550.48	39234.47
550.68	38998.96
550.88	39209.9
551.08	39013.29
551.279	39375.78
551.479	39472.04
551.679	39234.47
551.879	39132.07
552.079	39316.39
552.278	39453.61
552.478	39013.29
552.678	39068.59
552.878	39408.55
553.077	39154.6
553.277	38742.96
553.477	39754.66
553.676	38943.66
553.876	38812.59
554.076	38775.73
554.275	38575.03
554.475	38644.66
554.674	38876.08
554.874	38724.53
555.074	38618.03
555.273	39072.68
555.473	39205.8
555.672	38443.96
555.872	38753.2
556.071	38996.91
556.271	38912.94
556.47	38581.17
556.67	38163.39
556.869	38292.41
557.068	38658.99
557.268	38425.53
557.467	38319.03
557.667	38300.6
557.866	38081.47
558.065	38005.69
558.265	37950.4
558.464	37721.02
558.663	38429.62
558.863	37505.99
559.062	38382.52
559.261	37614.53
559.461	38278.07
559.66	37616.58
559.859	37702.59
560.058	37458.88
560.258	37465.03
560.457	37327.81
560.656	37331.91
560.855	37227.46
561.054	37563.33
561.253	36748.24
561.453	37053.39
561.652	37516.23
561.851	37170.12
562.05	36436.95
562.249	36518.87
562.448	37176.26
562.647	36580.31
562.846	36668.37
563.045	36606.93
563.244	35978.2
563.443	36758.48
563.642	36064.22
563.841	36402.13
564.04	35900.38
564.239	36522.96
564.438	36314.07
564.637	35804.13
564.836	36221.91
565.035	35836.89
565.234	35888.09
565.432	35449.83
565.631	35402.72
565.83	35539.94
566.029	35267.56
566.228	35273.7
566.427	35245.03
566.625	34786.29
566.824	34481.14
567.023	35021.8
567.222	34141.18
567.42	35242.98
567.619	34827.24
567.818	34507.76
568.016	34333.68
568.215	34530.29
568.414	34153.46
568.612	34522.1
568.811	34049.02
569.01	33985.53
569.208	33653.76
569.407	33926.14
569.605	33610.75
569.804	33999.87
570.002	33250.31
570.201	33852.41
570.4	33522.69
570.598	33065.99
570.797	32988.17
570.995	33416.19
571.193	32728.08
571.392	33309.7
571.59	32986.12
571.789	32844.81
571.987	32324.63
572.186	32427.03
572.384	32431.12
572.582	32166.93
572.781	32377.87
572.979	32113.69
573.177	32019.48
573.376	32211.99
573.574	31951.9
573.772	32128.02
573.971	31792.15
574.169	31759.39
574.367	31450.14
574.565	31511.58
574.763	31482.91
574.962	31362.08
575.16	30739.5
575.358	31032.36
575.556	31046.69
575.754	31540.25
575.952	30829.61
576.151	30936.1
576.349	30882.86
576.547	30121.01
576.745	30532.65
576.943	30352.43
577.141	30256.18
577.339	30420.02
577.537	30186.55
577.735	30030.9
577.933	29742.14
578.131	29944.89
578.329	29783.1
578.527	29889.59
578.725	29803.58
578.923	30129.2
579.121	29441.09
579.319	29178.95
579.516	29639.74
579.714	29563.96
579.912	28959.81
580.11	29432.89
580.308	29291.59
580.506	28912.71
580.704	28818.5
580.901	28642.38
581.099	28619.85
581.297	28623.95
581.495	28521.55
581.692	28728.39
581.89	28294.22
582.088	28599.37
582.285	28165.2
582.483	28378.19
582.681	28359.76
582.878	27944.02
583.076	27667.55
583.274	28013.65
583.471	27698.27
583.669	27628.63
583.866	27630.68
584.064	27720.79
584.262	27589.72
584.459	27544.67
584.657	27303.01
584.854	27690.07
585.052	26692.71
585.249	27126.88
585.447	27085.92
585.644	26868.84
585.841	26692.71
586.039	26739.82
586.236	26823.78
586.434	26621.03
586.631	26655.85
586.828	26627.18
587.026	26440.81
587.223	26373.23
587.42	26471.53
587.618	26076.27
587.815	26006.64
588.012	26074.23
588.21	25898.1
588.407	26344.56
588.604	25832.57
588.801	25635.96
588.999	25537.66
589.196	25531.51
589.393	25783.41
589.59	25611.39
589.787	25209.98
589.984	25334.91
590.182	24988.8
590.379	25572.47
590.576	24867.97
590.773	25306.24
590.97	25017.47
591.167	24661.13
591.364	24876.16
591.561	24978.56
591.758	24374.41
591.955	24712.33
592.152	24886.4
592.349	24394.89
592.546	24480.91
592.743	24456.33
592.94	24155.28
593.137	24239.25
593.334	24116.37
593.531	24069.26
593.727	24269.97
593.924	23966.87
594.121	23649.43
594.318	24069.26
594.515	23637.14
594.712	23958.67
594.908	23850.13
595.105	23538.84
595.302	23248.03
595.499	23309.47
595.696	23368.86
595.892	23172.25
596.089	23284.89
596.286	23395.48
596.482	23264.41
596.679	23213.21
596.876	22969.51
597.072	22953.12
597.269	22918.31
597.466	22480.04
597.662	22600.87
597.859	22594.73
598.055	22355.11
598.252	22119.6
598.448	22570.15
598.645	22256.81
598.841	22162.61
599.038	22400.17
599.234	22303.92
599.431	22029.49
599.627	22076.59
599.824	22029.49
600.02	21703.86
600.217	21894.32
600.413	21681.33
600.609	21675.19
600.806	21537.98
601.002	21701.81
601.198	21468.34
601.395	21578.93
601.591	21644.47
601.787	21533.88
601.984	20982.98
602.18	21517.5
602.376	21103.81
602.572	21406.91
602.769	20993.22
602.965	21056.7
603.161	20681.92
603.357	20835.52
603.553	20640.97
603.75	20733.12
603.946	20726.98
604.142	20614.34
604.338	20339.91
604.534	20710.6
604.73	19952.85
604.926	20212.94
605.122	20575.43
605.318	20131.02
605.514	20071.63
605.71	19848.4
605.906	20067.53
606.102	20227.28
606.298	20018.38
606.494	19735.76
606.69	19866.83
606.886	19889.36
607.082	19365.08
607.278	19901.65
607.474	19141.85
607.67	19707.09
607.866	19360.98
608.062	19537.11
608.257	19191
608.453	19258.59
608.649	19258.59
608.845	19197.15
609.041	19229.91
609.236	19340.5
609.432	19174.62
609.628	19268.83
609.824	19039.45
610.019	19178.72
610.215	18619.62
610.411	19104.99
610.606	18687.2
610.802	18742.5
610.998	18838.75
611.193	18711.78
611.389	18463.97
611.584	18527.46
611.78	18410.73
611.976	18777.31
612.171	18625.76
612.367	18699.49
612.562	18388.2
612.758	18380.01
612.953	18038
613.149	18404.58
613.344	18140.4
613.539	18570.47
613.735	18248.94
613.93	18246.89
614.126	17898.73
614.321	18375.91
614.517	17900.78
614.712	17868.02
614.907	17931.5
615.103	18339.05
615.298	17966.32
615.493	18019.57
615.688	17806.58
615.884	18007.28
616.079	17544.44
616.274	17847.54
616.47	17368.31
616.665	17798.38
616.86	17444.09
617.055	17186.04
617.25	17472.76
617.445	17642.74
617.641	17247.48
617.836	17300.73
618.031	17394.93
618.226	17474.81
618.421	17337.59
618.616	17337.59
618.811	16983.29
619.006	17218.81
619.201	16817.41
619.396	17024.25
619.591	16583.94
619.786	16874.75
619.981	16635.14
620.176	16911.61
620.371	16350.47
620.566	16440.58
620.761	16487.68
620.956	16508.16
621.151	16336.13
621.346	16362.76
621.541	15944.97
621.735	16284.94
621.93	16033.04
622.125	16176.39
622.32	15713.55
622.515	15910.16
622.709	15680.78
622.904	15570.19
623.099	15617.3
623.294	15582.48
623.488	15222.04
623.683	15398.17
623.878	14990.62
624.072	15086.87
624.267	15062.3
624.462	14931.23
624.656	14675.23
624.851	14882.08
625.046	14779.68
625.24	14458.15
625.435	14433.57
625.629	14474.53
625.824	14331.17
626.018	14290.21
626.213	14157.1
626.407	14132.52
626.602	14193.96
626.796	13960.49
626.991	13882.67
627.185	14165.29
627.38	13755.69
627.574	13782.32
627.768	13684.02
627.963	13794.61
628.157	13514.03
628.352	13548.85
628.546	13215.03
628.74	13266.23
628.935	13133.11
629.129	13145.4
629.323	12836.16
629.517	13053.24
629.712	13081.91
629.906	12866.88
630.1	12666.17
630.294	12780.86
630.489	12641.6
630.683	12764.48
630.877	12352.84
631.071	12426.56
631.265	12193.09
631.459	12203.33
631.653	12109.13
631.848	12328.26
632.042	12062.02
632.236	12217.67
632.43	11957.58
632.624	12074.31
632.818	11924.81
633.012	11773.26
633.206	11881.8
633.4	11713.87
633.594	11691.34
633.788	11621.71
633.982	11562.32
634.176	11398.48
634.369	11261.27
634.563	11326.8
634.757	11244.88
634.951	11398.48
635.145	11058.52
635.339	11001.18
635.533	10988.89
635.726	11081.05
635.92	10825.05
636.114	10718.56
636.308	10894.68
636.501	10696.03
636.695	10673.5
636.889	10736.99
637.083	10360.16
637.276	10294.63
637.47	10397.03
637.664	10390.88
637.857	10337.63
638.051	9999.72
638.244	9919.85
638.438	10128.74
638.632	10151.27
638.825	9987.43
639.019	10032.49
639.212	9893.23
639.406	10018.15
639.599	9944.42
639.793	9803.11
639.986	9573.74
640.18	9602.41
640.373	9710.96
640.567	9327.99
640.76	9354.61
640.954	9354.61
641.147	9284.98
641.34	9213.3
641.534	9225.59
641.727	9188.72
641.92	9315.7
642.114	9012.6
642.307	8822.14
642.5	9047.41
642.694	8775.03
642.887	8877.43
643.08	8910.2
643.273	8719.74
643.467	8807.8
643.66	8541.57
643.853	8598.91
644.046	8508.8
644.239	8627.58
644.432	8449.41
644.626	8226.18
644.819	8410.5
645.012	8308.1
645.205	8353.15
645.398	8246.66
645.591	8248.71
645.784	8203.65
645.977	8097.16
646.17	8074.63
646.363	8109.44
646.556	7828.87
646.749	7888.26
646.942	7880.07
647.135	8115.59
647.328	7681.42
647.521	7818.63
647.714	7771.53
647.907	7808.39
648.099	7644.56
648.292	7630.22
648.485	7556.49
648.678	7390.61
648.871	7552.4
649.064	7302.54
649.256	7368.08
649.449	7394.7
649.642	7300.5
649.835	7265.68
650.027	7140.76
650.22	7392.66
650.413	7165.33
650.605	7296.4
650.798	7036.31
650.991	6765.98
651.183	7107.99
651.376	6913.43
651.568	6938.01
651.761	6903.19
651.954	6837.66
652.146	6821.27
652.339	7009.69
652.531	6616.48
652.724	6897.05
652.916	6538.65
653.109	6481.31
653.301	6706.59
653.494	6462.88
653.686	6503.84
653.879	6526.36
654.071	6378.91
654.263	6522.27
654.456	6538.65
654.648	6491.55
654.84	6278.56
655.033	6190.5
655.225	6286.75
655.417	6194.59
655.61	6135.2
655.802	6204.83
655.994	5979.56
656.186	6309.28
656.379	6139.3
656.571	5832.1
656.763	6061.48
656.955	5901.73
657.148	5854.63
657.34	5936.55
657.532	5811.62
657.724	5879.21
657.916	5848.49
658.108	5772.71
658.3	5727.66
658.492	5776.81
658.684	5578.15
658.876	5731.75
659.068	5565.87
659.26	5674.41
659.452	5627.31
659.644	5596.59
659.836	5473.71
660.028	5496.24
660.22	5408.17
660.412	5268.91
660.604	5381.55
660.796	5342.64
660.988	5371.31
661.18	5309.87
661.372	5137.84
661.563	5342.64
661.755	5324.21
661.947	5244.34
662.139	5076.4
662.331	5199.28
662.522	5103.03
662.714	5154.23
662.906	5178.8
663.097	5100.98
663.289	5086.64
663.481	5109.17
663.673	4996.53
663.864	5002.68
664.056	4974
664.247	4920.76
664.439	4902.33
664.631	4890.04
664.822	4906.42
665.014	4910.52
665.205	4924.85
665.397	4736.44
665.588	4877.75
665.78	4881.85
665.971	4699.58
666.163	4726.2
666.354	4756.92
666.546	4679.1
666.737	4623.8
666.929	4701.62
667.12	4603.32
667.311	4670.9
667.503	4562.36
667.694	4580.79
667.885	4548.03
668.077	4492.73
668.268	4511.16
668.459	4617.66
668.651	4328.89
668.842	4560.31
669.033	4470.2
669.224	4341.18
669.416	4437.44
669.607	4425.15
669.798	4410.81
669.989	4492.73
670.18	4255.17
670.371	4367.81
670.563	4238.78
670.754	4281.79
670.945	4249.02
671.136	4339.13
671.327	4306.37
671.518	4355.52
671.709	4357.57
671.9	4179.39
672.091	4294.08
672.282	4070.85
672.473	4146.62
672.664	4218.3
672.855	4128.19
673.046	4068.8
673.237	4212.16
673.428	4251.07
673.619	4036.03
673.809	4124.1
674	4124.1
674.191	4060.61
674.382	4001.22
674.573	4085.19
674.764	4126.15
674.954	4089.28
675.145	4036.03
675.336	4154.82
675.527	4056.51
675.717	3970.5
675.908	4003.27
676.099	4019.65
676.289	4095.43
676.48	3995.08
676.671	3929.54
676.861	4009.41
677.052	3933.64
677.243	3974.6
677.433	3966.4
677.624	3947.97
677.814	4054.47
678.005	3921.35
678.195	4027.84
678.386	3958.21
678.576	4052.42
678.767	3950.02
678.957	3976.64
679.148	3945.92
679.338	4023.75
679.529	3898.82
679.719	4050.37
679.909	3917.25
680.1	4005.31
680.29	3982.79
680.481	4081.09
680.671	3988.93
680.861	4044.23
681.052	3956.16
681.242	3921.35
681.432	3861.96
681.622	3915.2
681.813	3964.36
682.003	3816.9
682.193	3835.33
682.383	3958.21
682.573	4167.1
682.764	3800.52
682.954	3868.1
683.144	3890.63
683.334	3868.1
683.524	3931.59
683.714	3874.24
683.904	3829.19
684.094	3884.48
684.284	3923.4
684.474	3855.81
684.664	3927.49
684.854	3837.38
685.044	3923.4
685.234	3804.61
685.424	3816.9
685.614	3851.72
685.804	3945.92
685.994	3755.46
686.184	3745.22
686.374	3745.22
686.564	3796.42
686.753	3904.96
686.943	3673.54
687.133	3716.55
687.323	3751.37
687.513	3767.75
687.702	3648.97
687.892	3798.47
688.082	3841.48
688.272	3732.94
688.461	3560.91
688.651	3675.59
688.841	3628.49
689.03	3556.81
689.22	3669.45
689.41	3565
689.599	3583.43
689.789	3694.02
689.979	3646.92
690.168	3538.38
690.358	3417.55
690.547	3421.64
690.737	3745.22
690.926	3421.64
691.116	3483.08
691.305	3483.08
691.495	3474.89
691.684	3325.39
691.874	3399.12
692.063	3544.52
692.252	3323.34
692.442	3325.39
692.631	3327.44
692.82	3384.78
693.01	3302.86
693.199	3417.55
693.388	3329.49
693.578	3263.95
693.767	3356.11
693.956	3261.9
694.146	3311.05
694.335	3286.48
694.524	3114.45
694.713	3261.9
694.902	3259.85
695.092	3280.33
695.281	3321.29
695.47	3288.53
695.659	3255.76
695.848	3266
696.037	3169.74
696.226	3214.8
696.415	3261.9
696.604	3401.16
696.793	3261.9
696.982	3296.72
697.171	3175.89
697.36	3216.85
697.549	3286.48
697.738	3229.13
697.927	3110.35
698.116	3206.61
698.305	3151.31
698.494	3210.7
698.683	3096.02
698.872	3204.56
699.061	3057.11
699.25	3038.67
699.438	3253.71
699.627	3212.75
699.816	3278.29
700.005	3053.01
700.193	3167.7
700.382	3147.22
700.571	3165.65
700.76	3081.68
700.948	3175.89
701.137	3188.18
701.326	3202.51
701.514	3261.9
701.703	3007.95
701.892	3161.55
702.08	3173.84
702.269	3087.82
702.457	3120.59
702.646	3093.97
702.834	3175.89
703.023	3229.13
703.212	3214.8
703.4	3204.56
703.589	3112.4
703.777	3202.51
703.965	3196.37
704.154	3179.98
704.342	3163.6
704.531	3098.06
704.719	3005.91
704.907	3222.99
705.096	3220.94
705.284	3302.86
705.472	3147.22
705.661	3081.68
705.849	3196.37
706.037	3237.33
706.226	3159.5
706.414	3173.84
706.602	3151.31
706.79	3270.09
706.979	3118.54
707.167	3206.61
707.355	3196.37
707.543	3073.49
707.731	3282.38
707.919	3089.87
708.107	3139.02
708.296	3270.09
708.484	3206.61
708.672	3286.48
708.86	3171.79
709.048	3065.3
709.236	3241.42
709.424	3233.23
709.612	3182.03
709.8	3227.09
709.988	3128.78
710.176	3304.91
710.364	3257.81
710.551	3222.99
710.739	3126.74
710.927	3253.71
711.115	3280.33
711.303	3227.09
711.491	3161.55
711.679	3276.24
711.866	3270.09
712.054	3296.72
712.242	3229.13
712.43	3257.81
712.617	3335.63
712.805	3225.04
712.993	3280.33
713.181	3108.3
713.368	3257.81
713.556	3229.13
713.744	3229.13
713.931	3444.17
714.119	3384.78
714.306	3319.25
714.494	3304.91
714.682	3261.9
714.869	3231.18
715.057	3235.28
715.244	3216.85
715.432	3245.52
715.619	3286.48
715.807	3454.41
715.994	3319.25
716.182	3337.68
716.369	3163.6
716.556	3321.29
716.744	3190.22
716.931	3200.46
717.119	3364.3
717.306	3259.85
717.493	3163.6
717.681	3313.1
717.868	3175.89
718.055	3245.52
718.242	3278.29
718.43	3120.59
718.617	3212.75
718.804	3276.24
718.991	3157.46
719.179	3370.44
719.366	3335.63
719.553	3380.68
719.74	3319.25
719.927	3466.7
720.114	3309.01
720.301	3163.6
720.488	3409.36
720.676	3218.89
720.863	3384.78
721.05	3216.85
721.237	3216.85
721.424	3155.41
721.611	3306.96
721.798	3288.53
721.985	3268.05
722.172	3280.33
722.358	3257.81
722.545	3257.81
722.732	3204.56
722.919	3247.57
723.106	3390.92
723.293	3354.06
723.48	3315.15
723.667	3327.44
723.853	3050.96
724.04	3352.01
724.227	3259.85
724.414	3165.65
724.6	3147.22
724.787	3280.33
724.974	3323.34
725.161	3276.24
725.347	3190.22
725.534	3241.42
725.72	3186.13
725.907	3323.34
726.094	3268.05
726.28	3186.13
726.467	3204.56
726.653	3304.91
726.84	3218.89
727.027	3294.67
727.213	3200.46
727.4	3227.09
727.586	3147.22
727.773	3206.61
727.959	3294.67
728.145	3241.42
728.332	3251.66
728.518	3245.52
728.705	3382.73
728.891	3253.71
729.077	3259.85
729.264	3194.32
729.45	3122.64
729.636	3259.85
729.823	3132.88
730.009	3237.33
730.195	3190.22
730.382	3233.23
730.568	3290.57
730.754	3276.24
730.94	3257.81
731.126	3300.81
731.313	3302.86
731.499	3196.37
731.685	3186.13
731.871	3231.18
732.057	3171.79
732.243	3278.29
732.429	3169.74
732.615	3392.97
732.801	3259.85
732.987	3194.32
733.173	3233.23
733.359	3309.01
733.545	3106.26
733.731	3190.22
733.917	3065.3
734.103	3237.33
734.289	3147.22
734.475	3165.65
734.661	3370.44
734.847	3227.09
735.033	3200.46
735.219	3093.97
735.404	3198.42
735.59	3096.02
735.776	3196.37
735.962	3110.35
736.148	3077.59
736.333	3175.89
736.519	3102.16
736.705	3104.21
736.89	3073.49
737.076	2977.23
737.262	3067.35
737.447	3048.91
737.633	3067.35
737.819	3053.01
738.004	3098.06
738.19	3026.39
738.375	3163.6
738.561	3067.35
738.747	3040.72
738.932	3053.01
739.118	3014.1
739.303	3050.96
739.489	2993.62
739.674	3048.91
739.859	2921.94
740.045	2944.47
740.23	3016.15
740.416	2874.84
740.601	3020.24
740.786	2895.32
740.972	2864.6
741.157	2848.21
741.342	2844.12
741.528	2899.41
741.713	2917.84
741.898	2790.87
742.084	2858.45
742.269	2860.5
742.454	2817.49
742.639	2897.36
742.824	2872.79
743.01	2856.4
743.195	2876.88
743.38	2915.8
743.565	2749.91
743.75	2700.76
743.935	2692.57
744.12	2842.07
744.305	2676.18
744.49	2708.95
744.675	2737.62
744.86	2735.57
745.045	2794.97
745.23	2639.32
745.415	2598.36
745.6	2610.65
745.785	2737.62
745.97	2567.64
746.155	2512.35
746.34	2635.22
746.525	2614.74
746.71	2614.74
746.895	2414.04
747.079	2516.44
747.264	2442.71
747.449	2516.44
747.634	2463.19
747.819	2493.91
748.003	2432.47
748.188	2299.36
748.373	2418.14
748.557	2342.36
748.742	2412
748.927	2258.4
749.111	2340.32
749.296	2338.27
749.481	2393.56
749.665	2278.88
749.85	2336.22
750.034	2325.98
750.219	2254.3
750.404	2242.01
750.588	2260.45
750.773	2160.1
750.957	2276.83
751.141	2213.34
751.326	2309.6
751.51	2018.79
751.695	2106.85
751.879	2098.66
752.064	2199.01
752.248	2106.85
752.432	2133.47
752.617	1992.16
752.801	2086.37
752.985	2000.35
753.17	2074.08
753.354	2098.66
753.538	1990.11
753.722	2045.41
753.907	1965.54
754.091	1867.24
754.275	1918.43
754.459	1881.57
754.643	1877.48
754.828	1981.92
755.012	1857
755.196	1959.39
755.38	1883.62
755.564	1799.65
755.748	1840.61
755.932	1830.37
756.116	1707.49
756.3	1803.75
756.484	1701.35
756.668	1691.11
756.852	1664.49
757.036	1732.07
757.22	1693.16
757.404	1644.01
757.588	1639.91
757.772	1668.58
757.956	1607.14
758.14	1676.77
758.323	1512.94
758.507	1549.8
758.691	1605.1
758.875	1617.38
759.059	1654.25
759.242	1449.45
759.426	1557.99
759.61	1570.28
759.794	1689.06
759.977	1527.27
760.161	1582.57
760.345	1574.38
760.528	1662.44
760.712	1545.7
760.895	1533.42
761.079	1521.13
761.263	1414.63
761.446	1517.03
761.63	1439.21
761.813	1392.11
761.997	1451.5
762.18	1426.92
762.364	1267.18
762.547	1379.82
762.731	1402.35
762.914	1394.15
763.098	1467.88
763.281	1377.77
763.464	1465.83
763.648	1400.3
763.831	1422.83
764.015	1367.53
764.198	1347.05
764.381	1304.04
764.564	1275.37
764.748	1273.32
764.931	1345
765.114	1316.33
765.297	1355.24
765.481	1275.37
765.664	1332.72
765.847	1353.2
766.03	1177.07
766.213	1238.51
766.397	1306.09
766.58	1146.35
766.763	1332.72
766.946	1263.08
767.129	1148.4
767.312	1209.84
767.495	1254.89
767.678	1197.55
767.861	1224.17
768.044	1316.33
768.227	1283.56
768.41	1193.45
768.593	1246.7
768.776	1195.5
768.959	1230.32
769.142	1177.07
769.324	1127.92
769.507	1179.12
769.69	1099.25
769.873	1148.4
770.056	1271.28
770.239	1111.54
770.421	1181.17
770.604	1105.39
770.787	1119.73
770.97	1168.88
771.152	1127.92
771.335	1181.17
771.518	937.46
771.7	1101.3
771.883	1121.77
772.066	1134.06
772.248	1107.44
772.431	1129.97
772.613	1050.1
772.796	1023.47
772.978	1103.34
773.161	955.89
773.343	988.66
773.526	1021.42
773.708	984.56
773.891	910.83
774.073	982.51
774.256	1011.18
774.438	916.98
774.621	941.55
774.803	1035.76
774.985	886.26
775.168	878.07
775.35	859.63
775.532	921.07
775.715	914.93
775.897	984.56
776.079	826.87
776.261	886.26
776.444	894.45
776.626	919.03
776.808	878.07
776.99	730.61
777.173	894.45
777.355	841.2
777.537	800.24
777.719	882.16
777.901	763.38
778.083	792.05
778.265	816.63
778.447	822.77
778.629	777.72
778.811	804.34
778.993	802.29
779.175	894.45
779.357	898.55
779.539	763.38
779.721	781.81
779.903	773.62
780.085	744.95
780.267	716.28
780.449	810.48
780.631	798.2
780.812	763.38
780.994	677.37
781.176	703.99
781.358	712.18
781.54	671.22
781.721	638.45
781.903	730.61
782.085	691.7
782.267	738.8
782.448	669.17
782.63	687.61
782.812	644.6
782.993	642.55
783.175	564.73
783.357	638.45
783.538	656.89
783.72	599.54
783.901	638.45
784.083	689.65
784.264	519.67
784.446	595.45
784.627	591.35
784.809	640.5
784.99	613.88
785.172	605.69
785.353	579.06
785.535	536.06
785.716	583.16
785.897	523.77
786.079	585.21
786.26	556.54
786.441	646.65
786.623	491
786.804	531.96
786.985	552.44
787.167	513.53
787.348	562.68
787.529	611.83
787.71	593.4
787.891	529.91
788.073	460.28
788.254	499.19
788.435	574.97
788.616	450.04
788.797	523.77
788.978	468.47
789.159	493.05
789.34	529.91
789.522	538.1
789.703	353.79
789.884	443.9
790.065	488.95
790.246	507.38
790.427	452.09
790.607	513.53
790.788	468.47
790.969	488.95
791.15	450.04
791.331	433.66
791.512	411.13
791.693	402.94
791.874	357.88
792.054	497.14
792.235	447.99
792.416	443.9
792.597	445.95
792.778	460.28
792.958	458.23
793.139	382.46
793.32	357.88
793.5	419.32
793.681	361.98
793.862	435.71
794.042	382.46
794.223	353.79
794.404	419.32
794.584	302.59
794.765	370.17
794.945	425.47
795.126	364.03
795.306	357.88
795.487	374.27
795.667	366.07
795.848	413.18
796.028	310.78
796.209	359.93
796.389	286.2
796.57	460.28
796.75	349.69
796.93	380.41
797.111	347.64
797.291	349.69
797.471	347.64
797.652	337.4
797.832	378.36
798.012	321.02
798.192	282.11
798.373	308.73
798.553	347.64
798.733	300.54
798.913	339.45
799.093	368.12
799.274	392.7
799.454	335.35
799.634	388.6
799.814	392.7
799.994	351.74
800.174	275.96
800.354	353.79
800.534	261.63
800.714	341.5
800.894	294.4
801.074	337.4
801.254	280.06
801.434	351.74
801.614	349.69
801.794	333.31
801.974	882.16
802.154	296.44
802.334	351.74
802.514	271.87
802.693	331.26
802.873	312.83
803.053	353.79
803.233	210.43
803.413	280.06
803.592	288.25
803.772	245.24
803.952	329.21
804.131	284.16
804.311	288.25
804.491	261.63
804.67	257.53
804.85	257.53
805.03	261.63
805.209	271.87
805.389	204.28
805.568	271.87
805.748	210.43
805.928	294.4
806.107	224.76
806.287	263.68
806.466	239.1
806.646	265.72
806.825	327.16
807.004	304.64
807.184	206.33
807.363	296.44
807.543	261.63
807.722	212.48
807.901	290.3
808.081	247.29
808.26	206.33
808.439	206.33
808.619	263.68
808.798	235
808.977	230.91
809.156	251.39
809.336	239.1
809.515	235
809.694	230.91
809.873	257.53
810.052	214.52
810.231	218.62
810.411	296.44
810.59	280.06
810.769	265.72
810.948	155.13
811.127	169.47
811.306	208.38
811.485	278.01
811.664	243.2
811.843	216.57
812.022	243.2
812.201	189.95
812.38	202.24
812.559	159.23
812.737	210.43
812.916	198.14
813.095	136.7
813.274	247.29
813.453	202.24
813.632	245.24
813.811	204.28
813.989	181.76
814.168	214.52
814.347	204.28
814.526	171.52
814.704	286.2
814.883	206.33
815.062	157.18
815.24	159.23
815.419	187.9
815.598	181.76
815.776	151.04
815.955	226.81
816.133	126.46
816.312	187.9
816.49	206.33
816.669	165.37
816.847	148.99
817.026	222.72
817.204	161.28
817.383	255.48
817.561	198.14
817.74	175.61
817.918	185.85
818.097	169.47
818.275	169.47
818.453	247.29
818.632	130.56
818.81	155.13
818.988	171.52
819.167	155.13
819.345	165.37
819.523	204.28
819.701	163.33
819.879	218.62
820.058	228.86
820.236	189.95
820.414	136.7
820.592	173.57
820.77	95.74
820.948	155.13
821.127	142.85
821.305	167.42
821.483	103.93
821.661	181.76
821.839	204.28
822.017	216.57
822.195	165.37
822.373	114.17
822.551	194.05
822.729	124.41
822.907	112.13
823.085	112.13
823.262	116.22
823.44	110.08
823.618	177.66
823.796	161.28
823.974	75.26
824.152	132.61
824.329	75.26
824.507	120.32
824.685	91.65
824.863	132.61
825.04	148.99
825.218	222.72
825.396	177.66
825.574	173.57
825.751	161.28
825.929	165.37
826.107	108.03
826.284	136.7
826.462	83.45
826.639	142.85
826.817	95.74
826.994	79.36
827.172	134.65
827.349	153.09
827.527	112.13
827.704	99.84
827.882	122.37
828.059	142.85
828.237	108.03
828.414	163.33
828.591	116.22
828.769	206.33
828.946	159.23
829.124	189.95
829.301	120.32
829.478	67.07
829.655	103.93
829.833	155.13
830.01	93.69
830.187	122.37
830.364	103.93
830.542	130.56
830.719	99.84
830.896	142.85
831.073	187.9
831.25	99.84
831.427	95.74
831.604	179.71
831.782	91.65
831.959	138.75
832.136	91.65
832.313	124.41
832.49	73.21
832.667	110.08
832.844	151.04
833.021	196.09
833.198	122.37
833.374	83.45
833.551	130.56
833.728	101.89
833.905	165.37
834.082	99.84
834.259	103.93
834.436	103.93
834.612	75.26
834.789	116.22
834.966	128.51
835.143	85.5
835.319	128.51
835.496	87.55
835.673	71.17
835.85	124.41
836.026	79.36
836.203	81.41
836.38	134.65
836.556	38.4
836.733	26.11
836.909	79.36
837.086	189.95
837.262	54.78
837.439	95.74
837.616	112.13
837.792	169.47
837.968	108.03
838.145	118.27
838.321	62.98
838.498	108.03
838.674	122.37
838.851	81.41
839.027	77.31
839.203	116.22
839.38	153.09
839.556	105.98
839.732	87.55
839.909	67.07
840.085	179.71
840.261	32.26
840.437	79.36
840.614	22.02
840.79	95.74
840.966	183.81
841.142	157.18
841.318	105.98
841.494	124.41
841.671	118.27
841.847	97.79
842.023	93.69
842.199	142.85
842.375	77.31
842.551	56.83
842.727	124.41
842.903	146.94
843.079	24.06
843.255	40.45
843.431	54.78
843.607	71.17
843.783	50.69
843.959	112.13
844.134	83.45
844.31	67.07
844.486	112.13
844.662	26.11
844.838	67.07
845.013	93.69
845.189	99.84
845.365	120.32
845.541	122.37
845.716	132.61
845.892	75.26
846.068	54.78
846.244	75.26
846.419	38.4
846.595	56.83
846.77	75.26
846.946	192
847.122	38.4
847.297	44.54
847.473	108.03
847.648	118.27
847.824	134.65
847.999	13.82
848.175	128.51
848.35	1.54
848.526	60.93
848.701	42.5
848.876	124.41
849.052	79.36
849.227	99.84
849.403	44.54
849.578	136.7
849.753	24.06
849.929	40.45
850.104	83.45
850.279	75.26
850.454	60.93
850.63	103.93
850.805	71.17
850.98	58.88
851.155	22.02
851.33	75.26
851.505	-25.09
851.681	103.93
851.856	73.21
852.031	95.74
852.206	75.26
852.381	42.5
852.556	73.21
852.731	42.5
852.906	93.69
853.081	105.98
853.256	38.4
853.431	-4.61
853.606	91.65
853.781	71.17
853.956	26.11
854.131	101.89
854.305	36.35
854.48	-31.23
854.655	-27.14
854.83	36.35
855.005	65.02
855.18	38.4
855.354	-6.66
855.529	48.64
855.704	-4.61
855.879	67.07
856.053	32.26
856.228	67.07
856.403	62.98
856.577	128.51
856.752	50.69
856.926	17.92
857.101	120.32
857.276	32.26
857.45	-8.7
857.625	30.21
857.799	-20.99
857.974	44.54
858.148	17.92
858.323	75.26
858.497	7.68
858.672	-14.85
858.846	71.17
859.02	87.55
859.195	42.5
859.369	79.36
859.543	36.35
859.718	-29.18
859.892	-20.99
860.066	26.11
860.241	44.54
860.415	17.92
860.589	-31.23
860.763	40.45
860.938	28.16
861.112	32.26
861.286	50.69
861.46	5.63
861.634	114.17
861.808	38.4
861.982	67.07
862.157	62.98
862.331	32.26
862.505	87.55
862.679	-51.71
862.853	93.69
863.027	-33.28
863.201	-6.66
863.375	73.21
863.549	17.92
863.722	-16.9
863.896	85.5
864.07	22.02
864.244	5.63
864.418	118.27
864.592	71.17
864.766	38.4
864.939	75.26
865.113	-20.99
865.287	19.97
865.461	-47.62
865.634	11.78
865.808	108.03
865.982	56.83
866.156	65.02
866.329	-0.51
866.503	30.21
866.676	44.54
866.85	32.26
867.024	87.55
867.197	56.83
867.371	54.78
867.544	-10.75
867.718	40.45
867.891	138.75
868.065	-6.66
868.238	9.73
868.412	52.74
868.585	-27.14
868.759	32.26
868.932	-4.61
869.105	67.07
869.279	38.4
869.452	75.26
869.625	62.98
869.799	1.54
869.972	-12.8
870.145	36.35
870.319	24.06
870.492	28.16
870.665	-6.66
870.838	9.73
871.011	-45.57
871.185	-29.18
871.358	13.82
871.531	38.4
871.704	5.63
871.877	19.97
872.05	60.93
872.223	1.54
872.396	56.83
872.569	17.92
872.742	-23.04
872.915	89.6
873.088	48.64
873.261	7.68
873.434	-6.66
873.607	24.06
873.78	95.74
873.953	34.3
874.126	-31.23
874.299	38.4
874.471	26.11
874.644	7.68
874.817	-12.8
874.99	108.03
875.163	-51.71
875.335	30.21
875.508	54.78
875.681	87.55
875.853	34.3
876.026	28.16
876.199	7.68
876.371	58.88
876.544	40.45
876.717	62.98
876.889	-2.56
877.062	17.92
877.234	34.3
877.407	87.55
877.579	19.97
877.752	-33.28
877.924	-0.51
878.097	-10.75
878.269	15.87
878.442	79.36
878.614	13.82
878.786	30.21
878.959	-4.61
879.131	-16.9
879.303	-16.9
879.476	-6.66
879.648	26.11
879.82	1.54
879.993	67.07
880.165	67.07
880.337	9.73
880.509	58.88
880.681	-33.28
880.854	13.82
881.026	71.17
881.198	65.02
881.37	-37.38
881.542	-16.9
881.714	28.16
881.886	28.16
882.058	7.68
882.23	54.78
882.402	5.63
882.574	79.36
882.746	-10.75
882.918	83.45
883.09	-37.38
883.262	42.5
883.434	73.21
883.606	34.3
883.778	42.5
883.95	44.54
884.122	-39.42
884.293	13.82
884.465	54.78
884.637	58.88
884.809	65.02
884.98	34.3
885.152	40.45
885.324	34.3
885.496	105.98
885.667	-14.85
885.839	-61.95
886.011	75.26
886.182	42.5
886.354	38.4
886.525	42.5
886.697	-39.42
886.869	30.21
887.04	-16.9
887.212	85.5
887.383	130.56
887.555	56.83
887.726	-12.8
887.897	44.54
888.069	9.73
888.24	69.12
888.412	28.16
888.583	-53.76
888.754	-10.75
888.926	-94.72
889.097	-41.47
889.268	-25.09
889.44	24.06
889.611	30.21
889.782	30.21
889.953	32.26
890.125	65.02
890.296	-47.62
890.467	9.73
890.638	83.45
890.809	-33.28
890.98	40.45
891.151	50.69
891.323	38.4
891.494	46.59
891.665	89.6
891.836	-20.99
892.007	9.73
892.178	75.26
892.349	-18.94
892.52	-0.51
892.691	28.16
892.862	83.45
893.032	-16.9
893.203	7.68
893.374	-2.56
893.545	40.45
893.716	95.74
893.887	75.26
894.057	34.3
894.228	32.26
894.399	-6.66
894.57	38.4
894.74	28.16
894.911	34.3
895.082	-33.28
895.253	-35.33
895.423	30.21
895.594	40.45
895.764	58.88
895.935	-8.7
896.106	-8.7
896.276	9.73
896.447	-18.94
896.617	58.88
896.788	-4.61
896.958	40.45
897.129	-51.71
897.299	-20.99
897.47	67.07
897.64	-39.42
897.81	32.26
897.981	93.69
898.151	17.92
898.322	26.11
898.492	62.98
898.662	48.64
898.832	-27.14
899.003	1.54
899.173	50.69
899.343	17.92
899.513	-10.75
