Data from USB4F104151__199__10-29-31-918.txt Node

Date: Wed Mar 12 10:29:31 EDT 2025
User: louis
Spectrometer: USB4F10415
Trigger mode: 4
Integration Time (sec): 3.000000E-2
Scans to average: 1
Electric dark correction enabled: true
Nonlinearity correction enabled: false
Boxcar width: 0
XAxis mode: Wavelengths
Number of Pixels in Spectrum: 3648
>>>>>Begin Spectral Data<<<<<
178.204	-114
178.424	-114
178.644	-114
178.864	-97.62
179.084	-116.05
179.304	-62.8
179.524	-15.7
179.744	-27.99
179.964	39.59
180.184	-15.7
180.404	41.64
180.624	35.5
180.844	-1.37
181.064	-1.37
181.283	-7.51
181.503	29.35
181.723	-13.65
181.943	-101.72
182.163	88.75
182.383	-5.46
182.602	25.26
182.822	10.92
183.042	21.16
183.262	-32.08
183.482	88.75
183.701	68.27
183.921	33.45
184.141	-23.89
184.361	19.11
184.58	96.94
184.8	68.27
185.02	37.55
185.239	123.56
185.459	53.93
185.679	66.22
185.898	-17.75
186.118	49.83
186.338	53.93
186.557	74.41
186.777	43.69
186.997	-19.8
187.216	21.16
187.436	76.46
187.655	-7.51
187.875	0.68
188.095	0.68
188.314	98.99
188.534	33.45
188.753	62.12
188.973	55.98
189.192	-34.13
189.412	55.98
189.631	27.31
189.851	109.23
190.07	58.03
190.29	25.26
190.509	25.26
190.729	39.59
190.948	-23.89
191.168	103.08
191.387	78.51
191.607	-50.52
191.826	47.79
192.045	43.69
192.265	19.11
192.484	66.22
192.704	156.33
192.923	-38.23
193.142	133.8
193.362	-25.94
193.581	33.45
193.8	4.78
194.02	39.59
194.239	47.79
194.458	72.36
194.678	17.07
194.897	72.36
195.116	8.87
195.335	-30.04
195.555	-32.08
195.774	-1.37
195.993	-32.08
196.212	41.64
196.432	-11.61
196.651	47.79
196.87	-1.37
197.089	117.42
197.308	31.4
197.528	74.41
197.747	-23.89
197.966	35.5
198.185	10.92
198.404	21.16
198.623	8.87
198.842	70.31
199.062	82.6
199.281	33.45
199.5	-62.8
199.719	25.26
199.938	8.87
200.157	31.4
200.376	31.4
200.595	31.4
200.814	21.16
201.033	-9.56
201.252	62.12
201.471	29.35
201.69	86.7
201.909	4.78
202.128	66.22
202.347	41.64
202.566	-38.23
202.785	41.64
203.004	70.31
203.223	78.51
203.442	58.03
203.661	-5.46
203.879	-66.9
204.098	70.31
204.317	8.87
204.536	70.31
204.755	31.4
204.974	41.64
205.193	27.31
205.411	88.75
205.63	-48.47
205.849	74.41
206.068	41.64
206.287	-3.41
206.505	117.42
206.724	-64.85
206.943	58.03
207.162	23.21
207.381	58.03
207.599	82.6
207.818	21.16
208.037	17.07
208.255	45.74
208.474	37.55
208.693	45.74
208.911	74.41
209.13	21.16
209.349	62.12
209.567	92.84
209.786	45.74
210.005	-40.28
210.223	47.79
210.442	-50.52
210.661	-5.46
210.879	-25.94
211.098	10.92
211.316	21.16
211.535	-7.51
211.753	92.84
211.972	-30.04
212.191	66.22
212.409	37.55
212.628	88.75
212.846	17.07
213.065	-1.37
213.283	47.79
213.502	58.03
213.72	27.31
213.938	131.75
214.157	-11.61
214.375	66.22
214.594	-50.52
214.812	17.07
215.031	37.55
215.249	8.87
215.467	51.88
215.686	-21.84
215.904	90.79
216.122	-56.66
216.341	90.79
216.559	-1.37
216.778	86.7
216.996	-44.37
217.214	17.07
217.432	-21.84
217.651	21.16
217.869	15.02
218.087	25.26
218.306	33.45
218.524	6.83
218.742	29.35
218.96	82.6
219.179	-34.13
219.397	41.64
219.615	109.23
219.833	49.83
220.051	-15.7
220.27	25.26
220.488	51.88
220.706	39.59
220.924	4.78
221.142	-1.37
221.36	-21.84
221.578	-23.89
221.796	78.51
222.015	25.26
222.233	27.31
222.451	74.41
222.669	49.83
222.887	31.4
223.105	31.4
223.323	105.13
223.541	25.26
223.759	10.92
223.977	-1.37
224.195	4.78
224.413	21.16
224.631	62.12
224.849	-15.7
225.067	90.79
225.285	0.68
225.503	17.07
225.721	-27.99
225.939	55.98
226.157	31.4
226.375	115.37
226.592	12.97
226.81	41.64
227.028	27.31
227.246	133.8
227.464	33.45
227.682	60.07
227.9	103.08
228.117	58.03
228.335	111.27
228.553	55.98
228.771	33.45
228.989	-36.18
229.206	51.88
229.424	96.94
229.642	-11.61
229.86	43.69
230.077	33.45
230.295	35.5
230.513	29.35
230.731	127.66
230.948	105.13
231.166	82.6
231.384	8.87
231.601	-7.51
231.819	25.26
232.037	-11.61
232.254	55.98
232.472	25.26
232.689	6.83
232.907	41.64
233.125	35.5
233.342	21.16
233.56	0.68
233.777	6.83
233.995	101.03
234.213	66.22
234.43	4.78
234.648	41.64
234.865	17.07
235.083	101.03
235.3	6.83
235.518	49.83
235.735	15.02
235.953	96.94
236.17	17.07
236.388	80.55
236.605	53.93
236.822	-7.51
237.04	84.65
237.257	103.08
237.475	-13.65
237.692	29.35
237.909	0.68
238.127	33.45
238.344	55.98
238.562	37.55
238.779	-1.37
238.996	0.68
239.214	64.17
239.431	41.64
239.648	55.98
239.865	-7.51
240.083	123.56
240.3	70.31
240.517	4.78
240.735	78.51
240.952	78.51
241.169	29.35
241.386	33.45
241.603	-19.8
241.821	-9.56
242.038	4.78
242.255	31.4
242.472	-50.52
242.689	-54.61
242.907	17.07
243.124	96.94
243.341	8.87
243.558	0.68
243.775	29.35
243.992	33.45
244.209	68.27
244.426	0.68
244.643	70.31
244.86	27.31
245.078	51.88
245.295	53.93
245.512	47.79
245.729	-11.61
245.946	60.07
246.163	49.83
246.38	60.07
246.597	121.51
246.814	78.51
247.031	23.21
247.248	64.17
247.464	4.78
247.681	66.22
247.898	39.59
248.115	12.97
248.332	45.74
248.549	82.6
248.766	10.92
248.983	-5.46
249.2	12.97
249.417	121.51
249.633	-89.43
249.85	17.07
250.067	-11.61
250.284	64.17
250.501	84.65
250.717	25.26
250.934	-25.94
251.151	49.83
251.368	60.07
251.585	49.83
251.801	10.92
252.018	111.27
252.235	125.61
252.451	43.69
252.668	2.73
252.885	53.93
253.102	6.83
253.318	25.26
253.535	33.45
253.752	64.17
253.968	66.22
254.185	45.74
254.401	35.5
254.618	60.07
254.835	-34.13
255.051	135.85
255.268	25.26
255.484	-7.51
255.701	-11.61
255.917	43.69
256.134	-3.41
256.351	-30.04
256.567	-32.08
256.784	37.55
257	31.4
257.217	96.94
257.433	37.55
257.65	-9.56
257.866	23.21
258.082	-17.75
258.299	25.26
258.515	-11.61
258.732	-7.51
258.948	8.87
259.165	-48.47
259.381	21.16
259.597	23.21
259.814	-13.65
260.03	68.27
260.246	10.92
260.463	45.74
260.679	45.74
260.895	82.6
261.112	-30.04
261.328	25.26
261.544	-5.46
261.761	84.65
261.977	-40.28
262.193	-19.8
262.409	45.74
262.626	15.02
262.842	-46.42
263.058	33.45
263.274	29.35
263.49	80.55
263.707	80.55
263.923	-3.41
264.139	29.35
264.355	8.87
264.571	80.55
264.787	107.18
265.004	58.03
265.22	-1.37
265.436	74.41
265.652	-17.75
265.868	70.31
266.084	25.26
266.3	39.59
266.516	29.35
266.732	21.16
266.948	-42.32
267.164	-34.13
267.38	25.26
267.596	113.32
267.812	45.74
268.028	17.07
268.244	51.88
268.46	68.27
268.676	19.11
268.892	70.31
269.108	21.16
269.324	41.64
269.54	-19.8
269.756	51.88
269.972	107.18
270.188	15.02
270.403	6.83
270.619	-3.41
270.835	15.02
271.051	86.7
271.267	-73.04
271.483	-7.51
271.698	17.07
271.914	37.55
272.13	62.12
272.346	53.93
272.562	0.68
272.777	90.79
272.993	21.16
273.209	60.07
273.425	-17.75
273.64	6.83
273.856	35.5
274.072	51.88
274.287	29.35
274.503	98.99
274.719	66.22
274.934	82.6
275.15	-5.46
275.366	25.26
275.581	27.31
275.797	2.73
276.012	49.83
276.228	31.4
276.444	53.93
276.659	4.78
276.875	-23.89
277.09	53.93
277.306	86.7
277.521	12.97
277.737	-25.94
277.952	62.12
278.168	49.83
278.383	6.83
278.599	-5.46
278.814	39.59
279.03	92.84
279.245	82.6
279.461	25.26
279.676	72.36
279.892	-40.28
280.107	41.64
280.322	64.17
280.538	88.75
280.753	66.22
280.969	0.68
281.184	-15.7
281.399	49.83
281.615	72.36
281.83	43.69
282.045	23.21
282.26	-19.8
282.476	45.74
282.691	70.31
282.906	72.36
283.122	78.51
283.337	53.93
283.552	15.02
283.767	-40.28
283.983	41.64
284.198	-40.28
284.413	2.73
284.628	-36.18
284.843	15.02
285.058	86.7
285.274	2.73
285.489	-15.7
285.704	45.74
285.919	58.03
286.134	-13.65
286.349	8.87
286.564	139.94
286.779	115.37
286.995	90.79
287.21	15.02
287.425	96.94
287.64	-17.75
287.855	96.94
288.07	-11.61
288.285	41.64
288.5	62.12
288.715	29.35
288.93	33.45
289.145	43.69
289.36	37.55
289.575	15.02
289.79	98.99
290.004	55.98
290.219	88.75
290.434	74.41
290.649	-27.99
290.864	-11.61
291.079	-48.47
291.294	33.45
291.509	109.23
291.724	66.22
291.938	117.42
292.153	41.64
292.368	45.74
292.583	74.41
292.798	6.83
293.012	86.7
293.227	-15.7
293.442	55.98
293.657	0.68
293.871	35.5
294.086	8.87
294.301	92.84
294.516	80.55
294.73	23.21
294.945	45.74
295.16	72.36
295.374	4.78
295.589	103.08
295.804	66.22
296.018	-15.7
296.233	76.46
296.447	41.64
296.662	39.59
296.877	41.64
297.091	33.45
297.306	78.51
297.52	-1.37
297.735	33.45
297.949	35.5
298.164	4.78
298.378	8.87
298.593	10.92
298.807	62.12
299.022	55.98
299.236	103.08
299.451	0.68
299.665	62.12
299.88	35.5
300.094	115.37
300.309	37.55
300.523	49.83
300.737	86.7
300.952	58.03
301.166	53.93
301.381	-9.56
301.595	90.79
301.809	103.08
302.024	6.83
302.238	19.11
302.452	58.03
302.667	45.74
302.881	-11.61
303.095	178.86
303.309	-3.41
303.524	-46.42
303.738	62.12
303.952	10.92
304.166	45.74
304.381	-32.08
304.595	6.83
304.809	90.79
305.023	70.31
305.237	68.27
305.452	17.07
305.666	70.31
305.88	21.16
306.094	8.87
306.308	49.83
306.522	88.75
306.736	58.03
306.95	139.94
307.164	47.79
307.379	49.83
307.593	127.66
307.807	55.98
308.021	25.26
308.235	121.51
308.449	31.4
308.663	-5.46
308.877	74.41
309.091	-11.61
309.305	84.65
309.519	10.92
309.733	62.12
309.947	2.73
310.161	43.69
310.374	47.79
310.588	98.99
310.802	-9.56
311.016	23.21
311.23	49.83
311.444	23.21
311.658	51.88
311.872	51.88
312.085	86.7
312.299	80.55
312.513	29.35
312.727	43.69
312.941	68.27
313.154	78.51
313.368	29.35
313.582	53.93
313.796	-44.37
314.009	21.16
314.223	43.69
314.437	82.6
314.651	47.79
314.864	35.5
315.078	4.78
315.292	53.93
315.505	96.94
315.719	25.26
315.933	96.94
316.146	-17.75
316.36	31.4
316.573	-7.51
316.787	113.32
317.001	96.94
317.214	35.5
317.428	33.45
317.641	6.83
317.855	-9.56
318.068	66.22
318.282	90.79
318.495	25.26
318.709	84.65
318.922	-15.7
319.136	101.03
319.349	41.64
319.563	29.35
319.776	80.55
319.99	70.31
320.203	131.75
320.417	4.78
320.63	55.98
320.843	45.74
321.057	84.65
321.27	19.11
321.483	76.46
321.697	78.51
321.91	45.74
322.124	39.59
322.337	12.97
322.55	41.64
322.763	-7.51
322.977	51.88
323.19	49.83
323.403	33.45
323.617	33.45
323.83	68.27
324.043	47.79
324.256	27.31
324.469	-32.08
324.683	53.93
324.896	-5.46
325.109	45.74
325.322	-7.51
325.535	80.55
325.748	90.79
325.962	15.02
326.175	55.98
326.388	43.69
326.601	72.36
326.814	47.79
327.027	-7.51
327.24	49.83
327.453	25.26
327.666	2.73
327.879	41.64
328.092	23.21
328.305	88.75
328.518	72.36
328.731	-25.94
328.944	8.87
329.157	53.93
329.37	8.87
329.583	82.6
329.796	49.83
330.009	23.21
330.222	82.6
330.435	39.59
330.648	70.31
330.861	-44.37
331.073	60.07
331.286	70.31
331.499	94.89
331.712	8.87
331.925	33.45
332.138	60.07
332.35	31.4
332.563	19.11
332.776	92.84
332.989	21.16
333.202	21.16
333.414	17.07
333.627	49.83
333.84	8.87
334.053	68.27
334.265	2.73
334.478	2.73
334.691	6.83
334.903	80.55
335.116	39.59
335.329	-9.56
335.541	29.35
335.754	68.27
335.966	45.74
336.179	74.41
336.392	45.74
336.604	-3.41
336.817	76.46
337.029	74.41
337.242	115.37
337.454	78.51
337.667	6.83
337.88	92.84
338.092	23.21
338.305	17.07
338.517	6.83
338.729	-25.94
338.942	45.74
339.154	47.79
339.367	23.21
339.579	58.03
339.792	29.35
340.004	76.46
340.217	27.31
340.429	60.07
340.641	-1.37
340.854	86.7
341.066	47.79
341.278	2.73
341.491	113.32
341.703	101.03
341.915	10.92
342.128	74.41
342.34	78.51
342.552	-9.56
342.764	33.45
342.977	62.12
343.189	98.99
343.401	107.18
343.613	-13.65
343.826	49.83
344.038	51.88
344.25	23.21
344.462	29.35
344.674	101.03
344.886	-56.66
345.099	37.55
345.311	25.26
345.523	105.13
345.735	45.74
345.947	10.92
346.159	96.94
346.371	43.69
346.583	2.73
346.795	178.86
347.007	-42.32
347.219	74.41
347.431	4.78
347.643	58.03
347.855	53.93
348.067	68.27
348.279	0.68
348.491	82.6
348.703	58.03
348.915	68.27
349.127	8.87
349.339	117.42
349.551	-17.75
349.763	47.79
349.975	80.55
350.187	88.75
350.399	66.22
350.61	29.35
350.822	72.36
351.034	74.41
351.246	76.46
351.458	64.17
351.669	39.59
351.881	84.65
352.093	64.17
352.305	107.18
352.517	29.35
352.728	191.14
352.94	10.92
353.152	55.98
353.363	90.79
353.575	84.65
353.787	51.88
353.999	8.87
354.21	41.64
354.422	78.51
354.633	33.45
354.845	41.64
355.057	55.98
355.268	72.36
355.48	119.46
355.692	-60.76
355.903	55.98
356.115	6.83
356.326	31.4
356.538	78.51
356.749	80.55
356.961	113.32
357.172	58.03
357.384	-9.56
357.595	62.12
357.807	55.98
358.018	25.26
358.23	98.99
358.441	49.83
358.653	8.87
358.864	74.41
359.075	17.07
359.287	17.07
359.498	39.59
359.709	82.6
359.921	-1.37
360.132	25.26
360.344	51.88
360.555	-17.75
360.766	55.98
360.977	66.22
361.189	123.56
361.4	-7.51
361.611	84.65
361.823	72.36
362.034	64.17
362.245	49.83
362.456	68.27
362.667	98.99
362.879	78.51
363.09	29.35
363.301	62.12
363.512	109.23
363.723	23.21
363.935	37.55
364.146	17.07
364.357	53.93
364.568	-3.41
364.779	-34.13
364.99	74.41
365.201	8.87
365.412	123.56
365.623	-17.75
365.834	45.74
366.045	62.12
366.256	119.46
366.467	96.94
366.678	72.36
366.889	105.13
367.1	4.78
367.311	8.87
367.522	-5.46
367.733	82.6
367.944	41.64
368.155	-19.8
368.366	66.22
368.577	144.04
368.788	-13.65
368.999	35.5
369.209	72.36
369.42	135.85
369.631	41.64
369.842	96.94
370.053	-13.65
370.264	21.16
370.474	10.92
370.685	60.07
370.896	68.27
371.107	23.21
371.317	72.36
371.528	21.16
371.739	133.8
371.95	23.21
372.16	82.6
372.371	-48.47
372.582	35.5
372.792	0.68
373.003	29.35
373.214	64.17
373.424	62.12
373.635	27.31
373.846	33.45
374.056	123.56
374.267	21.16
374.477	68.27
374.688	41.64
374.898	49.83
375.109	123.56
375.319	27.31
375.53	107.18
375.74	39.59
375.951	62.12
376.161	45.74
376.372	60.07
376.582	86.7
376.793	72.36
377.003	0.68
377.214	98.99
377.424	66.22
377.635	84.65
377.845	60.07
378.055	0.68
378.266	25.26
378.476	51.88
378.686	21.16
378.897	135.85
379.107	72.36
379.317	109.23
379.528	113.32
379.738	96.94
379.948	-3.41
380.158	168.62
380.369	53.93
380.579	68.27
380.789	8.87
380.999	70.31
381.21	23.21
381.42	137.9
381.63	66.22
381.84	68.27
382.05	82.6
382.261	107.18
382.471	58.03
382.681	82.6
382.891	88.75
383.101	53.93
383.311	17.07
383.521	82.6
383.731	41.64
383.941	21.16
384.151	53.93
384.361	45.74
384.571	86.7
384.781	80.55
384.991	139.94
385.201	68.27
385.411	119.46
385.621	31.4
385.831	2.73
386.041	96.94
386.251	66.22
386.461	37.55
386.671	27.31
386.881	113.32
387.091	53.93
387.301	103.08
387.511	51.88
387.72	21.16
387.93	107.18
388.14	49.83
388.35	107.18
388.56	109.23
388.769	66.22
388.979	70.31
389.189	156.33
389.399	70.31
389.609	96.94
389.818	96.94
390.028	125.61
390.238	70.31
390.447	58.03
390.657	168.62
390.867	64.17
391.076	96.94
391.286	88.75
391.496	43.69
391.705	78.51
391.915	113.32
392.125	76.46
392.334	90.79
392.544	164.52
392.753	66.22
392.963	45.74
393.172	55.98
393.382	-32.08
393.591	156.33
393.801	41.64
394.01	92.84
394.22	117.42
394.429	107.18
394.639	121.51
394.848	115.37
395.058	66.22
395.267	25.26
395.477	105.13
395.686	115.37
395.895	182.95
396.105	117.42
396.314	78.51
396.524	148.14
396.733	107.18
396.942	109.23
397.152	135.85
397.361	74.41
397.57	131.75
397.78	113.32
397.989	144.04
398.198	125.61
398.407	47.79
398.617	74.41
398.826	107.18
399.035	74.41
399.244	113.32
399.453	236.2
399.663	178.86
399.872	193.19
400.081	90.79
400.29	98.99
400.499	123.56
400.708	117.42
400.917	148.14
401.127	53.93
401.336	152.23
401.545	185
401.754	160.42
401.963	172.71
402.172	158.38
402.381	127.66
402.59	31.4
402.799	109.23
403.008	148.14
403.217	146.09
403.426	160.42
403.635	111.27
403.844	170.66
404.053	164.52
404.262	201.38
404.471	189.1
404.68	156.33
404.888	244.39
405.097	150.18
405.306	139.94
405.515	168.62
405.724	209.58
405.933	172.71
406.142	238.25
406.35	219.82
406.559	199.34
406.768	275.11
406.977	299.69
407.185	176.81
407.394	242.34
407.603	256.68
407.812	311.97
408.02	299.69
408.229	250.53
408.438	223.91
408.646	256.68
408.855	307.88
409.064	250.53
409.272	277.16
409.481	473.76
409.69	357.03
409.898	283.3
410.107	350.89
410.315	424.61
410.524	346.79
410.733	361.13
410.941	400.04
411.15	352.93
411.358	443.04
411.567	516.77
411.775	465.57
411.984	469.67
412.192	463.52
412.401	434.85
412.609	512.67
412.818	492.2
413.026	545.44
413.234	565.92
413.443	586.4
413.651	631.46
413.86	705.18
414.068	713.38
414.276	750.24
414.485	744.1
414.693	742.05
414.901	768.67
415.11	768.67
415.318	854.69
415.526	942.75
415.734	938.65
415.943	973.47
416.151	975.52
416.359	895.65
416.567	979.61
416.776	1077.91
416.984	1051.29
417.192	1112.73
417.4	1114.78
417.608	1143.45
417.817	1192.6
418.025	1303.19
418.233	1344.15
418.441	1387.16
418.649	1407.64
418.857	1524.37
419.065	1618.58
419.273	1507.99
419.481	1540.76
419.689	1661.59
419.897	1788.56
420.105	1753.74
420.313	1854.09
420.521	1927.82
420.729	1901.2
420.937	2007.69
421.145	2009.74
421.353	2105.99
421.561	2210.44
421.769	2378.37
421.977	2380.42
422.185	2415.24
422.393	2511.49
422.601	2642.56
422.809	2601.6
423.017	2615.94
423.224	2849.41
423.432	2753.15
423.64	2937.47
423.848	3324.54
424.056	3082.88
424.263	3347.06
424.471	3377.78
424.679	3388.02
424.887	3629.68
425.094	3588.72
425.302	3687.03
425.51	3834.48
425.718	3983.98
425.925	4018.8
426.133	4053.61
426.341	4455.01
426.548	4559.46
426.756	4694.63
426.964	4668
427.171	4952.67
427.379	5042.78
427.586	5145.18
427.794	5194.33
428.001	5476.95
428.209	5896.78
428.417	5673.56
428.624	6085.2
428.832	6074.96
429.039	5943.89
429.247	6093.39
429.454	6609.48
429.662	7062.08
429.869	6550.09
430.076	6994.5
430.284	7014.98
430.491	7191.1
430.699	7463.48
430.906	7680.57
431.114	7664.18
431.321	7981.62
431.528	8120.88
431.736	8770.08
431.943	8976.93
432.15	8671.78
432.358	8952.35
432.565	9419.29
432.772	9347.61
432.979	10009.11
433.187	9896.47
433.394	9865.75
433.601	10754.57
433.808	10695.18
434.016	10732.04
434.223	11092.48
434.43	11825.65
434.637	11342.33
434.844	12358.13
435.052	12597.74
435.259	12481
435.466	12540.4
435.673	12177.9
435.88	13140.45
436.087	14053.84
436.294	14135.76
436.501	13701.59
436.708	14014.93
436.915	14369.23
437.122	15153.6
437.329	14920.14
437.537	15542.72
437.743	15677.88
437.95	15765.95
438.157	16275.89
438.364	17021.35
438.571	17043.88
438.778	16896.42
438.985	18542.99
439.192	17652.13
439.399	18303.38
439.606	18028.95
439.813	19149.19
440.02	20255.09
440.227	19614.08
440.433	19667.33
440.64	20089.21
440.847	20169.08
441.054	20402.55
441.261	21897.56
441.467	21768.54
441.674	22217.05
441.881	22917.45
442.088	22896.97
442.294	22569.3
442.501	23322.95
442.708	23886.14
442.914	24564.02
443.121	25458.98
443.328	24762.67
443.534	26902.8
443.741	25684.26
443.948	25600.29
444.154	27599.11
444.361	27097.36
444.568	27726.08
444.774	27435.27
444.981	27941.12
445.187	28879.09
445.394	29806.82
445.6	29409.51
445.807	32245.95
446.013	30869.72
446.22	31234.25
446.426	32598.2
446.633	32815.29
446.839	33527.98
447.046	32524.47
447.252	34406.56
447.459	34441.37
447.665	33878.18
447.871	35842.18
448.078	36843.64
448.284	35393.68
448.491	36395.14
448.697	37398.64
448.903	38535.26
449.11	38436.96
449.316	37507.18
449.522	38129.76
449.728	39561.29
449.935	39610.45
450.141	39432.27
450.347	40572.99
450.553	39075.93
450.76	39569.49
450.966	40597.57
451.172	40089.67
451.378	41699.37
451.584	40429.63
451.791	41785.39
451.997	41248.82
452.203	41682.99
452.409	41537.58
452.615	41789.49
452.821	40192.07
453.027	39835.72
453.233	41504.82
453.44	39995.46
453.646	40572.99
453.852	40816.7
454.058	41289.78
454.264	39585.87
454.47	40849.47
454.676	39940.17
454.882	41117.75
455.088	37400.69
455.294	38080.61
455.5	38393.95
455.705	39141.46
455.911	37329.01
456.117	36724.86
456.323	36149.38
456.529	33923.24
456.735	35688.59
456.941	34865.3
457.147	33882.28
457.352	33341.61
457.558	32882.87
457.764	32833.72
457.97	32731.32
458.176	31606.98
458.381	31633.61
458.587	30046.43
458.793	29944.03
458.999	28301.56
459.204	30370.01
459.41	29843.68
459.616	27504.9
459.821	27914.5
460.027	27533.57
460.233	26831.12
460.438	25655.59
460.644	26161.44
460.85	24688.95
461.055	24754.48
461.261	24316.22
461.466	22497.62
461.672	22307.16
461.878	23390.53
462.083	22030.68
462.289	21805.41
462.494	21393.76
462.7	20386.16
462.905	19825.02
463.111	20468.08
463.316	20574.58
463.522	20367.73
463.727	20150.65
463.932	20326.77
464.138	20009.34
464.343	19908.99
464.549	19356.04
464.754	20177.27
464.959	20072.82
465.165	19798.4
465.37	19192.2
465.575	18610.57
465.781	19249.54
465.986	19636.61
466.191	18606.48
466.397	18426.26
466.602	17334.69
466.807	18182.55
467.012	17906.07
467.218	17932.7
467.423	17809.82
467.628	17994.14
467.833	18530.7
468.038	18217.36
468.244	17357.22
468.449	18209.17
468.654	17568.16
468.859	17590.69
469.064	17244.58
469.269	16658.86
469.474	16791.98
469.679	16882.09
469.885	16605.61
470.09	16728.49
470.295	16517.55
470.5	16255.41
470.705	16390.58
470.91	16124.34
471.115	15911.35
471.32	16017.85
471.525	16107.96
471.73	15612.35
471.935	15612.35
472.139	15176.13
472.344	14924.23
472.549	15167.94
472.754	15180.23
472.959	14895.56
473.164	14303.7
473.369	14318.03
473.574	14692.81
473.778	14397.9
473.983	14162.39
474.188	14238.16
474.393	13566.43
474.598	13697.5
474.802	13595.1
475.007	13486.56
475.212	13681.11
475.417	13220.32
475.621	12921.32
475.826	13201.89
476.031	12726.76
476.235	12560.88
476.44	13068.77
476.645	12556.78
476.849	12771.82
477.054	12390.89
477.259	12351.98
477.463	12278.26
477.668	12014.07
477.872	12102.13
478.077	12079.6
478.282	11612.67
478.486	11663.86
478.691	11596.28
478.895	11463.16
479.1	11420.16
479.304	11514.36
479.509	10992.13
479.713	11411.96
479.918	10910.21
480.122	11219.46
480.326	11164.16
480.531	11108.87
480.735	10850.82
480.94	10789.38
481.144	11123.2
481.348	10621.45
481.553	10744.33
481.757	10568.2
481.961	10656.26
482.166	10906.12
482.37	10686.98
482.574	10672.65
482.778	10734.09
482.983	10719.75
483.187	10621.45
483.391	10691.08
483.595	10605.06
483.8	10478.09
484.004	10760.71
484.208	10742.28
484.412	10668.55
484.616	10668.55
484.821	10764.81
485.025	10519.05
485.229	10680.84
485.433	10727.94
485.637	10709.51
485.841	10492.43
486.045	10551.82
486.249	10703.37
486.453	10502.67
486.657	10525.19
486.861	10619.4
487.065	10394.12
487.269	10656.26
487.473	10447.37
487.677	10592.78
487.881	10824.2
488.085	10543.63
488.289	10691.08
488.493	10590.73
488.697	10514.95
488.901	10844.68
489.105	10478.09
489.309	10850.82
489.512	10805.77
489.716	10852.87
489.92	10879.49
490.124	10742.28
490.328	10910.21
490.531	10854.92
490.735	10906.12
490.939	10787.33
491.143	11020.8
491.346	10887.68
491.55	11045.38
491.754	11035.14
491.958	11076.1
492.161	11188.74
492.365	11338.24
492.569	11203.07
492.772	11244.03
492.976	11399.68
493.18	11323.9
493.383	11682.3
493.587	11606.52
493.79	11766.26
493.994	11540.99
494.197	11735.54
494.401	11989.49
494.605	11760.12
494.808	12208.62
495.012	12169.71
495.215	12012.02
495.419	12474.86
495.622	12311.02
495.825	12300.78
496.029	12433.9
496.232	12689.9
496.436	12552.68
496.639	13044.2
496.843	12894.69
497.046	13132.26
497.249	13408.73
497.453	13365.73
497.656	13504.99
497.859	13545.95
498.063	13656.54
498.266	13890.01
498.469	13971.93
498.673	14303.7
498.876	14207.44
499.079	14363.09
499.282	14250.45
499.485	14979.53
499.689	14819.78
499.892	15034.82
500.095	15229.38
500.298	15600.06
500.501	15260.1
500.705	15798.71
500.908	15968.69
501.111	15860.15
501.314	16425.39
501.517	16431.54
501.72	16587.18
501.923	16810.41
502.126	16898.47
502.329	17140.13
502.532	17244.58
502.735	17310.11
502.938	17895.83
503.141	17869.21
503.344	18207.12
503.547	18112.92
503.75	18311.57
503.953	18712.97
504.156	18817.42
504.359	18979.21
504.562	19001.74
504.765	19399.04
504.968	19626.37
505.17	19849.6
505.373	19845.5
505.576	20357.49
505.779	20533.62
505.982	20519.28
506.185	21061.99
506.387	21127.53
506.59	21299.56
506.793	21795.17
506.996	21571.94
507.198	22331.73
507.401	22169.94
507.604	22319.45
507.807	22905.17
508.009	23087.43
508.212	22909.26
508.415	23480.64
508.617	23568.71
508.82	23798.08
509.022	23603.52
509.225	24596.79
509.428	24430.9
509.63	24860.98
509.833	24680.75
510.035	25432.36
510.238	25106.73
510.44	25573.67
510.643	26093.85
510.845	26290.46
511.048	25700.64
511.25	26786.07
511.453	26562.84
511.655	27734.28
511.858	27369.74
512.06	27488.52
512.262	27898.11
512.465	27724.04
512.667	28557.56
512.87	29231.34
513.072	28807.41
513.274	29282.54
513.477	29950.18
513.679	30040.29
513.881	30083.3
514.084	30345.44
514.286	30523.61
514.488	30675.16
514.69	31262.93
514.893	31416.52
515.095	31660.23
515.297	32051.39
515.499	31983.81
515.701	32549.05
515.904	33011.89
516.106	33218.74
516.308	33499.31
516.51	33929.38
516.712	33779.88
516.914	33880.23
517.116	34543.77
517.318	34361.5
517.52	34998.42
517.722	35780.74
517.925	35629.19
518.127	36006.02
518.329	36176
518.531	36098.18
518.733	37185.65
518.935	37126.26
519.136	37531.76
519.338	37701.74
519.54	37922.92
519.742	38213.73
519.944	38621.28
520.146	39231.57
520.348	39346.26
520.55	39540.82
520.752	39168.08
520.954	40357.95
521.155	39721.04
521.357	40591.42
521.559	40349.76
521.761	41293.88
521.963	41711.66
522.164	41621.55
522.366	42047.53
522.568	42018.86
522.77	42401.83
522.971	43026.46
523.173	42471.46
523.375	43143.19
523.576	43182.1
523.778	43501.59
523.98	44148.74
524.181	44468.23
524.383	44072.97
524.584	44511.24
524.786	44754.94
524.988	45004.8
525.189	45271.03
525.391	45733.87
525.592	45891.57
525.794	45934.57
525.995	46051.31
526.197	46366.7
526.398	46589.92
526.6	46893.02
526.801	47024.09
527.003	46972.89
527.204	47237.08
527.406	47349.72
527.607	47157.21
527.808	47830.99
528.01	47048.67
528.211	47730.64
528.412	48183.24
528.614	48062.41
528.815	48189.39
529.016	48818.11
529.218	48170.96
529.419	48574.41
529.62	48744.39
529.822	48519.11
530.023	48820.16
530.224	48814.02
530.425	48940.99
530.626	48566.21
530.828	48863.17
531.029	50001.84
531.23	49240
531.431	49469.37
531.632	49287.1
531.833	50100.14
532.035	49794.99
532.236	49964.98
532.437	49858.48
532.638	49430.46
532.839	50325.42
533.04	50421.67
533.241	49686.45
533.442	50409.39
533.643	49850.29
533.844	50173.87
534.045	49885.11
534.246	49776.56
534.447	50325.42
534.648	49997.74
534.849	50114.48
535.05	49895.35
535.251	50599.85
535.451	50208.68
535.652	50978.72
535.853	50493.35
536.054	50581.41
536.255	50911.14
536.456	50108.33
536.657	50845.6
536.857	50261.93
537.058	50390.95
537.259	50937.76
537.46	50442.15
537.66	50681.77
537.861	50454.44
538.062	50825.12
538.263	50665.38
538.463	50259.88
538.664	50116.53
538.865	50780.07
539.065	50616.23
539.266	50335.66
539.466	50646.95
539.667	50177.96
539.868	51117.98
540.068	50700.2
540.269	50223.02
540.469	50829.22
540.67	50313.13
540.87	50907.04
541.071	50245.55
541.271	50706.34
541.472	50220.97
541.672	50431.91
541.873	50444.2
542.073	49897.39
542.274	50517.93
542.474	50532.26
542.675	50120.62
542.875	50816.93
543.075	50331.56
543.276	49764.28
543.476	50747.3
543.676	50091.95
543.877	50642.85
544.077	50440.1
544.277	50597.8
544.478	50208.68
544.678	50276.27
544.878	50184.11
545.078	50382.76
545.279	50030.51
545.479	50007.98
545.679	49942.45
545.879	50429.87
546.079	50061.23
546.28	50089.9
546.48	50137.01
546.68	50397.1
546.88	50513.83
547.08	50198.44
547.28	49897.39
547.48	49706.93
547.68	50251.69
547.88	49860.53
548.081	49993.65
548.281	49987.5
548.481	50190.25
548.681	50302.89
548.881	49678.26
549.081	50026.42
549.28	49588.15
549.48	50532.26
549.68	50010.03
549.88	50548.65
550.08	49754.04
550.28	49956.78
550.48	49342.39
550.68	50120.62
550.88	49745.84
551.08	50122.67
551.279	50089.9
551.479	49629.11
551.679	50145.2
551.879	49506.23
552.079	50032.56
552.278	49969.07
552.478	49858.48
552.678	50048.94
552.878	50431.91
553.077	49860.53
553.277	49569.72
553.477	50309.03
553.676	49719.22
553.876	49584.05
554.076	49508.28
554.275	49741.75
554.475	49053.63
554.674	49596.34
554.874	49702.84
555.074	49674.16
555.273	49629.11
555.473	49801.14
555.672	49483.7
555.872	49473.46
556.071	49332.15
556.271	49680.31
556.47	49092.54
556.67	48791.49
556.869	49213.37
557.068	49283
557.268	48963.52
557.467	48838.59
557.667	48877.5
557.866	49125.31
558.065	49076.16
558.265	48619.46
558.464	48410.57
558.663	49371.07
558.863	48512.97
559.062	49461.18
559.261	48439.24
559.461	48787.39
559.66	47781.84
559.859	48375.75
560.058	47902.67
560.258	48498.63
560.457	48117.71
560.656	48236.49
560.855	47644.63
561.054	48121.8
561.253	47493.08
561.453	47896.53
561.652	47960.01
561.851	48154.57
562.05	47488.98
562.249	47478.74
562.448	47443.93
562.647	47515.61
562.846	47572.95
563.045	47368.15
563.244	46913.5
563.443	47683.54
563.642	46665.7
563.841	46790.62
564.04	46516.2
564.239	47091.68
564.438	46727.14
564.637	46802.91
564.836	46858.21
565.035	46393.32
565.234	46708.71
565.432	46213.1
565.631	46299.11
565.83	46409.7
566.029	45959.15
566.228	46057.45
566.427	45907.95
566.625	45844.46
566.824	45084.67
567.023	45823.98
567.222	45010.94
567.42	45942.77
567.619	45467.64
567.818	45090.81
568.016	45051.9
568.215	45537.27
568.414	44609.54
568.612	45180.92
568.811	44777.47
569.01	45006.84
569.208	44091.4
569.407	44832.77
569.605	43837.45
569.804	44726.27
570.002	43782.16
570.201	44386.31
570.4	43411.48
570.598	43790.35
570.797	43567.12
570.995	43761.68
571.193	43427.86
571.392	44216.33
571.59	42983.45
571.789	43501.59
571.987	43139.1
572.186	43272.21
572.384	42901.53
572.582	43051.03
572.781	42883.1
572.979	42342.44
573.177	42850.33
573.376	42971.16
573.574	42248.23
573.772	42758.17
573.971	42211.37
574.169	41930.79
574.367	41965.61
574.565	41947.18
574.763	41682.99
574.962	41652.27
575.16	41291.83
575.358	41891.88
575.556	41510.96
575.754	41654.32
575.952	41142.33
576.151	41445.43
576.349	40788.03
576.547	40888.38
576.745	40874.04
576.943	41052.22
577.141	40659.01
577.339	41033.78
577.537	40306.76
577.735	40435.78
577.933	40323.14
578.131	40280.13
578.329	39989.32
578.527	39964.74
578.725	40405.06
578.923	39876.68
579.121	39514.19
579.319	39612.49
579.516	39827.53
579.714	39532.62
579.912	39561.29
580.11	39090.26
580.308	39184.47
580.506	39061.59
580.704	38895.71
580.901	39030.87
581.099	39202.9
581.297	38584.41
581.495	38254.69
581.692	38856.79
581.89	38998.1
582.088	38565.98
582.285	38232.16
582.483	38391.9
582.681	38107.24
582.878	37982.31
583.076	37595.24
583.274	38008.93
583.471	37187.7
583.669	37898.34
583.866	37390.45
584.064	37349.49
584.262	37275.76
584.459	37455.98
584.657	37134.45
584.854	37754.99
585.052	36309.12
585.249	37165.17
585.447	37040.25
585.644	36737.15
585.841	36288.64
586.039	36984.95
586.236	36620.41
586.434	36108.42
586.631	36325.5
586.828	36026.5
587.026	36284.54
587.223	35893.38
587.42	35514.51
587.618	35885.19
587.815	35674.25
588.012	35524.75
588.21	35201.17
588.407	35506.32
588.604	34902.17
588.801	35424.4
588.999	34963.61
589.196	35043.48
589.393	34756.76
589.59	34646.17
589.787	34476.19
589.984	34203.81
590.182	34095.27
590.379	34400.41
590.576	34314.4
590.773	34437.28
590.97	33749.16
591.167	34343.07
591.364	33474.73
591.561	33923.24
591.758	33761.45
591.955	33697.96
592.152	33966.24
592.349	33188.02
592.546	33464.49
592.743	33794.21
592.94	32747.7
593.137	33007.79
593.334	33138.86
593.531	32704.7
593.727	33196.21
593.924	32692.41
594.121	32383.16
594.318	32770.23
594.515	32151.74
594.712	32618.68
594.908	32094.4
595.105	32078.02
595.302	31451.34
595.499	32135.36
595.696	31750.34
595.892	31459.53
596.089	31918.28
596.286	32016.58
596.482	31783.11
596.679	31318.22
596.876	31437
597.072	31353.04
597.269	31166.67
597.466	30812.37
597.662	30929.11
597.859	30771.41
598.055	31211.73
598.252	30716.12
598.448	30660.82
598.645	30105.82
598.841	30331.1
599.038	30740.69
599.234	30206.17
599.431	29759.72
599.627	29819.11
599.824	29935.84
600.02	30015.71
600.217	29776.1
600.413	29616.36
600.609	29546.73
600.806	29116.65
601.002	30017.76
601.198	29518.06
601.395	28977.39
601.591	28977.39
601.787	29229.29
601.984	28776.69
602.18	29444.33
602.376	28668.15
602.572	28711.16
602.769	28596.47
602.965	28479.74
603.161	28629.24
603.357	28307.71
603.553	28109.05
603.75	28252.41
603.946	27877.63
604.142	27934.98
604.338	27398.41
604.534	27863.3
604.73	27511.05
604.926	27459.85
605.122	27683.08
605.318	27711.75
605.514	27259.15
605.71	26882.32
605.906	27556.1
606.102	27056.4
606.298	27027.73
606.494	27166.99
606.69	27437.32
606.886	27044.11
607.082	26444.06
607.278	26683.67
607.474	26317.08
607.67	26480.92
607.866	26392.86
608.062	26908.94
608.257	26460.44
608.453	26360.09
608.649	26480.92
608.845	26151.2
609.041	26093.85
609.236	26237.21
609.432	25909.54
609.628	26194.2
609.824	26061.08
610.019	26024.22
610.215	26147.1
610.411	26009.89
610.606	25534.76
610.802	25774.37
610.998	25676.07
611.193	25882.91
611.389	25553.19
611.584	25569.57
611.78	25157.93
611.976	25389.35
612.171	25241.9
612.367	25233.71
612.562	25295.14
612.758	24957.23
612.953	25004.33
613.149	24998.19
613.344	24631.6
613.539	25069.87
613.735	24881.45
613.93	24807.73
614.126	24863.02
614.321	24713.52
614.517	24668.47
614.712	24723.76
614.907	24295.74
615.103	24598.84
615.298	24226.1
615.493	24377.65
615.688	24095.03
615.884	24514.87
616.079	23820.61
616.274	24166.71
616.47	23664.96
616.665	24377.65
616.86	24092.99
617.055	23812.42
617.25	24027.45
617.445	24258.87
617.641	23701.83
617.836	23968.06
618.031	23595.33
618.226	23738.69
618.421	23253.32
618.616	23488.84
618.811	23343.43
619.006	23544.13
619.201	22835.53
619.396	23214.41
619.591	22669.65
619.786	22837.58
619.981	22499.67
620.176	22817.1
620.371	22638.93
620.566	22307.16
620.761	22407.51
620.956	22395.22
621.151	21825.89
621.346	21985.63
621.541	21729.63
621.735	22116.7
621.93	21522.79
622.125	21522.79
622.32	21381.48
622.515	21655.9
622.709	21627.23
622.904	21205.35
623.099	21068.14
623.294	21225.83
623.488	21201.26
623.683	20904.3
623.878	20703.6
624.072	20742.51
624.267	20482.42
624.462	20550
624.656	20076.92
624.851	20312.44
625.046	19982.71
625.24	20177.27
625.435	19859.84
625.629	19773.82
625.824	19583.36
626.018	19900.79
626.213	19382.66
626.407	19378.56
626.602	19202.44
626.796	19151.24
626.991	19014.02
627.185	18885
627.38	18803.08
627.574	18825.61
627.768	18667.92
627.963	18606.48
628.157	18160.02
628.352	18440.59
628.546	18096.53
628.74	18088.34
628.935	18215.32
629.129	18061.72
629.323	17779.1
629.517	17922.46
629.712	17432.99
629.906	17723.8
630.1	17535.39
630.294	17439.14
630.489	17230.24
630.683	17342.88
630.877	16751.02
631.071	16841.13
631.265	17170.85
631.459	17203.62
631.653	16669.1
631.848	16892.33
632.042	16513.45
632.236	16669.1
632.43	16470.45
632.624	16200.12
632.818	16198.07
633.012	16261.55
633.206	16239.03
633.4	15942.07
633.594	15649.21
633.788	15962.55
633.982	15917.5
634.176	15897.02
634.369	15606.2
634.563	15657.4
634.757	15385.02
634.951	15376.83
635.145	15372.74
635.339	15249.86
635.533	15092.16
635.726	14870.98
635.92	14799.3
636.114	14957
636.308	14481.87
636.501	14488.01
636.695	14608.84
636.889	14569.93
637.083	14399.95
637.276	14412.24
637.47	14465.49
637.664	14428.62
637.857	14174.67
638.051	14244.31
638.244	13937.11
638.438	13971.93
638.632	13607.39
638.825	13765.08
639.019	13795.8
639.212	13591
639.406	13591
639.599	13511.13
639.793	13537.76
639.986	13201.89
640.18	13361.63
640.373	13316.58
640.567	13099.49
640.76	13359.58
640.954	12857.83
641.147	12861.93
641.34	12792.3
641.534	12798.44
641.727	12640.75
641.92	12823.01
642.114	12669.42
642.307	12587.5
642.5	12497.39
642.694	12292.59
642.887	12114.42
643.08	12399.09
643.273	12182
643.467	12095.99
643.66	12061.17
643.853	12022.26
644.046	11805.17
644.239	11780.6
644.432	11885.05
644.626	11665.91
644.819	11647.48
645.012	11749.88
645.205	11395.58
645.398	11622.91
645.591	11305.47
645.784	11371.01
645.977	11231.74
646.17	11252.22
646.363	11043.33
646.556	11055.62
646.749	11002.37
646.942	11225.6
647.135	10979.84
647.328	11012.61
647.521	10936.84
647.714	10729.99
647.907	10553.87
648.099	10613.26
648.292	10709.51
648.485	10592.78
648.678	10291.73
648.871	10379.79
649.064	10473.99
649.256	10422.8
649.449	10322.45
649.642	10193.42
649.835	10215.95
650.027	10297.87
650.22	10230.29
650.413	9980.43
650.605	9865.75
650.798	10023.44
650.991	9490.97
651.183	10007.06
651.376	9673.24
651.568	9822.74
651.761	9740.82
651.954	9470.49
652.146	9624.09
652.339	9527.83
652.531	9669.14
652.724	9486.87
652.916	9435.67
653.109	9364
653.301	9148.96
653.494	9179.68
653.686	9079.33
653.879	9314.84
654.071	9097.76
654.263	9034.27
654.456	8972.83
654.648	8845.86
654.84	8727.08
655.033	8716.84
655.225	8825.38
655.417	8743.46
655.61	8845.86
655.802	8663.59
655.994	8735.27
656.186	8602.15
656.379	8606.25
656.571	8604.2
656.763	8458.79
656.955	8329.77
657.148	8284.72
657.34	8368.68
657.532	8167.98
657.724	8335.92
657.916	8282.67
658.108	8047.15
658.3	8217.13
658.492	8143.41
658.684	7899.7
658.876	8165.93
659.068	8034.86
659.26	7692.85
659.452	8000.05
659.644	7817.78
659.836	7729.72
660.028	7647.8
660.22	7764.53
660.412	7655.99
660.604	7672.37
660.796	7543.35
660.988	7342.65
661.18	7471.67
661.372	7449.14
661.563	7504.44
661.755	7176.77
661.947	7139.9
662.139	7340.6
662.331	7311.93
662.522	7182.91
662.714	7246.4
662.906	7023.17
663.097	7160.38
663.289	7246.4
663.481	7135.81
663.673	7141.95
663.864	7039.55
664.056	6767.17
664.247	7012.93
664.439	6951.49
664.631	6855.23
664.822	6974.02
665.014	6804.03
665.205	6793.79
665.397	6758.98
665.588	6724.16
665.78	6640.2
665.971	6748.74
666.163	6685.25
666.354	6591.05
666.546	6699.59
666.737	6529.61
666.929	6439.5
667.12	6531.65
667.311	6541.89
667.503	6398.54
667.694	6433.35
667.885	6287.95
668.077	6386.25
668.268	6175.31
668.459	6421.06
668.651	6251.08
668.842	6111.82
669.033	6126.16
669.224	6238.8
669.416	6298.19
669.607	6074.96
669.798	6128.21
669.989	6177.36
670.18	6054.48
670.371	5892.69
670.563	5960.27
670.754	5970.51
670.945	5876.3
671.136	5816.91
671.327	6044.24
671.518	5909.07
671.709	5902.93
671.9	5970.51
672.091	5771.86
672.282	6052.43
672.473	5759.57
672.664	5757.52
672.855	5816.91
673.046	5755.47
673.237	5706.32
673.428	5599.83
673.619	5573.21
673.809	5732.95
674	5704.28
674.191	5595.73
674.382	5587.54
674.573	5630.55
674.764	5417.56
674.954	5431.9
675.145	5456.47
675.336	5515.86
675.527	5524.05
675.717	5540.44
675.908	5448.28
676.099	5466.71
676.289	5446.23
676.48	5331.55
676.671	5304.92
676.861	5470.81
677.052	5180
677.243	5347.93
677.433	5263.96
677.624	5382.74
677.814	5249.63
678.005	5300.83
678.195	5325.4
678.386	5210.72
678.576	5325.4
678.767	5266.01
678.957	5104.22
679.148	5345.88
679.338	5231.19
679.529	5118.56
679.719	5155.42
679.909	5235.29
680.1	5155.42
680.29	5304.92
680.481	5038.69
680.671	5132.89
680.861	5120.6
681.052	5155.42
681.242	5243.48
681.432	5100.12
681.622	5118.56
681.813	5143.13
682.003	5114.46
682.193	5192.28
682.383	4962.91
682.573	5091.93
682.764	4885.09
682.954	4891.23
683.144	5030.49
683.334	4964.96
683.524	4938.34
683.714	4907.62
683.904	4870.75
684.094	4993.63
684.284	4971.1
684.474	4911.71
684.664	4997.73
684.854	4967.01
685.044	4852.32
685.234	4958.81
685.424	4782.69
685.614	4737.63
685.804	4745.83
685.994	4854.37
686.184	4837.98
686.374	4751.97
686.564	4897.38
686.753	4737.63
686.943	4672.1
687.133	4813.41
687.323	4727.39
687.513	4665.96
687.702	4620.9
687.892	4506.21
688.082	4739.68
688.272	4526.69
688.461	4747.87
688.651	4590.18
688.841	4340.33
689.03	4561.51
689.22	4422.25
689.41	4379.24
689.599	4508.26
689.789	4360.81
689.979	4420.2
690.168	4469.35
690.358	4303.46
690.547	4291.18
690.737	4297.32
690.926	4242.03
691.116	4250.22
691.305	4282.99
691.495	4395.62
691.684	4184.68
691.874	4260.46
692.063	4186.73
692.252	4272.75
692.442	4026.99
692.631	4059.76
692.82	4239.98
693.01	4119.15
693.199	4139.63
693.388	4031.09
693.578	4082.28
693.767	4151.92
693.956	4051.56
694.146	4172.39
694.335	4018.8
694.524	3998.32
694.713	3949.17
694.902	4022.89
695.092	4055.66
695.281	4090.48
695.47	4078.19
695.659	3996.27
695.848	4129.39
696.037	3883.63
696.226	3912.3
696.415	3986.03
696.604	3908.21
696.793	3965.55
696.982	4084.33
697.171	3947.12
697.36	3854.96
697.549	3734.13
697.738	3811.95
697.927	3799.66
698.116	3787.38
698.305	3861.1
698.494	3711.6
698.683	3852.91
698.872	3889.78
699.061	3764.85
699.25	3869.3
699.438	3695.22
699.627	3783.28
699.816	3732.08
700.005	3885.68
700.193	3617.4
700.382	3887.73
700.571	3836.53
700.76	3805.81
700.948	3797.62
701.137	3691.12
701.326	3824.24
701.514	3732.08
701.703	3711.6
701.892	3705.46
702.08	3727.99
702.269	3588.72
702.457	3633.78
702.646	3644.02
702.834	3658.35
703.023	3811.95
703.212	3756.66
703.4	3676.79
703.589	3654.26
703.777	3727.99
703.965	3629.68
704.154	3822.19
704.342	3668.59
704.531	3641.97
704.719	3510.9
704.907	3719.79
705.096	3680.88
705.284	3517.05
705.472	3756.66
705.661	3650.16
705.849	3578.48
706.037	3697.27
706.226	3584.63
706.414	3637.88
706.602	3701.36
706.79	3588.72
706.979	3541.62
707.167	3574.39
707.355	3531.38
707.543	3678.83
707.731	3654.26
707.919	3766.9
708.107	3609.2
708.296	3584.63
708.484	3623.54
708.672	3451.51
708.86	3588.72
709.048	3672.69
709.236	3699.31
709.424	3635.83
709.612	3695.22
709.8	3627.64
709.988	3418.74
710.176	3611.25
710.364	3566.2
710.551	3519.09
710.739	3478.13
710.927	3588.72
711.115	3682.93
711.303	3703.41
711.491	3560.05
711.679	3570.29
711.866	3623.54
712.054	3592.82
712.242	3570.29
712.43	3639.92
712.617	3533.43
712.805	3551.86
712.993	3586.68
713.181	3547.76
713.368	3605.11
713.556	3676.79
713.744	3611.25
713.931	3633.78
714.119	3727.99
714.306	3633.78
714.494	3543.67
714.682	3654.26
714.869	3560.05
715.057	3500.66
715.244	3529.33
715.432	3695.22
715.619	3465.85
715.807	3598.96
715.994	3506.81
716.182	3529.33
716.369	3572.34
716.556	3486.33
716.744	3474.04
716.931	3607.16
717.119	3566.2
717.306	3617.4
717.493	3539.57
717.681	3508.85
717.868	3558
718.055	3433.08
718.242	3596.92
718.43	3662.45
718.617	3598.96
718.804	3525.24
718.991	3633.78
719.179	3648.11
719.366	3433.08
719.553	3637.88
719.74	3680.88
719.927	3512.95
720.114	3570.29
720.301	3558
720.488	3445.37
720.676	3422.84
720.863	3547.76
721.05	3531.38
721.237	3461.75
721.424	3490.42
721.611	3492.47
721.798	3537.52
721.985	3515
722.172	3416.69
722.358	3406.45
722.545	3590.77
722.732	3482.23
722.919	3406.45
723.106	3433.08
723.293	3471.99
723.48	3455.61
723.667	3363.45
723.853	3412.6
724.04	3482.23
724.227	3428.98
724.414	3455.61
724.6	3433.08
724.787	3439.22
724.974	3471.99
725.161	3457.65
725.347	3365.5
725.534	3410.55
725.72	3398.26
725.907	3482.23
726.094	3463.8
726.28	3408.5
726.467	3357.3
726.653	3277.43
726.84	3424.89
727.027	3373.69
727.213	3324.54
727.4	3414.65
727.586	3447.41
727.773	3469.94
727.959	3527.28
728.145	3426.93
728.332	3422.84
728.518	3336.82
728.705	3347.06
728.891	3334.78
729.077	3283.58
729.264	3310.2
729.45	3256.95
729.636	3345.02
729.823	3392.12
730.009	3367.54
730.195	3328.63
730.382	3293.82
730.568	3437.17
730.754	3332.73
730.94	3297.91
731.126	3392.12
731.313	3420.79
731.499	3306.1
731.685	3355.26
731.871	3295.86
732.057	3244.67
732.243	3326.58
732.429	3340.92
732.615	3293.82
732.801	3193.47
732.987	3312.25
733.173	3193.47
733.359	3289.72
733.545	3232.38
733.731	3070.59
733.917	3285.62
734.103	3269.24
734.289	3310.2
734.475	3187.32
734.661	3283.58
734.847	3342.97
735.033	3189.37
735.219	3259
735.404	3215.99
735.59	3170.94
735.776	3144.31
735.962	3248.76
736.148	3142.27
736.333	3123.84
736.519	3056.25
736.705	3015.29
736.89	3162.75
737.076	3097.21
737.262	3076.73
737.447	3189.37
737.633	2966.14
737.819	3240.57
738.004	2980.48
738.19	3140.22
738.375	3074.68
738.561	3097.21
738.747	3132.03
738.932	2886.27
739.118	3129.98
739.303	2949.76
739.489	3068.54
739.674	3097.21
739.859	3043.96
740.045	3068.54
740.23	2949.76
740.416	2951.81
740.601	2980.48
740.786	2978.43
740.972	2941.57
741.157	2902.65
741.342	2833.02
741.528	2816.64
741.713	2869.89
741.898	2941.57
742.084	2802.3
742.269	2822.78
742.454	2970.24
742.639	2892.41
742.824	2730.62
743.01	2785.92
743.195	3015.29
743.38	2779.78
743.565	2736.77
743.75	2830.98
743.935	2689.67
744.12	2693.76
744.305	2781.82
744.49	2671.23
744.675	2654.85
744.86	2650.75
745.045	2620.03
745.23	2718.34
745.415	2667.14
745.6	2669.19
745.785	2568.84
745.97	2605.7
746.155	2429.57
746.34	2624.13
746.525	2609.79
746.71	2626.18
746.895	2478.72
747.079	2615.94
747.264	2523.78
747.449	2538.12
747.634	2480.77
747.819	2546.31
748.003	2458.25
748.188	2306.7
748.373	2429.57
748.557	2454.15
748.742	2374.28
748.927	2284.17
749.111	2343.56
749.296	2321.03
749.481	2374.28
749.665	2331.27
749.85	2294.41
750.034	2284.17
750.219	2192.01
750.404	2253.45
750.588	2194.06
750.773	2194.06
750.957	2216.58
751.141	2118.28
751.326	2087.56
751.51	2138.76
751.695	2116.23
751.879	2130.57
752.064	2208.39
752.248	2101.9
752.432	1991.31
752.617	2087.56
752.801	1985.16
752.985	2044.56
753.17	2110.09
753.354	2003.6
753.538	1958.54
753.722	1958.54
753.907	1948.3
754.091	1954.44
754.275	1940.11
754.459	1940.11
754.643	1802.9
754.828	1751.7
755.012	1772.18
755.196	1839.76
755.38	1823.37
755.564	1901.2
755.748	1790.61
755.932	1819.28
756.116	1845.9
756.3	1700.5
756.484	1659.54
756.668	1776.27
756.852	1772.18
757.036	1680.02
757.22	1669.78
757.404	1847.95
757.588	1606.29
757.772	1622.67
757.956	1655.44
758.14	1567.38
758.323	1682.06
758.507	1645.2
758.691	1647.25
758.875	1733.26
759.059	1675.92
759.242	1647.25
759.426	1475.22
759.61	1512.08
759.794	1634.96
759.977	1557.14
760.161	1630.87
760.345	1641.11
760.528	1516.18
760.712	1522.32
760.895	1522.32
761.079	1579.67
761.263	1434.26
761.446	1499.8
761.63	1385.11
761.813	1479.32
761.997	1303.19
762.18	1473.17
762.364	1397.4
762.547	1442.45
762.731	1393.3
762.914	1454.74
763.098	1417.88
763.281	1352.34
763.464	1376.92
763.648	1407.64
763.831	1358.49
764.015	1374.87
764.198	1419.92
764.381	1383.06
764.564	1270.42
764.748	1211.03
764.931	1370.77
765.114	1301.14
765.297	1303.19
765.481	1266.33
765.664	1301.14
765.847	1409.69
766.03	1313.43
766.213	1331.86
766.397	1204.89
766.58	1188.5
766.763	1213.08
766.946	1192.6
767.129	1331.86
767.312	1274.52
767.495	1204.89
767.678	1213.08
767.861	1274.52
768.044	1219.22
768.227	1268.38
768.41	1178.26
768.593	1268.38
768.776	1239.7
768.959	1186.46
769.142	1227.42
769.324	1206.94
769.507	1221.27
769.69	1159.83
769.873	1098.39
770.056	1174.17
770.239	1057.43
770.421	1073.82
770.604	1180.31
770.787	1155.74
770.97	1217.18
771.152	1116.83
771.335	1022.62
771.518	1084.06
771.7	1168.02
771.883	1118.87
772.066	1088.15
772.248	1036.95
772.431	1014.43
772.613	1024.67
772.796	1006.24
772.978	1151.64
773.161	1002.14
773.343	1049.24
773.526	977.56
773.708	1069.72
773.891	1069.72
774.073	971.42
774.256	991.9
774.438	1012.38
774.621	1036.95
774.803	957.08
774.985	1010.33
775.168	985.76
775.35	1016.48
775.532	914.08
775.715	989.85
775.897	940.7
776.079	860.83
776.261	905.88
776.444	883.36
776.626	887.45
776.808	973.47
776.99	852.64
777.173	889.5
777.355	957.08
777.537	774.81
777.719	823.97
777.901	924.32
778.083	780.96
778.265	780.96
778.447	789.15
778.629	815.77
778.811	762.53
778.993	793.25
779.175	819.87
779.357	793.25
779.539	735.9
779.721	766.62
779.903	838.3
780.085	705.18
780.267	744.1
780.449	742.05
780.631	703.14
780.812	703.14
780.994	807.58
781.176	701.09
781.358	635.55
781.54	707.23
781.721	793.25
781.903	783.01
782.085	699.04
782.267	760.48
782.448	731.81
782.63	670.37
782.812	645.79
782.993	766.62
783.175	709.28
783.357	662.18
783.538	670.37
783.72	602.79
783.901	602.79
784.083	701.09
784.264	635.55
784.446	656.03
784.627	610.98
784.809	598.69
784.99	582.31
785.172	561.83
785.353	594.59
785.535	600.74
785.716	541.35
785.897	559.78
786.079	590.5
786.26	588.45
786.441	496.29
786.623	541.35
786.804	522.91
786.985	549.54
787.167	623.27
787.348	471.72
787.529	492.2
787.71	592.55
787.891	484
788.073	451.24
788.254	524.96
788.435	582.31
788.616	547.49
788.797	473.76
788.978	494.24
789.159	443.04
789.34	576.16
789.522	402.08
789.703	490.15
789.884	490.15
790.065	469.67
790.246	502.44
790.427	408.23
790.607	465.57
790.788	443.04
790.969	461.48
791.15	488.1
791.331	393.89
791.512	477.86
791.693	404.13
791.874	412.32
792.054	557.73
792.235	445.09
792.416	397.99
792.597	350.89
792.778	416.42
792.958	426.66
793.139	457.38
793.32	367.27
793.5	400.04
793.681	479.91
793.862	410.28
794.042	410.28
794.223	336.55
794.404	371.37
794.584	369.32
794.765	379.56
794.945	416.42
795.126	430.76
795.306	426.66
795.487	424.61
795.667	432.8
795.848	326.31
796.028	307.88
796.209	369.32
796.389	344.74
796.57	324.26
796.75	279.21
796.93	287.4
797.111	359.08
797.291	418.47
797.471	359.08
797.652	277.16
797.832	338.6
798.012	328.36
798.192	305.83
798.373	291.49
798.553	283.3
798.733	357.03
798.913	297.64
799.093	385.7
799.274	340.65
799.454	363.17
799.634	354.98
799.814	408.23
799.994	303.78
800.174	424.61
800.354	354.98
800.534	273.06
800.714	334.5
800.894	375.46
801.074	295.59
801.254	291.49
801.434	357.03
801.614	342.69
801.794	252.58
801.974	905.88
802.154	326.31
802.334	357.03
802.514	307.88
802.693	365.22
802.873	301.73
803.053	285.35
803.233	258.73
803.413	316.07
803.592	271.01
803.772	209.58
803.952	287.4
804.131	322.21
804.311	246.44
804.491	283.3
804.67	285.35
804.85	252.58
805.03	271.01
805.209	324.26
805.389	266.92
805.568	307.88
805.748	293.54
805.928	240.3
806.107	246.44
806.287	271.01
806.466	217.77
806.646	217.77
806.825	146.09
807.004	223.91
807.184	262.82
807.363	232.1
807.543	256.68
807.722	262.82
807.901	268.97
808.081	262.82
808.26	238.25
808.439	221.86
808.619	264.87
808.798	187.05
808.977	260.77
809.156	295.59
809.336	279.21
809.515	258.73
809.694	176.81
809.873	207.53
810.052	187.05
810.231	260.77
810.411	242.34
810.59	187.05
810.769	230.06
810.948	291.49
811.127	213.67
811.306	260.77
811.485	217.77
811.664	199.34
811.843	225.96
812.022	154.28
812.201	201.38
812.38	221.86
812.559	250.53
812.737	268.97
812.916	150.18
813.095	168.62
813.274	209.58
813.453	182.95
813.632	228.01
813.811	170.66
813.989	127.66
814.168	213.67
814.347	185
814.526	199.34
814.704	166.57
814.883	162.47
815.062	180.9
815.24	160.42
815.419	144.04
815.598	215.72
815.776	160.42
815.955	242.34
816.133	168.62
816.312	195.24
816.49	217.77
816.669	185
816.847	230.06
817.026	189.1
817.204	213.67
817.383	168.62
817.561	135.85
817.74	230.06
817.918	154.28
818.097	199.34
818.275	185
818.453	121.51
818.632	277.16
818.81	189.1
818.988	213.67
819.167	225.96
819.345	152.23
819.523	209.58
819.701	207.53
819.879	246.44
820.058	195.24
820.236	209.58
820.414	166.57
820.592	221.86
820.77	170.66
820.948	117.42
821.127	162.47
821.305	219.82
821.483	74.41
821.661	133.8
821.839	103.08
822.017	178.86
822.195	185
822.373	135.85
822.551	115.37
822.729	170.66
822.907	172.71
823.085	182.95
823.262	139.94
823.44	45.74
823.618	172.71
823.796	174.76
823.974	72.36
824.152	103.08
824.329	31.4
824.507	66.22
824.685	242.34
824.863	109.23
825.04	101.03
825.218	213.67
825.396	47.79
825.574	113.32
825.751	107.18
825.929	187.05
826.107	117.42
826.284	31.4
826.462	164.52
826.639	51.88
826.817	123.56
826.994	158.38
827.172	176.81
827.349	187.05
827.527	146.09
827.704	78.51
827.882	137.9
828.059	129.7
828.237	105.13
828.414	115.37
828.591	137.9
828.769	121.51
828.946	86.7
829.124	123.56
829.301	164.52
829.478	96.94
829.655	174.76
829.833	137.9
830.01	64.17
830.187	131.75
830.364	141.99
830.542	49.83
830.719	195.24
830.896	139.94
831.073	113.32
831.25	123.56
831.427	164.52
831.604	90.79
831.782	185
831.959	107.18
832.136	127.66
832.313	164.52
832.49	131.75
832.667	58.03
832.844	72.36
833.021	121.51
833.198	139.94
833.374	113.32
833.551	135.85
833.728	94.89
833.905	152.23
834.082	105.13
834.259	152.23
834.436	111.27
834.612	133.8
834.789	172.71
834.966	127.66
835.143	113.32
835.319	78.51
835.496	158.38
835.673	86.7
835.85	137.9
836.026	27.31
836.203	111.27
836.38	84.65
836.556	55.98
836.733	101.03
836.909	131.75
837.086	80.55
837.262	66.22
837.439	78.51
837.616	76.46
837.792	80.55
837.968	41.64
838.145	58.03
838.321	119.46
838.498	121.51
838.674	115.37
838.851	68.27
839.027	51.88
839.203	117.42
839.38	66.22
839.556	139.94
839.732	156.33
839.909	45.74
840.085	113.32
840.261	-5.46
840.437	98.99
840.614	139.94
840.79	131.75
840.966	45.74
841.142	107.18
841.318	107.18
841.494	62.12
841.671	109.23
841.847	-11.61
842.023	-3.41
842.199	80.55
842.375	72.36
842.551	37.55
842.727	68.27
842.903	74.41
843.079	23.21
843.255	115.37
843.431	68.27
843.607	49.83
843.783	84.65
843.959	74.41
844.134	33.45
844.31	88.75
844.486	2.73
844.662	60.07
844.838	82.6
845.013	17.07
845.189	150.18
845.365	82.6
845.541	74.41
845.716	109.23
845.892	84.65
846.068	58.03
846.244	76.46
846.419	76.46
846.595	33.45
846.77	47.79
846.946	105.13
847.122	72.36
847.297	60.07
847.473	152.23
847.648	31.4
847.824	39.59
847.999	33.45
848.175	-7.51
848.35	82.6
848.526	29.35
848.701	41.64
848.876	-9.56
849.052	55.98
849.227	70.31
849.403	8.87
849.578	64.17
849.753	78.51
849.929	94.89
850.104	41.64
850.279	113.32
850.454	0.68
850.63	111.27
850.805	55.98
850.98	80.55
851.155	72.36
851.33	31.4
851.505	39.59
851.681	70.31
851.856	31.4
852.031	70.31
852.206	-17.75
852.381	2.73
852.556	53.93
852.731	64.17
852.906	47.79
853.081	-60.76
853.256	90.79
853.431	70.31
853.606	23.21
853.781	45.74
853.956	29.35
854.131	70.31
854.305	-19.8
854.48	37.55
854.655	-32.08
854.83	41.64
855.005	74.41
855.18	62.12
855.354	-3.41
855.529	68.27
855.704	17.07
855.879	8.87
856.053	12.97
856.228	31.4
856.403	39.59
856.577	47.79
856.752	-7.51
856.926	70.31
857.101	76.46
857.276	-15.7
857.45	0.68
857.625	94.89
857.799	117.42
857.974	66.22
858.148	-46.42
858.323	25.26
858.497	41.64
858.672	-50.52
858.846	33.45
859.02	41.64
859.195	39.59
859.369	33.45
859.543	12.97
859.718	111.27
859.892	19.11
860.066	-66.9
860.241	68.27
860.415	15.02
860.589	129.7
860.763	86.7
860.938	15.02
861.112	72.36
861.286	41.64
861.46	60.07
861.634	21.16
861.808	58.03
861.982	70.31
862.157	35.5
862.331	-11.61
862.505	-7.51
862.679	25.26
862.853	25.26
863.027	33.45
863.201	55.98
863.375	53.93
863.549	105.13
863.722	74.41
863.896	72.36
864.07	-21.84
864.244	23.21
864.418	27.31
864.592	47.79
864.766	27.31
864.939	58.03
865.113	70.31
865.287	45.74
865.461	-9.56
865.634	27.31
865.808	-1.37
865.982	4.78
866.156	-19.8
866.329	8.87
866.503	37.55
866.676	62.12
866.85	31.4
867.024	47.79
867.197	109.23
867.371	88.75
867.544	-62.8
867.718	-11.61
867.891	-19.8
868.065	-19.8
868.238	-15.7
868.412	64.17
868.585	96.94
868.759	4.78
868.932	-40.28
869.105	8.87
869.279	-9.56
869.452	41.64
869.625	-25.94
869.799	23.21
869.972	37.55
870.145	78.51
870.319	12.97
870.492	-7.51
870.665	17.07
870.838	-40.28
871.011	0.68
871.185	27.31
871.358	-25.94
871.531	47.79
871.704	17.07
871.877	12.97
872.05	2.73
872.223	17.07
872.396	-81.24
872.569	15.02
872.742	53.93
872.915	-1.37
873.088	-19.8
873.261	21.16
873.434	31.4
873.607	-23.89
873.78	58.03
873.953	-36.18
874.126	31.4
874.299	-38.23
874.471	-19.8
874.644	29.35
874.817	82.6
874.99	43.69
875.163	4.78
875.335	-13.65
875.508	76.46
875.681	51.88
875.853	-19.8
876.026	-60.76
876.199	0.68
876.371	4.78
876.544	-15.7
876.717	41.64
876.889	4.78
877.062	4.78
877.234	-7.51
877.407	43.69
877.579	-23.89
877.752	35.5
877.924	70.31
878.097	72.36
878.269	-23.89
878.442	33.45
878.614	64.17
878.786	-21.84
878.959	21.16
879.131	29.35
879.303	-40.28
879.476	4.78
879.648	10.92
879.82	-17.75
879.993	-11.61
880.165	66.22
880.337	31.4
880.509	21.16
880.681	-13.65
880.854	-7.51
881.026	-23.89
881.198	-40.28
881.37	64.17
881.542	17.07
881.714	33.45
881.886	-32.08
882.058	-66.9
882.23	45.74
882.402	58.03
882.574	33.45
882.746	43.69
882.918	33.45
883.09	45.74
883.262	47.79
883.434	51.88
883.606	-23.89
883.778	10.92
883.95	53.93
884.122	8.87
884.293	-11.61
884.465	-17.75
884.637	49.83
884.809	-25.94
884.98	41.64
885.152	55.98
885.324	6.83
885.496	21.16
885.667	12.97
885.839	-40.28
886.011	119.46
886.182	19.11
886.354	6.83
886.525	37.55
886.697	37.55
886.869	-64.85
887.04	-3.41
887.212	6.83
887.383	66.22
887.555	15.02
887.726	41.64
887.897	-32.08
888.069	-5.46
888.24	72.36
888.412	55.98
888.583	17.07
888.754	17.07
888.926	-62.8
889.097	8.87
889.268	-23.89
889.44	-42.32
889.611	-79.19
889.782	29.35
889.953	8.87
890.125	8.87
890.296	45.74
890.467	-44.37
890.638	33.45
890.809	-11.61
890.98	-1.37
891.151	-27.99
891.323	64.17
891.494	-21.84
891.665	-42.32
891.836	-32.08
892.007	17.07
892.178	43.69
892.349	84.65
892.52	8.87
892.691	27.31
892.862	-15.7
893.032	23.21
893.203	-27.99
893.374	17.07
893.545	96.94
893.716	33.45
893.887	33.45
894.057	-17.75
894.228	68.27
894.399	-48.47
894.57	64.17
894.74	-1.37
894.911	25.26
895.082	15.02
895.253	-99.67
895.423	2.73
895.594	4.78
895.764	62.12
895.935	29.35
896.106	17.07
896.276	-11.61
896.447	15.02
896.617	-7.51
896.788	-36.18
896.958	-79.19
897.129	-58.71
897.299	15.02
897.47	58.03
897.64	66.22
897.81	-21.84
897.981	4.78
898.151	-46.42
898.322	53.93
898.492	39.59
898.662	84.65
898.832	-21.84
899.003	-7.51
899.173	49.83
899.343	-13.65
899.513	-7.51
