Data from USB4F104151__156__10-27-08-152.txt Node

Date: Wed Mar 12 10:27:08 EDT 2025
User: louis
Spectrometer: USB4F10415
Trigger mode: 4
Integration Time (sec): 3.000000E-2
Scans to average: 1
Electric dark correction enabled: true
Nonlinearity correction enabled: false
Boxcar width: 0
XAxis mode: Wavelengths
Number of Pixels in Spectrum: 3648
>>>>>Begin Spectral Data<<<<<
178.204	-72.36
178.424	-72.36
178.644	-72.36
178.864	-88.75
179.084	-58.03
179.304	5.46
179.524	46.42
179.744	17.75
179.964	48.47
180.184	1.37
180.404	-43.69
180.624	54.61
180.844	-33.45
181.064	-39.59
181.283	-6.83
181.503	-60.07
181.723	9.56
181.943	-53.93
182.163	15.7
182.383	-17.07
182.602	34.13
182.822	52.56
183.042	-0.68
183.262	9.56
183.482	48.47
183.701	9.56
183.921	36.18
184.141	42.32
184.361	56.66
184.58	62.8
184.8	42.32
185.02	34.13
185.239	105.81
185.459	101.72
185.679	66.9
185.898	-10.92
186.118	71
186.338	21.84
186.557	99.67
186.777	-4.78
186.997	-15.02
187.216	27.99
187.436	66.9
187.655	83.28
187.875	32.08
188.095	71
188.314	56.66
188.534	19.8
188.753	15.7
188.973	50.52
189.192	126.29
189.412	30.04
189.631	40.28
189.851	60.76
190.07	73.04
190.29	-15.02
190.509	-10.92
190.729	30.04
190.948	79.19
191.168	64.85
191.387	50.52
191.607	15.7
191.826	64.85
192.045	17.75
192.265	15.7
192.484	54.61
192.704	-8.87
192.923	60.76
193.142	52.56
193.362	58.71
193.581	50.52
193.8	23.89
194.02	93.52
194.239	64.85
194.458	25.94
194.678	56.66
194.897	-8.87
195.116	83.28
195.335	40.28
195.555	40.28
195.774	73.04
195.993	30.04
196.212	-60.07
196.432	-6.83
196.651	36.18
196.87	38.23
197.089	75.09
197.308	-51.88
197.528	46.42
197.747	19.8
197.966	50.52
198.185	48.47
198.404	27.99
198.623	40.28
198.842	114
199.062	83.28
199.281	83.28
199.5	5.46
199.719	71
199.938	9.56
200.157	42.32
200.376	97.62
200.595	25.94
200.814	62.8
201.033	-23.21
201.252	34.13
201.471	54.61
201.69	34.13
201.909	73.04
202.128	30.04
202.347	52.56
202.566	1.37
202.785	-0.68
203.004	-49.83
203.223	120.15
203.442	-6.83
203.661	-19.11
203.879	-12.97
204.098	116.05
204.317	27.99
204.536	42.32
204.755	-27.31
204.974	85.33
205.193	21.84
205.411	210.26
205.63	11.61
205.849	46.42
206.068	122.2
206.287	9.56
206.505	111.96
206.724	-2.73
206.943	62.8
207.162	52.56
207.381	48.47
207.599	21.84
207.818	15.7
208.037	68.95
208.255	25.94
208.474	77.14
208.693	42.32
208.911	21.84
209.13	58.71
209.349	75.09
209.567	32.08
209.786	87.38
210.005	56.66
210.223	36.18
210.442	73.04
210.661	3.41
210.879	62.8
211.098	91.48
211.316	34.13
211.535	-41.64
211.753	32.08
211.972	-39.59
212.191	46.42
212.409	40.28
212.628	50.52
212.846	56.66
213.065	85.33
213.283	136.53
213.502	77.14
213.72	66.9
213.938	19.8
214.157	-23.21
214.375	79.19
214.594	25.94
214.812	87.38
215.031	30.04
215.249	30.04
215.467	48.47
215.686	3.41
215.904	17.75
216.122	97.62
216.341	68.95
216.559	48.47
216.778	79.19
216.996	44.37
217.214	81.24
217.432	62.8
217.651	-33.45
217.869	-10.92
218.087	7.51
218.306	38.23
218.524	81.24
218.742	60.76
218.96	122.2
219.179	81.24
219.397	-68.27
219.615	91.48
219.833	77.14
220.051	13.65
220.27	54.61
220.488	77.14
220.706	150.87
220.924	17.75
221.142	21.84
221.36	58.71
221.578	32.08
221.796	-10.92
222.015	64.85
222.233	50.52
222.451	99.67
222.669	93.52
222.887	42.32
223.105	-25.26
223.323	13.65
223.541	27.99
223.759	27.99
223.977	62.8
224.195	68.95
224.413	140.63
224.631	56.66
224.849	5.46
225.067	66.9
225.285	11.61
225.503	54.61
225.721	124.24
225.939	17.75
226.157	40.28
226.375	97.62
226.592	7.51
226.81	1.37
227.028	75.09
227.246	56.66
227.464	30.04
227.682	50.52
227.9	99.67
228.117	-2.73
228.335	34.13
228.553	40.28
228.771	40.28
228.989	66.9
229.206	-0.68
229.424	19.8
229.642	-0.68
229.86	17.75
230.077	27.99
230.295	7.51
230.513	56.66
230.731	19.8
230.948	99.67
231.166	75.09
231.384	25.94
231.601	73.04
231.819	15.7
232.037	27.99
232.254	3.41
232.472	58.71
232.689	62.8
232.907	81.24
233.125	34.13
233.342	-10.92
233.56	-55.98
233.777	21.84
233.995	42.32
234.213	161.11
234.43	40.28
234.648	75.09
234.865	79.19
235.083	-25.26
235.3	38.23
235.518	66.9
235.735	66.9
235.953	13.65
236.17	97.62
236.388	-17.07
236.605	-35.5
236.822	97.62
237.04	81.24
237.257	-8.87
237.475	71
237.692	66.9
237.909	54.61
238.127	73.04
238.344	23.89
238.562	68.95
238.779	-6.83
238.996	-4.78
239.214	-6.83
239.431	99.67
239.648	17.75
239.865	103.76
240.083	95.57
240.3	15.7
240.517	30.04
240.735	60.76
240.952	34.13
241.169	66.9
241.386	25.94
241.603	77.14
241.821	-2.73
242.038	124.24
242.255	73.04
242.472	13.65
242.689	73.04
242.907	46.42
243.124	9.56
243.341	19.8
243.558	44.37
243.775	114
243.992	56.66
244.209	60.76
244.426	36.18
244.643	122.2
244.86	50.52
245.078	71
245.295	36.18
245.512	-10.92
245.729	58.71
245.946	34.13
246.163	73.04
246.38	103.76
246.597	34.13
246.814	73.04
247.031	83.28
247.248	120.15
247.464	50.52
247.681	9.56
247.898	25.94
248.115	27.99
248.332	-12.97
248.549	75.09
248.766	60.76
248.983	128.34
249.2	56.66
249.417	68.95
249.633	-10.92
249.85	34.13
250.067	42.32
250.284	50.52
250.501	15.7
250.717	89.43
250.934	-6.83
251.151	48.47
251.368	42.32
251.585	107.86
251.801	48.47
252.018	7.51
252.235	38.23
252.451	5.46
252.668	-19.11
252.885	71
253.102	68.95
253.318	71
253.535	11.61
253.752	-103.08
253.968	7.51
254.185	-21.16
254.401	25.94
254.618	71
254.835	7.51
255.051	85.33
255.268	77.14
255.484	-43.69
255.701	95.57
255.917	11.61
256.134	15.7
256.351	1.37
256.567	17.75
256.784	-19.11
257	-10.92
257.217	34.13
257.433	56.66
257.65	36.18
257.866	9.56
258.082	34.13
258.299	79.19
258.515	101.72
258.732	27.99
258.948	38.23
259.165	21.84
259.381	79.19
259.597	15.7
259.814	48.47
260.03	25.94
260.246	30.04
260.463	75.09
260.679	93.52
260.895	89.43
261.112	68.95
261.328	7.51
261.544	71
261.761	167.25
261.977	85.33
262.193	83.28
262.409	68.95
262.626	85.33
262.842	46.42
263.058	1.37
263.274	146.77
263.49	79.19
263.707	114
263.923	17.75
264.139	13.65
264.355	71
264.571	107.86
264.787	81.24
265.004	-8.87
265.22	-0.68
265.436	38.23
265.652	54.61
265.868	46.42
266.084	-6.83
266.3	34.13
266.516	81.24
266.732	-15.02
266.948	50.52
267.164	75.09
267.38	44.37
267.596	21.84
267.812	85.33
268.028	75.09
268.244	-21.16
268.46	34.13
268.676	71
268.892	71
269.108	-8.87
269.324	48.47
269.54	-31.4
269.756	13.65
269.972	81.24
270.188	50.52
270.403	75.09
270.619	48.47
270.835	64.85
271.051	7.51
271.267	36.18
271.483	71
271.698	140.63
271.914	38.23
272.13	34.13
272.346	99.67
272.562	-23.21
272.777	30.04
272.993	56.66
273.209	62.8
273.425	19.8
273.64	27.99
273.856	89.43
274.072	56.66
274.287	48.47
274.503	79.19
274.719	44.37
274.934	36.18
275.15	34.13
275.366	34.13
275.581	19.8
275.797	91.48
276.012	23.89
276.228	46.42
276.444	19.8
276.659	138.58
276.875	122.2
277.09	87.38
277.306	87.38
277.521	44.37
277.737	-17.07
277.952	111.96
278.168	19.8
278.383	27.99
278.599	60.76
278.814	58.71
279.03	25.94
279.245	154.96
279.461	15.7
279.676	25.94
279.892	-0.68
280.107	21.84
280.322	5.46
280.538	124.24
280.753	21.84
280.969	95.57
281.184	44.37
281.399	-27.31
281.615	25.94
281.83	38.23
282.045	-6.83
282.26	27.99
282.476	87.38
282.691	62.8
282.906	52.56
283.122	64.85
283.337	-2.73
283.552	58.71
283.767	79.19
283.983	25.94
284.198	-15.02
284.413	34.13
284.628	-39.59
284.843	19.8
285.058	95.57
285.274	36.18
285.489	-49.83
285.704	99.67
285.919	-0.68
286.134	19.8
286.349	40.28
286.564	-19.11
286.779	95.57
286.995	103.76
287.21	36.18
287.425	46.42
287.64	52.56
287.855	40.28
288.07	46.42
288.285	114
288.5	75.09
288.715	152.91
288.93	19.8
289.145	71
289.36	48.47
289.575	50.52
289.79	107.86
290.004	66.9
290.219	71
290.434	19.8
290.649	107.86
290.864	21.84
291.079	-19.11
291.294	46.42
291.509	81.24
291.724	138.58
291.938	38.23
292.153	64.85
292.368	48.47
292.583	50.52
292.798	36.18
293.012	66.9
293.227	34.13
293.442	77.14
293.657	138.58
293.871	87.38
294.086	38.23
294.301	40.28
294.516	103.76
294.73	66.9
294.945	60.76
295.16	-23.21
295.374	114
295.589	50.52
295.804	7.51
296.018	-2.73
296.233	171.35
296.447	36.18
296.662	5.46
296.877	64.85
297.091	54.61
297.306	54.61
297.52	40.28
297.735	-17.07
297.949	62.8
298.164	66.9
298.378	9.56
298.593	40.28
298.807	11.61
299.022	111.96
299.236	46.42
299.451	97.62
299.665	-23.21
299.88	23.89
300.094	58.71
300.309	73.04
300.523	9.56
300.737	122.2
300.952	134.48
301.166	79.19
301.381	15.7
301.595	60.76
301.809	32.08
302.024	-21.16
302.238	-8.87
302.452	25.94
302.667	1.37
302.881	111.96
303.095	99.67
303.309	154.96
303.524	34.13
303.738	38.23
303.952	66.9
304.166	111.96
304.381	-80.55
304.595	54.61
304.809	62.8
305.023	73.04
305.237	73.04
305.452	62.8
305.666	68.95
305.88	107.86
306.094	38.23
306.308	56.66
306.522	83.28
306.736	64.85
306.95	34.13
307.164	48.47
307.379	40.28
307.593	91.48
307.807	87.38
308.021	21.84
308.235	1.37
308.449	95.57
308.663	9.56
308.877	30.04
309.091	-6.83
309.305	38.23
309.519	99.67
309.733	85.33
309.947	17.75
310.161	97.62
310.374	83.28
310.588	150.87
310.802	111.96
311.016	105.81
311.23	46.42
311.444	105.81
311.658	62.8
311.872	68.95
312.085	9.56
312.299	99.67
312.513	73.04
312.727	68.95
312.941	32.08
313.154	-15.02
313.368	50.52
313.582	-19.11
313.796	15.7
314.009	64.85
314.223	97.62
314.437	75.09
314.651	75.09
314.864	71
315.078	-25.26
315.292	66.9
315.505	58.71
315.719	32.08
315.933	44.37
316.146	-19.11
316.36	46.42
316.573	73.04
316.787	-0.68
317.001	48.47
317.214	34.13
317.428	62.8
317.641	1.37
317.855	64.85
318.068	66.9
318.282	81.24
318.495	44.37
318.709	62.8
318.922	30.04
319.136	40.28
319.349	99.67
319.563	25.94
319.776	11.61
319.99	30.04
320.203	116.05
320.417	30.04
320.63	64.85
320.843	187.73
321.057	13.65
321.27	83.28
321.483	9.56
321.697	118.1
321.91	32.08
322.124	148.82
322.337	27.99
322.55	91.48
322.763	114
322.977	79.19
323.19	54.61
323.403	38.23
323.617	3.41
323.83	64.85
324.043	66.9
324.256	66.9
324.469	50.52
324.683	71
324.896	30.04
325.109	116.05
325.322	-35.5
325.535	81.24
325.748	64.85
325.962	38.23
326.175	-2.73
326.388	62.8
326.601	83.28
326.814	-27.31
327.027	58.71
327.24	97.62
327.453	56.66
327.666	81.24
327.879	17.75
328.092	93.52
328.305	17.75
328.518	-4.78
328.731	17.75
328.944	58.71
329.157	95.57
329.37	116.05
329.583	116.05
329.796	169.3
330.009	30.04
330.222	95.57
330.435	15.7
330.648	103.76
330.861	85.33
331.073	99.67
331.286	71
331.499	62.8
331.712	56.66
331.925	46.42
332.138	9.56
332.35	68.95
332.563	42.32
332.776	-0.68
332.989	-6.83
333.202	64.85
333.414	128.34
333.627	5.46
333.84	9.56
334.053	15.7
334.265	73.04
334.478	75.09
334.691	64.85
334.903	107.86
335.116	34.13
335.329	48.47
335.541	66.9
335.754	87.38
335.966	60.76
336.179	56.66
336.392	13.65
336.604	89.43
336.817	87.38
337.029	71
337.242	34.13
337.454	97.62
337.667	73.04
337.88	71
338.092	17.75
338.305	58.71
338.517	71
338.729	46.42
338.942	17.75
339.154	87.38
339.367	30.04
339.579	56.66
339.792	32.08
340.004	19.8
340.217	-27.31
340.429	48.47
340.641	62.8
340.854	66.9
341.066	-27.31
341.278	83.28
341.491	87.38
341.703	91.48
341.915	48.47
342.128	91.48
342.34	1.37
342.552	44.37
342.764	71
342.977	64.85
343.189	103.76
343.401	89.43
343.613	62.8
343.826	62.8
344.038	13.65
344.25	95.57
344.462	126.29
344.674	36.18
344.886	32.08
345.099	48.47
345.311	118.1
345.523	75.09
345.735	34.13
345.947	58.71
346.159	111.96
346.371	40.28
346.583	34.13
346.795	89.43
347.007	54.61
347.219	71
347.431	3.41
347.643	122.2
347.855	93.52
348.067	50.52
348.279	46.42
348.491	46.42
348.703	21.84
348.915	25.94
349.127	-68.27
349.339	25.94
349.551	58.71
349.763	124.24
349.975	85.33
350.187	111.96
350.399	89.43
350.61	101.72
350.822	60.76
351.034	114
351.246	54.61
351.458	56.66
351.669	91.48
351.881	103.76
352.093	66.9
352.305	36.18
352.517	17.75
352.728	44.37
352.94	25.94
353.152	46.42
353.363	11.61
353.575	-10.92
353.787	140.63
353.999	50.52
354.21	60.76
354.422	87.38
354.633	64.85
354.845	42.32
355.057	25.94
355.268	68.95
355.48	30.04
355.692	75.09
355.903	58.71
356.115	-12.97
356.326	-6.83
356.538	91.48
356.749	81.24
356.961	134.48
357.172	77.14
357.384	23.89
357.595	122.2
357.807	34.13
358.018	77.14
358.23	-8.87
358.441	83.28
358.653	91.48
358.864	40.28
359.075	30.04
359.287	103.76
359.498	68.95
359.709	132.44
359.921	19.8
360.132	75.09
360.344	64.85
360.555	48.47
360.766	87.38
360.977	17.75
361.189	54.61
361.4	11.61
361.611	122.2
361.823	23.89
362.034	79.19
362.245	75.09
362.456	21.84
362.667	66.9
362.879	38.23
363.09	5.46
363.301	89.43
363.512	62.8
363.723	75.09
363.935	5.46
364.146	52.56
364.357	83.28
364.568	68.95
364.779	64.85
364.99	85.33
365.201	21.84
365.412	58.71
365.623	25.94
365.834	36.18
366.045	95.57
366.256	165.2
366.467	97.62
366.678	11.61
366.889	91.48
367.1	83.28
367.311	83.28
367.522	124.24
367.733	105.81
367.944	38.23
368.155	73.04
368.366	58.71
368.577	38.23
368.788	75.09
368.999	62.8
369.209	64.85
369.42	97.62
369.631	146.77
369.842	56.66
370.053	-27.31
370.264	73.04
370.474	48.47
370.685	68.95
370.896	32.08
371.107	11.61
371.317	99.67
371.528	38.23
371.739	89.43
371.95	68.95
372.16	38.23
372.371	25.94
372.582	75.09
372.792	5.46
373.003	95.57
373.214	91.48
373.424	77.14
373.635	-0.68
373.846	56.66
374.056	23.89
374.267	97.62
374.477	73.04
374.688	107.86
374.898	91.48
375.109	73.04
375.319	99.67
375.53	114
375.74	54.61
375.951	75.09
376.161	40.28
376.372	38.23
376.582	73.04
376.793	34.13
377.003	-47.79
377.214	30.04
377.424	81.24
377.635	64.85
377.845	11.61
378.055	91.48
378.266	62.8
378.476	95.57
378.686	54.61
378.897	42.32
379.107	97.62
379.317	17.75
379.528	120.15
379.738	56.66
379.948	27.99
380.158	128.34
380.369	-10.92
380.579	64.85
380.789	71
380.999	64.85
381.21	68.95
381.42	177.49
381.63	38.23
381.84	114
382.05	17.75
382.261	64.85
382.471	116.05
382.681	62.8
382.891	114
383.101	83.28
383.311	30.04
383.521	13.65
383.731	95.57
383.941	126.29
384.151	50.52
384.361	75.09
384.571	97.62
384.781	79.19
384.991	91.48
385.201	81.24
385.411	48.47
385.621	73.04
385.831	60.76
386.041	15.7
386.251	38.23
386.461	52.56
386.671	75.09
386.881	68.95
387.091	95.57
387.301	95.57
387.511	79.19
387.72	85.33
387.93	54.61
388.14	58.71
388.35	93.52
388.56	95.57
388.769	109.91
388.979	91.48
389.189	73.04
389.399	71
389.609	83.28
389.818	124.24
390.028	103.76
390.238	30.04
390.447	30.04
390.657	71
390.867	77.14
391.076	68.95
391.286	30.04
391.496	32.08
391.705	64.85
391.915	114
392.125	40.28
392.334	163.15
392.544	103.76
392.753	77.14
392.963	40.28
393.172	97.62
393.382	68.95
393.591	144.72
393.801	38.23
394.01	165.2
394.22	85.33
394.429	79.19
394.639	58.71
394.848	130.39
395.058	36.18
395.267	85.33
395.477	163.15
395.686	150.87
395.895	167.25
396.105	159.06
396.314	58.71
396.524	95.57
396.733	77.14
396.942	179.54
397.152	142.68
397.361	154.96
397.57	130.39
397.78	71
397.989	126.29
398.198	101.72
398.407	138.58
398.617	167.25
398.826	132.44
399.035	95.57
399.244	167.25
399.453	75.09
399.663	116.05
399.872	173.39
400.081	175.44
400.29	224.59
400.499	101.72
400.708	105.81
400.917	99.67
401.127	107.86
401.336	171.35
401.545	142.68
401.754	146.77
401.963	128.34
402.172	130.39
402.381	109.91
402.59	138.58
402.799	97.62
403.008	191.83
403.217	111.96
403.426	130.39
403.635	132.44
403.844	95.57
404.053	181.59
404.262	68.95
404.471	216.4
404.68	140.63
404.888	204.11
405.097	216.4
405.306	116.05
405.515	214.35
405.724	214.35
405.933	218.45
406.142	189.78
406.35	210.26
406.559	257.36
406.768	142.68
406.977	197.97
407.185	255.31
407.394	210.26
407.603	243.03
407.812	222.55
408.02	306.51
408.229	267.6
408.438	292.18
408.646	279.89
408.855	286.03
409.064	220.5
409.272	275.79
409.481	322.9
409.69	365.9
409.898	322.9
410.107	349.52
410.315	417.1
410.524	324.94
410.733	398.67
410.941	365.9
411.15	398.67
411.358	423.25
411.567	501.07
411.775	410.96
411.984	382.29
412.192	501.07
412.401	544.08
412.609	488.78
412.818	560.46
413.026	576.84
413.234	556.36
413.443	517.45
413.651	636.24
413.86	656.72
414.068	648.52
414.276	703.82
414.485	609.61
414.693	638.28
414.901	748.87
415.11	644.43
415.318	779.59
415.526	740.68
415.734	783.69
415.943	810.31
416.151	894.28
416.359	902.47
416.567	937.29
416.776	922.95
416.984	951.62
417.192	1054.02
417.4	1017.16
417.608	1029.45
417.817	1152.32
418.025	1117.51
418.233	1168.71
418.441	1166.66
418.649	1269.06
418.857	1381.7
419.065	1432.9
419.273	1389.89
419.481	1416.51
419.689	1531.2
419.897	1590.59
420.105	1686.84
420.313	1754.43
420.521	1688.89
420.729	1776.95
420.937	1748.28
421.145	1901.88
421.353	2020.66
421.561	2082.1
421.769	2024.76
421.977	2182.45
422.185	2186.55
422.393	2196.79
422.601	2475.31
422.809	2385.2
423.017	2405.68
423.224	2473.26
423.432	2514.22
423.64	2643.24
423.848	2745.64
424.056	2745.64
424.263	2940.2
424.471	2985.26
424.679	3046.69
424.887	3235.11
425.094	3376.42
425.302	3400.99
425.51	3521.82
425.718	3521.82
425.925	3527.97
426.133	3691.8
426.341	3935.51
426.548	4144.41
426.756	3984.66
426.964	4130.07
427.171	4447.51
427.379	4502.8
427.586	4572.43
427.794	4838.67
428.001	4945.16
428.209	5289.22
428.417	5158.15
428.624	5438.72
428.832	5393.67
429.039	5485.83
429.247	5401.86
429.454	5897.47
429.662	6331.64
429.869	5917.95
430.076	6399.22
430.284	6143.22
430.491	6438.13
430.699	6774
430.906	6743.28
431.114	6937.84
431.321	7167.21
431.528	7306.47
431.736	7648.48
431.943	8062.17
432.15	7898.33
432.358	7752.93
432.565	8283.35
432.772	8262.87
432.979	8664.27
433.187	8961.23
433.394	9032.91
433.601	9614.53
433.808	9561.28
434.016	9442.5
434.223	9764.03
434.43	10310.84
434.637	10321.08
434.844	10800.3
435.052	11238.57
435.259	11074.73
435.466	11072.68
435.673	11095.21
435.88	11748.51
436.087	12205.21
436.294	12262.55
436.501	11947.17
436.708	12369.05
436.915	12985.49
437.122	13356.17
437.329	13192.33
437.537	13798.53
437.743	13974.66
437.95	13712.52
438.157	14627.96
438.364	14908.53
438.571	14873.71
438.778	15139.95
438.985	16190.56
439.192	15815.78
439.399	16260.19
439.606	15907.94
439.813	16927.83
440.02	17792.07
440.227	17511.5
440.433	17243.21
440.64	17849.41
440.847	18046.02
441.054	18236.48
441.261	19315.76
441.467	18998.32
441.674	19471.4
441.881	20149.28
442.088	20249.63
442.294	19876.9
442.501	20507.68
442.708	20847.64
442.914	21801.99
443.121	22897.66
443.328	22057.99
443.534	23546.86
443.741	22774.78
443.948	22672.38
444.154	24568.8
444.361	24200.16
444.568	24480.74
444.774	24357.86
444.981	24525.79
445.187	25347.03
445.394	26186.69
445.6	25988.04
445.807	28582.82
446.013	27360.18
446.22	27999.15
446.426	28953.5
446.633	29234.07
446.839	30024.59
447.046	28605.34
447.252	30163.85
447.459	30237.58
447.665	30317.45
447.871	31525.75
448.078	32791.39
448.284	31138.68
448.491	32375.66
448.697	33291.1
448.903	33778.51
449.11	33545.05
449.316	33215.32
449.522	33993.55
449.728	34814.79
449.935	34933.57
450.141	34491.21
450.347	35713.84
450.553	34554.69
450.76	35044.16
450.966	35969.84
451.172	35568.44
451.378	36305.71
451.584	35832.63
451.791	36324.14
451.997	36285.23
452.203	36938.53
452.409	36817.7
452.615	36686.63
452.821	35121.98
453.027	35033.92
453.233	36973.35
453.44	34980.67
453.646	35334.97
453.852	35793.72
454.058	36326.19
454.264	35246.91
454.47	35990.32
454.676	35281.72
454.882	35967.79
455.088	33053.53
455.294	33413.98
455.5	33878.86
455.705	34505.54
455.911	32738.15
456.117	32252.78
456.323	31591.28
456.529	29963.15
456.735	31232.89
456.941	30399.37
457.147	30086.03
457.352	28949.4
457.558	28480.42
457.764	28552.1
457.97	28011.43
458.176	27567.02
458.381	27601.84
458.587	26227.65
458.793	26168.26
458.999	24769.5
459.204	26831.8
459.41	26102.73
459.616	24177.64
459.821	24300.51
460.027	24232.93
460.233	23475.18
460.438	22395.9
460.644	22686.72
460.85	21410.83
461.055	21062.68
461.261	21312.53
461.466	19772.46
461.672	19360.81
461.878	20479
462.083	19076.15
462.289	19149.87
462.494	18480.19
462.7	17771.59
462.905	17284.17
463.111	17902.66
463.316	17771.59
463.522	17763.4
463.727	17718.34
463.932	17390.67
464.138	17546.31
464.343	17546.31
464.549	17075.28
464.754	17507.4
464.959	17472.59
465.165	17415.24
465.37	16520.28
465.575	16272.48
465.781	16673.88
465.986	16942.16
466.191	16260.19
466.397	15934.56
466.602	15316.08
466.807	15973.47
467.012	15942.75
467.218	15625.32
467.423	15395.95
467.628	15627.37
467.833	16129.12
468.038	15637.61
468.244	15389.8
468.449	15721.57
468.654	15359.08
468.859	15293.55
469.064	15230.06
469.269	14498.94
469.474	14488.7
469.679	14918.77
469.885	14378.11
470.09	14558.33
470.295	14644.34
470.5	14163.07
470.705	14369.91
470.91	13857.92
471.115	13819.01
471.32	14009.47
471.525	14005.38
471.73	13798.53
471.935	13638.79
472.139	13202.57
472.344	13091.98
472.549	13198.48
472.754	12967.06
472.959	12870.8
473.164	12512.41
473.369	12213.4
473.574	12706.96
473.778	12717.2
473.983	12287.13
474.188	12532.89
474.393	11959.45
474.598	11981.98
474.802	11828.38
475.007	11773.09
475.212	11861.15
475.417	11314.34
475.621	11343.02
475.826	11289.77
476.031	11175.08
476.235	11001.01
476.44	11121.84
476.645	11068.59
476.849	11029.68
477.054	10986.67
477.259	10728.63
477.463	10806.45
477.668	10204.35
477.872	10620.08
478.077	10323.13
478.282	10011.84
478.486	10081.47
478.691	10007.74
478.895	9966.78
479.1	9919.68
479.304	9940.16
479.509	9528.52
479.713	9567.43
479.918	9624.77
480.122	9485.51
480.326	9774.27
480.531	9667.78
480.735	9573.57
480.94	9401.54
481.144	9764.03
481.348	9303.24
481.553	9469.12
481.757	9080.01
481.961	9293
482.166	9258.18
482.37	9522.37
482.574	9331.91
482.778	9151.69
482.983	9512.13
483.187	9229.51
483.391	9407.69
483.595	9370.82
483.8	9256.14
484.004	9155.79
484.208	9510.08
484.412	9131.21
484.616	9155.79
484.821	9235.66
485.025	9024.72
485.229	9249.99
485.433	9055.44
485.637	9221.32
485.841	9110.73
486.045	9196.74
486.249	9288.9
486.453	9141.45
486.657	9174.22
486.861	9282.76
487.065	9088.2
487.269	9131.21
487.473	9168.07
487.677	9274.57
487.881	9344.2
488.085	9274.57
488.289	9200.84
488.493	9118.92
488.697	9514.18
488.901	9540.8
489.105	9278.66
489.309	9465.03
489.512	9356.49
489.716	9256.14
489.92	9376.97
490.124	9305.29
490.328	9526.47
490.531	9333.96
490.735	9592
490.939	9505.99
491.143	9528.52
491.346	9446.6
491.55	9761.98
491.754	9495.75
491.958	9534.66
492.161	9700.55
492.365	9682.11
492.569	9628.87
492.772	9776.32
492.976	9946.3
493.18	9835.71
493.383	10187.96
493.587	9983.17
493.79	10073.28
493.994	10097.85
494.197	10323.13
494.401	10366.14
494.605	10343.61
494.808	10570.93
495.012	10724.53
495.215	10601.65
495.419	10646.71
495.622	10663.09
495.825	10857.65
496.029	10806.45
496.232	11150.51
496.436	10960.05
496.639	11463.85
496.843	11525.29
497.046	11607.2
497.249	11701.41
497.453	11648.16
497.656	11877.54
497.859	12162.2
498.063	11875.49
498.266	12012.7
498.469	12215.45
498.673	12219.55
498.876	12788.88
499.079	12536.98
499.282	12758.16
499.485	13034.64
499.689	12924.05
499.892	13149.32
500.095	13106.32
500.298	13522.06
500.501	13364.36
500.705	13761.67
500.908	13911.17
501.111	14206.08
501.314	13950.08
501.517	14457.98
501.72	14314.62
501.923	14644.34
502.126	14959.73
502.329	15082.61
502.532	14867.57
502.735	15397.99
502.938	15641.7
503.141	15705.19
503.344	15860.84
503.547	15891.55
503.75	15930.47
503.953	16460.89
504.156	16489.56
504.359	16653.4
504.562	16720.98
504.765	17003.6
504.968	17136.72
505.17	17269.84
505.373	17345.61
505.576	17910.85
505.779	18043.97
505.982	18195.52
506.185	18224.19
506.387	18502.72
506.59	18502.72
506.793	18883.64
506.996	18848.82
507.198	19270.7
507.401	19313.71
507.604	19608.62
507.807	19725.35
508.009	20136.99
508.212	20087.84
508.415	20446.24
508.617	20653.08
508.82	20827.16
509.022	20915.22
509.225	21322.77
509.428	21541.9
509.63	21265.42
509.833	21769.23
510.035	22328.32
510.238	22225.92
510.44	22553.6
510.643	22944.76
510.845	23073.78
511.048	22895.61
511.25	23407.6
511.453	23303.15
511.655	24044.52
511.858	24191.97
512.06	24421.34
512.262	24472.54
512.465	24513.5
512.667	24841.18
512.87	25158.61
513.072	25340.88
513.274	25811.92
513.477	26008.52
513.679	26446.79
513.881	26512.32
514.084	26897.34
514.286	26643.39
514.488	27237.3
514.69	27691.95
514.893	27702.19
515.095	27501.49
515.297	28373.92
515.499	28203.94
515.701	28150.7
515.904	28849.05
516.106	28906.4
516.308	29514.64
516.51	30006.16
516.712	29864.85
516.914	30299.01
517.116	30671.75
517.318	30716.8
517.52	30944.13
517.722	31243.13
517.925	31609.71
518.127	31839.09
518.329	32093.04
518.531	32037.74
518.733	32322.41
518.935	32582.5
519.136	33074.01
519.338	33346.39
519.54	33641.3
519.742	33362.78
519.944	34124.62
520.146	34376.52
520.348	34376.52
520.55	34640.71
520.752	35064.64
520.954	35607.35
521.155	35072.83
521.357	35957.55
521.559	35769.14
521.761	36973.35
521.963	36543.27
522.164	36379.43
522.366	36942.63
522.568	37667.61
522.77	37245.72
522.971	38165.26
523.173	37587.74
523.375	38439.69
523.576	37985.04
523.778	38376.2
523.98	38810.37
524.181	38859.52
524.383	39111.42
524.584	40012.53
524.786	39557.88
524.988	39596.79
525.189	40088.31
525.391	40012.53
525.592	40579.82
525.794	40751.85
525.995	40973.03
526.197	40837.86
526.398	40714.98
526.6	41368.29
526.801	41626.33
527.003	41976.53
527.204	41618.14
527.406	42056.4
527.607	41777.88
527.808	42257.1
528.01	41548.51
528.211	42525.39
528.412	42623.69
528.614	42459.85
528.815	43027.14
529.016	43498.17
529.218	42896.07
529.419	43072.2
529.62	43248.32
529.822	43258.56
530.023	43029.19
530.224	43326.14
530.425	43463.36
530.626	43332.29
530.828	43211.46
531.029	44184.24
531.23	43330.24
531.431	43721.4
531.632	43457.21
531.833	44298.93
532.035	43911.86
532.236	44270.26
532.437	44436.14
532.638	44233.39
532.839	44079.8
533.04	44407.47
533.241	43737.79
533.442	44772.01
533.643	44608.17
533.844	44214.96
534.045	44747.43
534.246	44073.65
534.447	44870.31
534.648	44532.4
534.849	44845.74
535.05	44360.37
535.251	44927.66
535.451	44489.39
535.652	45136.55
535.853	44851.88
536.054	44849.83
536.255	44937.9
536.456	44407.47
536.657	45484.7
536.857	44761.77
537.058	44905.13
537.259	44837.55
537.46	45011.62
537.66	44591.79
537.861	44874.41
538.062	44659.37
538.263	44800.68
538.463	44704.43
538.664	44657.32
538.865	44944.04
539.065	44941.99
539.266	44356.27
539.466	45329.06
539.667	44294.83
539.868	45118.12
540.068	45046.44
540.269	44444.34
540.469	44735.15
540.67	44616.36
540.87	44847.78
541.071	44835.5
541.271	44837.55
541.472	44563.12
541.672	44485.29
541.873	44421.81
542.073	44094.13
542.274	44726.95
542.474	44772.01
542.675	44325.55
542.875	44915.37
543.075	44589.74
543.276	44149.43
543.476	45091.49
543.676	44679.85
543.877	44993.19
544.077	44604.08
544.277	44829.35
544.478	44337.84
544.678	44862.12
544.878	44495.53
545.078	44358.32
545.279	44184.24
545.479	44419.76
545.679	44894.89
545.879	44479.15
546.079	45083.3
546.28	44491.44
546.48	44063.41
546.68	44645.04
546.88	44399.28
547.08	44638.89
547.28	44477.1
547.48	44042.93
547.68	44350.13
547.88	44440.24
548.081	44532.4
548.281	44124.85
548.481	44386.99
548.681	44597.93
548.881	44495.53
549.081	44575.41
549.28	44081.84
549.48	44473.01
549.68	44411.57
549.88	45265.57
550.08	44163.76
550.28	44403.38
550.48	44010.17
550.68	44233.39
550.88	44171.96
551.08	44116.66
551.279	44227.25
551.479	43848.38
551.679	43936.44
551.879	43885.24
552.079	44309.17
552.278	43907.77
552.478	43862.71
552.678	44346.03
552.878	44272.31
553.077	44276.4
553.277	43899.58
553.477	44425.9
553.676	43887.29
553.876	44049.08
554.076	43555.52
554.275	44014.26
554.475	43354.82
554.674	43750.07
554.874	43858.62
555.074	43760.31
555.273	43786.94
555.473	43963.06
555.672	43305.66
555.872	43391.68
556.071	43576
556.271	43707.07
556.47	43375.3
556.67	43350.72
556.869	43219.65
557.068	43524.8
557.268	43283.14
557.467	43510.46
557.667	43166.4
557.866	43363.01
558.065	42887.88
558.265	42740.43
558.464	42875.59
558.663	43494.08
558.863	42717.9
559.062	43356.86
559.261	42709.71
559.461	43127.49
559.66	42261.2
559.859	42635.98
560.058	42509
560.258	42797.77
560.457	42023.64
560.656	42887.88
560.855	42330.83
561.054	42152.66
561.253	42357.46
561.453	42425.04
561.652	42492.62
561.851	42334.93
562.05	41867.99
562.249	41493.21
562.448	42126.03
562.647	41663.19
562.846	41528.03
563.045	41847.51
563.244	40987.36
563.443	41781.98
563.642	40956.64
563.841	41425.63
564.04	41200.35
564.239	41409.25
564.438	40538.86
564.637	41003.75
564.836	40993.51
565.035	40442.6
565.234	41011.94
565.432	40909.54
565.631	40381.17
565.83	40794.85
566.029	40594.15
566.228	40131.31
566.427	40002.29
566.625	40014.58
566.824	39869.17
567.023	40260.33
567.222	39234.3
567.42	40030.96
567.619	39502.59
567.818	39303.93
568.016	39787.25
568.215	39957.24
568.414	39332.61
568.612	39703.29
568.811	39099.14
569.01	39082.75
569.208	38505.23
569.407	39230.21
569.605	38284.05
569.804	38804.23
570.002	38628.1
570.201	38789.89
570.4	38439.69
570.598	38683.4
570.797	38265.61
570.995	38742.79
571.193	37888.79
571.392	38640.39
571.59	37651.22
571.789	38011.67
571.987	37763.86
572.186	37548.82
572.384	37538.58
572.582	37792.53
572.781	37524.25
572.979	37112.61
573.177	36866.85
573.376	37589.78
573.574	36885.28
573.772	37063.46
573.971	37006.11
574.169	36645.67
574.367	36719.4
574.565	36774.69
574.763	36498.22
574.962	36320.04
575.16	36170.54
575.358	35924.79
575.556	35769.14
575.754	36573.99
575.952	35537.72
576.151	36277.04
576.349	35359.55
576.547	35789.62
576.745	36059.95
576.943	35765.04
577.141	35605.3
577.339	35431.22
577.537	35097.41
577.735	35101.5
577.933	34988.86
578.131	35324.73
578.329	34802.5
578.527	34800.45
578.725	34689.86
578.923	34870.08
579.121	34693.96
579.319	34046.8
579.516	34700.1
579.714	34343.75
579.912	33956.69
580.11	34263.88
580.308	34171.72
580.506	33997.65
580.704	33405.78
580.901	34001.74
581.099	34306.89
581.297	33704.79
581.495	33614.68
581.692	33878.86
581.89	33508.18
582.088	33651.54
582.285	33250.14
582.483	33579.86
582.681	33282.91
582.878	32879.46
583.076	32684.9
583.274	33039.2
583.471	32455.53
583.669	33135.45
583.866	32242.54
584.064	32549.73
584.262	31918.96
584.459	32781.15
584.657	32072.56
584.854	32494.44
585.052	31597.43
585.249	31830.9
585.447	32271.21
585.644	32035.69
585.841	31886.19
586.039	32062.32
586.236	31331.19
586.434	31366.01
586.631	31413.11
586.828	31517.56
587.026	31124.35
587.223	31505.27
587.42	31329.14
587.618	31196.03
587.815	30796.67
588.012	30671.75
588.21	30589.83
588.407	30974.84
588.604	30808.96
588.801	30348.17
588.999	30167.94
589.196	30290.82
589.393	30401.41
589.59	30552.96
589.787	29899.66
589.984	30043.02
590.182	29551.51
590.379	29881.23
590.576	29737.87
590.773	29733.78
590.97	29537.17
591.167	29662.1
591.364	29229.98
591.561	29393.81
591.758	29195.16
591.955	29377.43
592.152	29490.07
592.349	29029.27
592.546	29080.47
592.743	29129.62
592.94	28615.58
593.137	28982.17
593.334	28953.5
593.531	28548
593.727	28584.87
593.924	28439.46
594.121	27896.75
594.318	28431.27
594.515	28054.44
594.712	28586.91
594.908	27761.58
595.105	28175.27
595.302	27571.12
595.499	27933.61
595.696	27829.16
595.892	27321.27
596.089	27780.01
596.286	27622.32
596.482	27481.01
596.679	27337.65
596.876	27354.04
597.072	27091.9
597.269	26954.68
597.466	26817.47
597.662	26948.54
597.859	26848.19
598.055	26563.52
598.252	26856.38
598.448	26702.78
598.645	26981.31
598.841	26215.37
599.038	26278.85
599.234	26659.77
599.431	26110.92
599.627	26201.03
599.824	26430.4
600.02	25734.09
600.217	26133.45
600.413	25994.18
600.609	25773
600.806	25586.64
601.002	25920.46
601.198	25478.1
601.395	25658.32
601.591	25572.3
601.787	25510.86
601.984	25611.21
602.18	25332.69
602.376	24939.48
602.572	24775.64
602.769	25082.84
602.965	24738.78
603.161	24933.34
603.357	24712.16
603.553	24458.21
603.75	24810.46
603.946	24615.9
604.142	24947.67
604.338	24308.71
604.534	24589.28
604.73	24153.06
604.926	23899.11
605.122	24138.72
605.318	23890.92
605.514	23890.92
605.71	24116.2
605.906	23837.67
606.102	23671.79
606.298	23815.15
606.494	23811.05
606.69	23960.55
606.886	23583.73
607.082	23557.1
607.278	23514.09
607.474	23065.59
607.67	23237.62
607.866	23151.6
608.062	23405.55
608.257	23315.44
608.453	23114.74
608.649	23061.49
608.845	22807.55
609.041	23104.5
609.236	23100.4
609.432	22821.88
609.628	22834.17
609.824	22725.63
610.019	22541.31
610.215	22463.49
610.411	22715.39
610.606	22711.29
610.802	22389.76
610.998	22338.56
611.193	22227.97
611.389	22107.14
611.584	22332.42
611.78	21976.07
611.976	22125.57
612.171	22342.66
612.367	22205.44
612.562	22035.46
612.758	21615.63
612.953	21767.18
613.149	21924.87
613.344	21611.53
613.539	22209.54
613.735	21666.83
613.93	21726.22
614.126	21556.24
614.321	21832.71
614.517	21705.74
614.712	21445.65
614.907	21660.68
615.103	21838.86
615.298	21281.81
615.493	21705.74
615.688	21087.25
615.884	21701.64
616.079	20986.9
616.274	21507.09
616.47	21224.47
616.665	21138.45
616.86	21007.38
617.055	21109.78
617.25	20950.04
617.445	21011.48
617.641	20505.63
617.836	21251.09
618.031	20687.9
618.226	20614.17
618.421	20694.04
618.616	20909.08
618.811	20096.03
619.006	20581.4
619.201	20032.55
619.396	20409.37
619.591	19977.25
619.786	20024.36
619.981	20003.88
620.176	20163.62
620.371	19516.46
620.566	19733.54
620.761	19620.91
620.956	19731.5
621.151	19319.85
621.346	19614.76
621.541	19121.2
621.735	19313.71
621.93	19031.09
622.125	19041.33
622.32	19018.8
622.515	19395.63
622.709	18650.17
622.904	18814.01
623.099	18494.52
623.294	18660.41
623.488	18252.86
623.683	18492.48
623.878	17857.6
624.072	18103.36
624.267	17955.91
624.462	17714.25
624.656	17634.38
624.851	18023.49
625.046	17556.55
625.24	17405
625.435	17388.62
625.629	17353.8
625.824	17292.37
626.018	17220.69
626.213	16639.06
626.407	16987.22
626.602	16723.03
626.796	16919.64
626.991	16929.88
627.185	16931.92
627.38	16575.58
627.574	16376.92
627.768	16467.03
627.963	16323.68
628.157	16000.1
628.352	16075.87
628.546	15918.18
628.74	15938.66
628.935	15783.01
629.129	15729.77
629.323	15420.52
629.517	15668.33
629.712	15610.98
629.906	15426.67
630.1	15369.32
630.294	15314.03
630.489	15115.37
630.683	15279.21
630.877	15058.03
631.071	14969.97
631.265	14804.08
631.459	14908.53
631.653	14855.28
631.848	14541.94
632.042	14505.08
632.236	14445.69
632.43	14201.98
632.624	14398.59
632.818	14105.73
633.012	14201.98
633.206	14091.39
633.4	14206.08
633.594	13939.84
633.788	14025.86
633.982	14124.16
634.176	13698.18
634.369	13696.13
634.563	13583.49
634.757	13409.42
634.951	13552.77
635.145	13548.68
635.339	13444.23
635.533	13261.96
635.726	13417.61
635.92	13028.49
636.114	13155.47
636.308	12840.08
636.501	12786.83
636.695	12956.82
636.889	12827.79
637.083	12432.54
637.276	12752.02
637.47	12608.66
637.664	12522.65
637.857	12743.83
638.051	12442.78
638.244	12309.66
638.438	12057.76
638.632	12141.72
638.825	11934.88
639.019	12061.85
639.212	11992.22
639.406	11891.87
639.599	11648.16
639.793	11943.07
639.986	11652.26
640.18	11764.9
640.373	11775.14
640.567	11404.46
640.76	11363.5
640.954	11191.47
641.147	11257
641.34	11326.63
641.534	11209.9
641.727	11156.65
641.92	11154.6
642.114	10906.8
642.307	10828.98
642.5	10962.09
642.694	10615.99
642.887	10564.79
643.08	10667.19
643.273	10507.44
643.467	10497.21
643.66	10390.71
643.853	10462.39
644.046	10255.54
644.239	10243.26
644.432	10304.7
644.626	10202.3
644.819	10036.41
645.012	10142.91
645.205	10333.37
645.398	10196.15
645.591	9954.49
645.784	9991.36
645.977	9632.96
646.17	9770.18
646.363	9684.16
646.556	9573.57
646.749	9637.06
646.942	9587.91
647.135	9505.99
647.328	9485.51
647.521	9317.58
647.714	9186.51
647.907	9206.98
648.099	9159.88
648.292	9503.94
648.485	9219.27
648.678	8944.84
648.871	9080.01
649.064	9026.76
649.256	8969.42
649.449	8961.23
649.642	8733.9
649.835	8850.64
650.027	8752.34
650.22	8799.44
650.413	8672.47
650.605	8731.86
650.798	8506.58
650.991	8549.59
651.183	8584.4
651.376	8123.61
651.568	8471.76
651.761	8344.79
651.954	8314.07
652.146	8242.39
652.339	8144.09
652.531	8412.37
652.724	7922.91
652.916	7988.44
653.109	8008.92
653.301	7914.72
653.494	8082.65
653.686	7754.97
653.879	7877.85
654.071	7828.7
654.263	7902.43
654.456	7789.79
654.648	7640.29
654.84	7632.1
655.033	7650.53
655.225	7455.97
655.417	7326.95
655.61	7607.52
655.802	7658.72
655.994	7439.59
656.186	7331.05
656.379	7431.4
656.571	7390.44
656.763	7142.63
656.955	7335.14
657.148	7210.22
657.34	7146.73
657.532	6986.99
657.724	7161.06
657.916	7034.09
658.108	6937.84
658.3	6929.64
658.492	7089.39
658.684	6855.92
658.876	6849.77
659.068	6755.57
659.26	6700.27
659.452	6673.65
659.644	6831.34
659.836	6483.19
660.028	6534.39
660.22	6563.06
660.412	6579.44
660.604	6268.15
660.796	6505.71
660.988	6518
661.18	6333.68
661.372	6321.4
661.563	6360.31
661.755	6382.84
661.947	6194.42
662.139	6202.61
662.331	6190.33
662.522	6063.35
662.714	6135.03
662.906	6051.06
663.097	6102.26
663.289	5922.04
663.481	5883.13
663.673	5932.28
663.864	5981.43
664.056	5799.16
664.247	5883.13
664.439	5784.83
664.631	5776.64
664.822	5721.34
665.014	5473.54
665.205	5766.4
665.397	5606.66
665.588	5647.62
665.78	5485.83
665.971	5571.84
666.163	5469.44
666.354	5420.29
666.546	5461.25
666.737	5383.43
666.929	5442.82
667.12	5379.33
667.311	5321.99
667.503	5317.89
667.694	5235.97
667.885	5408
668.077	5059.85
668.268	5307.65
668.459	5141.77
668.651	5170.44
668.842	5131.53
669.033	5131.53
669.224	5006.6
669.416	5057.8
669.607	4986.12
669.798	4982.03
669.989	4934.92
670.18	5047.56
670.371	4889.87
670.563	5072.14
670.754	4781.32
670.945	4834.57
671.136	4789.52
671.327	4752.65
671.518	4846.86
671.709	4824.33
671.9	4773.13
672.091	4762.89
672.282	4646.16
672.473	4574.48
672.664	4607.25
672.855	4637.97
673.046	4623.63
673.237	4519.18
673.428	4584.72
673.619	4554
673.809	4373.78
674	4498.7
674.191	4549.9
674.382	4623.63
674.573	4547.86
674.764	4490.51
674.954	4465.94
675.145	4418.83
675.336	4365.59
675.527	4232.47
675.717	4396.31
675.908	4306.2
676.099	4343.06
676.289	4414.74
676.48	4341.01
676.671	4224.28
676.861	4441.36
677.052	4142.36
677.243	4236.56
677.433	4044.06
677.624	4142.36
677.814	4072.73
678.005	4111.64
678.195	4060.44
678.386	4093.21
678.576	4042.01
678.767	4023.58
678.957	3992.86
679.148	3970.33
679.338	4056.34
679.529	3962.14
679.719	3925.27
679.909	4039.96
680.1	3931.42
680.29	4003.1
680.481	3892.51
680.671	3796.25
680.861	3898.65
681.052	3902.75
681.242	3833.11
681.432	3851.55
681.622	3859.74
681.813	3888.41
682.003	3812.64
682.193	3904.79
682.383	3798.3
682.573	3792.16
682.764	3751.2
682.954	3708.19
683.144	3642.65
683.334	3675.42
683.524	3687.71
683.714	3646.75
683.904	3577.12
684.094	3622.17
684.284	3757.34
684.474	3722.52
684.664	3669.28
684.854	3632.41
685.044	3634.46
685.234	3513.63
685.424	3593.5
685.614	3632.41
685.804	3573.02
685.994	3409.19
686.184	3532.06
686.374	3437.86
686.564	3335.46
686.753	3472.67
686.943	3292.45
687.133	3355.94
687.323	3226.92
687.513	3276.07
687.702	3388.71
687.892	3196.2
688.082	3366.18
688.272	3335.46
688.461	3400.99
688.651	3364.13
688.841	3349.79
689.03	3269.92
689.22	3239.2
689.41	3343.65
689.599	3183.91
689.789	3335.46
689.979	3312.93
690.168	3177.76
690.358	3173.67
690.547	3196.2
690.737	3259.68
690.926	3212.58
691.116	3177.76
691.305	3149.09
691.495	3204.39
691.684	3114.28
691.874	3151.14
692.063	3032.36
692.252	3089.7
692.442	3136.81
692.631	3122.47
692.82	3032.36
693.01	3001.64
693.199	2975.02
693.388	2870.57
693.578	2979.11
693.767	2985.26
693.956	3001.64
694.146	2989.35
694.335	2987.3
694.524	3046.69
694.713	3038.5
694.902	2917.67
695.092	2880.81
695.281	2923.82
695.47	2866.47
695.659	2972.97
695.848	2886.95
696.037	2891.05
696.226	2962.73
696.415	2829.61
696.604	2876.71
696.793	2858.28
696.982	2985.26
697.171	2985.26
697.36	2948.39
697.549	2813.23
697.738	2872.62
697.927	2901.29
698.116	3040.55
698.305	2923.82
698.494	2983.21
698.683	2868.52
698.872	2891.05
699.061	2860.33
699.25	2897.19
699.438	2987.3
699.627	2891.05
699.816	2886.95
700.005	2954.54
700.193	2802.99
700.382	2958.63
700.571	2903.34
700.76	2843.95
700.948	2815.27
701.137	2823.47
701.326	2817.32
701.514	2872.62
701.703	2702.64
701.892	2809.13
702.08	2870.57
702.269	2856.23
702.457	2776.36
702.646	2819.37
702.834	2727.21
703.023	2936.1
703.212	2780.46
703.4	2864.43
703.589	2624.81
703.777	2800.94
703.965	2805.03
704.154	2751.79
704.342	2841.9
704.531	2768.17
704.719	2721.07
704.907	2889
705.096	2913.58
705.284	2884.91
705.472	2929.96
705.661	2839.85
705.849	2860.33
706.037	2747.69
706.226	2821.42
706.414	2776.36
706.602	2768.17
706.79	2841.9
706.979	2868.52
707.167	2815.27
707.355	2759.98
707.543	2774.31
707.731	2753.84
707.919	2839.85
708.107	2762.03
708.296	2805.03
708.484	2798.89
708.672	2798.89
708.86	2710.83
709.048	2745.64
709.236	2735.4
709.424	2669.87
709.612	2882.86
709.8	2661.68
709.988	2858.28
710.176	2727.21
710.364	2682.16
710.551	2719.02
710.739	2676.01
710.927	2757.93
711.115	2753.84
711.303	2815.27
711.491	2823.47
711.679	2766.12
711.866	2843.95
712.054	2807.08
712.242	2772.27
712.43	2874.67
712.617	2714.92
712.805	2741.55
712.993	2823.47
713.181	2673.96
713.368	2800.94
713.556	2667.82
713.744	2721.07
713.931	2751.79
714.119	2882.86
714.306	2741.55
714.494	2772.27
714.682	2839.85
714.869	2671.92
715.057	2651.44
715.244	2696.49
715.432	2696.49
715.619	2696.49
715.807	2741.55
715.994	2729.26
716.182	2710.83
716.369	2716.97
716.556	2792.75
716.744	2688.3
716.931	2719.02
717.119	2845.99
717.306	2792.75
717.493	2792.75
717.681	2719.02
717.868	2647.34
718.055	2702.64
718.242	2673.96
718.43	2858.28
718.617	2774.31
718.804	2737.45
718.991	2575.66
719.179	2745.64
719.366	2657.58
719.553	2714.92
719.74	2676.01
719.927	2647.34
720.114	2759.98
720.301	2671.92
720.488	2516.27
720.676	2635.05
720.863	2614.57
721.05	2659.63
721.237	2714.92
721.424	2610.48
721.611	2606.38
721.798	2579.76
721.985	2669.87
722.172	2604.33
722.358	2526.51
722.545	2598.19
722.732	2612.53
722.919	2671.92
723.106	2628.91
723.293	2544.94
723.48	2503.98
723.667	2508.08
723.853	2610.48
724.04	2571.57
724.227	2579.76
724.414	2520.37
724.6	2596.14
724.787	2530.61
724.974	2639.15
725.161	2553.13
725.347	2503.98
725.534	2571.57
725.72	2557.23
725.907	2594.09
726.094	2454.83
726.28	2561.33
726.467	2532.65
726.653	2401.58
726.84	2530.61
727.027	2579.76
727.213	2352.43
727.4	2528.56
727.586	2581.81
727.773	2528.56
727.959	2479.41
728.145	2499.89
728.332	2516.27
728.518	2516.27
728.705	2565.42
728.891	2415.92
729.077	2413.87
729.264	2366.77
729.45	2471.22
729.636	2534.7
729.823	2254.13
730.009	2604.33
730.195	2321.71
730.382	2413.87
730.568	2354.48
730.754	2475.31
730.94	2334
731.126	2426.16
731.313	2415.92
731.499	2370.87
731.685	2299.19
731.871	2295.09
732.057	2442.54
732.243	2348.34
732.429	2356.53
732.615	2475.31
732.801	2311.47
732.987	2385.2
733.173	2348.34
733.359	2245.94
733.545	2303.28
733.731	2387.25
733.917	2403.63
734.103	2213.17
734.289	2444.59
734.475	2198.84
734.661	2272.56
734.847	2301.23
735.033	2352.43
735.219	2262.32
735.404	2286.9
735.59	2190.64
735.776	2239.8
735.962	2260.27
736.148	2243.89
736.333	2266.42
736.519	2223.41
736.705	2342.19
736.89	2198.84
737.076	2229.56
737.262	2098.49
737.447	2254.13
737.633	2157.88
737.819	2196.79
738.004	2250.03
738.19	2227.51
738.375	2176.31
738.561	2161.97
738.747	2123.06
738.932	2180.4
739.118	2086.2
739.303	2032.95
739.489	2082.1
739.674	2065.72
739.859	1965.37
740.045	2082.1
740.23	2065.72
740.416	2002.23
740.601	2123.06
740.786	2082.1
740.972	2028.85
741.157	2209.08
741.342	2049.33
741.528	1996.09
741.713	2102.58
741.898	2032.95
742.084	1979.7
742.269	1967.42
742.454	2043.19
742.639	2059.57
742.824	1965.37
743.01	1858.87
743.195	1918.26
743.38	1944.89
743.565	1877.3
743.75	1852.73
743.935	1918.26
744.12	1901.88
744.305	1822.01
744.49	1856.82
744.675	1926.46
744.86	1826.11
745.045	1867.06
745.23	1854.78
745.415	1901.88
745.6	1860.92
745.785	1692.99
745.97	1670.46
746.155	1793.34
746.34	1776.95
746.525	1680.7
746.71	1776.95
746.895	1744.19
747.079	1817.91
747.264	1783.1
747.449	1754.43
747.634	1641.79
747.819	1758.52
748.003	1629.5
748.188	1733.95
748.373	1578.3
748.557	1596.73
748.742	1549.63
748.927	1664.32
749.111	1627.45
749.296	1598.78
749.481	1584.45
749.665	1551.68
749.85	1553.73
750.034	1559.87
750.219	1549.63
750.404	1535.29
750.588	1578.3
750.773	1471.81
750.957	1494.33
751.141	1490.24
751.326	1494.33
751.51	1451.33
751.695	1459.52
751.879	1475.9
752.064	1508.67
752.248	1504.57
752.432	1498.43
752.617	1443.14
752.801	1447.23
752.985	1418.56
753.17	1463.61
753.354	1508.67
753.538	1326.4
753.722	1320.26
753.907	1287.49
754.091	1402.18
754.275	1348.93
754.459	1350.98
754.643	1318.21
754.828	1279.3
755.012	1365.31
755.196	1402.18
755.38	1236.29
755.564	1324.35
755.748	1314.11
755.932	1256.77
756.116	1267.01
756.3	1205.57
756.484	1275.2
756.668	1203.52
756.852	1109.32
757.036	1187.14
757.22	1152.32
757.404	1238.34
757.588	1164.61
757.772	1115.46
757.956	1211.71
758.14	1174.85
758.323	1174.85
758.507	1181
758.691	1113.41
758.875	1236.29
759.059	1117.51
759.242	1129.8
759.426	1062.21
759.61	1144.13
759.794	1080.64
759.977	1047.88
760.161	1049.93
760.345	1072.45
760.528	1129.8
760.712	1109.32
760.895	1068.36
761.079	986.44
761.263	1011.01
761.446	1088.84
761.63	1103.17
761.813	1066.31
761.997	978.25
762.18	1019.21
762.364	1043.78
762.547	1006.92
762.731	1047.88
762.914	1103.17
763.098	984.39
763.281	955.72
763.464	1033.54
763.648	976.2
763.831	884.04
764.015	1033.54
764.198	965.96
764.381	974.15
764.564	1043.78
764.748	1006.92
764.931	898.38
765.114	1029.45
765.297	968.01
765.481	982.34
765.664	925
765.847	877.9
766.03	986.44
766.213	910.66
766.397	896.33
766.58	873.8
766.763	1008.97
766.946	996.68
767.129	853.32
767.312	888.14
767.495	947.53
767.678	820.55
767.861	881.99
768.044	931.14
768.227	871.75
768.41	824.65
768.593	877.9
768.776	816.46
768.959	865.61
769.142	894.28
769.324	830.79
769.507	943.43
769.69	877.9
769.873	808.26
770.056	965.96
770.239	808.26
770.421	849.22
770.604	927.05
770.787	771.4
770.97	820.55
771.152	777.55
771.335	925
771.518	763.21
771.7	843.08
771.883	867.66
772.066	818.5
772.248	910.66
772.431	836.94
772.613	781.64
772.796	806.22
772.978	703.82
773.161	888.14
773.343	806.22
773.526	781.64
773.708	755.02
773.891	685.39
774.073	757.07
774.256	738.63
774.438	802.12
774.621	804.17
774.803	789.83
774.985	703.82
775.168	793.93
775.35	656.72
775.532	812.36
775.715	730.44
775.897	744.78
776.079	722.25
776.261	666.96
776.444	755.02
776.626	687.43
776.808	746.83
776.99	628.04
777.173	671.05
777.355	697.67
777.537	642.38
777.719	746.83
777.901	615.76
778.083	726.35
778.265	648.52
778.447	714.06
778.629	648.52
778.811	693.58
778.993	650.57
779.175	572.75
779.357	646.48
779.539	636.24
779.721	664.91
779.903	603.47
780.085	640.33
780.267	556.36
780.449	648.52
780.631	699.72
780.812	673.1
780.994	558.41
781.176	587.08
781.358	554.32
781.54	562.51
781.721	677.19
781.903	544.08
782.085	599.37
782.267	546.12
782.448	560.46
782.63	494.93
782.812	537.93
782.993	548.17
783.175	574.8
783.357	490.83
783.538	533.84
783.72	533.84
783.901	558.41
784.083	499.02
784.264	503.12
784.446	429.39
784.627	449.87
784.809	451.92
784.99	456.01
785.172	539.98
785.353	492.88
785.535	535.89
785.716	501.07
785.897	427.34
786.079	464.21
786.26	447.82
786.441	482.64
786.623	431.44
786.804	451.92
786.985	468.3
787.167	404.82
787.348	400.72
787.529	439.63
787.71	494.93
787.891	468.3
788.073	443.73
788.254	349.52
788.435	480.59
788.616	417.1
788.797	425.29
788.978	363.86
789.159	363.86
789.34	386.38
789.522	439.63
789.703	423.25
789.884	384.34
790.065	361.81
790.246	361.81
790.427	312.66
790.607	419.15
790.788	396.62
790.969	347.47
791.15	460.11
791.331	353.62
791.512	402.77
791.693	271.7
791.874	370
792.054	392.53
792.235	419.15
792.416	329.04
792.597	318.8
792.778	406.86
792.958	382.29
793.139	320.85
793.32	337.23
793.5	277.84
793.681	402.77
793.862	339.28
794.042	308.56
794.223	333.14
794.404	296.27
794.584	326.99
794.765	286.03
794.945	339.28
795.126	345.42
795.306	302.42
795.487	370
795.667	339.28
795.848	320.85
796.028	337.23
796.209	341.33
796.389	304.46
796.57	304.46
796.75	370
796.93	396.62
797.111	259.41
797.291	294.22
797.471	349.52
797.652	318.8
797.832	329.04
798.012	347.47
798.192	316.75
798.373	206.16
798.553	331.09
798.733	341.33
798.913	226.64
799.093	265.55
799.274	255.31
799.454	298.32
799.634	302.42
799.814	316.75
799.994	238.93
800.174	152.91
800.354	261.46
800.534	255.31
800.714	247.12
800.894	185.68
801.074	152.91
801.254	230.74
801.434	275.79
801.614	263.51
801.794	220.5
801.974	703.82
802.154	226.64
802.334	243.03
802.514	232.79
802.693	249.17
802.873	245.07
803.053	261.46
803.233	247.12
803.413	267.6
803.592	228.69
803.772	253.27
803.952	273.75
804.131	216.4
804.311	240.98
804.491	273.75
804.67	234.83
804.85	263.51
805.03	234.83
805.209	257.36
805.389	288.08
805.568	273.75
805.748	171.35
805.928	179.54
806.107	288.08
806.287	224.59
806.466	255.31
806.646	251.22
806.825	218.45
807.004	202.07
807.184	220.5
807.363	200.02
807.543	173.39
807.722	148.82
807.901	208.21
808.081	275.79
808.26	200.02
808.439	202.07
808.619	197.97
808.798	197.97
808.977	173.39
809.156	263.51
809.336	187.73
809.515	234.83
809.694	157.01
809.873	208.21
810.052	208.21
810.231	193.87
810.411	152.91
810.59	224.59
810.769	146.77
810.948	224.59
811.127	161.11
811.306	161.11
811.485	200.02
811.664	251.22
811.843	234.83
812.022	212.31
812.201	107.86
812.38	159.06
812.559	109.91
812.737	226.64
812.916	212.31
813.095	130.39
813.274	97.62
813.453	165.2
813.632	154.96
813.811	116.05
813.989	105.81
814.168	204.11
814.347	214.35
814.526	193.87
814.704	212.31
814.883	195.92
815.062	85.33
815.24	56.66
815.419	142.68
815.598	173.39
815.776	103.76
815.955	107.86
816.133	206.16
816.312	206.16
816.49	128.34
816.669	152.91
816.847	222.55
817.026	177.49
817.204	114
817.383	193.87
817.561	179.54
817.74	146.77
817.918	130.39
818.097	95.57
818.275	161.11
818.453	114
818.632	179.54
818.81	157.01
818.988	148.82
819.167	111.96
819.345	159.06
819.523	142.68
819.701	148.82
819.879	185.68
820.058	132.44
820.236	171.35
820.414	71
820.592	107.86
820.77	87.38
820.948	87.38
821.127	159.06
821.305	122.2
821.483	64.85
821.661	200.02
821.839	48.47
822.017	107.86
822.195	128.34
822.373	87.38
822.551	134.48
822.729	154.96
822.907	93.52
823.085	161.11
823.262	107.86
823.44	114
823.618	116.05
823.796	157.01
823.974	83.28
824.152	97.62
824.329	136.53
824.507	122.2
824.685	169.3
824.863	128.34
825.04	91.48
825.218	148.82
825.396	91.48
825.574	46.42
825.751	122.2
825.929	99.67
826.107	140.63
826.284	116.05
826.462	48.47
826.639	7.51
826.817	138.58
826.994	191.83
827.172	77.14
827.349	157.01
827.527	109.91
827.704	62.8
827.882	109.91
828.059	126.29
828.237	120.15
828.414	64.85
828.591	71
828.769	107.86
828.946	95.57
829.124	130.39
829.301	165.2
829.478	167.25
829.655	200.02
829.833	148.82
830.01	89.43
830.187	97.62
830.364	50.52
830.542	60.76
830.719	103.76
830.896	136.53
831.073	81.24
831.25	114
831.427	118.1
831.604	124.24
831.782	64.85
831.959	130.39
832.136	132.44
832.313	128.34
832.49	101.72
832.667	30.04
832.844	77.14
833.021	87.38
833.198	95.57
833.374	103.76
833.551	124.24
833.728	83.28
833.905	85.33
834.082	34.13
834.259	52.56
834.436	38.23
834.612	71
834.789	111.96
834.966	48.47
835.143	99.67
835.319	66.9
835.496	64.85
835.673	56.66
835.85	58.71
836.026	13.65
836.203	58.71
836.38	107.86
836.556	71
836.733	93.52
836.909	161.11
837.086	73.04
837.262	89.43
837.439	77.14
837.616	27.99
837.792	21.84
837.968	71
838.145	11.61
838.321	81.24
838.498	91.48
838.674	68.95
838.851	79.19
839.027	36.18
839.203	38.23
839.38	19.8
839.556	124.24
839.732	130.39
839.909	44.37
840.085	83.28
840.261	175.44
840.437	97.62
840.614	62.8
840.79	66.9
840.966	124.24
841.142	124.24
841.318	111.96
841.494	48.47
841.671	36.18
841.847	83.28
842.023	66.9
842.199	79.19
842.375	81.24
842.551	11.61
842.727	-47.79
842.903	66.9
843.079	87.38
843.255	126.29
843.431	19.8
843.607	71
843.783	32.08
843.959	93.52
844.134	-2.73
844.31	111.96
844.486	27.99
844.662	75.09
844.838	71
845.013	83.28
845.189	83.28
845.365	85.33
845.541	111.96
845.716	54.61
845.892	79.19
846.068	60.76
846.244	85.33
846.419	95.57
846.595	107.86
846.77	107.86
846.946	116.05
847.122	91.48
847.297	3.41
847.473	122.2
847.648	30.04
847.824	68.95
847.999	-2.73
848.175	34.13
848.35	87.38
848.526	48.47
848.701	42.32
848.876	44.37
849.052	89.43
849.227	116.05
849.403	54.61
849.578	46.42
849.753	56.66
849.929	54.61
850.104	-27.31
850.279	62.8
850.454	56.66
850.63	64.85
850.805	-12.97
850.98	105.81
851.155	73.04
851.33	52.56
851.505	13.65
851.681	11.61
851.856	5.46
852.031	54.61
852.206	116.05
852.381	19.8
852.556	71
852.731	93.52
852.906	48.47
853.081	54.61
853.256	173.39
853.431	19.8
853.606	42.32
853.781	-15.02
853.956	36.18
854.131	91.48
854.305	44.37
854.48	50.52
854.655	-17.07
854.83	46.42
855.005	124.24
855.18	71
855.354	62.8
855.529	91.48
855.704	48.47
855.879	66.9
856.053	107.86
856.228	19.8
856.403	91.48
856.577	-6.83
856.752	32.08
856.926	-10.92
857.101	-2.73
857.276	5.46
857.45	54.61
857.625	107.86
857.799	42.32
857.974	64.85
858.148	-10.92
858.323	-35.5
858.497	58.71
858.672	73.04
858.846	-17.07
859.02	-6.83
859.195	130.39
859.369	54.61
859.543	9.56
859.718	64.85
859.892	38.23
860.066	17.75
860.241	-2.73
860.415	50.52
860.589	23.89
860.763	114
860.938	87.38
861.112	60.76
861.286	21.84
861.46	79.19
861.634	17.75
861.808	42.32
861.982	68.95
862.157	11.61
862.331	15.7
862.505	3.41
862.679	44.37
862.853	19.8
863.027	64.85
863.201	75.09
863.375	40.28
863.549	103.76
863.722	25.94
863.896	25.94
864.07	21.84
864.244	-6.83
864.418	-0.68
864.592	66.9
864.766	-12.97
864.939	85.33
865.113	-29.35
865.287	44.37
865.461	46.42
865.634	79.19
865.808	75.09
865.982	-45.74
866.156	-2.73
866.329	58.71
866.503	56.66
866.676	93.52
866.85	91.48
867.024	15.7
867.197	23.89
867.371	97.62
867.544	25.94
867.718	-37.55
867.891	38.23
868.065	42.32
868.238	38.23
868.412	52.56
868.585	9.56
868.759	83.28
868.932	30.04
869.105	-23.21
869.279	93.52
869.452	81.24
869.625	99.67
869.799	-53.93
869.972	87.38
870.145	-17.07
870.319	56.66
870.492	85.33
870.665	60.76
870.838	38.23
871.011	9.56
871.185	-8.87
871.358	54.61
871.531	46.42
871.704	25.94
871.877	30.04
872.05	19.8
872.223	21.84
872.396	15.7
872.569	56.66
872.742	9.56
872.915	38.23
873.088	46.42
873.261	-0.68
873.434	46.42
873.607	73.04
873.78	79.19
873.953	5.46
874.126	-23.21
874.299	95.57
874.471	71
874.644	27.99
874.817	-0.68
874.99	40.28
875.163	17.75
875.335	23.89
875.508	-2.73
875.681	62.8
875.853	-21.16
876.026	64.85
876.199	5.46
876.371	71
876.544	-6.83
876.717	11.61
876.889	38.23
877.062	27.99
877.234	25.94
877.407	-2.73
877.579	34.13
877.752	66.9
877.924	64.85
878.097	95.57
878.269	27.99
878.442	-15.02
878.614	-15.02
878.786	5.46
878.959	23.89
879.131	64.85
879.303	-25.26
879.476	40.28
879.648	64.85
879.82	62.8
879.993	93.52
880.165	-31.4
880.337	-31.4
880.509	-4.78
880.681	-23.21
880.854	85.33
881.026	50.52
881.198	56.66
881.37	34.13
881.542	79.19
881.714	-15.02
881.886	-6.83
882.058	5.46
882.23	77.14
882.402	23.89
882.574	44.37
882.746	-2.73
882.918	36.18
883.09	66.9
883.262	7.51
883.434	27.99
883.606	42.32
883.778	32.08
883.95	83.28
884.122	103.76
884.293	54.61
884.465	25.94
884.637	71
884.809	52.56
884.98	50.52
885.152	93.52
885.324	11.61
885.496	7.51
885.667	50.52
885.839	56.66
886.011	87.38
886.182	17.75
886.354	-29.35
886.525	32.08
886.697	75.09
886.869	-84.65
887.04	-2.73
887.212	-23.21
887.383	105.81
887.555	-17.07
887.726	9.56
887.897	52.56
888.069	-10.92
888.24	75.09
888.412	38.23
888.583	77.14
888.754	-0.68
888.926	-58.03
889.097	77.14
889.268	38.23
889.44	15.7
889.611	32.08
889.782	36.18
889.953	1.37
890.125	13.65
890.296	-31.4
890.467	25.94
890.638	23.89
890.809	48.47
890.98	13.65
891.151	56.66
891.323	32.08
891.494	-19.11
891.665	34.13
891.836	30.04
892.007	54.61
892.178	25.94
892.349	-25.26
892.52	-23.21
892.691	-29.35
892.862	38.23
893.032	-64.17
893.203	44.37
893.374	64.85
893.545	9.56
893.716	9.56
893.887	23.89
894.057	66.9
894.228	-0.68
894.399	-12.97
894.57	38.23
894.74	25.94
894.911	9.56
895.082	30.04
895.253	42.32
895.423	13.65
895.594	5.46
895.764	13.65
895.935	60.76
896.106	27.99
896.276	-33.45
896.447	9.56
896.617	27.99
896.788	9.56
896.958	32.08
897.129	-10.92
897.299	-43.69
897.47	32.08
897.64	-0.68
897.81	25.94
897.981	32.08
898.151	15.7
898.322	64.85
898.492	44.37
898.662	-4.78
898.832	-6.83
899.003	13.65
899.173	-17.07
899.343	-15.02
899.513	66.9
