Data from USB4F104151__275__10-40-57-471.txt Node

Date: Wed Mar 12 10:40:57 EDT 2025
User: louis
Spectrometer: USB4F10415
Trigger mode: 4
Integration Time (sec): 3.000000E-2
Scans to average: 1
Electric dark correction enabled: true
Nonlinearity correction enabled: false
Boxcar width: 0
XAxis mode: Wavelengths
Number of Pixels in Spectrum: 3648
>>>>>Begin Spectral Data<<<<<
178.204	-96.94
178.424	-96.94
178.644	-96.94
178.864	-158.38
179.084	-123.56
179.304	17.75
179.524	-2.73
179.744	-12.97
179.964	52.56
180.184	-62.12
180.404	-82.6
180.624	3.41
180.844	-43.69
181.064	-33.45
181.283	36.18
181.503	66.9
181.723	60.76
181.943	-33.45
182.163	93.52
182.383	7.51
182.602	128.34
182.822	7.51
183.042	27.99
183.262	50.52
183.482	40.28
183.701	23.89
183.921	-39.59
184.141	-31.4
184.361	54.61
184.58	9.56
184.8	79.19
185.02	-72.36
185.239	75.09
185.459	-29.35
185.679	109.91
185.898	-51.88
186.118	44.37
186.338	3.41
186.557	-2.73
186.777	-55.98
186.997	-12.97
187.216	75.09
187.436	163.15
187.655	9.56
187.875	89.43
188.095	-41.64
188.314	19.8
188.534	64.85
188.753	9.56
188.973	77.14
189.192	23.89
189.412	-2.73
189.631	-0.68
189.851	-4.78
190.07	40.28
190.29	3.41
190.509	-33.45
190.729	79.19
190.948	7.51
191.168	134.48
191.387	89.43
191.607	5.46
191.826	40.28
192.045	30.04
192.265	32.08
192.484	-12.97
192.704	36.18
192.923	5.46
193.142	32.08
193.362	23.89
193.581	97.62
193.8	60.76
194.02	-31.4
194.239	-8.87
194.458	73.04
194.678	-23.21
194.897	32.08
195.116	77.14
195.335	50.52
195.555	32.08
195.774	32.08
195.993	71
196.212	-17.07
196.432	21.85
196.651	75.09
196.87	11.61
197.089	138.58
197.308	60.76
197.528	-21.16
197.747	46.42
197.966	3.41
198.185	105.81
198.404	27.99
198.623	44.37
198.842	68.95
199.062	81.24
199.281	54.61
199.5	-4.78
199.719	11.61
199.938	40.28
200.157	42.32
200.376	46.42
200.595	42.32
200.814	64.85
201.033	9.56
201.252	34.13
201.471	21.85
201.69	-4.78
201.909	19.8
202.128	-2.73
202.347	23.89
202.566	23.89
202.785	56.66
203.004	15.7
203.223	89.43
203.442	97.62
203.661	60.76
203.879	71
204.098	71
204.317	-53.93
204.536	64.85
204.755	89.43
204.974	38.23
205.193	56.66
205.411	120.15
205.63	99.67
205.849	5.46
206.068	-29.35
206.287	9.56
206.505	73.04
206.724	27.99
206.943	-4.78
207.162	3.41
207.381	25.94
207.599	44.37
207.818	-33.45
208.037	-29.35
208.255	48.47
208.474	38.23
208.693	-27.31
208.911	64.85
209.13	23.89
209.349	7.51
209.567	34.13
209.786	44.37
210.005	-49.83
210.223	32.08
210.442	-25.26
210.661	-53.93
210.879	27.99
211.098	1.37
211.316	-10.92
211.535	23.89
211.753	25.94
211.972	-39.59
212.191	9.56
212.409	50.52
212.628	11.61
212.846	25.94
213.065	-23.21
213.283	124.24
213.502	23.89
213.72	99.67
213.938	101.72
214.157	52.56
214.375	21.85
214.594	23.89
214.812	79.19
215.031	21.85
215.249	27.99
215.467	58.71
215.686	9.56
215.904	27.99
216.122	73.04
216.341	25.94
216.559	48.47
216.778	50.52
216.996	122.2
217.214	-12.97
217.432	89.43
217.651	-17.07
217.869	1.37
218.087	17.75
218.306	-39.59
218.524	56.66
218.742	5.46
218.96	89.43
219.179	-12.97
219.397	7.51
219.615	-8.87
219.833	21.85
220.051	3.41
220.27	34.13
220.488	-8.87
220.706	89.43
220.924	77.14
221.142	46.42
221.36	-12.97
221.578	-10.92
221.796	34.13
222.015	23.89
222.233	66.9
222.451	95.57
222.669	-15.02
222.887	27.99
223.105	-49.83
223.323	-6.83
223.541	-12.97
223.759	21.85
223.977	-31.4
224.195	97.62
224.413	42.32
224.631	7.51
224.849	44.37
225.067	64.85
225.285	5.46
225.503	32.08
225.721	1.37
225.939	89.43
226.157	27.99
226.375	107.86
226.592	68.95
226.81	71
227.028	85.33
227.246	101.72
227.464	5.46
227.682	56.66
227.9	56.66
228.117	-10.92
228.335	60.76
228.553	42.32
228.771	-12.97
228.989	56.66
229.206	54.61
229.424	75.09
229.642	-2.73
229.86	27.99
230.077	3.41
230.295	-37.55
230.513	3.41
230.731	25.94
230.948	50.52
231.166	71
231.384	15.7
231.601	15.7
231.819	85.33
232.037	-8.87
232.254	54.61
232.472	68.95
232.689	19.8
232.907	56.66
233.125	15.7
233.342	-12.97
233.56	58.71
233.777	19.8
233.995	64.85
234.213	97.62
234.43	-19.11
234.648	32.08
234.865	27.99
235.083	48.47
235.3	81.24
235.518	17.75
235.735	79.19
235.953	66.9
236.17	36.18
236.388	40.28
236.605	89.43
236.822	38.23
237.04	42.32
237.257	52.56
237.475	15.7
237.692	58.71
237.909	48.47
238.127	25.94
238.344	25.94
238.562	56.66
238.779	40.28
238.996	-4.78
239.214	-25.26
239.431	66.9
239.648	25.94
239.865	89.43
240.083	15.7
240.3	30.04
240.517	114
240.735	52.56
240.952	11.61
241.169	99.67
241.386	48.47
241.603	15.7
241.821	-21.16
242.038	21.85
242.255	52.56
242.472	36.18
242.689	23.89
242.907	38.23
243.124	-10.92
243.341	-0.68
243.558	19.8
243.775	103.76
243.992	-4.78
244.209	19.8
244.426	93.52
244.643	34.13
244.86	77.14
245.078	71
245.295	56.66
245.512	25.94
245.729	62.8
245.946	73.04
246.163	-17.07
246.38	13.65
246.597	11.61
246.814	11.61
247.031	17.75
247.248	19.8
247.464	-2.73
247.681	-12.97
247.898	-2.73
248.115	111.96
248.332	-17.07
248.549	3.41
248.766	91.48
248.983	81.24
249.2	17.75
249.417	132.44
249.633	17.75
249.85	56.66
250.067	54.61
250.284	30.04
250.501	52.56
250.717	36.18
250.934	32.08
251.151	19.8
251.368	23.89
251.585	30.04
251.801	75.09
252.018	42.32
252.235	42.32
252.451	-66.22
252.668	9.56
252.885	73.04
253.102	38.23
253.318	89.43
253.535	44.37
253.752	7.51
253.968	19.8
254.185	15.7
254.401	50.52
254.618	44.37
254.835	54.61
255.051	54.61
255.268	77.14
255.484	64.85
255.701	38.23
255.917	81.24
256.134	34.13
256.351	21.85
256.567	-31.4
256.784	48.47
257	-33.45
257.217	-33.45
257.433	-0.68
257.65	46.42
257.866	99.67
258.082	83.28
258.299	87.38
258.515	71
258.732	30.04
258.948	107.86
259.165	15.7
259.381	36.18
259.597	79.19
259.814	3.41
260.03	5.46
260.246	15.7
260.463	60.76
260.679	-15.02
260.895	32.08
261.112	64.85
261.328	-10.92
261.544	17.75
261.761	58.71
261.977	40.28
262.193	66.9
262.409	-31.4
262.626	30.04
262.842	64.85
263.058	93.52
263.274	42.32
263.49	23.89
263.707	48.47
263.923	56.66
264.139	-27.31
264.355	58.71
264.571	-0.68
264.787	101.72
265.004	-0.68
265.22	-2.73
265.436	-6.83
265.652	44.37
265.868	38.23
266.084	-25.26
266.3	-19.11
266.516	44.37
266.732	54.61
266.948	30.04
267.164	32.08
267.38	-8.87
267.596	38.23
267.812	32.08
268.028	99.67
268.244	30.04
268.46	46.42
268.676	36.18
268.892	40.28
269.108	19.8
269.324	-8.87
269.54	36.18
269.756	36.18
269.972	36.18
270.188	58.71
270.403	-8.87
270.619	25.94
270.835	-17.07
271.051	114
271.267	64.85
271.483	114
271.698	44.37
271.914	34.13
272.13	25.94
272.346	52.56
272.562	38.23
272.777	56.66
272.993	62.8
273.209	36.18
273.425	81.24
273.64	-68.27
273.856	52.56
274.072	54.61
274.287	27.99
274.503	42.32
274.719	9.56
274.934	3.41
275.15	-68.27
275.366	-96.94
275.581	23.89
275.797	44.37
276.012	60.76
276.228	27.99
276.444	60.76
276.659	27.99
276.875	27.99
277.09	32.08
277.306	-27.31
277.521	1.37
277.737	-15.02
277.952	52.56
278.168	75.09
278.383	-8.87
278.599	19.8
278.814	60.76
279.03	-43.69
279.245	11.61
279.461	19.8
279.676	64.85
279.892	21.85
280.107	7.51
280.322	-8.87
280.538	56.66
280.753	15.7
280.969	21.85
281.184	52.56
281.399	95.57
281.615	40.28
281.83	48.47
282.045	-49.83
282.26	7.51
282.476	83.28
282.691	15.7
282.906	71
283.122	-2.73
283.337	-49.83
283.552	-12.97
283.767	118.1
283.983	71
284.198	64.85
284.413	62.8
284.628	-21.16
284.843	1.37
285.058	-12.97
285.274	13.65
285.489	44.37
285.704	75.09
285.919	118.1
286.134	64.85
286.349	62.8
286.564	89.43
286.779	3.41
286.995	3.41
287.21	30.04
287.425	81.24
287.64	40.28
287.855	75.09
288.07	42.32
288.285	93.52
288.5	85.33
288.715	42.32
288.93	109.91
289.145	38.23
289.36	-47.79
289.575	46.42
289.79	109.91
290.004	64.85
290.219	36.18
290.434	11.61
290.649	50.52
290.864	15.7
291.079	15.7
291.294	48.47
291.509	-4.78
291.724	-23.21
291.938	-19.11
292.153	103.76
292.368	44.37
292.583	44.37
292.798	66.9
293.012	19.8
293.227	9.56
293.442	-15.02
293.657	52.56
293.871	44.37
294.086	60.76
294.301	122.2
294.516	27.99
294.73	122.2
294.945	48.47
295.16	46.42
295.374	-2.73
295.589	40.28
295.804	-12.97
296.018	44.37
296.233	19.8
296.447	3.41
296.662	7.51
296.877	34.13
297.091	19.8
297.306	46.42
297.52	-53.93
297.735	44.37
297.949	93.52
298.164	38.23
298.378	71
298.593	-21.16
298.807	79.19
299.022	34.13
299.236	52.56
299.451	1.37
299.665	34.13
299.88	50.52
300.094	101.72
300.309	-29.35
300.523	-12.97
300.737	-0.68
300.952	32.08
301.166	19.8
301.381	15.7
301.595	7.51
301.809	60.76
302.024	7.51
302.238	7.51
302.452	34.13
302.667	-2.73
302.881	122.2
303.095	25.94
303.309	38.23
303.524	11.61
303.738	101.72
303.952	36.18
304.166	66.9
304.381	-0.68
304.595	56.66
304.809	27.99
305.023	38.23
305.237	36.18
305.452	32.08
305.666	7.51
305.88	71
306.094	44.37
306.308	68.95
306.522	9.56
306.736	105.81
306.95	73.04
307.164	38.23
307.379	40.28
307.593	-0.68
307.807	19.8
308.021	89.43
308.235	75.09
308.449	-12.97
308.663	64.85
308.877	79.19
309.091	-4.78
309.305	81.24
309.519	50.52
309.733	32.08
309.947	-21.16
310.161	85.33
310.374	19.8
310.588	89.43
310.802	1.37
311.016	36.18
311.23	64.85
311.444	-33.45
311.658	56.66
311.872	44.37
312.085	114
312.299	44.37
312.513	62.8
312.727	36.18
312.941	-10.92
313.154	30.04
313.368	52.56
313.582	66.9
313.796	36.18
314.009	122.2
314.223	42.32
314.437	32.08
314.651	56.66
314.864	54.61
315.078	7.51
315.292	54.61
315.505	23.89
315.719	79.19
315.933	46.42
316.146	34.13
316.36	48.47
316.573	71
316.787	44.37
317.001	75.09
317.214	71
317.428	66.9
317.641	11.61
317.855	30.04
318.068	30.04
318.282	9.56
318.495	9.56
318.709	97.62
318.922	38.23
319.136	83.28
319.349	32.08
319.563	-10.92
319.776	73.04
319.99	9.56
320.203	83.28
320.417	19.8
320.63	23.89
320.843	-0.68
321.057	54.61
321.27	13.65
321.483	7.51
321.697	-82.6
321.91	27.99
322.124	68.95
322.337	38.23
322.55	13.65
322.763	44.37
322.977	36.18
323.19	19.8
323.403	60.76
323.617	30.04
323.83	34.13
324.043	13.65
324.256	62.8
324.469	-0.68
324.683	114
324.896	15.7
325.109	13.65
325.322	7.51
325.535	89.43
325.748	-4.78
325.962	38.23
326.175	11.61
326.388	79.19
326.601	9.56
326.814	9.56
327.027	-8.87
327.24	120.15
327.453	52.56
327.666	77.14
327.879	85.33
328.092	75.09
328.305	56.66
328.518	38.23
328.731	38.23
328.944	95.57
329.157	73.04
329.37	25.94
329.583	62.8
329.796	81.24
330.009	50.52
330.222	42.32
330.435	15.7
330.648	54.61
330.861	38.23
331.073	-10.92
331.286	-10.92
331.499	77.14
331.712	-23.21
331.925	21.85
332.138	-0.68
332.35	44.37
332.563	34.13
332.776	64.85
332.989	-8.87
333.202	1.37
333.414	-27.31
333.627	66.9
333.84	34.13
334.053	19.8
334.265	-21.16
334.478	64.85
334.691	32.08
334.903	40.28
335.116	30.04
335.329	-17.07
335.541	17.75
335.754	58.71
335.966	-27.31
336.179	44.37
336.392	9.56
336.604	93.52
336.817	15.7
337.029	105.81
337.242	85.33
337.454	3.41
337.667	48.47
337.88	21.85
338.092	32.08
338.305	21.85
338.517	13.65
338.729	50.52
338.942	44.37
339.154	21.85
339.367	-27.31
339.579	54.61
339.792	44.37
340.004	107.86
340.217	19.8
340.429	32.08
340.641	56.66
340.854	32.08
341.066	54.61
341.278	120.15
341.491	103.76
341.703	-8.87
341.915	-12.97
342.128	85.33
342.34	79.19
342.552	23.89
342.764	40.28
342.977	71
343.189	23.89
343.401	15.7
343.613	40.28
343.826	93.52
344.038	21.85
344.25	44.37
344.462	19.8
344.674	73.04
344.886	46.42
345.099	79.19
345.311	81.24
345.523	-0.68
345.735	-0.68
345.947	19.8
346.159	27.99
346.371	52.56
346.583	27.99
346.795	116.05
347.007	75.09
347.219	46.42
347.431	52.56
347.643	36.18
347.855	9.56
348.067	95.57
348.279	32.08
348.491	36.18
348.703	36.18
348.915	11.61
349.127	44.37
349.339	75.09
349.551	15.7
349.763	68.95
349.975	64.85
350.187	56.66
350.399	81.24
350.61	56.66
350.822	60.76
351.034	32.08
351.246	42.32
351.458	66.9
351.669	66.9
351.881	60.76
352.093	17.75
352.305	87.38
352.517	107.86
352.728	91.48
352.94	13.65
353.152	1.37
353.363	-0.68
353.575	-6.83
353.787	142.68
353.999	116.05
354.21	73.04
354.422	34.13
354.633	83.28
354.845	48.47
355.057	126.29
355.268	3.41
355.48	-33.45
355.692	58.71
355.903	111.96
356.115	95.57
356.326	9.56
356.538	130.39
356.749	146.77
356.961	87.38
357.172	-21.16
357.384	50.52
357.595	122.2
357.807	58.71
358.018	81.24
358.23	167.25
358.441	89.43
358.653	77.14
358.864	42.32
359.075	52.56
359.287	58.71
359.498	66.9
359.709	91.48
359.921	-10.92
360.132	23.89
360.344	68.95
360.555	58.71
360.766	54.61
360.977	-53.93
361.189	79.19
361.4	17.75
361.611	97.62
361.823	50.52
362.034	40.28
362.245	-45.74
362.456	58.71
362.667	91.48
362.879	19.8
363.09	99.67
363.301	77.14
363.512	34.13
363.723	-29.35
363.935	-6.83
364.146	97.62
364.357	42.32
364.568	54.61
364.779	40.28
364.99	101.72
365.201	87.38
365.412	95.57
365.623	-10.92
365.834	-10.92
366.045	64.85
366.256	58.71
366.467	21.85
366.678	95.57
366.889	30.04
367.1	-8.87
367.311	60.76
367.522	15.7
367.733	85.33
367.944	1.37
368.155	93.52
368.366	85.33
368.577	101.72
368.788	64.85
368.999	64.85
369.209	105.81
369.42	191.83
369.631	150.87
369.842	124.24
370.053	71
370.264	-12.97
370.474	56.66
370.685	118.1
370.896	99.67
371.107	46.42
371.317	85.33
371.528	48.47
371.739	58.71
371.95	44.37
372.16	95.57
372.371	1.37
372.582	130.39
372.792	77.14
373.003	3.41
373.214	111.96
373.424	107.86
373.635	15.7
373.846	73.04
374.056	17.75
374.267	154.96
374.477	21.85
374.688	52.56
374.898	17.75
375.109	79.19
375.319	97.62
375.53	64.85
375.74	159.06
375.951	97.62
376.161	25.94
376.372	66.9
376.582	44.37
376.793	-8.87
377.003	56.66
377.214	52.56
377.424	114
377.635	132.44
377.845	1.37
378.055	68.95
378.266	32.08
378.476	44.37
378.686	85.33
378.897	85.33
379.107	56.66
379.317	128.34
379.528	52.56
379.738	105.81
379.948	36.18
380.158	79.19
380.369	64.85
380.579	99.67
380.789	19.8
380.999	97.62
381.21	169.3
381.42	134.48
381.63	-17.07
381.84	32.08
382.05	9.56
382.261	23.89
382.471	68.95
382.681	83.28
382.891	107.86
383.101	54.61
383.311	9.56
383.521	25.94
383.731	97.62
383.941	-0.68
384.151	99.67
384.361	36.18
384.571	46.42
384.781	101.72
384.991	89.43
385.201	48.47
385.411	89.43
385.621	81.24
385.831	103.76
386.041	91.48
386.251	114
386.461	93.52
386.671	93.52
386.881	91.48
387.091	87.38
387.301	75.09
387.511	46.42
387.72	60.76
387.93	154.96
388.14	42.32
388.35	73.04
388.56	118.1
388.769	64.85
388.979	73.04
389.189	122.2
389.399	91.48
389.609	87.38
389.818	44.37
390.028	107.86
390.238	134.48
390.447	128.34
390.657	116.05
390.867	85.33
391.076	32.08
391.286	134.48
391.496	107.86
391.705	64.85
391.915	118.1
392.125	126.29
392.334	11.61
392.544	169.3
392.753	58.71
392.963	15.7
393.172	56.66
393.382	19.8
393.591	66.9
393.801	5.46
394.01	105.81
394.22	165.2
394.429	93.52
394.639	66.9
394.848	54.61
395.058	95.57
395.267	128.34
395.477	32.08
395.686	134.48
395.895	154.96
396.105	120.15
396.314	103.76
396.524	114
396.733	107.86
396.942	140.63
397.152	85.33
397.361	132.44
397.57	36.18
397.78	99.67
397.989	89.43
398.198	197.97
398.407	179.54
398.617	173.39
398.826	146.77
399.035	165.2
399.244	128.34
399.453	175.44
399.663	132.44
399.872	38.23
400.081	103.76
400.29	177.49
400.499	103.76
400.708	185.68
400.917	169.3
401.127	173.39
401.336	154.96
401.545	200.02
401.754	175.44
401.963	175.44
402.172	107.86
402.381	136.53
402.59	148.82
402.799	128.34
403.008	210.26
403.217	189.78
403.426	111.96
403.635	148.82
403.844	142.68
404.053	146.77
404.262	136.53
404.471	292.18
404.68	193.87
404.888	191.83
405.097	208.21
405.306	173.39
405.515	161.11
405.724	191.83
405.933	185.68
406.142	265.55
406.35	279.89
406.559	343.38
406.768	245.07
406.977	249.17
407.185	240.98
407.394	173.39
407.603	245.07
407.812	273.75
408.02	249.17
408.229	279.89
408.438	320.85
408.646	308.56
408.855	304.46
409.064	324.94
409.272	316.75
409.481	388.43
409.69	363.86
409.898	335.18
410.107	384.34
410.315	441.68
410.524	429.39
410.733	386.38
410.941	425.29
411.15	544.08
411.358	521.55
411.567	480.59
411.775	509.26
411.984	519.5
412.192	578.89
412.401	609.61
412.609	613.71
412.818	646.48
413.026	628.04
413.234	634.19
413.443	589.13
413.651	695.63
413.86	789.83
414.068	789.83
414.276	746.83
414.485	830.79
414.693	841.03
414.901	892.23
415.11	896.33
415.318	898.38
415.526	1029.45
415.734	922.95
415.943	1031.49
416.151	1062.21
416.359	1150.28
416.567	1088.84
416.776	1101.12
416.984	1187.14
417.192	1293.63
417.4	1246.53
417.608	1226.05
417.817	1383.74
418.025	1377.6
418.233	1473.85
418.441	1482.05
418.649	1582.4
418.857	1686.84
419.065	1715.52
419.273	1602.88
419.481	1711.42
419.689	1916.22
419.897	1887.54
420.105	1946.94
420.313	1989.94
420.521	1924.41
420.729	2176.31
420.937	2231.6
421.145	2239.8
421.353	2407.73
421.561	2497.84
421.769	2569.52
421.977	2653.48
422.185	2518.32
422.393	2831.66
422.601	3048.74
422.809	2966.82
423.017	2929.96
423.224	3175.72
423.432	3296.55
423.64	3296.55
423.848	3521.82
424.056	3511.58
424.263	3710.24
424.471	3716.38
424.679	3683.61
424.887	4025.62
425.094	4099.35
425.302	4134.17
425.51	4218.13
425.718	4554
425.925	4613.39
426.133	4769.04
426.341	4893.96
426.548	5080.33
426.756	5104.9
426.964	5172.49
427.171	5541.12
427.379	5649.66
427.586	5750.01
427.794	5887.23
428.001	6198.52
428.209	6382.84
428.417	6296.82
428.624	6943.98
428.832	6878.44
429.039	6798.57
429.247	6905.07
429.454	7597.28
429.662	8072.41
429.869	7488.74
430.076	8107.23
430.284	7804.13
430.491	8068.31
430.699	8416.47
430.906	8658.13
431.114	8611.03
431.321	8764.62
431.528	9159.88
431.736	9649.35
431.943	10290.36
432.15	9948.35
432.358	10161.34
432.565	10554.55
432.772	10411.19
432.979	10902.7
433.187	11175.08
433.394	11414.7
433.601	12221.59
433.808	12037.28
434.016	11877.54
434.223	12600.47
434.43	13159.56
434.637	12901.52
434.844	13859.97
435.052	14216.32
435.259	14009.47
435.466	14298.24
435.673	14126.21
435.88	15148.14
436.087	15866.98
436.294	15727.72
436.501	15268.97
436.708	15776.87
436.915	16378.97
437.122	17263.69
437.329	17044.56
437.537	17577.03
437.743	17927.24
437.95	17763.4
438.157	18490.43
438.364	19522.6
438.571	19149.87
438.778	19233.84
438.985	20884.5
439.192	20145.19
439.399	20917.27
439.606	20425.76
439.813	21814.28
440.02	23141.36
440.227	22309.89
440.433	22381.57
440.64	23161.84
440.847	23014.39
441.054	23571.44
441.261	25156.57
441.467	24863.71
441.674	25207.76
441.881	26047.43
442.088	25996.23
442.294	26024.9
442.501	26223.56
442.708	27216.82
442.914	28140.46
443.121	29305.75
443.328	28930.97
443.534	30327.69
443.741	29887.37
443.948	29291.41
444.154	31548.28
444.361	30911.36
444.568	31546.23
444.774	31888.24
444.981	31888.24
445.187	32926.56
445.394	34407.24
445.6	33459.03
445.807	37022.5
446.013	35175.23
446.22	36053.81
446.426	37327.64
446.633	37524.25
446.839	38804.23
447.046	37280.54
447.252	39158.53
447.459	39342.85
447.665	39166.72
447.871	40680.17
448.078	42136.27
448.284	40223.47
448.491	41786.07
448.697	43080.39
448.903	44006.07
449.11	43809.46
449.316	43117.25
449.522	43942.58
449.728	44874.41
449.935	45503.14
450.141	45529.76
450.347	46230.16
450.553	45052.58
450.76	45474.46
450.966	46772.88
451.172	46072.47
451.378	47211.14
451.584	46473.87
451.791	47424.13
451.997	47483.52
452.203	47456.9
452.409	47884.92
452.615	47702.65
452.821	45804.19
453.027	45888.15
453.233	47573.63
453.44	45509.28
453.646	46420.62
453.852	46367.38
454.058	47106.69
454.264	45634.21
454.47	46561.93
454.676	45609.63
454.882	46678.67
455.088	42437.33
455.294	43647.68
455.5	43999.93
455.705	44378.8
455.911	42562.25
456.117	41972.44
456.323	41097.95
456.529	38771.46
456.735	40452.84
456.941	39121.66
457.147	38642.44
457.352	37917.46
457.558	37172
457.764	37069.6
457.97	36750.12
458.176	35273.53
458.381	35832.63
458.587	34011.98
458.793	33999.69
458.999	32168.81
459.204	34501.45
459.41	33637.2
459.616	31691.63
459.821	31376.25
460.027	30983.04
460.233	30653.31
460.438	28775.33
460.644	29442.96
460.85	27902.89
461.055	27407.28
461.261	27489.2
461.466	25643.98
461.672	24681.44
461.878	26354.63
462.083	24789.98
462.289	24591.33
462.494	23882.73
462.7	23165.94
462.905	22377.47
463.111	23462.9
463.316	23264.24
463.522	22799.35
463.727	22969.33
463.932	22543.36
464.138	22627.32
464.343	22367.23
464.549	22033.41
464.754	22977.53
464.959	22549.5
465.165	22311.94
465.37	21394.45
465.575	21027.86
465.781	21619.72
465.986	21797.9
466.191	20962.33
466.397	20714.52
466.602	19637.29
466.807	20448.29
467.012	20442.14
467.218	20184.1
467.423	20114.47
467.628	20427.81
467.833	21031.96
468.038	20208.67
468.244	19702.82
468.449	20395.04
468.654	19594.28
468.859	19528.75
469.064	19477.55
469.269	18691.13
469.474	19047.47
469.679	19301.42
469.885	18664.5
470.09	19125.3
470.295	18482.24
470.5	18123.84
470.705	18504.76
470.91	17804.36
471.115	17845.32
471.32	18097.22
471.525	17988.67
471.73	17366.09
471.935	17437.77
472.139	16886.87
472.344	17138.77
472.549	17065.04
472.754	16852.05
472.959	16270.43
473.164	16061.54
473.369	15778.92
473.574	16413.79
473.778	16325.72
473.983	15987.81
474.188	15891.55
474.393	15287.4
474.598	15375.47
474.802	15197.29
475.007	15115.37
475.212	15131.76
475.417	14214.27
475.621	14537.85
475.826	14677.11
476.031	14382.2
476.235	13978.75
476.44	14224.51
476.645	14113.92
476.849	14242.94
477.054	13814.91
477.259	13534.34
477.463	13618.31
477.668	13358.22
477.872	13450.38
478.077	13143.18
478.282	13055.12
478.486	12762.26
478.691	12895.38
478.895	12733.59
479.1	12709.01
479.304	12649.62
479.509	11949.21
479.713	12526.74
479.918	12274.84
480.122	12084.38
480.326	12229.79
480.531	12102.81
480.735	11971.74
480.94	12049.57
481.144	12266.65
481.348	11760.8
481.553	11902.11
481.757	11705.51
481.961	11730.08
482.166	11887.78
482.37	11738.27
482.574	11435.17
482.778	11715.75
482.983	11879.58
483.187	11834.53
483.391	11781.28
483.595	11377.83
483.8	11607.2
484.004	11953.31
484.208	11797.67
484.412	11654.31
484.616	11799.71
484.821	11773.09
485.025	11535.53
485.229	11855.01
485.433	11961.5
485.637	11736.23
485.841	11523.24
486.045	11754.66
486.249	11832.48
486.453	11539.62
486.657	11852.96
486.861	11621.54
487.065	11414.7
487.269	11732.13
487.473	11488.42
487.677	11832.48
487.881	11742.37
488.085	11797.67
488.289	11836.58
488.493	11789.47
488.697	11900.06
488.901	11861.15
489.105	11715.75
489.309	11695.27
489.512	11783.33
489.716	12053.66
489.92	11877.54
490.124	11873.44
490.328	12100.76
490.531	11859.1
490.735	11814.05
490.939	12051.61
491.143	11902.11
491.346	12156.06
491.55	12170.4
491.754	12256.41
491.958	12334.23
492.161	12315.8
492.365	12385.43
492.569	11981.98
492.772	12219.55
492.976	12668.05
493.18	12559.51
493.383	12649.62
493.587	12737.68
493.79	12747.92
493.994	12829.84
494.197	12792.98
494.401	13180.04
494.605	13161.61
494.808	13225.1
495.012	13042.83
495.215	13378.7
495.419	13653.12
495.622	13646.98
495.825	13466.76
496.029	13573.25
496.232	13851.78
496.436	13827.2
496.639	14343.29
496.843	14292.09
497.046	14627.96
497.249	14720.12
497.453	14476.41
497.656	14853.23
497.859	14898.29
498.063	15225.96
498.266	15553.64
498.469	15334.51
498.673	15613.03
498.876	15633.51
499.079	15873.12
499.282	15647.85
499.485	16190.56
499.689	16389.21
499.892	16739.41
500.095	16391.26
500.298	16852.05
500.501	16893.01
500.705	17310.8
500.908	17443.92
501.111	17581.13
501.314	17695.82
501.517	18076.74
501.72	18129.98
501.923	18035.78
502.126	18807.86
502.329	19235.89
502.532	19037.23
502.735	19151.92
502.938	19678.25
503.141	19467.31
503.344	20007.97
503.547	20057.12
503.75	20032.55
503.953	20831.26
504.156	20835.35
504.359	20837.4
504.562	21242.9
504.765	21648.4
504.968	21580.81
505.17	21963.78
505.373	21877.77
505.576	22393.86
505.779	22395.9
505.982	22858.74
506.185	23235.57
506.387	23555.05
506.59	23464.94
506.793	23624.68
506.996	23753.71
507.198	24620
507.401	24167.4
507.604	24693.72
507.807	25025.5
508.009	25551.82
508.212	25459.66
508.415	25854.92
508.617	26198.98
508.82	26399.68
509.022	26000.33
509.225	26743.74
509.428	27452.34
509.63	27433.91
509.833	27124.66
510.035	28259.24
510.238	28322.73
510.44	28543.91
510.643	28902.3
510.845	29219.74
511.048	28717.98
511.25	29658
511.453	29221.78
511.655	30327.69
511.858	30016.4
512.06	30614.4
512.262	30432.13
512.465	30856.06
512.667	31173.5
512.87	31562.61
513.072	31462.26
513.274	32064.36
513.477	32285.54
513.679	32879.46
513.881	33274.71
514.084	33293.15
514.286	33530.71
514.488	33776.47
514.69	34372.42
514.893	34673.48
515.095	34761.54
515.297	35287.87
515.499	35021.63
515.701	35855.15
515.904	36592.42
516.106	36363.05
516.308	36860.71
516.51	37081.89
516.712	37172
516.914	37667.61
517.116	38159.12
517.318	38069.01
517.52	39076.61
517.722	38769.41
517.925	39451.39
518.127	39738.1
518.329	39879.41
518.531	39803.64
518.733	40311.53
518.935	40737.51
519.136	40798.95
519.338	41706.2
519.54	41876.18
519.742	42111.7
519.944	42363.6
520.146	42947.27
520.348	43078.34
520.55	43332.29
520.752	43643.58
520.954	44438.19
521.155	44133.04
521.357	44565.17
521.559	45107.88
521.761	45503.14
521.963	45775.51
522.164	45709.98
522.366	45685.4
522.568	46381.71
522.77	46097.05
522.971	46920.33
523.173	46940.81
523.375	47338.11
523.576	47563.39
523.778	47673.98
523.98	48245.37
524.181	48826.99
524.383	48618.1
524.584	49261.16
524.786	49115.75
524.988	48882.28
525.189	49502.82
525.391	49900.12
525.592	50053.72
525.794	50375.25
525.995	50260.57
526.197	50451.03
526.398	50932.3
526.6	51085.9
526.801	51327.56
527.003	51655.23
527.204	51681.86
527.406	52216.38
527.607	52404.79
527.808	52249.14
528.01	51450.44
528.211	51987
528.412	52826.67
528.614	52730.42
528.815	53004.84
529.016	53461.54
529.218	52402.74
529.419	52838.96
529.62	53211.69
529.822	53383.72
530.023	53609
530.224	53676.58
530.425	53746.21
530.626	53228.07
530.828	53119.53
531.029	54436.37
531.23	53436.97
531.431	53539.36
531.632	53821.98
531.833	54112.8
532.035	54002.21
532.236	54385.18
532.437	54436.37
532.638	54315.54
532.839	54063.64
533.04	54309.4
533.241	53731.87
533.442	54731.28
533.643	54305.3
533.844	54659.6
534.045	54419.99
534.246	54751.76
534.447	54774.29
534.648	54878.74
534.849	54850.06
535.05	54370.84
535.251	54596.12
535.451	54731.28
535.652	54874.64
535.853	54653.46
536.054	55083.53
536.255	54831.63
536.456	54233.63
536.657	55529.99
536.857	54557.2
537.058	54899.22
537.259	55349.77
537.46	54813.2
537.66	54757.91
537.861	54872.59
538.062	54247.96
538.263	54970.89
538.463	54747.67
538.664	54718.99
538.865	54549.01
539.065	54743.57
539.266	54168.09
539.466	54805.01
539.667	54321.69
539.868	54944.27
540.068	54909.46
540.269	54690.32
540.469	54708.75
540.67	54594.07
540.87	54272.54
541.071	54555.16
541.271	54579.73
541.472	54250.01
541.672	54512.15
541.873	54432.28
542.073	54161.95
542.274	54827.54
542.474	54465.05
542.675	54403.61
542.875	54684.18
543.075	54374.94
543.276	53840.42
543.476	54899.22
543.676	54467.09
543.877	54395.42
544.077	54204.95
544.277	54436.37
544.478	54186.52
544.678	54641.17
544.878	54567.44
545.078	54802.96
545.279	54045.21
545.479	54125.08
545.679	54100.51
545.879	54166.04
546.079	54465.05
546.28	54227.48
546.48	53987.87
546.68	54305.3
546.88	54395.42
547.08	54469.14
547.28	54577.68
547.48	53649.95
547.68	53973.53
547.88	53707.3
548.081	54374.94
548.281	53776.93
548.481	53668.39
548.681	54354.46
548.881	53670.43
549.081	53938.72
549.28	53443.11
549.48	54092.32
549.68	53721.63
549.88	54157.85
550.08	53633.57
550.28	53764.64
550.48	54069.79
550.68	54182.43
550.88	53455.4
551.08	53596.71
551.279	53625.38
551.479	53580.32
551.679	53848.61
551.879	53903.9
552.079	54030.88
552.278	53383.72
552.478	53344.81
552.678	53527.08
552.878	54039.07
553.077	53510.69
553.277	53228.07
553.477	53582.37
553.676	52845.1
553.876	53156.39
554.076	53277.22
554.275	52832.82
554.475	52732.46
554.674	52812.34
554.874	52947.5
555.074	52625.97
555.273	53371.43
555.473	53056.04
555.672	52689.46
555.872	52369.97
556.071	52707.89
556.271	53137.96
556.47	52548.15
556.67	52191.8
556.869	52363.83
557.068	52695.6
557.268	52210.23
557.467	52298.3
557.667	52353.59
557.866	52453.94
558.065	51831.36
558.265	52142.65
558.464	51610.18
558.663	52306.49
558.863	51274.31
559.062	52630.07
559.261	51501.64
559.461	52083.26
559.66	51141.19
559.859	51599.94
560.058	51055.18
560.258	51597.89
560.457	50981.45
560.656	51462.72
560.855	51413.57
561.054	50913.87
561.253	50827.85
561.453	50997.84
561.652	51003.98
561.851	51071.56
562.05	50776.65
562.249	50440.79
562.448	50580.05
562.647	50393.68
562.846	50664.02
563.045	50190.94
563.244	50238.04
563.443	50606.67
563.642	49767.01
563.841	50049.63
564.04	49599.07
564.239	50229.85
564.438	49111.66
564.637	49949.28
564.836	49574.5
565.035	49021.55
565.234	49384.04
565.432	49164.9
565.631	48917.1
565.83	49277.54
566.029	48714.35
566.228	49160.81
566.427	48726.64
566.625	48327.28
566.824	47972.99
567.023	48206.45
567.222	47745.66
567.42	48366.2
567.619	48063.1
567.818	47899.26
568.016	47737.47
568.215	48011.9
568.414	47612.54
568.612	47923.83
568.811	47188.61
569.01	47444.61
569.208	46746.25
569.407	47399.55
569.605	46822.03
569.804	47024.78
570.002	46246.55
570.201	46875.27
570.4	46111.38
570.598	46221.97
570.797	45648.54
570.995	46148.25
571.193	45916.82
571.392	46197.4
571.59	45906.58
571.789	46054.04
571.987	45654.68
572.186	45529.76
572.384	45421.22
572.582	45677.21
572.781	45646.49
572.979	45023.91
573.177	44903.08
573.376	45005.48
573.574	44638.89
573.772	44708.52
573.971	44350.13
574.169	44210.87
574.367	44073.65
574.565	44491.44
574.763	44266.16
574.962	44421.81
575.16	43678.39
575.358	43739.83
575.556	43563.71
575.754	43782.84
575.952	43037.38
576.151	43256.51
576.349	43264.71
576.547	42795.72
576.745	43137.73
576.943	42910.41
577.141	42375.89
577.339	42762.95
577.537	42726.09
577.735	42304.21
577.933	42353.36
578.131	42463.95
578.329	41956.05
578.527	41741.02
578.725	42148.56
578.923	41792.22
579.121	41677.53
579.319	41464.54
579.516	41931.48
579.714	41829.08
579.912	40932.07
580.11	41028.32
580.308	41345.76
580.506	40661.74
580.704	40076.02
580.901	40823.53
581.099	41026.28
581.297	40764.14
581.495	40256.24
581.692	40557.29
581.89	39807.73
582.088	40448.75
582.285	40112.88
582.483	40141.55
582.681	39754.49
582.878	39807.73
583.076	39303.93
583.274	39619.32
583.471	39262.97
583.669	39195.39
583.866	38945.54
584.064	39437.05
584.262	38912.77
584.459	38808.33
584.657	38652.68
584.854	39242.49
585.052	37929.75
585.249	38923.01
585.447	38734.6
585.644	38028.05
585.841	38513.42
586.039	38282
586.236	37724.95
586.434	37456.67
586.631	37192.48
586.828	37432.09
587.026	37804.82
587.223	37221.15
587.42	37298.97
587.618	37462.81
587.815	37126.94
588.012	36385.58
588.21	36729.64
588.407	37098.27
588.604	36610.85
588.801	36573.99
588.999	36201.26
589.196	36494.12
589.393	36772.64
589.59	35992.37
589.787	36225.84
589.984	36164.4
590.182	35689.27
590.379	35930.93
590.576	35640.12
590.773	35521.34
590.97	35775.28
591.167	36084.53
591.364	35003.2
591.561	35318.59
591.758	34927.42
591.955	34671.43
592.152	34988.86
592.349	34755.39
592.546	34886.46
592.743	34841.41
592.94	34356.04
593.137	34593.61
593.334	34687.81
593.531	33784.66
593.727	34016.08
593.924	34120.52
594.121	33784.66
594.318	33780.56
594.515	33416.02
594.712	33811.28
594.908	33780.56
595.105	33499.99
595.302	32938.85
595.499	33321.82
595.696	32973.66
595.892	32932.7
596.089	33012.57
596.286	33086.3
596.482	32856.93
596.679	32643.94
596.876	32742.24
597.072	32490.34
597.269	32277.35
597.466	32422.76
597.662	31939.44
597.859	32467.81
598.055	31996.78
598.252	31755.12
598.448	31734.64
598.645	31683.44
598.841	31212.41
599.038	31509.36
599.234	31542.13
599.431	31361.91
599.627	31292.28
599.824	31353.72
600.02	30980.99
600.217	31130.49
600.413	30948.22
600.609	30696.32
600.806	30991.23
601.002	30843.77
601.198	30512
601.395	30393.22
601.591	30260.1
601.787	30167.94
601.984	30057.35
602.18	29948.81
602.376	30135.18
602.572	29676.43
602.769	29799.31
602.965	29541.27
603.161	29524.88
603.357	29776.78
603.553	29315.99
603.75	29514.64
603.946	28664.74
604.142	28887.96
604.338	28898.2
604.534	29305.75
604.73	28621.73
604.926	28789.66
605.122	28896.16
605.318	28591.01
605.514	28253.09
605.71	28529.57
605.906	28492.71
606.102	28349.35
606.298	28679.07
606.494	28154.79
606.69	28236.71
606.886	28267.43
607.082	27481.01
607.278	27993
607.474	27509.68
607.67	27829.16
607.866	27483.06
608.062	27771.82
608.257	27374.52
608.453	27438
608.649	27390.9
608.845	27558.83
609.041	27214.77
609.236	27395
609.432	27046.84
609.628	27319.22
609.824	27108.28
610.019	27032.5
610.215	26868.67
610.411	27065.27
610.606	26715.07
610.802	26915.77
610.998	27059.13
611.193	26733.5
611.389	26657.73
611.584	26524.61
611.78	26586.05
611.976	26184.65
612.171	26663.87
612.367	26375.11
612.562	26397.63
612.758	26307.52
612.953	25762.76
613.149	26483.65
613.344	25799.63
613.539	26358.72
613.735	26131.4
613.93	25953.23
614.126	25732.04
614.321	26096.58
614.517	25713.61
614.712	25643.98
614.907	25578.45
615.103	25893.83
615.298	25492.43
615.493	26170.31
615.688	25224.15
615.884	25623.5
616.079	25146.33
616.274	25226.2
616.47	25072.6
616.665	25312.21
616.86	25076.69
617.055	25230.29
617.25	25230.29
617.445	25209.81
617.641	24642.53
617.836	25017.3
618.031	24765.4
618.226	25045.98
618.421	24708.06
618.616	24792.03
618.811	24251.36
619.006	24579.04
619.201	24058.85
619.396	24613.85
619.591	24359.91
619.786	24458.21
619.981	23774.19
620.176	24105.96
620.371	23518.19
620.566	23725.04
620.761	23358.45
620.956	23909.35
621.151	23307.25
621.346	23466.99
621.541	22948.86
621.735	23219.19
621.93	22643.71
622.125	22731.77
622.32	22326.27
622.515	22881.27
622.709	22395.9
622.904	22696.96
623.099	22225.92
623.294	22359.04
623.488	22445.05
623.683	22164.48
623.878	21875.72
624.072	22064.13
624.267	21857.29
624.462	21566.48
624.656	21566.48
624.851	21568.52
625.046	21308.43
625.24	21255.19
625.435	21089.3
625.629	20769.82
625.824	20929.56
626.018	20796.44
626.213	20442.14
626.407	20444.19
626.602	20335.65
626.796	20460.57
626.991	20519.96
627.185	20325.41
627.38	20093.99
627.574	19924.01
627.768	19881
627.963	19692.58
628.157	19399.73
628.352	19635.24
628.546	19151.92
628.74	19356.72
628.935	19383.34
629.129	19323.95
629.323	18920.5
629.517	18768.95
629.712	18961.46
629.906	18588.73
630.1	18525.24
630.294	18472
630.489	18383.93
630.683	18406.46
630.877	18170.94
631.071	18123.84
631.265	18203.71
631.459	18007.11
631.653	17628.23
631.848	17570.89
632.042	17511.5
632.236	17812.55
632.43	17476.68
632.624	17581.13
632.818	17376.33
633.012	17378.38
633.206	17202.25
633.4	17386.57
633.594	16948.31
633.788	16786.52
633.982	16618.58
634.176	16839.76
634.369	16755.8
634.563	16888.92
634.757	16299.1
634.951	16557.14
635.145	16378.97
635.339	16473.18
635.533	16067.68
635.726	16225.37
635.92	15776.87
636.114	16053.34
636.308	15989.86
636.501	15785.06
636.695	15660.13
636.889	15514.73
637.083	15424.62
637.276	15381.61
637.47	15248.49
637.664	15162.48
637.857	15154.29
638.051	15240.3
638.244	14867.57
638.438	14863.47
638.632	14980.21
638.825	14865.52
639.019	14548.09
639.212	14578.81
639.406	14597.24
639.599	14615.67
639.793	14582.9
639.986	14107.77
640.18	14414.97
640.373	14343.29
640.567	14124.16
640.76	14038.14
640.954	13960.32
641.147	13730.95
641.34	13606.02
641.534	13589.64
641.727	13831.3
641.92	13745.28
642.114	13544.58
642.307	13429.9
642.5	13337.74
642.694	13161.61
642.887	12946.58
643.08	13290.63
643.273	13046.93
643.467	13051.02
643.66	12764.31
643.853	13034.64
644.046	12680.34
644.239	12952.72
644.432	12795.03
644.626	12735.63
644.819	12541.08
645.012	12485.78
645.205	12356.76
645.398	12303.51
645.591	11988.13
645.784	12356.76
645.977	12205.21
646.17	12108.96
646.363	11904.16
646.556	11953.31
646.749	11814.05
646.942	12059.81
647.135	12022.94
647.328	11814.05
647.521	11635.88
647.714	11574.44
647.907	11674.79
648.099	11224.23
648.292	11517.09
648.485	11422.89
648.678	11134.12
648.871	11205.8
649.064	11068.59
649.256	11177.13
649.449	11056.3
649.642	11001.01
649.835	10925.23
650.027	10704.05
650.22	10601.65
650.413	10763.44
650.605	10806.45
650.798	10609.84
650.991	10775.73
651.183	10575.03
651.376	10458.29
651.568	10677.43
651.761	10177.72
651.954	10282.17
652.146	10335.42
652.339	10202.3
652.531	10255.54
652.724	9977.02
652.916	10001.6
653.109	9983.16
653.301	9977.02
653.494	9940.16
653.686	9665.73
653.879	9874.62
654.071	9706.69
654.263	9536.71
654.456	9673.92
654.648	9663.68
654.84	9456.84
655.033	9303.24
655.225	9344.2
655.417	9311.43
655.61	9452.74
655.802	9487.56
655.994	9176.27
656.186	9243.85
656.379	9288.9
656.571	9082.06
656.763	9137.35
656.955	8922.32
657.148	8924.37
657.34	9008.33
657.532	8590.55
657.724	8694.99
657.916	8864.97
658.108	8682.7
658.3	8631.51
658.492	8621.27
658.684	8514.77
658.876	8520.92
659.068	8533.2
659.26	8183
659.452	8471.76
659.644	8240.34
659.836	8346.84
660.028	8447.19
660.22	8199.38
660.412	7986.4
660.604	8045.79
660.796	7980.25
660.988	8084.7
661.18	7970.01
661.372	8004.83
661.563	7924.96
661.755	7826.65
661.947	7785.69
662.139	7759.07
662.331	7623.9
662.522	7623.9
662.714	7689.44
662.906	7634.14
663.097	7630.05
663.289	7558.37
663.481	7394.53
663.673	7597.28
663.864	7396.58
664.056	7224.55
664.247	7386.34
664.439	7451.88
664.631	7302.37
664.822	7314.66
665.014	7210.22
665.205	7156.97
665.397	7105.77
665.588	7191.78
665.78	7085.29
665.971	6960.36
666.163	7130.34
666.354	7097.58
666.546	7009.51
666.737	6839.53
666.929	6860.01
667.12	6880.49
667.311	6839.53
667.503	6823.15
667.694	6823.15
667.885	6790.38
668.077	6474.99
668.268	6593.78
668.459	6462.71
668.651	6505.71
668.842	6651.12
669.033	6446.32
669.224	6348.02
669.416	6653.17
669.607	6520.05
669.798	6214.9
669.989	6454.51
670.18	6337.78
670.371	6323.44
670.563	6202.61
670.754	6413.56
670.945	6341.88
671.136	6233.33
671.327	6200.57
671.518	6175.99
671.709	6143.22
671.9	6163.7
672.091	6227.19
672.282	6145.27
672.473	6061.3
672.664	5999.87
672.855	5930.23
673.046	5932.28
673.237	5977.34
673.428	5993.72
673.619	6008.06
673.809	6034.68
674	5913.85
674.191	5813.5
674.382	5813.5
674.573	5831.93
674.764	5846.27
674.954	5721.34
675.145	5760.25
675.336	5545.22
675.527	5606.66
675.717	5700.86
675.908	5594.37
676.099	5774.59
676.289	5520.64
676.48	5633.28
676.671	5577.98
676.861	5666.05
677.052	5457.15
677.243	5532.93
677.433	5631.23
677.624	5655.81
677.814	5451.01
678.005	5266.69
678.195	5573.89
678.386	5340.42
678.576	5375.24
678.767	5510.4
678.957	5455.11
679.148	5242.12
679.338	5403.91
679.529	5375.24
679.719	5256.45
679.909	5328.13
680.1	5254.41
680.29	5190.92
680.481	5311.75
680.671	5309.7
680.861	5235.97
681.052	5205.25
681.242	5209.35
681.432	5258.5
681.622	5139.72
681.813	5215.49
682.003	5139.72
682.193	4994.31
682.383	5242.12
682.573	5289.22
682.764	5127.43
682.954	5182.73
683.144	5145.86
683.334	5109
683.524	5061.9
683.714	5037.32
683.904	5055.75
684.094	4996.36
684.284	5059.85
684.474	5051.66
684.664	5029.13
684.854	4990.22
685.044	4975.88
685.234	4926.73
685.424	4898.06
685.614	4924.68
685.804	4873.48
685.994	4812.04
686.184	4934.92
686.374	4898.06
686.564	4734.22
686.753	4867.34
686.943	4599.06
687.133	4736.27
687.323	4867.34
687.513	4685.07
687.702	4648.21
687.892	4644.11
688.082	4732.17
688.272	4678.93
688.461	4562.19
688.651	4533.52
688.841	4502.8
689.03	4584.72
689.22	4494.61
689.41	4494.61
689.599	4603.15
689.789	4621.58
689.979	4488.46
690.168	4586.77
690.358	4332.82
690.547	4287.76
690.737	4431.12
690.926	4422.93
691.116	4232.47
691.305	4257.04
691.495	4181.27
691.684	4171.03
691.874	4158.74
692.063	4232.47
692.252	4257.04
692.442	4193.56
692.631	4175.13
692.82	4144.41
693.01	4103.45
693.199	4160.79
693.388	4238.61
693.578	4076.82
693.767	3841.31
693.956	4044.06
694.146	3970.33
694.335	4054.3
694.524	4099.35
694.713	4013.34
694.902	3884.31
695.092	4095.25
695.281	3917.08
695.47	3996.95
695.659	3955.99
695.848	3970.33
696.037	3857.69
696.226	3894.55
696.415	3835.16
696.604	3896.6
696.793	3853.59
696.982	3859.74
697.171	3863.83
697.36	3886.36
697.549	3818.78
697.738	3759.39
697.927	3798.3
698.116	3773.72
698.305	3790.11
698.494	3810.59
698.683	3788.06
698.872	3857.69
699.061	3837.21
699.25	3673.37
699.438	3759.39
699.627	3822.88
699.816	3771.68
700.005	3736.86
700.193	3650.85
700.382	3794.2
700.571	3706.14
700.76	3616.03
700.948	3738.91
701.137	3734.81
701.326	3595.55
701.514	3577.12
701.703	3685.66
701.892	3673.37
702.08	3665.18
702.269	3624.22
702.457	3642.65
702.646	3652.89
702.834	3654.94
703.023	3689.76
703.212	3607.84
703.4	3659.04
703.589	3599.65
703.777	3714.33
703.965	3511.58
704.154	3601.69
704.342	3685.66
704.531	3611.93
704.719	3605.79
704.907	3683.61
705.096	3573.02
705.284	3581.21
705.472	3550.5
705.661	3659.04
705.849	3628.32
706.037	3546.4
706.226	3609.89
706.414	3620.13
706.602	3489.06
706.79	3552.54
706.979	3497.25
707.167	3495.2
707.355	3400.99
707.543	3546.4
707.731	3577.12
707.919	3595.55
708.107	3472.67
708.296	3450.14
708.484	3437.86
708.672	3427.62
708.86	3652.89
709.048	3476.77
709.236	3546.4
709.424	3583.26
709.612	3527.97
709.8	3613.98
709.988	3505.44
710.176	3521.82
710.364	3665.18
710.551	3464.48
710.739	3587.36
710.927	3530.02
711.115	3417.38
711.303	3562.78
711.491	3527.97
711.679	3411.23
711.866	3527.97
712.054	3589.41
712.242	3519.78
712.43	3585.31
712.617	3489.06
712.805	3482.91
712.993	3437.86
713.181	3503.39
713.368	3423.52
713.556	3546.4
713.744	3351.84
713.931	3523.87
714.119	3511.58
714.306	3497.25
714.494	3536.16
714.682	3591.45
714.869	3390.75
715.057	3585.31
715.244	3480.86
715.432	3607.84
715.619	3441.95
715.807	3472.67
715.994	3507.49
716.182	3466.53
716.369	3491.1
716.556	3552.54
716.744	3376.42
716.931	3493.15
717.119	3433.76
717.306	3489.06
717.493	3599.65
717.681	3458.34
717.868	3472.67
718.055	3448.1
718.242	3513.63
718.43	3444
718.617	3564.83
718.804	3456.29
718.991	3525.92
719.179	3509.54
719.366	3599.65
719.553	3548.45
719.74	3368.23
719.927	3355.94
720.114	3491.1
720.301	3599.65
720.488	3288.36
720.676	3489.06
720.863	3423.52
721.05	3546.4
721.237	3507.49
721.424	3521.82
721.611	3368.23
721.798	3439.9
721.985	3429.66
722.172	3335.46
722.358	3368.23
722.545	3478.82
722.732	3392.8
722.919	3345.7
723.106	3452.19
723.293	3370.27
723.48	3462.43
723.667	3394.85
723.853	3378.47
724.04	3484.96
724.227	3296.55
724.414	3562.78
724.6	3368.23
724.787	3419.43
724.974	3360.03
725.161	3278.12
725.347	3304.74
725.534	3400.99
725.72	3532.06
725.907	3425.57
726.094	3368.23
726.28	3411.23
726.467	3321.12
726.653	3456.29
726.84	3339.55
727.027	3351.84
727.213	3278.12
727.4	3415.33
727.586	3308.83
727.773	3276.07
727.959	3470.62
728.145	3386.66
728.332	3325.22
728.518	3323.17
728.705	3290.4
728.891	3382.56
729.077	3343.65
729.264	3312.93
729.45	3276.07
729.636	3364.13
729.823	3323.17
730.009	3263.78
730.195	3325.22
730.382	3224.87
730.568	3362.08
730.754	3308.83
730.94	3304.74
731.126	3231.01
731.313	3325.22
731.499	3376.42
731.685	3226.92
731.871	3304.74
732.057	3343.65
732.243	3304.74
732.429	3192.1
732.615	3274.02
732.801	3265.83
732.987	3374.37
733.173	3241.25
733.359	3218.72
733.545	3288.36
733.731	3243.3
733.917	3251.49
734.103	3413.28
734.289	3286.31
734.475	3181.86
734.661	3214.63
734.847	3167.52
735.033	3202.34
735.219	3267.88
735.404	3177.76
735.59	3175.72
735.776	3101.99
735.962	3239.2
736.148	3171.62
736.333	3290.4
736.519	3251.49
736.705	3190.05
736.89	3026.22
737.076	3151.14
737.262	3065.13
737.447	3085.61
737.633	3085.61
737.819	3032.36
738.004	3042.6
738.19	3095.85
738.375	3071.27
738.561	3093.8
738.747	3126.57
738.932	3003.69
739.118	3112.23
739.303	3140.9
739.489	3054.89
739.674	3032.36
739.859	2985.26
740.045	3001.64
740.23	2989.35
740.416	2975.02
740.601	3028.26
740.786	3065.13
740.972	2811.18
741.157	3120.42
741.342	2800.94
741.528	2893.1
741.713	2968.87
741.898	2770.22
742.084	2874.67
742.269	2911.53
742.454	3001.64
742.639	3034.41
742.824	2831.66
743.01	2862.38
743.195	2829.61
743.38	2862.38
743.565	2782.51
743.75	2841.9
743.935	2807.08
744.12	2868.52
744.305	2725.16
744.49	2784.55
744.675	2706.73
744.86	2669.87
745.045	2657.58
745.23	2729.26
745.415	2659.63
745.6	2712.88
745.785	2641.2
745.97	2682.16
746.155	2645.29
746.34	2493.74
746.525	2579.76
746.71	2618.67
746.895	2503.98
747.079	2485.55
747.264	2602.29
747.449	2534.7
747.634	2510.13
747.819	2475.31
748.003	2442.54
748.188	2352.43
748.373	2432.3
748.557	2487.6
748.742	2346.29
748.927	2463.02
749.111	2334
749.296	2334
749.481	2401.58
749.665	2348.34
749.85	2284.85
750.034	2417.97
750.219	2358.58
750.404	2276.66
750.588	2295.09
750.773	2323.76
750.957	2215.22
751.141	2274.61
751.326	2116.92
751.51	2123.06
751.695	2266.42
751.879	2168.12
752.064	2166.07
752.248	2080.05
752.432	2151.73
752.617	2090.29
752.801	2172.21
752.985	2047.29
753.17	2069.81
753.354	2057.53
753.538	2026.81
753.722	1858.87
753.907	1969.46
754.091	1873.21
754.275	1959.22
754.459	1965.37
754.643	1848.63
754.828	1914.17
755.012	1846.59
755.196	1793.34
755.38	1742.14
755.564	1832.25
755.748	1779
755.932	1944.89
756.116	1809.72
756.3	1715.52
756.484	1879.35
756.668	1735.99
756.852	1803.58
757.036	1789.24
757.22	1666.36
757.404	1676.6
757.588	1703.23
757.772	1801.53
757.956	1711.42
758.14	1678.65
758.323	1582.4
758.507	1742.14
758.691	1654.08
758.875	1590.59
759.059	1551.68
759.242	1678.65
759.426	1590.59
759.61	1649.98
759.794	1666.36
759.977	1543.49
760.161	1576.25
760.345	1543.49
760.528	1547.58
760.712	1459.52
760.895	1498.43
761.079	1490.24
761.263	1420.61
761.446	1379.65
761.63	1449.28
761.813	1436.99
761.997	1443.14
762.18	1484.09
762.364	1473.85
762.547	1424.7
762.731	1418.56
762.914	1375.55
763.098	1469.76
763.281	1422.66
763.464	1359.17
763.648	1449.28
763.831	1320.26
764.015	1455.42
764.198	1400.13
764.381	1297.73
764.564	1482.05
764.748	1377.6
764.931	1441.09
765.114	1305.92
765.297	1457.47
765.481	1172.8
765.664	1424.7
765.847	1269.06
766.03	1328.45
766.213	1281.35
766.397	1371.46
766.58	1183.04
766.763	1281.35
766.946	1287.49
767.129	1221.95
767.312	1201.48
767.495	1232.19
767.678	1244.48
767.861	1289.54
768.044	1123.65
768.227	1099.08
768.41	1150.28
768.593	1125.7
768.776	1318.21
768.959	1213.76
769.142	1283.39
769.324	1156.42
769.507	1248.58
769.69	1168.71
769.873	1148.23
770.056	1205.57
770.239	1115.46
770.421	1228.1
770.604	1135.94
770.787	1064.26
770.97	1174.85
771.152	1076.55
771.335	1058.12
771.518	1043.78
771.7	1129.8
771.883	1049.93
772.066	1101.12
772.248	1125.7
772.431	1078.6
772.613	1070.4
772.796	1021.25
772.978	1060.17
773.161	1039.69
773.343	1000.77
773.526	1068.36
773.708	972.1
773.891	1051.97
774.073	1035.59
774.256	1080.64
774.438	1037.64
774.621	1013.06
774.803	1045.83
774.985	1066.31
775.168	949.57
775.35	959.81
775.532	894.28
775.715	974.15
775.897	925
776.079	908.62
776.261	961.86
776.444	955.72
776.626	959.81
776.808	959.81
776.99	902.47
777.173	943.43
777.355	904.52
777.537	937.29
777.719	828.74
777.901	855.37
778.083	832.84
778.265	875.85
778.447	851.27
778.629	822.6
778.811	851.27
778.993	834.89
779.175	884.04
779.357	763.21
779.539	800.07
779.721	750.92
779.903	838.98
780.085	863.56
780.267	712.01
780.449	779.59
780.631	728.39
780.812	836.94
780.994	687.43
781.176	669
781.358	773.45
781.54	759.11
781.721	759.11
781.903	773.45
782.085	652.62
782.267	716.11
782.448	662.86
782.63	642.38
782.812	671.05
782.993	761.16
783.175	757.07
783.357	626
783.538	685.39
783.72	609.61
783.901	726.35
784.083	519.5
784.264	570.7
784.446	576.84
784.627	515.41
784.809	609.61
784.99	615.76
785.172	634.19
785.353	605.52
785.535	658.76
785.716	626
785.897	587.08
786.079	580.94
786.26	632.14
786.441	531.79
786.623	513.36
786.804	509.26
786.985	552.27
787.167	666.96
787.348	486.73
787.529	589.13
787.71	576.84
787.891	552.27
788.073	556.36
788.254	511.31
788.435	597.32
788.616	548.17
788.797	476.49
788.978	550.22
789.159	511.31
789.34	482.64
789.522	496.97
789.703	501.07
789.884	449.87
790.065	525.65
790.246	556.36
790.427	476.49
790.607	482.64
790.788	531.79
790.969	363.86
791.15	486.73
791.331	447.82
791.512	456.01
791.693	392.53
791.874	427.34
792.054	515.41
792.235	441.68
792.416	488.78
792.597	392.53
792.778	453.97
792.958	539.98
793.139	427.34
793.32	480.59
793.5	398.67
793.681	408.91
793.862	476.49
794.042	437.58
794.223	326.99
794.404	406.86
794.584	380.24
794.765	333.14
794.945	337.23
795.126	400.72
795.306	361.81
795.487	421.2
795.667	331.09
795.848	402.77
796.028	304.46
796.209	374.1
796.389	390.48
796.57	294.22
796.75	320.85
796.93	365.9
797.111	294.22
797.291	359.76
797.471	281.94
797.652	326.99
797.832	257.36
798.012	392.53
798.192	359.76
798.373	300.37
798.553	410.96
798.733	402.77
798.913	353.62
799.093	322.9
799.274	320.85
799.454	404.82
799.634	283.99
799.814	345.42
799.994	322.9
800.174	378.19
800.354	281.94
800.534	318.8
800.714	302.42
800.894	335.18
801.074	275.79
801.254	314.7
801.434	281.94
801.614	286.03
801.794	271.7
801.974	822.6
802.154	257.36
802.334	308.56
802.514	220.5
802.693	337.23
802.873	269.65
803.053	243.03
803.233	343.38
803.413	292.18
803.592	400.72
803.772	263.51
803.952	275.79
804.131	294.22
804.311	269.65
804.491	326.99
804.67	281.94
804.85	265.55
805.03	290.13
805.209	236.88
805.389	273.75
805.568	224.59
805.748	292.18
805.928	288.08
806.107	331.09
806.287	255.31
806.466	251.22
806.646	286.03
806.825	259.41
807.004	298.32
807.184	214.35
807.363	273.75
807.543	251.22
807.722	208.21
807.901	283.99
808.081	271.7
808.26	273.75
808.439	253.27
808.619	243.03
808.798	187.73
808.977	214.35
809.156	341.33
809.336	228.69
809.515	251.22
809.694	204.11
809.873	253.27
810.052	220.5
810.231	292.18
810.411	177.49
810.59	294.22
810.769	249.17
810.948	189.78
811.127	200.02
811.306	238.93
811.485	271.7
811.664	267.6
811.843	257.36
812.022	263.51
812.201	163.15
812.38	275.79
812.559	140.63
812.737	208.21
812.916	171.35
813.095	210.26
813.274	230.74
813.453	181.59
813.632	236.88
813.811	183.63
813.989	138.58
814.168	148.82
814.347	214.35
814.526	253.27
814.704	339.28
814.883	230.74
815.062	191.83
815.24	224.59
815.419	206.16
815.598	243.03
815.776	240.98
815.955	165.2
816.133	118.1
816.312	245.07
816.49	146.77
816.669	142.68
816.847	200.02
817.026	134.48
817.204	189.78
817.383	210.26
817.561	216.4
817.74	193.87
817.918	169.3
818.097	169.3
818.275	255.31
818.453	148.82
818.632	116.05
818.81	173.39
818.988	138.58
819.167	93.52
819.345	150.87
819.523	48.47
819.701	161.11
819.879	165.2
820.058	189.78
820.236	138.58
820.414	214.35
820.592	171.35
820.77	130.39
820.948	195.92
821.127	169.3
821.305	150.87
821.483	79.19
821.661	154.96
821.839	154.96
822.017	189.78
822.195	136.53
822.373	165.2
822.551	142.68
822.729	128.34
822.907	134.48
823.085	183.63
823.262	87.38
823.44	163.15
823.618	93.52
823.796	114
823.974	150.87
824.152	126.29
824.329	105.81
824.507	116.05
824.685	118.1
824.863	161.11
825.04	97.62
825.218	111.96
825.396	105.81
825.574	105.81
825.751	146.77
825.929	101.72
826.107	175.44
826.284	187.73
826.462	118.1
826.639	60.76
826.817	195.92
826.994	150.87
827.172	95.57
827.349	154.96
827.527	95.57
827.704	97.62
827.882	152.91
828.059	64.85
828.237	116.05
828.414	144.72
828.591	38.23
828.769	58.71
828.946	68.95
829.124	116.05
829.301	175.44
829.478	208.21
829.655	216.4
829.833	109.91
830.01	81.24
830.187	52.56
830.364	114
830.542	130.39
830.719	134.48
830.896	62.8
831.073	101.72
831.25	124.24
831.427	140.63
831.604	85.33
831.782	71
831.959	124.24
832.136	-17.07
832.313	103.76
832.49	60.76
832.667	183.63
832.844	111.96
833.021	197.97
833.198	60.76
833.374	109.91
833.551	171.35
833.728	68.95
833.905	46.42
834.082	17.75
834.259	46.42
834.436	140.63
834.612	85.33
834.789	89.43
834.966	56.66
835.143	101.72
835.319	95.57
835.496	-25.26
835.673	165.2
835.85	130.39
836.026	64.85
836.203	89.43
836.38	68.95
836.556	93.52
836.733	19.8
836.909	103.76
837.086	116.05
837.262	-15.02
837.439	167.25
837.616	134.48
837.792	34.13
837.968	97.62
838.145	23.89
838.321	21.85
838.498	93.52
838.674	144.72
838.851	48.47
839.027	81.24
839.203	58.71
839.38	64.85
839.556	52.56
839.732	136.53
839.909	25.94
840.085	46.42
840.261	126.29
840.437	89.43
840.614	89.43
840.79	91.48
840.966	9.56
841.142	71
841.318	87.38
841.494	68.95
841.671	60.76
841.847	81.24
842.023	109.91
842.199	75.09
842.375	101.72
842.551	71
842.727	89.43
842.903	118.1
843.079	9.56
843.255	161.11
843.431	75.09
843.607	157.01
843.783	30.04
843.959	62.8
844.134	-25.26
844.31	81.24
844.486	44.37
844.662	40.28
844.838	32.08
845.013	7.51
845.189	77.14
845.365	77.14
845.541	15.7
845.716	44.37
845.892	81.24
846.068	87.38
846.244	68.95
846.419	75.09
846.595	15.7
846.77	66.9
846.946	3.41
847.122	79.19
847.297	91.48
847.473	101.72
847.648	13.65
847.824	36.18
847.999	30.04
848.175	38.23
848.35	68.95
848.526	73.04
848.701	52.56
848.876	64.85
849.052	75.09
849.227	64.85
849.403	54.61
849.578	7.51
849.753	75.09
849.929	13.65
850.104	9.56
850.279	85.33
850.454	25.94
850.63	-4.78
850.805	32.08
850.98	11.61
851.155	32.08
851.33	60.76
851.505	66.9
851.681	38.23
851.856	91.48
852.031	93.52
852.206	13.65
852.381	60.76
852.556	52.56
852.731	101.72
852.906	97.62
853.081	77.14
853.256	52.56
853.431	42.32
853.606	60.76
853.781	58.71
853.956	32.08
854.131	109.91
854.305	11.61
854.48	-60.07
854.655	114
854.83	25.94
855.005	15.7
855.18	50.52
855.354	27.99
855.529	44.37
855.704	36.18
855.879	140.63
856.053	-19.11
856.228	34.13
856.403	23.89
856.577	19.8
856.752	-0.68
856.926	21.85
857.101	105.81
857.276	-0.68
857.45	23.89
857.625	36.18
857.799	-2.73
857.974	71
858.148	-8.87
858.323	23.89
858.497	-70.31
858.672	7.51
858.846	81.24
859.02	34.13
859.195	40.28
859.369	54.61
859.543	73.04
859.718	15.7
859.892	1.37
860.066	42.32
860.241	40.28
860.415	-33.45
860.589	23.89
860.763	9.56
860.938	23.89
861.112	56.66
861.286	-74.41
861.46	40.28
861.634	17.75
861.808	83.28
861.982	-2.73
862.157	-25.26
862.331	48.47
862.505	32.08
862.679	-0.68
862.853	34.13
863.027	-25.26
863.201	25.94
863.375	-35.5
863.549	87.38
863.722	27.99
863.896	97.62
864.07	27.99
864.244	52.56
864.418	27.99
864.592	44.37
864.766	73.04
864.939	68.95
865.113	21.85
865.287	13.65
865.461	64.85
865.634	-8.87
865.808	48.47
865.982	60.76
866.156	-33.45
866.329	9.56
866.503	46.42
866.676	48.47
866.85	32.08
867.024	-2.73
867.197	87.38
867.371	32.08
867.544	13.65
867.718	54.61
867.891	30.04
868.065	52.56
868.238	62.8
868.412	89.43
868.585	17.75
868.759	21.85
868.932	-70.31
869.105	40.28
869.279	21.85
869.452	15.7
869.625	89.43
869.799	-25.26
869.972	52.56
870.145	-17.07
870.319	93.52
870.492	23.89
870.665	-15.02
870.838	-19.11
871.011	-41.64
871.185	-0.68
871.358	-62.12
871.531	48.47
871.704	-21.16
871.877	36.18
872.05	-29.35
872.223	23.89
872.396	11.61
872.569	118.1
872.742	99.67
872.915	-2.73
873.088	36.18
873.261	32.08
873.434	46.42
873.607	36.18
873.78	9.56
873.953	32.08
874.126	-45.74
874.299	34.13
874.471	23.89
874.644	17.75
874.817	3.41
874.99	32.08
875.163	56.66
875.335	-4.78
875.508	50.52
875.681	68.95
875.853	-0.68
876.026	-45.74
876.199	27.99
876.371	60.76
876.544	-21.16
876.717	25.94
876.889	21.85
877.062	23.89
877.234	-8.87
877.407	19.8
877.579	-49.83
877.752	-6.83
877.924	27.99
878.097	71
878.269	75.09
878.442	34.13
878.614	1.37
878.786	15.7
878.959	85.33
879.131	23.89
879.303	-19.11
879.476	21.85
879.648	-58.03
879.82	21.85
879.993	19.8
880.165	19.8
880.337	-51.88
880.509	23.89
880.681	-19.11
880.854	-10.92
881.026	21.85
881.198	48.47
881.37	27.99
881.542	36.18
881.714	32.08
881.886	-8.87
882.058	-27.31
882.23	-10.92
882.402	-25.26
882.574	1.37
882.746	-21.16
882.918	-0.68
883.09	-17.07
883.262	19.8
883.434	56.66
883.606	-17.07
883.778	48.47
883.95	60.76
884.122	36.18
884.293	-12.97
884.465	-45.74
884.637	114
884.809	-15.02
884.98	40.28
885.152	44.37
885.324	-33.45
885.496	7.51
885.667	-12.97
885.839	-25.26
886.011	71
886.182	60.76
886.354	40.28
886.525	-0.68
886.697	15.7
886.869	15.7
887.04	-68.27
887.212	-45.74
887.383	46.42
887.555	103.76
887.726	42.32
887.897	73.04
888.069	68.95
888.24	21.85
888.412	-0.68
888.583	36.18
888.754	-23.21
888.926	-12.97
889.097	-8.87
889.268	-29.35
889.44	9.56
889.611	25.94
889.782	1.37
889.953	9.56
890.125	68.95
890.296	-76.46
890.467	-49.83
890.638	89.43
890.809	-2.73
890.98	-6.83
891.151	-33.45
891.323	30.04
891.494	40.28
891.665	5.46
891.836	-45.74
892.007	-43.69
892.178	-12.97
892.349	9.56
892.52	44.37
892.691	13.65
892.862	-2.73
893.032	-45.74
893.203	19.8
893.374	-31.4
893.545	36.18
893.716	7.51
893.887	13.65
894.057	-35.5
894.228	38.23
894.399	-2.73
894.57	-35.5
894.74	30.04
894.911	23.89
895.082	25.94
895.253	19.8
895.423	36.18
895.594	-0.68
895.764	5.46
895.935	30.04
896.106	38.23
896.276	27.99
896.447	-8.87
896.617	-23.21
896.788	46.42
896.958	32.08
897.129	36.18
897.299	23.89
897.47	-0.68
897.64	17.75
897.81	-33.45
897.981	5.46
898.151	-8.87
898.322	36.18
898.492	3.41
898.662	-25.26
898.832	-19.11
899.003	36.18
899.173	11.61
899.343	-25.26
899.513	-29.35
