Data from USB4F104151__124__10-25-16-563.txt Node

Date: Wed Mar 12 10:25:16 EDT 2025
User: louis
Spectrometer: USB4F10415
Trigger mode: 4
Integration Time (sec): 3.000000E-2
Scans to average: 1
Electric dark correction enabled: true
Nonlinearity correction enabled: false
Boxcar width: 0
XAxis mode: Wavelengths
Number of Pixels in Spectrum: 3648
>>>>>Begin Spectral Data<<<<<
178.204	-36.35
178.424	-36.35
178.644	-36.35
178.864	-87.55
179.084	-62.98
179.304	2.56
179.524	-1.54
179.744	-38.4
179.964	39.42
180.184	25.09
180.404	29.18
180.624	-69.12
180.844	-44.54
181.064	-28.16
181.283	-1.54
181.503	35.33
181.723	51.71
181.943	27.14
182.163	47.62
182.383	23.04
182.602	51.71
182.822	92.67
183.042	6.66
183.262	51.71
183.482	0.51
183.701	29.18
183.921	-5.63
184.141	82.43
184.361	72.19
184.58	55.81
184.8	72.19
185.02	2.56
185.239	86.53
185.459	57.86
185.679	55.81
185.898	23.04
186.118	64
186.338	23.04
186.557	47.62
186.777	64
186.997	16.9
187.216	102.91
187.436	115.2
187.655	59.9
187.875	-38.4
188.095	-60.93
188.314	33.28
188.534	41.47
188.753	80.38
188.973	37.38
189.192	37.38
189.412	64
189.631	49.66
189.851	47.62
190.07	107.01
190.29	39.42
190.509	4.61
190.729	23.04
190.948	49.66
191.168	162.3
191.387	25.09
191.607	10.75
191.826	51.71
192.045	35.33
192.265	92.67
192.484	16.9
192.704	4.61
192.923	29.18
193.142	78.33
193.362	27.14
193.581	121.34
193.8	86.53
194.02	64
194.239	6.66
194.458	59.9
194.678	43.52
194.897	29.18
195.116	23.04
195.335	-11.78
195.555	113.15
195.774	64
195.993	25.09
196.212	100.86
196.432	-17.92
196.651	45.57
196.87	107.01
197.089	137.73
197.308	53.76
197.528	94.72
197.747	43.52
197.966	61.95
198.185	92.67
198.404	49.66
198.623	6.66
198.842	-46.59
199.062	80.38
199.281	104.96
199.5	6.66
199.719	23.04
199.938	80.38
200.157	-5.63
200.376	78.33
200.595	35.33
200.814	18.94
201.033	45.57
201.252	33.28
201.471	43.52
201.69	29.18
201.909	70.14
202.128	2.56
202.347	47.62
202.566	76.29
202.785	43.52
203.004	39.42
203.223	107.01
203.442	66.05
203.661	45.57
203.879	117.25
204.098	8.7
204.317	61.95
204.536	53.76
204.755	61.95
204.974	41.47
205.193	119.29
205.411	98.81
205.63	41.47
205.849	23.04
206.068	14.85
206.287	0.51
206.505	129.53
206.724	86.53
206.943	-5.63
207.162	18.94
207.381	27.14
207.599	74.24
207.818	39.42
208.037	49.66
208.255	8.7
208.474	47.62
208.693	47.62
208.911	102.91
209.13	57.86
209.349	80.38
209.567	23.04
209.786	53.76
210.005	8.7
210.223	47.62
210.442	51.71
210.661	98.81
210.879	25.09
211.098	-1.54
211.316	31.23
211.535	96.77
211.753	37.38
211.972	72.19
212.191	59.9
212.409	41.47
212.628	66.05
212.846	-44.54
213.065	102.91
213.283	68.09
213.502	107.01
213.72	76.29
213.938	37.38
214.157	27.14
214.375	80.38
214.594	20.99
214.812	53.76
215.031	33.28
215.249	53.76
215.467	102.91
215.686	-15.87
215.904	-40.45
216.122	-11.78
216.341	84.48
216.559	76.29
216.778	111.1
216.996	84.48
217.214	111.1
217.432	127.49
217.651	23.04
217.869	61.95
218.087	92.67
218.306	39.42
218.524	20.99
218.742	41.47
218.96	45.57
219.179	64
219.397	4.61
219.615	170.49
219.833	76.29
220.051	-17.92
220.27	41.47
220.488	123.39
220.706	86.53
220.924	109.05
221.142	113.15
221.36	66.05
221.578	39.42
221.796	25.09
222.015	-15.87
222.233	92.67
222.451	129.53
222.669	59.9
222.887	92.67
223.105	16.9
223.323	27.14
223.541	10.75
223.759	80.38
223.977	37.38
224.195	92.67
224.413	107.01
224.631	64
224.849	37.38
225.067	59.9
225.285	31.23
225.503	74.24
225.721	31.23
225.939	88.57
226.157	49.66
226.375	80.38
226.592	41.47
226.81	100.86
227.028	107.01
227.246	164.35
227.464	35.33
227.682	6.66
227.9	80.38
228.117	4.61
228.335	104.96
228.553	66.05
228.771	-7.68
228.989	86.53
229.206	64
229.424	-46.59
229.642	14.85
229.86	33.28
230.077	43.52
230.295	39.42
230.513	-17.92
230.731	98.81
230.948	18.94
231.166	90.62
231.384	-65.02
231.601	113.15
231.819	86.53
232.037	29.18
232.254	-5.63
232.472	18.94
232.689	-71.17
232.907	94.72
233.125	68.09
233.342	-5.63
233.56	59.9
233.777	68.09
233.995	127.49
234.213	57.86
234.43	76.29
234.648	35.33
234.865	115.2
235.083	43.52
235.3	-44.54
235.518	96.77
235.735	152.06
235.953	6.66
236.17	64
236.388	25.09
236.605	10.75
236.822	72.19
237.04	-5.63
237.257	84.48
237.475	-5.63
237.692	31.23
237.909	53.76
238.127	23.04
238.344	88.57
238.562	31.23
238.779	90.62
238.996	84.48
239.214	41.47
239.431	35.33
239.648	0.51
239.865	45.57
240.083	64
240.3	31.23
240.517	51.71
240.735	39.42
240.952	55.81
241.169	82.43
241.386	92.67
241.603	12.8
241.821	115.2
242.038	41.47
242.255	86.53
242.472	55.81
242.689	166.4
242.907	141.82
243.124	-5.63
243.341	14.85
243.558	31.23
243.775	31.23
243.992	10.75
244.209	53.76
244.426	104.96
244.643	88.57
244.86	64
245.078	39.42
245.295	123.39
245.512	59.9
245.729	20.99
245.946	-9.73
246.163	25.09
246.38	78.33
246.597	53.76
246.814	35.33
247.031	25.09
247.248	18.94
247.464	0.51
247.681	94.72
247.898	33.28
248.115	51.71
248.332	61.95
248.549	76.29
248.766	76.29
248.983	78.33
249.2	70.14
249.417	88.57
249.633	47.62
249.85	39.42
250.067	18.94
250.284	84.48
250.501	78.33
250.717	109.05
250.934	25.09
251.151	88.57
251.368	39.42
251.585	86.53
251.801	18.94
252.018	76.29
252.235	41.47
252.451	10.75
252.668	4.61
252.885	88.57
253.102	14.85
253.318	53.76
253.535	68.09
253.752	16.9
253.968	55.81
254.185	-22.02
254.401	35.33
254.618	27.14
254.835	45.57
255.051	68.09
255.268	66.05
255.484	104.96
255.701	59.9
255.917	82.43
256.134	68.09
256.351	-5.63
256.567	78.33
256.784	-9.73
257	39.42
257.217	53.76
257.433	29.18
257.65	111.1
257.866	35.33
258.082	70.14
258.299	29.18
258.515	-15.87
258.732	-13.82
258.948	31.23
259.165	0.51
259.381	100.86
259.597	74.24
259.814	-15.87
260.03	37.38
260.246	74.24
260.463	96.77
260.679	74.24
260.895	84.48
261.112	59.9
261.328	98.81
261.544	27.14
261.761	53.76
261.977	55.81
262.193	25.09
262.409	43.52
262.626	141.82
262.842	70.14
263.058	53.76
263.274	59.9
263.49	39.42
263.707	16.9
263.923	-46.59
264.139	0.51
264.355	96.77
264.571	84.48
264.787	92.67
265.004	57.86
265.22	76.29
265.436	51.71
265.652	33.28
265.868	121.34
266.084	4.61
266.3	68.09
266.516	10.75
266.732	70.14
266.948	88.57
267.164	84.48
267.38	27.14
267.596	53.76
267.812	107.01
268.028	72.19
268.244	-11.78
268.46	23.04
268.676	18.94
268.892	158.21
269.108	51.71
269.324	66.05
269.54	59.9
269.756	125.44
269.972	-22.02
270.188	47.62
270.403	100.86
270.619	43.52
270.835	70.14
271.051	57.86
271.267	39.42
271.483	113.15
271.698	31.23
271.914	68.09
272.13	-17.92
272.346	96.77
272.562	8.7
272.777	59.9
272.993	57.86
273.209	43.52
273.425	41.47
273.64	-46.59
273.856	51.71
274.072	78.33
274.287	23.04
274.503	20.99
274.719	68.09
274.934	111.1
275.15	86.53
275.366	33.28
275.581	-22.02
275.797	70.14
276.012	74.24
276.228	-7.68
276.444	76.29
276.659	55.81
276.875	-7.68
277.09	68.09
277.306	72.19
277.521	57.86
277.737	8.7
277.952	49.66
278.168	39.42
278.383	57.86
278.599	18.94
278.814	104.96
279.03	84.48
279.245	76.29
279.461	33.28
279.676	20.99
279.892	27.14
280.107	43.52
280.322	27.14
280.538	82.43
280.753	10.75
280.969	100.86
281.184	107.01
281.399	2.56
281.615	31.23
281.83	43.52
282.045	35.33
282.26	39.42
282.476	86.53
282.691	-13.82
282.906	76.29
283.122	49.66
283.337	-24.06
283.552	41.47
283.767	4.61
283.983	51.71
284.198	66.05
284.413	121.34
284.628	0.51
284.843	47.62
285.058	66.05
285.274	39.42
285.489	-5.63
285.704	59.9
285.919	33.28
286.134	74.24
286.349	47.62
286.564	18.94
286.779	59.9
286.995	8.7
287.21	23.04
287.425	109.05
287.64	57.86
287.855	154.11
288.07	25.09
288.285	90.62
288.5	92.67
288.715	35.33
288.93	74.24
289.145	113.15
289.36	45.57
289.575	27.14
289.79	96.77
290.004	41.47
290.219	59.9
290.434	72.19
290.649	51.71
290.864	55.81
291.079	0.51
291.294	-19.97
291.509	113.15
291.724	51.71
291.938	18.94
292.153	117.25
292.368	23.04
292.583	64
292.798	35.33
293.012	66.05
293.227	53.76
293.442	-54.78
293.657	92.67
293.871	53.76
294.086	53.76
294.301	100.86
294.516	55.81
294.73	43.52
294.945	-24.06
295.16	98.81
295.374	86.53
295.589	57.86
295.804	49.66
296.018	43.52
296.233	104.96
296.447	55.81
296.662	100.86
296.877	59.9
297.091	45.57
297.306	0.51
297.52	66.05
297.735	33.28
297.949	14.85
298.164	80.38
298.378	59.9
298.593	31.23
298.807	18.94
299.022	107.01
299.236	154.11
299.451	-15.87
299.665	-13.82
299.88	31.23
300.094	88.57
300.309	96.77
300.523	68.09
300.737	86.53
300.952	14.85
301.166	53.76
301.381	82.43
301.595	100.86
301.809	33.28
302.024	29.18
302.238	90.62
302.452	129.53
302.667	100.86
302.881	8.7
303.095	100.86
303.309	61.95
303.524	25.09
303.738	35.33
303.952	25.09
304.166	76.29
304.381	-24.06
304.595	96.77
304.809	51.71
305.023	86.53
305.237	76.29
305.452	64
305.666	0.51
305.88	59.9
306.094	72.19
306.308	-7.68
306.522	59.9
306.736	109.05
306.95	72.19
307.164	64
307.379	29.18
307.593	59.9
307.807	92.67
308.021	88.57
308.235	33.28
308.449	0.51
308.663	59.9
308.877	113.15
309.091	70.14
309.305	111.1
309.519	-7.68
309.733	107.01
309.947	-9.73
310.161	92.67
310.374	29.18
310.588	59.9
310.802	55.81
311.016	66.05
311.23	51.71
311.444	-32.26
311.658	98.81
311.872	74.24
312.085	86.53
312.299	119.29
312.513	82.43
312.727	76.29
312.941	10.75
313.154	-26.11
313.368	23.04
313.582	90.62
313.796	10.75
314.009	-1.54
314.223	129.53
314.437	59.9
314.651	70.14
314.864	12.8
315.078	39.42
315.292	-1.54
315.505	129.53
315.719	84.48
315.933	43.52
316.146	2.56
316.36	49.66
316.573	84.48
316.787	47.62
317.001	82.43
317.214	18.94
317.428	109.05
317.641	31.23
317.855	-30.21
318.068	31.23
318.282	16.9
318.495	59.9
318.709	127.49
318.922	59.9
319.136	66.05
319.349	104.96
319.563	70.14
319.776	57.86
319.99	53.76
320.203	27.14
320.417	39.42
320.63	152.06
320.843	133.63
321.057	74.24
321.27	37.38
321.483	37.38
321.697	123.39
321.91	31.23
322.124	59.9
322.337	74.24
322.55	125.44
322.763	68.09
322.977	66.05
323.19	70.14
323.403	113.15
323.617	49.66
323.83	47.62
324.043	66.05
324.256	96.77
324.469	41.47
324.683	35.33
324.896	35.33
325.109	31.23
325.322	12.8
325.535	16.9
325.748	90.62
325.962	76.29
326.175	102.91
326.388	45.57
326.601	117.25
326.814	64
327.027	133.63
327.24	94.72
327.453	35.33
327.666	35.33
327.879	158.21
328.092	84.48
328.305	35.33
328.518	-13.82
328.731	37.38
328.944	2.56
329.157	66.05
329.37	61.95
329.583	27.14
329.796	131.58
330.009	37.38
330.222	84.48
330.435	135.68
330.648	55.81
330.861	47.62
331.073	16.9
331.286	109.05
331.499	35.33
331.712	100.86
331.925	55.81
332.138	-24.06
332.35	131.58
332.563	35.33
332.776	117.25
332.989	61.95
333.202	98.81
333.414	96.77
333.627	80.38
333.84	43.52
334.053	80.38
334.265	96.77
334.478	94.72
334.691	80.38
334.903	49.66
335.116	84.48
335.329	76.29
335.541	115.2
335.754	68.09
335.966	64
336.179	76.29
336.392	78.33
336.604	104.96
336.817	72.19
337.029	23.04
337.242	113.15
337.454	92.67
337.667	-15.87
337.88	76.29
338.092	156.16
338.305	154.11
338.517	20.99
338.729	76.29
338.942	131.58
339.154	12.8
339.367	45.57
339.579	76.29
339.792	29.18
340.004	92.67
340.217	0.51
340.429	57.86
340.641	29.18
340.854	27.14
341.066	133.63
341.278	49.66
341.491	129.53
341.703	139.77
341.915	41.47
342.128	96.77
342.34	109.05
342.552	49.66
342.764	64
342.977	102.91
343.189	43.52
343.401	66.05
343.613	39.42
343.826	39.42
344.038	78.33
344.25	92.67
344.462	125.44
344.674	82.43
344.886	107.01
345.099	80.38
345.311	29.18
345.523	76.29
345.735	59.9
345.947	59.9
346.159	78.33
346.371	98.81
346.583	16.9
346.795	180.73
347.007	59.9
347.219	29.18
347.431	59.9
347.643	20.99
347.855	18.94
348.067	66.05
348.279	20.99
348.491	-7.68
348.703	109.05
348.915	55.81
349.127	39.42
349.339	102.91
349.551	78.33
349.763	29.18
349.975	59.9
350.187	164.35
350.399	131.58
350.61	139.77
350.822	12.8
351.034	80.38
351.246	84.48
351.458	113.15
351.669	47.62
351.881	39.42
352.093	92.67
352.305	55.81
352.517	35.33
352.728	74.24
352.94	33.28
353.152	51.71
353.363	-3.58
353.575	0.51
353.787	135.68
353.999	74.24
354.21	23.04
354.422	84.48
354.633	43.52
354.845	51.71
355.057	45.57
355.268	-11.78
355.48	109.05
355.692	86.53
355.903	102.91
356.115	-40.45
356.326	-7.68
356.538	78.33
356.749	72.19
356.961	90.62
357.172	51.71
357.384	35.33
357.595	143.87
357.807	23.04
358.018	37.38
358.23	107.01
358.441	94.72
358.653	-13.82
358.864	57.86
359.075	55.81
359.287	41.47
359.498	98.81
359.709	111.1
359.921	117.25
360.132	88.57
360.344	43.52
360.555	68.09
360.766	49.66
360.977	39.42
361.189	135.68
361.4	43.52
361.611	64
361.823	4.61
362.034	104.96
362.245	-5.63
362.456	68.09
362.667	80.38
362.879	80.38
363.09	51.71
363.301	117.25
363.512	47.62
363.723	119.29
363.935	70.14
364.146	74.24
364.357	47.62
364.568	119.29
364.779	25.09
364.99	90.62
365.201	41.47
365.412	74.24
365.623	-5.63
365.834	133.63
366.045	72.19
366.256	100.86
366.467	121.34
366.678	76.29
366.889	66.05
367.1	53.76
367.311	92.67
367.522	94.72
367.733	41.47
367.944	66.05
368.155	88.57
368.366	39.42
368.577	31.23
368.788	59.9
368.999	-17.92
369.209	-17.92
369.42	125.44
369.631	131.58
369.842	43.52
370.053	154.11
370.264	129.53
370.474	27.14
370.685	78.33
370.896	76.29
371.107	88.57
371.317	113.15
371.528	10.75
371.739	72.19
371.95	39.42
372.16	180.73
372.371	2.56
372.582	80.38
372.792	-22.02
373.003	70.14
373.214	129.53
373.424	88.57
373.635	43.52
373.846	125.44
374.056	59.9
374.267	39.42
374.477	94.72
374.688	53.76
374.898	12.8
375.109	76.29
375.319	2.56
375.53	121.34
375.74	94.72
375.951	43.52
376.161	68.09
376.372	92.67
376.582	51.71
376.793	61.95
377.003	70.14
377.214	10.75
377.424	64
377.635	100.86
377.845	12.8
378.055	145.92
378.266	66.05
378.476	59.9
378.686	145.92
378.897	96.77
379.107	59.9
379.317	23.04
379.528	100.86
379.738	68.09
379.948	59.9
380.158	66.05
380.369	152.06
380.579	141.82
380.789	115.2
380.999	35.33
381.21	43.52
381.42	86.53
381.63	74.24
381.84	20.99
382.05	150.01
382.261	43.52
382.471	64
382.681	8.7
382.891	47.62
383.101	203.26
383.311	23.04
383.521	100.86
383.731	137.73
383.941	102.91
384.151	31.23
384.361	59.9
384.571	86.53
384.781	51.71
384.991	141.82
385.201	84.48
385.411	107.01
385.621	86.53
385.831	61.95
386.041	0.51
386.251	-11.78
386.461	113.15
386.671	25.09
386.881	98.81
387.091	131.58
387.301	59.9
387.511	66.05
387.72	162.3
387.93	53.76
388.14	12.8
388.35	131.58
388.56	133.63
388.769	74.24
388.979	88.57
389.189	68.09
389.399	154.11
389.609	152.06
389.818	158.21
390.028	94.72
390.238	43.52
390.447	88.57
390.657	131.58
390.867	35.33
391.076	76.29
391.286	125.44
391.496	123.39
391.705	121.34
391.915	111.1
392.125	115.2
392.334	74.24
392.544	111.1
392.753	49.66
392.963	59.9
393.172	147.97
393.382	111.1
393.591	125.44
393.801	102.91
394.01	111.1
394.22	84.48
394.429	107.01
394.639	152.06
394.848	90.62
395.058	109.05
395.267	152.06
395.477	121.34
395.686	74.24
395.895	201.21
396.105	143.87
396.314	94.72
396.524	127.49
396.733	84.48
396.942	141.82
397.152	111.1
397.361	84.48
397.57	137.73
397.78	184.83
397.989	133.63
398.198	166.4
398.407	152.06
398.617	51.71
398.826	76.29
399.035	152.06
399.244	133.63
399.453	98.81
399.663	104.96
399.872	154.11
400.081	109.05
400.29	199.16
400.499	158.21
400.708	193.02
400.917	139.77
401.127	64
401.336	86.53
401.545	256.51
401.754	111.1
401.963	178.69
402.172	133.63
402.381	180.73
402.59	168.45
402.799	154.11
403.008	162.3
403.217	158.21
403.426	174.59
403.635	129.53
403.844	154.11
404.053	141.82
404.262	129.53
404.471	199.16
404.68	182.78
404.888	170.49
405.097	227.84
405.306	207.36
405.515	215.55
405.724	172.54
405.933	221.69
406.142	262.65
406.35	221.69
406.559	147.97
406.768	188.93
406.977	264.7
407.185	248.32
407.394	219.64
407.603	195.07
407.812	250.36
408.02	272.89
408.229	299.52
408.438	311.8
408.646	317.95
408.855	254.46
409.064	297.47
409.272	320
409.481	354.81
409.69	356.86
409.898	330.23
410.107	356.86
410.315	416.25
410.524	379.39
410.733	403.96
410.941	334.33
411.15	418.3
411.358	397.82
411.567	463.35
411.775	424.44
411.984	428.54
412.192	475.64
412.401	520.7
412.609	530.94
412.818	551.42
413.026	571.9
413.234	608.76
413.443	551.42
413.651	573.94
413.86	508.41
414.068	664.05
414.276	670.2
414.485	690.68
414.693	758.26
414.901	743.92
415.11	786.93
415.318	752.12
415.526	805.36
415.734	874.99
415.943	797.17
416.151	930.29
416.359	819.7
416.567	979.44
416.776	866.8
416.984	1014.26
417.192	1096.18
417.4	1071.6
417.608	1014.26
417.817	1092.08
418.025	1108.46
418.233	1227.25
418.441	1245.68
418.649	1313.26
418.857	1368.56
419.065	1407.47
419.273	1364.46
419.481	1485.29
419.689	1493.48
419.897	1608.17
420.105	1460.71
420.313	1577.45
420.521	1753.57
420.729	1778.15
420.937	1872.36
421.145	1853.92
421.353	2034.14
421.561	2009.57
421.769	2034.14
421.977	2150.88
422.185	2177.5
422.393	2236.89
422.601	2431.45
422.809	2513.37
423.017	2441.69
423.224	2546.14
423.432	2671.06
423.64	2583
423.848	2908.63
424.056	2769.37
424.263	3148.24
424.471	2892.24
424.679	3146.19
424.887	3264.97
425.094	3377.61
425.302	3441.1
425.51	3412.43
425.718	3639.75
425.925	3623.37
426.133	3783.11
426.341	3920.32
426.548	4202.94
426.756	4108.74
426.964	4116.93
427.171	4442.56
427.379	4618.68
427.586	4448.7
427.794	4647.35
428.001	4972.98
428.209	5173.68
428.417	4989.36
428.624	5366.19
428.832	5536.17
429.039	5325.23
429.247	5452.2
429.454	6179.23
429.662	6334.88
429.869	5962.15
430.076	6255.01
430.284	6232.48
430.491	6390.17
430.699	6750.62
430.906	6697.37
431.114	6820.25
431.321	6990.23
431.528	7201.17
431.736	7471.5
431.943	8155.52
432.15	7879.05
432.358	7831.94
432.565	8151.43
432.772	8423.81
432.979	8864.12
433.187	8943.99
433.394	9003.38
433.601	9501.04
433.808	9783.66
434.016	9468.27
434.223	9881.96
434.43	10449.25
434.637	10223.97
434.844	10924.38
435.052	11184.47
435.259	11065.69
435.466	11284.82
435.673	10887.51
435.88	11833.68
436.087	12513.6
436.294	12675.39
436.501	12073.29
436.708	12341.57
436.915	12966.2
437.122	13201.72
437.329	13332.79
437.537	13549.87
437.743	13967.66
437.95	13912.36
438.157	14436.64
438.364	15212.82
438.571	15005.98
438.778	14977.31
438.985	16668.93
439.192	15907.09
439.399	16288.01
439.606	16210.18
439.813	16994.56
440.02	17940.72
440.227	17666.29
440.433	17481.97
440.64	17875.18
440.847	17760.5
441.054	18215.15
441.261	19411.16
441.467	19521.75
441.674	19706.07
441.881	20480.2
442.088	20357.32
442.294	20187.34
442.501	20662.47
442.708	21106.88
442.914	22036.66
443.121	22986.91
443.328	22337.71
443.534	23851.16
443.741	23038.11
443.948	22827.17
444.154	24494.22
444.361	24141.97
444.568	24393.87
444.774	24240.27
444.981	24608.9
445.187	25258.11
445.394	26470.51
445.6	26265.71
445.807	28590.16
446.013	27570.27
446.22	28069.97
446.426	28797
446.633	29276.23
446.839	30330.93
447.046	28885.06
447.252	30597.17
447.459	30560.3
447.665	30582.83
447.871	31911.96
448.078	33239.04
448.284	31227.94
448.491	32337.94
448.697	33607.68
448.903	34592.75
449.11	33843.2
449.316	33349.64
449.522	34080.76
449.728	35149.8
449.935	35540.96
450.141	35215.33
450.347	36306.9
450.553	35012.59
450.76	35348.45
450.966	36796.37
451.172	36014.04
451.378	36827.09
451.584	36339.67
451.791	36949.96
451.997	36655.06
452.203	37490.63
452.409	37492.68
452.615	36956.11
452.821	35596.26
453.027	35610.59
453.233	37275.59
453.44	35514.34
453.646	35905.5
453.852	36149.21
454.058	36925.39
454.264	35860.44
454.47	36722.64
454.676	35213.29
454.882	36429.78
455.088	33054.73
455.294	33769.47
455.5	34457.59
455.705	35024.87
455.911	33394.69
456.117	32598.03
456.323	32176.15
456.529	30554.16
456.735	31600.67
456.941	31068.2
457.147	30828.59
457.352	29421.63
457.558	28971.08
457.764	29087.81
457.97	28643.4
458.176	28045.4
458.381	27510.88
458.587	26278
458.793	26495.08
458.999	25122.94
459.204	27220.06
459.41	26278
459.616	24490.12
459.821	24582.28
460.027	24578.18
460.233	24146.06
460.438	22692.01
460.644	23064.74
460.85	22198.45
461.055	21772.47
461.261	21616.82
461.466	20312.27
461.672	19355.86
461.878	21041.34
462.083	19392.73
462.289	19187.93
462.494	19011.81
462.7	18262.25
462.905	17692.91
463.111	18331.88
463.316	18172.14
463.522	17903.85
463.727	17725.68
463.932	17969.39
464.138	17791.22
464.343	17623.28
464.549	17377.53
464.754	17924.33
464.959	17807.6
465.165	17672.43
465.37	16939.26
465.575	16390.41
465.781	17074.43
465.986	17234.17
466.191	16468.23
466.397	16261.38
466.602	15302.93
466.807	16036.11
467.012	16165.13
467.218	15956.24
467.423	15423.76
467.628	15978.76
467.833	16521.48
468.038	15907.09
468.244	15468.82
468.449	16036.11
468.654	15677.71
468.859	15444.24
469.064	15184.15
469.269	14547.23
469.474	14741.79
469.679	14960.92
469.885	14567.71
470.09	15024.41
470.295	15077.66
470.5	14477.6
470.705	14672.16
470.91	14137.64
471.115	14000.43
471.32	13965.61
471.525	14131.5
471.73	13820.21
471.935	13748.53
472.139	13279.54
472.344	13424.95
472.549	13531.44
472.754	13312.31
472.959	12816.7
473.164	12644.67
473.369	12468.55
473.574	12906.81
473.778	12689.73
473.983	12712.25
474.188	12519.74
474.393	12087.62
474.598	12091.72
474.802	11970.89
475.007	11874.63
475.212	11757.9
475.417	11372.88
475.621	11610.45
475.826	11460.95
476.031	11163.99
476.235	11012.44
476.44	11315.54
476.645	10961.24
476.849	10895.71
477.054	10963.29
477.259	10684.76
477.463	10482.02
477.668	10502.5
477.872	10699.1
478.077	10250.6
478.282	10221.92
478.486	10146.15
478.691	9924.97
478.895	10051.94
479.1	10074.47
479.304	9961.83
479.509	9804.14
479.713	9927.02
479.918	9691.5
480.122	9533.81
480.326	9775.47
480.531	9777.51
480.735	9498.99
480.94	9425.26
481.144	9726.32
481.348	9206.13
481.553	9484.66
481.757	9218.42
481.961	9415.02
482.166	9519.47
482.37	9224.56
482.574	9009.53
482.778	9173.36
482.983	9374.06
483.187	9283.95
483.391	9386.35
483.595	9054.58
483.8	8958.33
484.004	9294.19
484.208	9419.12
484.412	9126.26
484.616	9191.8
484.821	9054.58
485.025	8993.14
485.229	9458.03
485.433	9148.79
485.637	9169.27
485.841	9118.07
486.045	9050.49
486.249	9476.46
486.453	9259.38
486.657	9003.38
486.861	9396.59
487.065	9171.32
487.269	9292.15
487.473	9038.2
487.677	9247.09
487.881	9404.78
488.085	9226.61
488.289	9304.43
488.493	9435.5
488.697	9347.44
488.901	9470.32
489.105	9275.76
489.309	9359.73
489.512	9462.13
489.716	9324.91
489.92	9476.46
490.124	9423.22
490.328	9693.55
490.531	9425.26
490.735	9460.08
490.939	9484.66
491.143	9615.73
491.346	9722.22
491.55	9681.26
491.754	9562.48
491.958	9795.95
492.161	9537.9
492.365	9734.51
492.569	9607.53
492.772	9828.71
492.976	9959.78
493.18	9875.82
493.383	10146.15
493.587	10086.76
493.79	10117.48
493.994	10142.05
494.197	10332.51
494.401	10338.66
494.605	10412.39
494.808	10733.92
495.012	10647.9
495.215	10557.79
495.419	10877.27
495.622	10504.54
495.825	10725.72
496.029	10760.54
496.232	11004.25
496.436	10944.86
496.639	11186.52
496.843	11198.81
497.046	11544.91
497.249	11680.08
497.453	11387.22
497.656	11872.59
497.859	11925.83
498.063	11876.68
498.266	12290.37
498.469	12329.28
498.673	12269.89
498.876	12374.34
499.079	12626.24
499.282	12583.23
499.485	12904.76
499.689	12919.1
499.892	13220.15
500.095	13203.77
500.298	13322.55
500.501	13220.15
500.705	13895.98
500.908	13986.09
501.111	14070.06
501.314	14125.35
501.517	14231.85
501.72	14403.88
501.923	14522.66
502.126	14829.85
502.329	15001.88
502.532	14995.74
502.735	15343.89
502.938	15315.22
503.141	15458.58
503.344	15896.85
503.547	15696.14
503.75	16027.92
503.953	16308.49
504.156	16468.23
504.359	16564.48
504.562	16531.72
504.765	16855.29
504.968	17168.63
505.17	17416.44
505.373	17490.17
505.576	17740.02
505.779	18065.64
505.982	18032.88
506.185	18043.12
506.387	18372.84
506.59	18573.54
506.793	18809.06
506.996	19118.3
507.198	19613.91
507.401	19396.82
507.604	19816.66
507.807	19744.98
508.009	20068.56
508.212	20474.06
508.415	20379.85
508.617	20932.8
508.82	21070.01
509.022	21102.78
509.225	21434.55
509.428	21723.32
509.63	21852.34
509.833	21907.63
510.035	22309.04
510.238	22157.49
510.44	22802.6
510.643	22841.51
510.845	23208.09
511.048	23117.98
511.25	23648.41
511.453	23529.62
511.655	24615.05
511.858	24082.58
512.06	24569.99
512.262	24854.66
512.465	24969.35
512.667	25043.07
512.87	25464.96
513.072	25575.55
513.274	26376.3
513.477	26378.35
513.679	26706.02
513.881	26679.4
514.084	27351.13
514.286	26925.16
514.488	27447.39
514.69	27873.37
514.893	28344.4
515.095	28561.48
515.297	28573.77
515.499	29069.38
515.701	28987.46
515.904	29681.72
516.106	29732.92
516.308	29970.49
516.51	30400.56
516.712	30259.25
516.914	30834.73
517.116	31272.99
517.318	31371.3
517.52	31412.26
517.722	31952.92
517.925	31981.59
518.127	32530.45
518.329	32970.76
518.531	32710.67
518.733	33718.27
518.935	33513.47
519.136	33923.07
519.338	34144.25
519.54	34256.89
519.742	34564.08
519.944	34942.95
520.146	35452.9
520.348	35794.91
520.55	35876.83
520.752	35815.39
520.954	36767.69
521.155	36085.72
521.357	36820.94
521.559	37347.27
521.761	37875.65
521.963	37904.32
522.164	37982.14
522.366	38352.82
522.568	38522.8
522.77	38959.02
522.971	39298.98
523.173	39165.87
523.375	39845.79
523.576	39722.91
523.778	39466.92
523.98	40476.57
524.181	40501.14
524.383	40521.62
524.584	41193.36
524.786	41131.92
524.988	41242.51
525.189	41842.56
525.391	41832.32
525.592	42618.74
525.794	42561.4
525.995	42119.04
526.197	42899.31
526.398	42475.38
526.6	43028.34
526.801	43294.57
527.003	43276.14
527.204	43786.08
527.406	43859.81
527.607	43593.57
527.808	44246.88
528.01	43847.52
528.211	44562.26
528.412	45446.99
528.614	45293.39
528.815	45229.9
529.016	45162.32
529.218	45035.34
529.419	45178.7
529.62	45412.17
529.822	45307.72
530.023	45522.76
530.224	45578.06
530.425	45403.98
530.626	46022.47
530.828	45576.01
531.029	46698.3
531.23	45637.45
531.431	46223.17
531.632	46169.92
531.833	46647.1
532.035	46350.14
532.236	46348.09
532.437	46757.69
532.638	46448.44
532.839	46393.15
533.04	46599.99
533.241	46774.07
533.442	47470.38
533.643	47062.83
533.844	46722.87
534.045	47439.66
534.246	46849.85
534.447	47124.27
534.648	46978.87
534.849	46782.26
535.05	47126.32
535.251	47130.42
535.451	47077.17
535.652	47478.57
535.853	47372.08
536.054	47284.01
536.255	47359.79
536.456	47050.55
536.657	47927.08
536.857	47263.53
537.058	47195.95
537.259	47640.36
537.46	47542.06
537.66	47462.19
537.861	47529.77
538.062	47437.61
538.263	47552.3
538.463	47445.8
538.664	47134.51
538.865	47828.77
539.065	47789.86
539.266	47173.42
539.466	47583.02
539.667	47365.93
539.868	48238.37
540.068	47228.72
540.269	47738.66
540.469	47546.15
540.67	47271.73
540.87	47623.98
541.071	47165.23
541.271	47517.48
541.472	47652.65
541.672	46972.72
541.873	47183.66
542.073	46681.91
542.274	47540.01
542.474	47480.62
542.675	47353.65
542.875	47849.25
543.075	47331.12
543.276	46706.49
543.476	47845.16
543.676	47341.36
543.877	47404.84
544.077	46989.11
544.277	47234.86
544.478	47226.67
544.678	47331.12
544.878	47126.32
545.078	47101.75
545.279	47087.41
545.479	47157.04
545.679	47173.42
545.879	47165.23
546.079	46835.51
546.28	46880.56
546.48	46745.4
546.68	47269.68
546.88	47048.5
547.08	47683.37
547.28	47005.49
547.48	46593.85
547.68	47036.21
547.88	46716.73
548.081	47124.27
548.281	46948.15
548.481	46993.2
548.681	47052.59
548.881	47181.62
549.081	47179.57
549.28	46894.9
549.48	47165.23
549.68	46632.76
549.88	47408.94
550.08	46569.27
550.28	46837.56
550.48	46718.78
550.68	46878.52
550.88	46419.77
551.08	46587.71
551.279	46903.09
551.479	46364.48
551.679	46528.31
551.879	46448.44
552.079	46858.04
552.278	46358.33
552.478	46989.11
552.678	46915.38
552.878	46696.25
553.077	46544.7
553.277	46370.62
553.477	47107.89
553.676	46372.67
553.876	46860.08
554.076	46554.94
554.275	46296.89
554.475	45760.33
554.674	46159.68
554.874	46493.5
555.074	46165.82
555.273	46458.68
555.473	46702.39
555.672	45907.78
555.872	45821.76
556.071	46212.93
556.271	46001.99
556.47	45498.19
556.67	45940.55
556.869	45498.19
557.068	46370.62
557.268	45221.71
557.467	45899.59
557.667	45721.41
557.866	45528.91
558.065	45444.94
558.265	44703.57
558.464	45248.33
558.663	45733.7
558.863	44965.71
559.062	45752.13
559.261	44781.4
559.461	45557.58
559.66	44543.83
559.859	44773.2
560.058	44541.78
560.258	44449.63
560.457	44324.7
560.656	45051.73
560.855	44468.06
561.054	44300.12
561.253	44042.08
561.453	44423
561.652	44414.81
561.851	44509.02
562.05	43847.52
562.249	43597.67
562.448	44042.08
562.647	43960.16
562.846	43687.78
563.045	44060.51
563.244	43089.77
563.443	43919.2
563.642	43030.38
563.841	43403.11
564.04	43128.69
564.239	43415.4
564.438	42930.03
564.637	42973.04
564.836	42510.2
565.035	42268.54
565.234	42903.41
565.432	42278.78
565.631	42203
565.83	42561.4
566.029	42418.04
566.228	41883.52
566.427	41899.9
566.625	41404.3
566.824	41459.59
567.023	41951.1
567.222	41189.26
567.42	41799.55
567.619	41539.46
567.818	41383.82
568.016	41115.53
568.215	41566.09
568.414	40947.6
568.612	41240.46
568.811	40818.58
569.01	40707.99
569.208	40017.82
569.407	40490.9
569.605	40202.14
569.804	40439.7
570.002	40087.45
570.201	40204.19
570.4	39827.36
570.598	39251.88
570.797	39393.19
570.995	39886.75
571.193	39079.85
571.392	39741.35
571.59	39260.07
571.789	39112.62
571.987	39245.74
572.186	38664.11
572.384	38447.03
572.582	38584.24
572.781	38643.63
572.979	38043.58
573.177	38186.94
573.376	38719.41
573.574	38113.21
573.772	38313.91
573.971	38080.44
574.169	37519.3
574.367	37287.88
574.565	37595.07
574.763	37427.14
574.962	37511.11
575.16	37019.6
575.358	37431.24
575.556	36857.81
575.754	37365.7
575.952	36614.1
576.151	36968.4
576.349	36845.52
576.547	36777.93
576.745	36446.16
576.943	36216.79
577.141	36227.03
577.339	36204.5
577.537	35981.27
577.735	36057.05
577.933	35751.9
578.131	36145.11
578.329	35239.91
578.527	35006.44
578.725	35504.1
578.923	35528.67
579.121	35213.29
579.319	35037.16
579.516	35119.08
579.714	35196.9
579.912	34693.1
580.11	34865.13
580.308	34717.68
580.506	34672.62
580.704	34238.45
580.901	34580.46
581.099	34545.65
581.297	34105.34
581.495	34285.56
581.692	34361.33
581.89	33632.25
582.088	33906.68
582.285	33681.41
582.483	33693.69
582.681	33503.23
582.878	33624.06
583.076	33265.67
583.274	33296.39
583.471	33083.4
583.669	33144.84
583.866	33040.39
584.064	33345.54
584.262	32311.31
584.459	32964.62
584.657	32778.25
584.854	32921.61
585.052	32159.77
585.249	32491.54
585.447	32127
585.644	32061.46
585.841	31879.19
586.039	32182.29
586.236	31684.64
586.434	31547.42
586.631	31338.53
586.828	31705.12
587.026	31832.09
587.223	31436.83
587.42	31281.19
587.618	31248.42
587.815	30916.65
588.012	31086.63
588.21	30840.87
588.407	31209.51
588.604	30722.09
588.801	30533.68
588.999	30629.93
589.196	30488.62
589.393	30615.6
589.59	30142.52
589.787	29904.95
589.984	30013.49
590.182	29567.04
590.379	29925.43
590.576	30076.98
590.773	29839.42
590.97	29814.84
591.167	29884.47
591.364	29059.14
591.561	29659.2
591.758	29247.55
591.955	29145.16
592.152	29210.69
592.349	29040.71
592.546	28823.62
592.743	28923.97
592.94	28403.79
593.137	28864.58
593.334	28932.17
593.531	28362.83
593.727	28627.02
593.924	28506.19
594.121	28371.02
594.318	28272.72
594.515	28227.67
594.712	28397.65
594.908	28010.58
595.105	28096.6
595.302	27414.62
595.499	27996.24
595.696	27631.71
595.892	27447.39
596.089	27498.59
596.286	27672.67
596.482	27588.7
596.679	27279.46
596.876	27256.93
597.072	26890.34
597.269	27228.26
597.466	26880.1
597.662	26699.88
597.859	26529.9
598.055	26746.98
598.252	26570.86
598.448	26484.84
598.645	26712.17
598.841	26179.7
599.038	26431.6
599.234	26407.02
599.431	25737.34
599.627	25841.78
599.824	25968.76
600.02	25835.64
600.217	25766.01
600.413	25581.69
600.609	25723
600.806	25380.99
601.002	25358.46
601.198	25231.49
601.395	25067.65
601.591	25133.18
601.787	25297.02
601.984	24678.54
602.18	25030.79
602.376	25061.51
602.572	24850.56
602.769	24869
602.965	24561.8
603.161	24883.33
603.357	24277.13
603.553	24281.23
603.75	24750.21
603.946	24240.27
604.142	24420.49
604.338	23498.91
604.534	24090.77
604.73	23859.35
604.926	24105.1
605.122	24049.81
605.318	23945.36
605.514	23617.69
605.71	23685.27
605.906	23568.54
606.102	23599.26
606.298	23691.41
606.494	23414.94
606.69	23685.27
606.886	23408.79
607.082	23204
607.278	23402.65
607.474	22821.03
607.67	22933.67
607.866	22886.56
608.062	22868.13
608.257	22782.12
608.453	22972.58
608.649	22933.67
608.845	22612.13
609.041	22769.83
609.236	22710.44
609.432	22206.64
609.628	22937.76
609.824	22321.32
610.019	22286.51
610.215	22380.71
610.411	22126.77
610.606	22137.01
610.802	22309.04
610.998	22284.46
611.193	22053.04
611.389	21770.42
611.584	21907.63
611.78	21848.24
611.976	21803.19
612.171	21981.36
612.367	21817.52
612.562	21835.95
612.758	21383.35
612.953	21608.63
613.149	22028.46
613.344	21237.95
613.539	21891.25
613.735	21348.54
613.93	21452.98
614.126	21452.98
614.321	21483.7
614.517	21297.34
614.712	21510.33
614.907	21340.35
615.103	21207.23
615.298	21004.48
615.493	21366.97
615.688	20947.14
615.884	21127.36
616.079	21057.73
616.274	21225.66
616.47	20893.89
616.665	20887.75
616.86	20766.92
617.055	20795.59
617.25	20744.39
617.445	20609.22
617.641	20306.12
617.836	20738.24
618.031	20486.34
618.226	20506.82
618.421	20277.45
618.616	20584.65
618.811	20058.32
619.006	20271.31
619.201	19996.88
619.396	20166.86
619.591	19558.61
619.786	19851.47
619.981	19640.53
620.176	19482.84
620.371	19503.32
620.566	19679.44
620.761	19343.58
620.956	19464.41
621.151	19202.27
621.346	19583.19
621.541	18917.6
621.735	19128.54
621.93	18594.02
622.125	18634.98
622.32	18419.94
622.515	18688.23
622.709	18274.54
622.904	18567.4
623.099	18389.22
623.294	18297.06
623.488	18112.75
623.683	18182.38
623.878	17719.54
624.072	17963.25
624.267	17752.31
624.462	17785.07
624.656	17322.23
624.851	17746.16
625.046	17774.83
625.24	17334.52
625.435	17172.73
625.629	17457.4
625.824	16953.6
626.018	16976.12
626.213	16648.45
626.407	16709.89
626.602	16441.61
626.796	16961.79
626.991	16470.28
627.185	16343.3
627.38	16460.04
627.574	16285.96
627.768	16109.83
627.963	15952.14
628.157	15909.13
628.352	16089.35
628.546	15661.33
628.74	16060.68
628.935	15649.04
629.129	15667.47
629.323	15462.68
629.517	15300.89
629.712	15446.29
629.906	15530.26
630.1	15055.13
630.294	15051.03
630.489	15055.13
630.683	14913.82
630.877	14684.45
631.071	14551.33
631.265	14999.84
631.459	14739.74
631.653	14635.3
631.848	14493.99
632.042	14397.73
632.236	14420.26
632.43	14395.68
632.624	14319.91
632.818	14311.72
633.012	13994.28
633.206	13824.3
633.4	14080.3
633.594	14022.95
633.788	13734.19
633.982	13891.88
634.176	13607.22
634.369	13795.63
634.563	13556.02
634.757	13367.6
634.951	13467.95
635.145	13271.35
635.339	13222.2
635.533	13162.81
635.726	13039.93
635.92	12896.57
636.114	13052.22
636.308	12869.95
636.501	13209.91
636.695	12884.28
636.889	12476.74
637.083	12368.2
637.276	12808.51
637.47	12437.83
637.664	12190.02
637.857	12493.12
638.051	12300.61
638.244	12243.27
638.438	12255.56
638.632	12292.42
638.825	11764.04
639.019	11817.29
639.212	11903.31
639.406	11813.2
639.599	11727.18
639.793	11696.46
639.986	11542.86
640.18	11460.95
640.373	11526.48
640.567	11405.65
640.76	11405.65
640.954	11145.56
641.147	11196.76
641.34	11200.85
641.534	11114.84
641.727	11061.59
641.92	11207
642.114	10824.03
642.307	11037.02
642.5	11061.59
642.694	10656.09
642.887	10506.59
643.08	10738.01
643.273	10606.94
643.467	10598.75
643.66	10207.59
643.853	10348.9
644.046	10312.03
644.239	10439.01
644.432	10217.83
644.626	10064.23
644.819	10006.89
645.012	10238.31
645.205	9914.73
645.398	9818.47
645.591	9709.93
645.784	9865.58
645.977	9724.27
646.17	9841
646.363	9752.94
646.556	9494.9
646.749	9795.95
646.942	9558.38
647.135	9382.26
647.328	9290.1
647.521	9173.36
647.714	9503.09
647.907	9353.59
648.099	9079.16
648.292	9183.6
648.485	9214.32
648.678	8900.98
648.871	9113.97
649.064	9062.77
649.256	9218.42
649.449	8987
649.642	8989.05
649.835	8718.71
650.027	8755.58
650.22	8702.33
650.413	8563.07
650.605	8690.04
650.798	8425.86
650.991	8550.78
651.183	8524.16
651.376	8380.8
651.568	8565.12
651.761	8231.3
651.954	8219.01
652.146	8151.43
652.339	8139.14
652.531	8026.5
652.724	8145.28
652.916	8008.07
653.109	8008.07
653.301	7971.21
653.494	8085.89
653.686	7784.84
653.879	7883.14
654.071	7831.94
654.263	7772.55
654.456	7815.56
654.648	8049.03
654.84	7532.94
655.033	7555.47
655.225	7633.29
655.417	7502.22
655.61	7623.05
655.802	7549.32
655.994	7362.96
656.186	7532.94
656.379	7379.34
656.571	7424.4
656.763	7274.9
656.955	7274.9
657.148	7338.38
657.34	7125.4
657.532	7145.87
657.724	7072.15
657.916	7156.11
658.108	7016.85
658.3	6957.46
658.492	6947.22
658.684	6889.88
658.876	6834.58
659.068	6984.09
659.26	6879.64
659.452	6795.67
659.644	6871.45
659.836	6597.02
660.028	6666.65
660.22	6547.87
660.412	6586.78
660.604	6584.73
660.796	6617.5
660.988	6543.77
661.18	6433.18
661.372	6392.22
661.563	6685.08
661.755	6285.73
661.947	6271.39
662.139	6474.14
662.331	6269.34
662.522	6156.71
662.714	6193.57
662.906	6384.03
663.097	6322.59
663.289	6076.84
663.481	6197.67
663.673	6039.97
663.864	5990.82
664.056	6013.35
664.247	6033.83
664.439	5908.9
664.631	6037.92
664.822	5929.38
665.014	5925.29
665.205	5951.91
665.397	5810.6
665.588	5839.27
665.78	5814.7
665.971	5681.58
666.163	5691.82
666.354	5691.82
666.546	5710.25
666.737	5745.06
666.929	5745.06
667.12	5616.04
667.311	5669.29
667.503	5630.38
667.694	5560.75
667.885	5446.06
668.077	5618.09
668.268	5358
668.459	5560.75
668.651	5409.2
668.842	5409.2
669.033	5345.71
669.224	5515.69
669.416	5290.42
669.607	5200.3
669.798	5345.71
669.989	5401.01
670.18	5202.35
670.371	5110.19
670.563	5196.21
670.754	5099.95
670.945	5284.27
671.136	5157.3
671.327	5163.44
671.518	5124.53
671.709	5013.94
671.9	5138.87
672.091	5210.54
672.282	5251.5
672.473	4975.03
672.664	4999.6
672.855	5042.61
673.046	5081.52
673.237	5075.38
673.428	5050.8
673.619	4962.74
673.809	5093.81
674	4893.11
674.191	4882.87
674.382	4770.23
674.573	4966.84
674.764	4913.59
674.954	5007.8
675.145	4884.92
675.336	4942.26
675.527	4864.44
675.717	5015.99
675.908	4770.23
676.099	4809.14
676.289	4946.36
676.48	4889.01
676.671	4805.05
676.861	4960.69
677.052	4839.86
677.243	4678.07
677.433	4831.67
677.624	4825.53
677.814	4780.47
678.005	4780.47
678.195	4762.04
678.386	4688.31
678.576	4686.26
678.767	4680.12
678.957	4692.41
679.148	4839.86
679.338	4716.98
679.529	4817.33
679.719	4721.08
679.909	4661.69
680.1	4680.12
680.29	4624.83
680.481	4551.1
680.671	4649.4
680.861	4633.02
681.052	4735.42
681.242	4714.94
681.432	4639.16
681.622	4616.63
681.813	4587.96
682.003	4508.09
682.193	4547
682.383	4639.16
682.573	4444.6
682.764	4696.5
682.954	4719.03
683.144	4663.74
683.334	4635.07
683.524	4508.09
683.714	4712.89
683.904	4538.81
684.094	4624.83
684.284	4493.76
684.474	4637.11
684.664	4442.56
684.854	4596.15
685.044	4567.48
685.234	4487.61
685.424	4524.47
685.614	4590.01
685.804	4379.07
685.994	4458.94
686.184	4475.32
686.374	4317.63
686.564	4491.71
686.753	4364.73
686.943	4356.54
687.133	4415.93
687.323	4411.84
687.513	4467.13
687.702	4317.63
687.892	4276.67
688.082	4424.12
688.272	4317.63
688.461	4391.36
688.651	4288.96
688.841	4139.46
689.03	4260.29
689.22	4192.7
689.41	4227.52
689.599	4311.49
689.789	4221.38
689.979	4088.26
690.168	4192.7
690.358	4037.06
690.547	4112.83
690.737	4086.21
690.926	4151.74
691.116	4028.87
691.305	4104.64
691.495	3924.42
691.684	4065.73
691.874	4041.15
692.063	3979.72
692.252	4198.85
692.442	3977.67
692.631	3879.36
692.82	4004.29
693.01	3922.37
693.199	3946.95
693.388	3881.41
693.578	3940.8
693.767	3922.37
693.956	4032.96
694.146	3772.87
694.335	3942.85
694.524	3811.78
694.713	3824.07
694.902	3819.97
695.092	3750.34
695.281	3793.35
695.47	3721.67
695.659	3754.44
695.848	3621.32
696.037	3703.24
696.226	3815.88
696.415	3713.48
696.604	3805.64
696.793	3686.86
696.982	3746.25
697.171	3703.24
697.36	3756.49
697.549	3811.78
697.738	3754.44
697.927	3717.58
698.116	3703.24
698.305	3699.14
698.494	3649.99
698.683	3750.34
698.872	3785.16
699.061	3584.46
699.25	3736.01
699.438	3695.05
699.627	3756.49
699.816	3678.66
700.005	3656.14
700.193	3729.86
700.382	3656.14
700.571	3627.46
700.76	3633.61
700.948	3719.62
701.137	3637.7
701.326	3711.43
701.514	3586.51
701.703	3678.66
701.892	3582.41
702.08	3719.62
702.269	3639.75
702.457	3621.32
702.646	3713.48
702.834	3549.64
703.023	3588.55
703.212	3731.91
703.4	3658.18
703.589	3561.93
703.777	3682.76
703.965	3733.96
704.154	3598.79
704.342	3670.47
704.531	3762.63
704.719	3504.59
704.907	3742.15
705.096	3619.27
705.284	3688.9
705.472	3637.7
705.661	3623.37
705.849	3561.93
706.037	3813.83
706.226	3672.52
706.414	3672.52
706.602	3793.35
706.79	3566.03
706.979	3547.59
707.167	3625.42
707.355	3746.25
707.543	3574.22
707.731	3711.43
707.919	3623.37
708.107	3600.84
708.296	3617.22
708.484	3580.36
708.672	3684.81
708.86	3590.6
709.048	3736.01
709.236	3627.46
709.424	3799.49
709.612	3709.38
709.8	3705.29
709.988	3574.22
710.176	3715.53
710.364	3635.66
710.551	3809.73
710.739	3649.99
710.927	3611.08
711.115	3633.61
711.303	3742.15
711.491	3746.25
711.679	3690.95
711.866	3744.2
712.054	3768.77
712.242	3715.53
712.43	3578.31
712.617	3680.71
712.805	3815.88
712.993	3682.76
713.181	3606.98
713.368	3672.52
713.556	3652.04
713.744	3471.82
713.931	3717.58
714.119	3693
714.306	3594.7
714.494	3670.47
714.682	3770.82
714.869	3668.42
715.057	3713.48
715.244	3566.03
715.432	3713.48
715.619	3584.46
715.807	3559.88
715.994	3553.74
716.182	3738.05
716.369	3668.42
716.556	3824.07
716.744	3676.62
716.931	3752.39
717.119	3828.17
717.306	3819.97
717.493	3672.52
717.681	3744.2
717.868	3695.05
718.055	3617.22
718.242	3664.33
718.43	3672.52
718.617	3561.93
718.804	3498.44
718.991	3701.19
719.179	3803.59
719.366	3645.9
719.553	3852.74
719.74	3733.96
719.927	3795.4
720.114	3670.47
720.301	3561.93
720.488	3639.75
720.676	3690.95
720.863	3684.81
721.05	3590.6
721.237	3746.25
721.424	3641.8
721.611	3709.38
721.798	3725.77
721.985	3547.59
722.172	3688.9
722.358	3674.57
722.545	3656.14
722.732	3639.75
722.919	3840.45
723.106	3598.79
723.293	3602.89
723.48	3799.49
723.667	3551.69
723.853	3713.48
724.04	3590.6
724.227	3520.97
724.414	3643.85
724.6	3500.49
724.787	3688.9
724.974	3557.83
725.161	3541.45
725.347	3434.96
725.534	3598.79
725.72	3500.49
725.907	3596.75
726.094	3572.17
726.28	3523.02
726.467	3439.05
726.653	3443.15
726.84	3637.7
727.027	3615.18
727.213	3635.66
727.4	3568.07
727.586	3596.75
727.773	3574.22
727.959	3508.68
728.145	3619.27
728.332	3543.5
728.518	3594.7
728.705	3523.02
728.891	3682.76
729.077	3578.31
729.264	3578.31
729.45	3600.84
729.636	3627.46
729.823	3547.59
730.009	3512.78
730.195	3512.78
730.382	3588.55
730.568	3322.32
730.754	3645.9
730.94	3467.72
731.126	3506.63
731.313	3602.89
731.499	3523.02
731.685	3514.83
731.871	3557.83
732.057	3490.25
732.243	3506.63
732.429	3387.85
732.615	3600.84
732.801	3602.89
732.987	3471.82
733.173	3484.11
733.359	3559.88
733.545	3461.58
733.731	3520.97
733.917	3502.54
734.103	3424.72
734.289	3533.26
734.475	3465.68
734.661	3404.24
734.847	3394
735.033	3500.49
735.219	3391.95
735.404	3457.48
735.59	3373.52
735.776	3326.41
735.962	3412.43
736.148	3475.91
736.333	3387.85
736.519	3451.34
736.705	3465.68
736.89	3262.93
737.076	3344.84
737.262	3307.98
737.447	3371.47
737.633	3291.6
737.819	3355.08
738.004	3389.9
738.19	3322.32
738.375	3310.03
738.561	3207.63
738.747	3181.01
738.932	3262.93
739.118	3342.8
739.303	3219.92
739.489	3205.58
739.674	3172.82
739.859	3088.85
740.045	3221.97
740.23	3275.21
740.416	3242.45
740.601	3162.58
740.786	3215.82
740.972	3246.54
741.157	3262.93
741.342	2953.68
741.528	3082.7
741.713	3148.24
741.898	3197.39
742.084	3068.37
742.269	3226.06
742.454	3150.29
742.639	3066.32
742.824	3017.17
743.01	3058.13
743.195	3037.65
743.38	2974.16
743.565	2982.35
743.75	2984.4
743.935	2947.54
744.12	3070.42
744.305	2927.06
744.49	2933.2
744.675	2841.04
744.86	2826.71
745.045	2814.42
745.23	2861.52
745.415	2927.06
745.6	2904.53
745.785	2869.72
745.97	2775.51
746.155	2996.69
746.34	2720.21
746.525	2695.64
746.71	2863.57
746.895	2775.51
747.079	2664.92
747.264	2677.21
747.449	2720.21
747.634	2722.26
747.819	2669.02
748.003	2578.9
748.188	2570.71
748.373	2468.31
748.557	2591.19
748.742	2509.27
748.927	2570.71
749.111	2556.38
749.296	2435.55
749.481	2527.71
749.665	2525.66
749.85	2451.93
750.034	2476.51
750.219	2445.79
750.404	2443.74
750.588	2449.88
750.773	2226.65
750.957	2300.38
751.141	2218.46
751.326	2357.72
751.51	2331.1
751.695	2413.02
751.879	2245.09
752.064	2269.66
752.248	2154.98
752.432	2259.42
752.617	2222.56
752.801	2208.22
752.985	2308.57
753.17	2116.06
753.354	2085.34
753.538	2185.69
753.722	2023.91
753.907	2132.45
754.091	2054.62
754.275	2087.39
754.459	2165.21
754.643	1999.33
754.828	2085.34
755.012	1939.94
755.196	1925.6
755.38	1890.79
755.564	1984.99
755.748	1960.42
755.932	1952.23
756.116	1845.73
756.3	1915.36
756.484	1909.22
756.668	1905.12
756.852	1894.88
757.036	1866.21
757.22	1841.64
757.404	1860.07
757.588	1759.72
757.772	1769.96
757.956	1747.43
758.14	1868.26
758.323	1735.14
758.507	1839.59
758.691	1505.77
758.875	1776.1
759.059	1755.62
759.242	1724.9
759.426	1698.28
759.61	1649.13
759.794	1741.29
759.977	1645.03
760.161	1714.66
760.345	1556.97
760.528	1634.79
760.712	1632.74
760.895	1569.26
761.079	1739.24
761.263	1591.78
761.446	1583.59
761.63	1626.6
761.813	1583.59
761.997	1626.6
762.18	1413.61
762.364	1581.54
762.547	1436.14
762.731	1397.23
762.914	1542.63
763.098	1417.71
763.281	1434.09
763.464	1516.01
763.648	1540.58
763.831	1403.37
764.015	1440.23
764.198	1495.53
764.381	1411.56
764.564	1419.75
764.748	1411.56
764.931	1403.37
765.114	1403.37
765.297	1352.17
765.481	1395.18
765.664	1432.04
765.847	1427.95
766.03	1571.3
766.213	1311.21
766.397	1362.41
766.58	1325.55
766.763	1415.66
766.946	1260.01
767.129	1452.52
767.312	1321.45
767.495	1260.01
767.678	1382.89
767.861	1315.31
768.044	1356.27
768.227	1280.49
768.41	1243.63
768.593	1368.56
768.776	1231.34
768.959	1300.97
769.142	1294.83
769.324	1270.25
769.507	1174
769.69	1202.67
769.873	1155.57
770.056	1260.01
770.239	1247.72
770.421	1217.01
770.604	1235.44
770.787	1161.71
770.97	1219.05
771.152	1128.94
771.335	1231.34
771.518	1161.71
771.7	1335.79
771.883	1087.98
772.066	1116.65
772.248	1163.76
772.431	1063.41
772.613	1100.27
772.796	1176.05
772.978	1178.09
773.161	1141.23
773.343	1145.33
773.526	1081.84
773.708	1047.02
773.891	1030.64
774.073	1106.42
774.256	1092.08
774.438	1100.27
774.621	1024.5
774.803	1071.6
774.985	1057.26
775.168	1087.98
775.35	975.35
775.532	1026.54
775.715	989.68
775.897	1047.02
776.079	1022.45
776.261	1008.11
776.444	1087.98
776.626	985.58
776.808	887.28
776.99	889.33
777.173	981.49
777.355	891.38
777.537	903.67
777.719	938.48
777.901	870.9
778.083	874.99
778.265	874.99
778.447	1014.26
778.629	852.47
778.811	776.69
778.993	981.49
779.175	883.19
779.357	844.28
779.539	745.97
779.721	901.62
779.903	776.69
780.085	838.13
780.267	797.17
780.449	774.64
780.631	811.51
780.812	788.98
780.994	780.79
781.176	846.32
781.358	770.55
781.54	778.74
781.721	795.12
781.903	793.08
782.085	770.55
782.267	741.88
782.448	733.68
782.63	672.25
782.812	678.39
782.993	723.44
783.175	768.5
783.357	657.91
783.538	758.26
783.72	754.16
783.901	758.26
784.083	651.77
784.264	686.58
784.446	629.24
784.627	623.09
784.809	682.49
784.99	690.68
785.172	633.33
785.353	666.1
785.535	653.81
785.716	619
785.897	621.05
786.079	653.81
786.26	619
786.441	563.7
786.623	596.47
786.804	573.94
786.985	651.77
787.167	557.56
787.348	584.18
787.529	590.33
787.71	614.9
787.891	561.66
788.073	578.04
788.254	571.9
788.435	608.76
788.616	594.42
788.797	614.9
788.978	571.9
789.159	530.94
789.34	514.55
789.522	541.18
789.703	555.51
789.884	549.37
790.065	520.7
790.246	649.72
790.427	547.32
790.607	586.23
790.788	602.61
790.969	510.46
791.15	485.88
791.331	492.02
791.512	510.46
791.693	403.96
791.874	436.73
792.054	496.12
792.235	506.36
792.416	432.63
792.597	467.45
792.778	418.3
792.958	555.51
793.139	557.56
793.32	473.59
793.5	455.16
793.681	479.74
793.862	461.3
794.042	455.16
794.223	506.36
794.404	416.25
794.584	434.68
794.765	424.44
794.945	508.41
795.126	455.16
795.306	440.83
795.487	442.87
795.667	485.88
795.848	420.35
796.028	461.3
796.209	481.78
796.389	403.96
796.57	432.63
796.75	377.34
796.93	373.24
797.111	379.39
797.291	446.97
797.471	395.77
797.652	379.39
797.832	383.48
798.012	422.39
798.192	383.48
798.373	289.28
798.553	393.72
798.733	430.59
798.913	379.39
799.093	336.38
799.274	320
799.454	363
799.634	360.95
799.814	422.39
799.994	412.15
800.174	391.67
800.354	320
800.534	246.27
800.714	449.02
800.894	360.95
801.074	264.7
801.254	328.19
801.434	391.67
801.614	270.84
801.794	305.66
801.974	821.75
802.154	360.95
802.334	369.15
802.514	309.76
802.693	276.99
802.873	258.56
803.053	418.3
803.233	291.32
803.413	342.52
803.592	291.32
803.772	262.65
803.952	406.01
804.131	311.8
804.311	309.76
804.491	283.13
804.67	236.03
804.85	369.15
805.03	334.33
805.209	203.26
805.389	283.13
805.568	297.47
805.748	346.62
805.928	371.19
806.107	268.8
806.287	348.67
806.466	283.13
806.646	283.13
806.825	293.37
807.004	338.43
807.184	305.66
807.363	303.61
807.543	285.18
807.722	289.28
807.901	293.37
808.081	266.75
808.26	295.42
808.439	143.87
808.619	301.56
808.798	264.7
808.977	266.75
809.156	356.86
809.336	311.8
809.515	322.04
809.694	313.85
809.873	324.09
810.052	287.23
810.231	338.43
810.411	246.27
810.59	297.47
810.769	272.89
810.948	272.89
811.127	209.4
811.306	281.08
811.485	258.56
811.664	330.23
811.843	279.04
812.022	254.46
812.201	246.27
812.38	264.7
812.559	186.88
812.737	207.36
812.916	270.84
813.095	250.36
813.274	287.23
813.453	246.27
813.632	305.66
813.811	211.45
813.989	176.64
814.168	270.84
814.347	297.47
814.526	221.69
814.704	248.32
814.883	195.07
815.062	158.21
815.24	215.55
815.419	205.31
815.598	254.46
815.776	176.64
815.955	207.36
816.133	207.36
816.312	195.07
816.49	225.79
816.669	242.17
816.847	172.54
817.026	231.93
817.204	199.16
817.383	145.92
817.561	119.29
817.74	240.12
817.918	143.87
818.097	188.93
818.275	150.01
818.453	186.88
818.632	238.08
818.81	156.16
818.988	184.83
819.167	178.69
819.345	158.21
819.523	166.4
819.701	223.74
819.879	160.25
820.058	145.92
820.236	139.77
820.414	223.74
820.592	156.16
820.77	195.07
820.948	188.93
821.127	137.73
821.305	141.82
821.483	80.38
821.661	182.78
821.839	174.59
822.017	182.78
822.195	154.11
822.373	250.36
822.551	150.01
822.729	164.35
822.907	182.78
823.085	184.83
823.262	178.69
823.44	94.72
823.618	150.01
823.796	172.54
823.974	209.4
824.152	199.16
824.329	150.01
824.507	219.64
824.685	174.59
824.863	162.3
825.04	111.1
825.218	139.77
825.396	137.73
825.574	221.69
825.751	190.97
825.929	184.83
826.107	174.59
826.284	133.63
826.462	264.7
826.639	111.1
826.817	100.86
826.994	160.25
827.172	152.06
827.349	227.84
827.527	166.4
827.704	141.82
827.882	150.01
828.059	162.3
828.237	180.73
828.414	207.36
828.591	113.15
828.769	166.4
828.946	111.1
829.124	139.77
829.301	137.73
829.478	156.16
829.655	131.58
829.833	135.68
830.01	137.73
830.187	115.2
830.364	82.43
830.542	168.45
830.719	166.4
830.896	199.16
831.073	184.83
831.25	133.63
831.427	53.76
831.604	139.77
831.782	90.62
831.959	55.81
832.136	158.21
832.313	80.38
832.49	127.49
832.667	190.97
832.844	82.43
833.021	162.3
833.198	20.99
833.374	127.49
833.551	150.01
833.728	102.91
833.905	170.49
834.082	162.3
834.259	107.01
834.436	174.59
834.612	170.49
834.789	117.25
834.966	139.77
835.143	145.92
835.319	59.9
835.496	90.62
835.673	104.96
835.85	80.38
836.026	172.54
836.203	147.97
836.38	88.57
836.556	117.25
836.733	127.49
836.909	180.73
837.086	49.66
837.262	88.57
837.439	39.42
837.616	84.48
837.792	129.53
837.968	119.29
838.145	27.14
838.321	82.43
838.498	184.83
838.674	190.97
838.851	72.19
839.027	137.73
839.203	57.86
839.38	72.19
839.556	51.71
839.732	168.45
839.909	107.01
840.085	129.53
840.261	117.25
840.437	154.11
840.614	104.96
840.79	127.49
840.966	123.39
841.142	117.25
841.318	162.3
841.494	109.05
841.671	176.64
841.847	53.76
842.023	45.57
842.199	129.53
842.375	74.24
842.551	-19.97
842.727	100.86
842.903	156.16
843.079	92.67
843.255	195.07
843.431	109.05
843.607	29.18
843.783	66.05
843.959	80.38
844.134	135.68
844.31	178.69
844.486	51.71
844.662	119.29
844.838	76.29
845.013	51.71
845.189	117.25
845.365	84.48
845.541	125.44
845.716	37.38
845.892	59.9
846.068	113.15
846.244	25.09
846.419	84.48
846.595	59.9
846.77	64
846.946	152.06
847.122	33.28
847.297	51.71
847.473	94.72
847.648	25.09
847.824	92.67
847.999	0.51
848.175	96.77
848.35	47.62
848.526	51.71
848.701	72.19
848.876	113.15
849.052	154.11
849.227	84.48
849.403	131.58
849.578	64
849.753	90.62
849.929	139.77
850.104	59.9
850.279	47.62
850.454	57.86
850.63	205.31
850.805	78.33
850.98	51.71
851.155	57.86
851.33	33.28
851.505	29.18
851.681	61.95
851.856	131.58
852.031	98.81
852.206	100.86
852.381	37.38
852.556	33.28
852.731	129.53
852.906	55.81
853.081	111.1
853.256	127.49
853.431	90.62
853.606	43.52
853.781	35.33
853.956	113.15
854.131	20.99
854.305	80.38
854.48	25.09
854.655	25.09
854.83	127.49
855.005	139.77
855.18	-19.97
855.354	-36.35
855.529	141.82
855.704	0.51
855.879	84.48
856.053	84.48
856.228	37.38
856.403	82.43
856.577	18.94
856.752	6.66
856.926	35.33
857.101	51.71
857.276	-42.5
857.45	92.67
857.625	96.77
857.799	86.53
857.974	113.15
858.148	88.57
858.323	96.77
858.497	76.29
858.672	-22.02
858.846	86.53
859.02	84.48
859.195	64
859.369	64
859.543	35.33
859.718	-5.63
859.892	51.71
860.066	78.33
860.241	-22.02
860.415	-1.54
860.589	41.47
860.763	-11.78
860.938	43.52
861.112	76.29
861.286	109.05
861.46	74.24
861.634	55.81
861.808	37.38
861.982	16.9
862.157	20.99
862.331	66.05
862.505	33.28
862.679	8.7
862.853	23.04
863.027	104.96
863.201	-7.68
863.375	94.72
863.549	68.09
863.722	45.57
863.896	96.77
864.07	-17.92
864.244	92.67
864.418	55.81
864.592	68.09
864.766	88.57
864.939	74.24
865.113	70.14
865.287	96.77
865.461	27.14
865.634	76.29
865.808	-11.78
865.982	78.33
866.156	43.52
866.329	57.86
866.503	45.57
866.676	47.62
866.85	115.2
867.024	8.7
867.197	68.09
867.371	49.66
867.544	43.52
867.718	16.9
867.891	84.48
868.065	29.18
868.238	20.99
868.412	39.42
868.585	152.06
868.759	57.86
868.932	-1.54
869.105	16.9
869.279	35.33
869.452	51.71
869.625	31.23
869.799	94.72
869.972	8.7
870.145	53.76
870.319	39.42
870.492	45.57
870.665	133.63
870.838	33.28
871.011	16.9
871.185	41.47
871.358	6.66
871.531	94.72
871.704	55.81
871.877	68.09
872.05	8.7
872.223	27.14
872.396	16.9
872.569	64
872.742	109.05
872.915	78.33
873.088	-9.73
873.261	35.33
873.434	100.86
873.607	10.75
873.78	45.57
873.953	27.14
874.126	31.23
874.299	70.14
874.471	35.33
874.644	4.61
874.817	43.52
874.99	39.42
875.163	86.53
875.335	68.09
875.508	57.86
875.681	35.33
875.853	92.67
876.026	49.66
876.199	-3.58
876.371	57.86
876.544	27.14
876.717	80.38
876.889	55.81
877.062	61.95
877.234	23.04
877.407	-3.58
877.579	0.51
877.752	109.05
877.924	59.9
878.097	33.28
878.269	25.09
878.442	41.47
878.614	0.51
878.786	129.53
878.959	4.61
879.131	43.52
879.303	-13.82
879.476	92.67
879.648	-13.82
879.82	29.18
879.993	-93.69
880.165	14.85
880.337	25.09
880.509	29.18
880.681	31.23
880.854	27.14
881.026	41.47
881.198	143.87
881.37	53.76
881.542	41.47
881.714	12.8
881.886	10.75
882.058	-46.59
882.23	-9.73
882.402	23.04
882.574	43.52
882.746	41.47
882.918	88.57
883.09	33.28
883.262	84.48
883.434	39.42
883.606	55.81
883.778	-1.54
883.95	51.71
884.122	41.47
884.293	72.19
884.465	14.85
884.637	41.47
884.809	14.85
884.98	51.71
885.152	-5.63
885.324	53.76
885.496	-26.11
885.667	129.53
885.839	43.52
886.011	39.42
886.182	20.99
886.354	43.52
886.525	18.94
886.697	-11.78
886.869	-3.58
887.04	64
887.212	51.71
887.383	25.09
887.555	98.81
887.726	-22.02
887.897	41.47
888.069	10.75
888.24	-5.63
888.412	33.28
888.583	-5.63
888.754	27.14
888.926	14.85
889.097	49.66
889.268	-13.82
889.44	-5.63
889.611	2.56
889.782	27.14
889.953	57.86
890.125	31.23
890.296	-22.02
890.467	27.14
890.638	51.71
890.809	94.72
890.98	-17.92
891.151	61.95
891.323	-13.82
891.494	51.71
891.665	-22.02
891.836	39.42
892.007	23.04
892.178	4.61
892.349	119.29
892.52	-13.82
892.691	23.04
892.862	-1.54
893.032	41.47
893.203	31.23
893.374	47.62
893.545	53.76
893.716	12.8
893.887	76.29
894.057	12.8
894.228	-46.59
894.399	49.66
894.57	76.29
894.74	37.38
894.911	59.9
895.082	53.76
895.253	74.24
895.423	2.56
895.594	33.28
895.764	39.42
895.935	55.81
896.106	57.86
896.276	76.29
896.447	31.23
896.617	82.43
896.788	-3.58
896.958	92.67
897.129	27.14
897.299	27.14
897.47	94.72
897.64	33.28
897.81	-67.07
897.981	119.29
898.151	-13.82
898.322	45.57
898.492	18.94
898.662	-7.68
898.832	2.56
899.003	2.56
899.173	-17.92
899.343	4.61
899.513	27.14
