Data from USB4F104151__244__10-30-56-907.txt Node

Date: Wed Mar 12 10:30:56 EDT 2025
User: louis
Spectrometer: USB4F10415
Trigger mode: 4
Integration Time (sec): 3.000000E-2
Scans to average: 1
Electric dark correction enabled: true
Nonlinearity correction enabled: false
Boxcar width: 0
XAxis mode: Wavelengths
Number of Pixels in Spectrum: 3648
>>>>>Begin Spectral Data<<<<<
178.204	-123.73
178.424	-123.73
178.644	-123.73
178.864	-125.78
179.084	-133.97
179.304	-56.15
179.524	70.83
179.744	-58.2
179.964	25.77
180.184	29.87
180.404	-43.86
180.624	-4.95
180.844	15.53
181.064	40.11
181.283	3.24
181.503	-31.57
181.723	9.39
181.943	-93.01
182.163	117.93
182.383	58.54
182.602	85.16
182.822	23.72
183.042	74.92
183.262	29.87
183.482	38.06
183.701	56.49
183.921	33.96
184.141	54.44
184.361	87.21
184.58	54.44
184.8	19.63
185.02	15.53
185.239	119.98
185.459	38.06
185.679	66.73
185.898	9.39
186.118	79.02
186.338	5.29
186.557	17.58
186.777	-9.05
186.997	52.39
187.216	33.96
187.436	85.16
187.655	54.44
187.875	54.44
188.095	29.87
188.314	70.83
188.534	79.02
188.753	48.3
188.973	48.3
189.192	107.69
189.412	72.87
189.631	119.98
189.851	3.24
190.07	13.48
190.29	40.11
190.509	31.91
190.729	-45.91
190.948	42.15
191.168	160.94
191.387	1.19
191.607	62.63
191.826	-29.52
192.045	52.39
192.265	66.73
192.484	-15.19
192.704	-2.9
192.923	52.39
193.142	148.65
193.362	46.25
193.581	138.41
193.8	72.87
194.02	58.54
194.239	44.2
194.458	13.48
194.678	54.44
194.897	87.21
195.116	74.92
195.335	95.4
195.555	9.39
195.774	19.63
195.993	70.83
196.212	62.63
196.432	54.44
196.651	21.67
196.87	87.21
197.089	99.5
197.308	38.06
197.528	68.78
197.747	21.67
197.966	44.2
198.185	81.07
198.404	50.35
198.623	62.63
198.842	44.2
199.062	91.31
199.281	136.36
199.5	7.34
199.719	38.06
199.938	83.11
200.157	76.97
200.376	70.83
200.595	19.63
200.814	-11.09
201.033	5.29
201.252	60.59
201.471	42.15
201.69	87.21
201.909	70.83
202.128	54.44
202.347	17.58
202.566	38.06
202.785	19.63
203.004	-31.57
203.223	60.59
203.442	56.49
203.661	38.06
203.879	85.16
204.098	74.92
204.317	54.44
204.536	31.91
204.755	62.63
204.974	3.24
205.193	128.17
205.411	126.12
205.63	5.29
205.849	15.53
206.068	-0.85
206.287	-27.48
206.505	9.39
206.724	60.59
206.943	-56.15
207.162	68.78
207.381	3.24
207.599	27.82
207.818	38.06
208.037	70.83
208.255	-4.95
208.474	83.11
208.693	64.68
208.911	79.02
209.13	38.06
209.349	128.17
209.567	113.83
209.786	89.26
210.005	46.25
210.223	70.83
210.442	44.2
210.661	46.25
210.879	36.01
211.098	152.74
211.316	58.54
211.535	89.26
211.753	-15.19
211.972	21.67
212.191	103.59
212.409	54.44
212.628	42.15
212.846	25.77
213.065	-4.95
213.283	79.02
213.502	68.78
213.72	52.39
213.938	-19.29
214.157	29.87
214.375	-0.85
214.594	99.5
214.812	-4.95
215.031	101.55
215.249	-13.14
215.467	-17.24
215.686	25.77
215.904	124.07
216.122	3.24
216.341	85.16
216.559	56.49
216.778	62.63
216.996	76.97
217.214	36.01
217.432	21.67
217.651	83.11
217.869	17.58
218.087	68.78
218.306	72.87
218.524	23.72
218.742	29.87
218.96	99.5
219.179	-17.24
219.397	-11.09
219.615	52.39
219.833	83.11
220.051	-54.1
220.27	70.83
220.488	52.39
220.706	101.55
220.924	31.91
221.142	62.63
221.36	46.25
221.578	7.34
221.796	105.64
222.015	105.64
222.233	50.35
222.451	70.83
222.669	23.72
222.887	-4.95
223.105	38.06
223.323	38.06
223.541	54.44
223.759	119.98
223.977	93.35
224.195	105.64
224.413	50.35
224.631	60.59
224.849	40.11
225.067	97.45
225.285	-11.09
225.503	56.49
225.721	44.2
225.939	68.78
226.157	74.92
226.375	111.78
226.592	-19.29
226.81	31.91
227.028	38.06
227.246	79.02
227.464	-4.95
227.682	64.68
227.9	68.78
228.117	38.06
228.335	62.63
228.553	97.45
228.771	36.01
228.989	79.02
229.206	107.69
229.424	72.87
229.642	40.11
229.86	3.24
230.077	40.11
230.295	17.58
230.513	64.68
230.731	87.21
230.948	144.55
231.166	93.35
231.384	7.34
231.601	33.96
231.819	76.97
232.037	-19.29
232.254	68.78
232.472	-23.38
232.689	-0.85
232.907	119.98
233.125	5.29
233.342	-11.09
233.56	74.92
233.777	56.49
233.995	9.39
234.213	89.26
234.43	74.92
234.648	124.07
234.865	33.96
235.083	99.5
235.3	44.2
235.518	31.91
235.735	119.98
235.953	-2.9
236.17	27.82
236.388	31.91
236.605	58.54
236.822	31.91
237.04	46.25
237.257	50.35
237.475	27.82
237.692	70.83
237.909	23.72
238.127	7.34
238.344	76.97
238.562	3.24
238.779	46.25
238.996	66.73
239.214	105.64
239.431	95.4
239.648	9.39
239.865	52.39
240.083	19.63
240.3	38.06
240.517	19.63
240.735	56.49
240.952	74.92
241.169	91.31
241.386	124.07
241.603	60.59
241.821	27.82
242.038	-11.09
242.255	76.97
242.472	25.77
242.689	56.49
242.907	52.39
243.124	128.17
243.341	64.68
243.558	60.59
243.775	64.68
243.992	-2.9
244.209	97.45
244.426	62.63
244.643	79.02
244.86	81.07
245.078	74.92
245.295	46.25
245.512	117.93
245.729	93.35
245.946	119.98
246.163	62.63
246.38	64.68
246.597	-7
246.814	83.11
247.031	29.87
247.248	62.63
247.464	33.96
247.681	27.82
247.898	11.43
248.115	17.58
248.332	-13.14
248.549	52.39
248.766	42.15
248.983	52.39
249.2	56.49
249.417	33.96
249.633	113.83
249.85	15.53
250.067	33.96
250.284	44.2
250.501	97.45
250.717	7.34
250.934	76.97
251.151	46.25
251.368	74.92
251.585	99.5
251.801	54.44
252.018	46.25
252.235	113.83
252.451	13.48
252.668	81.07
252.885	11.43
253.102	46.25
253.318	58.54
253.535	40.11
253.752	89.26
253.968	79.02
254.185	-15.19
254.401	29.87
254.618	93.35
254.835	130.22
255.051	111.78
255.268	89.26
255.484	107.69
255.701	5.29
255.917	38.06
256.134	50.35
256.351	21.67
256.567	52.39
256.784	40.11
257	5.29
257.217	40.11
257.433	5.29
257.65	33.96
257.866	109.74
258.082	38.06
258.299	-19.29
258.515	60.59
258.732	3.24
258.948	70.83
259.165	19.63
259.381	66.73
259.597	87.21
259.814	50.35
260.03	21.67
260.246	87.21
260.463	56.49
260.679	33.96
260.895	109.74
261.112	72.87
261.328	-45.91
261.544	52.39
261.761	152.74
261.977	42.15
262.193	7.34
262.409	72.87
262.626	-11.09
262.842	58.54
263.058	11.43
263.274	17.58
263.49	23.72
263.707	3.24
263.923	81.07
264.139	13.48
264.355	60.59
264.571	91.31
264.787	60.59
265.004	109.74
265.22	56.49
265.436	36.01
265.652	66.73
265.868	87.21
266.084	79.02
266.3	66.73
266.516	25.77
266.732	87.21
266.948	5.29
267.164	72.87
267.38	72.87
267.596	91.31
267.812	76.97
268.028	31.91
268.244	58.54
268.46	46.25
268.676	25.77
268.892	107.69
269.108	46.25
269.324	50.35
269.54	-9.05
269.756	74.92
269.972	40.11
270.188	36.01
270.403	38.06
270.619	-7
270.835	93.35
271.051	38.06
271.267	9.39
271.483	42.15
271.698	29.87
271.914	44.2
272.13	68.78
272.346	29.87
272.562	89.26
272.777	81.07
272.993	31.91
273.209	29.87
273.425	48.3
273.64	38.06
273.856	58.54
274.072	97.45
274.287	25.77
274.503	13.48
274.719	25.77
274.934	113.83
275.15	68.78
275.366	58.54
275.581	-19.29
275.797	17.58
276.012	25.77
276.228	33.96
276.444	33.96
276.659	48.3
276.875	27.82
277.09	23.72
277.306	52.39
277.521	156.84
277.737	17.58
277.952	46.25
278.168	-7
278.383	89.26
278.599	38.06
278.814	93.35
279.03	79.02
279.245	105.64
279.461	-25.43
279.676	74.92
279.892	-52.05
280.107	74.92
280.322	60.59
280.538	101.55
280.753	56.49
280.969	33.96
281.184	64.68
281.399	60.59
281.615	36.01
281.83	13.48
282.045	46.25
282.26	13.48
282.476	42.15
282.691	68.78
282.906	29.87
283.122	25.77
283.337	-17.24
283.552	68.78
283.767	-2.9
283.983	115.88
284.198	91.31
284.413	109.74
284.628	46.25
284.843	95.4
285.058	-7
285.274	60.59
285.489	40.11
285.704	99.5
285.919	-47.96
286.134	107.69
286.349	25.77
286.564	70.83
286.779	79.02
286.995	85.16
287.21	-0.85
287.425	150.7
287.64	17.58
287.855	33.96
288.07	50.35
288.285	119.98
288.5	76.97
288.715	117.93
288.93	119.98
289.145	5.29
289.36	58.54
289.575	29.87
289.79	60.59
290.004	50.35
290.219	44.2
290.434	91.31
290.649	46.25
290.864	79.02
291.079	11.43
291.294	89.26
291.509	76.97
291.724	-2.9
291.938	23.72
292.153	76.97
292.368	-29.52
292.583	68.78
292.798	31.91
293.012	27.82
293.227	87.21
293.442	146.6
293.657	119.98
293.871	-11.09
294.086	95.4
294.301	130.22
294.516	130.22
294.73	115.88
294.945	93.35
295.16	91.31
295.374	68.78
295.589	72.87
295.804	60.59
296.018	-17.24
296.233	124.07
296.447	42.15
296.662	21.67
296.877	76.97
297.091	76.97
297.306	62.63
297.52	66.73
297.735	115.88
297.949	46.25
298.164	64.68
298.378	119.98
298.593	-29.52
298.807	38.06
299.022	21.67
299.236	148.65
299.451	-15.19
299.665	64.68
299.88	17.58
300.094	50.35
300.309	-19.29
300.523	62.63
300.737	150.7
300.952	-23.38
301.166	105.64
301.381	-52.05
301.595	101.55
301.809	13.48
302.024	17.58
302.238	44.2
302.452	136.36
302.667	52.39
302.881	136.36
303.095	9.39
303.309	79.02
303.524	9.39
303.738	66.73
303.952	19.63
304.166	70.83
304.381	68.78
304.595	62.63
304.809	9.39
305.023	5.29
305.237	7.34
305.452	66.73
305.666	15.53
305.88	68.78
306.094	113.83
306.308	119.98
306.522	115.88
306.736	72.87
306.95	111.78
307.164	38.06
307.379	42.15
307.593	83.11
307.807	79.02
308.021	66.73
308.235	-0.85
308.449	107.69
308.663	44.2
308.877	162.98
309.091	50.35
309.305	93.35
309.519	38.06
309.733	107.69
309.947	13.48
310.161	93.35
310.374	169.13
310.588	46.25
310.802	3.24
311.016	87.21
311.23	50.35
311.444	40.11
311.658	27.82
311.872	122.02
312.085	33.96
312.299	50.35
312.513	138.41
312.727	60.59
312.941	3.24
313.154	101.55
313.368	-72.53
313.582	99.5
313.796	38.06
314.009	9.39
314.223	128.17
314.437	89.26
314.651	62.63
314.864	23.72
315.078	115.88
315.292	87.21
315.505	17.58
315.719	119.98
315.933	101.55
316.146	58.54
316.36	46.25
316.573	68.78
316.787	68.78
317.001	-11.09
317.214	42.15
317.428	72.87
317.641	60.59
317.855	38.06
318.068	79.02
318.282	52.39
318.495	33.96
318.709	115.88
318.922	76.97
319.136	128.17
319.349	95.4
319.563	85.16
319.776	38.06
319.99	13.48
320.203	103.59
320.417	62.63
320.63	81.07
320.843	56.49
321.057	70.83
321.27	50.35
321.483	50.35
321.697	89.26
321.91	17.58
322.124	115.88
322.337	132.26
322.55	-29.52
322.763	64.68
322.977	60.59
323.19	1.19
323.403	23.72
323.617	15.53
323.83	52.39
324.043	119.98
324.256	27.82
324.469	-60.24
324.683	42.15
324.896	17.58
325.109	19.63
325.322	50.35
325.535	93.35
325.748	66.73
325.962	93.35
326.175	97.45
326.388	107.69
326.601	46.25
326.814	62.63
327.027	66.73
327.24	62.63
327.453	54.44
327.666	113.83
327.879	95.4
328.092	74.92
328.305	101.55
328.518	54.44
328.731	66.73
328.944	15.53
329.157	17.58
329.37	-2.9
329.583	83.11
329.796	103.59
330.009	81.07
330.222	62.63
330.435	142.5
330.648	38.06
330.861	91.31
331.073	56.49
331.286	17.58
331.499	54.44
331.712	58.54
331.925	50.35
332.138	99.5
332.35	91.31
332.563	17.58
332.776	111.78
332.989	113.83
333.202	79.02
333.414	70.83
333.627	48.3
333.84	68.78
334.053	21.67
334.265	25.77
334.478	46.25
334.691	70.83
334.903	48.3
335.116	9.39
335.329	115.88
335.541	99.5
335.754	54.44
335.966	62.63
336.179	11.43
336.392	85.16
336.604	95.4
336.817	119.98
337.029	21.67
337.242	17.58
337.454	38.06
337.667	7.34
337.88	152.74
338.092	44.2
338.305	87.21
338.517	27.82
338.729	132.26
338.942	103.59
339.154	60.59
339.367	85.16
339.579	17.58
339.792	87.21
340.004	132.26
340.217	21.67
340.429	50.35
340.641	83.11
340.854	7.34
341.066	60.59
341.278	11.43
341.491	62.63
341.703	58.54
341.915	40.11
342.128	-19.29
342.34	89.26
342.552	79.02
342.764	58.54
342.977	25.77
343.189	23.72
343.401	101.55
343.613	-11.09
343.826	72.87
344.038	44.2
344.25	162.98
344.462	99.5
344.674	40.11
344.886	68.78
345.099	79.02
345.311	124.07
345.523	9.39
345.735	40.11
345.947	56.49
346.159	58.54
346.371	40.11
346.583	93.35
346.795	44.2
347.007	21.67
347.219	126.12
347.431	33.96
347.643	91.31
347.855	-31.57
348.067	89.26
348.279	11.43
348.491	136.36
348.703	156.84
348.915	126.12
349.127	-29.52
349.339	142.5
349.551	54.44
349.763	83.11
349.975	40.11
350.187	91.31
350.399	52.39
350.61	122.02
350.822	74.92
351.034	79.02
351.246	140.46
351.458	122.02
351.669	56.49
351.881	66.73
352.093	89.26
352.305	181.42
352.517	31.91
352.728	111.78
352.94	11.43
353.152	117.93
353.363	46.25
353.575	87.21
353.787	74.92
353.999	105.64
354.21	95.4
354.422	103.59
354.633	95.4
354.845	87.21
355.057	50.35
355.268	21.67
355.48	93.35
355.692	89.26
355.903	66.73
356.115	119.98
356.326	54.44
356.538	158.89
356.749	56.49
356.961	87.21
357.172	11.43
357.384	119.98
357.595	113.83
357.807	58.54
358.018	93.35
358.23	64.68
358.441	169.13
358.653	156.84
358.864	79.02
359.075	79.02
359.287	66.73
359.498	158.89
359.709	50.35
359.921	134.31
360.132	-2.9
360.344	25.77
360.555	36.01
360.766	64.68
360.977	107.69
361.189	79.02
361.4	50.35
361.611	132.26
361.823	138.41
362.034	83.11
362.245	83.11
362.456	89.26
362.667	117.93
362.879	95.4
363.09	115.88
363.301	79.02
363.512	107.69
363.723	38.06
363.935	79.02
364.146	124.07
364.357	93.35
364.568	87.21
364.779	50.35
364.99	113.83
365.201	126.12
365.412	58.54
365.623	1.19
365.834	29.87
366.045	68.78
366.256	93.35
366.467	29.87
366.678	31.91
366.889	52.39
367.1	113.83
367.311	156.84
367.522	66.73
367.733	81.07
367.944	109.74
368.155	87.21
368.366	128.17
368.577	83.11
368.788	81.07
368.999	54.44
369.209	81.07
369.42	144.55
369.631	193.7
369.842	128.17
370.053	109.74
370.264	101.55
370.474	-0.85
370.685	109.74
370.896	122.02
371.107	132.26
371.317	17.58
371.528	11.43
371.739	142.5
371.95	87.21
372.16	107.69
372.371	113.83
372.582	42.15
372.792	66.73
373.003	72.87
373.214	70.83
373.424	76.97
373.635	103.59
373.846	76.97
374.056	79.02
374.267	38.06
374.477	36.01
374.688	101.55
374.898	107.69
375.109	99.5
375.319	148.65
375.53	175.27
375.74	105.64
375.951	95.4
376.161	76.97
376.372	128.17
376.582	101.55
376.793	105.64
377.003	76.97
377.214	21.67
377.424	97.45
377.635	29.87
377.845	46.25
378.055	130.22
378.266	46.25
378.476	72.87
378.686	134.31
378.897	99.5
379.107	165.03
379.317	74.92
379.528	40.11
379.738	136.36
379.948	130.22
380.158	169.13
380.369	93.35
380.579	79.02
380.789	13.48
380.999	66.73
381.21	85.16
381.42	148.65
381.63	42.15
381.84	101.55
382.05	138.41
382.261	44.2
382.471	38.06
382.681	58.54
382.891	89.26
383.101	113.83
383.311	3.24
383.521	70.83
383.731	40.11
383.941	79.02
384.151	54.44
384.361	160.94
384.571	76.97
384.781	83.11
384.991	148.65
385.201	128.17
385.411	101.55
385.621	70.83
385.831	81.07
386.041	40.11
386.251	109.74
386.461	124.07
386.671	70.83
386.881	70.83
387.091	97.45
387.301	107.69
387.511	89.26
387.72	130.22
387.93	122.02
388.14	74.92
388.35	103.59
388.56	91.31
388.769	52.39
388.979	193.7
389.189	87.21
389.399	117.93
389.609	111.78
389.818	101.55
390.028	87.21
390.238	152.74
390.447	109.74
390.657	40.11
390.867	156.84
391.076	42.15
391.286	117.93
391.496	95.4
391.705	117.93
391.915	156.84
392.125	146.6
392.334	115.88
392.544	126.12
392.753	62.63
392.963	38.06
393.172	115.88
393.382	70.83
393.591	138.41
393.801	97.45
394.01	177.32
394.22	128.17
394.429	179.37
394.639	136.36
394.848	101.55
395.058	144.55
395.267	115.88
395.477	173.22
395.686	72.87
395.895	222.38
396.105	136.36
396.314	87.21
396.524	130.22
396.733	177.32
396.942	134.31
397.152	115.88
397.361	185.51
397.57	158.89
397.78	109.74
397.989	152.74
398.198	201.9
398.407	134.31
398.617	224.42
398.826	142.5
399.035	210.09
399.244	160.94
399.453	132.26
399.663	126.12
399.872	185.51
400.081	185.51
400.29	228.52
400.499	40.11
400.708	144.55
400.917	259.24
401.127	195.75
401.336	169.13
401.545	224.42
401.754	201.9
401.963	261.29
402.172	132.26
402.381	119.98
402.59	193.7
402.799	128.17
403.008	152.74
403.217	236.71
403.426	185.51
403.635	152.74
403.844	226.47
404.053	124.07
404.262	177.32
404.471	224.42
404.68	197.8
404.888	212.14
405.097	222.38
405.306	162.98
405.515	232.62
405.724	228.52
405.933	275.62
406.142	273.57
406.35	332.97
406.559	253.09
406.768	312.49
406.977	332.97
407.185	314.53
407.394	355.49
407.603	283.81
407.812	324.77
408.02	335.01
408.229	390.31
408.438	318.63
408.646	326.82
408.855	332.97
409.064	400.55
409.272	457.89
409.481	394.4
409.69	363.69
409.898	472.23
410.107	410.79
410.315	492.71
410.524	492.71
410.733	504.99
410.941	484.52
411.15	582.82
411.358	609.44
411.567	609.44
411.775	629.92
411.984	595.11
412.192	578.72
412.401	570.53
412.609	715.94
412.818	744.61
413.026	750.75
413.234	754.85
413.443	769.18
413.651	816.29
413.86	879.77
414.068	900.25
414.276	902.3
414.485	887.97
414.693	959.64
414.901	994.46
415.11	1041.56
415.318	992.41
415.526	1150.11
415.734	1203.35
415.943	1133.72
416.151	1184.92
416.359	1193.11
416.567	1184.92
416.776	1346.71
416.984	1393.81
417.192	1385.62
417.4	1473.68
417.608	1412.25
417.817	1614.99
418.025	1617.04
418.233	1721.49
418.441	1516.69
418.649	1723.54
418.857	1891.47
419.065	1983.63
419.273	1836.17
419.481	1914
419.689	2040.97
419.897	2200.71
420.105	2217.1
420.313	2307.21
420.521	2552.96
420.729	2401.41
420.937	2460.81
421.145	2573.44
421.353	2714.75
421.561	2733.18
421.769	2868.35
421.977	3042.43
422.185	2921.6
422.393	3110.01
422.601	3404.92
422.809	3204.22
423.017	3318.9
423.224	3492.98
423.432	3507.32
423.64	3701.87
423.848	4007.02
424.056	3806.32
424.263	4101.23
424.471	4127.85
424.679	4191.34
424.887	4422.76
425.094	4576.36
425.302	4719.71
425.51	4813.92
425.718	4848.74
425.925	5092.44
426.133	5248.09
426.341	5379.16
426.548	5651.54
426.756	5755.99
426.964	5801.04
427.171	6194.25
427.379	6208.59
427.586	6399.05
427.794	6460.49
428.001	6763.59
428.209	7058.49
428.417	6984.77
428.624	7541.82
428.832	7644.21
429.039	7476.28
429.247	7478.33
429.454	8428.59
429.662	8768.55
429.869	8274.99
430.076	8707.11
430.284	8563.75
430.491	8885.28
430.699	9509.91
430.906	9360.41
431.114	9622.55
431.321	9876.5
431.528	10052.63
431.736	10523.66
431.943	11064.32
432.15	10777.61
432.358	11015.17
432.565	11652.09
432.772	11545.59
432.979	11881.46
433.187	12307.44
433.394	12465.13
433.601	13306.85
433.808	13229.02
434.016	13077.48
434.223	13665.24
434.43	14603.21
434.637	14212.05
434.844	15031.24
435.052	15528.89
435.259	15211.46
435.466	15576
435.673	15569.85
435.88	16366.51
436.087	17028.01
436.294	17202.08
436.501	16536.49
436.708	17234.85
436.915	17677.21
437.122	18615.18
437.329	18367.38
437.537	18899.85
437.743	19223.43
437.95	19198.85
438.157	20026.23
438.364	20968.3
438.571	20644.72
438.778	20771.69
438.985	22741.84
439.192	21769.05
439.399	22735.7
439.606	22141.78
439.813	23436.1
440.02	24802.1
440.227	24208.19
440.433	24181.56
440.64	25025.32
440.847	24779.57
441.054	25461.54
441.261	27095.82
441.467	26477.33
441.674	27302.67
441.881	27884.29
442.088	28013.31
442.294	27650.82
442.501	28324.6
442.708	28904.18
442.914	30251.74
443.121	31457.99
443.328	30651.09
443.534	32699.06
443.741	31871.68
443.948	31290.06
444.154	33940.13
444.361	33286.83
444.568	33591.98
444.774	33899.17
444.981	34232.99
445.187	35109.52
445.394	36688.51
445.6	35887.75
445.807	39195.22
446.013	37458.54
446.22	38394.46
446.426	39531.09
446.633	40270.4
446.839	41744.94
447.046	39969.35
447.252	42113.58
447.459	41982.51
447.665	41923.11
447.871	43631.12
448.078	45023.74
448.284	43522.58
448.491	44378.63
448.697	45654.51
448.903	46768.61
449.11	46971.36
449.316	45881.84
449.522	46655.97
449.728	47856.08
449.935	48245.19
450.141	48171.47
450.347	49514.94
450.553	47796.69
450.76	48062.93
450.966	49549.75
451.172	49191.36
451.378	50141.61
451.584	49576.37
451.791	50633.13
451.997	50411.95
452.203	50968.99
452.409	50897.31
452.615	50678.18
452.821	48871.87
453.027	48437.7
453.233	50649.51
453.44	48701.89
453.646	49562.04
453.852	49772.98
454.058	50657.7
454.264	48470.47
454.47	49772.98
454.676	48622.02
454.882	50221.48
455.088	45875.69
455.294	46737.89
455.5	47339.99
455.705	47618.52
455.911	45713.91
456.117	44900.86
456.323	44362.25
456.529	42244.65
456.735	43311.64
456.941	42273.32
457.147	41873.96
457.352	40852.03
457.558	40192.58
457.764	40499.78
457.97	39625.29
458.176	38619.74
458.381	38378.08
458.587	36852.34
458.793	37155.44
458.999	34796.18
459.204	37624.43
459.41	36383.36
459.616	34196.13
459.821	34284.19
460.027	34200.22
460.233	33104.56
460.438	31623.88
460.644	32213.7
460.85	30743.25
461.055	30040.8
461.261	30202.59
461.466	27933.44
461.672	26999.57
461.878	28945.14
462.083	27024.14
462.289	26655.51
462.494	26266.39
462.7	24871.73
462.905	24347.45
463.111	25125.68
463.316	25584.42
463.522	24714.03
463.727	24879.92
463.932	24984.37
464.138	24769.33
464.343	24961.84
464.549	23927.61
464.754	24951.6
464.959	24525.62
465.165	24294.2
465.37	23825.22
465.575	22860.62
465.781	23853.89
465.986	23624.51
466.191	22745.94
466.397	22514.52
466.602	21537.63
466.807	22403.92
467.012	22170.46
467.218	22080.35
467.423	21680.99
467.628	22100.83
467.833	22973.26
468.038	22014.81
468.244	21420.9
468.449	22475.6
468.654	21592.93
468.859	21310.31
469.064	21015.4
469.269	20233.08
469.474	20773.74
469.679	21207.91
469.885	20444.02
470.09	20697.97
470.295	20732.78
470.5	20255.61
470.705	20042.62
470.91	19678.08
471.115	19444.61
471.32	19846.01
471.525	19598.21
471.73	19334.02
471.935	19084.17
472.139	18705.29
472.344	18848.65
472.549	18604.94
472.754	18283.41
472.959	17861.53
473.164	17642.4
473.369	17492.9
473.574	18058.14
473.778	17836.95
473.983	17791.9
474.188	17615.77
474.393	16710.57
474.598	17001.38
474.802	16518.06
475.007	16819.11
475.212	16649.13
475.417	16128.95
475.621	15995.83
475.826	16200.63
476.031	15670.2
476.235	15436.74
476.44	15944.63
476.645	15395.78
476.849	15537.09
477.054	15403.97
477.259	15066.05
477.463	15090.63
477.668	14545.87
477.872	14920.65
478.077	14773.19
478.282	14298.06
478.486	14310.35
478.691	14357.46
478.895	14218.19
479.1	14085.08
479.304	14158.8
479.509	13556.7
479.713	14003.16
479.918	13302.75
480.122	13186.02
480.326	13577.18
480.531	13538.27
480.735	13431.77
480.94	13450.21
481.144	13806.55
481.348	12893.16
481.553	13186.02
481.757	12997.6
481.961	13386.72
482.166	13339.62
482.37	13292.51
482.574	12755.94
482.778	12950.5
482.983	13308.9
483.187	12927.97
483.391	13183.97
483.595	13046.76
483.8	12850.15
484.004	13050.85
484.208	13102.05
484.412	12956.64
484.616	13140.96
484.821	12909.54
485.025	12657.64
485.229	13044.71
485.433	12948.45
485.637	13147.11
485.841	12970.98
486.045	12817.38
486.249	13046.76
486.453	13038.56
486.657	13091.81
486.861	13229.02
487.065	12696.55
487.269	12684.27
487.473	12743.66
487.677	13026.28
487.881	13134.82
488.085	13167.59
488.289	13038.56
488.493	12927.97
488.697	13306.85
488.901	13122.53
489.105	13362.14
489.309	13259.74
489.512	13308.9
489.716	13249.5
489.92	13577.18
490.124	13157.35
490.328	13607.9
490.531	13212.64
490.735	13202.4
490.939	13566.94
491.143	13378.53
491.346	13554.65
491.55	13618.14
491.754	13577.18
491.958	13554.65
492.161	13464.54
492.365	13906.9
492.569	13812.7
492.772	13505.5
492.976	14207.95
493.18	13925.33
493.383	14136.27
493.587	14158.8
493.79	14396.37
493.994	14177.23
494.197	14461.9
494.401	14248.91
494.605	14547.92
494.808	14664.65
495.012	14756.81
495.215	15188.93
495.419	15180.74
495.622	14619.6
495.825	15395.78
496.029	15178.69
496.232	15365.06
496.436	15621.05
496.639	15825.85
496.843	15817.66
497.046	16186.29
497.249	16358.32
497.453	16317.36
497.656	16395.18
497.859	16731.05
498.063	16698.28
498.266	16898.98
498.469	17015.72
498.673	17386.4
498.876	17589.15
499.079	17597.34
499.282	17607.58
499.485	18027.42
499.689	18113.43
499.892	18275.22
500.095	18371.47
500.298	18787.21
500.501	18750.35
500.705	19329.92
500.908	19526.53
501.111	19305.35
501.314	19727.23
501.517	19895.16
501.72	20128.63
501.923	20271.99
502.126	20712.3
502.329	20962.15
502.532	20826.99
502.735	21232.49
502.938	21584.74
503.141	21830.49
503.344	21951.32
503.547	21801.82
503.75	22379.35
503.953	22637.39
504.156	22901.58
504.359	22846.29
504.562	23055.18
504.765	24259.38
504.968	23712.58
505.17	24320.82
505.373	24183.61
505.576	24615.73
505.779	24906.54
505.982	25123.63
506.185	25344.81
506.387	25465.64
506.59	25400.1
506.793	26467.09
506.996	26424.09
507.198	27157.26
507.401	26655.51
507.604	26934.03
507.807	27613.96
508.009	27671.3
508.212	28197.63
508.415	28484.34
508.617	28803.83
508.82	28953.33
509.022	28922.61
509.225	29418.22
509.428	29801.19
509.63	29895.39
509.833	30120.67
510.035	30526.17
510.238	30513.88
510.44	30943.95
510.643	31537.87
510.845	31587.02
511.048	31683.27
511.25	32230.08
511.453	32064.19
511.655	33438.38
511.858	33206.96
512.06	33313.45
512.262	33553.07
512.465	33841.83
512.667	34206.37
512.87	34753.18
513.072	34781.85
513.274	35302.03
513.477	35314.32
513.679	35957.38
513.881	36252.29
514.084	36881.02
514.286	36569.72
514.488	36952.69
514.69	38095.46
514.893	38283.87
515.095	38181.48
515.297	38595.17
515.499	38890.07
515.701	39279.19
515.904	39440.98
516.106	39561.81
516.308	40348.23
516.51	40606.27
516.712	40884.79
516.914	41378.36
517.116	41753.13
517.318	41706.03
517.52	42060.33
517.722	42371.62
517.925	43514.39
518.127	43346.45
518.329	43475.48
518.531	43459.09
518.733	44284.42
518.935	44737.02
519.136	44755.46
519.338	44984.83
519.54	45165.05
519.742	45908.46
519.944	45961.71
520.146	46924.25
520.348	46991.84
520.55	47348.18
520.752	47413.72
520.954	48185.8
521.155	47905.23
521.357	48439.75
521.559	48896.45
521.761	49488.31
521.963	49187.26
522.164	49830.32
522.366	49996.21
522.568	50299.31
522.77	50919.84
522.971	51216.8
523.173	50983.33
523.375	51726.74
523.576	51847.57
523.778	52072.85
523.98	52529.55
524.181	52500.87
524.383	52484.49
524.584	53516.67
524.786	53021.06
524.988	53279.1
525.189	53946.74
525.391	54233.46
525.592	54665.58
525.794	54286.7
525.995	54729.06
526.197	55261.54
526.398	55314.78
526.6	55611.74
526.801	55638.36
527.003	56127.83
527.204	56015.19
527.406	56549.71
527.607	56162.64
527.808	56846.66
528.01	56375.63
528.211	56533.32
528.412	57239.87
528.614	57215.3
528.815	57080.13
529.016	57694.52
529.218	57590.08
529.419	57712.95
529.62	57727.29
529.822	57499.97
530.023	57911.61
530.224	57878.84
530.425	58063.16
530.626	57764.15
530.828	57317.7
531.029	59269.41
531.23	58175.79
531.431	58376.5
531.632	58372.4
531.833	58898.73
532.035	58638.64
532.236	59054.37
532.437	58781.99
532.638	59005.22
532.839	59218.21
533.04	59103.52
533.241	58882.34
533.442	59652.38
533.643	59124
533.844	59162.92
534.045	59412.77
534.246	58663.21
534.447	59408.67
534.648	59351.33
534.849	59685.15
535.05	58937.64
535.251	59953.43
535.451	59588.89
535.652	59447.58
535.853	59791.64
536.054	60041.49
536.255	59613.47
536.456	59013.41
536.657	60236.05
536.857	59408.67
537.058	58992.93
537.259	59824.41
537.46	59402.53
537.66	59332.9
537.861	59951.38
538.062	59228.45
538.263	59857.18
538.463	59339.04
538.664	59171.11
538.865	59908.38
539.065	60195.09
539.266	59095.33
539.466	60135.7
539.667	58882.34
539.868	59973.91
540.068	59791.64
540.269	59312.42
540.469	59859.23
540.67	59281.7
540.87	59468.06
541.071	59758.87
541.271	59644.19
541.472	59386.14
541.672	59240.74
541.873	59238.69
542.073	58669.36
542.274	59998.49
542.474	59304.23
542.675	58718.51
542.875	59826.46
543.075	58976.55
543.276	58779.95
543.476	59398.43
543.676	59236.64
543.877	59693.34
544.077	59353.38
544.277	59179.3
544.478	58984.74
544.678	59367.71
544.878	58763.56
545.078	59144.48
545.279	58693.93
545.479	59310.37
545.679	59439.39
545.879	59054.37
546.079	59324.71
546.28	59246.88
546.48	58777.9
546.68	59652.38
546.88	59081
547.08	59336.99
547.28	59244.83
547.48	58843.43
547.68	58634.54
547.88	58841.38
548.081	58978.6
548.281	58779.95
548.481	58427.7
548.681	59193.64
548.881	58661.16
549.081	59144.48
549.28	58401.07
549.48	59238.69
549.68	58794.28
549.88	58982.69
550.08	58980.65
550.28	58980.65
550.48	58489.13
550.68	58906.92
550.88	58806.57
551.08	59177.25
551.279	58607.92
551.479	58229.04
551.679	58767.66
551.879	58415.41
552.079	58845.48
552.278	58499.37
552.478	58399.02
552.678	58751.27
552.878	58929.45
553.077	58509.61
553.277	58347.82
553.477	59193.64
553.676	58175.79
553.876	58630.44
554.076	58089.78
554.275	58491.18
554.475	58378.54
554.674	58571.05
554.874	58310.96
555.074	58009.91
555.273	58595.63
555.473	58614.06
555.672	58188.08
555.872	57932.09
556.071	58376.5
556.271	58505.52
556.47	57469.25
556.67	57661.75
556.869	57729.34
557.068	57809.21
557.268	57440.57
557.467	57596.22
557.667	57252.16
557.866	57590.08
558.065	57219.39
558.265	57368.9
558.464	57203.01
558.663	57473.34
558.863	56914.25
559.062	57559.36
559.261	57053.51
559.461	57561.4
559.66	56375.63
559.859	56826.18
560.058	56791.37
560.258	56719.69
560.457	56109.39
560.656	56478.03
560.855	56203.6
561.054	56912.2
561.253	56076.63
561.453	56633.67
561.652	56219.98
561.851	56365.39
562.05	56133.97
562.249	55744.86
562.448	56510.8
562.647	56322.38
562.846	55732.57
563.045	55286.11
563.244	55089.51
563.443	56050
563.642	55056.74
563.841	55132.51
564.04	54712.68
564.239	55720.28
564.438	54980.96
564.637	55288.16
564.836	55144.8
565.035	54548.84
565.234	54767.97
565.432	54591.85
565.631	54204.78
565.83	54794.6
566.029	53879.16
566.228	54172.02
566.427	53754.23
566.625	54190.45
566.824	53156.22
567.023	53987.7
567.222	53057.92
567.42	54194.54
567.619	53475.71
567.818	53510.52
568.016	53352.83
568.215	53752.18
568.414	53072.26
568.612	53279.1
568.811	52838.79
569.01	52797.83
569.208	52081.04
569.407	52767.11
569.605	52148.62
569.804	52554.12
570.002	52144.53
570.201	52298.12
570.4	51577.24
570.598	51593.62
570.797	51313.05
570.995	51866
571.193	51394.97
571.392	51931.54
571.59	50887.07
571.789	51403.16
571.987	50985.38
572.186	50751.91
572.384	50878.88
572.582	50698.66
572.781	51009.95
572.979	49930.67
573.177	50223.53
573.376	50549.16
573.574	49820.08
573.772	50213.29
573.971	49869.23
574.169	49543.61
574.367	49381.82
574.565	49756.6
574.763	49658.29
574.962	49500.6
575.16	48902.59
575.358	49510.84
575.556	48978.37
575.754	49385.91
575.952	48650.69
576.151	48943.55
576.349	48574.92
576.547	48679.36
576.745	48439.75
576.943	48146.89
577.141	48124.36
577.339	48265.67
577.537	47817.17
577.735	47931.86
577.933	47684.05
578.131	47661.52
578.329	47307.22
578.527	47323.61
578.725	47167.96
578.923	47548.89
579.121	46938.59
579.319	47139.29
579.516	47434.2
579.714	46725.6
579.912	46807.52
580.11	46643.68
580.308	46717.41
580.506	46234.09
580.704	46207.47
580.901	45930.99
581.099	46811.62
581.297	45873.65
581.495	45758.96
581.692	46068.2
581.89	45439.48
582.088	45859.31
582.285	45472.24
582.483	45482.48
582.681	45126.14
582.878	45277.69
583.076	44808.7
583.274	45185.53
583.471	44431.88
583.669	45173.24
583.866	44182.02
584.064	44173.83
584.262	43981.32
584.459	44190.22
584.657	43895.31
584.854	44214.79
585.052	43336.21
585.249	43790.86
585.447	43891.21
585.644	43459.09
585.841	43541.01
586.039	43622.93
586.236	43069.98
586.434	42940.96
586.631	43024.92
586.828	42629.66
587.026	42967.58
587.223	42791.45
587.42	42242.6
587.618	42543.65
587.815	42439.2
588.012	42617.38
588.21	41974.31
588.407	42687.01
588.604	41626.16
588.801	41722.41
588.999	41822.76
589.196	41695.79
589.393	41761.33
589.59	41701.93
589.787	41275.96
589.984	41171.51
590.182	40559.17
590.379	41411.12
590.576	40745.53
590.773	40462.91
590.97	40706.62
591.167	40438.34
591.364	40178.25
591.561	40368.71
591.758	39926.35
591.955	40028.74
592.152	39961.16
592.349	39541.33
592.546	39989.83
592.743	39619.15
592.94	39289.43
593.137	39580.24
593.334	39426.64
593.531	39101.01
593.727	38820.44
593.924	39348.82
594.121	38842.97
594.318	38947.42
594.515	38228.58
594.712	39074.39
594.908	38290.02
595.105	38394.46
595.302	38015.59
595.499	38357.6
595.696	37915.24
595.892	38132.32
596.089	37980.78
596.286	37612.14
596.482	37241.46
596.679	37255.79
596.876	37313.14
597.072	37284.47
597.269	37182.07
597.466	37046.9
597.662	36680.31
597.859	37104.24
598.055	37034.61
598.252	36571.77
598.448	36502.14
598.645	36584.06
598.841	36268.67
599.038	36125.32
599.234	35971.72
599.431	35838.6
599.627	35920.52
599.824	36033.16
600.02	35674.76
600.217	35768.97
600.413	35646.09
600.609	35390.09
600.806	34992.79
601.002	35140.24
601.198	35158.67
601.395	34720.41
601.591	34910.87
601.787	34730.65
601.984	34450.08
602.18	34787.99
602.376	34368.16
602.572	34562.72
602.769	34466.46
602.965	34142.88
603.161	34349.73
603.357	33684.14
603.553	33673.9
603.75	34005.67
603.946	33628.84
604.142	33696.42
604.338	32893.62
604.534	33628.84
604.73	33082.03
604.926	32938.68
605.122	33225.39
605.318	33084.08
605.514	32725.69
605.71	32807.61
605.906	32682.68
606.102	32707.26
606.298	32770.74
606.494	32309.95
606.69	32586.43
606.886	32623.29
607.082	31902.4
607.278	32152.26
607.474	31935.17
607.67	32133.82
607.866	31562.44
608.062	32240.32
608.257	31916.74
608.453	31765.19
608.649	31742.66
608.845	31412.94
609.041	31304.4
609.236	31558.35
609.432	31367.88
609.628	31359.69
609.824	31392.46
610.019	31212.24
610.215	31124.18
610.411	31169.23
610.606	30778.07
610.802	30730.97
610.998	30999.25
611.193	30776.02
611.389	30739.16
611.584	30649.05
611.78	30456.54
611.976	30626.52
612.171	30407.39
612.367	30165.73
612.562	30362.33
612.758	29836
612.953	29936.35
613.149	30266.08
613.344	29901.54
613.539	30233.31
613.735	29752.04
613.93	29942.5
614.126	29889.25
614.321	30128.86
614.517	29637.35
614.712	29289.2
614.907	29743.84
615.103	29422.31
615.298	29455.08
615.493	29848.29
615.688	29065.97
615.884	29840.1
616.079	29068.02
616.274	29598.44
616.47	29346.54
616.665	29293.29
616.86	28965.62
617.055	28803.83
617.25	28672.76
617.445	29004.53
617.641	28492.54
617.836	29221.61
618.031	28308.22
618.226	29199.09
618.421	28289.79
618.616	28924.66
618.811	28279.55
619.006	28629.75
619.201	27833.09
619.396	28148.48
619.591	27788.03
619.786	28001.02
619.981	27439.88
620.176	27949.82
620.371	27333.39
620.566	27513.61
620.761	27421.45
620.956	26999.57
621.151	27167.5
621.346	27163.4
621.541	26501.91
621.735	26862.35
621.93	26256.15
622.125	26368.79
622.32	26129.18
622.515	26266.39
622.709	26164
622.904	25721.63
623.099	25799.46
623.294	25795.36
623.488	25322.28
623.683	25588.52
623.878	24716.08
624.072	25097
624.267	25180.97
624.462	24863.54
624.656	24503.09
624.851	24740.66
625.046	24595.25
625.24	24431.41
625.435	23978.81
625.629	24167.23
625.824	24005.44
626.018	23763.78
626.213	23405.38
626.407	23577.41
626.602	23429.96
626.796	23434.05
626.991	23253.83
627.185	23089.99
627.38	23106.38
627.574	22874.96
627.768	22547.28
627.963	22371.16
628.157	22506.32
628.352	22440.79
628.546	21863.26
628.74	22453.08
628.935	22018.91
629.129	22025.05
629.323	21697.38
629.517	21590.88
629.712	21322.6
629.906	21351.27
630.1	21037.93
630.294	21257.06
630.489	21099.37
630.683	21097.32
630.877	20847.47
631.071	20736.88
631.265	20810.61
631.459	20601.71
631.653	20679.54
631.848	20312.95
632.042	19764.09
632.236	20288.37
632.43	19897.21
632.624	19880.83
632.818	19889.02
633.012	19473.28
633.206	19803
633.4	19731.33
633.594	19114.89
633.788	19215.24
633.982	19133.32
634.176	19168.13
634.369	18795.4
634.563	18969.48
634.757	18838.41
634.951	18695.05
635.145	18574.22
635.339	18344.85
635.533	18133.91
635.726	18250.64
635.92	18273.17
636.114	17986.46
636.308	17992.6
636.501	18099.09
636.695	17853.34
636.889	17597.34
637.083	17363.87
637.276	17314.72
637.47	17449.89
637.664	17546.14
637.857	17206.18
638.051	17415.07
638.244	16976.81
638.438	16860.07
638.632	16833.45
638.825	16692.14
639.019	16585.65
639.212	16669.61
639.406	16421.81
639.599	16253.87
639.793	16569.26
639.986	16307.12
640.18	16264.11
640.373	16184.24
640.567	15774.65
640.76	15895.48
640.954	15758.27
641.147	15717.31
641.34	15461.31
641.534	15565.76
641.727	15530.94
641.92	15301.57
642.114	15360.96
642.307	15209.41
642.5	15137.73
642.694	14785.48
642.887	14828.49
643.08	14855.11
643.273	14920.65
643.467	14947.27
643.66	14744.52
643.853	14621.64
644.046	14312.4
644.239	14289.87
644.432	14414.8
644.626	14156.75
644.819	14054.36
645.012	14152.66
645.205	14253.01
645.398	13902.81
645.591	13894.61
645.784	13810.65
645.977	13568.99
646.17	13644.76
646.363	13351.9
646.556	13261.79
646.749	13663.19
646.942	13425.63
647.135	13165.54
647.328	12968.93
647.521	13050.85
647.714	12981.22
647.907	13036.52
648.099	12993.51
648.292	12809.19
648.485	12964.84
648.678	12846.05
648.871	12604.39
649.064	12510.19
649.256	12790.76
649.449	12452.84
649.642	12334.06
649.835	12256.24
650.027	12497.9
650.22	12092.4
650.413	12006.39
650.605	12170.22
650.798	11807.73
650.991	11742.2
651.183	11996.15
651.376	11766.78
651.568	11736.06
651.761	11639.8
651.954	11602.94
652.146	11619.32
652.339	11435
652.531	11463.68
652.724	11348.99
652.916	11238.4
653.109	11228.16
653.301	11326.46
653.494	11498.49
653.686	10927.11
653.879	11056.13
654.071	11109.38
654.263	11058.18
654.456	10793.99
654.648	10890.24
654.84	10834.95
655.033	10583.05
655.225	10728.45
655.417	10597.38
655.61	10439.69
655.802	10365.96
655.994	10490.89
656.186	10470.41
656.379	10300.43
656.571	10355.72
656.763	10052.63
656.955	10167.31
657.148	10185.74
657.34	10128.4
657.532	10122.26
657.724	9911.32
657.916	9927.7
658.108	9880.6
658.3	9784.34
658.492	9743.38
658.684	9509.91
658.876	9653.27
659.068	9794.58
659.26	9585.69
659.452	9667.61
659.644	9569.3
659.836	9247.77
660.028	9450.52
660.22	9270.3
660.412	9307.16
660.604	8977.44
660.796	9303.07
660.988	9026.59
661.18	9016.35
661.372	8881.19
661.563	8905.76
661.755	9014.31
661.947	8997.92
662.139	8922.15
662.331	8891.43
662.522	8553.51
662.714	8639.53
662.906	8621.1
663.097	8518.7
663.289	8604.71
663.481	8723.49
663.673	8524.84
663.864	8432.68
664.056	8289.32
664.247	8451.11
664.439	8115.25
664.631	8391.72
664.822	8361
665.014	8254.51
665.205	8180.78
665.397	8070.19
665.588	8092.72
665.78	8033.33
665.971	8123.44
666.163	7943.22
666.354	7912.5
666.546	8074.29
666.737	7773.24
666.929	7842.87
667.12	7879.73
667.311	7791.67
667.503	7676.98
667.694	7945.27
667.885	7617.59
668.077	7726.13
668.268	7509.05
668.459	7517.24
668.651	7552.06
668.842	7449.66
669.033	7478.33
669.224	7453.75
669.416	7455.8
669.607	7341.11
669.798	7138.37
669.989	7214.14
670.18	7363.64
670.371	7304.25
670.563	7267.39
670.754	7269.44
670.945	7199.8
671.136	7087.17
671.327	7074.88
671.518	6984.77
671.709	6929.47
671.9	6988.86
672.091	6962.24
672.282	6843.46
672.473	6765.64
672.664	6978.62
672.855	6861.89
673.046	7048.26
673.237	6925.38
673.428	6747.2
673.619	6769.73
673.809	6751.3
674	6569.03
674.191	6882.37
674.382	6579.27
674.573	6583.37
674.764	6698.05
674.954	6689.86
675.145	6642.76
675.336	6650.95
675.527	6480.97
675.717	6560.84
675.908	6556.74
676.099	6599.75
676.289	6468.68
676.48	6384.71
676.671	6392.91
676.861	6472.78
677.052	6210.64
677.243	6423.62
677.433	6411.34
677.624	6476.87
677.814	6259.79
678.005	6321.23
678.195	6386.76
678.386	6239.31
678.576	6085.71
678.767	6143.05
678.957	6331.47
679.148	6300.75
679.338	6259.79
679.529	6165.58
679.719	6292.55
679.909	6298.7
680.1	6098
680.29	6145.1
680.481	5936.21
680.671	6310.99
680.861	6122.57
681.052	6007.89
681.242	6057.04
681.432	6167.63
681.622	6194.25
681.813	6065.23
682.003	6081.61
682.193	6034.51
682.383	6167.63
682.573	6106.19
682.764	5889.1
682.954	5977.17
683.144	6077.52
683.334	5960.78
683.524	5995.6
683.714	6075.47
683.904	5979.22
684.094	5868.63
684.284	5809.23
684.474	5829.71
684.664	5985.36
684.854	5712.98
685.044	5762.13
685.234	5755.99
685.424	5755.99
685.614	5805.14
685.804	5680.21
685.994	5663.83
686.184	5844.05
686.374	5766.23
686.564	5534.81
686.753	5567.57
686.943	5563.48
687.133	5665.88
687.323	5510.23
687.513	5649.49
687.702	5518.42
687.892	5600.34
688.082	5368.92
688.272	5506.13
688.461	5573.72
688.651	5456.98
688.841	5377.11
689.03	5317.72
689.22	5418.07
689.41	5407.83
689.599	5252.19
689.789	5360.73
689.979	5327.96
690.168	5336.15
690.358	5280.86
690.547	5051.49
690.737	5014.62
690.926	5264.47
691.116	4985.95
691.305	5256.28
691.495	5137.5
691.684	5162.08
691.874	5063.77
692.063	5059.68
692.252	4983.9
692.442	5022.81
692.631	4967.52
692.82	4912.22
693.01	4969.57
693.199	4981.85
693.388	4744.29
693.578	5006.43
693.767	4815.97
693.956	4750.43
694.146	4912.22
694.335	4836.45
694.524	4848.74
694.713	4830.3
694.902	4856.93
695.092	4805.73
695.281	4719.71
695.47	4643.94
695.659	4734.05
695.848	4650.08
696.037	4781.15
696.226	4650.08
696.415	4572.26
696.604	4701.28
696.793	4650.08
696.982	4643.94
697.171	4676.71
697.36	4645.99
697.549	4453.48
697.738	4662.37
697.927	4553.83
698.116	4523.11
698.305	4492.39
698.494	4639.84
698.683	4654.18
698.872	4529.25
699.061	4562.02
699.25	4455.53
699.438	4486.25
699.627	4412.52
699.816	4623.46
700.005	4414.57
700.193	4488.29
700.382	4631.65
700.571	4396.14
700.76	4574.31
700.948	4502.63
701.137	4361.32
701.326	4596.84
701.514	4336.74
701.703	4433
701.892	4279.4
702.08	4420.71
702.269	4482.15
702.457	4387.94
702.646	4265.07
702.834	4299.88
703.023	4441.19
703.212	4465.77
703.4	4363.37
703.589	4373.61
703.777	4465.77
703.965	4306.02
704.154	4396.14
704.342	4410.47
704.531	4412.52
704.719	4326.5
704.907	4492.39
705.096	4291.69
705.284	4371.56
705.472	4453.48
705.661	4389.99
705.849	4324.46
706.037	4246.63
706.226	4224.11
706.414	4295.79
706.602	4297.83
706.79	4349.03
706.979	4301.93
707.167	4324.46
707.355	4336.74
707.543	4308.07
707.731	4349.03
707.919	4514.92
708.107	4287.59
708.296	4392.04
708.484	4281.45
708.672	4416.62
708.86	4154.48
709.048	4355.18
709.236	4416.62
709.424	4443.24
709.612	4359.27
709.8	4273.26
709.988	4295.79
710.176	4363.37
710.364	4367.46
710.551	4340.84
710.739	4363.37
710.927	4420.71
711.115	4209.77
711.303	4371.56
711.491	4365.42
711.679	4199.53
711.866	4355.18
712.054	4435.05
712.242	4279.4
712.43	4355.18
712.617	4340.84
712.805	4322.41
712.993	4115.56
713.181	4195.43
713.368	4322.41
713.556	4357.22
713.744	4222.06
713.931	4324.46
714.119	4246.63
714.306	4392.04
714.494	4238.44
714.682	4387.94
714.869	4277.35
715.057	4480.1
715.244	4328.55
715.432	4306.02
715.619	4207.72
715.807	4373.61
715.994	4381.8
716.182	4306.02
716.369	4291.69
716.556	4359.27
716.744	4297.83
716.931	4193.39
717.119	4295.79
717.306	4351.08
717.493	4420.71
717.681	4301.93
717.868	4156.52
718.055	4416.62
718.242	4140.14
718.43	4185.19
718.617	4215.91
718.804	4344.94
718.991	4260.97
719.179	4412.52
719.366	4273.26
719.553	4181.1
719.74	4246.63
719.927	4236.39
720.114	4254.83
720.301	4232.3
720.488	4250.73
720.676	4220.01
720.863	4263.02
721.05	4199.53
721.237	4271.21
721.424	4222.06
721.611	4211.82
721.798	4222.06
721.985	4166.76
722.172	4252.78
722.358	4123.76
722.545	4215.91
722.732	4140.14
722.919	4373.61
723.106	4203.63
723.293	4326.5
723.48	4265.07
723.667	4207.72
723.853	4109.42
724.04	4244.59
724.227	4121.71
724.414	4273.26
724.6	4068.46
724.787	4318.31
724.974	4187.24
725.161	4193.39
725.347	4004.97
725.534	4113.52
725.72	4140.14
725.907	4215.91
726.094	4220.01
726.28	4111.47
726.467	3976.3
726.653	4119.66
726.84	3966.06
727.027	4154.48
727.213	4033.65
727.4	4179.05
727.586	4148.33
727.773	4134
727.959	4113.52
728.145	4162.67
728.332	4158.57
728.518	4097.13
728.705	4099.18
728.891	4072.56
729.077	4195.43
729.264	4068.46
729.45	4154.48
729.636	4142.19
729.823	3992.69
730.009	4177
730.195	4146.28
730.382	4111.47
730.568	4217.96
730.754	4134
730.94	3929.2
731.126	4140.14
731.313	4117.61
731.499	4093.04
731.685	3949.68
731.871	4115.56
732.057	4007.02
732.243	4154.48
732.429	4025.45
732.615	3937.39
732.801	4011.12
732.987	3894.38
733.173	4160.62
733.359	3906.67
733.545	4047.98
733.731	3982.45
733.917	4109.42
734.103	4009.07
734.289	3921.01
734.475	3896.43
734.661	4095.08
734.847	3857.52
735.033	3951.73
735.219	3957.87
735.404	4015.21
735.59	4103.28
735.776	3892.34
735.962	4103.28
736.148	3978.35
736.333	3904.62
736.519	3832.94
736.705	3910.77
736.89	3824.75
737.076	3859.57
737.262	3929.2
737.447	3839.09
737.633	3941.49
737.819	3918.96
738.004	3861.62
738.19	3751.03
738.375	3853.42
738.561	3918.96
738.747	3757.17
738.932	3843.18
739.118	3687.54
739.303	3669.11
739.489	3708.02
739.674	3736.69
739.859	3652.72
740.045	3773.55
740.23	3804.27
740.416	3734.64
740.601	3896.43
740.786	3611.76
740.972	3646.58
741.157	3665.01
741.342	3679.35
741.528	3736.69
741.713	3671.15
741.898	3632.24
742.084	3566.71
742.269	3538.04
742.454	3615.86
742.639	3726.45
742.824	3550.32
743.01	3542.13
743.195	3587.19
743.38	3605.62
743.565	3484.79
743.75	3525.75
743.935	3388.53
744.12	3511.41
744.305	3353.72
744.49	3390.58
744.675	3437.69
744.86	3331.19
745.045	3404.92
745.23	3306.62
745.415	3277.94
745.6	3335.29
745.785	3134.59
745.97	3247.23
746.155	3167.35
746.34	3232.89
746.525	3198.07
746.71	3261.56
746.895	3075.2
747.079	3099.77
747.264	3112.06
747.449	3161.21
747.634	3161.21
747.819	3044.48
748.003	2829.44
748.188	3112.06
748.373	3024
748.557	2970.75
748.742	2872.45
748.927	2985.09
749.111	2888.83
749.296	2962.56
749.481	2806.91
749.665	2962.56
749.85	2720.9
750.034	2856.06
750.219	2872.45
750.404	2903.17
750.588	2784.38
750.773	2737.28
750.957	2616.45
751.141	2739.33
751.326	2733.18
751.51	2690.18
751.695	2761.86
751.879	2573.44
752.064	2614.4
752.248	2778.24
752.432	2727.04
752.617	2681.99
752.801	2571.4
752.985	2532.48
753.17	2561.16
753.354	2481.28
753.538	2485.38
753.722	2440.33
753.907	2458.76
754.091	2436.23
754.275	2376.84
754.459	2374.79
754.643	2473.09
754.828	2378.89
755.012	2247.82
755.196	2331.78
755.38	2221.19
755.564	2258.06
755.748	2380.93
755.932	2299.02
756.116	2229.38
756.3	2284.68
756.484	2167.95
756.668	2219.14
756.852	2108.55
757.036	2200.71
757.22	2221.19
757.404	2079.88
757.588	2114.7
757.772	2051.21
757.956	2141.32
758.14	2028.68
758.323	2102.41
758.507	2040.97
758.691	1979.53
758.875	1928.33
759.059	2000.01
759.242	2028.68
759.426	1907.85
759.61	2016.4
759.794	1877.13
759.977	2024.59
760.161	1936.53
760.345	1973.39
760.528	1942.67
760.712	1891.47
760.895	1856.65
761.079	1856.65
761.263	1901.71
761.446	1782.93
761.63	1819.79
761.813	1809.55
761.997	1805.46
762.18	1768.59
762.364	1795.22
762.547	1801.36
762.731	1709.2
762.914	1891.47
763.098	1721.49
763.281	1787.02
763.464	1727.63
763.648	1776.78
763.831	1717.39
764.015	1684.62
764.198	1741.97
764.381	1705.1
764.564	1715.34
764.748	1713.3
764.931	1701.01
765.114	1672.34
765.297	1574.03
765.481	1641.62
765.664	1655.95
765.847	1617.04
766.03	1576.08
766.213	1594.51
766.397	1662.1
766.58	1639.57
766.763	1610.9
766.946	1651.86
767.129	1625.23
767.312	1438.87
767.495	1504.4
767.678	1563.79
767.861	1533.08
768.044	1563.79
768.227	1617.04
768.41	1549.46
768.593	1627.28
768.776	1424.53
768.959	1453.2
769.142	1488.02
769.324	1477.78
769.507	1526.93
769.69	1469.59
769.873	1520.79
770.056	1512.6
770.239	1479.83
770.421	1320.09
770.604	1457.3
770.787	1467.54
770.97	1361.05
771.152	1453.2
771.335	1485.97
771.518	1442.96
771.7	1354.9
771.883	1430.68
772.066	1344.66
772.248	1434.77
772.431	1354.9
772.613	1385.62
772.796	1361.05
772.978	1291.41
773.161	1270.94
773.343	1387.67
773.526	1313.94
773.708	1232.02
773.891	1152.15
774.073	1447.06
774.256	1313.94
774.438	1422.48
774.621	1201.3
774.803	1236.12
774.985	1205.4
775.168	1174.68
775.35	1291.41
775.532	1229.98
775.715	1178.78
775.897	1160.34
776.079	1154.2
776.261	1207.45
776.444	1094.81
776.626	1156.25
776.808	1113.24
776.99	1103
777.173	1039.51
777.355	1119.39
777.537	1162.39
777.719	1057.95
777.901	1082.52
778.083	1082.52
778.265	1103
778.447	1139.87
778.629	980.12
778.811	1111.19
778.993	961.69
779.175	1021.08
779.357	1086.62
779.539	949.4
779.721	1064.09
779.903	978.08
780.085	1043.61
780.267	1033.37
780.449	1035.42
780.631	959.64
780.812	873.63
780.994	879.77
781.176	959.64
781.358	914.59
781.54	881.82
781.721	873.63
781.903	892.06
782.085	906.4
782.267	908.44
782.448	853.15
782.63	887.97
782.812	930.97
782.993	865.44
783.175	947.36
783.357	857.25
783.538	851.1
783.72	769.18
783.901	804
784.083	840.86
784.264	765.09
784.446	793.76
784.627	808.09
784.809	873.63
784.99	720.03
785.172	777.37
785.353	781.47
785.535	779.42
785.716	787.61
785.897	709.79
786.079	707.74
786.26	677.02
786.441	797.85
786.623	738.46
786.804	775.33
786.985	738.46
787.167	767.13
787.348	634.02
787.529	689.31
787.71	773.28
787.891	699.55
788.073	672.93
788.254	621.73
788.435	709.79
788.616	539.81
788.797	584.87
788.978	580.77
789.159	562.34
789.34	685.22
789.522	556.19
789.703	607.39
789.884	629.92
790.065	576.67
790.246	607.39
790.427	636.06
790.607	668.83
790.788	648.35
790.969	552.1
791.15	660.64
791.331	550.05
791.512	591.01
791.693	552.1
791.874	636.06
792.054	615.59
792.235	613.54
792.416	615.59
792.597	511.14
792.778	545.95
792.958	558.24
793.139	525.47
793.32	556.19
793.5	601.25
793.681	525.47
793.862	595.11
794.042	425.12
794.223	498.85
794.404	496.8
794.584	523.43
794.765	496.8
794.945	470.18
795.126	554.15
795.306	554.15
795.487	435.36
795.667	421.03
795.848	502.95
796.028	494.76
796.209	496.8
796.389	521.38
796.57	525.47
796.75	474.28
796.93	433.32
797.111	464.04
797.291	482.47
797.471	509.09
797.652	404.64
797.832	423.08
798.012	480.42
798.192	461.99
798.373	459.94
798.553	455.84
798.733	416.93
798.913	466.08
799.093	414.88
799.274	390.31
799.454	439.46
799.634	484.52
799.814	449.7
799.994	392.36
800.174	451.75
800.354	390.31
800.534	328.87
800.714	423.08
800.894	382.12
801.074	404.64
801.254	339.11
801.434	408.74
801.614	410.79
801.794	285.86
801.974	881.82
802.154	384.16
802.334	355.49
802.514	341.16
802.693	357.54
802.873	406.69
803.053	404.64
803.233	369.83
803.413	337.06
803.592	242.85
803.772	332.97
803.952	347.3
804.131	414.88
804.311	439.46
804.491	414.88
804.67	351.4
804.85	330.92
805.03	369.83
805.209	353.45
805.389	406.69
805.568	330.92
805.748	314.53
805.928	349.35
806.107	400.55
806.287	373.92
806.466	378.02
806.646	296.1
806.825	283.81
807.004	337.06
807.184	277.67
807.363	359.59
807.543	367.78
807.722	271.53
807.901	304.29
808.081	365.73
808.26	281.77
808.439	228.52
808.619	300.2
808.798	226.47
808.977	314.53
809.156	349.35
809.336	349.35
809.515	281.77
809.694	357.54
809.873	238.76
810.052	283.81
810.231	326.82
810.411	259.24
810.59	382.12
810.769	318.63
810.948	388.26
811.127	230.57
811.306	267.43
811.485	283.81
811.664	347.3
811.843	312.49
812.022	285.86
812.201	253.09
812.38	242.85
812.559	263.33
812.737	275.62
812.916	214.18
813.095	263.33
813.274	281.77
813.453	318.63
813.632	277.67
813.811	257.19
813.989	275.62
814.168	312.49
814.347	255.14
814.526	332.97
814.704	292.01
814.883	330.92
815.062	199.85
815.24	226.47
815.419	189.61
815.598	308.39
815.776	165.03
815.955	214.18
816.133	124.07
816.312	267.43
816.49	210.09
816.669	275.62
816.847	265.38
817.026	263.33
817.204	324.77
817.383	179.37
817.561	230.57
817.74	222.38
817.918	285.86
818.097	169.13
818.275	214.18
818.453	191.66
818.632	203.94
818.81	242.85
818.988	158.89
819.167	150.7
819.345	234.66
819.523	197.8
819.701	152.74
819.879	208.04
820.058	189.61
820.236	177.32
820.414	130.22
820.592	212.14
820.77	232.62
820.948	210.09
821.127	130.22
821.305	222.38
821.483	218.28
821.661	222.38
821.839	144.55
822.017	169.13
822.195	193.7
822.373	259.24
822.551	173.22
822.729	257.19
822.907	146.6
823.085	232.62
823.262	216.23
823.44	177.32
823.618	234.66
823.796	259.24
823.974	144.55
824.152	136.36
824.329	107.69
824.507	195.75
824.685	122.02
824.863	296.1
825.04	158.89
825.218	205.99
825.396	66.73
825.574	197.8
825.751	158.89
825.929	246.95
826.107	185.51
826.284	177.32
826.462	259.24
826.639	169.13
826.817	169.13
826.994	177.32
827.172	208.04
827.349	205.99
827.527	130.22
827.704	150.7
827.882	173.22
828.059	185.51
828.237	105.64
828.414	201.9
828.591	140.46
828.769	201.9
828.946	132.26
829.124	160.94
829.301	156.84
829.478	185.51
829.655	162.98
829.833	128.17
830.01	181.42
830.187	160.94
830.364	181.42
830.542	150.7
830.719	236.71
830.896	158.89
831.073	95.4
831.25	197.8
831.427	181.42
831.604	107.69
831.782	148.65
831.959	177.32
832.136	124.07
832.313	150.7
832.49	136.36
832.667	158.89
832.844	119.98
833.021	193.7
833.198	99.5
833.374	144.55
833.551	132.26
833.728	205.99
833.905	158.89
834.082	117.93
834.259	171.18
834.436	175.27
834.612	148.65
834.789	193.7
834.966	150.7
835.143	185.51
835.319	87.21
835.496	128.17
835.673	62.63
835.85	181.42
836.026	119.98
836.203	156.84
836.38	25.77
836.556	185.51
836.733	117.93
836.909	177.32
837.086	105.64
837.262	81.07
837.439	85.16
837.616	97.45
837.792	83.11
837.968	132.26
838.145	105.64
838.321	66.73
838.498	179.37
838.674	167.08
838.851	119.98
839.027	89.26
839.203	126.12
839.38	228.52
839.556	91.31
839.732	158.89
839.909	193.7
840.085	124.07
840.261	27.82
840.437	99.5
840.614	150.7
840.79	109.74
840.966	136.36
841.142	33.96
841.318	103.59
841.494	89.26
841.671	138.41
841.847	154.79
842.023	83.11
842.199	132.26
842.375	101.55
842.551	40.11
842.727	99.5
842.903	165.03
843.079	33.96
843.255	183.46
843.431	70.83
843.607	95.4
843.783	21.67
843.959	132.26
844.134	68.78
844.31	154.79
844.486	62.63
844.662	66.73
844.838	111.78
845.013	117.93
845.189	142.5
845.365	13.48
845.541	79.02
845.716	56.49
845.892	11.43
846.068	66.73
846.244	85.16
846.419	79.02
846.595	83.11
846.77	68.78
846.946	33.96
847.122	52.39
847.297	93.35
847.473	93.35
847.648	54.44
847.824	-2.9
847.999	38.06
848.175	181.42
848.35	111.78
848.526	126.12
848.701	119.98
848.876	99.5
849.052	72.87
849.227	68.78
849.403	95.4
849.578	119.98
849.753	76.97
849.929	91.31
850.104	25.77
850.279	140.46
850.454	97.45
850.63	95.4
850.805	79.02
850.98	126.12
851.155	74.92
851.33	126.12
851.505	46.25
851.681	109.74
851.856	68.78
852.031	99.5
852.206	109.74
852.381	29.87
852.556	23.72
852.731	105.64
852.906	103.59
853.081	111.78
853.256	124.07
853.431	60.59
853.606	101.55
853.781	109.74
853.956	87.21
854.131	19.63
854.305	95.4
854.48	40.11
854.655	36.01
854.83	50.35
855.005	9.39
855.18	103.59
855.354	29.87
855.529	87.21
855.704	52.39
855.879	79.02
856.053	70.83
856.228	31.91
856.403	111.78
856.577	56.49
856.752	36.01
856.926	72.87
857.101	148.65
857.276	21.67
857.45	46.25
857.625	124.07
857.799	33.96
857.974	122.02
858.148	44.2
858.323	79.02
858.497	113.83
858.672	91.31
858.846	38.06
859.02	56.49
859.195	36.01
859.369	-7
859.543	124.07
859.718	58.54
859.892	66.73
860.066	31.91
860.241	62.63
860.415	-43.86
860.589	42.15
860.763	44.2
860.938	83.11
861.112	42.15
861.286	44.2
861.46	64.68
861.634	46.25
861.808	50.35
861.982	29.87
862.157	36.01
862.331	-4.95
862.505	17.58
862.679	46.25
862.853	-2.9
863.027	25.77
863.201	76.97
863.375	109.74
863.549	-21.33
863.722	91.31
863.896	87.21
864.07	91.31
864.244	33.96
864.418	83.11
864.592	-17.24
864.766	15.53
864.939	74.92
865.113	5.29
865.287	38.06
865.461	87.21
865.634	79.02
865.808	54.44
865.982	33.96
866.156	25.77
866.329	21.67
866.503	27.82
866.676	50.35
866.85	52.39
867.024	70.83
867.197	42.15
867.371	42.15
867.544	64.68
867.718	-23.38
867.891	76.97
868.065	46.25
868.238	48.3
868.412	54.44
868.585	99.5
868.759	38.06
868.932	11.43
869.105	25.77
869.279	62.63
869.452	74.92
869.625	64.68
869.799	68.78
869.972	-4.95
870.145	79.02
870.319	50.35
870.492	7.34
870.665	21.67
870.838	17.58
871.011	-21.33
871.185	76.97
871.358	64.68
871.531	119.98
871.704	79.02
871.877	25.77
872.05	17.58
872.223	11.43
872.396	36.01
872.569	48.3
872.742	-66.39
872.915	54.44
873.088	50.35
873.261	33.96
873.434	105.64
873.607	42.15
873.78	76.97
873.953	3.24
874.126	-2.9
874.299	11.43
874.471	52.39
874.644	25.77
874.817	68.78
874.99	27.82
875.163	40.11
875.335	-31.57
875.508	-11.09
875.681	70.83
875.853	29.87
876.026	3.24
876.199	76.97
876.371	21.67
876.544	119.98
876.717	66.73
876.889	-7
877.062	23.72
877.234	19.63
877.407	29.87
877.579	1.19
877.752	50.35
877.924	93.35
878.097	31.91
878.269	38.06
878.442	17.58
878.614	40.11
878.786	29.87
878.959	-4.95
879.131	103.59
879.303	27.82
879.476	-45.91
879.648	107.69
879.82	19.63
879.993	52.39
880.165	62.63
880.337	-7
880.509	54.44
880.681	-37.72
880.854	31.91
881.026	31.91
881.198	11.43
881.37	38.06
881.542	74.92
881.714	19.63
881.886	29.87
882.058	-21.33
882.23	54.44
882.402	-13.14
882.574	27.82
882.746	27.82
882.918	44.2
883.09	99.5
883.262	-64.34
883.434	33.96
883.606	25.77
883.778	-35.67
883.95	109.74
884.122	17.58
884.293	62.63
884.465	-56.15
884.637	72.87
884.809	-31.57
884.98	-27.48
885.152	44.2
885.324	5.29
885.496	52.39
885.667	52.39
885.839	38.06
886.011	25.77
886.182	50.35
886.354	74.92
886.525	33.96
886.697	21.67
886.869	-13.14
887.04	-47.96
887.212	60.59
887.383	7.34
887.555	-2.9
887.726	-15.19
887.897	25.77
888.069	11.43
888.24	50.35
888.412	44.2
888.583	-25.43
888.754	79.02
888.926	-31.57
889.097	9.39
889.268	-27.48
889.44	-33.62
889.611	29.87
889.782	76.97
889.953	29.87
890.125	9.39
890.296	5.29
890.467	15.53
890.638	-43.86
890.809	21.67
890.98	17.58
891.151	5.29
891.323	66.73
891.494	-23.38
891.665	95.4
891.836	-17.24
892.007	56.49
892.178	95.4
892.349	7.34
892.52	-19.29
892.691	13.48
892.862	-4.95
893.032	-13.14
893.203	33.96
893.374	50.35
893.545	89.26
893.716	-45.91
893.887	-31.57
894.057	-19.29
894.228	81.07
894.399	-35.67
894.57	-0.85
894.74	70.83
894.911	103.59
895.082	52.39
895.253	11.43
895.423	-2.9
895.594	-9.05
895.764	3.24
895.935	33.96
896.106	27.82
896.276	5.29
896.447	36.01
896.617	5.29
896.788	36.01
896.958	56.49
897.129	-64.34
897.299	31.91
897.47	111.78
897.64	85.16
897.81	-9.05
897.981	-15.19
898.151	-17.24
898.322	29.87
898.492	27.82
898.662	9.39
898.832	50.35
899.003	1.19
899.173	58.54
899.343	11.43
899.513	17.58
