Data from USB4F104151__0__10-19-23-297.txt Node

Date: Wed Mar 12 10:19:23 EDT 2025
User: louis
Spectrometer: USB4F10415
Trigger mode: 4
Integration Time (sec): 3.000000E-2
Scans to average: 1
Electric dark correction enabled: true
Nonlinearity correction enabled: false
Boxcar width: 0
XAxis mode: Wavelengths
Number of Pixels in Spectrum: 3648
>>>>>Begin Spectral Data<<<<<
178.204	-93.87
178.424	-93.87
178.644	-93.87
178.864	-38.57
179.084	-110.25
179.304	108.88
179.524	-28.33
179.744	-11.95
179.964	-22.19
180.184	8.53
180.404	-36.52
180.624	-42.67
180.844	12.63
181.064	-89.77
181.283	-13.99
181.503	61.78
181.723	53.59
181.943	-34.47
182.163	59.73
182.383	78.16
182.602	24.92
182.822	84.31
183.042	22.87
183.262	12.63
183.482	51.54
183.701	20.82
183.921	61.78
184.141	29.01
184.361	18.77
184.58	4.44
184.8	49.49
185.02	0.34
185.239	69.97
185.459	29.01
185.679	49.49
185.898	24.92
186.118	24.92
186.338	41.3
186.557	35.16
186.777	-28.33
186.997	63.83
187.216	35.16
187.436	141.65
187.655	98.64
187.875	26.96
188.095	49.49
188.314	-44.71
188.534	51.54
188.753	4.44
188.973	74.07
189.192	76.12
189.412	-7.85
189.631	41.3
189.851	96.6
190.07	72.02
190.29	-9.9
190.509	24.92
190.729	61.78
190.948	86.36
191.168	125.27
191.387	43.35
191.607	12.63
191.826	51.54
192.045	94.55
192.265	135.51
192.484	65.88
192.704	-24.23
192.923	-13.99
193.142	61.78
193.362	110.93
193.581	110.93
193.8	86.36
194.02	33.11
194.239	76.12
194.458	-3.75
194.678	80.21
194.897	51.54
195.116	0.34
195.335	65.88
195.555	90.45
195.774	6.49
195.993	57.68
196.212	22.87
196.432	0.34
196.651	41.3
196.87	6.49
197.089	106.84
197.308	55.64
197.528	-7.85
197.747	-20.14
197.966	98.64
198.185	47.44
198.404	41.3
198.623	80.21
198.842	61.78
199.062	51.54
199.281	-22.19
199.5	20.82
199.719	37.2
199.938	65.88
200.157	63.83
200.376	39.25
200.595	94.55
200.814	-28.33
201.033	24.92
201.252	110.93
201.471	84.31
201.69	76.12
201.909	53.59
202.128	6.49
202.347	80.21
202.566	18.77
202.785	47.44
203.004	51.54
203.223	121.17
203.442	53.59
203.661	-85.67
203.879	24.92
204.098	29.01
204.317	84.31
204.536	74.07
204.755	47.44
204.974	16.73
205.193	78.16
205.411	61.78
205.63	24.92
205.849	49.49
206.068	43.35
206.287	0.34
206.505	69.97
206.724	41.3
206.943	-22.19
207.162	86.36
207.381	102.74
207.599	26.96
207.818	-18.09
208.037	-5.8
208.255	92.5
208.474	80.21
208.693	43.35
208.911	2.39
209.13	-7.85
209.349	51.54
209.567	-16.04
209.786	84.31
210.005	84.31
210.223	14.68
210.442	-11.95
210.661	63.83
210.879	2.39
211.098	65.88
211.316	14.68
211.535	133.46
211.753	-13.99
211.972	-44.71
212.191	37.2
212.409	4.44
212.628	0.34
212.846	-73.39
213.065	22.87
213.283	51.54
213.502	20.82
213.72	49.49
213.938	69.97
214.157	16.73
214.375	123.22
214.594	117.08
214.812	82.26
215.031	59.73
215.249	61.78
215.467	39.25
215.686	2.39
215.904	61.78
216.122	100.69
216.341	59.73
216.559	-73.39
216.778	74.07
216.996	18.77
217.214	45.4
217.432	74.07
217.651	4.44
217.869	-16.04
218.087	92.5
218.306	-7.85
218.524	84.31
218.742	90.45
218.96	4.44
219.179	-3.75
219.397	61.78
219.615	100.69
219.833	24.92
220.051	-22.19
220.27	57.68
220.488	139.6
220.706	41.3
220.924	35.16
221.142	67.92
221.36	82.26
221.578	37.2
221.796	55.64
222.015	96.6
222.233	49.49
222.451	8.53
222.669	4.44
222.887	110.93
223.105	84.31
223.323	0.34
223.541	45.4
223.759	110.93
223.977	18.77
224.195	39.25
224.413	49.49
224.631	76.12
224.849	98.64
225.067	127.32
225.285	49.49
225.503	53.59
225.721	33.11
225.939	45.4
226.157	63.83
226.375	127.32
226.592	67.92
226.81	47.44
227.028	24.92
227.246	33.11
227.464	55.64
227.682	4.44
227.9	67.92
228.117	76.12
228.335	26.96
228.553	22.87
228.771	65.88
228.989	39.25
229.206	57.68
229.424	16.73
229.642	47.44
229.86	45.4
230.077	92.5
230.295	41.3
230.513	20.82
230.731	100.69
230.948	41.3
231.166	80.21
231.384	-3.75
231.601	6.49
231.819	123.22
232.037	20.82
232.254	39.25
232.472	51.54
232.689	10.58
232.907	41.3
233.125	18.77
233.342	55.64
233.56	4.44
233.777	33.11
233.995	49.49
234.213	57.68
234.43	90.45
234.648	14.68
234.865	0.34
235.083	-30.38
235.3	33.11
235.518	-16.04
235.735	74.07
235.953	94.55
236.17	35.16
236.388	2.39
236.605	125.27
236.822	94.55
237.04	106.84
237.257	41.3
237.475	24.92
237.692	-5.8
237.909	74.07
238.127	61.78
238.344	69.97
238.562	57.68
238.779	-42.67
238.996	-34.47
239.214	65.88
239.431	88.4
239.648	74.07
239.865	55.64
240.083	49.49
240.3	24.92
240.517	37.2
240.735	45.4
240.952	26.96
241.169	61.78
241.386	80.21
241.603	35.16
241.821	14.68
242.038	16.73
242.255	74.07
242.472	41.3
242.689	29.01
242.907	69.97
243.124	14.68
243.341	10.58
243.558	16.73
243.775	26.96
243.992	24.92
244.209	76.12
244.426	127.32
244.643	0.34
244.86	22.87
245.078	24.92
245.295	84.31
245.512	53.59
245.729	16.73
245.946	151.89
246.163	59.73
246.38	125.27
246.597	67.92
246.814	63.83
247.031	29.01
247.248	20.82
247.464	16.73
247.681	102.74
247.898	10.58
248.115	53.59
248.332	47.44
248.549	41.3
248.766	82.26
248.983	41.3
249.2	65.88
249.417	49.49
249.633	29.01
249.85	18.77
250.067	12.63
250.284	65.88
250.501	115.03
250.717	57.68
250.934	-26.28
251.151	82.26
251.368	24.92
251.585	18.77
251.801	72.02
252.018	-32.43
252.235	155.99
252.451	8.53
252.668	20.82
252.885	49.49
253.102	37.2
253.318	29.01
253.535	24.92
253.752	12.63
253.968	149.84
254.185	-24.23
254.401	10.58
254.618	41.3
254.835	-5.8
255.051	94.55
255.268	33.11
255.484	96.6
255.701	74.07
255.917	76.12
256.134	-20.14
256.351	61.78
256.567	41.3
256.784	76.12
257	53.59
257.217	43.35
257.433	100.69
257.65	72.02
257.866	72.02
258.082	47.44
258.299	-26.28
258.515	51.54
258.732	51.54
258.948	94.55
259.165	98.64
259.381	33.11
259.597	127.32
259.814	24.92
260.03	69.97
260.246	0.34
260.463	78.16
260.679	31.06
260.895	-36.52
261.112	82.26
261.328	45.4
261.544	4.44
261.761	110.93
261.977	78.16
262.193	76.12
262.409	57.68
262.626	43.35
262.842	65.88
263.058	16.73
263.274	88.4
263.49	22.87
263.707	102.74
263.923	78.16
264.139	78.16
264.355	96.6
264.571	67.92
264.787	31.06
265.004	106.84
265.22	57.68
265.436	35.16
265.652	31.06
265.868	94.55
266.084	137.56
266.3	-59.05
266.516	43.35
266.732	24.92
266.948	24.92
267.164	45.4
267.38	102.74
267.596	78.16
267.812	72.02
268.028	59.73
268.244	41.3
268.46	41.3
268.676	24.92
268.892	24.92
269.108	45.4
269.324	18.77
269.54	12.63
269.756	31.06
269.972	-9.9
270.188	76.12
270.403	24.92
270.619	49.49
270.835	84.31
271.051	59.73
271.267	20.82
271.483	-9.9
271.698	139.6
271.914	20.82
272.13	51.54
272.346	39.25
272.562	69.97
272.777	59.73
272.993	80.21
273.209	12.63
273.425	90.45
273.64	49.49
273.856	100.69
274.072	37.2
274.287	-3.75
274.503	96.6
274.719	47.44
274.934	67.92
275.15	-16.04
275.366	94.55
275.581	10.58
275.797	43.35
276.012	45.4
276.228	-20.14
276.444	-22.19
276.659	102.74
276.875	24.92
277.09	-11.95
277.306	155.99
277.521	26.96
277.737	72.02
277.952	37.2
278.168	53.59
278.383	-1.71
278.599	-24.23
278.814	135.51
279.03	49.49
279.245	80.21
279.461	61.78
279.676	41.3
279.892	-59.05
280.107	29.01
280.322	20.82
280.538	82.26
280.753	86.36
280.969	51.54
281.184	2.39
281.399	123.22
281.615	33.11
281.83	49.49
282.045	-18.09
282.26	65.88
282.476	-7.85
282.691	41.3
282.906	61.78
283.122	20.82
283.337	-26.28
283.552	29.01
283.767	37.2
283.983	-16.04
284.198	65.88
284.413	0.34
284.628	41.3
284.843	49.49
285.058	67.92
285.274	65.88
285.489	16.73
285.704	69.97
285.919	-18.09
286.134	65.88
286.349	61.78
286.564	18.77
286.779	88.4
286.995	94.55
287.21	53.59
287.425	61.78
287.64	-40.62
287.855	47.44
288.07	57.68
288.285	94.55
288.5	43.35
288.715	69.97
288.93	39.25
289.145	43.35
289.36	80.21
289.575	41.3
289.79	74.07
290.004	57.68
290.219	14.68
290.434	59.73
290.649	82.26
290.864	-11.95
291.079	98.64
291.294	39.25
291.509	55.64
291.724	74.07
291.938	53.59
292.153	84.31
292.368	4.44
292.583	63.83
292.798	24.92
293.012	80.21
293.227	110.93
293.442	20.82
293.657	88.4
293.871	0.34
294.086	37.2
294.301	98.64
294.516	57.68
294.73	20.82
294.945	-18.09
295.16	67.92
295.374	92.5
295.589	47.44
295.804	-3.75
296.018	-20.14
296.233	59.73
296.447	4.44
296.662	33.11
296.877	18.77
297.091	69.97
297.306	16.73
297.52	22.87
297.735	-26.28
297.949	22.87
298.164	-18.09
298.378	88.4
298.593	0.34
298.807	39.25
299.022	115.03
299.236	31.06
299.451	20.82
299.665	20.82
299.88	33.11
300.094	12.63
300.309	8.53
300.523	76.12
300.737	125.27
300.952	-7.85
301.166	45.4
301.381	14.68
301.595	2.39
301.809	-26.28
302.024	8.53
302.238	33.11
302.452	76.12
302.667	57.68
302.881	92.5
303.095	37.2
303.309	102.74
303.524	12.63
303.738	22.87
303.952	29.01
304.166	55.64
304.381	-36.52
304.595	84.31
304.809	55.64
305.023	45.4
305.237	24.92
305.452	100.69
305.666	69.97
305.88	102.74
306.094	133.46
306.308	78.16
306.522	86.36
306.736	88.4
306.95	26.96
307.164	106.84
307.379	29.01
307.593	110.93
307.807	78.16
308.021	94.55
308.235	53.59
308.449	-52.91
308.663	39.25
308.877	90.45
309.091	90.45
309.305	74.07
309.519	8.53
309.733	92.5
309.947	14.68
310.161	78.16
310.374	82.26
310.588	112.98
310.802	-7.85
311.016	41.3
311.23	16.73
311.444	24.92
311.658	86.36
311.872	8.53
312.085	98.64
312.299	41.3
312.513	39.25
312.727	59.73
312.941	39.25
313.154	-7.85
313.368	-5.8
313.582	49.49
313.796	43.35
314.009	59.73
314.223	74.07
314.437	72.02
314.651	-40.62
314.864	-18.09
315.078	110.93
315.292	-5.8
315.505	41.3
315.719	33.11
315.933	53.59
316.146	-11.95
316.36	22.87
316.573	108.88
316.787	137.56
317.001	45.4
317.214	26.96
317.428	63.83
317.641	51.54
317.855	39.25
318.068	49.49
318.282	98.64
318.495	65.88
318.709	37.2
318.922	86.36
319.136	39.25
319.349	102.74
319.563	76.12
319.776	49.49
319.99	2.39
320.203	24.92
320.417	55.64
320.63	82.26
320.843	53.59
321.057	104.79
321.27	6.49
321.483	74.07
321.697	14.68
321.91	72.02
322.124	57.68
322.337	53.59
322.55	39.25
322.763	41.3
322.977	63.83
323.19	-34.47
323.403	8.53
323.617	67.92
323.83	69.97
324.043	0.34
324.256	26.96
324.469	43.35
324.683	102.74
324.896	43.35
325.109	74.07
325.322	55.64
325.535	45.4
325.748	108.88
325.962	104.79
326.175	45.4
326.388	104.79
326.601	61.78
326.814	88.4
327.027	35.16
327.24	100.69
327.453	24.92
327.666	65.88
327.879	24.92
328.092	45.4
328.305	90.45
328.518	29.01
328.731	18.77
328.944	33.11
329.157	24.92
329.37	37.2
329.583	96.6
329.796	74.07
330.009	55.64
330.222	55.64
330.435	51.54
330.648	61.78
330.861	74.07
331.073	96.6
331.286	37.2
331.499	57.68
331.712	57.68
331.925	16.73
332.138	35.16
332.35	141.65
332.563	14.68
332.776	63.83
332.989	4.44
333.202	51.54
333.414	106.84
333.627	29.01
333.84	33.11
334.053	92.5
334.265	24.92
334.478	45.4
334.691	57.68
334.903	20.82
335.116	37.2
335.329	86.36
335.541	57.68
335.754	76.12
335.966	-24.23
336.179	26.96
336.392	0.34
336.604	41.3
336.817	22.87
337.029	102.74
337.242	49.49
337.454	0.34
337.667	55.64
337.88	86.36
338.092	22.87
338.305	41.3
338.517	33.11
338.729	20.82
338.942	92.5
339.154	53.59
339.367	-20.14
339.579	92.5
339.792	49.49
340.004	100.69
340.217	69.97
340.429	29.01
340.641	104.79
340.854	80.21
341.066	74.07
341.278	135.51
341.491	92.5
341.703	45.4
341.915	29.01
342.128	6.49
342.34	51.54
342.552	35.16
342.764	31.06
342.977	72.02
343.189	53.59
343.401	57.68
343.613	16.73
343.826	39.25
344.038	-9.9
344.25	43.35
344.462	82.26
344.674	51.54
344.886	84.31
345.099	43.35
345.311	37.2
345.523	41.3
345.735	-52.91
345.947	115.03
346.159	78.16
346.371	63.83
346.583	-18.09
346.795	104.79
347.007	45.4
347.219	137.56
347.431	65.88
347.643	69.97
347.855	8.53
348.067	0.34
348.279	-42.67
348.491	82.26
348.703	61.78
348.915	84.31
349.127	45.4
349.339	104.79
349.551	39.25
349.763	86.36
349.975	86.36
350.187	-9.9
350.399	92.5
350.61	94.55
350.822	104.79
351.034	69.97
351.246	78.16
351.458	92.5
351.669	6.49
351.881	57.68
352.093	45.4
352.305	82.26
352.517	94.55
352.728	49.49
352.94	61.78
353.152	98.64
353.363	49.49
353.575	98.64
353.787	-16.04
353.999	106.84
354.21	92.5
354.422	22.87
354.633	43.35
354.845	59.73
355.057	84.31
355.268	18.77
355.48	57.68
355.692	102.74
355.903	55.64
356.115	53.59
356.326	43.35
356.538	86.36
356.749	45.4
356.961	117.08
357.172	65.88
357.384	53.59
357.595	117.08
357.807	6.49
358.018	67.92
358.23	53.59
358.441	139.6
358.653	72.02
358.864	59.73
359.075	16.73
359.287	-57
359.498	88.4
359.709	2.39
359.921	41.3
360.132	57.68
360.344	18.77
360.555	135.51
360.766	106.84
360.977	149.84
361.189	123.22
361.4	-13.99
361.611	-11.95
361.823	94.55
362.034	61.78
362.245	61.78
362.456	26.96
362.667	86.36
362.879	78.16
363.09	29.01
363.301	18.77
363.512	102.74
363.723	-34.47
363.935	24.92
364.146	172.37
364.357	45.4
364.568	47.44
364.779	-44.71
364.99	112.98
365.201	6.49
365.412	82.26
365.623	-16.04
365.834	37.2
366.045	90.45
366.256	2.39
366.467	106.84
366.678	80.21
366.889	49.49
367.1	115.03
367.311	55.64
367.522	33.11
367.733	90.45
367.944	8.53
368.155	37.2
368.366	102.74
368.577	98.64
368.788	57.68
368.999	6.49
369.209	119.12
369.42	108.88
369.631	147.8
369.842	145.75
370.053	74.07
370.264	65.88
370.474	90.45
370.685	63.83
370.896	0.34
371.107	8.53
371.317	96.6
371.528	31.06
371.739	102.74
371.95	106.84
372.16	100.69
372.371	37.2
372.582	47.44
372.792	82.26
373.003	61.78
373.214	76.12
373.424	57.68
373.635	102.74
373.846	110.93
374.056	65.88
374.267	74.07
374.477	43.35
374.688	8.53
374.898	63.83
375.109	98.64
375.319	0.34
375.53	53.59
375.74	110.93
375.951	78.16
376.161	104.79
376.372	106.84
376.582	121.17
376.793	76.12
377.003	16.73
377.214	53.59
377.424	96.6
377.635	72.02
377.845	67.92
378.055	74.07
378.266	67.92
378.476	65.88
378.686	14.68
378.897	121.17
379.107	57.68
379.317	6.49
379.528	41.3
379.738	155.99
379.948	33.11
380.158	37.2
380.369	69.97
380.579	80.21
380.789	14.68
380.999	100.69
381.21	69.97
381.42	80.21
381.63	-34.47
381.84	55.64
382.05	72.02
382.261	110.93
382.471	155.99
382.681	65.88
382.891	69.97
383.101	96.6
383.311	47.44
383.521	84.31
383.731	16.73
383.941	63.83
384.151	80.21
384.361	94.55
384.571	20.82
384.781	55.64
384.991	98.64
385.201	90.45
385.411	82.26
385.621	117.08
385.831	78.16
386.041	133.46
386.251	24.92
386.461	49.49
386.671	160.08
386.881	63.83
387.091	110.93
387.301	82.26
387.511	22.87
387.72	135.51
387.93	88.4
388.14	123.22
388.35	82.26
388.56	45.4
388.769	137.56
388.979	43.35
389.189	2.39
389.399	24.92
389.609	37.2
389.818	112.98
390.028	72.02
390.238	76.12
390.447	33.11
390.657	123.22
390.867	49.49
391.076	47.44
391.286	96.6
391.496	137.56
391.705	31.06
391.915	147.8
392.125	108.88
392.334	29.01
392.544	26.96
392.753	117.08
392.963	47.44
393.172	55.64
393.382	76.12
393.591	86.36
393.801	102.74
394.01	74.07
394.22	104.79
394.429	65.88
394.639	158.03
394.848	125.27
395.058	35.16
395.267	123.22
395.477	61.78
395.686	10.58
395.895	112.98
396.105	143.7
396.314	106.84
396.524	78.16
396.733	74.07
396.942	149.84
397.152	90.45
397.361	115.03
397.57	129.36
397.78	121.17
397.989	59.73
398.198	180.56
398.407	192.85
398.617	143.7
398.826	133.46
399.035	96.6
399.244	184.66
399.453	90.45
399.663	115.03
399.872	203.09
400.081	41.3
400.29	172.37
400.499	86.36
400.708	164.18
400.917	51.54
401.127	196.95
401.336	137.56
401.545	184.66
401.754	160.08
401.963	121.17
402.172	170.32
402.381	155.99
402.59	170.32
402.799	135.51
403.008	133.46
403.217	162.13
403.426	102.74
403.635	74.07
403.844	100.69
404.053	139.6
404.262	141.65
404.471	192.85
404.68	147.8
404.888	174.42
405.097	176.47
405.306	180.56
405.515	155.99
405.724	190.8
405.933	215.38
406.142	141.65
406.35	182.61
406.559	131.41
406.768	143.7
406.977	221.52
407.185	231.76
407.394	305.49
407.603	229.71
407.812	213.33
408.02	246.1
408.229	268.63
408.438	239.95
408.646	192.85
408.855	213.33
409.064	250.19
409.272	291.15
409.481	262.48
409.69	381.26
409.898	285.01
410.107	242
410.315	371.02
410.524	254.29
410.733	393.55
410.941	366.93
411.15	377.17
411.358	448.85
411.567	463.18
411.775	438.61
411.984	422.22
412.192	483.66
412.401	543.05
412.609	481.61
412.818	579.92
413.026	557.39
413.234	559.44
413.443	553.29
413.651	532.81
413.86	659.79
414.068	713.03
414.276	665.93
414.485	680.27
414.693	739.66
414.901	780.62
415.11	768.33
415.318	770.38
415.526	719.18
415.734	797
415.943	835.91
416.151	852.3
416.359	897.35
416.567	905.54
416.776	948.55
416.984	973.13
417.192	1036.61
417.4	1100.1
417.608	1081.67
417.817	1055.05
418.025	1184.07
418.233	1257.79
418.441	1184.07
418.649	1206.59
418.857	1335.62
419.065	1360.19
419.273	1308.99
419.481	1343.81
419.689	1444.16
419.897	1661.24
420.105	1567.04
420.313	1546.56
420.521	1788.22
420.729	1655.1
420.937	1820.99
421.145	1872.18
421.353	1900.86
421.561	1997.11
421.769	2052.41
421.977	2226.48
422.185	2220.34
422.393	2355.51
422.601	2400.56
422.809	2404.66
423.017	2421.04
423.224	2623.79
423.432	2462
423.64	2597.17
423.848	2810.15
424.056	2740.52
424.263	3002.66
424.471	2957.61
424.679	3098.92
424.887	3322.15
425.094	3449.12
425.302	3361.06
425.51	3477.79
425.718	3584.29
425.925	3615.01
426.133	3660.06
426.341	3979.54
426.548	4143.38
426.756	4237.59
426.964	4180.25
427.171	4321.56
427.379	4491.54
427.586	4714.77
427.794	4727.05
428.001	4950.28
428.209	5105.93
428.417	4976.91
428.624	5318.92
428.832	5398.79
429.039	5300.48
429.247	5320.96
429.454	5837.05
429.662	6258.93
429.869	5892.35
430.076	6349.04
430.284	6037.75
430.491	6224.12
430.699	6676.72
430.906	6760.69
431.114	6873.32
431.321	6928.62
431.528	7241.96
431.736	7733.47
431.943	8100.06
432.15	7966.94
432.358	7915.74
432.565	8243.42
432.772	8370.39
432.979	8724.69
433.187	8827.09
433.394	9099.47
433.601	9480.39
433.808	9576.64
434.016	9339.08
434.223	9851.07
434.43	10406.07
434.637	10221.75
434.844	10774.7
435.052	11270.31
435.259	11309.22
435.466	11210.92
435.673	11053.23
435.88	11645.09
436.087	12333.21
436.294	12544.15
436.501	12026.01
436.708	12486.81
436.915	12804.24
437.122	13203.6
437.329	13174.92
437.537	13713.54
437.743	13951.1
437.95	13697.16
438.157	14469.24
438.364	15034.48
438.571	15022.19
438.778	14958.71
438.985	16437.34
439.192	15773.8
439.399	16158.81
439.606	16078.94
439.813	16769.11
440.02	17993.79
440.227	17330.25
440.433	17143.89
440.64	18090.05
440.847	17539.15
441.054	18325.57
441.261	19800.1
441.467	19361.84
441.674	19793.96
441.881	20224.03
442.088	20168.74
442.294	19806.25
442.501	20537.37
442.708	20985.88
442.914	21944.33
443.121	22970.36
443.328	22210.56
443.534	23611.37
443.741	23080.95
443.948	22894.58
444.154	24578.01
444.361	24319.97
444.568	24221.67
444.774	24317.92
444.981	24766.43
445.187	25411.54
445.394	26163.14
445.6	26124.23
445.807	28618.66
446.013	27537.33
446.22	27901.87
446.426	28952.48
446.633	29300.63
446.839	29624.21
447.046	29155.22
447.252	30541.7
447.459	30607.23
447.665	30508.93
447.871	31401.85
448.078	32755.55
448.284	31448.95
448.491	32178.03
448.697	33318.74
448.903	33761.11
449.11	33490.77
449.316	33695.57
449.522	34142.03
449.728	34426.7
449.935	35137.34
450.141	34875.2
450.347	36187.95
450.553	34819.91
450.76	35436.34
450.966	35876.66
451.172	35850.03
451.378	36495.14
451.584	35886.9
451.791	36886.31
451.997	36792.1
452.203	37377.82
452.409	36990.75
452.615	36734.76
452.821	35272.51
453.027	35358.52
453.233	37084.96
453.44	35096.38
453.646	35870.51
453.852	36251.44
454.058	36566.82
454.264	35444.54
454.47	35821.36
454.676	35258.17
454.882	36472.62
455.088	33029.98
455.294	33675.09
455.5	33597.27
455.705	34555.72
455.911	32841.57
456.117	32401.25
456.323	31586.16
456.529	29671.31
456.735	31620.98
456.941	30670.72
457.147	30039.95
457.352	28899.23
457.558	28694.43
457.764	28843.93
457.97	28227.49
458.176	27971.5
458.381	27801.52
458.587	26412.99
458.793	26345.41
458.999	25104.34
459.204	26716.09
459.41	25864.14
459.616	24301.54
459.821	24193
460.027	24006.63
460.233	23650.28
460.438	22657.02
460.644	22865.91
460.85	21581.84
461.055	21260.3
461.261	21180.43
461.466	19789.86
461.672	19126.32
461.878	20477.98
462.083	19228.72
462.289	18806.84
462.494	18694.2
462.7	17903.68
462.905	17279.05
463.111	18059.33
463.316	18143.3
463.522	17764.42
463.727	17737.8
463.932	17496.14
464.138	17385.55
464.343	17524.81
464.549	17086.54
464.754	17602.63
464.959	17559.63
465.165	17360.97
465.37	16492.63
465.575	16287.84
465.781	16842.84
465.986	17186.9
466.191	16521.31
466.397	15915.11
466.602	15222.89
466.807	15820.9
467.012	16011.36
467.218	15638.63
467.423	15523.94
467.628	15741.03
467.833	16095.33
468.038	15667.3
468.244	15040.62
468.449	15835.24
468.654	15288.43
468.859	15243.37
469.064	15188.08
469.269	14489.72
469.474	14614.65
469.679	14944.37
469.885	14502.01
470.09	14645.37
470.295	14592.12
470.5	14178.43
470.705	14407.8
470.91	13994.11
471.115	13930.62
471.32	14180.48
471.525	13940.86
471.73	13508.74
471.935	13639.81
472.139	13127.82
472.344	13136.01
472.549	13129.87
472.754	13172.88
472.959	12646.55
473.164	12714.13
473.369	12189.85
473.574	12632.21
473.778	12538.01
473.983	12376.22
474.188	12513.43
474.393	12034.21
474.598	12011.68
474.802	11872.42
475.007	11616.42
475.212	11661.48
475.417	11204.78
475.621	11444.39
475.826	11491.49
476.031	11014.32
476.235	10934.45
476.44	11014.32
476.645	10846.38
476.849	10967.21
477.054	10555.57
477.259	10612.92
477.463	10461.37
477.668	10438.84
477.872	10408.12
478.077	10277.05
478.282	10039.48
478.486	9889.98
478.691	9763.01
478.895	9826.5
479.1	9867.45
479.304	9713.86
479.509	9627.84
479.713	9693.38
479.918	9412.81
480.122	9361.61
480.326	9617.6
480.531	9388.23
480.735	9398.47
480.94	9504.96
481.144	9523.4
481.348	8990.92
481.553	9210.06
481.757	9132.23
481.961	9187.53
482.166	9371.85
482.37	9269.45
482.574	9093.32
482.778	8976.59
482.983	9328.84
483.187	9156.81
483.391	9173.19
483.595	9011.4
483.8	9044.17
484.004	9146.57
484.208	9298.12
484.412	9154.76
484.616	9126.09
484.821	9205.96
485.025	8992.97
485.229	9298.12
485.433	9105.61
485.637	9199.82
485.841	8986.83
486.045	9066.7
486.249	8995.02
486.453	9228.49
486.657	9144.52
486.861	9152.71
487.065	8943.82
487.269	9056.46
487.473	8782.03
487.677	9058.51
487.881	9322.7
488.085	8984.78
488.289	9148.62
488.493	9142.47
488.697	9246.92
488.901	9390.28
489.105	9212.1
489.309	9183.43
489.512	9318.6
489.716	9246.92
489.92	9140.43
490.124	9103.56
490.328	9294.02
490.531	9240.78
490.735	9308.36
490.939	9423.05
491.143	9341.13
491.346	9332.93
491.55	9482.44
491.754	9468.1
491.958	9439.43
492.161	9568.45
492.365	9664.71
492.569	9715.91
492.772	9599.17
492.976	9687.23
493.18	9750.72
493.383	9961.66
493.587	9930.94
493.79	10109.12
493.994	9791.68
494.197	10133.69
494.401	10070.2
494.605	10035.39
494.808	10225.85
495.012	10395.83
495.215	10401.97
495.419	10500.28
495.622	10512.56
495.825	10508.47
496.029	10633.4
496.232	10969.26
496.436	10879.15
496.639	11112.62
496.843	10907.82
497.046	11301.03
497.249	11337.9
497.453	11460.77
497.656	11542.69
497.859	11557.03
498.063	11722.91
498.266	11878.56
498.469	12017.82
498.673	12157.08
498.876	12345.5
499.079	12413.08
499.282	12456.09
499.485	12675.22
499.689	12882.06
499.892	12914.83
500.095	13035.66
500.298	13398.15
500.501	12988.56
500.705	13537.41
500.908	13463.69
501.111	13666.44
501.314	13811.84
501.517	14041.22
501.72	14205.05
501.923	14299.26
502.126	14403.71
502.329	14671.99
502.532	14600.31
502.735	14856.31
502.938	15384.68
503.141	15245.42
503.344	15546.47
503.547	15507.56
503.75	15876.2
503.953	15825
504.156	16009.31
504.359	16408.67
504.562	16633.94
504.765	16937.04
504.968	16848.98
505.17	17158.22
505.373	17139.79
505.576	17551.43
505.779	17641.54
505.982	17868.87
506.185	18131.01
506.387	18294.85
506.59	18141.25
506.793	18741.3
506.996	18688.06
507.198	18935.86
507.401	18896.95
507.604	19161.14
507.807	19734.57
508.009	19990.56
508.212	20205.6
508.415	20428.83
508.617	20299.81
508.82	20721.69
509.022	20490.27
509.225	21145.62
509.428	21141.52
509.63	21583.88
509.833	21571.6
510.035	21929.99
510.238	21993.48
510.44	22235.14
510.643	22505.47
510.845	22808.57
511.048	22710.27
511.25	23228.4
511.453	23013.37
511.655	24176.61
511.858	23609.33
512.06	23988.2
512.262	24172.52
512.465	24162.28
512.667	24541.15
512.87	25126.87
513.072	24893.4
513.274	25468.88
513.477	25604.05
513.679	25851.85
513.881	26302.4
514.084	26517.44
514.286	26300.36
514.488	26572.74
514.69	27629.49
514.893	27871.15
515.095	27690.93
515.297	28067.75
515.499	28196.78
515.701	28782.49
515.904	28942.24
516.106	28839.84
516.308	29325.21
516.51	29493.14
516.712	29650.83
516.914	30005.13
517.116	30230.41
517.318	30416.77
517.52	30928.77
517.722	30877.57
517.925	31278.97
518.127	31686.51
518.329	32094.06
518.531	31889.26
518.733	32687.97
518.935	32866.14
519.136	32720.74
519.338	33337.18
519.54	33478.49
519.742	33539.93
519.944	34107.21
520.146	34223.95
520.348	34750.28
520.55	34979.65
520.752	35059.52
520.954	35811.12
521.155	34955.07
521.357	35981.1
521.559	36331.31
521.761	36626.21
521.963	36800.29
522.164	36906.79
522.366	37515.03
522.568	37768.98
522.77	37594.9
522.971	38358.8
523.173	38178.57
523.375	38563.59
523.576	38674.18
523.778	38971.14
523.98	39274.24
524.181	39364.35
524.383	39261.95
524.584	39696.12
524.786	40052.47
524.988	39864.05
525.189	40224.5
525.391	40834.79
525.592	40908.52
525.794	40779.5
525.995	41070.31
526.197	41193.18
526.398	41891.54
526.6	41676.51
526.801	41772.76
527.003	41926.36
527.204	42245.84
527.406	42667.72
527.607	42075.86
527.808	42903.24
528.01	42247.89
528.211	43531.97
528.412	43595.45
528.614	43519.68
528.815	43456.19
529.016	44187.32
529.218	43574.97
529.419	43898.55
529.62	43833.02
529.822	43681.47
530.023	44123.83
530.224	44224.18
530.425	43888.31
530.626	44103.35
530.828	44435.12
531.029	45080.23
531.23	44361.39
531.431	44506.8
531.632	45000.36
531.833	44768.94
532.035	44951.21
532.236	45082.28
532.437	45469.34
532.638	45319.84
532.839	45426.34
533.04	45233.83
533.241	45229.73
533.442	45403.81
533.643	45199.01
533.844	45493.92
534.045	45602.46
534.246	45250.21
534.447	45813.4
534.648	45665.95
534.849	45416.1
535.05	45602.46
535.251	45624.99
535.451	45360.8
535.652	46071.45
535.853	45840.03
536.054	46319.25
536.255	46280.34
536.456	45733.53
536.657	46683.79
536.857	45504.16
537.058	45909.66
537.259	46343.83
537.46	46044.82
537.66	45809.31
537.861	46102.17
538.062	46042.77
538.263	46212.76
538.463	45653.66
538.664	46081.69
538.865	46231.19
539.065	46616.21
539.266	45602.46
539.466	46419.6
539.667	45524.64
539.868	46818.95
540.068	46091.93
540.269	46016.15
540.469	46536.34
540.67	45719.2
540.87	46194.32
541.071	45778.59
541.271	46614.16
541.472	45952.66
541.672	46018.2
541.873	45840.03
542.073	45428.38
542.274	46618.25
542.474	46188.18
542.675	45739.68
542.875	46677.65
543.075	45995.67
543.276	45780.63
543.476	46544.53
543.676	45989.53
543.877	46505.62
544.077	46028.44
544.277	46167.7
544.478	46057.11
544.678	46288.53
544.878	45913.75
545.078	46220.95
545.279	45485.73
545.479	46044.82
545.679	46073.49
545.879	45962.9
546.079	46075.54
546.28	46204.56
546.48	45444.77
546.68	46169.75
546.88	46530.19
547.08	46024.34
547.28	45684.38
547.48	45340.32
547.68	46026.39
547.88	45833.88
548.081	45999.77
548.281	45676.19
548.481	45772.44
548.681	45846.17
548.881	45872.79
549.081	45948.57
549.28	45657.76
549.48	46073.49
549.68	45903.51
549.88	46136.98
550.08	45303.46
550.28	46147.22
550.48	45739.68
550.68	46278.29
550.88	45541.02
551.08	46257.81
551.279	46233.24
551.479	45563.55
551.679	45534.88
551.879	45885.08
552.079	45897.37
552.278	45565.6
552.478	45450.91
552.678	45657.76
552.878	45950.62
553.077	45668
553.277	45344.42
553.477	46311.06
553.676	45584.03
553.876	45749.92
554.076	45078.18
554.275	45622.94
554.475	44869.29
554.674	45418.14
554.874	45735.58
555.074	45512.35
555.273	45512.35
555.473	45805.21
555.672	45158.05
555.872	45168.29
556.071	45557.41
556.271	45282.98
556.47	45057.7
556.67	44947.11
556.869	44943.02
557.068	45192.87
557.268	44625.58
557.467	44789.42
557.667	44658.35
557.866	45076.13
558.065	44601
558.265	44697.26
558.464	44310.19
558.663	45024.93
558.863	44205.75
559.062	45053.61
559.261	43951.8
559.461	44584.62
559.66	44050.1
559.859	44095.16
560.058	44009.14
560.258	44304.05
560.457	43722.43
560.656	43953.85
560.855	43558.59
561.054	44099.25
561.253	43357.89
561.453	43878.07
561.652	43771.58
561.851	43667.13
562.05	43413.18
562.249	43161.28
562.448	43382.46
562.647	43325.12
562.846	43075.27
563.045	43273.92
563.244	42749.64
563.443	43304.64
563.642	42225.36
563.841	42964.68
564.04	42524.36
564.239	42854.09
564.438	42176.21
564.637	42677.96
564.836	42591.95
565.035	42137.3
565.234	42012.37
565.432	41936.6
565.631	41608.92
565.83	42008.28
566.029	41750.23
566.228	41522.91
566.427	41690.84
566.625	41578.2
566.824	41297.63
567.023	41840.34
567.222	40953.57
567.42	41541.34
567.619	41154.27
567.818	41141.99
568.016	40832.74
568.215	40802.02
568.414	40718.06
568.612	41023.2
568.811	40519.4
569.01	40605.42
569.208	40230.64
569.407	40382.19
569.605	39810.81
569.804	40292.08
570.002	39464.7
570.201	40019.7
570.4	39364.35
570.598	39702.26
570.797	39155.46
570.995	39767.8
571.193	38930.18
571.392	39184.13
571.59	39016.19
571.789	38973.19
571.987	38774.53
572.186	38414.09
572.384	38301.45
572.582	38895.36
572.781	38346.51
572.979	38070.03
573.177	38520.59
573.376	38002.45
573.574	38010.64
573.772	38065.94
573.971	37951.25
574.169	37566.23
574.367	37414.68
574.565	37627.67
574.763	36755.24
574.962	37371.68
575.16	36728.61
575.358	37150.49
575.556	36546.34
575.754	37279.52
575.952	36333.35
576.151	37097.25
576.349	36454.19
576.547	36742.95
576.745	36800.29
576.943	36484.9
577.141	36249.39
577.339	36362.03
577.537	36341.55
577.735	35882.8
577.933	36022.06
578.131	36003.63
578.329	35419.96
578.527	35563.32
578.725	35768.12
578.923	35712.82
579.121	35460.92
579.319	35182.4
579.516	35333.95
579.714	35233.6
579.912	34795.33
580.11	34834.24
580.308	34959.17
580.506	34686.79
580.704	33847.12
580.901	34799.43
581.099	34627.4
581.297	33689.43
581.495	33959.76
581.692	34215.76
581.89	34086.73
582.088	33843.02
582.285	33814.35
582.483	33709.91
582.681	33441.62
582.878	33537.88
583.076	33075.04
583.274	33644.37
583.471	33255.26
583.669	33308.51
583.866	33277.79
584.064	33236.83
584.262	32542.56
584.459	33249.11
584.657	32305
584.854	32997.21
585.052	32526.18
585.249	32773.99
585.447	32532.32
585.644	31975.28
585.841	31975.28
586.039	32429.93
586.236	31680.37
586.434	31897.45
586.631	31827.82
586.828	31442.81
587.026	31958.89
587.223	31461.24
587.42	31473.53
587.618	31037.31
587.815	30959.48
588.012	31022.97
588.21	31033.21
588.407	31272.82
588.604	30916.48
588.801	30629.76
588.999	30740.35
589.196	30625.67
589.393	30568.32
589.59	30623.62
589.787	30328.71
589.984	30091.15
590.182	29607.83
590.379	30107.53
590.576	29935.5
590.773	29917.07
590.97	29722.51
591.167	29431.7
591.364	29544.34
591.561	29611.92
591.758	29138.84
591.955	29271.96
592.152	29265.81
592.349	28989.34
592.546	29083.55
592.743	28788.64
592.94	28381.09
593.137	28886.94
593.334	29003.67
593.531	28669.86
593.727	28575.65
593.924	28237.73
594.121	28346.28
594.318	28409.76
594.515	27871.15
594.712	28360.61
594.908	27987.88
595.105	28284.84
595.302	27707.31
595.499	27832.24
595.696	27510.71
595.892	27250.61
596.089	27858.86
596.286	27484.08
596.482	27482.03
596.679	27387.83
596.876	27310
597.072	27144.12
597.269	27312.05
597.466	26869.69
597.662	26828.73
597.859	26693.57
598.055	26886.08
598.252	26636.22
598.448	26564.54
598.645	26841.02
598.841	26243.01
599.038	26267.59
599.234	26427.33
599.431	25933.77
599.627	26017.74
599.824	26111.94
600.02	25767.88
600.217	25919.43
600.413	25860.04
600.609	25581.52
600.806	25352.15
601.002	25368.53
601.198	25223.12
601.395	25675.73
601.591	25358.29
601.787	25165.78
601.984	24965.08
602.18	25255.89
602.376	24739.8
602.572	24856.54
602.769	24987.61
602.965	24768.48
603.161	24625.12
603.357	24395.75
603.553	24432.61
603.75	24567.77
603.946	23928.81
604.142	24371.17
604.338	23996.39
604.534	24336.35
604.73	23918.57
604.926	23947.24
605.122	24063.97
605.318	24039.4
605.514	23506.93
605.71	23502.83
605.906	23912.42
606.102	23588.85
606.298	23451.63
606.494	23494.64
606.69	23392.24
606.886	23439.34
607.082	23046.13
607.278	23533.55
607.474	22886.39
607.67	23308.27
607.866	22730.75
608.062	23257.07
608.257	22857.72
608.453	22693.88
608.649	22677.5
608.845	22624.25
609.041	22783.99
609.236	22431.74
609.432	22648.83
609.628	22337.54
609.824	22556.67
610.019	22243.33
610.215	22093.83
610.411	22243.33
610.606	21987.33
610.802	22222.85
610.998	21966.85
611.193	22151.17
611.389	21886.98
611.584	21676.04
611.78	21825.54
611.976	21860.36
612.171	21673.99
612.367	21858.31
612.562	21643.28
612.758	21260.3
612.953	21282.83
613.149	21807.11
613.344	21432.33
613.539	21706.76
613.735	21549.07
613.93	21497.87
614.126	21477.39
614.321	21755.91
614.517	21202.96
614.712	21270.54
614.907	21022.74
615.103	21340.18
615.298	21039.12
615.493	21035.03
615.688	20887.57
615.884	21209.11
616.079	20695.07
616.274	20729.88
616.47	20652.06
616.665	20879.38
616.86	20766.74
617.055	20527.13
617.25	20512.8
617.445	20709.4
617.641	20109.35
617.836	20494.36
618.031	20396.06
618.226	20512.8
618.421	20095.01
618.616	20328.48
618.811	19914.79
619.006	20230.18
619.201	19707.94
619.396	19892.26
619.591	19611.69
619.786	19798.06
619.981	19685.42
620.176	19703.85
620.371	19392.56
620.566	19712.04
620.761	19191.86
620.956	19451.95
621.151	18890.81
621.346	19187.76
621.541	18675.77
621.735	18944.05
621.93	18542.65
622.125	18565.18
622.32	18376.76
622.515	18731.06
622.709	18454.59
622.904	18475.07
623.099	18364.48
623.294	18362.43
623.488	18253.89
623.683	18038.85
623.878	17776.71
624.072	17631.3
624.267	17989.7
624.462	17649.74
624.656	17662.02
624.851	17662.02
625.046	17338.44
625.24	17338.44
625.435	17057.87
625.629	16883.8
625.824	17205.33
626.018	17053.78
626.213	16597.08
626.407	16879.7
626.602	16537.69
626.796	16722.01
626.991	16437.34
627.185	16451.67
627.38	16257.12
627.574	16230.49
627.768	16203.87
627.963	16017.5
628.157	15898.72
628.352	15956.07
628.546	15542.38
628.74	16013.41
628.935	15435.88
629.129	15519.85
629.323	15515.75
629.517	15358.06
629.712	15173.74
629.906	15229.04
630.1	14891.12
630.294	15034.48
630.489	14825.59
630.683	15014
630.877	14913.65
631.071	14784.63
631.265	14631.03
631.459	14678.13
631.653	14499.96
631.848	14616.69
632.042	14497.91
632.236	14246.01
632.43	14180.48
632.624	14055.55
632.818	14098.56
633.012	13830.27
633.206	13881.47
633.4	13985.92
633.594	13688.96
633.788	13691.01
633.982	13547.65
634.176	13738.12
634.369	13426.82
634.563	13416.58
634.757	13215.88
634.951	13217.93
635.145	13400.2
635.339	13295.75
635.533	12894.35
635.726	12830.87
635.92	12763.28
636.114	12794
636.308	12832.91
636.501	12826.77
636.695	12847.25
636.889	12611.73
637.083	12419.22
637.276	12597.4
637.47	12413.08
637.664	12273.82
637.857	12146.84
638.051	12077.21
638.244	12103.84
638.438	12144.8
638.632	12032.16
638.825	11708.58
639.019	11907.23
639.212	11755.68
639.406	11702.43
639.599	11608.23
639.793	11589.8
639.986	11575.46
640.18	11546.79
640.373	11511.97
640.567	11165.87
640.76	11321.51
640.954	11395.24
641.147	11061.42
641.34	11067.56
641.534	10909.87
641.727	10932.4
641.92	10854.58
642.114	10614.96
642.307	10717.36
642.5	10748.08
642.694	10555.57
642.887	10563.76
643.08	10586.29
643.273	10617.01
643.467	10318.01
643.66	10326.2
643.853	10354.87
644.046	10240.19
644.239	10426.55
644.432	9875.65
644.626	10238.14
644.819	10066.11
645.012	10035.39
645.205	9961.66
645.398	9945.28
645.591	9724.1
645.784	9797.82
645.977	9552.07
646.17	9558.21
646.363	9619.65
646.556	9459.91
646.749	9511.11
646.942	9599.17
647.135	9339.08
647.328	9441.48
647.521	9298.12
647.714	9167.05
647.907	9257.16
648.099	9134.28
648.292	9058.51
648.485	9054.41
648.678	9085.13
648.871	9009.36
649.064	8784.08
649.256	8984.78
649.449	8794.32
649.642	8833.23
649.835	8841.42
650.027	8554.71
650.22	8397.01
650.413	8681.68
650.605	8454.36
650.798	8671.44
650.991	8280.28
651.183	8372.44
651.376	8351.96
651.568	8433.88
651.761	8315.09
651.954	8141.02
652.146	8347.86
652.339	8095.96
652.531	8087.77
652.724	8012
652.916	7782.62
653.109	8009.95
653.301	7925.98
653.494	7987.42
653.686	7794.91
653.879	7852.25
654.071	7686.37
654.263	7878.88
654.456	7930.08
654.648	7659.74
654.84	7571.68
655.033	7520.48
655.225	7520.48
655.417	7422.18
655.61	7571.68
655.802	7543.01
655.994	7442.66
656.186	7401.7
656.379	7164.14
656.571	7360.74
656.763	7059.69
656.955	7336.17
657.148	7219.43
657.34	6975.72
657.532	7119.08
657.724	7061.74
657.916	6963.44
658.108	6891.76
658.3	6871.28
658.492	7018.73
658.684	6854.89
658.876	6856.94
659.068	6891.76
659.26	6701.3
659.452	6807.79
659.644	6709.49
659.836	6680.82
660.028	6609.14
660.22	6451.44
660.412	6609.14
660.604	6578.42
660.796	6578.42
660.988	6404.34
661.18	6134.01
661.372	6465.78
661.563	6570.23
661.755	6353.14
661.947	6320.37
662.139	6308.09
662.331	6160.63
662.522	6207.73
662.714	6123.77
662.906	6000.89
663.097	6103.29
663.289	6047.99
663.481	5978.36
663.673	6095.1
663.864	5808.38
664.056	5912.83
664.247	5972.22
664.439	5751.04
664.631	5837.05
664.822	5808.38
665.014	5835
665.205	5703.93
665.397	5603.58
665.588	5794.04
665.78	5605.63
665.971	5617.92
666.163	5644.54
666.354	5652.74
666.546	5679.36
666.737	5560.58
666.929	5402.88
667.12	5521.67
667.311	5497.09
667.503	5484.8
667.694	5437.7
667.885	5304.58
668.077	5323.01
668.268	5245.19
668.459	5398.79
668.651	5314.82
668.842	5173.51
669.033	5038.34
669.224	5271.81
669.416	5183.75
669.607	5165.32
669.798	5044.49
669.989	5140.74
670.18	4972.81
670.371	4985.1
670.563	4950.28
670.754	5003.53
670.945	4937.99
671.136	4876.55
671.327	4944.14
671.518	4905.23
671.709	4882.7
671.9	4860.17
672.091	4755.72
672.282	4763.92
672.473	4743.44
672.664	4845.84
672.855	4536.59
673.046	4788.49
673.237	4706.57
673.428	4684.05
673.619	4677.9
673.809	4645.13
674	4579.6
674.191	4552.98
674.382	4686.09
674.573	4659.47
674.764	4565.26
674.954	4493.58
675.145	4450.58
675.336	4520.21
675.527	4421.91
675.717	4413.71
675.908	4403.47
676.099	4215.06
676.289	4493.58
676.48	4430.1
676.671	4299.03
676.861	4344.08
677.052	4235.54
677.243	4294.93
677.433	4362.51
677.624	4374.8
677.814	4303.12
678.005	4237.59
678.195	4081.94
678.386	4006.17
678.576	4251.92
678.767	4184.34
678.957	4104.47
679.148	4116.76
679.338	4073.75
679.529	4059.42
679.719	4180.25
679.909	4038.94
680.1	4061.46
680.29	4210.97
680.481	3954.97
680.671	4075.8
680.861	3868.95
681.052	3920.15
681.242	3938.59
681.432	4170.01
681.622	4034.84
681.813	3889.43
682.003	3909.91
682.193	3887.39
682.383	3993.88
682.573	3744.03
682.764	3789.08
682.954	3875.1
683.144	3942.68
683.334	3817.76
683.524	3809.56
683.714	3748.12
683.904	3801.37
684.094	3735.84
684.284	3760.41
684.474	3850.52
684.664	3768.6
684.854	3678.49
685.044	3741.98
685.234	3600.67
685.424	3604.77
685.614	3707.16
685.804	3709.21
685.994	3662.11
686.184	3758.36
686.374	3670.3
686.564	3547.42
686.753	3543.33
686.943	3469.6
687.133	3598.62
687.323	3522.85
687.513	3565.85
687.702	3547.42
687.892	3406.11
688.082	3438.88
688.272	3506.46
688.461	3459.36
688.651	3449.12
688.841	3445.02
689.03	3322.15
689.22	3318.05
689.41	3313.95
689.599	3354.91
689.789	3367.2
689.979	3279.14
690.168	3207.46
690.358	3266.85
690.547	3346.72
690.737	3305.76
690.926	3318.05
691.116	3301.67
691.305	3209.51
691.495	3123.49
691.684	3318.05
691.874	3367.2
692.063	3291.43
692.252	3207.46
692.442	3240.23
692.631	3121.45
692.82	3166.5
693.01	3246.37
693.199	3105.06
693.388	3031.34
693.578	3154.21
693.767	3191.08
693.956	3055.91
694.146	3166.5
694.335	3193.12
694.524	3232.04
694.713	3219.75
694.902	3207.46
695.092	3111.21
695.281	2955.56
695.47	3139.88
695.659	3033.38
695.848	3012.9
696.037	2982.18
696.226	2900.27
696.415	3076.39
696.604	3078.44
696.793	3098.92
696.982	3129.64
697.171	3150.12
697.36	3070.25
697.549	3004.71
697.738	2967.85
697.927	3051.81
698.116	3006.76
698.305	3098.92
698.494	2992.42
698.683	3055.91
698.872	3006.76
699.061	2973.99
699.25	2947.37
699.438	2939.18
699.627	3017
699.816	3035.43
700.005	2908.46
700.193	3019.05
700.382	2930.98
700.571	3014.95
700.76	3127.59
700.948	3064.1
701.137	2937.13
701.326	3064.1
701.514	2947.37
701.703	3029.29
701.892	2971.94
702.08	3014.95
702.269	3031.34
702.457	2965.8
702.646	3111.21
702.834	3088.68
703.023	2916.65
703.212	2855.21
703.4	2892.07
703.589	3017
703.777	2953.51
703.965	2992.42
704.154	2957.61
704.342	2935.08
704.531	3025.19
704.719	2992.42
704.907	2920.74
705.096	2928.94
705.284	2922.79
705.472	2961.7
705.661	2863.4
705.849	2953.51
706.037	2930.98
706.226	2918.7
706.414	3019.05
706.602	2879.79
706.79	2973.99
706.979	2918.7
707.167	2943.27
707.355	2836.78
707.543	3066.15
707.731	2910.5
707.919	2949.42
708.107	2978.09
708.296	2873.64
708.484	2863.4
708.672	2898.22
708.86	2933.03
709.048	2955.56
709.236	2980.14
709.424	2838.83
709.612	3017
709.8	2908.46
709.988	2924.84
710.176	2992.42
710.364	3002.66
710.551	2959.66
710.739	3033.38
710.927	2937.13
711.115	2978.09
711.303	3017
711.491	2957.61
711.679	2951.46
711.866	2916.65
712.054	3039.53
712.242	2971.94
712.43	3021.1
712.617	2783.53
712.805	2804.01
712.993	2894.12
713.181	2896.17
713.368	3012.9
713.556	2973.99
713.744	2922.79
713.931	2978.09
714.119	2916.65
714.306	2947.37
714.494	3074.34
714.682	3017
714.869	2875.69
715.057	2965.8
715.244	2902.31
715.432	2926.89
715.619	2928.94
715.807	2965.8
715.994	2818.35
716.182	2842.92
716.369	2973.99
716.556	2871.59
716.744	2892.07
716.931	2924.84
717.119	3035.43
717.306	3008.81
717.493	2947.37
717.681	2914.6
717.868	2978.09
718.055	2810.15
718.242	2824.49
718.43	2957.61
718.617	3111.21
718.804	2877.74
718.991	2879.79
719.179	2867.5
719.366	2887.98
719.553	2851.11
719.74	2875.69
719.927	2832.68
720.114	2830.63
720.301	2838.83
720.488	2865.45
720.676	2988.33
720.863	2855.21
721.05	2855.21
721.237	2677.04
721.424	2871.59
721.611	2720.04
721.798	2804.01
721.985	2773.29
722.172	2638.13
722.358	2822.44
722.545	2873.64
722.732	2810.15
722.919	2799.91
723.106	2818.35
723.293	2742.57
723.48	2877.74
723.667	2824.49
723.853	2765.1
724.04	2771.24
724.227	2752.81
724.414	2709.8
724.6	2677.04
724.787	2693.42
724.974	2859.31
725.161	2683.18
725.347	2658.6
725.534	2615.6
725.72	2783.53
725.907	2814.25
726.094	2722.09
726.28	2666.8
726.467	2713.9
726.653	2588.97
726.84	2597.17
727.027	2691.37
727.213	2646.32
727.4	2740.52
727.586	2685.23
727.773	2767.15
727.959	2664.75
728.145	2660.65
728.332	2619.69
728.518	2607.41
728.705	2611.5
728.891	2496.82
729.077	2613.55
729.264	2668.84
729.45	2562.35
729.636	2728.24
729.823	2681.13
730.009	2744.62
730.195	2644.27
730.382	2560.3
730.568	2554.16
730.754	2474.29
730.94	2476.34
731.126	2474.29
731.313	2650.41
731.499	2488.62
731.685	2457.9
731.871	2578.73
732.057	2490.67
732.243	2570.54
732.429	2507.06
732.615	2496.82
732.801	2558.25
732.987	2502.96
733.173	2507.06
733.359	2591.02
733.545	2459.95
733.731	2421.04
733.917	2468.14
734.103	2513.2
734.289	2449.71
734.475	2418.99
734.661	2541.87
734.847	2390.32
735.033	2425.14
735.219	2277.68
735.404	2367.79
735.59	2355.51
735.776	2265.39
735.962	2443.57
736.148	2386.22
736.333	2392.37
736.519	2318.64
736.705	2408.75
736.89	2314.55
737.076	2392.37
737.262	2206
737.447	2386.22
737.633	2310.45
737.819	2287.92
738.004	2255.15
738.19	2289.97
738.375	2253.11
738.561	2347.31
738.747	2210.1
738.932	2138.42
739.118	2310.45
739.303	2173.24
739.489	2261.3
739.674	2097.46
739.859	2273.59
740.045	2203.96
740.23	2171.19
740.416	2163
740.601	2216.24
740.786	2068.79
740.972	2130.23
741.157	2214.2
741.342	2160.95
741.528	2158.9
741.713	2150.71
741.898	2087.22
742.084	2148.66
742.269	2074.93
742.454	2117.94
742.639	2115.89
742.824	2160.95
743.01	2060.6
743.195	2031.93
743.38	2113.85
743.565	2029.88
743.75	2079.03
743.935	2005.3
744.12	2003.25
744.305	2025.78
744.49	2029.88
744.675	1925.43
744.86	1978.68
745.045	1999.16
745.23	1933.62
745.415	1911.1
745.6	1915.19
745.785	1892.66
745.97	1866.04
746.155	1837.37
746.34	2064.69
746.525	1810.75
746.71	1974.58
746.895	1849.66
747.079	1835.32
747.264	1818.94
747.449	1970.49
747.634	1880.38
747.819	1792.31
748.003	1851.71
748.188	1859.9
748.373	1786.17
748.557	1767.74
748.742	1722.68
748.927	1741.11
749.111	1628.48
749.296	1724.73
749.481	1646.91
749.665	1644.86
749.85	1628.48
750.034	1679.68
750.219	1659.2
750.404	1560.89
750.588	1687.87
750.773	1519.93
750.957	1491.26
751.141	1587.52
751.326	1562.94
751.51	1544.51
751.695	1515.84
751.879	1610.04
752.064	1558.85
752.248	1491.26
752.432	1497.41
752.617	1579.33
752.801	1505.6
752.985	1452.35
753.17	1499.45
753.354	1483.07
753.538	1474.88
753.722	1495.36
753.907	1515.84
754.091	1378.62
754.275	1485.12
754.459	1401.15
754.643	1456.45
754.828	1392.96
755.012	1425.73
755.196	1255.75
755.38	1392.96
755.564	1433.92
755.748	1276.23
755.932	1317.19
756.116	1329.47
756.3	1259.84
756.484	1296.71
756.668	1374.53
756.852	1237.31
757.036	1304.9
757.22	1302.85
757.404	1233.22
757.588	1212.74
757.772	1292.61
757.956	1335.62
758.14	1276.23
758.323	1251.65
758.507	1255.75
758.691	1184.07
758.875	1147.2
759.059	1245.51
759.242	1175.88
759.426	1222.98
759.61	1194.31
759.794	1282.37
759.977	1218.88
760.161	1225.03
760.345	1204.55
760.528	1233.22
760.712	1141.06
760.895	1132.87
761.079	1122.63
761.263	1104.2
761.446	1063.24
761.63	1024.33
761.813	1083.72
761.997	1139.01
762.18	1009.99
762.364	1065.29
762.547	1067.33
762.731	1040.71
762.914	1044.81
763.098	1057.09
763.281	1087.81
763.464	1087.81
763.648	1065.29
763.831	985.41
764.015	966.98
764.198	1032.52
764.381	1053
764.564	971.08
764.748	997.7
764.931	1061.19
765.114	1075.52
765.297	1040.71
765.481	989.51
765.664	1040.71
765.847	923.98
766.03	971.08
766.213	880.97
766.397	923.98
766.58	942.41
766.763	934.22
766.946	993.61
767.129	1055.05
767.312	913.74
767.495	907.59
767.678	909.64
767.861	991.56
768.044	979.27
768.227	987.46
768.41	885.06
768.593	1022.28
768.776	973.13
768.959	903.5
769.142	964.93
769.324	858.44
769.507	872.78
769.69	932.17
769.873	907.59
770.056	950.6
770.239	921.93
770.421	885.06
770.604	860.49
770.787	815.43
770.97	975.17
771.152	825.67
771.335	952.65
771.518	887.11
771.7	868.68
771.883	915.78
772.066	848.2
772.248	878.92
772.431	883.02
772.613	909.64
772.796	858.44
772.978	874.82
773.161	848.2
773.343	903.5
773.526	770.38
773.708	827.72
773.891	760.14
774.073	799.05
774.256	753.99
774.438	825.67
774.621	778.57
774.803	788.81
774.985	762.19
775.168	792.91
775.35	907.59
775.532	731.47
775.715	700.75
775.897	780.62
776.079	762.19
776.261	758.09
776.444	774.47
776.626	715.08
776.808	766.28
776.99	678.22
777.173	811.34
777.355	794.95
777.537	766.28
777.719	829.77
777.901	637.26
778.083	710.99
778.265	571.72
778.447	768.33
778.629	676.17
778.811	645.45
778.993	659.79
779.175	684.36
779.357	680.27
779.539	663.88
779.721	657.74
779.903	631.12
780.085	631.12
780.267	731.47
780.449	688.46
780.631	598.35
780.812	614.73
780.994	645.45
781.176	618.83
781.358	672.08
781.54	561.48
781.721	635.21
781.903	608.59
782.085	602.44
782.267	631.12
782.448	559.44
782.63	567.63
782.812	620.88
782.993	543.05
783.175	614.73
783.357	512.33
783.538	606.54
783.72	516.43
783.901	586.06
784.083	555.34
784.264	577.87
784.446	465.23
784.627	510.29
784.809	592.2
784.99	475.47
785.172	588.11
785.353	553.29
785.535	491.85
785.716	483.66
785.897	475.47
786.079	502.09
786.26	500.05
786.441	483.66
786.623	411.98
786.804	516.43
786.985	477.52
787.167	561.48
787.348	508.24
787.529	457.04
787.71	502.09
787.891	483.66
788.073	334.16
788.254	481.61
788.435	409.94
788.616	545.1
788.797	411.98
788.978	487.76
789.159	440.65
789.34	500.05
789.522	366.93
789.703	377.17
789.884	407.89
790.065	422.22
790.246	434.51
790.427	397.65
790.607	454.99
790.788	434.51
790.969	342.35
791.15	356.69
791.331	391.5
791.512	411.98
791.693	346.45
791.874	366.93
792.054	459.09
792.235	362.83
792.416	328.02
792.597	377.17
792.778	385.36
792.958	364.88
793.139	344.4
793.32	418.13
793.5	416.08
793.681	444.75
793.862	280.91
794.042	334.16
794.223	223.57
794.404	297.3
794.584	375.12
794.765	328.02
794.945	332.11
795.126	325.97
795.306	317.78
795.487	325.97
795.667	325.97
795.848	338.26
796.028	356.69
796.209	348.5
796.389	438.61
796.57	342.35
796.75	254.29
796.93	373.07
797.111	321.87
797.291	336.21
797.471	344.4
797.652	348.5
797.832	313.68
798.012	325.97
798.192	307.54
798.373	250.19
798.553	246.1
798.733	266.58
798.913	270.67
799.093	356.69
799.274	338.26
799.454	344.4
799.634	254.29
799.814	315.73
799.994	328.02
800.174	242
800.354	328.02
800.534	213.33
800.714	285.01
800.894	205.14
801.074	334.16
801.254	252.24
801.434	256.34
801.614	299.34
801.794	203.09
801.974	725.32
802.154	227.67
802.334	231.76
802.514	180.56
802.693	276.82
802.873	248.15
803.053	287.06
803.233	201.04
803.413	244.05
803.592	235.86
803.772	192.85
803.952	293.2
804.131	233.81
804.311	278.87
804.491	293.2
804.67	278.87
804.85	221.52
805.03	383.31
805.209	338.26
805.389	203.09
805.568	237.91
805.748	188.75
805.928	143.7
806.107	170.32
806.287	242
806.466	264.53
806.646	233.81
806.825	270.67
807.004	252.24
807.184	188.75
807.363	239.95
807.543	164.18
807.722	203.09
807.901	334.16
808.081	252.24
808.26	237.91
808.439	196.95
808.619	196.95
808.798	213.33
808.977	203.09
809.156	170.32
809.336	201.04
809.515	215.38
809.694	168.27
809.873	221.52
810.052	303.44
810.231	250.19
810.411	188.75
810.59	178.51
810.769	168.27
810.948	131.41
811.127	139.6
811.306	196.95
811.485	88.4
811.664	223.57
811.843	188.75
812.022	168.27
812.201	205.14
812.38	135.51
812.559	225.62
812.737	211.28
812.916	131.41
813.095	184.66
813.274	168.27
813.453	164.18
813.632	131.41
813.811	176.47
813.989	47.44
814.168	172.37
814.347	151.89
814.526	186.71
814.704	94.55
814.883	217.43
815.062	223.57
815.24	196.95
815.419	223.57
815.598	176.47
815.776	133.46
815.955	168.27
816.133	127.32
816.312	131.41
816.49	209.23
816.669	141.65
816.847	182.61
817.026	168.27
817.204	149.84
817.383	151.89
817.561	205.14
817.74	184.66
817.918	233.81
818.097	106.84
818.275	115.03
818.453	221.52
818.632	74.07
818.81	145.75
818.988	164.18
819.167	115.03
819.345	135.51
819.523	98.64
819.701	135.51
819.879	123.22
820.058	12.63
820.236	69.97
820.414	92.5
820.592	196.95
820.77	121.17
820.948	127.32
821.127	127.32
821.305	147.8
821.483	82.26
821.661	94.55
821.839	57.68
822.017	172.37
822.195	80.21
822.373	166.23
822.551	164.18
822.729	131.41
822.907	203.09
823.085	98.64
823.262	98.64
823.44	72.02
823.618	74.07
823.796	121.17
823.974	155.99
824.152	76.12
824.329	74.07
824.507	41.3
824.685	164.18
824.863	213.33
825.04	209.23
825.218	117.08
825.396	166.23
825.574	164.18
825.751	117.08
825.929	174.42
826.107	98.64
826.284	65.88
826.462	86.36
826.639	96.6
826.817	74.07
826.994	92.5
827.172	63.83
827.349	190.8
827.527	147.8
827.704	98.64
827.882	102.74
828.059	45.4
828.237	86.36
828.414	123.22
828.591	86.36
828.769	63.83
828.946	45.4
829.124	129.36
829.301	86.36
829.478	20.82
829.655	96.6
829.833	90.45
830.01	-7.85
830.187	92.5
830.364	102.74
830.542	180.56
830.719	160.08
830.896	98.64
831.073	84.31
831.25	106.84
831.427	74.07
831.604	47.44
831.782	37.2
831.959	65.88
832.136	57.68
832.313	151.89
832.49	90.45
832.667	102.74
832.844	69.97
833.021	147.8
833.198	86.36
833.374	63.83
833.551	74.07
833.728	106.84
833.905	143.7
834.082	106.84
834.259	57.68
834.436	137.56
834.612	51.54
834.789	117.08
834.966	6.49
835.143	57.68
835.319	108.88
835.496	67.92
835.673	51.54
835.85	98.64
836.026	139.6
836.203	74.07
836.38	90.45
836.556	90.45
836.733	22.87
836.909	158.03
837.086	110.93
837.262	65.88
837.439	24.92
837.616	29.01
837.792	61.78
837.968	90.45
838.145	121.17
838.321	92.5
838.498	100.69
838.674	121.17
838.851	59.73
839.027	143.7
839.203	41.3
839.38	98.64
839.556	41.3
839.732	80.21
839.909	72.02
840.085	22.87
840.261	37.2
840.437	125.27
840.614	53.59
840.79	69.97
840.966	57.68
841.142	110.93
841.318	76.12
841.494	86.36
841.671	57.68
841.847	33.11
842.023	65.88
842.199	82.26
842.375	51.54
842.551	12.63
842.727	76.12
842.903	41.3
843.079	10.58
843.255	141.65
843.431	94.55
843.607	102.74
843.783	84.31
843.959	-13.99
844.134	82.26
844.31	108.88
844.486	24.92
844.662	49.49
844.838	69.97
845.013	59.73
845.189	147.8
845.365	129.36
845.541	65.88
845.716	29.01
845.892	145.75
846.068	76.12
846.244	31.06
846.419	86.36
846.595	88.4
846.77	26.96
846.946	63.83
847.122	117.08
847.297	41.3
847.473	102.74
847.648	45.4
847.824	45.4
847.999	-7.85
848.175	53.59
848.35	24.92
848.526	162.13
848.701	78.16
848.876	82.26
849.052	141.65
849.227	137.56
849.403	63.83
849.578	55.64
849.753	16.73
849.929	53.59
850.104	29.01
850.279	45.4
850.454	80.21
850.63	59.73
850.805	100.69
850.98	84.31
851.155	31.06
851.33	43.35
851.505	39.25
851.681	117.08
851.856	16.73
852.031	-38.57
852.206	110.93
852.381	4.44
852.556	16.73
852.731	69.97
852.906	78.16
853.081	57.68
853.256	29.01
853.431	61.78
853.606	10.58
853.781	-20.14
853.956	49.49
854.131	141.65
854.305	-26.28
854.48	8.53
854.655	63.83
854.83	74.07
855.005	82.26
855.18	41.3
855.354	-40.62
855.529	82.26
855.704	-24.23
855.879	76.12
856.053	-32.43
856.228	41.3
856.403	-5.8
856.577	14.68
856.752	10.58
856.926	-7.85
857.101	33.11
857.276	63.83
857.45	31.06
857.625	84.31
857.799	65.88
857.974	4.44
858.148	6.49
858.323	80.21
858.497	49.49
858.672	-16.04
858.846	90.45
859.02	29.01
859.195	31.06
859.369	-36.52
859.543	18.77
859.718	33.11
859.892	12.63
860.066	33.11
860.241	16.73
860.415	-44.71
860.589	29.01
860.763	57.68
860.938	-5.8
861.112	16.73
861.286	24.92
861.46	78.16
861.634	16.73
861.808	82.26
861.982	-46.76
862.157	-28.33
862.331	55.64
862.505	72.02
862.679	-50.86
862.853	10.58
863.027	61.78
863.201	65.88
863.375	-16.04
863.549	2.39
863.722	74.07
863.896	16.73
864.07	43.35
864.244	57.68
864.418	80.21
864.592	-11.95
864.766	16.73
864.939	22.87
865.113	12.63
865.287	88.4
865.461	-48.81
865.634	-16.04
865.808	12.63
865.982	0.34
866.156	16.73
866.329	-22.19
866.503	65.88
866.676	55.64
866.85	-32.43
867.024	-61.1
867.197	96.6
867.371	90.45
867.544	57.68
867.718	-11.95
867.891	12.63
868.065	12.63
868.238	61.78
868.412	12.63
868.585	-73.39
868.759	106.84
868.932	55.64
869.105	16.73
869.279	24.92
869.452	61.78
869.625	61.78
869.799	26.96
869.972	8.53
870.145	35.16
870.319	65.88
870.492	-3.75
870.665	-28.33
870.838	-3.75
871.011	-20.14
871.185	12.63
871.358	78.16
871.531	12.63
871.704	57.68
871.877	26.96
872.05	43.35
872.223	8.53
872.396	31.06
872.569	4.44
872.742	-75.43
872.915	2.39
873.088	16.73
873.261	59.73
873.434	78.16
873.607	78.16
873.78	-1.71
873.953	82.26
874.126	72.02
874.299	-9.9
874.471	69.97
874.644	-18.09
874.817	10.58
874.99	24.92
875.163	39.25
875.335	-1.71
875.508	10.58
875.681	88.4
875.853	-20.14
876.026	57.68
876.199	37.2
876.371	98.64
876.544	-7.85
876.717	29.01
876.889	59.73
877.062	-28.33
877.234	-59.05
877.407	-63.15
877.579	96.6
877.752	20.82
877.924	22.87
878.097	94.55
878.269	49.49
878.442	74.07
878.614	26.96
878.786	-50.86
878.959	72.02
879.131	-44.71
879.303	-1.71
879.476	-50.86
879.648	57.68
879.82	39.25
879.993	16.73
880.165	139.6
880.337	12.63
880.509	8.53
880.681	-24.23
880.854	10.58
881.026	47.44
881.198	90.45
881.37	33.11
881.542	69.97
881.714	-11.95
881.886	65.88
882.058	-3.75
882.23	0.34
882.402	-40.62
882.574	53.59
882.746	72.02
882.918	2.39
883.09	82.26
883.262	-30.38
883.434	-95.91
883.606	0.34
883.778	-7.85
883.95	121.17
884.122	24.92
884.293	-26.28
884.465	14.68
884.637	53.59
884.809	-16.04
884.98	45.4
885.152	37.2
885.324	55.64
885.496	45.4
885.667	37.2
885.839	-11.95
886.011	86.36
886.182	16.73
886.354	4.44
886.525	69.97
886.697	-28.33
886.869	-38.57
887.04	12.63
887.212	69.97
887.383	47.44
887.555	-20.14
887.726	4.44
887.897	-36.52
888.069	8.53
888.24	37.2
888.412	-5.8
888.583	-20.14
888.754	-7.85
888.926	-20.14
889.097	41.3
889.268	29.01
889.44	98.64
889.611	-30.38
889.782	-75.43
889.953	18.77
890.125	24.92
890.296	37.2
890.467	80.21
890.638	-73.39
890.809	49.49
890.98	-1.71
891.151	4.44
891.323	-79.53
891.494	57.68
891.665	-1.71
891.836	63.83
892.007	14.68
892.178	0.34
892.349	20.82
892.52	22.87
892.691	-16.04
892.862	65.88
893.032	41.3
893.203	-30.38
893.374	-32.43
893.545	24.92
893.716	31.06
893.887	-18.09
894.057	-24.23
894.228	8.53
894.399	0.34
894.57	8.53
894.74	-1.71
894.911	20.82
895.082	4.44
895.253	-13.99
895.423	22.87
895.594	45.4
895.764	92.5
895.935	-7.85
896.106	31.06
896.276	-1.71
896.447	10.58
896.617	59.73
896.788	-46.76
896.958	4.44
897.129	94.55
897.299	-28.33
897.47	57.68
897.64	31.06
897.81	22.87
897.981	49.49
898.151	29.01
898.322	67.92
898.492	65.88
898.662	61.78
898.832	-44.71
899.003	-11.95
899.173	45.4
899.343	76.12
899.513	-48.81
