Data from USB4F104151__174__10-27-35-899.txt Node

Date: Wed Mar 12 10:27:35 EDT 2025
User: louis
Spectrometer: USB4F10415
Trigger mode: 4
Integration Time (sec): 3.000000E-2
Scans to average: 1
Electric dark correction enabled: true
Nonlinearity correction enabled: false
Boxcar width: 0
XAxis mode: Wavelengths
Number of Pixels in Spectrum: 3648
>>>>>Begin Spectral Data<<<<<
178.204	-132.26
178.424	-132.26
178.644	-132.26
178.864	-72.87
179.084	-113.83
179.304	4.95
179.524	-42.15
179.744	29.52
179.964	-5.29
180.184	-5.29
180.404	7
180.624	27.48
180.844	37.72
181.064	-107.69
181.283	50
181.503	-38.06
181.723	41.81
181.943	7
182.163	15.19
182.383	-27.82
182.602	68.44
182.822	21.33
183.042	72.53
183.262	39.76
183.482	-54.44
183.701	50
183.921	72.53
184.141	-13.48
184.361	13.14
184.58	64.34
184.8	74.58
185.02	84.82
185.239	19.29
185.459	-15.53
185.679	76.63
185.898	-38.06
186.118	72.53
186.338	43.86
186.557	9.05
186.777	-83.11
186.997	37.72
187.216	31.57
187.436	86.87
187.655	19.29
187.875	33.62
188.095	-31.91
188.314	60.24
188.534	86.87
188.753	4.95
188.973	4.95
189.192	50
189.412	25.43
189.631	-1.19
189.851	-19.63
190.07	52.05
190.29	2.9
190.509	23.38
190.729	13.14
190.948	50
191.168	119.64
191.387	0.85
191.607	9.05
191.826	76.63
192.045	9.05
192.265	43.86
192.484	80.72
192.704	136.02
192.923	-7.34
193.142	76.63
193.362	-21.67
193.581	56.15
193.8	27.48
194.02	43.86
194.239	62.29
194.458	-19.63
194.678	41.81
194.897	-17.58
195.116	-11.43
195.335	111.44
195.555	33.62
195.774	11.09
195.993	4.95
196.212	70.48
196.432	62.29
196.651	23.38
196.87	-15.53
197.089	27.48
197.308	33.62
197.528	97.11
197.747	-31.91
197.966	74.58
198.185	86.87
198.404	0.85
198.623	0.85
198.842	43.86
199.062	31.57
199.281	17.24
199.5	45.91
199.719	-21.67
199.938	86.87
200.157	86.87
200.376	29.52
200.595	19.29
200.814	35.67
201.033	19.29
201.252	33.62
201.471	-36.01
201.69	64.34
201.909	4.95
202.128	37.72
202.347	60.24
202.566	29.52
202.785	-5.29
203.004	37.72
203.223	41.81
203.442	72.53
203.661	90.96
203.879	33.62
204.098	47.96
204.317	-48.3
204.536	13.14
204.755	15.19
204.974	13.14
205.193	-1.19
205.411	101.2
205.63	4.95
205.849	27.48
206.068	29.52
206.287	-21.67
206.505	-3.24
206.724	-1.19
206.943	35.67
207.162	9.05
207.381	25.43
207.599	4.95
207.818	9.05
208.037	-52.39
208.255	29.52
208.474	64.34
208.693	33.62
208.911	41.81
209.13	-27.82
209.349	74.58
209.567	52.05
209.786	58.2
210.005	82.77
210.223	158.55
210.442	2.9
210.661	117.59
210.879	-19.63
211.098	60.24
211.316	62.29
211.535	97.11
211.753	23.38
211.972	86.87
212.191	2.9
212.409	21.33
212.628	-27.82
212.846	-3.24
213.065	-23.72
213.283	64.34
213.502	-9.39
213.72	50
213.938	74.58
214.157	7
214.375	29.52
214.594	-5.29
214.812	68.44
215.031	11.09
215.249	-42.15
215.467	-9.39
215.686	-7.34
215.904	50
216.122	-19.63
216.341	160.59
216.559	47.96
216.778	45.91
216.996	27.48
217.214	93.01
217.432	56.15
217.651	11.09
217.869	-23.72
218.087	9.05
218.306	74.58
218.524	62.29
218.742	33.62
218.96	-38.06
219.179	101.2
219.397	29.52
219.615	82.77
219.833	39.76
220.051	82.77
220.27	70.48
220.488	-5.29
220.706	17.24
220.924	27.48
221.142	-19.63
221.36	41.81
221.578	66.39
221.796	9.05
222.015	-3.24
222.233	-13.48
222.451	86.87
222.669	9.05
222.887	4.95
223.105	-74.92
223.323	0.85
223.541	-25.77
223.759	45.91
223.977	27.48
224.195	41.81
224.413	99.16
224.631	52.05
224.849	80.72
225.067	54.1
225.285	-7.34
225.503	35.67
225.721	-46.25
225.939	2.9
226.157	-5.29
226.375	72.53
226.592	-7.34
226.81	19.29
227.028	54.1
227.246	101.2
227.464	56.15
227.682	9.05
227.9	19.29
228.117	58.2
228.335	72.53
228.553	-9.39
228.771	13.14
228.989	23.38
229.206	50
229.424	39.76
229.642	43.86
229.86	-21.67
230.077	50
230.295	-13.48
230.513	60.24
230.731	13.14
230.948	-7.34
231.166	97.11
231.384	0.85
231.601	11.09
231.819	54.1
232.037	-17.58
232.254	21.33
232.472	19.29
232.689	54.1
232.907	95.06
233.125	37.72
233.342	37.72
233.56	-36.01
233.777	-25.77
233.995	54.1
234.213	105.3
234.43	78.68
234.648	37.72
234.865	39.76
235.083	4.95
235.3	31.57
235.518	64.34
235.735	9.05
235.953	4.95
236.17	13.14
236.388	66.39
236.605	25.43
236.822	33.62
237.04	68.44
237.257	37.72
237.475	-52.39
237.692	-15.53
237.909	21.33
238.127	76.63
238.344	25.43
238.562	56.15
238.779	-27.82
238.996	52.05
239.214	-15.53
239.431	33.62
239.648	84.82
239.865	23.38
240.083	45.91
240.3	0.85
240.517	-17.58
240.735	-3.24
240.952	11.09
241.169	41.81
241.386	72.53
241.603	60.24
241.821	15.19
242.038	-50.35
242.255	58.2
242.472	2.9
242.689	17.24
242.907	109.4
243.124	23.38
243.341	-19.63
243.558	-36.01
243.775	13.14
243.992	-3.24
244.209	37.72
244.426	-11.43
244.643	37.72
244.86	41.81
245.078	54.1
245.295	45.91
245.512	52.05
245.729	-3.24
245.946	47.96
246.163	45.91
246.38	47.96
246.597	17.24
246.814	76.63
247.031	25.43
247.248	7
247.464	-23.72
247.681	13.14
247.898	54.1
248.115	21.33
248.332	31.57
248.549	13.14
248.766	47.96
248.983	58.2
249.2	-9.39
249.417	90.96
249.633	-5.29
249.85	60.24
250.067	13.14
250.284	58.2
250.501	52.05
250.717	-27.82
250.934	-15.53
251.151	58.2
251.368	-58.54
251.585	-1.19
251.801	39.76
252.018	-9.39
252.235	127.83
252.451	-36.01
252.668	86.87
252.885	50
253.102	35.67
253.318	45.91
253.535	-38.06
253.752	60.24
253.968	17.24
254.185	17.24
254.401	-40.11
254.618	58.2
254.835	-21.67
255.051	37.72
255.268	62.29
255.484	101.2
255.701	-27.82
255.917	-3.24
256.134	23.38
256.351	52.05
256.567	-11.43
256.784	64.34
257	17.24
257.217	45.91
257.433	62.29
257.65	84.82
257.866	15.19
258.082	-17.58
258.299	-13.48
258.515	4.95
258.732	60.24
258.948	2.9
259.165	15.19
259.381	41.81
259.597	45.91
259.814	27.48
260.03	47.96
260.246	-44.2
260.463	86.87
260.679	70.48
260.895	21.33
261.112	58.2
261.328	72.53
261.544	19.29
261.761	152.4
261.977	9.05
262.193	-64.68
262.409	25.43
262.626	-50.35
262.842	62.29
263.058	-21.67
263.274	-11.43
263.49	21.33
263.707	99.16
263.923	25.43
264.139	39.76
264.355	27.48
264.571	52.05
264.787	-7.34
265.004	62.29
265.22	7
265.436	2.9
265.652	-72.87
265.868	29.52
266.084	54.1
266.3	21.33
266.516	70.48
266.732	88.92
266.948	45.91
267.164	54.1
267.38	9.05
267.596	29.52
267.812	45.91
268.028	19.29
268.244	-31.91
268.46	56.15
268.676	29.52
268.892	72.53
269.108	-38.06
269.324	4.95
269.54	-19.63
269.756	58.2
269.972	15.19
270.188	43.86
270.403	4.95
270.619	62.29
270.835	62.29
271.051	2.9
271.267	23.38
271.483	27.48
271.698	70.48
271.914	2.9
272.13	13.14
272.346	21.33
272.562	70.48
272.777	78.68
272.993	-9.39
273.209	17.24
273.425	111.44
273.64	84.82
273.856	39.76
274.072	-27.82
274.287	-44.2
274.503	43.86
274.719	41.81
274.934	-7.34
275.15	-9.39
275.366	70.48
275.581	29.52
275.797	127.83
276.012	25.43
276.228	27.48
276.444	70.48
276.659	88.92
276.875	-19.63
277.09	0.85
277.306	-23.72
277.521	2.9
277.737	-19.63
277.952	119.64
278.168	33.62
278.383	13.14
278.599	-3.24
278.814	-7.34
279.03	45.91
279.245	97.11
279.461	35.67
279.676	64.34
279.892	-5.29
280.107	60.24
280.322	37.72
280.538	99.16
280.753	74.58
280.969	29.52
281.184	52.05
281.399	95.06
281.615	2.9
281.83	33.62
282.045	-3.24
282.26	-7.34
282.476	11.09
282.691	101.2
282.906	-31.91
283.122	-3.24
283.337	-46.25
283.552	0.85
283.767	25.43
283.983	47.96
284.198	-31.91
284.413	21.33
284.628	37.72
284.843	0.85
285.058	121.68
285.274	27.48
285.489	-19.63
285.704	113.49
285.919	35.67
286.134	54.1
286.349	58.2
286.564	2.9
286.779	93.01
286.995	35.67
287.21	27.48
287.425	-5.29
287.64	13.14
287.855	50
288.07	13.14
288.285	37.72
288.5	95.06
288.715	-44.2
288.93	105.3
289.145	9.05
289.36	4.95
289.575	33.62
289.79	39.76
290.004	-7.34
290.219	84.82
290.434	7
290.649	66.39
290.864	15.19
291.079	35.67
291.294	31.57
291.509	-1.19
291.724	15.19
291.938	84.82
292.153	-21.67
292.368	78.68
292.583	33.62
292.798	29.52
293.012	88.92
293.227	84.82
293.442	82.77
293.657	23.38
293.871	-25.77
294.086	58.2
294.301	140.12
294.516	66.39
294.73	21.33
294.945	2.9
295.16	-23.72
295.374	58.2
295.589	127.83
295.804	-27.82
296.018	7
296.233	-3.24
296.447	29.52
296.662	33.62
296.877	68.44
297.091	13.14
297.306	21.33
297.52	-11.43
297.735	19.29
297.949	74.58
298.164	33.62
298.378	29.52
298.593	62.29
298.807	39.76
299.022	-11.43
299.236	70.48
299.451	0.85
299.665	45.91
299.88	27.48
300.094	21.33
300.309	-25.77
300.523	109.4
300.737	52.05
300.952	95.06
301.166	50
301.381	-21.67
301.595	-17.58
301.809	54.1
302.024	66.39
302.238	-48.3
302.452	90.96
302.667	50
302.881	58.2
303.095	-44.2
303.309	39.76
303.524	9.05
303.738	47.96
303.952	23.38
304.166	72.53
304.381	2.9
304.595	45.91
304.809	11.09
305.023	58.2
305.237	-31.91
305.452	-3.24
305.666	39.76
305.88	62.29
306.094	4.95
306.308	60.24
306.522	78.68
306.736	103.25
306.95	23.38
307.164	0.85
307.379	68.44
307.593	148.31
307.807	41.81
308.021	121.68
308.235	-31.91
308.449	-9.39
308.663	-19.63
308.877	70.48
309.091	11.09
309.305	27.48
309.519	9.05
309.733	50
309.947	-7.34
310.161	93.01
310.374	99.16
310.588	60.24
310.802	37.72
311.016	41.81
311.23	35.67
311.444	99.16
311.658	13.14
311.872	41.81
312.085	35.67
312.299	72.53
312.513	78.68
312.727	99.16
312.941	41.81
313.154	-5.29
313.368	29.52
313.582	19.29
313.796	50
314.009	-23.72
314.223	-5.29
314.437	50
314.651	33.62
314.864	-9.39
315.078	52.05
315.292	-29.87
315.505	-25.77
315.719	13.14
315.933	-21.67
316.146	-33.96
316.36	-7.34
316.573	-11.43
316.787	31.57
317.001	60.24
317.214	82.77
317.428	25.43
317.641	-54.44
317.855	80.72
318.068	4.95
318.282	13.14
318.495	37.72
318.709	66.39
318.922	-7.34
319.136	117.59
319.349	4.95
319.563	-17.58
319.776	29.52
319.99	-7.34
320.203	84.82
320.417	19.29
320.63	19.29
320.843	66.39
321.057	-3.24
321.27	-9.39
321.483	7
321.697	-7.34
321.91	-17.58
322.124	-13.48
322.337	13.14
322.55	29.52
322.763	11.09
322.977	56.15
323.19	29.52
323.403	-11.43
323.617	-19.63
323.83	33.62
324.043	-11.43
324.256	74.58
324.469	-36.01
324.683	17.24
324.896	54.1
325.109	33.62
325.322	33.62
325.535	35.67
325.748	76.63
325.962	-29.87
326.175	50
326.388	60.24
326.601	76.63
326.814	-27.82
327.027	21.33
327.24	97.11
327.453	9.05
327.666	78.68
327.879	125.78
328.092	17.24
328.305	13.14
328.518	54.1
328.731	76.63
328.944	-40.11
329.157	54.1
329.37	37.72
329.583	88.92
329.796	74.58
330.009	66.39
330.222	64.34
330.435	27.48
330.648	39.76
330.861	2.9
331.073	9.05
331.286	29.52
331.499	11.09
331.712	33.62
331.925	58.2
332.138	39.76
332.35	50
332.563	7
332.776	74.58
332.989	21.33
333.202	60.24
333.414	39.76
333.627	33.62
333.84	29.52
334.053	41.81
334.265	127.83
334.478	39.76
334.691	11.09
334.903	4.95
335.116	29.52
335.329	90.96
335.541	-1.19
335.754	95.06
335.966	78.68
336.179	25.43
336.392	50
336.604	35.67
336.817	-33.96
337.029	76.63
337.242	-3.24
337.454	-19.63
337.667	4.95
337.88	37.72
338.092	56.15
338.305	50
338.517	25.43
338.729	25.43
338.942	0.85
339.154	-21.67
339.367	29.52
339.579	90.96
339.792	43.86
340.004	70.48
340.217	58.2
340.429	76.63
340.641	62.29
340.854	11.09
341.066	41.81
341.278	68.44
341.491	78.68
341.703	25.43
341.915	0.85
342.128	62.29
342.34	60.24
342.552	-3.24
342.764	25.43
342.977	119.64
343.189	9.05
343.401	29.52
343.613	13.14
343.826	9.05
344.038	54.1
344.25	62.29
344.462	60.24
344.674	45.91
344.886	17.24
345.099	54.1
345.311	29.52
345.523	37.72
345.735	-36.01
345.947	41.81
346.159	70.48
346.371	35.67
346.583	93.01
346.795	41.81
347.007	0.85
347.219	-15.53
347.431	62.29
347.643	31.57
347.855	13.14
348.067	-5.29
348.279	39.76
348.491	39.76
348.703	31.57
348.915	-62.63
349.127	37.72
349.339	58.2
349.551	45.91
349.763	52.05
349.975	60.24
350.187	52.05
350.399	99.16
350.61	78.68
350.822	56.15
351.034	62.29
351.246	37.72
351.458	41.81
351.669	-11.43
351.881	54.1
352.093	80.72
352.305	50
352.517	-36.01
352.728	68.44
352.94	39.76
353.152	4.95
353.363	21.33
353.575	60.24
353.787	41.81
353.999	21.33
354.21	39.76
354.422	88.92
354.633	-31.91
354.845	27.48
355.057	45.91
355.268	-31.91
355.48	35.67
355.692	-13.48
355.903	58.2
356.115	127.83
356.326	2.9
356.538	84.82
356.749	58.2
356.961	160.59
357.172	88.92
357.384	-11.43
357.595	37.72
357.807	54.1
358.018	-56.49
358.23	9.05
358.441	70.48
358.653	-5.29
358.864	27.48
359.075	0.85
359.287	-38.06
359.498	29.52
359.709	13.14
359.921	-3.24
360.132	39.76
360.344	86.87
360.555	25.43
360.766	37.72
360.977	21.33
361.189	80.72
361.4	72.53
361.611	50
361.823	70.48
362.034	37.72
362.245	-64.68
362.456	-3.24
362.667	62.29
362.879	37.72
363.09	123.73
363.301	88.92
363.512	27.48
363.723	-3.24
363.935	-23.72
364.146	56.15
364.357	-62.63
364.568	7
364.779	-11.43
364.99	78.68
365.201	-54.44
365.412	56.15
365.623	54.1
365.834	-7.34
366.045	39.76
366.256	58.2
366.467	52.05
366.678	101.2
366.889	93.01
367.1	17.24
367.311	62.29
367.522	-44.2
367.733	148.31
367.944	103.25
368.155	43.86
368.366	78.68
368.577	84.82
368.788	99.16
368.999	29.52
369.209	58.2
369.42	84.82
369.631	113.49
369.842	50
370.053	21.33
370.264	50
370.474	17.24
370.685	35.67
370.896	21.33
371.107	17.24
371.317	84.82
371.528	33.62
371.739	162.64
371.95	58.2
372.16	58.2
372.371	-68.78
372.582	-27.82
372.792	66.39
373.003	19.29
373.214	-3.24
373.424	29.52
373.635	-5.29
373.846	103.25
374.056	21.33
374.267	25.43
374.477	0.85
374.688	-21.67
374.898	35.67
375.109	72.53
375.319	39.76
375.53	117.59
375.74	33.62
375.951	29.52
376.161	29.52
376.372	74.58
376.582	50
376.793	140.12
377.003	-19.63
377.214	47.96
377.424	76.63
377.635	72.53
377.845	13.14
378.055	56.15
378.266	13.14
378.476	52.05
378.686	64.34
378.897	66.39
379.107	109.4
379.317	-25.77
379.528	2.9
379.738	78.68
379.948	88.92
380.158	125.78
380.369	2.9
380.579	78.68
380.789	19.29
380.999	-15.53
381.21	50
381.42	111.44
381.63	58.2
381.84	86.87
382.05	93.01
382.261	-21.67
382.471	70.48
382.681	37.72
382.891	93.01
383.101	60.24
383.311	50
383.521	17.24
383.731	84.82
383.941	25.43
384.151	27.48
384.361	76.63
384.571	66.39
384.781	93.01
384.991	133.97
385.201	109.4
385.411	60.24
385.621	50
385.831	29.52
386.041	119.64
386.251	-5.29
386.461	54.1
386.671	45.91
386.881	29.52
387.091	117.59
387.301	72.53
387.511	99.16
387.72	45.91
387.93	119.64
388.14	-7.34
388.35	19.29
388.56	72.53
388.769	111.44
388.979	58.2
389.189	68.44
389.399	101.2
389.609	78.68
389.818	74.58
390.028	62.29
390.238	86.87
390.447	-52.39
390.657	9.05
390.867	29.52
391.076	45.91
391.286	82.77
391.496	99.16
391.705	107.35
391.915	99.16
392.125	17.24
392.334	99.16
392.544	97.11
392.753	78.68
392.963	93.01
393.172	86.87
393.382	41.81
393.591	93.01
393.801	84.82
394.01	82.77
394.22	64.34
394.429	103.25
394.639	23.38
394.848	74.58
395.058	41.81
395.267	138.07
395.477	119.64
395.686	140.12
395.895	162.64
396.105	127.83
396.314	136.02
396.524	50
396.733	21.33
396.942	78.68
397.152	86.87
397.361	115.54
397.57	82.77
397.78	66.39
397.989	111.44
398.198	142.16
398.407	43.86
398.617	52.05
398.826	70.48
399.035	43.86
399.244	250.71
399.453	41.81
399.663	101.2
399.872	90.96
400.081	138.07
400.29	164.69
400.499	52.05
400.708	70.48
400.917	113.49
401.127	152.4
401.336	101.2
401.545	136.02
401.754	105.3
401.963	138.07
402.172	90.96
402.381	119.64
402.59	117.59
402.799	148.31
403.008	111.44
403.217	97.11
403.426	107.35
403.635	176.98
403.844	148.31
404.053	62.29
404.262	127.83
404.471	162.64
404.68	142.16
404.888	93.01
405.097	217.94
405.306	183.12
405.515	234.32
405.724	154.45
405.933	168.79
406.142	217.94
406.35	170.83
406.559	82.77
406.768	201.55
406.977	217.94
407.185	217.94
407.394	248.66
407.603	222.03
407.812	183.12
408.02	281.43
408.229	297.81
408.438	258.9
408.646	277.33
408.855	306
409.064	250.71
409.272	267.09
409.481	342.86
409.69	275.28
409.898	269.14
410.107	381.78
410.315	342.86
410.524	369.49
410.733	316.24
410.941	396.11
411.15	406.35
411.358	402.26
411.567	471.89
411.775	439.12
411.984	451.41
412.192	514.89
412.401	430.93
412.609	484.17
412.818	564.04
413.026	549.71
413.234	527.18
413.443	529.23
413.651	586.57
413.86	660.3
414.068	680.78
414.276	668.49
414.485	760.65
414.693	693.07
414.901	744.27
415.11	852.81
415.318	705.35
415.526	758.6
415.734	858.95
415.943	897.86
416.151	858.95
416.359	901.96
416.567	930.63
416.776	922.44
416.984	940.87
417.192	1106.76
417.4	1098.56
417.608	1065.8
417.817	1135.43
418.025	1221.44
418.233	1270.59
418.441	1192.77
418.649	1295.17
418.857	1375.04
419.065	1317.7
419.273	1323.84
419.481	1393.47
419.689	1549.12
419.897	1542.97
420.105	1536.83
420.313	1618.75
420.521	1762.11
420.729	1692.48
420.937	1848.12
421.145	1880.89
421.353	1862.46
421.561	2087.73
421.769	2163.51
421.977	2134.84
422.185	2079.54
422.393	2288.43
422.601	2489.14
422.809	2321.2
423.017	2542.38
423.224	2523.95
423.432	2681.64
423.64	2655.02
423.848	2956.07
424.056	2822.95
424.263	2947.88
424.471	3081
424.679	3179.3
424.887	3265.32
425.094	3367.71
425.302	3386.15
425.51	3525.41
425.718	3642.14
425.925	3539.74
426.133	3879.71
426.341	4068.12
426.548	4199.19
426.756	4191
426.964	4186.9
427.171	4326.16
427.379	4426.51
427.586	4684.56
427.794	4899.59
428.001	5128.97
428.209	5253.89
428.417	5196.55
428.624	5364.48
428.832	5499.65
429.039	5362.44
429.247	5532.42
429.454	5972.73
429.662	6365.94
429.869	5985.02
430.076	6427.38
430.284	6202.1
430.491	6505.2
430.699	6912.75
430.906	6787.82
431.114	7031.53
431.321	7256.81
431.528	7447.27
431.736	7789.28
431.943	8385.24
432.15	8094.43
432.358	7981.79
432.565	8383.19
432.772	8465.11
432.979	8686.29
433.187	8962.76
433.394	9089.74
433.601	9669.31
433.808	9611.97
434.016	9513.67
434.223	10150.59
434.43	10449.59
434.637	10343.1
434.844	11133.61
435.052	11324.07
435.259	11117.23
435.466	11242.15
435.673	11143.85
435.88	11999.9
436.087	12645.01
436.294	12440.22
436.501	12280.47
436.708	12487.32
436.915	12767.89
437.122	13632.13
437.329	13396.62
437.537	13777.54
437.743	14242.43
437.95	13881.99
438.157	14842.48
438.364	15112.81
438.571	15133.29
438.778	15315.56
438.985	16521.82
439.192	15813.22
439.399	16706.13
439.606	16071.26
439.813	17160.78
440.02	18108.99
440.227	17617.48
440.433	17762.89
440.64	17943.11
440.847	18121.28
441.054	18627.13
441.261	19391.02
441.467	19354.16
441.674	19833.38
441.881	20613.66
442.088	20474.4
442.294	20292.13
442.501	20757.02
442.708	21180.95
442.914	22157.83
443.121	22647.29
443.328	22272.51
443.534	23955.94
443.741	23126.52
443.948	23052.79
444.154	24568.29
444.361	24742.36
444.568	24664.54
444.774	24512.99
444.981	25027.03
445.187	25614.8
445.394	26923.45
445.6	26261.96
445.807	28846.49
446.013	27791.79
446.22	28195.24
446.426	28946.84
446.633	29200.79
446.839	30128.52
447.046	29307.29
447.252	30775.68
447.459	30837.12
447.665	30642.56
447.871	31648.11
448.078	33212.76
448.284	31732.08
448.491	32289.13
448.697	33737.04
448.903	34195.79
449.11	34464.07
449.316	33657.17
449.522	34040.14
449.728	35109.18
449.935	35385.66
450.141	35522.87
450.347	36303.15
450.553	35060.03
450.76	35555.64
450.966	36178.22
451.172	36225.32
451.378	36954.4
451.584	36120.88
451.791	37189.92
451.997	37144.86
452.203	37136.67
452.409	37556.5
452.615	37189.92
452.821	35987.76
453.027	35479.86
453.233	37110.05
453.44	35526.97
453.646	35873.07
453.852	36337.96
454.058	36804.9
454.264	35490.1
454.47	36450.6
454.676	35600.69
454.882	36917.54
455.088	33384.79
455.294	33845.58
455.5	34496.84
455.705	34758.98
455.911	33511.77
456.117	32504.17
456.323	32209.26
456.529	30574.98
456.735	31787.38
456.941	30708.1
457.147	30321.03
457.352	29632.91
457.558	29088.15
457.764	29000.09
457.97	28619.17
458.176	28031.4
458.381	27855.28
458.587	26417.6
458.793	26573.25
458.999	25088.47
459.204	26950.07
459.41	25860.55
459.616	24433.12
459.821	24758.75
460.027	24273.38
460.233	23804.39
460.438	22944.25
460.644	22882.81
460.85	21948.93
461.055	21660.17
461.261	21766.67
461.466	19882.53
461.672	19563.05
461.878	20728.35
462.083	19272.24
462.289	19044.91
462.494	18870.84
462.7	18131.52
462.905	17541.71
463.111	18278.97
463.316	18408
463.522	17885.76
463.727	17590.86
463.932	17826.37
464.138	17334.86
464.343	17738.31
464.549	17095.25
464.754	17773.13
464.959	17367.63
465.165	17392.2
465.37	16503.39
465.575	16161.37
465.781	16912.98
465.986	17128.02
466.191	16513.63
466.397	16106.08
466.602	15397.48
466.807	16097.89
467.012	16202.33
467.218	15917.67
467.423	15635.05
467.628	15813.22
467.833	16341.6
468.038	15895.14
468.244	15166.06
468.449	15829.6
468.654	15542.89
468.859	15151.73
469.064	15264.36
469.269	14744.18
469.474	14695.03
469.679	14991.98
469.885	14447.22
470.09	14785.14
470.295	14615.16
470.5	14584.44
470.705	14375.55
470.91	13982.34
471.115	13896.32
471.32	14092.93
471.525	14109.31
471.73	14137.98
471.935	13552.26
472.139	13019.79
472.344	13310.6
472.549	13132.43
472.754	13275.79
472.959	12599.96
473.164	12561.05
473.369	12536.47
473.574	12937.87
473.778	12737.17
473.983	12546.71
474.188	12595.86
474.393	12006.05
474.598	12233.37
474.802	11850.4
475.007	12042.91
475.212	11936.42
475.417	11532.97
475.621	11461.29
475.826	11518.63
476.031	11301.54
476.235	10898.1
476.44	11319.98
476.645	10984.11
476.849	10924.72
477.054	10777.26
477.259	10650.29
477.463	10734.26
477.668	10558.13
477.872	10738.35
478.077	10437.3
478.282	10060.48
478.486	10011.32
478.691	10205.88
478.895	9941.69
479.1	10097.34
479.304	9970.37
479.509	9642.69
479.713	9851.58
479.918	9726.66
480.122	9796.29
480.326	9794.24
480.531	9763.52
480.735	9671.36
480.94	9370.31
481.144	9687.75
481.348	9360.07
481.553	9478.85
481.757	9349.83
481.961	9538.24
482.166	9444.04
482.37	9345.73
482.574	9153.23
482.778	9259.72
482.983	9386.69
483.187	9335.49
483.391	9274.06
483.595	9372.36
483.8	9325.26
484.004	9276.1
484.208	9503.43
484.412	9138.89
484.616	9405.13
484.821	9282.25
485.025	9255.62
485.229	9212.62
485.433	9220.81
485.637	9169.61
485.841	9233.1
486.045	9241.29
486.249	9288.39
486.453	9075.4
486.657	9343.69
486.861	9485
487.065	9007.82
487.269	9210.57
487.473	9130.7
487.677	9229
487.881	9278.15
488.085	9216.71
488.289	9460.42
488.493	9147.08
488.697	9411.27
488.901	9331.4
489.105	9298.63
489.309	9339.59
489.512	9390.79
489.716	9556.68
489.92	9507.52
490.124	9284.3
490.328	9657.03
490.531	9362.12
490.735	9466.56
490.939	9681.6
491.143	9597.63
491.346	9607.87
491.55	9540.29
491.754	9646.79
491.958	9917.12
492.161	9478.85
492.365	9712.32
492.569	9861.82
492.772	9765.57
492.976	9956.03
493.18	9972.41
493.383	10085.05
493.587	10220.22
493.79	10257.08
493.994	10097.34
494.197	10523.32
494.401	10371.77
494.605	10412.73
494.808	10662.58
495.012	10572.47
495.215	10402.49
495.419	10789.55
495.622	10582.71
495.825	10640.05
496.029	10830.51
496.232	11092.65
496.436	10898.1
496.639	11373.22
496.843	11287.21
497.046	11496.1
497.249	11664.04
497.453	11659.94
497.656	11809.44
497.859	11850.4
498.063	11950.75
498.266	12171.93
498.469	12092.06
498.673	12448.41
498.876	12411.54
499.079	12677.78
499.282	12522.13
499.485	12853.91
499.689	12991.12
499.892	13191.82
500.095	13308.55
500.298	13486.73
500.501	13281.93
500.705	13683.33
500.908	13970.05
501.111	13986.43
501.314	14224
501.517	14363.26
501.72	14410.36
501.923	14467.7
502.126	14748.28
502.329	14779
502.532	15182.45
502.735	15276.65
502.938	15471.21
503.141	15503.98
503.344	15954.53
503.547	15704.68
503.75	15991.39
503.953	16282.2
504.156	16407.13
504.359	16671.32
504.562	16712.28
504.765	17013.33
504.968	17265.23
505.17	17498.7
505.373	17422.92
505.576	17859.14
505.779	17977.92
505.982	18256.45
506.185	18641.46
506.387	18278.97
506.59	18643.51
506.793	19038.77
506.996	18827.83
507.198	19690.02
507.401	19487.28
507.604	19683.88
507.807	19999.27
508.009	20251.17
508.212	20156.96
508.415	20453.92
508.617	20789.78
508.82	20980.25
509.022	20935.19
509.225	21453.33
509.428	21709.32
509.63	21910.02
509.833	22077.96
510.035	22309.38
510.238	22270.47
510.44	22718.97
510.643	22778.36
510.845	23310.83
511.048	23204.34
511.25	23697.9
511.453	23642.6
511.655	24510.94
511.858	24310.24
512.06	24205.8
512.262	24721.88
512.465	24807.9
512.667	25250.26
512.87	25643.47
513.072	25610.7
513.274	26155.46
513.477	26055.11
513.679	26483.14
513.881	26833.34
514.084	26962.36
514.286	26943.93
514.488	27378.1
514.69	27982.25
514.893	27969.96
515.095	28053.93
515.297	28602.78
515.499	28557.73
515.701	29108.63
515.904	29364.63
516.106	29598.1
516.308	29442.45
516.51	30196.1
516.712	30212.49
516.914	30540.16
517.116	31086.97
517.318	31371.64
517.52	31576.44
517.722	31785.33
517.925	32444.77
518.127	32194.92
518.329	32745.83
518.531	32487.78
518.733	33401.18
518.935	33417.56
519.136	33655.12
519.338	34126.16
519.54	34345.29
519.742	34578.76
519.944	34681.16
520.146	35662.13
520.348	35440.95
520.55	35447.1
520.752	35938.61
520.954	36149.55
521.155	36561.19
521.357	36825.38
521.559	37110.05
521.761	37691.67
521.963	37642.52
522.164	37939.47
522.366	37994.77
522.568	38617.35
522.77	38672.65
522.971	39702.78
523.173	39198.98
523.375	39522.55
523.576	39749.88
523.778	39328
523.98	40198.38
524.181	40679.66
524.383	40511.72
524.584	40884.45
524.786	40898.79
524.988	40990.95
525.189	41476.32
525.391	41726.17
525.592	41824.47
525.794	42305.74
525.995	42377.42
526.197	42416.33
526.398	42723.53
526.6	42881.22
526.801	43104.45
527.003	43077.83
527.204	43352.26
527.406	43833.53
527.607	43921.59
527.808	43952.31
528.01	43378.88
528.211	44193.97
528.412	44912.81
528.614	44357.81
528.815	44378.29
529.016	44994.73
529.218	44519.6
529.419	45086.89
529.62	45090.98
529.822	45074.6
530.023	44902.57
530.224	45357.22
530.425	45301.92
530.626	45660.32
530.828	45596.83
531.029	46446.74
531.23	45676.7
531.431	45615.26
531.632	46024.86
531.833	46041.24
532.035	46000.28
532.236	46051.48
532.437	46581.9
532.638	46194.84
532.839	46567.57
533.04	46739.6
533.241	45957.27
533.442	47046.79
533.643	46692.49
533.844	46487.7
534.045	46684.3
534.246	46354.58
534.447	46794.89
534.648	46420.11
534.849	46819.47
535.05	46712.97
535.251	46872.71
535.451	46620.81
535.652	47392.9
535.853	46831.75
536.054	46964.87
536.255	47300.74
536.456	46786.7
536.657	47761.53
536.857	47003.78
537.058	46893.19
537.259	47128.71
537.46	47405.19
537.66	47204.49
537.861	47175.81
538.062	47003.78
538.263	46729.36
538.463	46600.33
538.664	47079.56
538.865	47331.46
539.065	47986.81
539.266	47071.37
539.466	47388.8
539.667	46956.68
539.868	47540.35
540.068	47343.75
540.269	46895.24
540.469	47126.66
540.67	46878.86
540.87	47421.57
541.071	46864.52
541.271	47210.63
541.472	47216.77
541.672	47403.14
541.873	46758.03
542.073	46610.57
542.274	47192.2
542.474	47188.1
542.675	46594.19
542.875	47480.96
543.075	46819.47
543.276	46721.16
543.476	47222.92
543.676	47284.36
543.877	47270.02
544.077	46895.24
544.277	46798.99
544.478	47059.08
544.678	47065.22
544.878	46948.49
545.078	46811.28
545.279	46782.6
545.479	46760.08
545.679	47181.96
545.879	47007.88
546.079	47022.22
546.28	47259.78
546.48	46487.7
546.68	47085.7
546.88	46979.21
547.08	47061.13
547.28	47007.88
547.48	46452.88
547.68	46758.03
547.88	46561.42
548.081	47159.43
548.281	46684.3
548.481	46669.97
548.681	47257.73
548.881	46565.52
549.081	46903.43
549.28	46700.68
549.48	46919.82
549.68	46448.78
549.88	47337.6
550.08	46788.75
550.28	47114.37
550.48	46715.02
550.68	46905.48
550.88	46729.36
551.08	46651.53
551.279	46489.74
551.479	46362.77
551.679	46987.4
551.879	46682.25
552.079	46735.5
552.278	46569.61
552.478	46686.35
552.678	47100.04
552.878	46250.13
553.077	46553.23
553.277	46139.54
553.477	47165.57
553.676	46340.24
553.876	46504.08
554.076	46303.38
554.275	45967.51
554.475	45781.15
554.674	46454.93
554.874	46659.73
555.074	46250.13
555.273	46426.26
555.473	46471.31
555.672	45875.35
555.872	46332.05
556.071	46004.38
556.271	46651.53
556.47	45559.97
556.67	45334.69
556.869	45705.37
557.068	46012.57
557.268	45451.42
557.467	45783.19
557.667	45736.09
557.866	45303.97
558.065	45156.52
558.265	45293.73
558.464	45154.47
558.663	45623.45
558.863	44986.53
559.062	45492.38
559.261	44538.03
559.461	45598.88
559.66	44357.81
559.859	44892.33
560.058	44777.64
560.258	44869.8
560.457	44349.62
560.656	44857.51
560.855	44806.31
561.054	44658.86
561.253	43915.45
561.453	44187.83
561.652	44279.99
561.851	44486.83
562.05	44236.98
562.249	43778.23
562.448	44417.2
562.647	43888.82
562.846	43843.77
563.045	43980.98
563.244	43395.26
563.443	43819.19
563.642	43266.24
563.841	43923.64
564.04	43305.15
564.239	43395.26
564.438	43325.63
564.637	43030.72
564.836	43151.55
565.035	42375.37
565.234	42631.37
565.432	42565.84
565.631	42614.99
565.83	42795.21
566.029	42311.89
566.228	42461.39
566.427	42410.19
566.625	41822.42
566.824	41246.94
567.023	42098.9
567.222	41568.48
567.42	41887.96
567.619	41623.77
567.818	41502.94
568.016	41580.76
568.215	41713.88
568.414	41165.03
568.612	41175.27
568.811	40904.93
569.01	41146.59
569.208	40298.73
569.407	40808.68
569.605	40306.93
569.804	40818.92
570.002	40417.52
570.201	40081.65
570.4	40081.65
570.598	39737.59
570.797	39506.17
570.995	39801.08
571.193	39262.46
571.392	39571.71
571.59	39153.92
571.789	39807.22
571.987	39188.74
572.186	39182.59
572.384	38787.33
572.582	39368.96
572.781	39219.45
572.979	38768.9
573.177	38512.91
573.376	38910.21
573.574	38209.81
573.772	38484.23
573.971	38179.09
574.169	38166.8
574.367	37863.7
574.565	38054.16
574.763	37394.71
574.962	37646.61
575.16	37579.03
575.358	37407
575.556	37081.38
575.754	37273.88
575.952	37282.08
576.151	37374.24
576.349	37024.03
576.547	36802.85
576.745	36788.52
576.943	36907.3
577.141	36632.87
577.339	36710.69
577.537	36206.89
577.735	36122.93
577.933	36274.48
578.131	36323.63
578.329	35868.98
578.527	35637.56
578.725	35825.97
578.923	35678.52
579.121	35578.17
579.319	34908.48
579.516	35572.02
579.714	35510.58
579.912	35592.5
580.11	35283.26
580.308	35307.83
580.506	35060.03
580.704	34371.91
580.901	34595.14
581.099	35191.1
581.297	34439.5
581.495	34480.46
581.692	34830.66
581.89	34089.29
582.088	34558.28
582.285	34183.5
582.483	34355.53
582.681	34077.01
582.878	33982.8
583.076	33470.81
583.274	34066.77
583.471	33071.45
583.669	33249.63
583.866	33085.79
584.064	33356.12
584.262	32889.18
584.459	33220.95
584.657	32627.04
584.854	33202.52
585.052	32448.87
585.249	32536.93
585.447	32844.13
585.644	32188.78
585.841	32383.34
586.039	32944.48
586.236	32033.13
586.434	31992.17
586.631	31932.78
586.828	31940.97
587.026	31969.65
587.223	31625.59
587.42	31570.29
587.618	31777.14
587.815	31254.9
588.012	31275.38
588.21	31168.89
588.407	31162.75
588.604	31062.4
588.801	30634.37
588.999	31086.97
589.196	30640.51
589.393	30921.09
589.59	30359.94
589.787	30476.68
589.984	30267.78
590.182	30185.86
590.379	30288.26
590.576	29997.45
590.773	29970.83
590.97	29852.05
591.167	29942.16
591.364	29462.93
591.561	29569.43
591.758	29274.52
591.955	29557.14
592.152	29643.15
592.349	29284.76
592.546	29338.01
592.743	29260.18
592.94	28815.77
593.137	28916.12
593.334	28995.99
593.531	28613.02
593.727	28570.02
593.924	28694.94
594.121	28682.66
594.318	28946.84
594.515	28309.93
594.712	28576.16
594.908	28182.95
595.105	28328.36
595.302	27703.73
595.499	28498.34
595.696	27894.19
595.892	27675.06
596.089	27720.11
596.286	28086.7
596.482	28019.11
596.679	27564.46
596.876	27433.39
597.072	27476.4
597.269	27302.32
597.466	27214.26
597.662	26935.74
597.859	26941.88
598.055	27361.72
598.252	26778.04
598.448	26845.63
598.645	26542.53
598.841	26520
599.038	26468.8
599.234	26589.63
599.431	26327.49
599.627	26016.2
599.824	26102.22
600.02	25788.88
600.217	25754.06
600.413	26128.84
600.609	25874.89
600.806	25555.41
601.002	25661.9
601.198	25338.32
601.395	25383.38
601.591	25543.12
601.787	25559.5
601.984	25108.95
602.18	25512.4
602.376	24990.17
602.572	25080.28
602.769	24904.15
602.965	24642.01
603.161	25098.71
603.357	24711.64
603.553	24547.81
603.75	24625.63
603.946	24318.43
604.142	24918.49
604.338	23976.42
604.534	24332.77
604.73	24082.92
604.926	24666.59
605.122	24300
605.318	23984.62
605.514	23724.52
605.71	23534.06
605.906	23960.04
606.102	23687.66
606.298	23708.14
606.494	23560.69
606.69	23681.52
606.886	23536.11
607.082	23161.33
607.278	23226.87
607.474	23165.43
607.67	23171.57
607.866	23282.16
608.062	23499.25
608.257	22864.38
608.453	23331.31
608.649	22981.11
608.845	22706.68
609.041	22847.99
609.236	22886.9
609.432	22673.92
609.628	22368.77
609.824	22278.66
610.019	22299.14
610.215	22184.45
610.411	22460.93
610.606	22458.88
610.802	22460.93
610.998	22075.91
611.193	22522.37
611.389	21983.75
611.584	22123.01
611.78	22043.14
611.976	22049.28
612.171	21998.09
612.367	21944.84
612.562	21783.05
612.758	21502.48
612.953	21592.59
613.149	21981.7
613.344	21381.65
613.539	21985.8
613.735	21684.75
613.93	21670.41
614.126	21363.22
614.321	21441.04
614.517	21617.16
614.712	21168.66
614.907	21232.15
615.103	21471.76
615.298	21064.21
615.493	21287.44
615.688	21152.27
615.884	21475.85
616.079	20845.08
616.274	21256.72
616.47	21058.07
616.665	20992.53
616.86	20836.89
617.055	20652.57
617.25	20806.17
617.445	20709.91
617.641	20558.36
617.836	20732.44
618.031	20265.5
618.226	20937.24
618.421	20410.91
618.616	20625.95
618.811	20300.32
619.006	20279.84
619.201	19876.39
619.396	20165.15
619.591	19909.16
619.786	20175.39
619.981	19587.63
620.176	19800.62
620.371	19456.56
620.566	19458.6
620.761	19452.46
620.956	19495.47
621.151	19364.4
621.346	19417.65
621.541	19216.94
621.735	19159.6
621.93	18889.27
622.125	18919.99
622.32	18655.8
622.515	18717.24
622.709	18504.25
622.904	18563.64
623.099	18238.02
623.294	18428.48
623.488	18055.75
623.683	18147.9
623.878	17941.06
624.072	18094.66
624.267	17986.11
624.462	17869.38
624.656	17629.77
624.851	17631.82
625.046	17353.29
625.24	17431.12
625.435	17222.22
625.629	17136.21
625.824	17115.73
626.018	17334.86
626.213	16638.55
626.407	17019.47
626.602	16368.22
626.796	16745.05
626.991	16765.53
627.185	16575.06
627.38	16112.22
627.574	16489.05
627.768	16204.38
627.963	16157.28
628.157	16124.51
628.352	15968.87
628.546	15835.75
628.74	16038.5
628.935	15784.55
629.129	15759.97
629.323	15493.74
629.517	15528.55
629.712	15407.72
629.906	15184.49
630.1	14987.89
630.294	15149.68
630.489	14852.72
630.683	14971.5
630.877	14701.17
631.071	15078
631.265	14793.33
631.459	14723.7
631.653	14660.21
631.848	14547.58
632.042	14488.18
632.236	14473.85
632.43	14373.5
632.624	14445.18
632.818	14115.45
633.012	14154.37
633.206	14185.08
633.4	14017.15
633.594	13636.23
633.788	13847.17
633.982	13920.9
634.176	13673.09
634.369	13906.56
634.563	13468.3
634.757	13679.24
634.951	13453.96
635.145	13275.79
635.339	13427.34
635.533	13087.37
635.726	13128.33
635.92	12886.67
636.114	12878.48
636.308	12948.11
636.501	13083.28
636.695	12931.73
636.889	12659.35
637.083	12884.62
637.276	12505.75
637.47	12585.62
637.664	12530.33
637.857	12544.66
638.051	12368.54
638.244	12313.24
638.438	12223.13
638.632	12055.2
638.825	12241.56
639.019	12255.9
639.212	11905.7
639.406	11842.21
639.599	11786.91
639.793	11987.61
639.986	11711.14
640.18	11627.17
640.373	11489.96
640.567	11492.01
640.76	11373.22
640.954	11219.63
641.147	11254.44
641.34	11258.54
641.534	11088.56
641.727	11113.13
641.92	10865.33
642.114	10816.18
642.307	10824.37
642.5	10764.98
642.694	10674.87
642.887	10883.76
643.08	10871.47
643.273	10601.14
643.467	10402.49
643.66	10461.88
643.853	10488.5
644.046	10201.79
644.239	10576.56
644.432	10330.81
644.626	10007.23
644.819	10107.58
645.012	10205.88
645.205	10232.51
645.398	10101.44
645.591	9884.35
645.784	9751.23
645.977	9829.06
646.17	9896.64
646.363	9788.1
646.556	9544.39
646.749	9745.09
646.942	9798.34
647.135	9482.95
647.328	9548.48
647.521	9470.66
647.714	9398.98
647.907	9288.39
648.099	9343.69
648.292	9329.35
648.485	9257.67
648.678	8983.24
648.871	9267.91
649.064	9040.59
649.256	9272.01
649.449	8919.76
649.642	8858.32
649.835	8819.41
650.027	8778.45
650.22	8651.47
650.413	8807.12
650.605	8665.81
650.798	8784.59
650.991	8643.28
651.183	8669.91
651.376	8491.73
651.568	8434.39
651.761	8379.09
651.954	8544.98
652.146	8563.41
652.339	8217.3
652.531	8213.21
652.724	8188.63
652.916	8037.08
653.109	8157.91
653.301	8194.78
653.494	8106.71
653.686	8051.42
653.879	8022.75
654.071	8057.56
654.263	7736.03
654.456	7756.51
654.648	7846.62
654.84	7854.81
655.033	7707.36
655.225	7740.13
655.417	7709.41
655.61	7564
655.802	7658.21
655.994	7518.95
656.186	7555.81
656.379	7457.51
656.571	7465.7
656.763	7334.63
656.955	7299.81
657.148	7152.36
657.34	7432.93
657.532	7111.4
657.724	7228.14
657.916	7140.07
658.108	7195.37
658.3	7226.09
658.492	7058.15
658.684	7004.91
658.876	6990.57
659.068	6916.84
659.26	6939.37
659.452	6910.7
659.644	6664.94
659.836	6697.71
660.028	6867.69
660.22	6648.56
660.412	6873.84
660.604	6748.91
660.796	6595.31
660.988	6589.17
661.18	6341.36
661.372	6476.53
661.563	6421.24
661.755	6451.95
661.947	6423.28
662.139	6335.22
662.331	6353.65
662.522	6185.72
662.714	6378.23
662.906	6439.67
663.097	6284.02
663.289	6314.74
663.481	6165.24
663.673	6210.29
663.864	6155
664.056	6054.65
664.247	6175.48
664.439	5948.15
664.631	6105.85
664.822	6071.03
665.014	6011.64
665.205	5970.68
665.397	5731.07
665.588	5794.56
665.78	5688.06
665.971	5942.01
666.163	5864.19
666.354	5831.42
666.546	5722.88
666.737	5638.91
666.929	5604.1
667.12	5774.08
667.311	5780.22
667.503	5563.14
667.694	5634.82
667.885	5571.33
668.077	5593.86
668.268	5438.21
668.459	5593.86
668.651	5518.08
668.842	5548.8
669.033	5395.2
669.224	5270.28
669.416	5411.59
669.607	5272.32
669.798	5296.9
669.989	5329.67
670.18	5280.52
670.371	5255.94
670.563	5282.56
670.754	5280.52
670.945	5235.46
671.136	5327.62
671.327	5262.09
671.518	5174.02
671.709	5145.35
671.9	4983.56
672.091	5176.07
672.282	5038.86
672.473	5108.49
672.664	5026.57
672.855	5047.05
673.046	5067.53
673.237	4973.32
673.428	5026.57
673.619	5006.09
673.809	4967.18
674	5016.33
674.191	4952.84
674.382	4829.96
674.573	5036.81
674.764	5071.62
674.954	4934.41
675.145	4764.43
675.336	4784.91
675.527	4838.16
675.717	4838.16
675.908	4893.45
676.099	4821.77
676.289	4956.94
676.48	4758.28
676.671	4563.73
676.861	5006.09
677.052	4791.05
677.243	4670.22
677.433	4715.28
677.624	4825.87
677.814	4813.58
678.005	4739.85
678.195	4639.5
678.386	4567.82
678.576	4731.66
678.767	4506.38
678.957	4807.44
679.148	4780.81
679.338	4705.04
679.529	4735.76
679.719	4492.05
679.909	4682.51
680.1	4690.7
680.29	4612.88
680.481	4711.18
680.671	4555.54
680.861	4516.62
681.052	4752.14
681.242	4741.9
681.432	4582.16
681.622	4547.34
681.813	4637.45
682.003	4545.3
682.193	4559.63
682.383	4700.94
682.573	4549.39
682.764	4731.66
682.954	4590.35
683.144	4416.27
683.334	4485.9
683.524	4420.37
683.714	4358.93
683.904	4537.1
684.094	4393.75
684.284	4526.86
684.474	4535.06
684.664	4475.67
684.854	4373.27
685.044	4455.19
685.234	4479.76
685.424	4461.33
685.614	4363.03
685.804	4434.71
685.994	4350.74
686.184	4479.76
686.374	4432.66
686.564	4436.75
686.753	4383.51
686.943	4272.92
687.133	4203.29
687.323	4197.14
687.513	4266.77
687.702	4203.29
687.892	4240.15
688.082	4231.96
688.272	4160.28
688.461	4225.81
688.651	4268.82
688.841	3990.3
689.03	4252.44
689.22	4133.65
689.41	4254.48
689.599	4176.66
689.789	4092.69
689.979	4051.74
690.168	4184.85
690.358	4035.35
690.547	3926.81
690.737	3996.44
690.926	4049.69
691.116	3986.2
691.305	4090.65
691.495	3990.3
691.684	3937.05
691.874	4037.4
692.063	3949.34
692.252	3902.23
692.442	3965.72
692.631	3877.66
692.82	3949.34
693.01	3834.65
693.199	3898.14
693.388	3717.92
693.578	3711.77
693.767	3785.5
693.956	3797.79
694.146	3797.79
694.335	3707.68
694.524	3724.06
694.713	3808.03
694.902	3672.86
695.092	3810.08
695.281	3767.07
695.47	3719.96
695.659	3736.35
695.848	3703.58
696.037	3795.74
696.226	3654.43
696.415	3642.14
696.604	3756.83
696.793	3689.25
696.982	3681.05
697.171	3693.34
697.36	3574.56
697.549	3603.23
697.738	3562.27
697.927	3611.42
698.116	3687.2
698.305	3642.14
698.494	3568.41
698.683	3601.18
698.872	3545.89
699.061	3521.31
699.25	3658.53
699.438	3627.81
699.627	3586.85
699.816	3636
700.005	3549.98
700.193	3525.41
700.382	3601.18
700.571	3605.28
700.76	3646.24
700.948	3623.71
701.137	3652.38
701.326	3646.24
701.514	3511.07
701.703	3617.57
701.892	3506.98
702.08	3687.2
702.269	3564.32
702.457	3562.27
702.646	3568.41
702.834	3425.06
703.023	3572.51
703.212	3597.09
703.4	3543.84
703.589	3529.5
703.777	3644.19
703.965	3527.46
704.154	3521.31
704.342	3547.94
704.531	3586.85
704.719	3511.07
704.907	3642.14
705.096	3502.88
705.284	3466.02
705.472	3515.17
705.661	3425.06
705.849	3511.07
706.037	3486.5
706.226	3629.85
706.414	3554.08
706.602	3353.38
706.79	3580.7
706.979	3490.59
707.167	3539.74
707.355	3621.66
707.543	3420.96
707.731	3564.32
707.919	3597.09
708.107	3427.11
708.296	3375.91
708.484	3494.69
708.672	3404.58
708.86	3439.39
709.048	3543.84
709.236	3486.5
709.424	3595.04
709.612	3613.47
709.8	3539.74
709.988	3570.46
710.176	3552.03
710.364	3486.5
710.551	3586.85
710.739	3539.74
710.927	3470.11
711.115	3529.5
711.303	3535.65
711.491	3453.73
711.679	3449.63
711.866	3564.32
712.054	3500.83
712.242	3420.96
712.43	3521.31
712.617	3517.22
712.805	3502.88
712.993	3423.01
713.181	3441.44
713.368	3445.54
713.556	3617.57
713.744	3500.83
713.931	3506.98
714.119	3519.26
714.306	3457.82
714.494	3613.47
714.682	3535.65
714.869	3529.5
715.057	3476.26
715.244	3410.72
715.432	3568.41
715.619	3480.35
715.807	3502.88
715.994	3519.26
716.182	3521.31
716.369	3537.7
716.556	3478.3
716.744	3535.65
716.931	3476.26
717.119	3554.08
717.306	3574.56
717.493	3595.04
717.681	3580.7
717.868	3545.89
718.055	3547.94
718.242	3484.45
718.43	3478.3
718.617	3466.02
718.804	3523.36
718.991	3420.96
719.179	3484.45
719.366	3531.55
719.553	3439.39
719.74	3443.49
719.927	3595.04
720.114	3582.75
720.301	3453.73
720.488	3367.71
720.676	3416.87
720.863	3361.57
721.05	3380
721.237	3459.87
721.424	3451.68
721.611	3445.54
721.798	3498.78
721.985	3482.4
722.172	3357.47
722.358	3425.06
722.545	3384.1
722.732	3367.71
722.919	3392.29
723.106	3449.63
723.293	3476.26
723.48	3572.51
723.667	3408.67
723.853	3402.53
724.04	3461.92
724.227	3480.35
724.414	3398.43
724.6	3402.53
724.787	3388.19
724.974	3494.69
725.161	3425.06
725.347	3404.58
725.534	3437.34
725.72	3351.33
725.907	3363.62
726.094	3375.91
726.28	3461.92
726.467	3371.81
726.653	3410.72
726.84	3345.19
727.027	3552.03
727.213	3199.78
727.4	3396.39
727.586	3416.87
727.773	3347.23
727.959	3339.04
728.145	3330.85
728.332	3341.09
728.518	3363.62
728.705	3396.39
728.891	3406.63
729.077	3373.86
729.264	3267.36
729.45	3255.08
729.636	3244.84
729.823	3181.35
730.009	3359.52
730.195	3210.02
730.382	3394.34
730.568	3310.37
730.754	3212.07
730.94	3265.32
731.126	3269.41
731.313	3207.97
731.499	3205.92
731.685	3322.66
731.871	3187.49
732.057	3238.69
732.243	3443.49
732.429	3248.93
732.615	3240.74
732.801	3293.99
732.987	3300.13
733.173	3386.15
733.359	3240.74
733.545	3265.32
733.731	3289.89
733.917	3142.44
734.103	3253.03
734.289	3203.88
734.475	3216.16
734.661	3226.4
734.847	3183.4
735.033	3336.99
735.219	3285.8
735.404	3259.17
735.59	3224.36
735.776	3257.12
735.962	3228.45
736.148	3158.82
736.333	3167.01
736.519	3138.34
736.705	3093.29
736.89	3164.97
737.076	2972.46
737.262	2954.02
737.447	3124.01
737.633	3068.71
737.819	3111.72
738.004	3052.33
738.19	3085.09
738.375	3060.52
738.561	3140.39
738.747	3076.9
738.932	3005.22
739.118	3185.44
739.303	3044.13
739.489	3005.22
739.674	2945.83
739.859	3031.85
740.045	3044.13
740.23	2927.4
740.416	2898.73
740.601	3046.18
740.786	2972.46
740.972	2857.77
741.157	2941.74
741.342	2861.87
741.528	2896.68
741.713	2972.46
741.898	2851.63
742.084	2849.58
742.269	2857.77
742.454	2825
742.639	2900.78
742.824	2716.46
743.01	2794.28
743.195	2925.35
743.38	2923.3
743.565	2794.28
743.75	2827.05
743.935	2730.8
744.12	2861.87
744.305	2736.94
744.49	2781.99
744.675	2640.69
744.86	2675.5
745.045	2667.31
745.23	2601.77
745.415	2605.87
745.6	2781.99
745.785	2607.92
745.97	2732.84
746.155	2622.25
746.34	2528.05
746.525	2577.2
746.71	2474.8
746.895	2569.01
747.079	2542.38
747.264	2472.75
747.449	2519.85
747.634	2579.25
747.819	2560.81
748.003	2464.56
748.188	2331.44
748.373	2495.28
748.557	2511.66
748.742	2362.16
748.927	2233.14
749.111	2251.57
749.296	2321.2
749.481	2288.43
749.665	2325.3
749.85	2302.77
750.034	2257.71
750.219	2245.43
750.404	2315.06
750.588	2194.23
750.773	2104.12
750.957	2186.04
751.141	2163.51
751.326	2097.97
751.51	2116.41
751.695	2179.89
751.879	2075.45
752.064	2140.98
752.248	2073.4
752.432	2165.56
752.617	2124.6
752.801	2042.68
752.985	2093.88
753.17	1938.23
753.354	1917.75
753.538	2073.4
753.722	1893.18
753.907	1919.8
754.091	1930.04
754.275	1983.29
754.459	1864.5
754.643	1880.89
754.828	1864.5
755.012	1884.98
755.196	1954.62
755.38	1780.54
755.564	1844.03
755.748	1715
755.932	1825.59
756.116	1766.2
756.3	1749.82
756.484	1782.59
756.668	1731.39
756.852	1688.38
757.036	1665.85
757.22	1686.33
757.404	1692.48
757.588	1715
757.772	1735.48
757.956	1626.94
758.14	1561.41
758.323	1643.32
758.507	1483.58
758.691	1528.64
758.875	1669.95
759.059	1557.31
759.242	1637.18
759.426	1487.68
759.61	1528.64
759.794	1477.44
759.977	1520.45
760.161	1575.74
760.345	1559.36
760.528	1516.35
760.712	1463.1
760.895	1540.93
761.079	1452.86
761.263	1502.01
761.446	1305.41
761.63	1514.3
761.813	1502.01
761.997	1497.92
762.18	1413.95
762.364	1399.62
762.547	1448.77
762.731	1407.81
762.914	1389.38
763.098	1352.51
763.281	1327.94
763.464	1315.65
763.648	1299.27
763.831	1401.66
764.015	1268.55
764.198	1311.55
764.381	1325.89
764.564	1364.8
764.748	1391.42
764.931	1291.07
765.114	1315.65
765.297	1356.61
765.481	1301.31
765.664	1323.84
765.847	1307.46
766.03	1327.94
766.213	1243.97
766.397	1325.89
766.58	1256.26
766.763	1276.74
766.946	1252.16
767.129	1225.54
767.312	1239.87
767.495	1293.12
767.678	1248.07
767.861	1248.07
768.044	1186.63
768.227	1162.05
768.41	1262.4
768.593	1250.11
768.776	1145.67
768.959	1166.15
769.142	1098.56
769.324	1200.96
769.507	1217.35
769.69	1164.1
769.873	1145.67
770.056	1266.5
770.239	1155.91
770.421	1164.1
770.604	1088.32
770.787	1086.28
770.97	1110.85
771.152	1082.18
771.335	1049.41
771.518	1098.56
771.7	1168.2
771.883	1205.06
772.066	1102.66
772.248	1092.42
772.431	1035.08
772.613	1096.52
772.796	1067.85
772.978	1102.66
773.161	1131.33
773.343	1030.98
773.526	924.49
773.708	930.63
773.891	998.21
774.073	994.12
774.256	973.64
774.438	1053.51
774.621	1010.5
774.803	891.72
774.985	910.15
775.168	901.96
775.35	967.49
775.532	977.73
775.715	883.53
775.897	965.45
776.079	842.57
776.261	973.64
776.444	840.52
776.626	840.52
776.808	871.24
776.99	770.89
777.173	820.04
777.355	848.71
777.537	832.33
777.719	865.1
777.901	834.38
778.083	815.94
778.265	768.84
778.447	877.38
778.629	799.56
778.811	846.66
778.993	799.56
779.175	852.81
779.357	836.42
779.539	762.7
779.721	815.94
779.903	734.03
780.085	772.94
780.267	734.03
780.449	774.99
780.631	740.17
780.812	760.65
780.994	723.79
781.176	684.87
781.358	658.25
781.54	652.11
781.721	713.55
781.903	660.3
782.085	787.27
782.267	643.92
782.448	623.44
782.63	652.11
782.812	701.26
782.993	625.48
783.175	731.98
783.357	613.2
783.538	658.25
783.72	611.15
783.901	666.44
784.083	590.67
784.264	592.72
784.446	535.37
784.627	641.87
784.809	602.96
784.99	500.56
785.172	547.66
785.353	557.9
785.535	660.3
785.716	627.53
785.897	576.33
786.079	592.72
786.26	648.01
786.441	564.04
786.623	500.56
786.804	461.65
786.985	494.41
787.167	586.57
787.348	508.75
787.529	521.04
787.71	498.51
787.891	578.38
788.073	453.45
788.254	518.99
788.435	551.76
788.616	592.72
788.797	373.58
788.978	502.61
789.159	453.45
789.34	430.93
789.522	461.65
789.703	435.02
789.884	404.3
790.065	478.03
790.246	506.7
790.427	510.8
790.607	498.51
790.788	463.69
790.969	381.78
791.15	535.37
791.331	400.21
791.512	408.4
791.693	422.73
791.874	482.13
792.054	469.84
792.235	553.8
792.416	447.31
792.597	404.3
792.778	379.73
792.958	465.74
793.139	451.41
793.32	400.21
793.5	441.17
793.681	394.06
793.862	430.93
794.042	432.97
794.223	324.43
794.404	396.11
794.584	299.86
794.765	349.01
794.945	406.35
795.126	381.78
795.306	410.45
795.487	355.15
795.667	353.1
795.848	371.54
796.028	342.86
796.209	361.3
796.389	441.17
796.57	463.69
796.75	369.49
796.93	379.73
797.111	445.26
797.291	322.38
797.471	330.58
797.652	330.58
797.832	392.02
798.012	318.29
798.192	306
798.373	303.95
798.553	396.11
798.733	385.87
798.913	267.09
799.093	363.34
799.274	346.96
799.454	361.3
799.634	299.86
799.814	338.77
799.994	344.91
800.174	396.11
800.354	303.95
800.534	289.62
800.714	353.1
800.894	326.48
801.074	303.95
801.254	306
801.434	353.1
801.614	297.81
801.794	281.43
801.974	828.23
802.154	322.38
802.334	254.8
802.514	332.62
802.693	355.15
802.873	267.09
803.053	303.95
803.233	326.48
803.413	250.71
803.592	201.55
803.772	205.65
803.952	289.62
804.131	252.75
804.311	291.66
804.491	357.2
804.67	197.46
804.85	279.38
805.03	312.14
805.209	271.19
805.389	232.27
805.568	299.86
805.748	219.99
805.928	211.79
806.107	267.09
806.287	156.5
806.466	230.23
806.646	267.09
806.825	256.85
807.004	303.95
807.184	289.62
807.363	267.09
807.543	260.95
807.722	230.23
807.901	295.76
808.081	254.8
808.26	219.99
808.439	142.16
808.619	248.66
808.798	248.66
808.977	295.76
809.156	303.95
809.336	273.23
809.515	248.66
809.694	181.07
809.873	191.31
810.052	215.89
810.231	236.37
810.411	248.66
810.59	312.14
810.769	256.85
810.948	312.14
811.127	256.85
811.306	238.42
811.485	187.22
811.664	199.51
811.843	232.27
812.022	250.71
812.201	179.03
812.38	219.99
812.559	203.6
812.737	222.03
812.916	111.44
813.095	115.54
813.274	238.42
813.453	258.9
813.632	152.4
813.811	289.62
813.989	150.36
814.168	240.47
814.347	189.27
814.526	150.36
814.704	187.22
814.883	176.98
815.062	133.97
815.24	168.79
815.419	150.36
815.598	193.36
815.776	142.16
815.955	148.31
816.133	205.65
816.312	244.56
816.49	205.65
816.669	164.69
816.847	150.36
817.026	168.79
817.204	150.36
817.383	129.88
817.561	148.31
817.74	209.75
817.918	197.46
818.097	183.12
818.275	170.83
818.453	183.12
818.632	201.55
818.81	271.19
818.988	172.88
819.167	78.68
819.345	179.03
819.523	183.12
819.701	140.12
819.879	170.83
820.058	115.54
820.236	183.12
820.414	201.55
820.592	162.64
820.77	209.75
820.948	119.64
821.127	174.93
821.305	160.59
821.483	160.59
821.661	203.6
821.839	107.35
822.017	195.41
822.195	160.59
822.373	174.93
822.551	201.55
822.729	174.93
822.907	174.93
823.085	121.68
823.262	74.58
823.44	86.87
823.618	136.02
823.796	86.87
823.974	125.78
824.152	152.4
824.329	150.36
824.507	172.88
824.685	111.44
824.863	121.68
825.04	76.63
825.218	158.55
825.396	148.31
825.574	199.51
825.751	152.4
825.929	148.31
826.107	50
826.284	113.49
826.462	185.17
826.639	80.72
826.817	191.31
826.994	119.64
827.172	131.92
827.349	181.07
827.527	117.59
827.704	123.73
827.882	142.16
828.059	58.2
828.237	127.83
828.414	181.07
828.591	109.4
828.769	226.13
828.946	60.24
829.124	174.93
829.301	148.31
829.478	131.92
829.655	37.72
829.833	121.68
830.01	54.1
830.187	170.83
830.364	41.81
830.542	35.67
830.719	185.17
830.896	133.97
831.073	183.12
831.25	152.4
831.427	193.36
831.604	166.74
831.782	43.86
831.959	74.58
832.136	158.55
832.313	93.01
832.49	127.83
832.667	140.12
832.844	86.87
833.021	160.59
833.198	136.02
833.374	86.87
833.551	99.16
833.728	70.48
833.905	66.39
834.082	-40.11
834.259	76.63
834.436	113.49
834.612	86.87
834.789	179.03
834.966	70.48
835.143	152.4
835.319	103.25
835.496	72.53
835.673	99.16
835.85	113.49
836.026	68.44
836.203	101.2
836.38	52.05
836.556	23.38
836.733	2.9
836.909	144.21
837.086	62.29
837.262	66.39
837.439	47.96
837.616	29.52
837.792	111.44
837.968	82.77
838.145	62.29
838.321	13.14
838.498	54.1
838.674	62.29
838.851	41.81
839.027	107.35
839.203	101.2
839.38	95.06
839.556	29.52
839.732	66.39
839.909	125.78
840.085	21.33
840.261	21.33
840.437	60.24
840.614	17.24
840.79	72.53
840.966	86.87
841.142	52.05
841.318	-3.24
841.494	133.97
841.671	29.52
841.847	-17.58
842.023	17.24
842.199	74.58
842.375	58.2
842.551	21.33
842.727	-5.29
842.903	164.69
843.079	68.44
843.255	78.68
843.431	72.53
843.607	125.78
843.783	54.1
843.959	78.68
844.134	142.16
844.31	101.2
844.486	15.19
844.662	-7.34
844.838	52.05
845.013	58.2
845.189	78.68
845.365	45.91
845.541	66.39
845.716	13.14
845.892	52.05
846.068	27.48
846.244	33.62
846.419	58.2
846.595	29.52
846.77	90.96
846.946	84.82
847.122	15.19
847.297	56.15
847.473	37.72
847.648	17.24
847.824	62.29
847.999	-33.96
848.175	50
848.35	9.05
848.526	117.59
848.701	95.06
848.876	156.5
849.052	35.67
849.227	97.11
849.403	15.19
849.578	50
849.753	58.2
849.929	13.14
850.104	84.82
850.279	97.11
850.454	43.86
850.63	54.1
850.805	172.88
850.98	97.11
851.155	41.81
851.33	39.76
851.505	19.29
851.681	74.58
851.856	111.44
852.031	45.91
852.206	56.15
852.381	82.77
852.556	52.05
852.731	82.77
852.906	33.62
853.081	74.58
853.256	88.92
853.431	21.33
853.606	-13.48
853.781	15.19
853.956	45.91
854.131	47.96
854.305	23.38
854.48	4.95
854.655	13.14
854.83	-5.29
855.005	13.14
855.18	37.72
855.354	50
855.529	37.72
855.704	33.62
855.879	29.52
856.053	-36.01
856.228	39.76
856.403	54.1
856.577	95.06
856.752	68.44
856.926	70.48
857.101	13.14
857.276	17.24
857.45	-52.39
857.625	70.48
857.799	19.29
857.974	-13.48
858.148	41.81
858.323	-1.19
858.497	43.86
858.672	27.48
858.846	50
859.02	76.63
859.195	-3.24
859.369	74.58
859.543	4.95
859.718	23.38
859.892	66.39
860.066	66.39
860.241	31.57
860.415	54.1
860.589	9.05
860.763	9.05
860.938	72.53
861.112	54.1
861.286	-68.78
861.46	101.2
861.634	56.15
861.808	43.86
861.982	2.9
862.157	17.24
862.331	29.52
862.505	-70.83
862.679	13.14
862.853	11.09
863.027	27.48
863.201	52.05
863.375	-52.39
863.549	-25.77
863.722	-27.82
863.896	-31.91
864.07	25.43
864.244	21.33
864.418	33.62
864.592	101.2
864.766	-58.54
864.939	-9.39
865.113	56.15
865.287	66.39
865.461	-5.29
865.634	66.39
865.808	39.76
865.982	-5.29
866.156	-36.01
866.329	-31.91
866.503	25.43
866.676	56.15
866.85	56.15
867.024	7
867.197	90.96
867.371	35.67
867.544	-64.68
867.718	-44.2
867.891	-13.48
868.065	-23.72
868.238	45.91
868.412	115.54
868.585	-1.19
868.759	27.48
868.932	-38.06
869.105	-54.44
869.279	62.29
869.452	11.09
869.625	7
869.799	2.9
869.972	2.9
870.145	29.52
870.319	54.1
870.492	11.09
870.665	9.05
870.838	88.92
871.011	-11.43
871.185	-3.24
871.358	2.9
871.531	23.38
871.704	13.14
871.877	93.01
872.05	50
872.223	52.05
872.396	-9.39
872.569	43.86
872.742	4.95
872.915	99.16
873.088	43.86
873.261	-31.91
873.434	-11.43
873.607	-17.58
873.78	11.09
873.953	-60.59
874.126	-40.11
874.299	68.44
874.471	-44.2
874.644	-17.58
874.817	23.38
874.99	50
875.163	-50.35
875.335	-7.34
875.508	19.29
875.681	33.62
875.853	62.29
876.026	0.85
876.199	-13.48
876.371	11.09
876.544	0.85
876.717	-17.58
876.889	23.38
877.062	13.14
877.234	2.9
877.407	17.24
877.579	17.24
877.752	37.72
877.924	-13.48
878.097	43.86
878.269	7
878.442	43.86
878.614	54.1
878.786	-1.19
878.959	11.09
879.131	72.53
879.303	-29.87
879.476	56.15
879.648	41.81
879.82	21.33
879.993	80.72
880.165	37.72
880.337	4.95
880.509	-5.29
880.681	-40.11
880.854	7
881.026	7
881.198	66.39
881.37	29.52
881.542	62.29
881.714	-7.34
881.886	-1.19
882.058	86.87
882.23	-7.34
882.402	47.96
882.574	66.39
882.746	27.48
882.918	9.05
883.09	15.19
883.262	11.09
883.434	4.95
883.606	43.86
883.778	-36.01
883.95	62.29
884.122	-29.87
884.293	62.29
884.465	35.67
884.637	90.96
884.809	-81.07
884.98	70.48
885.152	0.85
885.324	-44.2
885.496	-19.63
885.667	52.05
885.839	101.2
886.011	37.72
886.182	4.95
886.354	82.77
886.525	-68.78
886.697	23.38
886.869	-23.72
887.04	-9.39
887.212	31.57
887.383	37.72
887.555	4.95
887.726	-38.06
887.897	-62.63
888.069	133.97
888.24	-5.29
888.412	50
888.583	11.09
888.754	31.57
888.926	-31.91
889.097	-40.11
889.268	-13.48
889.44	50
889.611	-1.19
889.782	-44.2
889.953	-15.53
890.125	41.81
890.296	-13.48
890.467	23.38
890.638	-13.48
890.809	25.43
890.98	-46.25
891.151	4.95
891.323	29.52
891.494	84.82
891.665	-15.53
891.836	-13.48
892.007	-9.39
892.178	-31.91
892.349	-42.15
892.52	25.43
892.691	35.67
892.862	-27.82
893.032	-44.2
893.203	9.05
893.374	-56.49
893.545	-13.48
893.716	-93.35
893.887	13.14
894.057	-1.19
894.228	-21.67
894.399	-36.01
894.57	29.52
894.74	7
894.911	37.72
895.082	-5.29
895.253	9.05
895.423	37.72
895.594	27.48
895.764	54.1
895.935	-19.63
896.106	-40.11
896.276	-21.67
896.447	37.72
896.617	-99.5
896.788	-36.01
896.958	54.1
897.129	-29.87
897.299	-36.01
897.47	17.24
897.64	45.91
897.81	4.95
897.981	-19.63
898.151	0.85
898.322	27.48
898.492	-19.63
898.662	-66.73
898.832	0.85
899.003	70.48
899.173	-25.77
899.343	54.1
899.513	25.43
