Data from USB4F104151__166__10-27-23-952.txt Node

Date: Wed Mar 12 10:27:23 EDT 2025
User: louis
Spectrometer: USB4F10415
Trigger mode: 4
Integration Time (sec): 3.000000E-2
Scans to average: 1
Electric dark correction enabled: true
Nonlinearity correction enabled: false
Boxcar width: 0
XAxis mode: Wavelengths
Number of Pixels in Spectrum: 3648
>>>>>Begin Spectral Data<<<<<
178.204	-88.4
178.424	-88.4
178.644	-88.4
178.864	-158.03
179.084	-119.12
179.304	-26.96
179.524	42.67
179.744	-33.11
179.964	36.52
180.184	54.95
180.404	50.86
180.624	-8.53
180.844	-57.68
181.064	-16.73
181.283	-31.06
181.503	-10.58
181.723	-0.34
181.943	-31.06
182.163	-10.58
182.383	-0.34
182.602	36.52
182.822	20.14
183.042	-12.63
183.262	-10.58
183.482	-8.53
183.701	38.57
183.921	-4.44
184.141	-65.88
184.361	34.47
184.58	97.96
184.8	65.19
185.02	-6.49
185.239	20.14
185.459	59.05
185.679	-12.63
185.898	54.95
186.118	-98.64
186.338	-4.44
186.557	69.29
186.777	-35.16
186.997	36.52
187.216	71.34
187.436	11.95
187.655	20.14
187.875	73.39
188.095	57
188.314	65.19
188.534	83.63
188.753	-59.73
188.973	38.57
189.192	65.19
189.412	120.49
189.631	40.62
189.851	40.62
190.07	89.77
190.29	-26.96
190.509	-37.2
190.729	42.67
190.948	32.43
191.168	171.69
191.387	75.43
191.607	-31.06
191.826	32.43
192.045	-24.92
192.265	-2.39
192.484	48.81
192.704	30.38
192.923	-49.49
193.142	130.73
193.362	-37.2
193.581	81.58
193.8	-0.34
194.02	11.95
194.239	16.04
194.458	44.71
194.678	73.39
194.897	-29.01
195.116	28.33
195.335	-33.11
195.555	48.81
195.774	52.91
195.993	13.99
196.212	52.91
196.432	40.62
196.651	54.95
196.87	13.99
197.089	75.43
197.308	22.19
197.528	24.23
197.747	-2.39
197.966	-63.83
198.185	-6.49
198.404	42.67
198.623	114.34
198.842	50.86
199.062	87.72
199.281	138.92
199.5	32.43
199.719	36.52
199.938	-12.63
200.157	-2.39
200.376	38.57
200.595	83.63
200.814	93.87
201.033	71.34
201.252	102.06
201.471	54.95
201.69	77.48
201.909	81.58
202.128	22.19
202.347	16.04
202.566	3.75
202.785	57
203.004	57
203.223	140.97
203.442	-14.68
203.661	9.9
203.879	-8.53
204.098	7.85
204.317	28.33
204.536	136.87
204.755	38.57
204.974	24.23
205.193	48.81
205.411	36.52
205.63	40.62
205.849	18.09
206.068	73.39
206.287	13.99
206.505	48.81
206.724	-53.59
206.943	36.52
207.162	69.29
207.381	-24.92
207.599	63.15
207.818	91.82
208.037	11.95
208.255	-14.68
208.474	71.34
208.693	-41.3
208.911	18.09
209.13	-2.39
209.349	5.8
209.567	93.87
209.786	59.05
210.005	-16.73
210.223	73.39
210.442	16.04
210.661	73.39
210.879	85.67
211.098	61.1
211.316	-24.92
211.535	52.91
211.753	20.14
211.972	48.81
212.191	-2.39
212.409	83.63
212.628	20.14
212.846	32.43
213.065	32.43
213.283	106.15
213.502	-6.49
213.72	-24.92
213.938	-10.58
214.157	28.33
214.375	44.71
214.594	54.95
214.812	16.04
215.031	1.71
215.249	75.43
215.467	20.14
215.686	5.8
215.904	38.57
216.122	20.14
216.341	46.76
216.559	40.62
216.778	18.09
216.996	18.09
217.214	7.85
217.432	13.99
217.651	11.95
217.869	52.91
218.087	-6.49
218.306	-2.39
218.524	122.54
218.742	77.48
218.96	89.77
219.179	-33.11
219.397	3.75
219.615	50.86
219.833	26.28
220.051	28.33
220.27	42.67
220.488	40.62
220.706	87.72
220.924	-43.35
221.142	59.05
221.36	69.29
221.578	32.43
221.796	-24.92
222.015	40.62
222.233	44.71
222.451	85.67
222.669	42.67
222.887	48.81
223.105	50.86
223.323	16.04
223.541	-47.44
223.759	-6.49
223.977	3.75
224.195	38.57
224.413	93.87
224.631	7.85
224.849	22.19
225.067	89.77
225.285	-10.58
225.503	77.48
225.721	24.23
225.939	5.8
226.157	32.43
226.375	102.06
226.592	46.76
226.81	5.8
227.028	67.24
227.246	46.76
227.464	13.99
227.682	38.57
227.9	83.63
228.117	16.04
228.335	-18.77
228.553	42.67
228.771	11.95
228.989	59.05
229.206	-49.49
229.424	7.85
229.642	54.95
229.86	36.52
230.077	54.95
230.295	48.81
230.513	-8.53
230.731	65.19
230.948	81.58
231.166	77.48
231.384	-10.58
231.601	34.47
231.819	36.52
232.037	22.19
232.254	20.14
232.472	71.34
232.689	32.43
232.907	-14.68
233.125	46.76
233.342	5.8
233.56	34.47
233.777	30.38
233.995	28.33
234.213	52.91
234.43	75.43
234.648	-0.34
234.865	24.23
235.083	7.85
235.3	83.63
235.518	87.72
235.735	28.33
235.953	122.54
236.17	16.04
236.388	48.81
236.605	-31.06
236.822	71.34
237.04	38.57
237.257	-39.25
237.475	28.33
237.692	79.53
237.909	38.57
238.127	-29.01
238.344	30.38
238.562	24.23
238.779	-31.06
238.996	9.9
239.214	57
239.431	89.77
239.648	-10.58
239.865	-0.34
240.083	44.71
240.3	52.91
240.517	24.23
240.735	-37.2
240.952	54.95
241.169	16.04
241.386	44.71
241.603	40.62
241.821	20.14
242.038	65.19
242.255	97.96
242.472	9.9
242.689	11.95
242.907	65.19
243.124	32.43
243.341	32.43
243.558	16.04
243.775	52.91
243.992	34.47
244.209	-37.2
244.426	71.34
244.643	61.1
244.86	65.19
245.078	79.53
245.295	48.81
245.512	20.14
245.729	-4.44
245.946	57
246.163	30.38
246.38	40.62
246.597	102.06
246.814	124.58
247.031	30.38
247.248	32.43
247.464	-20.82
247.681	-88.4
247.898	63.15
248.115	93.87
248.332	-35.16
248.549	71.34
248.766	57
248.983	36.52
249.2	13.99
249.417	3.75
249.633	32.43
249.85	54.95
250.067	44.71
250.284	67.24
250.501	7.85
250.717	85.67
250.934	13.99
251.151	3.75
251.368	-8.53
251.585	81.58
251.801	65.19
252.018	-10.58
252.235	57
252.451	102.06
252.668	57
252.885	20.14
253.102	18.09
253.318	20.14
253.535	100.01
253.752	67.24
253.968	-0.34
254.185	-20.82
254.401	-47.44
254.618	42.67
254.835	-16.73
255.051	122.54
255.268	-2.39
255.484	54.95
255.701	5.8
255.917	69.29
256.134	13.99
256.351	16.04
256.567	9.9
256.784	65.19
257	57
257.217	44.71
257.433	52.91
257.65	34.47
257.866	20.14
258.082	-8.53
258.299	28.33
258.515	44.71
258.732	-22.87
258.948	30.38
259.165	104.11
259.381	9.9
259.597	7.85
259.814	-8.53
260.03	7.85
260.246	34.47
260.463	81.58
260.679	52.91
260.895	11.95
261.112	24.23
261.328	-18.77
261.544	89.77
261.761	-6.49
261.977	11.95
262.193	-12.63
262.409	-24.92
262.626	34.47
262.842	61.1
263.058	11.95
263.274	24.23
263.49	-18.77
263.707	69.29
263.923	24.23
264.139	46.76
264.355	-14.68
264.571	16.04
264.787	126.63
265.004	75.43
265.22	97.96
265.436	16.04
265.652	42.67
265.868	7.85
266.084	32.43
266.3	126.63
266.516	-16.73
266.732	36.52
266.948	40.62
267.164	32.43
267.38	7.85
267.596	91.82
267.812	69.29
268.028	40.62
268.244	93.87
268.46	-37.2
268.676	30.38
268.892	46.76
269.108	48.81
269.324	89.77
269.54	52.91
269.756	20.14
269.972	65.19
270.188	93.87
270.403	3.75
270.619	44.71
270.835	69.29
271.051	-2.39
271.267	42.67
271.483	34.47
271.698	61.1
271.914	32.43
272.13	40.62
272.346	34.47
272.562	48.81
272.777	79.53
272.993	1.71
273.209	-29.01
273.425	-8.53
273.64	52.91
273.856	57
274.072	28.33
274.287	-0.34
274.503	85.67
274.719	-8.53
274.934	18.09
275.15	16.04
275.366	79.53
275.581	71.34
275.797	69.29
276.012	5.8
276.228	-8.53
276.444	-18.77
276.659	89.77
276.875	30.38
277.09	120.49
277.306	-20.82
277.521	-26.96
277.737	73.39
277.952	1.71
278.168	20.14
278.383	5.8
278.599	-0.34
278.814	-20.82
279.03	11.95
279.245	22.19
279.461	20.14
279.676	100.01
279.892	-14.68
280.107	26.28
280.322	-2.39
280.538	34.47
280.753	30.38
280.969	16.04
281.184	-57.68
281.399	67.24
281.615	122.54
281.83	73.39
282.045	42.67
282.26	9.9
282.476	46.76
282.691	50.86
282.906	67.24
283.122	-24.92
283.337	-4.44
283.552	-18.77
283.767	73.39
283.983	20.14
284.198	63.15
284.413	134.82
284.628	-20.82
284.843	61.1
285.058	57
285.274	48.81
285.489	61.1
285.704	36.52
285.919	63.15
286.134	40.62
286.349	28.33
286.564	73.39
286.779	52.91
286.995	22.19
287.21	-4.44
287.425	81.58
287.64	7.85
287.855	108.2
288.07	16.04
288.285	108.2
288.5	13.99
288.715	36.52
288.93	-10.58
289.145	77.48
289.36	42.67
289.575	40.62
289.79	81.58
290.004	67.24
290.219	16.04
290.434	11.95
290.649	16.04
290.864	3.75
291.079	40.62
291.294	77.48
291.509	46.76
291.724	81.58
291.938	-6.49
292.153	48.81
292.368	-0.34
292.583	48.81
292.798	52.91
293.012	104.11
293.227	34.47
293.442	40.62
293.657	22.19
293.871	57
294.086	73.39
294.301	59.05
294.516	89.77
294.73	104.11
294.945	106.15
295.16	40.62
295.374	42.67
295.589	77.48
295.804	57
296.018	-8.53
296.233	122.54
296.447	77.48
296.662	20.14
296.877	26.28
297.091	42.67
297.306	11.95
297.52	-10.58
297.735	110.25
297.949	30.38
298.164	85.67
298.378	46.76
298.593	97.96
298.807	26.28
299.022	20.14
299.236	95.91
299.451	50.86
299.665	11.95
299.88	75.43
300.094	42.67
300.309	40.62
300.523	65.19
300.737	22.19
300.952	67.24
301.166	38.57
301.381	71.34
301.595	57
301.809	-78.16
302.024	-45.4
302.238	44.71
302.452	65.19
302.667	22.19
302.881	71.34
303.095	-16.73
303.309	89.77
303.524	7.85
303.738	9.9
303.952	-63.83
304.166	52.91
304.381	11.95
304.595	34.47
304.809	40.62
305.023	34.47
305.237	63.15
305.452	40.62
305.666	42.67
305.88	52.91
306.094	11.95
306.308	169.64
306.522	97.96
306.736	77.48
306.95	73.39
307.164	-8.53
307.379	54.95
307.593	126.63
307.807	7.85
308.021	79.53
308.235	40.62
308.449	1.71
308.663	-61.78
308.877	9.9
309.091	73.39
309.305	46.76
309.519	36.52
309.733	71.34
309.947	-2.39
310.161	38.57
310.374	30.38
310.588	36.52
310.802	-37.2
311.016	13.99
311.23	-20.82
311.444	-2.39
311.658	-4.44
311.872	81.58
312.085	-2.39
312.299	81.58
312.513	-8.53
312.727	57
312.941	-65.88
313.154	97.96
313.368	20.14
313.582	11.95
313.796	-0.34
314.009	40.62
314.223	79.53
314.437	-24.92
314.651	151.21
314.864	42.67
315.078	5.8
315.292	89.77
315.505	42.67
315.719	-29.01
315.933	97.96
316.146	30.38
316.36	26.28
316.573	97.96
316.787	59.05
317.001	67.24
317.214	-12.63
317.428	73.39
317.641	11.95
317.855	54.95
318.068	-26.96
318.282	-10.58
318.495	81.58
318.709	34.47
318.922	-29.01
319.136	75.43
319.349	87.72
319.563	-29.01
319.776	155.3
319.99	22.19
320.203	69.29
320.417	44.71
320.63	57
320.843	91.82
321.057	106.15
321.27	50.86
321.483	-16.73
321.697	18.09
321.91	16.04
322.124	38.57
322.337	22.19
322.55	3.75
322.763	52.91
322.977	63.15
323.19	-45.4
323.403	9.9
323.617	71.34
323.83	108.2
324.043	-18.77
324.256	104.11
324.469	28.33
324.683	44.71
324.896	18.09
325.109	52.91
325.322	18.09
325.535	3.75
325.748	48.81
325.962	93.87
326.175	-8.53
326.388	97.96
326.601	1.71
326.814	-4.44
327.027	61.1
327.24	11.95
327.453	26.28
327.666	69.29
327.879	69.29
328.092	40.62
328.305	-49.49
328.518	-16.73
328.731	40.62
328.944	102.06
329.157	87.72
329.37	81.58
329.583	18.09
329.796	89.77
330.009	-18.77
330.222	48.81
330.435	79.53
330.648	1.71
330.861	30.38
331.073	44.71
331.286	52.91
331.499	97.96
331.712	24.23
331.925	-10.58
332.138	11.95
332.35	26.28
332.563	38.57
332.776	9.9
332.989	93.87
333.202	7.85
333.414	44.71
333.627	24.23
333.84	-33.11
334.053	44.71
334.265	30.38
334.478	69.29
334.691	20.14
334.903	81.58
335.116	61.1
335.329	59.05
335.541	110.25
335.754	87.72
335.966	5.8
336.179	46.76
336.392	50.86
336.604	71.34
336.817	161.45
337.029	34.47
337.242	30.38
337.454	9.9
337.667	126.63
337.88	81.58
338.092	-24.92
338.305	71.34
338.517	-8.53
338.729	3.75
338.942	54.95
339.154	-20.82
339.367	50.86
339.579	1.71
339.792	28.33
340.004	7.85
340.217	85.67
340.429	32.43
340.641	-6.49
340.854	124.58
341.066	-4.44
341.278	136.87
341.491	48.81
341.703	13.99
341.915	-20.82
342.128	65.19
342.34	24.23
342.552	-55.64
342.764	20.14
342.977	71.34
343.189	102.06
343.401	18.09
343.613	28.33
343.826	22.19
344.038	32.43
344.25	18.09
344.462	63.15
344.674	63.15
344.886	50.86
345.099	65.19
345.311	18.09
345.523	75.43
345.735	-76.12
345.947	-10.58
346.159	48.81
346.371	52.91
346.583	-12.63
346.795	153.26
347.007	1.71
347.219	30.38
347.431	40.62
347.643	20.14
347.855	-35.16
348.067	110.25
348.279	67.24
348.491	32.43
348.703	93.87
348.915	3.75
349.127	20.14
349.339	61.1
349.551	9.9
349.763	24.23
349.975	57
350.187	65.19
350.399	7.85
350.61	79.53
350.822	7.85
351.034	-0.34
351.246	9.9
351.458	71.34
351.669	18.09
351.881	81.58
352.093	52.91
352.305	143.02
352.517	87.72
352.728	22.19
352.94	7.85
353.152	95.91
353.363	32.43
353.575	-8.53
353.787	108.2
353.999	73.39
354.21	100.01
354.422	59.05
354.633	-8.53
354.845	61.1
355.057	73.39
355.268	5.8
355.48	104.11
355.692	-12.63
355.903	85.67
356.115	-2.39
356.326	-12.63
356.538	71.34
356.749	-26.96
356.961	91.82
357.172	38.57
357.384	20.14
357.595	192.17
357.807	13.99
358.018	-16.73
358.23	54.95
358.441	97.96
358.653	73.39
358.864	3.75
359.075	54.95
359.287	73.39
359.498	102.06
359.709	11.95
359.921	112.3
360.132	-39.25
360.344	73.39
360.555	71.34
360.766	16.04
360.977	24.23
361.189	120.49
361.4	36.52
361.611	67.24
361.823	59.05
362.034	38.57
362.245	40.62
362.456	83.63
362.667	77.48
362.879	30.38
363.09	81.58
363.301	-12.63
363.512	-20.82
363.723	46.76
363.935	54.95
364.146	77.48
364.357	-41.3
364.568	13.99
364.779	67.24
364.99	-0.34
365.201	30.38
365.412	73.39
365.623	120.49
365.834	77.48
366.045	-26.96
366.256	38.57
366.467	5.8
366.678	40.62
366.889	114.34
367.1	16.04
367.311	13.99
367.522	-8.53
367.733	124.58
367.944	83.63
368.155	7.85
368.366	77.48
368.577	54.95
368.788	120.49
368.999	24.23
369.209	13.99
369.42	63.15
369.631	48.81
369.842	132.78
370.053	20.14
370.264	54.95
370.474	-12.63
370.685	63.15
370.896	16.04
371.107	30.38
371.317	75.43
371.528	85.67
371.739	69.29
371.95	89.77
372.16	132.78
372.371	87.72
372.582	63.15
372.792	50.86
373.003	87.72
373.214	140.97
373.424	87.72
373.635	30.38
373.846	87.72
374.056	36.52
374.267	112.3
374.477	-0.34
374.688	3.75
374.898	-49.49
375.109	128.68
375.319	73.39
375.53	-18.77
375.74	69.29
375.951	3.75
376.161	44.71
376.372	91.82
376.582	106.15
376.793	42.67
377.003	57
377.214	67.24
377.424	-2.39
377.635	50.86
377.845	7.85
378.055	120.49
378.266	26.28
378.476	44.71
378.686	61.1
378.897	-10.58
379.107	54.95
379.317	65.19
379.528	-45.4
379.738	79.53
379.948	13.99
380.158	48.81
380.369	122.54
380.579	91.82
380.789	46.76
380.999	52.91
381.21	97.96
381.42	9.9
381.63	61.1
381.84	28.33
382.05	59.05
382.261	69.29
382.471	118.44
382.681	-0.34
382.891	-8.53
383.101	89.77
383.311	40.62
383.521	59.05
383.731	52.91
383.941	-2.39
384.151	83.63
384.361	83.63
384.571	46.76
384.781	81.58
384.991	112.3
385.201	63.15
385.411	54.95
385.621	63.15
385.831	69.29
386.041	87.72
386.251	77.48
386.461	85.67
386.671	40.62
386.881	112.3
387.091	112.3
387.301	57
387.511	85.67
387.72	85.67
387.93	71.34
388.14	34.47
388.35	97.96
388.56	114.34
388.769	69.29
388.979	57
389.189	50.86
389.399	79.53
389.609	42.67
389.818	73.39
390.028	59.05
390.238	52.91
390.447	50.86
390.657	93.87
390.867	24.23
391.076	42.67
391.286	81.58
391.496	91.82
391.705	118.44
391.915	106.15
392.125	102.06
392.334	87.72
392.544	67.24
392.753	89.77
392.963	71.34
393.172	69.29
393.382	38.57
393.591	210.6
393.801	48.81
394.01	48.81
394.22	128.68
394.429	38.57
394.639	44.71
394.848	52.91
395.058	136.87
395.267	122.54
395.477	46.76
395.686	81.58
395.895	85.67
396.105	186.02
396.314	110.25
396.524	65.19
396.733	104.11
396.942	102.06
397.152	116.39
397.361	134.82
397.57	153.26
397.78	159.4
397.989	118.44
398.198	145.06
398.407	134.82
398.617	106.15
398.826	77.48
399.035	128.68
399.244	110.25
399.453	153.26
399.663	136.87
399.872	136.87
400.081	32.43
400.29	128.68
400.499	65.19
400.708	87.72
400.917	116.39
401.127	108.2
401.336	65.19
401.545	163.5
401.754	85.67
401.963	138.92
402.172	71.34
402.381	136.87
402.59	153.26
402.799	155.3
403.008	106.15
403.217	198.31
403.426	136.87
403.635	57
403.844	118.44
404.053	118.44
404.262	167.59
404.471	114.34
404.68	188.07
404.888	120.49
405.097	147.11
405.306	143.02
405.515	200.36
405.724	181.93
405.933	186.02
406.142	171.69
406.35	188.07
406.559	179.88
406.768	235.18
406.977	214.7
407.185	196.26
407.394	194.22
407.603	147.11
407.812	155.3
408.02	267.94
408.229	130.73
408.438	249.51
408.646	239.27
408.855	188.07
409.064	243.37
409.272	194.22
409.481	257.7
409.69	319.14
409.898	233.13
410.107	300.71
410.315	323.24
410.524	360.1
410.733	247.46
410.941	315.05
411.15	407.2
411.358	280.23
411.567	392.87
411.775	376.48
411.984	458.4
412.192	446.12
412.401	487.08
412.609	458.4
412.818	487.08
413.026	454.31
413.234	470.69
413.443	575.14
413.651	491.17
413.86	554.66
414.068	605.86
414.276	685.73
414.485	489.12
414.693	620.19
414.901	663.2
415.11	698.02
415.318	765.6
415.526	749.22
415.734	777.89
415.943	790.17
416.151	779.93
416.359	806.56
416.567	769.69
416.776	927.39
416.984	1011.36
417.192	974.49
417.4	997.02
417.608	925.34
417.817	1013.4
418.025	1035.93
418.233	1080.99
418.441	1119.9
418.649	1289.88
418.857	1240.73
419.065	1265.3
419.273	1238.68
419.481	1296.02
419.689	1375.89
419.897	1406.61
420.105	1437.33
420.313	1547.92
420.521	1605.27
420.729	1531.54
420.937	1605.27
421.145	1664.66
421.353	1730.19
421.561	1953.42
421.769	1846.93
421.977	2043.53
422.185	1961.61
422.393	2053.77
422.601	2225.8
422.809	2250.38
423.017	2117.26
423.224	2299.53
423.432	2360.97
423.64	2623.11
423.848	2643.59
424.056	2641.54
424.263	2766.46
424.471	2743.94
424.679	2832
424.887	3073.66
425.094	3055.23
425.302	3085.95
425.51	3118.72
425.718	3219.07
425.925	3260.02
426.133	3436.15
426.341	3575.41
426.548	3688.05
426.756	3755.63
426.964	3939.95
427.171	4083.31
427.379	4185.71
427.586	4349.54
427.794	4279.91
428.001	4488.81
428.209	4765.28
428.417	4726.37
428.624	4957.79
428.832	5054.05
429.039	4976.22
429.247	5047.9
429.454	5418.58
429.662	5785.17
429.869	5502.55
430.076	6000.21
430.284	5746.26
430.491	6075.98
430.699	6196.81
430.906	6297.16
431.114	6313.55
431.321	6606.41
431.528	6807.11
431.736	7208.51
431.943	7423.55
432.15	7089.73
432.358	7355.96
432.565	7820.85
432.772	7642.68
432.979	7943.73
433.187	8279.6
433.394	8265.26
433.601	8853.03
433.808	8920.61
434.016	8836.64
434.223	9080.35
434.43	9750.04
434.637	9442.84
434.844	10055.19
435.052	10159.63
435.259	10243.6
435.466	10346
435.673	10259.98
435.88	10952.2
436.087	11367.93
436.294	11486.72
436.501	11070.98
436.708	11460.09
436.915	11687.42
437.122	12191.22
437.329	12250.61
437.537	12598.76
437.743	12969.44
437.95	12899.81
438.157	13450.72
438.364	14020.05
438.571	13929.94
438.778	13944.28
438.985	15500.73
439.192	14591.44
439.399	15201.73
439.606	14833.1
439.813	15623.61
440.02	16430.51
440.227	16098.74
440.433	16047.54
440.64	16709.04
440.847	16577.97
441.054	17124.77
441.261	18124.18
441.467	18056.6
441.674	18496.91
441.881	18785.68
442.088	18773.39
442.294	18449.81
442.501	19467.65
442.708	19795.32
442.914	20491.63
443.121	21165.42
443.328	20669.81
443.534	21890.4
443.741	21116.26
443.948	21073.26
444.154	22822.22
444.361	22347.09
444.568	22631.76
444.774	22707.54
444.981	23065.93
445.187	23219.53
445.394	24446.26
445.6	24200.51
445.807	26504.47
446.013	25269.55
446.22	25720.1
446.426	26739.99
446.633	27030.8
446.839	27985.15
447.046	26649.88
447.252	28112.13
447.459	28560.63
447.665	28157.18
447.871	29318.38
448.078	30438.62
448.284	28902.64
448.491	29916.39
448.697	30696.66
448.903	31345.87
449.11	31091.92
449.316	30600.41
449.522	31411.4
449.728	32425.15
449.935	32797.88
450.141	32427.2
450.347	33221.81
450.553	31958.21
450.76	32480.44
450.966	33273.01
451.172	33391.79
451.378	33731.75
451.584	33250.48
451.791	34401.44
451.997	33637.55
452.203	34684.06
452.409	34145.44
452.615	34385.05
452.821	32904.37
453.027	32564.41
453.233	34700.44
453.44	32658.62
453.646	33383.6
453.852	33244.34
454.058	33805.48
454.264	32974
454.47	33201.33
454.676	32373.95
454.882	33420.46
455.088	30334.17
455.294	30948.56
455.5	31749.32
455.705	32031.94
455.911	30663.89
456.117	30020.83
456.323	29531.37
456.529	27735.3
456.735	28742.9
456.941	28415.23
457.147	27727.11
457.352	26846.48
457.558	26246.43
457.764	26780.95
457.97	25972
458.176	25361.7
458.381	25902.37
458.587	24325.43
458.793	24253.75
458.999	23217.48
459.204	24724.79
459.41	24067.39
459.616	22441.3
459.821	22441.3
460.027	22109.53
460.233	21806.43
460.438	20702.57
460.644	21077.35
460.85	20161.91
461.055	19672.45
461.261	19791.23
461.466	18275.73
461.672	17808.79
461.878	19047.82
462.083	17726.88
462.289	17450.4
462.494	17102.25
462.7	16666.03
462.905	16301.49
463.111	16674.22
463.316	16715.18
463.522	16522.67
463.727	16496.05
463.932	16305.59
464.138	16096.69
464.343	16344.5
464.549	15855.03
464.754	16326.07
464.959	16483.76
465.165	16014.77
465.37	15324.61
465.575	14695.88
465.781	15562.17
465.986	15752.63
466.191	15232.45
466.397	14917.06
466.602	14235.09
466.807	14521.81
467.012	14802.38
467.218	14523.85
467.423	14517.71
467.628	14718.41
467.833	15287.75
468.038	14474.7
468.244	14056.92
468.449	14638.54
468.654	14374.35
468.859	14079.44
469.064	14108.12
469.269	13536.73
469.474	13589.98
469.679	14138.83
469.885	13225.44
470.09	13780.44
470.295	13579.74
470.5	13194.72
470.705	13149.67
470.91	13161.95
471.115	13018.6
471.32	13098.47
471.525	12832.23
471.73	12645.87
471.935	12469.74
472.139	12094.96
472.344	12086.77
472.549	12140.02
472.754	12107.25
472.959	11812.34
473.164	11542.01
473.369	11482.62
473.574	11681.27
473.778	11632.12
473.983	11574.78
474.188	11484.67
474.393	11095.55
474.598	11023.87
474.802	10831.37
475.007	10917.38
475.212	11060.74
475.417	10479.11
475.621	10558.99
475.826	10634.76
476.031	10288.65
476.235	10315.28
476.44	10348.04
476.645	9967.12
476.849	10282.51
477.054	10233.36
477.259	9831.96
477.463	9885.2
477.668	9631.26
477.872	9846.29
478.077	9586.2
478.282	9436.7
478.486	9303.58
478.691	9352.73
478.895	9408.03
479.1	9211.42
479.304	9137.7
479.509	8992.29
479.713	8959.52
479.918	8795.68
480.122	8717.86
480.326	8828.45
480.531	8990.24
480.735	8513.06
480.94	8762.92
481.144	8887.84
481.348	8744.49
481.553	8695.33
481.757	8656.42
481.961	8703.53
482.166	8623.66
482.37	8603.18
482.574	8343.08
482.778	8574.5
482.983	8750.63
483.187	8627.75
483.391	8633.89
483.595	8558.12
483.8	8420.91
484.004	8615.46
484.208	8642.09
484.412	8646.18
484.616	8594.98
484.821	8590.89
485.025	8306.22
485.229	8750.63
485.433	8482.35
485.637	8453.67
485.841	8392.23
486.045	8543.78
486.249	8615.46
486.453	8545.83
486.657	8590.89
486.861	8672.81
487.065	8228.4
487.269	8478.25
487.473	8379.95
487.677	8699.43
487.881	8476.2
488.085	8615.46
488.289	8621.61
488.493	8576.55
488.697	8543.78
488.901	8695.33
489.105	8445.48
489.309	8613.42
489.512	8521.26
489.716	8642.09
489.92	8582.7
490.124	8492.59
490.328	8980
490.531	8730.15
490.735	8773.16
490.939	8930.85
491.143	8730.15
491.346	8748.58
491.55	9004.58
491.754	8883.75
491.958	8986.15
492.161	9004.58
492.365	9041.44
492.569	9016.87
492.772	9055.78
492.976	9168.41
493.18	9324.06
493.383	9231.9
493.587	9469.47
493.79	9352.73
493.994	9381.4
494.197	9387.55
494.401	9444.89
494.605	9598.49
494.808	9827.86
495.012	9639.45
495.215	9612.82
495.419	9797.14
495.622	9739.8
495.825	9997.84
496.029	9930.26
496.232	10225.17
496.436	10202.64
496.639	10360.33
496.843	10409.48
497.046	10378.76
497.249	10591.75
497.453	10761.73
497.656	10810.89
497.859	10890.76
498.063	10931.72
498.266	11079.17
498.469	11333.12
498.673	11263.49
498.876	11275.77
499.079	11267.58
499.282	11587.07
499.485	11793.91
499.689	11832.82
499.892	12187.12
500.095	12058.1
500.298	12537.32
500.501	12289.52
500.705	12725.74
500.908	12774.89
501.111	12897.77
501.314	12996.07
501.517	13041.12
501.72	13151.71
501.923	13194.72
502.126	13739.48
502.329	13821.4
502.532	13964.76
502.735	13987.29
502.938	14130.64
503.141	14265.81
503.344	14458.32
503.547	14499.28
503.75	14689.74
503.953	15177.16
504.156	15183.3
504.359	15230.4
504.562	15228.35
504.765	15668.67
504.968	15678.91
505.17	15799.74
505.373	15777.21
505.576	16135.6
505.779	16305.59
505.982	16569.77
506.185	16862.63
506.387	16780.71
506.59	16919.98
506.793	17317.28
506.996	17221.03
507.198	17825.18
507.401	17706.4
507.604	17749.4
507.807	18165.14
508.009	18480.53
508.212	18451.86
508.415	18544.02
508.617	19160.45
508.82	18863.5
509.022	18881.93
509.225	19615.1
509.428	19733.89
509.63	19563.9
509.833	19654.01
510.035	20493.68
510.238	20102.52
510.44	20434.29
510.643	20864.36
510.845	21120.36
511.048	21122.41
511.25	21230.95
511.453	21456.23
511.655	22162.78
511.858	21634.4
512.06	22017.37
512.262	22523.22
512.465	22146.39
512.667	22777.17
512.87	23000.4
513.072	22871.37
513.274	23248.2
513.477	23565.64
513.679	24018.24
513.881	23954.75
514.084	24540.47
514.286	24290.62
514.488	24659.25
514.69	25161
514.893	25187.63
515.095	25232.68
515.297	25941.28
515.499	25595.17
515.701	25863.46
515.904	26461.46
516.106	26504.47
516.308	26666.26
516.51	27096.33
516.712	27350.28
516.914	27487.5
517.116	27993.34
517.318	27677.96
517.52	28022.02
517.722	28138.75
517.925	28556.53
518.127	28708.08
518.329	28947.7
518.531	29046
518.733	29414.63
518.935	29822.18
519.136	29803.75
519.338	30268.64
519.54	30651.61
519.742	31030.48
519.944	30776.53
520.146	31022.29
520.348	31667.4
520.55	31425.74
520.752	31567.05
520.954	32640.18
521.155	31620.3
521.357	32416.96
521.559	32664.76
521.761	33359.02
521.963	33420.46
522.164	33457.32
522.366	33445.04
522.568	33881.25
522.77	33801.38
522.971	34497.69
523.173	34294.94
523.375	34669.72
523.576	34491.55
523.778	34808.98
523.98	35169.43
524.181	35308.69
524.383	35345.55
524.584	35830.92
524.786	35673.23
524.988	35662.99
525.189	36134.02
525.391	36416.64
525.592	36813.94
525.794	37051.51
525.995	36625.53
526.197	36756.6
526.398	37053.56
526.6	37626.99
526.801	37373.04
527.003	37622.89
527.204	37592.17
527.406	37936.23
527.607	37956.71
527.808	38311.01
528.01	37895.27
528.211	38204.52
528.412	38888.54
528.614	38736.99
528.815	38638.69
529.016	39052.37
529.218	38855.77
529.419	38800.47
529.62	38843.48
529.822	39060.57
530.023	38997.08
530.224	39371.86
530.425	39328.85
530.626	39050.33
530.828	38999.13
531.029	39939.15
531.23	39273.56
531.431	39906.38
531.632	39728.2
531.833	39681.1
532.035	39486.54
532.236	39914.57
532.437	40129.61
532.638	39869.51
532.839	40197.19
533.04	39838.79
533.241	39490.64
533.442	40574.02
533.643	40387.65
533.844	40307.78
534.045	40260.68
534.246	39912.52
534.447	40158.28
534.648	39793.74
534.849	39955.53
535.05	39822.41
535.251	40125.51
535.451	39844.94
535.652	40395.84
535.853	40297.54
536.054	39988.3
536.255	40424.51
536.456	40096.84
536.657	40905.79
536.857	39724.11
537.058	40174.66
537.259	40692.8
537.46	40182.85
537.66	40467.52
537.861	40246.34
538.062	40154.18
538.263	40195.14
538.463	40205.38
538.664	40313.92
538.865	40555.58
539.065	40719.42
539.266	40184.9
539.466	40553.54
539.667	39992.39
539.868	40963.13
540.068	40543.3
540.269	40193.09
540.469	40492.1
540.67	40170.57
540.87	39937.1
541.071	40215.62
541.271	40469.57
541.472	40166.47
541.672	39982.15
541.873	40182.85
542.073	39662.67
542.274	40842.3
542.474	40330.31
542.675	40152.13
542.875	40477.76
543.075	40205.38
543.276	39978.06
543.476	40584.26
543.676	40223.81
543.877	40571.97
544.077	40100.93
544.277	40129.61
544.478	40141.89
544.678	40119.37
544.878	40225.86
545.078	40444.99
545.279	39625.81
545.479	40035.4
545.679	39908.43
545.879	39808.08
546.079	40299.59
546.28	39861.32
546.48	39531.6
546.68	39945.29
546.88	39943.24
547.08	39953.48
547.28	39765.07
547.48	40023.11
547.68	40100.93
547.88	39539.79
548.081	39568.46
548.281	39935.05
548.481	39359.57
548.681	39785.55
548.881	39738.44
549.081	39963.72
549.28	39613.52
549.48	39881.8
549.68	39828.55
549.88	40031.3
550.08	39588.94
550.28	40080.46
550.48	39457.87
550.68	40047.69
550.88	39134.29
551.08	39642.19
551.279	39687.25
551.479	39513.17
551.679	39756.88
551.879	39900.23
552.079	39677.01
552.278	39445.58
552.478	39300.18
552.678	39533.65
552.878	39830.6
553.077	39584.85
553.277	39427.15
553.477	39963.72
553.676	39496.78
553.876	39838.79
554.076	38949.98
554.275	39664.72
554.475	38904.92
554.674	39351.38
554.874	39541.84
555.074	39074.9
555.273	39316.56
555.473	39212.12
555.672	39122.01
555.872	39033.94
556.071	39156.82
556.271	39122.01
556.47	39154.77
556.67	38454.37
556.869	38603.87
557.068	38777.95
557.268	39029.85
557.467	38769.76
557.667	38636.64
557.866	38980.7
558.065	38528.09
558.265	38460.51
558.464	38198.37
558.663	38960.22
558.863	38093.93
559.062	38665.31
559.261	38218.85
559.461	38782.04
559.66	37983.34
559.859	38208.61
560.058	37887.08
560.258	38251.62
560.457	37520.49
560.656	38327.39
560.855	37866.6
561.054	38308.96
561.253	37573.74
561.453	37895.27
561.652	37717.1
561.851	37971.05
562.05	37274.74
562.249	37323.89
562.448	37502.06
562.647	37997.67
562.846	37102.71
563.045	37667.95
563.244	37377.14
563.443	37561.45
563.642	37002.36
563.841	37170.29
564.04	37082.23
564.239	37737.58
564.438	36539.52
564.637	36746.36
564.836	37090.42
565.035	36707.45
565.234	36859
565.432	36441.21
565.631	36584.57
565.83	36627.58
566.029	36146.31
566.228	36314.24
566.427	36209.79
566.625	35968.13
566.824	35597.45
567.023	35771.53
567.222	35294.35
567.42	35947.65
567.619	35951.75
567.818	35959.94
568.016	35644.55
568.215	35693.71
568.414	35445.9
568.612	35800.2
568.811	35515.53
569.01	35417.23
569.208	34819.22
569.407	35136.66
569.605	34784.41
569.804	35095.7
570.002	34675.87
570.201	34927.77
570.4	34636.95
570.598	34626.71
570.797	34653.34
570.995	34694.3
571.193	34104.48
571.392	34677.91
571.59	33991.84
571.789	34260.13
571.987	33997.99
572.186	33944.74
572.384	33830.05
572.582	33862.82
572.781	33967.27
572.979	33633.45
573.177	33574.06
573.376	33541.29
573.574	33412.27
573.772	33477.8
573.971	33389.74
574.169	33039.54
574.367	33176.75
574.565	33322.16
574.763	32756.92
574.962	33062.07
575.16	32677.05
575.358	32771.25
575.556	32337.09
575.754	32763.06
575.952	32310.46
576.151	32789.69
576.349	32099.52
576.547	32304.32
576.745	32179.39
576.943	32279.74
577.141	32238.78
577.339	32564.41
577.537	31859.91
577.735	32109.76
577.933	31571.14
578.131	31902.92
578.329	31673.54
578.527	31491.27
578.725	31448.27
578.923	31663.3
579.121	31155.41
579.319	31345.87
579.516	31091.92
579.714	30878.93
579.912	30979.28
580.11	30876.88
580.308	30852.31
580.506	30794.96
580.704	30541.02
580.901	30538.97
581.099	30842.07
581.297	30006.5
581.495	30293.21
581.692	30805.2
581.89	29934.82
582.088	30614.74
582.285	30164.19
582.483	30178.53
582.681	30153.95
582.878	30041.31
583.076	29664.49
583.274	29971.68
583.471	29793.51
583.669	29758.69
583.866	29476.07
584.064	29592.81
584.262	29105.39
584.459	29508.84
584.657	29111.53
584.854	29461.74
585.052	28491
585.249	29228.27
585.447	28660.98
585.644	28611.83
585.841	28775.67
586.039	28873.97
586.236	28314.87
586.434	28761.33
586.631	28198.14
586.828	28308.73
587.026	28394.75
587.223	28308.73
587.42	28022.02
587.618	27899.14
587.815	27909.38
588.012	27751.68
588.21	27483.4
588.407	27796.74
588.604	27688.2
588.801	27325.71
588.999	27247.88
589.196	27598.09
589.393	27444.49
589.59	27290.89
589.787	27196.68
589.984	26959.12
590.182	26860.82
590.379	27196.68
590.576	26952.98
590.773	27006.22
590.97	26527
591.167	26920.21
591.364	26324.25
591.561	26543.38
591.758	26283.29
591.955	26328.34
592.152	26219.8
592.349	26051.87
592.546	26139.93
592.743	26027.29
592.94	25980.19
593.137	26101.02
593.334	25900.32
593.531	25519.4
593.727	25748.77
593.924	25898.27
594.121	25445.67
594.318	25431.33
594.515	25398.57
594.712	25509.16
594.908	25210.15
595.105	25271.59
595.302	25218.35
595.499	24999.21
595.696	24810.8
595.892	24902.96
596.089	24976.69
596.286	24859.95
596.482	24640.82
596.679	24661.3
596.876	24630.58
597.072	24415.54
597.269	24390.97
597.466	24419.64
597.662	24229.18
597.859	24220.99
598.055	24354.1
598.252	24220.99
598.448	23991.61
598.645	24046.91
598.841	23864.64
599.038	23891.26
599.234	24071.48
599.431	23616.83
599.627	23438.66
599.824	23643.46
600.02	23184.71
600.217	23393.61
600.413	23237.96
600.609	23344.45
600.806	23070.03
601.002	23442.76
601.198	23059.79
601.395	22998.35
601.591	22685.01
601.787	22900.05
601.984	22807.89
602.18	23059.79
602.376	22529.36
602.572	22383.96
602.769	22502.74
602.965	22304.09
603.161	22553.94
603.357	22201.69
603.553	22312.28
603.75	22246.74
603.946	21986.65
604.142	22043.99
604.338	21980.51
604.534	22058.33
604.73	21706.08
604.926	21757.28
605.122	21941.6
605.318	21415.27
605.514	21132.65
605.71	21400.93
605.906	21405.03
606.102	21484.9
606.298	21732.7
606.494	21370.21
606.69	21431.65
606.886	21185.9
607.082	21126.5
607.278	21081.45
607.474	20741.49
607.67	21155.18
607.866	20555.12
608.062	21122.41
608.257	20913.52
608.453	20829.55
608.649	20905.32
608.845	20618.61
609.041	20708.72
609.236	20868.46
609.432	20557.17
609.628	20548.98
609.824	20528.5
610.019	20346.23
610.215	20411.76
610.411	20419.96
610.606	20215.16
610.802	20196.73
610.998	20153.72
611.193	20149.62
611.389	19932.54
611.584	20151.67
611.78	19899.77
611.976	20096.38
612.171	19887.48
612.367	19682.69
612.562	19946.87
612.758	19588.48
612.953	19762.56
613.149	19703.17
613.344	19670.4
613.539	19858.81
613.735	19699.07
613.93	19676.54
614.126	19412.35
614.321	19645.82
614.517	19488.13
614.712	19578.24
614.907	19334.53
615.103	19176.84
615.298	19248.52
615.493	19496.32
615.688	18845.07
615.884	19787.13
616.079	19039.62
616.274	19416.45
616.47	19203.46
616.665	19178.89
616.86	18972.04
617.055	18996.62
617.25	18830.73
617.445	18773.39
617.641	18648.46
617.836	18953.61
618.031	18359.7
618.226	18939.27
618.421	18617.74
618.616	18939.27
618.811	18441.62
619.006	18894.22
619.201	18414.99
619.396	18515.34
619.591	18101.65
619.786	18374.03
619.981	17837.47
620.176	18113.94
620.371	17694.11
620.566	17784.22
620.761	17882.52
620.956	18091.41
621.151	17628.57
621.346	17599.9
621.541	17415.58
621.735	17720.73
621.93	16879.02
622.125	17327.52
622.32	17143.21
622.515	17300.9
622.709	17079.72
622.904	16936.36
623.099	16868.78
623.294	17112.49
623.488	16756.14
623.683	16709.04
623.878	16496.05
624.072	16504.24
624.267	16383.41
624.462	16098.74
624.656	16006.58
624.851	16141.75
625.046	15998.39
625.24	15945.14
625.435	15564.22
625.629	15691.2
625.824	15928.76
626.018	15855.03
626.213	15414.72
626.407	15386.05
626.602	15287.75
626.796	15224.26
626.991	15246.79
627.185	15156.68
627.38	15248.83
627.574	14847.43
627.768	14853.58
627.963	14454.22
628.157	14644.68
628.352	14790.09
628.546	14302.67
628.74	14642.64
628.935	14319.06
629.129	14476.75
629.323	14206.42
629.517	14138.83
629.712	14212.56
629.906	14038.48
630.1	13934.04
630.294	14108.12
630.489	13706.71
630.683	13843.93
630.877	13807.06
631.071	13626.84
631.265	13444.57
631.459	13544.92
631.653	13514.2
631.848	13286.88
632.042	13252.06
632.236	13286.88
632.43	13082.08
632.624	13411.81
632.818	12938.73
633.012	12914.15
633.206	12893.67
633.4	12799.46
633.594	12703.21
633.788	12676.59
633.982	12682.73
634.176	12729.83
634.369	12426.73
634.563	12643.82
634.757	12334.57
634.951	12467.69
635.145	12475.88
635.339	12158.45
635.533	12264.94
635.726	12094.96
635.92	11890.17
636.114	11957.75
636.308	11980.28
636.501	11890.17
636.695	11755
636.889	11822.58
637.083	11433.47
637.276	11664.89
637.47	11427.32
637.664	11460.09
637.857	11402.75
638.051	11361.79
638.244	11238.91
638.438	11425.28
638.632	11150.85
638.825	11167.23
639.019	11007.49
639.212	10939.91
639.406	11044.35
639.599	10855.94
639.793	10925.57
639.986	10712.58
640.18	10518.03
640.373	10745.35
640.567	10468.87
640.76	10507.79
640.954	10556.94
641.147	10141.2
641.34	10169.87
641.534	10337.8
641.727	10135.06
641.92	10346
642.114	10233.36
642.307	10122.77
642.5	10053.14
642.694	9956.88
642.887	10061.33
643.08	10057.23
643.273	9928.21
643.467	9739.8
643.66	9834
643.853	9506.33
644.046	9680.41
644.239	9610.78
644.432	9586.2
644.626	9362.97
644.819	9463.32
645.012	9498.14
645.205	9287.2
645.398	9287.2
645.591	9371.16
645.784	9432.6
645.977	9084.45
646.17	8988.19
646.363	9025.06
646.556	8934.95
646.749	8969.76
646.942	9018.91
647.135	8871.46
647.328	8625.7
647.521	8859.17
647.714	8613.42
647.907	8611.37
648.099	8658.47
648.292	8556.07
648.485	8396.33
648.678	8429.1
648.871	8390.19
649.064	8369.71
649.256	8322.6
649.449	8238.64
649.642	8074.8
649.835	8220.21
650.027	8066.61
650.22	8126
650.413	8025.65
650.605	7990.83
650.798	7984.69
650.991	7861.81
651.183	8062.51
651.376	7761.46
651.568	7673.4
651.761	7781.94
651.954	7763.51
652.146	7640.63
652.339	7665.21
652.531	7755.32
652.724	7550.52
652.916	7568.95
653.109	7564.86
653.301	7540.28
653.494	7376.44
653.686	7237.18
653.879	7474.74
654.071	7263.8
654.263	7327.29
654.456	7059.01
654.648	7218.75
654.84	6856.26
655.033	7001.66
655.225	7001.66
655.417	7183.93
655.61	7130.69
655.802	6977.09
655.994	6860.35
656.186	6905.41
656.379	6905.41
656.571	6770.24
656.763	6620.74
656.955	6704.71
657.148	6686.28
657.34	6762.05
657.532	6651.46
657.724	6536.77
657.916	6641.22
658.108	6600.26
658.3	6512.2
658.492	6483.53
658.684	6344.27
658.876	6448.71
659.068	6467.14
659.26	6381.13
659.452	6272.59
659.644	6323.79
659.836	6172.24
660.028	6239.82
660.22	6178.38
660.412	6180.43
660.604	5869.14
660.796	6090.32
660.988	6024.78
661.18	5979.73
661.372	5979.73
661.563	6037.07
661.755	5897.81
661.947	5946.96
662.139	5938.77
662.331	5883.47
662.522	5795.41
662.714	5789.27
662.906	5674.58
663.097	5850.71
663.289	5670.48
663.481	5731.92
663.673	5658.2
663.864	5447.26
664.056	5447.26
664.247	5365.34
664.439	5367.38
664.631	5445.21
664.822	5480.02
665.014	5453.4
665.205	5383.77
665.397	5238.36
665.588	5475.93
665.78	5377.62
665.971	5283.42
666.163	5295.71
666.354	5248.6
666.546	5234.27
666.737	5271.13
666.929	5217.88
667.12	5338.71
667.311	5156.44
667.503	5064.29
667.694	5127.77
667.885	5113.44
668.077	5117.53
668.268	4900.45
668.459	5031.52
668.651	4935.26
668.842	4830.82
669.033	4945.5
669.224	4761.19
669.416	5015.13
669.607	4961.89
669.798	4789.86
669.989	4853.34
670.18	4875.87
670.371	4691.56
670.563	4671.08
670.754	4765.28
670.945	4640.36
671.136	4748.9
671.327	4609.64
671.518	4648.55
671.709	4677.22
671.9	4767.33
672.091	4693.6
672.282	4732.51
672.473	4628.07
672.664	4542.05
672.855	4507.24
673.046	4560.49
673.237	4535.91
673.428	4503.14
673.619	4357.74
673.809	4357.74
674	4318.82
674.191	4425.32
674.382	4361.83
674.573	4331.11
674.764	4415.08
674.954	4410.98
675.145	4476.52
675.336	4206.19
675.527	4335.21
675.717	4341.35
675.908	4308.58
676.099	4243.05
676.289	4267.63
676.48	4185.71
676.671	4128.36
676.861	4486.76
677.052	4124.27
677.243	4064.88
677.433	4267.63
677.624	4222.57
677.814	4212.33
678.005	4003.44
678.195	4181.61
678.386	4243.05
678.576	4044.4
678.767	4120.17
678.957	4122.22
679.148	4093.55
679.338	4042.35
679.529	3972.72
679.719	4023.92
679.909	3954.29
680.1	3993.2
680.29	4071.02
680.481	3905.14
680.671	4054.64
680.861	4009.58
681.052	4111.98
681.242	3974.77
681.432	3835.5
681.622	3954.29
681.813	3927.66
682.003	3954.29
682.193	3921.52
682.383	3821.17
682.573	3882.61
682.764	3800.69
682.954	3817.07
683.144	3759.73
683.334	3927.66
683.524	3694.19
683.714	3747.44
683.904	3843.7
684.094	3753.59
684.284	3780.21
684.474	3802.74
684.664	3716.72
684.854	3655.28
685.044	3747.44
685.234	3733.11
685.424	3696.24
685.614	3679.86
685.804	3628.66
685.994	3632.76
686.184	3741.3
686.374	3669.62
686.564	3643
686.753	3610.23
686.943	3626.61
687.133	3489.4
687.323	3595.89
687.513	3653.23
687.702	3526.26
687.892	3487.35
688.082	3411.57
688.272	3618.42
688.461	3593.84
688.651	3626.61
688.841	3561.08
689.03	3284.6
689.22	3395.19
689.41	3350.14
689.599	3487.35
689.789	3411.57
689.979	3444.34
690.168	3468.92
690.358	3282.55
690.547	3362.42
690.737	3243.64
690.926	3260.02
691.116	3253.88
691.305	3348.09
691.495	3235.45
691.684	3356.28
691.874	3217.02
692.063	3292.79
692.252	3174.01
692.442	3044.99
692.631	3100.28
692.82	3133.05
693.01	3163.77
693.199	3223.16
693.388	3106.43
693.578	2993.79
693.767	3008.12
693.956	3178.11
694.146	3114.62
694.335	3090.04
694.524	2989.69
694.713	3071.61
694.902	3051.13
695.092	3157.63
695.281	3026.56
695.47	3090.04
695.659	2999.93
695.848	3085.95
696.037	2971.26
696.226	3083.9
696.415	2782.85
696.604	2928.25
696.793	3004.03
696.982	2979.45
697.171	2928.25
697.36	2977.41
697.549	2918.01
697.738	2940.54
697.927	2864.77
698.116	2969.21
698.305	2907.77
698.494	2899.58
698.683	2887.29
698.872	2840.19
699.061	3055.23
699.25	2922.11
699.438	2934.4
699.627	2827.9
699.816	2954.88
700.005	2924.16
700.193	2866.81
700.382	3032.7
700.571	2897.53
700.76	2825.86
700.948	2797.18
701.137	2748.03
701.326	2862.72
701.514	2782.85
701.703	2752.13
701.892	2750.08
702.08	2852.48
702.269	2821.76
702.457	2834.05
702.646	2788.99
702.834	2866.81
703.023	2780.8
703.212	2846.34
703.4	2719.36
703.589	2791.04
703.777	2709.12
703.965	2723.46
704.154	2662.02
704.342	2756.22
704.531	2758.27
704.719	2580.1
704.907	2760.32
705.096	2612.87
705.284	2776.7
705.472	2657.92
705.661	2823.81
705.849	2754.18
706.037	2799.23
706.226	2690.69
706.414	2655.87
706.602	2823.81
706.79	2719.36
706.979	2666.11
707.167	2657.92
707.355	2680.45
707.543	2682.5
707.731	2770.56
707.919	2653.83
708.107	2713.22
708.296	2584.2
708.484	2672.26
708.672	2629.25
708.86	2739.84
709.048	2739.84
709.236	2748.03
709.424	2827.9
709.612	2713.22
709.8	2641.54
709.988	2688.64
710.176	2592.39
710.364	2760.32
710.551	2788.99
710.739	2606.72
710.927	2641.54
711.115	2651.78
711.303	2668.16
711.491	2672.26
711.679	2541.19
711.866	2537.09
712.054	2645.63
712.242	2592.39
712.43	2727.55
712.617	2588.29
712.805	2653.83
712.993	2672.26
713.181	2659.97
713.368	2709.12
713.556	2731.65
713.744	2668.16
713.931	2756.22
714.119	2672.26
714.306	2602.63
714.494	2657.92
714.682	2621.06
714.869	2717.31
715.057	2645.63
715.244	2664.07
715.432	2674.31
715.619	2508.42
715.807	2682.5
715.994	2596.48
716.182	2619.01
716.369	2588.29
716.556	2698.88
716.744	2543.24
716.931	2535.04
717.119	2723.46
717.306	2664.07
717.493	2614.91
717.681	2510.47
717.868	2621.06
718.055	2475.65
718.242	2573.96
718.43	2619.01
718.617	2602.63
718.804	2635.39
718.991	2633.35
719.179	2621.06
719.366	2539.14
719.553	2528.9
719.74	2637.44
719.927	2623.11
720.114	2553.48
720.301	2442.89
720.488	2547.33
720.676	2580.1
720.863	2506.37
721.05	2508.42
721.237	2465.41
721.424	2530.95
721.611	2528.9
721.798	2473.6
721.985	2555.52
722.172	2498.18
722.358	2535.04
722.545	2500.23
722.732	2414.21
722.919	2520.71
723.106	2465.41
723.293	2551.43
723.48	2641.54
723.667	2469.51
723.853	2440.84
724.04	2307.72
724.227	2539.14
724.414	2494.08
724.6	2457.22
724.787	2559.62
724.974	2580.1
725.161	2512.52
725.347	2401.93
725.534	2463.37
725.72	2518.66
725.907	2539.14
726.094	2455.17
726.28	2453.13
726.467	2510.47
726.653	2424.45
726.84	2416.26
727.027	2481.8
727.213	2512.52
727.4	2481.8
727.586	2446.98
727.773	2383.49
727.959	2326.15
728.145	2424.45
728.332	2436.74
728.518	2332.3
728.705	2533
728.891	2338.44
729.077	2279.05
729.264	2455.17
729.45	2403.97
729.636	2510.47
729.823	2346.63
730.009	2471.56
730.195	2436.74
730.382	2375.3
730.568	2363.01
730.754	2477.7
730.94	2352.77
731.126	2408.07
731.313	2309.77
731.499	2332.3
731.685	2422.41
731.871	2313.86
732.057	2363.01
732.243	2258.57
732.429	2365.06
732.615	2399.88
732.801	2350.73
732.987	2381.45
733.173	2260.62
733.359	2379.4
733.545	2260.62
733.731	2207.37
733.917	2307.72
734.103	2387.59
734.289	2330.25
734.475	2309.77
734.661	2281.1
734.847	2158.22
735.033	2252.42
735.219	2330.25
735.404	2248.33
735.59	2299.53
735.776	2233.99
735.962	2246.28
736.148	2401.93
736.333	2227.85
736.519	2274.95
736.705	2160.27
736.89	2299.53
737.076	2256.52
737.262	2141.83
737.447	2086.54
737.633	2215.56
737.819	2125.45
738.004	2215.56
738.19	2225.8
738.375	2123.4
738.561	2348.68
738.747	2115.21
738.932	2025.1
739.118	2158.22
739.303	2154.12
739.489	2209.42
739.674	2195.08
739.859	2100.87
740.045	2184.84
740.23	2285.19
740.416	2215.56
740.601	2059.92
740.786	2115.21
740.972	2131.59
741.157	2064.01
741.342	2047.63
741.528	2174.6
741.713	2068.11
741.898	2137.74
742.084	2084.49
742.269	2248.33
742.454	2129.55
742.639	2092.68
742.824	2117.26
743.01	2111.11
743.195	2045.58
743.38	2086.54
743.565	1980.04
743.75	1980.04
743.935	2025.1
744.12	1990.28
744.305	1891.98
744.49	2037.39
744.675	1912.46
744.86	1922.7
745.045	1934.99
745.23	1877.65
745.415	1959.56
745.6	1920.65
745.785	1861.26
745.97	1961.61
746.155	1916.56
746.34	1992.33
746.525	1791.63
746.71	1742.48
746.895	1801.87
747.079	1834.64
747.264	1752.72
747.449	1762.96
747.634	1840.78
747.819	1801.87
748.003	1767.06
748.188	1699.47
748.373	1678.99
748.557	1615.51
748.742	1638.03
748.927	1656.47
749.111	1547.92
749.296	1638.03
749.481	1711.76
749.665	1609.36
749.85	1689.23
750.034	1652.37
750.219	1568.4
750.404	1529.49
750.588	1640.08
750.773	1466
750.957	1463.96
751.141	1502.87
751.326	1564.31
751.51	1478.29
751.695	1517.2
751.879	1398.42
752.064	1521.3
752.248	1496.72
752.432	1509.01
752.617	1488.53
752.801	1463.96
752.985	1472.15
753.17	1463.96
753.354	1496.72
753.538	1466
753.722	1318.55
753.907	1349.27
754.091	1343.13
754.275	1316.5
754.459	1326.74
754.643	1435.28
754.828	1257.11
755.012	1341.08
755.196	1371.8
755.38	1371.8
755.564	1322.65
755.748	1207.96
755.932	1326.74
756.116	1423
756.3	1293.97
756.484	1210.01
756.668	1220.25
756.852	1197.72
757.036	1232.54
757.22	1257.11
757.404	1177.24
757.588	1228.44
757.772	1203.86
757.956	1169.05
758.14	1220.25
758.323	1203.86
758.507	1138.33
758.691	1142.43
758.875	1128.09
759.059	1152.67
759.242	1164.95
759.426	1121.95
759.61	1113.75
759.794	1103.51
759.977	1212.06
760.161	1216.15
760.345	1175.19
760.528	1115.8
760.712	1115.8
760.895	1105.56
761.079	1195.67
761.263	1027.74
761.446	1144.47
761.63	1101.47
761.813	1068.7
761.997	1046.17
762.18	1023.64
762.364	1070.75
762.547	923.29
762.731	1017.5
762.914	1005.21
763.098	1048.22
763.281	966.3
763.464	962.2
763.648	1037.98
763.831	902.81
764.015	966.3
764.198	1009.31
764.381	849.57
764.564	1021.6
764.748	960.16
764.931	911
765.114	956.06
765.297	976.54
765.481	917.15
765.664	921.24
765.847	886.43
766.03	908.96
766.213	927.39
766.397	980.64
766.58	896.67
766.763	839.33
766.946	835.23
767.129	876.19
767.312	913.05
767.495	923.29
767.678	958.11
767.861	913.05
768.044	816.8
768.227	882.33
768.41	902.81
768.593	896.67
768.776	839.33
768.959	849.57
769.142	868
769.324	816.8
769.507	927.39
769.69	855.71
769.873	843.42
770.056	921.24
770.239	845.47
770.421	894.62
770.604	820.89
770.787	859.81
770.97	839.33
771.152	853.66
771.335	751.26
771.518	808.61
771.7	837.28
771.883	808.61
772.066	765.6
772.248	786.08
772.431	777.89
772.613	736.93
772.796	767.65
772.978	728.74
773.161	743.07
773.343	724.64
773.526	632.48
773.708	726.69
773.891	712.35
774.073	786.08
774.256	794.27
774.438	806.56
774.621	775.84
774.803	765.6
774.985	675.49
775.168	706.21
775.35	712.35
775.532	712.35
775.715	652.96
775.897	755.36
776.079	720.54
776.261	704.16
776.444	650.91
776.626	724.64
776.808	728.74
776.99	593.57
777.173	626.34
777.355	573.09
777.537	634.53
777.719	667.3
777.901	583.33
778.083	564.9
778.265	521.89
778.447	716.45
778.629	499.36
778.811	661.15
778.993	601.76
779.175	659.1
779.357	648.86
779.539	597.67
779.721	519.84
779.903	601.76
780.085	566.95
780.267	548.51
780.449	560.8
780.631	630.43
780.812	581.28
780.994	562.85
781.176	624.29
781.358	573.09
781.54	538.27
781.721	552.61
781.903	536.23
782.085	470.69
782.267	612
782.448	564.9
782.63	550.56
782.812	511.65
782.993	517.79
783.175	493.22
783.357	485.03
783.538	450.21
783.72	435.88
783.901	489.12
784.083	433.83
784.264	497.32
784.446	442.02
784.627	491.17
784.809	476.84
784.99	415.4
785.172	429.73
785.353	394.92
785.535	476.84
785.716	417.44
785.897	421.54
786.079	435.88
786.26	435.88
786.441	433.83
786.623	392.87
786.804	407.2
786.985	415.4
787.167	425.64
787.348	439.97
787.529	417.44
787.71	423.59
787.891	431.78
788.073	386.72
788.254	374.44
788.435	403.11
788.616	427.68
788.797	401.06
788.978	399.01
789.159	339.62
789.34	413.35
789.522	372.39
789.703	333.48
789.884	349.86
790.065	413.35
790.246	384.68
790.427	378.53
790.607	374.44
790.788	382.63
790.969	376.48
791.15	372.39
791.331	315.05
791.512	321.19
791.693	333.48
791.874	370.34
792.054	421.54
792.235	339.62
792.416	329.38
792.597	335.53
792.778	360.1
792.958	429.73
793.139	267.94
793.32	384.68
793.5	265.89
793.681	431.78
793.862	370.34
794.042	380.58
794.223	259.75
794.404	296.61
794.584	212.65
794.765	333.48
794.945	274.09
795.126	306.85
795.306	302.76
795.487	323.24
795.667	284.33
795.848	290.47
796.028	247.46
796.209	310.95
796.389	218.79
796.57	341.67
796.75	315.05
796.93	304.81
797.111	237.22
797.291	290.47
797.471	286.37
797.652	267.94
797.832	241.32
798.012	249.51
798.192	163.5
798.373	222.89
798.553	272.04
798.733	302.76
798.913	308.9
799.093	204.46
799.274	220.84
799.454	216.74
799.634	251.56
799.814	265.89
799.994	175.78
800.174	267.94
800.354	249.51
800.534	237.22
800.714	233.13
800.894	212.65
801.074	237.22
801.254	222.89
801.434	323.24
801.614	247.46
801.794	210.6
801.974	728.74
802.154	243.37
802.334	259.75
802.514	226.98
802.693	188.07
802.873	253.61
803.053	292.52
803.233	200.36
803.413	257.7
803.592	235.18
803.772	235.18
803.952	245.41
804.131	175.78
804.311	147.11
804.491	272.04
804.67	173.74
804.85	212.65
805.03	247.46
805.209	190.12
805.389	269.99
805.568	233.13
805.748	214.7
805.928	177.83
806.107	276.13
806.287	282.28
806.466	163.5
806.646	143.02
806.825	218.79
807.004	136.87
807.184	147.11
807.363	188.07
807.543	171.69
807.722	186.02
807.901	208.55
808.081	200.36
808.26	218.79
808.439	163.5
808.619	171.69
808.798	183.98
808.977	206.5
809.156	243.37
809.336	179.88
809.515	224.94
809.694	143.02
809.873	159.4
810.052	208.55
810.231	181.93
810.411	200.36
810.59	188.07
810.769	153.26
810.948	188.07
811.127	106.15
811.306	63.15
811.485	128.68
811.664	179.88
811.843	161.45
812.022	155.3
812.201	192.17
812.38	216.74
812.559	122.54
812.737	181.93
812.916	149.16
813.095	143.02
813.274	157.35
813.453	175.78
813.632	204.46
813.811	159.4
813.989	186.02
814.168	159.4
814.347	106.15
814.526	165.54
814.704	202.41
814.883	132.78
815.062	138.92
815.24	165.54
815.419	102.06
815.598	175.78
815.776	138.92
815.955	120.49
816.133	134.82
816.312	122.54
816.49	77.48
816.669	24.23
816.847	196.26
817.026	171.69
817.204	212.65
817.383	126.63
817.561	136.87
817.74	208.55
817.918	147.11
818.097	169.64
818.275	87.72
818.453	130.73
818.632	114.34
818.81	67.24
818.988	112.3
819.167	112.3
819.345	87.72
819.523	179.88
819.701	134.82
819.879	106.15
820.058	126.63
820.236	161.45
820.414	188.07
820.592	100.01
820.77	71.34
820.948	100.01
821.127	151.21
821.305	163.5
821.483	87.72
821.661	155.3
821.839	147.11
822.017	106.15
822.195	124.58
822.373	112.3
822.551	132.78
822.729	138.92
822.907	145.06
823.085	136.87
823.262	136.87
823.44	124.58
823.618	138.92
823.796	153.26
823.974	87.72
824.152	118.44
824.329	75.43
824.507	102.06
824.685	138.92
824.863	57
825.04	9.9
825.218	122.54
825.396	147.11
825.574	87.72
825.751	83.63
825.929	136.87
826.107	71.34
826.284	100.01
826.462	138.92
826.639	91.82
826.817	108.2
826.994	171.69
827.172	81.58
827.349	108.2
827.527	61.1
827.704	89.77
827.882	57
828.059	61.1
828.237	89.77
828.414	95.91
828.591	104.11
828.769	65.19
828.946	73.39
829.124	128.68
829.301	155.3
829.478	118.44
829.655	54.95
829.833	130.73
830.01	11.95
830.187	147.11
830.364	116.39
830.542	102.06
830.719	177.83
830.896	97.96
831.073	130.73
831.25	159.4
831.427	116.39
831.604	159.4
831.782	48.81
831.959	46.76
832.136	73.39
832.313	145.06
832.49	87.72
832.667	120.49
832.844	36.52
833.021	120.49
833.198	69.29
833.374	63.15
833.551	89.77
833.728	97.96
833.905	71.34
834.082	73.39
834.259	79.53
834.436	124.58
834.612	40.62
834.789	95.91
834.966	77.48
835.143	61.1
835.319	52.91
835.496	59.05
835.673	69.29
835.85	114.34
836.026	157.35
836.203	65.19
836.38	83.63
836.556	65.19
836.733	-0.34
836.909	163.5
837.086	81.58
837.262	40.62
837.439	46.76
837.616	36.52
837.792	79.53
837.968	95.91
838.145	34.47
838.321	22.19
838.498	54.95
838.674	22.19
838.851	100.01
839.027	65.19
839.203	9.9
839.38	54.95
839.556	9.9
839.732	79.53
839.909	13.99
840.085	112.3
840.261	18.09
840.437	69.29
840.614	69.29
840.79	57
840.966	28.33
841.142	100.01
841.318	95.91
841.494	83.63
841.671	57
841.847	30.38
842.023	32.43
842.199	81.58
842.375	40.62
842.551	-10.58
842.727	-0.34
842.903	124.58
843.079	-6.49
843.255	118.44
843.431	52.91
843.607	81.58
843.783	52.91
843.959	63.15
844.134	11.95
844.31	61.1
844.486	61.1
844.662	77.48
844.838	77.48
845.013	95.91
845.189	46.76
845.365	40.62
845.541	36.52
845.716	69.29
845.892	143.02
846.068	57
846.244	44.71
846.419	67.24
846.595	46.76
846.77	7.85
846.946	85.67
847.122	-8.53
847.297	-57.68
847.473	110.25
847.648	36.52
847.824	26.28
847.999	87.72
848.175	44.71
848.35	32.43
848.526	91.82
848.701	24.23
848.876	100.01
849.052	79.53
849.227	52.91
849.403	73.39
849.578	46.76
849.753	30.38
849.929	79.53
850.104	38.57
850.279	95.91
850.454	77.48
850.63	95.91
850.805	65.19
850.98	16.04
851.155	26.28
851.33	93.87
851.505	65.19
851.681	59.05
851.856	40.62
852.031	3.75
852.206	77.48
852.381	26.28
852.556	65.19
852.731	48.81
852.906	75.43
853.081	48.81
853.256	93.87
853.431	-63.83
853.606	-8.53
853.781	34.47
853.956	-16.73
854.131	20.14
854.305	22.19
854.48	9.9
854.655	57
854.83	26.28
855.005	-12.63
855.18	9.9
855.354	-20.82
855.529	7.85
855.704	7.85
855.879	110.25
856.053	18.09
856.228	26.28
856.403	-22.87
856.577	-0.34
856.752	30.38
856.926	38.57
857.101	22.19
857.276	-12.63
857.45	69.29
857.625	11.95
857.799	73.39
857.974	3.75
858.148	61.1
858.323	16.04
858.497	26.28
858.672	52.91
858.846	-31.06
859.02	30.38
859.195	-41.3
859.369	65.19
859.543	-31.06
859.718	38.57
859.892	126.63
860.066	54.95
860.241	20.14
860.415	1.71
860.589	11.95
860.763	16.04
860.938	36.52
861.112	79.53
861.286	34.47
861.46	161.45
861.634	-0.34
861.808	48.81
861.982	50.86
862.157	16.04
862.331	20.14
862.505	26.28
862.679	91.82
862.853	9.9
863.027	63.15
863.201	67.24
863.375	28.33
863.549	50.86
863.722	48.81
863.896	61.1
864.07	11.95
864.244	7.85
864.418	28.33
864.592	77.48
864.766	7.85
864.939	54.95
865.113	16.04
865.287	54.95
865.461	73.39
865.634	11.95
865.808	48.81
865.982	20.14
866.156	22.19
866.329	-67.92
866.503	-8.53
866.676	59.05
866.85	50.86
867.024	30.38
867.197	57
867.371	32.43
867.544	-24.92
867.718	-14.68
867.891	32.43
868.065	-14.68
868.238	-12.63
868.412	73.39
868.585	34.47
868.759	26.28
868.932	30.38
869.105	24.23
869.279	57
869.452	5.8
869.625	50.86
869.799	46.76
869.972	30.38
870.145	26.28
870.319	20.14
870.492	16.04
870.665	118.44
870.838	32.43
871.011	9.9
871.185	36.52
871.358	28.33
871.531	50.86
871.704	46.76
871.877	65.19
872.05	-37.2
872.223	11.95
872.396	24.23
872.569	-59.73
872.742	24.23
872.915	75.43
873.088	16.04
873.261	71.34
873.434	30.38
873.607	-16.73
873.78	26.28
873.953	34.47
874.126	81.58
874.299	46.76
874.471	40.62
874.644	22.19
874.817	-2.39
874.99	118.44
875.163	28.33
875.335	-0.34
875.508	22.19
875.681	54.95
875.853	-65.88
876.026	-16.73
876.199	-16.73
876.371	81.58
876.544	-8.53
876.717	79.53
876.889	-33.11
877.062	-6.49
877.234	59.05
877.407	3.75
877.579	97.96
877.752	44.71
877.924	65.19
878.097	16.04
878.269	59.05
878.442	-8.53
878.614	20.14
878.786	73.39
878.959	16.04
879.131	48.81
879.303	-57.68
879.476	20.14
879.648	11.95
879.82	-20.82
879.993	5.8
880.165	-41.3
880.337	-24.92
880.509	28.33
880.681	20.14
880.854	34.47
881.026	44.71
881.198	1.71
881.37	38.57
881.542	5.8
881.714	5.8
881.886	-18.77
882.058	20.14
882.23	42.67
882.402	46.76
882.574	40.62
882.746	50.86
882.918	-4.44
883.09	11.95
883.262	-37.2
883.434	32.43
883.606	-35.16
883.778	38.57
883.95	40.62
884.122	-8.53
884.293	32.43
884.465	18.09
884.637	28.33
884.809	28.33
884.98	24.23
885.152	95.91
885.324	-4.44
885.496	-16.73
885.667	-6.49
885.839	9.9
886.011	18.09
886.182	65.19
886.354	-8.53
886.525	13.99
886.697	24.23
886.869	-33.11
887.04	26.28
887.212	-33.11
887.383	38.57
887.555	9.9
887.726	73.39
887.897	-10.58
888.069	28.33
888.24	-0.34
888.412	32.43
888.583	-29.01
888.754	-37.2
888.926	-0.34
889.097	20.14
889.268	-55.64
889.44	30.38
889.611	32.43
889.782	38.57
889.953	9.9
890.125	28.33
890.296	24.23
890.467	11.95
890.638	22.19
890.809	-41.3
890.98	-88.4
891.151	26.28
891.323	-41.3
891.494	24.23
891.665	-31.06
891.836	11.95
892.007	73.39
892.178	-67.92
892.349	40.62
892.52	-8.53
892.691	-67.92
892.862	3.75
893.032	-39.25
893.203	-29.01
893.374	-31.06
893.545	75.43
893.716	-37.2
893.887	63.15
894.057	-29.01
894.228	-20.82
894.399	7.85
894.57	73.39
894.74	26.28
894.911	34.47
895.082	-29.01
895.253	16.04
895.423	32.43
895.594	81.58
895.764	-59.73
895.935	-4.44
896.106	5.8
896.276	38.57
896.447	61.1
896.617	-45.4
896.788	-0.34
896.958	-0.34
897.129	-6.49
897.299	61.1
897.47	5.8
897.64	5.8
897.81	87.72
897.981	-10.58
898.151	24.23
898.322	-47.44
898.492	-33.11
898.662	44.71
898.832	38.57
899.003	-10.58
899.173	73.39
899.343	18.09
899.513	-41.3
