Data from USB4F104151__258__10-39-52-828.txt Node

Date: Wed Mar 12 10:39:52 EDT 2025
User: louis
Spectrometer: USB4F10415
Trigger mode: 4
Integration Time (sec): 3.000000E-2
Scans to average: 1
Electric dark correction enabled: true
Nonlinearity correction enabled: false
Boxcar width: 0
XAxis mode: Wavelengths
Number of Pixels in Spectrum: 3648
>>>>>Begin Spectral Data<<<<<
178.204	-176.13
178.424	-176.13
178.644	-176.13
178.864	-163.84
179.084	-90.11
179.304	-28.67
179.524	-20.48
179.744	-28.67
179.964	57.34
180.184	34.82
180.404	14.34
180.624	-36.86
180.844	18.43
181.064	-30.72
181.283	-14.34
181.503	4.1
181.723	30.72
181.943	-28.67
182.163	-26.62
182.383	45.06
182.602	-45.06
182.822	67.58
183.042	24.58
183.262	-8.19
183.482	20.48
183.701	-51.2
183.921	-2.05
184.141	-6.14
184.361	4.1
184.58	55.3
184.8	18.43
185.02	2.05
185.239	67.58
185.459	22.53
185.679	45.06
185.898	49.15
186.118	-18.43
186.338	-49.15
186.557	30.72
186.777	-28.67
186.997	59.39
187.216	-47.1
187.436	10.24
187.655	90.11
187.875	94.21
188.095	-38.91
188.314	-16.38
188.534	67.58
188.753	20.48
188.973	47.1
189.192	43.01
189.412	61.44
189.631	57.34
189.851	0
190.07	14.34
190.29	4.1
190.509	32.77
190.729	-49.15
190.948	22.53
191.168	104.45
191.387	2.05
191.607	24.58
191.826	59.39
192.045	24.58
192.265	40.96
192.484	10.24
192.704	-32.77
192.923	-14.34
193.142	20.48
193.362	40.96
193.581	47.1
193.8	32.77
194.02	10.24
194.239	16.38
194.458	34.82
194.678	-43.01
194.897	30.72
195.116	-43.01
195.335	22.53
195.555	51.2
195.774	51.2
195.993	30.72
196.212	40.96
196.432	6.14
196.651	43.01
196.87	-8.19
197.089	-14.34
197.308	59.39
197.528	49.15
197.747	-14.34
197.966	2.05
198.185	40.96
198.404	-43.01
198.623	6.14
198.842	81.92
199.062	20.48
199.281	63.49
199.5	-2.05
199.719	47.1
199.938	88.06
200.157	73.73
200.376	65.54
200.595	-18.43
200.814	2.05
201.033	10.24
201.252	65.54
201.471	38.91
201.69	129.02
201.909	18.43
202.128	-30.72
202.347	120.83
202.566	-28.67
202.785	81.92
203.004	22.53
203.223	40.96
203.442	102.4
203.661	26.62
203.879	-20.48
204.098	104.45
204.317	34.82
204.536	118.78
204.755	96.25
204.974	-32.77
205.193	43.01
205.411	0
205.63	30.72
205.849	30.72
206.068	34.82
206.287	34.82
206.505	40.96
206.724	18.43
206.943	18.43
207.162	18.43
207.381	53.25
207.599	-40.96
207.818	16.38
208.037	38.91
208.255	22.53
208.474	32.77
208.693	18.43
208.911	-36.86
209.13	43.01
209.349	90.11
209.567	40.96
209.786	53.25
210.005	-12.29
210.223	6.14
210.442	-59.39
210.661	-75.77
210.879	26.62
211.098	32.77
211.316	63.49
211.535	131.07
211.753	65.54
211.972	16.38
212.191	28.67
212.409	12.29
212.628	34.82
212.846	61.44
213.065	26.62
213.283	47.1
213.502	34.82
213.72	6.14
213.938	-24.58
214.157	51.2
214.375	4.1
214.594	20.48
214.812	24.58
215.031	-10.24
215.249	-6.14
215.467	12.29
215.686	40.96
215.904	26.62
216.122	59.39
216.341	-6.14
216.559	51.2
216.778	86.01
216.996	73.73
217.214	6.14
217.432	40.96
217.651	57.34
217.869	69.63
218.087	32.77
218.306	100.35
218.524	88.06
218.742	16.38
218.96	34.82
219.179	71.68
219.397	59.39
219.615	38.91
219.833	86.01
220.051	14.34
220.27	81.92
220.488	-14.34
220.706	94.21
220.924	47.1
221.142	69.63
221.36	6.14
221.578	36.86
221.796	112.64
222.015	40.96
222.233	34.82
222.451	73.73
222.669	-49.15
222.887	110.59
223.105	43.01
223.323	43.01
223.541	43.01
223.759	30.72
223.977	26.62
224.195	81.92
224.413	28.67
224.631	61.44
224.849	12.29
225.067	131.07
225.285	30.72
225.503	47.1
225.721	32.77
225.939	30.72
226.157	6.14
226.375	102.4
226.592	22.53
226.81	34.82
227.028	51.2
227.246	32.77
227.464	151.55
227.682	63.49
227.9	18.43
228.117	73.73
228.335	67.58
228.553	6.14
228.771	38.91
228.989	14.34
229.206	34.82
229.424	10.24
229.642	67.58
229.86	34.82
230.077	26.62
230.295	30.72
230.513	108.54
230.731	38.91
230.948	-30.72
231.166	36.86
231.384	65.54
231.601	20.48
231.819	20.48
232.037	53.25
232.254	-6.14
232.472	51.2
232.689	-2.05
232.907	2.05
233.125	-30.72
233.342	47.1
233.56	-30.72
233.777	-8.19
233.995	16.38
234.213	55.3
234.43	22.53
234.648	43.01
234.865	47.1
235.083	-10.24
235.3	-8.19
235.518	59.39
235.735	51.2
235.953	32.77
236.17	61.44
236.388	47.1
236.605	47.1
236.822	94.21
237.04	81.92
237.257	38.91
237.475	-30.72
237.692	49.15
237.909	49.15
238.127	-2.05
238.344	-16.38
238.562	69.63
238.779	4.1
238.996	-47.1
239.214	67.58
239.431	12.29
239.648	-14.34
239.865	-10.24
240.083	18.43
240.3	-6.14
240.517	94.21
240.735	16.38
240.952	16.38
241.169	86.01
241.386	26.62
241.603	26.62
241.821	-34.82
242.038	-8.19
242.255	104.45
242.472	6.14
242.689	59.39
242.907	47.1
243.124	-8.19
243.341	18.43
243.558	-2.05
243.775	26.62
243.992	30.72
244.209	90.11
244.426	-12.29
244.643	24.58
244.86	-4.1
245.078	-2.05
245.295	22.53
245.512	59.39
245.729	49.15
245.946	151.55
246.163	18.43
246.38	-6.14
246.597	69.63
246.814	-14.34
247.031	10.24
247.248	34.82
247.464	90.11
247.681	59.39
247.898	120.83
248.115	51.2
248.332	49.15
248.549	57.34
248.766	57.34
248.983	38.91
249.2	12.29
249.417	28.67
249.633	38.91
249.85	53.25
250.067	40.96
250.284	47.1
250.501	47.1
250.717	59.39
250.934	32.77
251.151	59.39
251.368	49.15
251.585	40.96
251.801	2.05
252.018	30.72
252.235	53.25
252.451	30.72
252.668	-10.24
252.885	55.3
253.102	8.19
253.318	2.05
253.535	67.58
253.752	-2.05
253.968	49.15
254.185	57.34
254.401	124.93
254.618	4.1
254.835	14.34
255.051	73.73
255.268	-40.96
255.484	71.68
255.701	-57.34
255.917	-24.58
256.134	18.43
256.351	43.01
256.567	-63.49
256.784	71.68
257	32.77
257.217	40.96
257.433	-2.05
257.65	96.25
257.866	94.21
258.082	-14.34
258.299	26.62
258.515	47.1
258.732	-38.91
258.948	63.49
259.165	10.24
259.381	141.31
259.597	-34.82
259.814	36.86
260.03	30.72
260.246	45.06
260.463	69.63
260.679	53.25
260.895	20.48
261.112	-36.86
261.328	34.82
261.544	-49.15
261.761	124.93
261.977	86.01
262.193	2.05
262.409	49.15
262.626	71.68
262.842	122.88
263.058	61.44
263.274	34.82
263.49	61.44
263.707	65.54
263.923	24.58
264.139	57.34
264.355	20.48
264.571	71.68
264.787	-24.58
265.004	104.45
265.22	30.72
265.436	10.24
265.652	55.3
265.868	38.91
266.084	2.05
266.3	26.62
266.516	63.49
266.732	49.15
266.948	30.72
267.164	10.24
267.38	38.91
267.596	-8.19
267.812	131.07
268.028	24.58
268.244	131.07
268.46	12.29
268.676	38.91
268.892	40.96
269.108	20.48
269.324	40.96
269.54	116.73
269.756	22.53
269.972	2.05
270.188	83.97
270.403	81.92
270.619	-49.15
270.835	38.91
271.051	96.25
271.267	8.19
271.483	2.05
271.698	96.25
271.914	96.25
272.13	34.82
272.346	30.72
272.562	163.84
272.777	92.16
272.993	8.19
273.209	-63.49
273.425	43.01
273.64	16.38
273.856	43.01
274.072	30.72
274.287	32.77
274.503	88.06
274.719	12.29
274.934	-22.53
275.15	24.58
275.366	55.3
275.581	-61.44
275.797	-2.05
276.012	22.53
276.228	24.58
276.444	-10.24
276.659	55.3
276.875	55.3
277.09	49.15
277.306	67.58
277.521	22.53
277.737	-2.05
277.952	2.05
278.168	47.1
278.383	-8.19
278.599	63.49
278.814	75.77
279.03	10.24
279.245	79.87
279.461	24.58
279.676	98.3
279.892	-10.24
280.107	43.01
280.322	-8.19
280.538	4.1
280.753	-28.67
280.969	38.91
281.184	81.92
281.399	-2.05
281.615	51.2
281.83	32.77
282.045	32.77
282.26	22.53
282.476	18.43
282.691	34.82
282.906	53.25
283.122	57.34
283.337	0
283.552	61.44
283.767	40.96
283.983	63.49
284.198	90.11
284.413	88.06
284.628	20.48
284.843	65.54
285.058	75.77
285.274	75.77
285.489	83.97
285.704	55.3
285.919	-2.05
286.134	137.21
286.349	22.53
286.564	14.34
286.779	67.58
286.995	-30.72
287.21	-22.53
287.425	-2.05
287.64	63.49
287.855	-2.05
288.07	55.3
288.285	18.43
288.5	20.48
288.715	47.1
288.93	30.72
289.145	63.49
289.36	81.92
289.575	0
289.79	88.06
290.004	57.34
290.219	120.83
290.434	38.91
290.649	-63.49
290.864	98.3
291.079	59.39
291.294	75.77
291.509	36.86
291.724	10.24
291.938	45.06
292.153	90.11
292.368	40.96
292.583	-30.72
292.798	18.43
293.012	-2.05
293.227	40.96
293.442	51.2
293.657	61.44
293.871	86.01
294.086	114.69
294.301	120.83
294.516	4.1
294.73	90.11
294.945	-22.53
295.16	61.44
295.374	32.77
295.589	116.73
295.804	-8.19
296.018	55.3
296.233	133.12
296.447	51.2
296.662	43.01
296.877	40.96
297.091	112.64
297.306	79.87
297.52	57.34
297.735	24.58
297.949	20.48
298.164	32.77
298.378	45.06
298.593	43.01
298.807	51.2
299.022	40.96
299.236	34.82
299.451	53.25
299.665	40.96
299.88	-40.96
300.094	104.45
300.309	34.82
300.523	24.58
300.737	59.39
300.952	90.11
301.166	69.63
301.381	-65.54
301.595	36.86
301.809	116.73
302.024	86.01
302.238	43.01
302.452	32.77
302.667	81.92
302.881	59.39
303.095	57.34
303.309	43.01
303.524	18.43
303.738	51.2
303.952	79.87
304.166	38.91
304.381	4.1
304.595	36.86
304.809	8.19
305.023	18.43
305.237	-57.34
305.452	30.72
305.666	53.25
305.88	49.15
306.094	38.91
306.308	30.72
306.522	26.62
306.736	4.1
306.95	96.25
307.164	114.69
307.379	22.53
307.593	51.2
307.807	104.45
308.021	67.58
308.235	-16.38
308.449	-4.1
308.663	49.15
308.877	157.69
309.091	26.62
309.305	61.44
309.519	12.29
309.733	61.44
309.947	8.19
310.161	45.06
310.374	12.29
310.588	90.11
310.802	61.44
311.016	16.38
311.23	30.72
311.444	-14.34
311.658	16.38
311.872	92.16
312.085	22.53
312.299	75.77
312.513	36.86
312.727	-61.44
312.941	34.82
313.154	88.06
313.368	114.69
313.582	106.49
313.796	-10.24
314.009	69.63
314.223	45.06
314.437	73.73
314.651	16.38
314.864	22.53
315.078	12.29
315.292	26.62
315.505	-36.86
315.719	73.73
315.933	26.62
316.146	18.43
316.36	71.68
316.573	38.91
316.787	47.1
317.001	51.2
317.214	4.1
317.428	112.64
317.641	20.48
317.855	32.77
318.068	71.68
318.282	-26.62
318.495	49.15
318.709	53.25
318.922	55.3
319.136	114.69
319.349	36.86
319.563	-34.82
319.776	40.96
319.99	34.82
320.203	79.87
320.417	77.82
320.63	98.3
320.843	126.97
321.057	86.01
321.27	110.59
321.483	-24.58
321.697	129.02
321.91	49.15
322.124	90.11
322.337	6.14
322.55	-6.14
322.763	88.06
322.977	57.34
323.19	24.58
323.403	24.58
323.617	67.58
323.83	63.49
324.043	-2.05
324.256	71.68
324.469	34.82
324.683	104.45
324.896	61.44
325.109	40.96
325.322	55.3
325.535	26.62
325.748	16.38
325.962	14.34
326.175	32.77
326.388	55.3
326.601	22.53
326.814	14.34
327.027	63.49
327.24	53.25
327.453	-18.43
327.666	34.82
327.879	100.35
328.092	18.43
328.305	10.24
328.518	59.39
328.731	-28.67
328.944	8.19
329.157	53.25
329.37	-6.14
329.583	59.39
329.796	73.73
330.009	24.58
330.222	100.35
330.435	157.69
330.648	98.3
330.861	14.34
331.073	38.91
331.286	26.62
331.499	24.58
331.712	22.53
331.925	22.53
332.138	77.82
332.35	55.3
332.563	75.77
332.776	124.93
332.989	12.29
333.202	49.15
333.414	-4.1
333.627	71.68
333.84	59.39
334.053	51.2
334.265	14.34
334.478	98.3
334.691	77.82
334.903	43.01
335.116	6.14
335.329	61.44
335.541	108.54
335.754	102.4
335.966	36.86
336.179	32.77
336.392	45.06
336.604	73.73
336.817	63.49
337.029	40.96
337.242	61.44
337.454	79.87
337.667	18.43
337.88	20.48
338.092	67.58
338.305	16.38
338.517	63.49
338.729	75.77
338.942	67.58
339.154	12.29
339.367	34.82
339.579	8.19
339.792	18.43
340.004	47.1
340.217	47.1
340.429	34.82
340.641	55.3
340.854	79.87
341.066	69.63
341.278	57.34
341.491	116.73
341.703	63.49
341.915	51.2
342.128	102.4
342.34	67.58
342.552	43.01
342.764	71.68
342.977	61.44
343.189	45.06
343.401	90.11
343.613	14.34
343.826	55.3
344.038	18.43
344.25	61.44
344.462	30.72
344.674	12.29
344.886	2.05
345.099	126.97
345.311	30.72
345.523	63.49
345.735	34.82
345.947	43.01
346.159	-30.72
346.371	69.63
346.583	-43.01
346.795	61.44
347.007	57.34
347.219	22.53
347.431	-18.43
347.643	122.88
347.855	-36.86
348.067	-30.72
348.279	2.05
348.491	104.45
348.703	32.77
348.915	32.77
349.127	6.14
349.339	98.3
349.551	2.05
349.763	63.49
349.975	96.25
350.187	20.48
350.399	106.49
350.61	34.82
350.822	16.38
351.034	20.48
351.246	30.72
351.458	75.77
351.669	122.88
351.881	47.1
352.093	67.58
352.305	83.97
352.517	-47.1
352.728	100.35
352.94	40.96
353.152	-6.14
353.363	2.05
353.575	59.39
353.787	10.24
353.999	83.97
354.21	139.26
354.422	6.14
354.633	71.68
354.845	51.2
355.057	28.67
355.268	-30.72
355.48	75.77
355.692	18.43
355.903	88.06
356.115	20.48
356.326	57.34
356.538	75.77
356.749	16.38
356.961	98.3
357.172	14.34
357.384	8.19
357.595	83.97
357.807	-22.53
358.018	63.49
358.23	59.39
358.441	63.49
358.653	51.2
358.864	4.1
359.075	88.06
359.287	18.43
359.498	104.45
359.709	8.19
359.921	114.69
360.132	67.58
360.344	71.68
360.555	-6.14
360.766	26.62
360.977	94.21
361.189	67.58
361.4	28.67
361.611	57.34
361.823	24.58
362.034	30.72
362.245	-34.82
362.456	129.02
362.667	67.58
362.879	55.3
363.09	106.49
363.301	77.82
363.512	10.24
363.723	51.2
363.935	49.15
364.146	53.25
364.357	51.2
364.568	79.87
364.779	24.58
364.99	55.3
365.201	47.1
365.412	155.65
365.623	47.1
365.834	57.34
366.045	63.49
366.256	32.77
366.467	133.12
366.678	22.53
366.889	65.54
367.1	43.01
367.311	108.54
367.522	86.01
367.733	59.39
367.944	92.16
368.155	10.24
368.366	47.1
368.577	71.68
368.788	94.21
368.999	65.54
369.209	96.25
369.42	75.77
369.631	98.3
369.842	116.73
370.053	2.05
370.264	-6.14
370.474	24.58
370.685	30.72
370.896	143.36
371.107	81.92
371.317	34.82
371.528	67.58
371.739	0
371.95	61.44
372.16	112.64
372.371	18.43
372.582	24.58
372.792	106.49
373.003	81.92
373.214	30.72
373.424	88.06
373.635	61.44
373.846	92.16
374.056	34.82
374.267	47.1
374.477	90.11
374.688	20.48
374.898	71.68
375.109	108.54
375.319	102.4
375.53	131.07
375.74	118.78
375.951	100.35
376.161	83.97
376.372	18.43
376.582	57.34
376.793	98.3
377.003	79.87
377.214	47.1
377.424	90.11
377.635	126.97
377.845	38.91
378.055	102.4
378.266	51.2
378.476	65.54
378.686	88.06
378.897	34.82
379.107	108.54
379.317	90.11
379.528	153.6
379.738	163.84
379.948	67.58
380.158	36.86
380.369	108.54
380.579	90.11
380.789	-6.14
380.999	96.25
381.21	30.72
381.42	81.92
381.63	51.2
381.84	69.63
382.05	135.17
382.261	141.31
382.471	32.77
382.681	75.77
382.891	67.58
383.101	184.32
383.311	112.64
383.521	34.82
383.731	196.61
383.941	88.06
384.151	22.53
384.361	90.11
384.571	92.16
384.781	104.45
384.991	116.73
385.201	38.91
385.411	55.3
385.621	55.3
385.831	69.63
386.041	73.73
386.251	79.87
386.461	98.3
386.671	90.11
386.881	96.25
387.091	122.88
387.301	86.01
387.511	120.83
387.72	98.3
387.93	108.54
388.14	38.91
388.35	88.06
388.56	94.21
388.769	114.69
388.979	69.63
389.189	18.43
389.399	24.58
389.609	155.65
389.818	71.68
390.028	75.77
390.238	104.45
390.447	38.91
390.657	18.43
390.867	75.77
391.076	26.62
391.286	71.68
391.496	165.89
391.705	135.17
391.915	172.03
392.125	122.88
392.334	104.45
392.544	77.82
392.753	104.45
392.963	20.48
393.172	79.87
393.382	100.35
393.591	118.78
393.801	79.87
394.01	149.5
394.22	69.63
394.429	172.03
394.639	45.06
394.848	63.49
395.058	116.73
395.267	83.97
395.477	137.21
395.686	61.44
395.895	147.45
396.105	202.75
396.314	155.65
396.524	129.02
396.733	43.01
396.942	135.17
397.152	108.54
397.361	98.3
397.57	149.5
397.78	137.21
397.989	178.17
398.198	174.08
398.407	114.69
398.617	157.69
398.826	133.12
399.035	165.89
399.244	153.6
399.453	147.45
399.663	131.07
399.872	133.12
400.081	129.02
400.29	112.64
400.499	133.12
400.708	208.89
400.917	169.98
401.127	182.27
401.336	145.41
401.545	219.13
401.754	219.13
401.963	196.61
402.172	114.69
402.381	143.36
402.59	131.07
402.799	141.31
403.008	219.13
403.217	155.65
403.426	147.45
403.635	120.83
403.844	202.75
404.053	149.5
404.262	186.37
404.471	299
404.68	196.61
404.888	198.65
405.097	143.36
405.306	249.85
405.515	256
405.724	145.41
405.933	223.23
406.142	258.04
406.35	292.86
406.559	233.47
406.768	178.17
406.977	348.15
407.185	251.9
407.394	288.76
407.603	290.81
407.812	319.48
408.02	382.97
408.229	253.95
408.438	366.59
408.646	276.48
408.855	329.72
409.064	354.3
409.272	364.54
409.481	339.96
409.69	395.26
409.898	387.07
410.107	497.66
410.315	487.42
410.524	481.27
410.733	536.57
410.941	483.32
411.15	507.9
411.358	591.86
411.567	534.52
411.775	557.05
411.984	573.43
412.192	600.05
412.401	651.25
412.609	671.73
412.818	710.65
413.026	604.15
413.234	696.31
413.443	661.49
413.651	737.27
413.86	808.95
414.068	763.89
414.276	851.95
414.485	890.87
414.693	925.68
414.901	972.79
415.11	923.63
415.318	1001.46
415.526	1081.33
415.734	1009.65
415.943	1083.38
416.151	1165.29
416.359	1112.05
416.567	1069.04
416.776	1288.17
416.984	1300.46
417.192	1394.67
417.4	1335.28
417.608	1384.43
417.817	1413.1
418.025	1464.3
418.233	1570.79
418.441	1572.84
418.649	1609.7
418.857	1681.38
419.065	1722.34
419.273	1767.4
419.481	1908.71
419.689	1943.52
419.897	2058.21
420.105	2056.16
420.313	2172.89
420.521	2117.6
420.729	2127.84
420.937	2340.83
421.145	2492.38
421.353	2332.64
421.561	2701.27
421.769	2795.48
421.977	2832.34
422.185	2744.28
422.393	3055.57
422.601	3198.93
422.809	3295.18
423.017	3317.71
423.224	3284.94
423.432	3524.55
423.64	3418.06
423.848	3893.19
424.056	3743.69
424.263	4077.51
424.471	4057.03
424.679	4100.03
424.887	4374.46
425.094	4374.46
425.302	4476.86
425.51	4659.13
425.718	4646.84
425.925	4929.46
426.133	4958.13
426.341	5316.53
426.548	5531.56
426.756	5543.85
426.964	5607.34
427.171	5908.39
427.379	5967.78
427.586	6332.32
427.794	6342.56
428.001	6692.76
428.209	7018.39
428.417	6870.94
428.624	7372.69
428.832	7362.45
429.039	7311.25
429.247	7253.91
429.454	8107.91
429.662	8619.9
429.869	7974.79
430.076	8699.77
430.284	8580.99
430.491	8701.82
430.699	9295.73
430.906	9144.18
431.114	9383.79
431.321	9828.2
431.528	9768.81
431.736	10540.9
431.943	10991.45
432.15	10491.74
432.358	10807.13
432.565	11304.79
432.772	11204.44
432.979	12083.02
433.187	12154.69
433.394	12394.31
433.601	13004.6
433.808	12726.08
434.016	12818.24
434.223	13707.05
434.43	14372.64
434.637	13918
434.844	14888.73
435.052	15263.51
435.259	15130.39
435.466	15376.15
435.673	15466.26
435.88	16404.23
436.087	17049.34
436.294	16930.56
436.501	16824.06
436.708	17157.88
436.915	17444.6
437.122	18407.14
437.329	18122.48
437.537	18949.85
437.743	19316.44
437.95	19238.62
438.157	20293.32
438.364	20594.37
438.571	20852.42
438.778	20960.96
438.985	22996.64
439.192	22218.41
439.399	22828.71
439.606	22286
439.813	23451.29
440.02	24934.02
440.227	24430.22
440.433	24247.95
440.64	24714.89
440.847	24805
441.054	25603.71
441.261	27291.23
441.467	26789.48
441.674	26910.31
441.881	28239.44
442.088	28513.87
442.294	27997.78
442.501	28585.55
442.708	29425.21
442.914	30471.73
443.121	31559.2
443.328	30823.98
443.534	33093.13
443.741	32249.36
443.948	31637.02
444.154	34559.47
444.361	33809.92
444.568	34280.95
444.774	34092.54
444.981	34414.07
445.187	35239.4
445.394	36732.37
445.6	36326.87
445.807	39710.11
446.013	37952.96
446.22	39120.3
446.426	40185.24
446.633	40668.56
446.839	41801.09
447.046	40549.78
447.252	42442.1
447.459	42249.6
447.665	42016.13
447.871	44029.28
448.078	45405.52
448.284	43609.45
448.491	44477.79
448.697	46411.07
448.903	47185.2
449.11	46812.47
449.316	46445.88
449.522	47256.88
449.728	48438.56
449.935	48669.98
450.141	48393.5
450.347	49591.56
450.553	48170.27
450.76	48180.51
450.966	49960.2
451.172	49782.02
451.378	50515.2
451.584	49888.52
451.791	50621.69
451.997	50410.75
452.203	51113.2
452.409	51002.61
452.615	50715.9
452.821	48885.01
453.027	48262.43
453.233	50478.33
453.44	48379.17
453.646	49253.65
453.852	49110.29
454.058	49614.09
454.264	48413.98
454.47	49399.05
454.676	47942.95
454.882	49536.27
455.088	45022.54
455.294	45837.64
455.5	46443.84
455.705	46595.38
455.911	45094.22
456.117	43842.91
456.323	43175.28
456.529	41072.01
456.735	42825.07
456.941	41651.59
457.147	40945.04
457.352	39837.09
457.558	38925.74
457.764	39185.83
457.97	38604.21
458.176	37758.4
458.381	37588.42
458.587	35679.71
458.793	35538.4
458.999	34121.21
459.204	35892.7
459.41	35141.1
459.616	32683.53
459.821	33191.43
460.027	32648.72
460.233	31876.63
460.438	30379.57
460.644	30690.86
460.85	29263.43
461.055	29173.31
461.261	28814.92
461.466	26904.17
461.672	26097.27
461.878	27934.29
462.083	26265.2
462.289	25364.09
462.494	25360
462.7	24084.11
462.905	23441.05
463.111	24811.14
463.316	24549
463.522	24037.01
463.727	23973.52
463.932	23864.98
464.138	23785.11
464.343	23670.42
464.549	23193.25
464.754	23918.23
464.959	24018.58
465.165	23426.71
465.37	22419.11
465.575	22208.17
465.781	22884
465.986	22832.8
466.191	22275.76
466.397	21624.5
466.602	20770.5
466.807	21507.77
467.012	21632.69
467.218	21599.93
467.423	21130.94
467.628	21278.4
467.833	22091.44
468.038	21331.64
468.244	20741.83
468.449	21640.89
468.654	20702.92
468.859	20766.4
469.064	20674.24
469.269	19560.15
469.474	19734.23
469.679	20264.65
469.885	19637.97
470.09	20061.9
470.295	19932.88
470.5	19474.13
470.705	19779.28
470.91	18933.47
471.115	18908.9
471.32	19046.11
471.525	18904.8
471.73	18437.86
471.935	18321.13
472.139	17889.01
472.344	17921.77
472.549	17694.45
472.754	17710.83
472.959	17614.58
473.164	16858.88
473.369	16758.53
473.574	17202.94
473.778	17239.8
473.983	16905.98
474.188	16695.04
474.393	16135.95
474.598	16015.12
474.802	16152.33
475.007	15832.85
475.212	15834.89
475.417	15353.62
475.621	15413.01
475.826	15347.48
476.031	15097.63
476.235	15185.69
476.44	14878.49
476.645	14640.93
476.849	14843.68
477.054	14386.98
477.259	14325.54
477.463	14491.43
477.668	14085.93
477.872	14405.41
478.077	13958.95
478.282	13598.51
478.486	13451.06
478.691	13522.74
478.895	13541.17
479.1	13350.71
479.304	13543.22
479.509	13283.13
479.713	13248.31
479.918	13131.58
480.122	12789.56
480.326	12910.39
480.531	12998.46
480.735	12871.48
480.94	12791.61
481.144	13166.39
481.348	12672.83
481.553	12468.03
481.757	12384.07
481.961	12453.7
482.166	12783.42
482.37	12695.36
482.574	12322.63
482.778	12547.9
482.983	12543.81
483.187	12695.36
483.391	12744.51
483.595	12398.4
483.8	12508.99
484.004	12582.72
484.208	12756.8
484.412	12607.3
484.616	12502.85
484.821	12580.67
485.025	12377.92
485.229	12664.64
485.433	12570.43
485.637	12617.54
485.841	12449.6
486.045	12484.42
486.249	12617.54
486.453	12375.88
486.657	12797.76
486.861	12726.08
487.065	12224.33
487.269	12549.95
487.473	12408.64
487.677	12633.92
487.881	12615.49
488.085	12353.35
488.289	12851
488.493	12797.76
488.697	12633.92
488.901	12644.16
489.105	12654.4
489.309	12498.75
489.512	12934.97
489.716	12842.81
489.92	13025.08
490.124	12836.67
490.328	13172.53
490.531	12623.68
490.735	13041.47
490.939	13127.48
491.143	13182.77
491.346	12846.91
491.55	13113.14
491.754	13281.08
491.958	13346.61
492.161	13133.62
492.365	13365.04
492.569	13489.97
492.772	13356.85
492.976	13502.26
493.18	13504.31
493.383	13827.88
493.587	13754.16
493.79	13952.81
493.994	13643.57
494.197	14178.09
494.401	14141.22
494.605	14202.66
494.808	14223.14
495.012	14368.55
495.215	14583.59
495.419	14645.02
495.622	14495.52
495.825	14794.53
496.029	14958.36
496.232	15316.76
496.436	14944.03
496.639	15507.22
496.843	15406.87
497.046	15740.69
497.249	15888.14
497.453	15879.95
497.656	16166.67
497.859	16142.09
498.063	16482.05
498.266	16692.99
498.469	16480
498.673	16883.45
498.876	17426.17
499.079	17604.34
499.282	17407.73
499.485	17735.41
499.689	17684.21
499.892	18196.2
500.095	18177.77
500.298	18501.35
500.501	18454.25
500.705	18878.18
500.908	19226.33
501.111	19574.49
501.314	19625.68
501.517	19824.34
501.72	19988.17
501.923	19949.26
502.126	20324.04
502.329	20592.33
502.532	20860.61
502.735	20715.2
502.938	21307.07
503.141	21737.14
503.344	22087.34
503.547	21833.39
503.75	22173.36
503.953	22533.8
504.156	22372.01
504.359	22740.64
504.562	23015.07
504.765	23475.87
504.968	23729.81
505.17	23830.16
505.373	23983.76
505.576	24528.52
505.779	24653.45
505.982	24772.23
506.185	25333.37
506.387	25347.71
506.59	25998.96
506.793	25927.28
506.996	26080.88
507.198	26785.38
507.401	26601.07
507.604	26889.83
507.807	27741.78
508.009	27856.47
508.212	27885.14
508.415	28372.56
508.617	28687.95
508.82	28522.06
509.022	28681.8
509.225	29451.84
509.428	29572.67
509.63	29865.53
509.833	30246.45
510.035	31036.97
510.238	30512.69
510.44	31299.11
510.643	31514.14
510.845	31671.84
511.048	31434.27
511.25	32034.33
511.453	32380.43
511.655	33994.23
511.858	33373.7
512.06	33144.33
512.262	33717.76
512.465	33963.51
512.667	34469.36
512.87	34749.93
513.072	34819.56
513.274	35739.1
513.477	35612.13
513.679	36023.77
513.881	36824.53
514.084	36900.3
514.286	36586.96
514.488	37215.69
514.69	37998.01
514.893	38034.88
515.095	38227.38
515.297	38538.68
515.499	38649.27
515.701	39742.88
515.904	40035.74
516.106	39898.53
516.308	40426.9
516.51	40873.36
516.712	40840.59
516.914	41106.83
517.116	41921.92
517.318	42112.38
517.52	42304.89
517.722	42851.7
517.925	43052.4
518.127	43580.77
518.329	43722.08
518.531	43447.66
518.733	44324.19
518.935	45268.3
519.136	44680.53
519.338	45815.11
519.54	45866.31
519.742	45997.38
519.944	46351.68
520.146	47060.27
520.348	47172.91
520.55	47373.61
520.752	47562.03
520.954	48330.01
521.155	48698.65
521.357	49270.03
521.559	49433.87
521.761	49843.46
521.963	49833.22
522.164	50132.23
522.366	50044.16
522.568	50517.25
522.77	50842.87
522.971	51696.88
523.173	51555.57
523.375	52114.66
523.576	51639.53
523.778	52233.44
523.98	52704.48
524.181	53292.24
524.383	53257.43
524.584	53992.65
524.786	53814.47
524.988	53705.93
525.189	54236.36
525.391	55129.27
525.592	54600.89
525.794	54981.82
525.995	55258.29
526.197	55243.96
526.398	55647.41
526.6	56003.75
526.801	56085.67
527.003	56138.92
527.204	56525.99
527.406	56536.23
527.607	56761.5
527.808	57040.03
528.01	56495.27
528.211	56886.43
528.412	57984.14
528.614	58027.15
528.815	57797.77
529.016	58350.73
529.218	57703.57
529.419	58078.35
529.62	58115.21
529.822	58174.6
530.023	58354.82
530.224	58129.54
530.425	58631.3
530.626	58283.14
530.828	58029.19
531.029	59481.2
531.23	58379.4
531.431	58969.21
531.632	59550.84
531.833	59544.69
532.035	59196.54
532.236	59214.97
532.437	59460.72
532.638	59413.62
532.839	59554.93
533.04	59806.83
533.241	58987.64
533.442	60181.61
533.643	59159.67
533.844	59319.41
534.045	59726.96
534.246	59360.37
534.447	59903.09
534.648	59645.04
534.849	59567.22
535.05	59518.07
535.251	59755.63
535.451	59696.24
535.652	59659.38
535.853	59681.91
536.054	59903.09
536.255	60054.64
536.456	59264.12
536.657	60257.38
536.857	59749.49
537.058	59733.1
537.259	60251.24
537.46	60183.66
537.66	59933.81
537.861	59860.08
538.062	59352.18
538.263	60169.32
538.463	59528.31
538.664	59411.57
538.865	59935.85
539.065	60232.81
539.266	59282.55
539.466	60099.69
539.667	59165.82
539.868	60140.65
540.068	59827.31
540.269	59759.73
540.469	59993.2
540.67	59610.23
540.87	59645.04
541.071	59591.79
541.271	59761.78
541.472	59864.17
541.672	59284.6
541.873	59509.88
542.073	59100.28
542.274	59980.91
542.474	59499.64
542.675	59038.84
542.875	59239.54
543.075	59268.22
543.276	58797.18
543.476	59800.69
543.676	59184.25
543.877	59493.49
544.077	59479.16
544.277	58860.67
544.478	59239.54
544.678	59337.85
544.878	58944.64
545.078	59548.79
545.279	58889.34
545.479	58530.95
545.679	59157.63
545.879	58758.27
546.079	58723.46
546.28	59403.38
546.48	58690.69
546.68	59042.94
546.88	59061.37
547.08	59174.01
547.28	58870.91
547.48	58340.49
547.68	58723.46
547.88	58723.46
548.081	59092.09
548.281	59040.89
548.481	58508.42
548.681	58635.39
548.881	58616.96
549.081	58354.82
549.28	58076.3
549.48	59194.49
549.68	58344.58
549.88	59063.42
550.08	58272.9
550.28	58791.04
550.48	58541.19
550.68	58891.39
550.88	58330.25
551.08	58412.16
551.279	58428.55
551.479	58371.21
551.679	58414.21
551.879	58297.48
552.079	58543.23
552.278	57986.19
552.478	57973.9
552.678	58469.51
552.878	58444.93
553.077	57822.35
553.277	57842.83
553.477	58625.15
553.676	58037.39
553.876	58002.57
554.076	57945.23
554.275	57771.15
554.475	57355.41
554.674	58428.55
554.874	58215.56
555.074	57924.75
555.273	57744.53
555.473	58006.67
555.672	57519.25
555.872	57969.8
556.071	58109.07
556.271	58068.11
556.47	57687.18
556.67	57085.08
556.869	56929.44
557.068	57740.43
557.268	56687.77
557.467	57435.28
557.667	57138.33
557.866	57015.45
558.065	56890.52
558.265	56794.27
558.464	56274.09
558.663	56929.44
558.863	56437.92
559.062	57117.85
559.261	56059.05
559.461	56982.68
559.66	56218.79
559.859	56923.29
560.058	55735.47
560.258	56556.7
560.457	55850.16
560.656	56470.69
560.855	55528.62
561.054	55811.24
561.253	55436.47
561.453	55733.42
561.652	55588.02
561.851	55909.55
562.05	55512.24
562.249	54990.01
562.448	55719.09
562.647	55426.23
562.846	55073.98
563.045	55086.26
563.244	54512.83
563.443	55153.85
563.642	54236.36
563.841	54637.76
564.04	54457.54
564.239	54942.91
564.438	54193.35
564.637	54684.86
564.836	54453.44
565.035	54084.81
565.234	53691.6
565.432	53615.82
565.631	53597.39
565.83	53734.6
566.029	53157.08
566.228	53333.2
566.427	52767.96
566.625	53306.58
566.824	52389.09
567.023	53144.79
567.222	52182.24
567.42	53171.41
567.619	52800.73
567.818	52640.99
568.016	52296.93
568.215	52796.63
568.414	52100.32
568.612	52661.47
568.811	52206.82
569.01	52100.32
569.208	51156.21
569.407	51975.4
569.605	51346.67
569.804	51719.4
570.002	50969.85
570.201	51590.38
570.4	50691.32
570.598	50959.61
570.797	51154.16
570.995	50322.69
571.193	50062.6
571.392	50877.69
571.59	50244.87
571.789	50590.97
571.987	50343.17
572.186	50074.88
572.384	49798.41
572.582	49933.57
572.781	49669.39
572.979	49356.05
573.177	49388.81
573.376	49984.77
573.574	49026.32
573.772	49231.12
573.971	48905.49
574.169	48901.4
574.367	48438.56
574.565	48674.07
574.763	48913.69
574.962	48532.76
575.16	47893.8
575.358	48409.89
575.556	47486.25
575.754	48622.87
575.952	47715.62
576.151	47959.33
576.349	47379.76
576.547	47883.56
576.745	47703.34
576.943	47349.04
577.141	47164.72
577.339	47328.56
577.537	47068.47
577.735	47021.36
577.933	46855.48
578.131	46865.72
578.329	46378.3
578.527	46337.34
578.725	46492.99
578.923	46382.4
579.121	45880.64
579.319	46181.7
579.516	46122.3
579.714	45913.41
579.912	45985.09
580.11	45899.08
580.308	45692.23
580.506	45491.53
580.704	44862.8
580.901	45206.86
581.099	45243.73
581.297	44774.74
581.495	44961.11
581.692	45223.25
581.89	44320.09
582.088	44852.56
582.285	44141.92
582.483	45006.16
582.681	44363.1
582.878	44244.32
583.076	43967.84
583.274	44225.89
583.471	43822.44
583.669	43734.37
583.866	43617.64
584.064	43908.45
584.262	42954.1
584.459	43449.7
584.657	42929.52
584.854	43636.07
585.052	42671.48
585.249	43066.73
585.447	42933.62
585.644	42503.54
585.841	42036.61
586.039	42737.01
586.236	42089.85
586.434	42204.54
586.631	41735.56
586.828	41891.2
587.026	41885.06
587.223	42241.4
587.42	41622.92
587.618	41655.68
587.815	41289.1
588.012	41305.48
588.21	40832.4
588.407	41833.86
588.604	40959.37
588.801	40875.41
588.999	40705.43
589.196	40734.1
589.393	40361.37
589.59	40502.68
589.787	40328.6
589.984	40160.67
590.182	40002.97
590.379	40492.44
590.576	40054.17
590.773	40414.62
590.97	39589.28
591.167	39818.66
591.364	39456.17
591.561	39667.11
591.758	39374.25
591.955	38686.13
592.152	39853.47
592.349	39294.38
592.546	38833.58
592.743	38993.32
592.94	38342.07
593.137	39015.85
593.334	39046.57
593.531	38473.14
593.727	38028.73
593.924	38350.26
594.121	37694.91
594.318	38100.41
594.515	37713.34
594.712	37875.13
594.908	37535.17
595.105	37785.02
595.302	37451.2
595.499	37612.99
595.696	37361.09
595.892	36842.96
596.089	37426.63
596.286	37127.63
596.482	36961.74
596.679	36758.99
596.876	36871.63
597.072	36769.23
597.269	36279.77
597.466	36505.04
597.662	36136.41
597.859	36357.59
598.055	35931.61
598.252	35917.28
598.448	35972.57
598.645	36072.92
598.841	35347.94
599.038	35605.98
599.234	35462.63
599.431	35077.61
599.627	35157.48
599.824	35356.13
600.02	35141.1
600.217	35163.62
600.413	34727.41
600.609	34770.41
600.806	34891.24
601.002	34706.93
601.198	34500.08
601.395	34323.96
601.591	34127.35
601.787	34119.16
601.984	34416.11
602.18	34487.79
602.376	33902.07
602.572	33977.85
602.769	33703.42
602.965	33416.71
603.161	33660.41
603.357	33236.48
603.553	33297.92
603.75	33310.21
603.946	33107.46
604.142	33173
604.338	32470.54
604.534	32960.01
604.73	32249.36
604.926	32378.39
605.122	32564.75
605.318	32189.97
605.514	32128.53
605.71	32337.43
605.906	32224.79
606.102	32232.98
606.298	32085.53
606.494	31946.26
606.69	31956.5
606.886	31989.27
607.082	31434.27
607.278	31878.68
607.474	31118.89
607.67	31618.59
607.866	31159.84
608.062	31581.73
608.257	31448.61
608.453	31569.44
608.649	31135.27
608.845	30957.1
609.041	30789.16
609.236	31045.16
609.432	30963.24
609.628	30664.24
609.824	30907.94
610.019	30813.74
610.215	30516.78
610.411	30770.73
610.606	30735.92
610.802	30357.04
610.998	30484.01
611.193	30219.83
611.389	30164.53
611.584	30131.76
611.78	30234.16
611.976	29924.92
612.171	30066.23
612.367	30066.23
612.562	29734.46
612.758	29531.71
612.953	29431.36
613.149	29914.68
613.344	29396.54
613.539	29756.99
613.735	29435.45
613.93	29607.48
614.126	29199.94
614.321	29689.4
614.517	29591.1
614.712	29109.83
614.907	29023.81
615.103	29064.77
615.298	29316.67
615.493	29191.75
615.688	29003.33
615.884	29498.94
616.079	28405.33
616.274	29247.04
616.47	28757.58
616.665	28577.36
616.86	28192.34
617.055	28583.5
617.25	28599.88
617.445	28452.43
617.641	28061.27
617.836	28626.51
618.031	28055.12
618.226	28483.15
618.421	27971.16
618.616	28317.26
618.811	27324
619.006	28083.8
619.201	27381.34
619.396	27647.58
619.591	27055.72
619.786	27573.85
619.981	27078.24
620.176	27416.16
620.371	27178.59
620.566	26867.3
620.761	26855.01
620.956	26996.32
621.151	26574.44
621.346	26699.37
621.541	26078.83
621.735	26207.86
621.93	25859.7
622.125	26058.35
622.32	25480.83
622.515	25722.49
622.709	25468.54
622.904	25654.9
623.099	25202.3
623.294	25308.8
623.488	24897.16
623.683	24772.23
623.878	24747.65
624.072	24768.13
624.267	24815.24
624.462	24313.49
624.656	23926.42
624.851	24391.31
625.046	23770.77
625.24	24037.01
625.435	23543.45
625.629	23453.34
625.824	23469.72
626.018	23291.55
626.213	22857.38
626.407	23283.36
626.602	22869.67
626.796	23168.67
626.991	22959.78
627.185	22580.9
627.38	22582.95
627.574	21952.18
627.768	22122.16
627.963	22230.7
628.157	21714.61
628.352	22060.72
628.546	21774
628.74	21845.68
628.935	21448.38
629.129	21368.51
629.323	21251.77
629.517	21026.5
629.712	20967.1
629.906	20909.76
630.1	20491.98
630.294	20823.75
630.489	20506.31
630.683	20758.21
630.877	20238.03
631.071	20317.9
631.265	20262.6
631.459	19947.22
631.653	19885.78
631.848	19775.19
632.042	19609.3
632.236	19734.23
632.43	19367.64
632.624	19574.49
632.818	19220.19
633.012	19056.35
633.206	19009.25
633.4	18949.85
633.594	18740.96
633.788	18990.81
633.982	18790.11
634.176	18853.6
634.369	18341.61
634.563	18179.82
634.757	18228.97
634.951	18269.93
635.145	18239.21
635.339	18319.08
635.533	17731.31
635.726	17467.13
635.92	17368.82
636.114	17327.86
636.308	17329.91
636.501	17309.43
636.695	17512.18
636.889	17026.81
637.083	17112.83
637.276	17049.34
637.47	17104.64
637.664	16717.57
637.857	16731.9
638.051	16647.94
638.244	16412.42
638.438	16465.67
638.632	16330.5
638.825	16285.45
639.019	16211.72
639.212	15980.3
639.406	16105.23
639.599	15888.14
639.793	16117.51
639.986	15505.17
640.18	15671.06
640.373	15501.08
640.567	15300.37
640.76	15224.6
640.954	15255.32
641.147	15040.28
641.34	15136.54
641.534	15048.47
641.727	14849.82
641.92	14827.29
642.114	14698.27
642.307	14944.03
642.5	14620.45
642.694	14409.51
642.887	14364.45
643.08	14587.68
643.273	14397.22
643.467	14294.82
643.66	14006.06
643.853	13838.12
644.046	13756.21
644.239	13836.08
644.432	13762.35
644.626	13662
644.819	13344.56
645.012	13662
645.205	13551.41
645.398	13313.84
645.591	13266.74
645.784	13258.55
645.977	12980.03
646.17	13313.84
646.363	13109.05
646.556	12838.72
646.749	12947.26
646.942	13023.03
647.135	12660.54
647.328	12801.85
647.521	12584.77
647.714	12474.18
647.907	12504.9
648.099	12349.25
648.292	12515.14
648.485	12371.78
648.678	11888.46
648.871	12179.27
649.064	12138.31
649.256	11972.43
649.449	11863.88
649.642	11827.02
649.835	11734.86
650.027	11620.17
650.22	11626.32
650.413	11702.09
650.605	11521.87
650.798	11493.2
650.991	11405.14
651.183	11296.6
651.376	11231.06
651.568	11253.59
651.761	11186.01
651.954	11126.61
652.146	10958.68
652.339	10989.4
652.531	10915.67
652.724	10833.75
652.916	10897.24
653.109	10641.25
653.301	10952.54
653.494	10784.6
653.686	10508.13
653.879	10809.18
654.071	10495.84
654.263	10594.14
654.456	10528.61
654.648	10471.26
654.84	10127.21
655.033	10248.04
655.225	10123.11
655.417	9979.75
655.61	10094.44
655.802	10076.01
655.994	9883.5
656.186	10043.24
656.379	9695.08
656.571	9842.54
656.763	9629.55
656.955	9672.56
657.148	9650.03
657.34	9807.72
657.532	9459.57
657.724	9381.74
657.916	9336.69
658.108	9381.74
658.3	9224.05
658.492	9283.44
658.684	9107.32
658.876	9254.77
659.068	9041.78
659.26	9000.82
659.452	9082.74
659.644	9009.01
659.836	8785.79
660.028	8802.17
660.22	8736.63
660.412	8806.27
660.604	8783.74
660.796	8767.35
660.988	8529.79
661.18	8488.83
661.372	8488.83
661.563	8521.6
661.755	8431.49
661.947	8398.72
662.139	8392.58
662.331	8066.95
662.522	8083.33
662.714	8095.62
662.906	8232.83
663.097	8120.2
663.289	8038.28
663.481	7989.13
663.673	8109.96
663.864	7899.02
664.056	8003.46
664.247	8028.04
664.439	7808.9
664.631	7866.25
664.822	7726.99
665.014	7827.34
665.205	7573.39
665.397	7675.79
665.588	7491.47
665.78	7511.95
665.971	7591.82
666.163	7423.89
666.354	7606.16
666.546	7423.89
666.737	7327.63
666.929	7311.25
667.12	7313.3
667.311	7270.29
667.503	7241.62
667.694	7225.23
667.885	7126.93
668.077	7092.12
668.268	7030.68
668.459	7065.49
668.651	6997.91
668.842	7131.03
669.033	7038.87
669.224	6813.59
669.416	7040.92
669.607	6891.41
669.798	6713.24
669.989	6897.56
670.18	6795.16
670.371	6838.17
670.563	6590.36
670.754	6545.31
670.945	6543.26
671.136	6709.15
671.327	6639.51
671.518	6600.6
671.709	6520.73
671.9	6623.13
672.091	6487.96
672.282	6516.64
672.473	6467.49
672.664	6485.92
672.855	6354.85
673.046	6473.63
673.237	6315.94
673.428	6395.81
673.619	6463.39
673.809	6332.32
674	6256.54
674.191	6256.54
674.382	6166.43
674.573	6307.74
674.764	6209.44
674.954	6332.32
675.145	6236.06
675.336	6168.48
675.527	6207.39
675.717	6193.06
675.908	5982.12
676.099	6127.52
676.289	6059.94
676.48	6098.85
676.671	5973.92
676.861	6127.52
677.052	6004.64
677.243	5908.39
677.433	5881.77
677.624	5785.51
677.814	5871.53
678.005	6018.98
678.195	5949.35
678.386	5828.52
678.576	5797.8
678.767	5965.73
678.957	5902.25
679.148	5840.81
679.338	5920.68
679.529	5791.66
679.719	5818.28
679.909	5857.19
680.1	5717.93
680.29	5746.6
680.481	5668.78
680.671	5842.85
680.861	5857.19
681.052	5791.66
681.242	5597.1
681.432	5846.95
681.622	5633.96
681.813	5730.22
682.003	5691.31
682.193	5799.85
682.383	5744.55
682.573	5582.76
682.764	5619.63
682.954	5580.71
683.144	5578.67
683.334	5642.15
683.524	5687.21
683.714	5572.52
683.904	5560.24
684.094	5496.75
684.284	5529.52
684.474	5533.61
684.664	5504.94
684.854	5314.48
685.044	5492.65
685.234	5445.55
685.424	5478.32
685.614	5425.07
685.804	5539.76
685.994	5341.1
686.184	5279.66
686.374	5328.81
686.564	5339.05
686.753	5203.89
686.943	5355.44
687.133	5248.94
687.323	5216.18
687.513	5308.34
687.702	5060.53
687.892	5253.04
688.082	5179.31
688.272	5236.66
688.461	5191.6
688.651	5070.77
688.841	5101.49
689.03	5048.24
689.22	5050.29
689.41	5031.86
689.599	4933.56
689.789	5033.91
689.979	5031.86
690.168	4992.95
690.358	4863.93
690.547	4716.47
690.737	4882.36
690.926	4841.4
691.116	4865.97
691.305	4847.54
691.495	4829.11
691.684	4704.18
691.874	4720.57
692.063	4714.42
692.252	4700.09
692.442	4695.99
692.631	4536.25
692.82	4630.46
693.01	4650.94
693.199	4700.09
693.388	4634.55
693.578	4542.39
693.767	4685.75
693.956	4526.01
694.146	4589.5
694.335	4497.34
694.524	4530.11
694.713	4489.15
694.902	4493.24
695.092	4519.87
695.281	4466.62
695.47	4417.47
695.659	4483
695.848	4429.76
696.037	4456.38
696.226	4552.63
696.415	4335.55
696.604	4566.97
696.793	4335.55
696.982	4378.56
697.171	4327.36
697.36	4368.32
697.549	4235.2
697.738	4353.98
697.927	4255.68
698.116	4325.31
698.305	4323.26
698.494	4229.06
698.683	4265.92
698.872	4259.77
699.061	4272.06
699.25	4323.26
699.438	4208.58
699.627	4286.4
699.816	4495.29
700.005	4317.12
700.193	4204.48
700.382	4298.69
700.571	4210.62
700.76	4251.58
700.948	4259.77
701.137	4224.96
701.326	4265.92
701.514	4294.59
701.703	4274.11
701.892	4067.27
702.08	4388.8
702.269	4218.82
702.457	4229.06
702.646	4364.22
702.834	4204.48
703.023	4179.9
703.212	4067.27
703.4	4169.66
703.589	4308.93
703.777	4120.51
703.965	4249.54
704.154	4130.75
704.342	4216.77
704.531	4192.19
704.719	4089.79
704.907	4267.97
705.096	4179.9
705.284	4247.49
705.472	4415.42
705.661	4241.34
705.849	4294.59
706.037	4237.25
706.226	4261.82
706.414	4208.58
706.602	4239.3
706.79	4134.85
706.979	4224.96
707.167	4265.92
707.355	4110.27
707.543	4362.17
707.731	4065.22
707.919	4075.46
708.107	4120.51
708.296	4196.29
708.484	4192.19
708.672	4089.79
708.86	4114.37
709.048	4259.77
709.236	4276.16
709.424	4274.11
709.612	3993.54
709.8	4145.09
709.988	4202.43
710.176	4130.75
710.364	4102.08
710.551	4204.48
710.739	4210.62
710.927	4286.4
711.115	4118.47
711.303	4265.92
711.491	4151.23
711.679	4163.52
711.866	4192.19
712.054	4216.77
712.242	4083.65
712.43	4274.11
712.617	4188.1
712.805	4077.51
712.993	4190.14
713.181	4171.71
713.368	4151.23
713.556	4077.51
713.744	4147.14
713.931	4245.44
714.119	4132.8
714.306	4179.9
714.494	4186.05
714.682	4245.44
714.869	4052.93
715.057	4272.06
715.244	4188.1
715.432	4245.44
715.619	4104.13
715.807	4161.47
715.994	4222.91
716.182	4220.86
716.369	4220.86
716.556	4257.73
716.744	3934.15
716.931	4177.86
717.119	4147.14
717.306	4302.78
717.493	4036.55
717.681	4097.99
717.868	4331.45
718.055	4216.77
718.242	4253.63
718.43	4122.56
718.617	4208.58
718.804	4038.59
718.991	4222.91
719.179	4167.62
719.366	4208.58
719.553	4272.06
719.74	4186.05
719.927	4208.58
720.114	4153.28
720.301	4151.23
720.488	4057.03
720.676	4085.7
720.863	4100.03
721.05	4190.14
721.237	4184
721.424	4294.59
721.611	4194.24
721.798	4126.66
721.985	4089.79
722.172	4110.27
722.358	4161.47
722.545	4126.66
722.732	4018.11
722.919	4132.8
723.106	4009.92
723.293	3995.59
723.48	4134.85
723.667	4163.52
723.853	4042.69
724.04	4192.19
724.227	4159.42
724.414	3958.72
724.6	4050.88
724.787	4065.22
724.974	3956.68
725.161	4067.27
725.347	4003.78
725.534	4087.75
725.72	3991.49
725.907	4057.03
726.094	3989.44
726.28	4057.03
726.467	3973.06
726.653	4042.69
726.84	4016.07
727.027	4050.88
727.213	3901.38
727.4	4095.94
727.586	4175.81
727.773	4079.55
727.959	4032.45
728.145	4040.64
728.332	3962.82
728.518	3977.16
728.705	3913.67
728.891	3971.01
729.077	3921.86
729.264	3835.85
729.45	3870.66
729.636	3977.16
729.823	3975.11
730.009	4106.18
730.195	4032.45
730.382	3995.59
730.568	4077.51
730.754	3903.43
730.94	3958.72
731.126	4005.83
731.313	3964.87
731.499	3907.52
731.685	3891.14
731.871	3905.48
732.057	3968.96
732.243	3940.29
732.429	3876.8
732.615	3962.82
732.801	3954.63
732.987	3948.48
733.173	3960.77
733.359	3913.67
733.545	3885
733.731	3846.09
733.917	3985.35
734.103	3934.15
734.289	3852.23
734.475	3913.67
734.661	3880.9
734.847	3770.31
735.033	3823.56
735.219	3874.76
735.404	3809.22
735.59	3700.68
735.776	3737.54
735.962	3897.28
736.148	3936.2
736.333	3688.39
736.519	3737.54
736.705	3776.45
736.89	3803.08
737.076	3743.69
737.262	3696.58
737.447	3702.73
737.633	3585.99
737.819	3712.97
738.004	3725.26
738.19	3643.34
738.375	3545.03
738.561	3837.89
738.747	3643.34
738.932	3626.95
739.118	3629
739.303	3727.3
739.489	3704.78
739.674	3610.57
739.859	3686.34
740.045	3526.6
740.23	3553.23
740.416	3483.59
740.601	3526.6
740.786	3534.79
740.972	3629
741.157	3465.16
741.342	3418.06
741.528	3442.64
741.713	3370.96
741.898	3473.35
742.084	3512.27
742.269	3573.71
742.454	3401.68
742.639	3536.84
742.824	3467.21
743.01	3377.1
743.195	3430.35
743.38	3461.07
743.565	3389.39
743.75	3497.93
743.935	3299.28
744.12	3346.38
744.305	3190.74
744.49	3256.27
744.675	3225.55
744.86	3268.56
745.045	3303.37
745.23	3233.74
745.415	3250.13
745.6	3061.71
745.785	3094.48
745.97	3186.64
746.155	3065.81
746.34	3084.24
746.525	2930.64
746.71	2981.84
746.895	2959.31
747.079	3010.51
747.264	3004.37
747.449	3000.27
747.634	3055.57
747.819	2981.84
748.003	2910.16
748.188	2910.16
748.373	2901.97
748.557	2910.16
748.742	2840.53
748.927	2828.24
749.111	2916.31
749.296	2787.29
749.481	2768.85
749.665	2818.01
749.85	2621.4
750.034	2660.31
750.219	2662.36
750.404	2582.49
750.588	2639.83
750.773	2676.7
750.957	2623.45
751.141	2496.47
751.326	2570.2
751.51	2551.77
751.695	2562.01
751.879	2541.53
752.064	2568.15
752.248	2496.47
752.432	2488.28
752.617	2553.82
752.801	2482.14
752.985	2389.98
753.17	2306.01
753.354	2410.46
753.538	2297.82
753.722	2420.7
753.907	2209.76
754.091	2260.96
754.275	2277.34
754.459	2250.72
754.643	2154.46
754.828	2211.81
755.012	2267.1
755.196	2129.89
755.38	2181.09
755.564	2170.85
755.748	2142.18
755.932	2197.47
756.116	2052.06
756.3	2142.18
756.484	2045.92
756.668	2197.47
756.852	2052.06
757.036	2004.96
757.22	1957.86
757.404	2009.06
757.588	1988.58
757.772	1961.95
757.956	1961.95
758.14	1927.14
758.323	1992.67
758.507	2013.15
758.691	1865.7
758.875	1955.81
759.059	1902.56
759.242	1884.13
759.426	1886.18
759.61	1763.3
759.794	1937.38
759.977	1910.75
760.161	1896.42
760.345	1722.34
760.528	1830.88
760.712	1802.21
760.895	1900.51
761.079	1671.14
761.263	1761.25
761.446	1771.49
761.63	1697.77
761.813	1697.77
761.997	1720.29
762.18	1753.06
762.364	1716.2
762.547	1669.09
762.731	1640.42
762.914	1605.61
763.098	1644.52
763.281	1613.8
763.464	1695.72
763.648	1722.34
763.831	1699.81
764.015	1583.08
764.198	1638.38
764.381	1599.46
764.564	1660.9
764.748	1597.42
764.931	1708.01
765.114	1662.95
765.297	1624.04
765.481	1540.07
765.664	1509.35
765.847	1495.02
766.03	1472.49
766.213	1607.66
766.397	1515.5
766.58	1546.22
766.763	1452.01
766.946	1462.25
767.129	1415.15
767.312	1497.07
767.495	1458.15
767.678	1441.77
767.861	1443.82
768.044	1507.3
768.227	1433.58
768.41	1486.83
768.593	1402.86
768.776	1482.73
768.959	1390.57
769.142	1454.06
769.324	1458.15
769.507	1392.62
769.69	1486.83
769.873	1411.05
770.056	1404.91
770.239	1359.85
770.421	1394.67
770.604	1337.32
770.787	1392.62
770.97	1445.87
771.152	1361.9
771.335	1347.56
771.518	1331.18
771.7	1378.28
771.883	1298.41
772.066	1249.26
772.248	1236.97
772.431	1273.84
772.613	1288.17
772.796	1171.44
772.978	1247.21
773.161	1304.56
773.343	1138.67
773.526	1282.03
773.708	1245.16
773.891	1148.91
774.073	1165.29
774.256	1212.4
774.438	1212.4
774.621	1241.07
774.803	1165.29
774.985	1124.33
775.168	1071.09
775.35	1243.12
775.532	1171.44
775.715	1218.54
775.897	1196.01
776.079	1097.71
776.261	1124.33
776.444	1130.48
776.626	1112.05
776.808	1091.57
776.99	907.25
777.173	1038.32
777.355	976.88
777.537	1066.99
777.719	1052.66
777.901	964.59
778.083	1046.51
778.265	1015.79
778.447	1011.7
778.629	960.5
778.811	1009.65
778.993	985.07
779.175	927.73
779.357	985.07
779.539	966.64
779.721	952.31
779.903	950.26
780.085	972.79
780.267	894.96
780.449	923.63
780.631	831.48
780.812	903.15
780.994	878.58
781.176	897.01
781.358	872.43
781.54	839.67
781.721	763.89
781.903	868.34
782.085	825.33
782.267	876.53
782.448	872.43
782.63	800.76
782.812	819.19
782.993	835.57
783.175	733.17
783.357	704.5
783.538	813.04
783.72	886.77
783.901	724.98
784.083	737.27
784.264	739.32
784.446	751.6
784.627	727.03
784.809	751.6
784.99	702.45
785.172	735.22
785.353	735.22
785.535	720.88
785.716	718.84
785.897	618.49
786.079	788.47
786.26	671.73
786.441	655.35
786.623	647.16
786.804	616.44
786.985	620.53
787.167	763.89
787.348	616.44
787.529	602.1
787.71	686.07
787.891	643.06
788.073	600.05
788.254	573.43
788.435	675.83
788.616	641.01
788.797	657.4
788.978	630.77
789.159	612.34
789.34	636.92
789.522	579.58
789.703	585.72
789.884	555
790.065	591.86
790.246	659.45
790.427	643.06
790.607	491.51
790.788	540.66
790.969	561.14
791.15	591.86
791.331	540.66
791.512	524.28
791.693	503.8
791.874	542.71
792.054	542.71
792.235	593.91
792.416	514.04
792.597	501.75
792.778	616.44
792.958	559.1
793.139	544.76
793.32	550.9
793.5	544.76
793.681	509.94
793.862	507.9
794.042	591.86
794.223	405.5
794.404	489.46
794.584	434.17
794.765	485.37
794.945	450.55
795.126	471.03
795.306	526.33
795.487	317.44
795.667	415.74
795.848	454.65
796.028	413.69
796.209	526.33
796.389	466.94
796.57	372.73
796.75	366.59
796.93	514.04
797.111	415.74
797.291	346.11
797.471	563.19
797.652	360.44
797.832	425.98
798.012	425.98
798.192	409.59
798.373	444.41
798.553	413.69
798.733	454.65
798.913	430.07
799.093	350.2
799.274	466.94
799.454	403.45
799.634	325.63
799.814	475.13
799.994	458.74
800.174	342.01
800.354	382.97
800.534	354.3
800.714	428.03
800.894	350.2
801.074	272.38
801.254	376.83
801.434	389.11
801.614	321.53
801.794	425.98
801.974	825.33
802.154	339.96
802.334	319.48
802.514	311.29
802.693	403.45
802.873	329.72
803.053	354.3
803.233	323.58
803.413	339.96
803.592	348.15
803.772	374.78
803.952	335.87
804.131	389.11
804.311	317.44
804.491	299
804.67	288.76
804.85	284.67
805.03	321.53
805.209	288.76
805.389	337.91
805.568	253.95
805.748	313.34
805.928	264.19
806.107	362.49
806.287	339.96
806.466	274.43
806.646	372.73
806.825	321.53
807.004	339.96
807.184	235.52
807.363	344.06
807.543	294.91
807.722	294.91
807.901	247.8
808.081	352.25
808.26	247.8
808.439	333.82
808.619	268.28
808.798	274.43
808.977	315.39
809.156	286.72
809.336	280.57
809.515	272.38
809.694	231.42
809.873	253.95
810.052	288.76
810.231	288.76
810.411	313.34
810.59	305.15
810.769	245.76
810.948	348.15
811.127	206.84
811.306	229.37
811.485	215.04
811.664	239.61
811.843	286.72
812.022	296.96
812.201	256
812.38	192.51
812.559	217.08
812.737	249.85
812.916	256
813.095	227.32
813.274	256
813.453	270.33
813.632	264.19
813.811	272.38
813.989	206.84
814.168	223.23
814.347	102.4
814.526	268.28
814.704	241.66
814.883	260.09
815.062	182.27
815.24	280.57
815.419	212.99
815.598	167.93
815.776	157.69
815.955	219.13
816.133	157.69
816.312	227.32
816.49	212.99
816.669	219.13
816.847	260.09
817.026	219.13
817.204	229.37
817.383	233.47
817.561	163.84
817.74	229.37
817.918	268.28
818.097	172.03
818.275	182.27
818.453	174.08
818.632	167.93
818.81	221.18
818.988	245.76
819.167	186.37
819.345	221.18
819.523	221.18
819.701	178.17
819.879	231.42
820.058	202.75
820.236	292.86
820.414	208.89
820.592	174.08
820.77	204.8
820.948	172.03
821.127	178.17
821.305	198.65
821.483	141.31
821.661	223.23
821.839	100.35
822.017	190.46
822.195	210.94
822.373	180.22
822.551	159.74
822.729	233.47
822.907	200.7
823.085	172.03
823.262	190.46
823.44	176.13
823.618	182.27
823.796	176.13
823.974	161.79
824.152	202.75
824.329	194.56
824.507	206.84
824.685	251.9
824.863	141.31
825.04	110.59
825.218	151.55
825.396	196.61
825.574	180.22
825.751	176.13
825.929	196.61
826.107	124.93
826.284	184.32
826.462	182.27
826.639	133.12
826.817	116.73
826.994	212.99
827.172	133.12
827.349	153.6
827.527	135.17
827.704	188.41
827.882	161.79
828.059	198.65
828.237	106.49
828.414	178.17
828.591	151.55
828.769	116.73
828.946	106.49
829.124	167.93
829.301	198.65
829.478	137.21
829.655	155.65
829.833	145.41
830.01	45.06
830.187	178.17
830.364	116.73
830.542	153.6
830.719	174.08
830.896	149.5
831.073	120.83
831.25	190.46
831.427	137.21
831.604	139.26
831.782	112.64
831.959	184.32
832.136	124.93
832.313	151.55
832.49	180.22
832.667	145.41
832.844	88.06
833.021	118.78
833.198	131.07
833.374	96.25
833.551	139.26
833.728	108.54
833.905	141.31
834.082	67.58
834.259	120.83
834.436	120.83
834.612	51.2
834.789	139.26
834.966	43.01
835.143	59.39
835.319	88.06
835.496	157.69
835.673	92.16
835.85	133.12
836.026	124.93
836.203	143.36
836.38	122.88
836.556	108.54
836.733	92.16
836.909	163.84
837.086	110.59
837.262	32.77
837.439	34.82
837.616	90.11
837.792	133.12
837.968	106.49
838.145	133.12
838.321	151.55
838.498	124.93
838.674	135.17
838.851	71.68
839.027	145.41
839.203	94.21
839.38	65.54
839.556	86.01
839.732	126.97
839.909	34.82
840.085	165.89
840.261	43.01
840.437	116.73
840.614	149.5
840.79	34.82
840.966	75.77
841.142	102.4
841.318	96.25
841.494	149.5
841.671	110.59
841.847	67.58
842.023	61.44
842.199	6.14
842.375	129.02
842.551	26.62
842.727	-30.72
842.903	106.49
843.079	79.87
843.255	96.25
843.431	-10.24
843.607	63.49
843.783	79.87
843.959	104.45
844.134	-8.19
844.31	116.73
844.486	137.21
844.662	114.69
844.838	86.01
845.013	86.01
845.189	100.35
845.365	83.97
845.541	108.54
845.716	61.44
845.892	36.86
846.068	40.96
846.244	81.92
846.419	100.35
846.595	112.64
846.77	108.54
846.946	100.35
847.122	45.06
847.297	55.3
847.473	63.49
847.648	53.25
847.824	100.35
847.999	18.43
848.175	98.3
848.35	40.96
848.526	63.49
848.701	81.92
848.876	90.11
849.052	96.25
849.227	73.73
849.403	83.97
849.578	88.06
849.753	71.68
849.929	92.16
850.104	59.39
850.279	104.45
850.454	22.53
850.63	51.2
850.805	61.44
850.98	67.58
851.155	73.73
851.33	20.48
851.505	59.39
851.681	36.86
851.856	75.77
852.031	61.44
852.206	114.69
852.381	49.15
852.556	63.49
852.731	65.54
852.906	47.1
853.081	63.49
853.256	16.38
853.431	92.16
853.606	36.86
853.781	139.26
853.956	90.11
854.131	47.1
854.305	16.38
854.48	104.45
854.655	34.82
854.83	73.73
855.005	47.1
855.18	94.21
855.354	2.05
855.529	-2.05
855.704	-14.34
855.879	61.44
856.053	100.35
856.228	90.11
856.403	10.24
856.577	51.2
856.752	59.39
856.926	71.68
857.101	106.49
857.276	38.91
857.45	8.19
857.625	112.64
857.799	-4.1
857.974	102.4
858.148	20.48
858.323	102.4
858.497	38.91
858.672	22.53
858.846	55.3
859.02	90.11
859.195	81.92
859.369	-2.05
859.543	34.82
859.718	20.48
859.892	38.91
860.066	-6.14
860.241	-28.67
860.415	55.3
860.589	18.43
860.763	55.3
860.938	-12.29
861.112	-18.43
861.286	-10.24
861.46	18.43
861.634	106.49
861.808	88.06
861.982	-20.48
862.157	2.05
862.331	-14.34
862.505	14.34
862.679	73.73
862.853	10.24
863.027	55.3
863.201	96.25
863.375	57.34
863.549	71.68
863.722	83.97
863.896	88.06
864.07	0
864.244	0
864.418	-6.14
864.592	61.44
864.766	16.38
864.939	22.53
865.113	34.82
865.287	10.24
865.461	-18.43
865.634	77.82
865.808	75.77
865.982	-18.43
866.156	88.06
866.329	-12.29
866.503	14.34
866.676	32.77
866.85	-6.14
867.024	65.54
867.197	112.64
867.371	47.1
867.544	-14.34
867.718	-49.15
867.891	-12.29
868.065	22.53
868.238	-16.38
868.412	100.35
868.585	145.41
868.759	-8.19
868.932	69.63
869.105	10.24
869.279	83.97
869.452	10.24
869.625	-16.38
869.799	77.82
869.972	-51.2
870.145	-100.35
870.319	12.29
870.492	47.1
870.665	47.1
870.838	20.48
871.011	18.43
871.185	34.82
871.358	-2.05
871.531	63.49
871.704	-22.53
871.877	20.48
872.05	6.14
872.223	6.14
872.396	75.77
872.569	38.91
872.742	18.43
872.915	18.43
873.088	47.1
873.261	-43.01
873.434	18.43
873.607	106.49
873.78	2.05
873.953	26.62
874.126	51.2
874.299	14.34
874.471	14.34
874.644	28.67
874.817	26.62
874.99	169.98
875.163	47.1
875.335	-22.53
875.508	81.92
875.681	30.72
875.853	14.34
876.026	8.19
876.199	18.43
876.371	10.24
876.544	-55.3
876.717	14.34
876.889	30.72
877.062	122.88
877.234	0
877.407	-14.34
877.579	51.2
877.752	-22.53
877.924	-18.43
878.097	38.91
878.269	20.48
878.442	59.39
878.614	69.63
878.786	30.72
878.959	43.01
879.131	92.16
879.303	-38.91
879.476	36.86
879.648	69.63
879.82	45.06
879.993	6.14
880.165	-38.91
880.337	-14.34
880.509	18.43
880.681	2.05
880.854	36.86
881.026	-38.91
881.198	34.82
881.37	38.91
881.542	65.54
881.714	36.86
881.886	16.38
882.058	-47.1
882.23	45.06
882.402	28.67
882.574	-14.34
882.746	6.14
882.918	75.77
883.09	120.83
883.262	-30.72
883.434	-16.38
883.606	-38.91
883.778	90.11
883.95	26.62
884.122	81.92
884.293	32.77
884.465	12.29
884.637	26.62
884.809	10.24
884.98	4.1
885.152	-36.86
885.324	-6.14
885.496	-43.01
885.667	6.14
885.839	57.34
886.011	-8.19
886.182	83.97
886.354	-53.25
886.525	73.73
886.697	0
886.869	79.87
887.04	20.48
887.212	-2.05
887.383	65.54
887.555	-6.14
887.726	-100.35
887.897	-10.24
888.069	-45.06
888.24	-2.05
888.412	-14.34
888.583	-47.1
888.754	47.1
888.926	38.91
889.097	-4.1
889.268	-77.82
889.44	20.48
889.611	24.58
889.782	30.72
889.953	-43.01
890.125	55.3
890.296	-16.38
890.467	-2.05
890.638	24.58
890.809	32.77
890.98	16.38
891.151	-10.24
891.323	24.58
891.494	43.01
891.665	34.82
891.836	14.34
892.007	2.05
892.178	28.67
892.349	30.72
892.52	16.38
892.691	-88.06
892.862	30.72
893.032	-30.72
893.203	-2.05
893.374	16.38
893.545	28.67
893.716	-6.14
893.887	-10.24
894.057	-4.1
894.228	30.72
894.399	49.15
894.57	14.34
894.74	20.48
894.911	-4.1
895.082	6.14
895.253	45.06
895.423	2.05
895.594	26.62
895.764	55.3
895.935	34.82
896.106	63.49
896.276	26.62
896.447	55.3
896.617	40.96
896.788	-34.82
896.958	-22.53
897.129	-8.19
897.299	4.1
897.47	81.92
897.64	-38.91
897.81	-6.14
897.981	10.24
898.151	38.91
898.322	34.82
898.492	6.14
898.662	16.38
898.832	10.24
899.003	26.62
899.173	28.67
899.343	-73.73
899.513	34.82
