Data from USB4F104151__79__10-24-13-361.txt Node

Date: Wed Mar 12 10:24:13 EDT 2025
User: louis
Spectrometer: USB4F10415
Trigger mode: 4
Integration Time (sec): 3.000000E-2
Scans to average: 1
Electric dark correction enabled: true
Nonlinearity correction enabled: false
Boxcar width: 0
XAxis mode: Wavelengths
Number of Pixels in Spectrum: 3648
>>>>>Begin Spectral Data<<<<<
178.204	-105.13
178.424	-105.13
178.644	-105.13
178.864	-96.94
179.084	-154.28
179.304	-23.21
179.524	52.56
179.744	-25.26
179.964	40.28
180.184	-6.83
180.404	19.8
180.624	19.8
180.844	-4.78
181.064	-58.03
181.283	17.75
181.503	-68.27
181.723	36.18
181.943	-0.68
182.163	-17.07
182.383	9.56
182.602	11.61
182.822	27.99
183.042	-6.83
183.262	46.42
183.482	9.56
183.701	68.95
183.921	34.13
184.141	34.13
184.361	105.81
184.58	68.95
184.8	83.28
185.02	30.04
185.239	142.68
185.459	48.47
185.679	46.42
185.898	23.89
186.118	36.18
186.338	27.99
186.557	27.99
186.777	25.94
186.997	44.37
187.216	-29.35
187.436	208.21
187.655	64.85
187.875	85.33
188.095	66.9
188.314	54.61
188.534	19.8
188.753	-0.68
188.973	-21.16
189.192	85.33
189.412	68.95
189.631	54.61
189.851	-6.83
190.07	15.7
190.29	19.8
190.509	-19.11
190.729	11.61
190.948	150.87
191.168	107.86
191.387	27.99
191.607	1.37
191.826	42.32
192.045	27.99
192.265	-8.87
192.484	36.18
192.704	25.94
192.923	36.18
193.142	99.67
193.362	36.18
193.581	134.48
193.8	21.84
194.02	97.62
194.239	-23.21
194.458	83.28
194.678	73.04
194.897	11.61
195.116	48.47
195.335	60.76
195.555	58.71
195.774	15.7
195.993	36.18
196.212	32.08
196.432	60.76
196.651	81.24
196.87	36.18
197.089	93.52
197.308	109.91
197.528	95.57
197.747	-15.02
197.966	142.68
198.185	81.24
198.404	-12.97
198.623	-23.21
198.842	150.87
199.062	85.33
199.281	95.57
199.5	36.18
199.719	11.61
199.938	42.32
200.157	99.67
200.376	75.09
200.595	146.77
200.814	68.95
201.033	97.62
201.252	66.9
201.471	60.76
201.69	58.71
201.909	-12.97
202.128	56.66
202.347	136.53
202.566	116.05
202.785	-19.11
203.004	52.56
203.223	56.66
203.442	36.18
203.661	21.84
203.879	77.14
204.098	17.75
204.317	30.04
204.536	97.62
204.755	7.51
204.974	48.47
205.193	-33.45
205.411	130.39
205.63	77.14
205.849	21.84
206.068	-0.68
206.287	105.81
206.505	17.75
206.724	52.56
206.943	79.19
207.162	11.61
207.381	36.18
207.599	-10.92
207.818	62.8
208.037	-0.68
208.255	89.43
208.474	-29.35
208.693	-4.78
208.911	50.52
209.13	27.99
209.349	13.65
209.567	19.8
209.786	159.06
210.005	68.95
210.223	68.95
210.442	34.13
210.661	-33.45
210.879	118.1
211.098	-33.45
211.316	11.61
211.535	81.24
211.753	58.71
211.972	109.91
212.191	38.23
212.409	52.56
212.628	101.72
212.846	87.38
213.065	11.61
213.283	101.72
213.502	38.23
213.72	36.18
213.938	36.18
214.157	25.94
214.375	118.1
214.594	85.33
214.812	83.28
215.031	3.41
215.249	-21.16
215.467	-4.78
215.686	27.99
215.904	-0.68
216.122	68.95
216.341	97.62
216.559	-37.55
216.778	109.91
216.996	19.8
217.214	9.56
217.432	27.99
217.651	11.61
217.869	19.8
218.087	46.42
218.306	132.44
218.524	81.24
218.742	21.84
218.96	114
219.179	71
219.397	75.09
219.615	138.58
219.833	68.95
220.051	11.61
220.27	103.76
220.488	34.13
220.706	66.9
220.924	44.37
221.142	52.56
221.36	66.9
221.578	122.2
221.796	34.13
222.015	71
222.233	83.28
222.451	142.68
222.669	-45.74
222.887	60.76
223.105	-33.45
223.323	46.42
223.541	-37.55
223.759	34.13
223.977	17.75
224.195	138.58
224.413	-4.78
224.631	52.56
224.849	-4.78
225.067	52.56
225.285	21.84
225.503	-10.92
225.721	11.61
225.939	58.71
226.157	95.57
226.375	152.91
226.592	7.51
226.81	13.65
227.028	21.84
227.246	122.2
227.464	36.18
227.682	83.28
227.9	50.52
228.117	77.14
228.335	60.76
228.553	56.66
228.771	85.33
228.989	68.95
229.206	40.28
229.424	68.95
229.642	27.99
229.86	32.08
230.077	152.91
230.295	40.28
230.513	109.91
230.731	75.09
230.948	-29.35
231.166	75.09
231.384	146.77
231.601	58.71
231.819	93.52
232.037	1.37
232.254	81.24
232.472	93.52
232.689	21.84
232.907	34.13
233.125	85.33
233.342	11.61
233.56	66.9
233.777	118.1
233.995	89.43
234.213	93.52
234.43	56.66
234.648	36.18
234.865	15.7
235.083	52.56
235.3	46.42
235.518	124.24
235.735	36.18
235.953	54.61
236.17	83.28
236.388	44.37
236.605	1.37
236.822	85.33
237.04	11.61
237.257	60.76
237.475	-21.16
237.692	75.09
237.909	68.95
238.127	27.99
238.344	58.71
238.562	27.99
238.779	-41.64
238.996	36.18
239.214	46.42
239.431	58.71
239.648	40.28
239.865	36.18
240.083	7.51
240.3	11.61
240.517	-43.69
240.735	44.37
240.952	38.23
241.169	19.8
241.386	17.75
241.603	52.56
241.821	-23.21
242.038	58.71
242.255	27.99
242.472	50.52
242.689	34.13
242.907	44.37
243.124	60.76
243.341	34.13
243.558	-47.79
243.775	-10.92
243.992	13.65
244.209	60.76
244.426	130.39
244.643	99.67
244.86	13.65
245.078	152.91
245.295	36.18
245.512	42.32
245.729	42.32
245.946	56.66
246.163	52.56
246.38	52.56
246.597	40.28
246.814	34.13
247.031	97.62
247.248	109.91
247.464	46.42
247.681	17.75
247.898	105.81
248.115	17.75
248.332	11.61
248.549	25.94
248.766	71
248.983	75.09
249.2	103.76
249.417	73.04
249.633	17.75
249.85	32.08
250.067	11.61
250.284	34.13
250.501	40.28
250.717	66.9
250.934	9.56
251.151	73.04
251.368	-8.87
251.585	58.71
251.801	21.84
252.018	5.46
252.235	73.04
252.451	-49.83
252.668	-4.78
252.885	87.38
253.102	17.75
253.318	46.42
253.535	32.08
253.752	-8.87
253.968	17.75
254.185	17.75
254.401	89.43
254.618	3.41
254.835	68.95
255.051	44.37
255.268	11.61
255.484	87.38
255.701	-19.11
255.917	21.84
256.134	56.66
256.351	73.04
256.567	85.33
256.784	85.33
257	-15.02
257.217	48.47
257.433	7.51
257.65	60.76
257.866	99.67
258.082	68.95
258.299	17.75
258.515	89.43
258.732	-21.16
258.948	21.84
259.165	-4.78
259.381	42.32
259.597	15.7
259.814	97.62
260.03	56.66
260.246	-12.97
260.463	93.52
260.679	103.76
260.895	54.61
261.112	-4.78
261.328	73.04
261.544	15.7
261.761	126.29
261.977	42.32
262.193	71
262.409	60.76
262.626	13.65
262.842	118.1
263.058	27.99
263.274	34.13
263.49	79.19
263.707	118.1
263.923	93.52
264.139	19.8
264.355	130.39
264.571	36.18
264.787	122.2
265.004	134.48
265.22	75.09
265.436	-4.78
265.652	66.9
265.868	32.08
266.084	56.66
266.3	54.61
266.516	75.09
266.732	15.7
266.948	103.76
267.164	85.33
267.38	116.05
267.596	-6.83
267.812	89.43
268.028	38.23
268.244	25.94
268.46	17.75
268.676	101.72
268.892	56.66
269.108	60.76
269.324	-2.73
269.54	68.95
269.756	136.53
269.972	40.28
270.188	5.46
270.403	56.66
270.619	60.76
270.835	36.18
271.051	3.41
271.267	44.37
271.483	73.04
271.698	21.84
271.914	136.53
272.13	93.52
272.346	9.56
272.562	62.8
272.777	56.66
272.993	34.13
273.209	105.81
273.425	48.47
273.64	81.24
273.856	114
274.072	79.19
274.287	83.28
274.503	114
274.719	-4.78
274.934	118.1
275.15	-27.31
275.366	77.14
275.581	19.8
275.797	40.28
276.012	48.47
276.228	-37.55
276.444	81.24
276.659	114
276.875	23.89
277.09	95.57
277.306	36.18
277.521	109.91
277.737	21.84
277.952	54.61
278.168	50.52
278.383	73.04
278.599	87.38
278.814	54.61
279.03	44.37
279.245	66.9
279.461	64.85
279.676	40.28
279.892	44.37
280.107	75.09
280.322	48.47
280.538	75.09
280.753	52.56
280.969	81.24
281.184	56.66
281.399	50.52
281.615	71
281.83	30.04
282.045	36.18
282.26	66.9
282.476	93.52
282.691	107.86
282.906	56.66
283.122	36.18
283.337	66.9
283.552	99.67
283.767	-0.68
283.983	52.56
284.198	97.62
284.413	15.7
284.628	25.94
284.843	46.42
285.058	42.32
285.274	93.52
285.489	13.65
285.704	54.61
285.919	-15.02
286.134	62.8
286.349	-15.02
286.564	73.04
286.779	103.76
286.995	109.91
287.21	36.18
287.425	-39.59
287.64	64.85
287.855	36.18
288.07	93.52
288.285	44.37
288.5	109.91
288.715	7.51
288.93	83.28
289.145	40.28
289.36	85.33
289.575	60.76
289.79	48.47
290.004	68.95
290.219	66.9
290.434	62.8
290.649	54.61
290.864	56.66
291.079	27.99
291.294	23.89
291.509	66.9
291.724	25.94
291.938	50.52
292.153	99.67
292.368	25.94
292.583	105.81
292.798	77.14
293.012	79.19
293.227	42.32
293.442	19.8
293.657	109.91
293.871	75.09
294.086	101.72
294.301	56.66
294.516	73.04
294.73	-31.4
294.945	9.56
295.16	48.47
295.374	68.95
295.589	77.14
295.804	60.76
296.018	7.51
296.233	79.19
296.447	64.85
296.662	36.18
296.877	34.13
297.091	42.32
297.306	-8.87
297.52	52.56
297.735	36.18
297.949	5.46
298.164	114
298.378	38.23
298.593	19.8
298.807	81.24
299.022	-15.02
299.236	60.76
299.451	81.24
299.665	71
299.88	77.14
300.094	48.47
300.309	7.51
300.523	52.56
300.737	64.85
300.952	66.9
301.166	93.52
301.381	-6.83
301.595	68.95
301.809	87.38
302.024	-21.16
302.238	3.41
302.452	87.38
302.667	34.13
302.881	132.44
303.095	85.33
303.309	17.75
303.524	68.95
303.738	17.75
303.952	36.18
304.166	68.95
304.381	-19.11
304.595	105.81
304.809	62.8
305.023	105.81
305.237	85.33
305.452	-4.78
305.666	40.28
305.88	93.52
306.094	48.47
306.308	83.28
306.522	52.56
306.736	42.32
306.95	66.9
307.164	75.09
307.379	77.14
307.593	40.28
307.807	114
308.021	114
308.235	87.38
308.449	46.42
308.663	-21.16
308.877	120.15
309.091	7.51
309.305	56.66
309.519	13.65
309.733	134.48
309.947	-2.73
310.161	-47.79
310.374	36.18
310.588	93.52
310.802	56.66
311.016	38.23
311.23	116.05
311.444	-29.35
311.658	48.47
311.872	44.37
312.085	111.96
312.299	66.9
312.513	34.13
312.727	60.76
312.941	-29.35
313.154	42.32
313.368	93.52
313.582	77.14
313.796	101.72
314.009	64.85
314.223	109.91
314.437	40.28
314.651	75.09
314.864	73.04
315.078	44.37
315.292	30.04
315.505	66.9
315.719	107.86
315.933	130.39
316.146	60.76
316.36	46.42
316.573	122.2
316.787	118.1
317.001	71
317.214	17.75
317.428	3.41
317.641	40.28
317.855	97.62
318.068	46.42
318.282	101.72
318.495	130.39
318.709	85.33
318.922	66.9
319.136	148.82
319.349	101.72
319.563	66.9
319.776	56.66
319.99	11.61
320.203	101.72
320.417	146.77
320.63	75.09
320.843	105.81
321.057	146.77
321.27	81.24
321.483	126.29
321.697	81.24
321.91	144.72
322.124	64.85
322.337	83.28
322.55	56.66
322.763	93.52
322.977	34.13
323.19	21.84
323.403	44.37
323.617	25.94
323.83	144.72
324.043	118.1
324.256	109.91
324.469	122.2
324.683	36.18
324.896	13.65
325.109	103.76
325.322	17.75
325.535	75.09
325.748	118.1
325.962	132.44
326.175	114
326.388	17.75
326.601	38.23
326.814	83.28
327.027	91.48
327.24	87.38
327.453	77.14
327.666	62.8
327.879	44.37
328.092	132.44
328.305	114
328.518	44.37
328.731	-23.21
328.944	83.28
329.157	68.95
329.37	83.28
329.583	124.24
329.796	157.01
330.009	40.28
330.222	118.1
330.435	89.43
330.648	81.24
330.861	71
331.073	68.95
331.286	146.77
331.499	97.62
331.712	1.37
331.925	19.8
332.138	64.85
332.35	93.52
332.563	48.47
332.776	105.81
332.989	120.15
333.202	-15.02
333.414	60.76
333.627	-23.21
333.84	99.67
334.053	17.75
334.265	19.8
334.478	19.8
334.691	25.94
334.903	48.47
335.116	95.57
335.329	-82.6
335.541	73.04
335.754	89.43
335.966	-2.73
336.179	103.76
336.392	25.94
336.604	77.14
336.817	81.24
337.029	58.71
337.242	21.84
337.454	85.33
337.667	60.76
337.88	142.68
338.092	52.56
338.305	93.52
338.517	27.99
338.729	62.8
338.942	144.72
339.154	73.04
339.367	21.84
339.579	62.8
339.792	124.24
340.004	75.09
340.217	9.56
340.429	44.37
340.641	-0.68
340.854	50.52
341.066	17.75
341.278	34.13
341.491	101.72
341.703	56.66
341.915	60.76
342.128	142.68
342.34	124.24
342.552	75.09
342.764	83.28
342.977	130.39
343.189	75.09
343.401	64.85
343.613	36.18
343.826	200.02
344.038	7.51
344.25	75.09
344.462	89.43
344.674	40.28
344.886	42.32
345.099	40.28
345.311	142.68
345.523	42.32
345.735	44.37
345.947	56.66
346.159	75.09
346.371	157.01
346.583	36.18
346.795	120.15
347.007	109.91
347.219	97.62
347.431	73.04
347.643	75.09
347.855	109.91
348.067	161.11
348.279	71
348.491	13.65
348.703	30.04
348.915	19.8
349.127	32.08
349.339	126.29
349.551	11.61
349.763	77.14
349.975	89.43
350.187	97.62
350.399	146.77
350.61	42.32
350.822	77.14
351.034	42.32
351.246	134.48
351.458	87.38
351.669	79.19
351.881	130.39
352.093	40.28
352.305	159.06
352.517	40.28
352.728	71
352.94	111.96
353.152	34.13
353.363	99.67
353.575	62.8
353.787	71
353.999	116.05
354.21	120.15
354.422	44.37
354.633	36.18
354.845	11.61
355.057	99.67
355.268	11.61
355.48	95.57
355.692	93.52
355.903	64.85
356.115	77.14
356.326	-12.97
356.538	130.39
356.749	116.05
356.961	136.53
357.172	77.14
357.384	42.32
357.595	126.29
357.807	83.28
358.018	73.04
358.23	128.34
358.441	179.54
358.653	116.05
358.864	52.56
359.075	79.19
359.287	73.04
359.498	52.56
359.709	52.56
359.921	34.13
360.132	66.9
360.344	77.14
360.555	114
360.766	77.14
360.977	7.51
361.189	116.05
361.4	11.61
361.611	83.28
361.823	126.29
362.034	73.04
362.245	54.61
362.456	89.43
362.667	75.09
362.879	21.84
363.09	58.71
363.301	83.28
363.512	75.09
363.723	46.42
363.935	-31.4
364.146	101.72
364.357	128.34
364.568	111.96
364.779	19.8
364.99	58.71
365.201	52.56
365.412	64.85
365.623	77.14
365.834	103.76
366.045	56.66
366.256	128.34
366.467	120.15
366.678	60.76
366.889	32.08
367.1	95.57
367.311	81.24
367.522	-37.55
367.733	118.1
367.944	66.9
368.155	116.05
368.366	142.68
368.577	126.29
368.788	60.76
368.999	34.13
369.209	126.29
369.42	68.95
369.631	148.82
369.842	21.84
370.053	101.72
370.264	87.38
370.474	130.39
370.685	116.05
370.896	-17.07
371.107	120.15
371.317	25.94
371.528	73.04
371.739	118.1
371.95	58.71
372.16	101.72
372.371	48.47
372.582	77.14
372.792	105.81
373.003	68.95
373.214	95.57
373.424	62.8
373.635	73.04
373.846	97.62
374.056	44.37
374.267	52.56
374.477	17.75
374.688	97.62
374.898	107.86
375.109	134.48
375.319	116.05
375.53	124.24
375.74	120.15
375.951	52.56
376.161	25.94
376.372	60.76
376.582	89.43
376.793	146.77
377.003	66.9
377.214	97.62
377.424	68.95
377.635	64.85
377.845	48.47
378.055	85.33
378.266	38.23
378.476	83.28
378.686	83.28
378.897	75.09
379.107	116.05
379.317	150.87
379.528	85.33
379.738	87.38
379.948	62.8
380.158	120.15
380.369	185.68
380.579	23.89
380.789	36.18
380.999	105.81
381.21	62.8
381.42	95.57
381.63	83.28
381.84	71
382.05	79.19
382.261	77.14
382.471	89.43
382.681	19.8
382.891	136.53
383.101	107.86
383.311	77.14
383.521	64.85
383.731	30.04
383.941	118.1
384.151	116.05
384.361	58.71
384.571	165.2
384.781	118.1
384.991	152.91
385.201	107.86
385.411	56.66
385.621	38.23
385.831	56.66
386.041	93.52
386.251	64.85
386.461	93.52
386.671	68.95
386.881	93.52
387.091	79.19
387.301	66.9
387.511	23.89
387.72	101.72
387.93	48.47
388.14	66.9
388.35	44.37
388.56	97.62
388.769	111.96
388.979	36.18
389.189	114
389.399	105.81
389.609	73.04
389.818	122.2
390.028	52.56
390.238	87.38
390.447	95.57
390.657	109.91
390.867	85.33
391.076	23.89
391.286	93.52
391.496	114
391.705	64.85
391.915	132.44
392.125	128.34
392.334	79.19
392.544	122.2
392.753	64.85
392.963	120.15
393.172	114
393.382	87.38
393.591	216.4
393.801	89.43
394.01	165.2
394.22	81.24
394.429	93.52
394.639	124.24
394.848	77.14
395.058	89.43
395.267	101.72
395.477	105.81
395.686	150.87
395.895	189.78
396.105	146.77
396.314	107.86
396.524	163.15
396.733	101.72
396.942	136.53
397.152	109.91
397.361	132.44
397.57	150.87
397.78	140.63
397.989	75.09
398.198	114
398.407	77.14
398.617	238.93
398.826	150.87
399.035	91.48
399.244	171.35
399.453	200.02
399.663	173.39
399.872	173.39
400.081	150.87
400.29	177.49
400.499	114
400.708	200.02
400.917	154.96
401.127	206.16
401.336	130.39
401.545	234.83
401.754	97.62
401.963	200.02
402.172	175.44
402.381	142.68
402.59	189.78
402.799	224.59
403.008	318.8
403.217	132.44
403.426	214.35
403.635	224.59
403.844	236.88
404.053	265.55
404.262	214.35
404.471	230.74
404.68	216.4
404.888	204.11
405.097	179.54
405.306	200.02
405.515	257.36
405.724	169.3
405.933	245.07
406.142	341.33
406.35	290.13
406.559	214.35
406.768	200.02
406.977	292.18
407.185	290.13
407.394	298.32
407.603	320.85
407.812	300.37
408.02	363.86
408.229	245.07
408.438	339.28
408.646	351.57
408.855	359.76
409.064	494.93
409.272	376.14
409.481	433.49
409.69	451.92
409.898	503.12
410.107	472.4
410.315	517.45
410.524	501.07
410.733	517.45
410.941	539.98
411.15	564.56
411.358	550.22
411.567	550.22
411.775	562.51
411.984	658.76
412.192	589.13
412.401	648.52
412.609	666.96
412.818	671.05
413.026	828.74
413.234	621.9
413.443	728.39
413.651	705.87
413.86	808.26
414.068	869.7
414.276	908.62
414.485	888.14
414.693	970.05
414.901	1039.69
415.11	1027.4
415.318	1043.78
415.526	1031.49
415.734	1090.88
415.943	1113.41
416.151	1166.66
416.359	1140.04
416.567	1191.24
416.776	1314.11
416.984	1330.5
417.192	1426.75
417.4	1344.83
417.608	1422.66
417.817	1477.95
418.025	1566.01
418.233	1721.66
418.441	1570.11
418.649	1686.84
418.857	1832.25
419.065	1838.39
419.273	1856.82
419.481	1965.37
419.689	2049.33
419.897	2157.88
420.105	2153.78
420.313	2184.5
420.521	2362.67
420.729	2407.73
420.937	2475.31
421.145	2501.94
421.353	2696.49
421.561	2723.12
421.769	2764.08
421.977	3009.83
422.185	2827.56
422.393	3192.1
422.601	3276.07
422.809	3263.78
423.017	3327.27
423.224	3415.33
423.432	3478.82
423.64	3638.56
423.848	3822.88
424.056	3814.68
424.263	4097.3
424.471	4003.1
424.679	4168.98
424.887	4371.73
425.094	4392.21
425.302	4506.9
425.51	4662.54
425.718	5012.74
425.925	4988.17
426.133	5149.96
426.341	5442.82
426.548	5451.01
426.756	5657.85
426.964	5629.18
427.171	6083.83
427.379	6223.09
427.586	6016.25
427.794	6497.52
428.001	6943.98
428.209	7040.23
428.417	6896.88
428.624	7347.43
428.832	7417.06
429.039	7447.78
429.247	7587.04
429.454	8035.55
429.662	8744.14
429.869	7865.57
430.076	8584.4
430.284	8318.17
430.491	8787.15
430.699	9118.92
430.906	9143.5
431.114	9342.15
431.321	9581.76
431.528	9761.98
431.736	10421.43
431.943	10824.88
432.15	10724.53
432.358	10757.3
432.565	11498.66
432.772	11537.57
432.979	12010.65
433.187	12135.58
433.394	11973.79
433.601	13046.93
433.808	13221
434.016	12899.47
434.223	13534.34
434.43	14345.34
434.637	14236.8
434.844	14781.56
435.052	15295.6
435.259	15117.42
435.466	15332.46
435.673	15121.52
435.88	16092.26
436.087	16981.07
436.294	16733.27
436.501	16598.1
436.708	16546.9
436.915	17333.32
437.122	18312.25
437.329	18050.11
437.537	18779.19
437.743	18912.31
437.95	18619.45
438.157	19674.15
438.364	20210.72
438.571	20696.09
438.778	20597.79
438.985	22250.5
439.192	21451.79
439.399	22242.31
439.606	21474.32
439.813	22895.61
440.02	24171.49
440.227	23804.91
440.433	23458.8
440.64	24703.96
440.847	24214.5
441.054	25041.88
441.261	26270.66
441.467	26069.96
441.674	26741.69
441.881	27927.47
442.088	27732.91
442.294	27200.44
442.501	28046.25
442.708	28566.43
442.914	29928.33
443.121	30696.32
443.328	30299.01
443.534	32035.69
443.741	31277.94
443.948	30845.82
444.154	33168.22
444.361	32791.39
444.568	33258.33
444.774	32588.64
444.981	33387.35
445.187	34505.54
445.394	35672.88
445.6	35261.24
445.807	38894.34
446.013	37239.58
446.22	37686.04
446.426	39211.77
446.633	38998.79
446.839	40452.84
447.046	39090.94
447.252	40925.92
447.459	41034.47
447.665	40870.63
447.871	42613.45
448.078	44204.72
448.284	41923.29
448.491	43442.88
448.697	45056.68
448.903	45599.39
449.11	45413.02
449.316	44374.7
449.522	45785.75
449.728	46922.38
449.935	47334.02
450.141	46840.46
450.347	48091.77
450.553	46660.24
450.76	47010.44
450.966	48497.27
451.172	47764.09
451.378	49445.47
451.584	48587.38
451.791	49050.22
451.997	48609.9
452.203	49721.95
452.409	49394.28
452.615	49021.55
452.821	47364.74
453.027	47024.78
453.233	49422.95
453.44	47497.86
453.646	47948.41
453.852	48138.87
454.058	48890.48
454.264	47293.06
454.47	48431.73
454.676	46977.67
454.882	48956.01
455.088	44733.1
455.294	44757.67
455.5	45945.5
455.705	46367.38
455.911	44249.78
456.117	43438.78
456.323	43072.2
456.529	40346.35
456.735	42357.45
456.941	40948.45
457.147	40545
457.352	39324.41
457.558	38791.94
457.764	39047.94
457.97	37976.85
458.176	37245.72
458.381	37548.82
458.587	34970.43
458.793	35445.56
458.999	33647.44
459.204	35951.41
459.41	35175.23
459.616	33137.5
459.821	32834.4
460.027	32707.43
460.233	31998.83
460.438	30339.97
460.644	30671.75
460.85	29494.16
461.055	29164.44
461.261	28935.07
461.466	26715.07
461.672	25887.69
461.878	27952.04
462.083	26014.66
462.289	25449.42
462.494	25377.75
462.7	24300.51
462.905	23489.52
463.111	24191.97
463.316	23966.7
463.522	23903.21
463.727	24075.24
463.932	23718.89
464.138	23761.9
464.343	23798.76
464.549	22948.86
464.754	23798.76
464.959	23780.33
465.165	23522.29
465.37	22512.64
465.575	21822.47
465.781	22668.28
465.986	22748.15
466.191	22057.99
466.397	21570.57
466.602	20487.2
466.807	21509.13
467.012	21287.95
467.218	21482.51
467.423	20931.61
467.628	21527.56
467.833	21976.07
468.038	21183.51
468.244	20593.69
468.449	21439.5
468.654	20657.18
468.859	20585.5
469.064	20237.34
469.269	19749.93
469.474	19665.96
469.679	20202.53
469.885	19420.2
470.09	20010.02
470.295	19614.76
470.5	19084.34
470.705	19280.94
470.91	18895.92
471.115	18713.66
471.32	18652.22
471.525	18732.09
471.73	18408.51
471.935	18457.66
472.139	17816.65
472.344	17900.61
472.549	17865.8
472.754	17570.89
472.959	17081.42
473.164	16825.43
473.369	16677.97
473.574	17294.41
473.778	17050.71
473.983	17052.75
474.188	16868.44
474.393	15774.82
474.598	16059.49
474.802	15924.32
475.007	15821.92
475.212	15912.03
475.417	15324.27
475.621	15451.24
475.826	15297.64
476.031	14935.15
476.235	14896.24
476.44	14775.41
476.645	14785.65
476.849	14652.53
477.054	14564.47
477.259	14273.66
477.463	14378.11
477.668	13976.7
477.872	14136.45
478.077	13810.82
478.282	13675.65
478.486	13622.41
478.691	13302.92
478.895	13298.83
479.1	13415.56
479.304	13423.75
479.509	12930.19
479.713	13235.34
479.918	12975.25
480.122	12762.26
480.326	12878.99
480.531	12913.81
480.735	12719.25
480.94	12555.41
481.144	12969.1
481.348	12385.43
481.553	12694.68
481.757	12336.28
481.961	12311.71
482.166	12600.47
482.37	12518.55
482.574	12086.43
482.778	12274.84
482.983	12604.56
483.187	12504.21
483.391	12594.33
483.595	12410.01
483.8	12334.23
484.004	12276.89
484.208	12582.04
484.412	12209.31
484.616	12479.64
484.821	12481.69
485.025	12172.44
485.229	12332.19
485.433	12268.7
485.637	12323.99
485.841	12276.89
486.045	12246.17
486.249	12297.37
486.453	12338.33
486.657	12414.1
486.861	12348.57
487.065	12045.47
487.269	12518.55
487.473	12285.08
487.677	12491.93
487.881	12571.8
488.085	12248.22
488.289	12457.11
488.493	12444.82
488.697	12242.07
488.901	12493.97
489.105	12512.41
489.309	12450.97
489.512	12491.93
489.716	12545.17
489.92	12553.37
490.124	12434.58
490.328	12911.76
490.531	12711.06
490.735	12809.36
490.939	12891.28
491.143	12567.7
491.346	12614.8
491.55	13079.69
491.754	12999.82
491.958	12852.37
492.161	12997.77
492.365	13231.24
492.569	13145.23
492.772	12991.63
492.976	13208.72
493.18	13313.16
493.383	13450.38
493.587	13354.12
493.79	13517.96
493.994	13198.48
494.197	13700.23
494.401	13812.87
494.605	13886.59
494.808	13898.88
495.012	13970.56
495.215	14113.92
495.419	14345.34
495.622	14326.91
495.825	14449.78
496.029	14539.9
496.232	14863.47
496.436	14589.05
496.639	15289.45
496.843	14898.29
497.046	15670.37
497.249	15406.19
497.453	15631.46
497.656	15764.58
497.859	15604.84
498.063	15977.57
498.266	16118.88
498.469	16202.85
498.673	16305.24
498.876	16397.4
499.079	16841.81
499.282	16743.51
499.485	17318.99
499.689	16946.26
499.892	17681.48
500.095	17701.96
500.298	18054.21
500.501	17822.79
500.705	18486.33
500.908	18547.77
501.111	18842.68
501.314	18838.58
501.517	18883.64
501.72	19278.9
501.923	19559.47
502.126	19766.31
502.329	19799.08
502.532	20057.12
502.735	20384.8
502.938	20816.92
503.141	20386.85
503.344	21087.25
503.547	21214.23
503.75	21441.55
503.953	21836.81
504.156	21799.94
504.359	22199.3
504.562	22139.91
504.765	22729.72
504.968	22684.67
505.17	23184.37
505.373	23149.56
505.576	23495.66
505.779	23987.18
505.982	23931.88
506.185	24507.36
506.387	24314.85
506.59	24544.22
506.793	25222.1
506.996	25316.31
507.198	26149.83
507.401	25730
507.604	26127.3
507.807	26772.41
508.009	26842.04
508.212	26612.67
508.415	27276.21
508.617	27601.84
508.82	27528.11
509.022	27501.49
509.225	28361.64
509.428	28406.69
509.63	28973.98
509.833	28902.3
510.035	29770.64
510.238	29412.24
510.44	29737.87
510.643	30278.54
510.845	30849.92
511.048	30098.31
511.25	31015.8
511.453	31273.85
511.655	32121.71
511.858	31773.55
512.06	32289.64
512.262	32570.21
512.465	32525.16
512.667	33008.48
512.87	33616.72
513.072	33227.61
513.274	34218.83
513.477	34671.43
513.679	34749.25
513.881	35341.11
514.084	35408.7
514.286	35468.09
514.488	35603.25
514.69	36459.3
514.893	36614.95
515.095	36619.05
515.297	37419.8
515.499	37241.63
515.701	37649.17
515.904	38069.01
516.106	38376.2
516.308	38576.9
516.51	39060.23
516.712	39172.86
516.914	39820.02
517.116	40731.37
517.318	40487.66
517.52	40637.16
517.722	40747.75
517.925	41489.12
518.127	42033.88
518.329	42498.76
518.531	42134.23
518.733	42728.14
518.935	43027.14
519.136	43475.65
519.338	43594.43
519.54	43905.72
519.742	44536.49
519.944	44489.39
520.146	45413.02
520.348	45169.32
520.55	45777.56
520.752	45867.67
520.954	47059.59
521.155	46062.23
521.357	47118.98
521.559	47633.02
521.761	48241.27
521.963	48388.72
522.164	48124.53
522.366	48233.08
522.568	48951.91
522.77	49418.85
522.971	49541.73
523.173	49588.83
523.375	49928.8
523.576	50027.1
523.778	50141.78
523.98	50893.39
524.181	51139.14
524.383	51405.38
524.584	51663.42
524.786	51860.03
524.988	51872.32
525.189	52539.96
525.391	52425.27
525.592	52943.41
525.794	53113.39
525.995	52949.55
526.197	53348.9
526.398	53322.28
526.6	53883.42
526.801	53951.01
527.003	54241.82
527.204	53875.23
527.406	55071.24
527.607	54655.51
527.808	54934.03
528.01	54555.16
528.211	54915.6
528.412	55927.3
528.614	55329.29
528.815	55636.48
529.016	55976.45
529.218	55730.69
529.419	55931.39
529.62	56013.31
529.822	55806.47
530.023	55984.64
530.224	56570.36
530.425	56340.99
530.626	56328.7
530.828	55910.91
531.029	57029.1
531.23	56582.65
531.431	56701.43
531.632	56904.18
531.833	57098.73
532.035	57018.86
532.236	57369.07
532.437	57264.62
532.638	57020.91
532.839	57491.94
533.04	57520.62
533.241	56754.68
533.442	58122.72
533.643	57504.23
533.844	57106.93
534.045	57479.66
534.246	57268.72
534.447	57530.86
534.648	57313.77
534.849	57844.19
535.05	57401.83
535.251	57635.3
535.451	57627.11
535.652	57887.2
535.853	57557.48
536.054	57610.73
536.255	57692.64
536.456	57473.51
536.657	57876.96
536.857	57864.67
537.058	57330.15
537.259	57864.67
537.46	57666.02
537.66	57725.41
537.861	57801.19
538.062	57487.85
538.263	58104.29
538.463	57913.83
538.664	57856.48
538.865	57606.63
539.065	57991.65
539.266	57295.34
539.466	57702.88
539.667	57031.15
539.868	58165.73
540.068	57549.29
540.269	57741.8
540.469	57813.48
540.67	57639.4
540.87	57717.22
541.071	57721.32
541.271	57797.09
541.472	57498.09
541.672	57338.35
541.873	57399.79
542.073	57104.88
542.274	58182.11
542.474	57537
542.675	57027.06
542.875	57891.3
543.075	57698.79
543.276	56846.83
543.476	58012.13
543.676	57364.97
543.877	57840.1
544.077	57233.9
544.277	57735.65
544.478	57319.91
544.678	57782.76
544.878	57446.89
545.078	57432.55
545.279	56924.66
545.479	57051.63
545.679	57457.13
545.879	57309.67
546.079	57401.83
546.28	56785.39
546.48	56474.1
546.68	57684.45
546.88	57070.06
547.08	57242.09
547.28	56848.88
547.48	56787.44
547.68	57352.68
547.88	57115.12
548.081	56947.18
548.281	57385.45
548.481	56592.89
548.681	57477.61
548.881	56820.21
549.081	56654.32
549.28	57111.02
549.48	57221.61
549.68	56685.04
549.88	57590.25
550.08	56769.01
550.28	57192.94
550.48	56480.25
550.68	57227.76
550.88	56820.21
551.08	57158.13
551.279	56834.55
551.479	56275.45
551.679	56906.22
551.879	56541.69
552.079	56852.98
552.278	56082.94
552.478	56590.84
552.678	56758.77
552.878	56619.51
553.077	56349.18
553.277	55785.99
553.477	57025.01
553.676	56115.71
553.876	56678.9
554.076	56087.04
554.275	55964.16
554.475	55917.06
554.674	56154.62
554.874	56705.52
555.074	56146.43
555.273	55947.78
555.473	56463.86
555.672	55968.26
555.872	55710.21
556.071	56160.76
556.271	56261.11
556.47	55890.43
556.67	55491.08
556.869	55415.3
557.068	56113.66
557.268	55415.3
557.467	55788.03
557.667	55951.87
557.866	55251.47
558.065	55640.58
558.265	55026.19
558.464	54841.87
558.663	55894.53
558.863	54385.18
559.062	55747.07
559.261	54723.09
559.461	55802.37
559.66	54710.8
559.859	55030.29
560.058	55118.35
560.258	55224.84
560.457	54759.95
560.656	54694.42
560.855	54266.39
561.054	54716.95
561.253	54278.68
561.453	54448.66
561.652	54610.45
561.851	54458.9
562.05	53961.25
562.249	53631.52
562.448	54286.87
562.647	54198.81
562.846	54057.5
563.045	53967.39
563.244	52904.49
563.443	53850.66
563.642	53230.12
563.841	53447.21
564.04	53367.33
564.239	53850.66
564.438	53066.28
564.637	53305.9
564.836	53045.8
565.035	52347.45
565.234	52918.83
565.432	52699.7
565.631	52513.33
565.83	52740.66
566.029	52095.55
566.228	52329.01
566.427	51999.29
566.625	51647.04
566.824	51567.17
567.023	52150.84
567.222	51241.54
567.42	51937.85
567.619	51782.21
567.818	51462.72
568.016	51454.53
568.215	51784.26
568.414	51010.12
568.612	51634.75
568.811	50819.66
569.01	51464.77
569.208	50496.08
569.407	51040.84
569.605	50494.03
569.804	50963.02
570.002	50127.45
570.201	50475.6
570.4	49885.79
570.598	49771.1
570.797	49799.77
570.995	49781.34
571.193	49298.02
571.392	49988.19
571.59	49298.02
571.789	49783.39
571.987	49459.81
572.186	49494.63
572.384	49293.93
572.582	49017.45
572.781	49289.83
572.979	49001.07
573.177	48845.42
573.376	48775.79
573.574	48487.03
573.772	48769.65
573.971	48378.48
574.169	47692.41
574.367	47880.83
574.565	47772.28
574.763	47608.45
574.962	47716.99
575.16	47692.41
575.358	47823.48
575.556	46912.14
575.754	47776.38
575.952	46809.74
576.151	47487.62
576.349	46733.96
576.547	46850.7
576.745	47016.58
576.943	46824.07
577.141	46285.46
577.339	46852.75
577.537	46004.89
577.735	46211.73
577.933	45791.9
578.131	45640.35
578.329	45875.87
578.527	45484.7
578.725	45480.61
578.923	45724.32
579.121	45222.56
579.319	45343.39
579.516	45517.47
579.714	45159.08
579.912	44880.55
580.11	45046.44
580.308	44675.76
580.506	44749.48
580.704	44034.74
580.901	44896.94
581.099	44696.24
581.297	44386.99
581.495	44149.43
581.692	44036.79
581.89	43657.92
582.088	44063.41
582.285	43385.54
582.483	44098.23
582.681	43457.21
582.878	43317.95
583.076	43000.52
583.274	43748.03
583.471	42812.1
583.669	42875.59
583.866	42509
584.064	43090.63
584.262	42169.04
584.459	43033.28
584.657	42214.1
584.854	42848.97
585.052	42005.2
585.249	42447.57
585.447	42091.22
585.644	41882.33
585.841	42224.34
586.039	42013.4
586.236	41446.11
586.434	41564.89
586.631	41194.21
586.828	41538.27
587.026	41368.29
587.223	41298.66
587.42	40778.47
587.618	40874.73
587.815	40229.62
588.012	40694.5
588.21	40452.84
588.407	40678.12
588.604	40405.74
588.801	40256.24
588.999	40059.63
589.196	39942.9
589.393	40080.11
589.59	39854.84
589.787	39269.12
589.984	39484.15
590.182	39318.27
590.379	39617.27
590.576	38994.69
590.773	39396.09
590.97	39142.14
591.167	39252.73
591.364	38478.6
591.561	38644.49
591.758	38413.07
591.955	38433.55
592.152	38587.14
592.349	38501.13
592.546	38232.85
592.743	38175.5
592.94	37417.75
593.137	38222.61
593.334	37585.69
593.531	37493.53
593.727	37673.75
593.924	37497.63
594.121	37249.82
594.318	37745.43
594.515	36803.36
594.712	37333.79
594.908	36793.12
595.105	37118.75
595.302	36487.98
595.499	36870.95
595.696	36469.54
595.892	36422.44
596.089	36526.89
596.286	36676.39
596.482	35951.41
596.679	35969.84
596.876	36225.84
597.072	35738.42
597.269	35916.59
597.466	35488.57
597.662	35373.88
597.859	35420.98
598.055	35318.59
598.252	35169.08
598.448	35318.59
598.645	34982.72
598.841	34761.54
599.038	35337.02
599.234	34716.48
599.431	34093.9
599.627	34173.77
599.824	34812.74
600.02	34300.75
600.217	34560.84
600.413	34054.99
600.609	34235.21
600.806	34020.17
601.002	33985.36
601.198	33762.13
601.395	33715.03
601.591	33553.24
601.787	33825.62
601.984	33411.93
602.18	33792.85
602.376	33180.51
602.572	33045.34
602.769	33157.98
602.965	32674.66
603.161	32779.11
603.357	32392.04
603.553	32686.95
603.75	32244.59
603.946	32244.59
604.142	32410.47
604.338	32084.84
604.534	32553.83
604.73	32015.21
604.926	31798.13
605.122	31697.78
605.318	31746.93
605.514	31591.28
605.71	31583.09
605.906	31314.81
606.102	31456.12
606.298	31576.95
606.494	31325.05
606.69	31253.37
606.886	31443.83
607.082	30448.52
607.278	30829.44
607.474	30817.15
607.67	31011.71
607.866	30528.39
608.062	30954.36
608.257	30620.55
608.453	30536.58
608.649	30622.59
608.845	30079.88
609.041	30280.58
609.236	30098.31
609.432	30143.37
609.628	30491.52
609.824	30122.89
610.019	30028.68
610.215	29764.5
610.411	30061.45
610.606	29567.89
610.802	29756.3
610.998	29825.93
611.193	29784.97
611.389	29469.59
611.584	29500.31
611.78	29281.17
611.976	29545.36
612.171	29176.73
612.367	29402
612.562	29096.86
612.758	28980.12
612.953	28840.86
613.149	29176.73
613.344	28963.74
613.539	29354.9
613.735	28865.44
613.93	28969.88
614.126	28453.8
614.321	29037.47
614.517	28879.77
614.712	28650.4
614.907	28429.22
615.103	28394.4
615.298	28242.85
615.493	28335.01
615.688	28238.76
615.884	28586.91
616.079	28029.87
616.274	28218.28
616.47	27749.29
616.665	27984.81
616.86	27728.81
617.055	27800.49
617.25	27925.42
617.445	27802.54
617.641	27272.12
617.836	28132.26
618.031	27171.77
618.226	27466.67
618.421	27321.27
618.616	27583.41
618.811	27247.54
619.006	27446.19
619.201	26866.62
619.396	26985.4
619.591	26397.63
619.786	26842.04
619.981	26196.93
620.176	26674.11
620.371	26239.94
620.566	26282.95
620.761	26047.43
620.956	26067.91
621.151	25744.33
621.346	25822.16
621.541	25361.36
621.735	25785.29
621.93	25168.85
622.125	25367.51
622.32	24982.49
622.515	25523.15
622.709	24914.91
622.904	25052.12
623.099	24433.63
623.294	24798.17
623.488	24755.16
623.683	24525.79
623.878	23983.08
624.072	24118.25
624.267	24052.71
624.462	23940.07
624.656	23653.36
624.851	23645.16
625.046	23475.18
625.24	23413.74
625.435	23292.91
625.629	23000.05
625.824	23006.2
626.018	23155.7
626.213	21963.78
626.407	22725.63
626.602	22537.21
626.796	22791.16
626.991	22303.74
627.185	22389.76
627.38	22297.6
627.574	21904.39
627.768	21812.23
627.963	21498.89
628.157	21611.53
628.352	21638.16
628.546	21126.16
628.74	21601.29
628.935	21025.81
629.129	21388.3
629.323	20722.71
629.517	20759.58
629.712	20489.24
629.906	20472.86
630.1	20421.66
630.294	20790.3
630.489	20276.26
630.683	20548.64
630.877	19864.61
631.071	19768.36
631.265	19930.15
631.459	19926.05
631.653	19594.28
631.848	19629.1
632.042	19483.69
632.236	19471.4
632.43	19250.22
632.624	19137.59
632.818	18906.16
633.012	18828.34
633.206	18854.97
633.4	18887.73
633.594	18543.67
633.788	18676.79
633.982	18435.13
634.176	18439.23
634.369	18457.66
634.563	17943.62
634.757	18170.94
634.951	18234.43
635.145	18009.15
635.339	17822.79
635.533	17730.63
635.726	17595.46
635.92	17226.83
636.114	17595.46
636.308	17273.93
636.501	17216.59
636.695	17521.74
636.889	17265.74
637.083	16993.36
637.276	17001.55
637.47	16743.51
637.664	16557.14
637.857	16563.29
638.051	16479.32
638.244	16432.22
638.438	16342.11
638.632	16172.13
638.825	16143.45
639.019	15977.57
639.212	15797.35
639.406	16219.23
639.599	15770.72
639.793	16002.15
639.986	15516.78
640.18	15621.22
640.373	15545.45
640.567	15191.15
640.76	15424.62
640.954	15264.88
641.147	15008.88
641.34	15031.41
641.534	15023.22
641.727	14666.87
641.92	15111.28
642.114	14703.73
642.307	14650.49
642.5	14619.77
642.694	14488.7
642.887	14171.26
643.08	14261.37
643.273	14288
643.467	14189.69
643.66	14105.73
643.853	14103.68
644.046	13829.25
644.239	13902.98
644.432	13800.58
644.626	13898.88
644.819	13771.91
645.012	13509.77
645.205	13585.54
645.398	13700.23
645.591	13421.7
645.784	13448.33
645.977	13118.61
646.17	13218.96
646.363	13046.93
646.556	12983.44
646.749	12985.49
646.942	13128.84
647.135	12766.35
647.328	13005.97
647.521	12559.51
647.714	12442.78
647.907	12625.04
648.099	12471.45
648.292	12344.47
648.485	12307.61
648.678	12321.95
648.871	12201.12
649.064	12041.37
649.256	12139.68
649.449	11879.58
649.642	11824.29
649.835	11807.91
650.027	11906.21
650.22	11908.26
650.413	11490.47
650.605	11754.66
650.798	11664.55
650.991	11484.33
651.183	11451.56
651.376	11353.26
651.568	11383.98
651.761	11349.16
651.954	11166.89
652.146	11093.16
652.339	10988.72
652.531	11125.93
652.724	10800.3
652.916	10656.95
653.109	10931.37
653.301	10894.51
653.494	10689.71
653.686	10536.12
653.879	10810.54
654.071	10781.87
654.263	10556.6
654.456	10351.8
654.648	10456.25
654.84	10108.09
655.033	10267.83
655.225	10300.6
655.417	10224.83
655.61	10237.11
655.802	10290.36
655.994	10142.91
656.186	10108.09
656.379	9909.44
656.571	9852.09
656.763	9804.99
656.955	9712.83
657.148	9643.2
657.34	9764.03
657.532	9549
657.724	9620.67
657.916	9653.44
658.108	9542.85
658.3	9645.25
658.492	9471.17
658.684	9358.53
658.876	9288.9
659.068	9481.41
659.26	9166.03
659.452	9372.87
659.644	9288.9
659.836	8854.73
660.028	9030.86
660.22	8918.22
660.412	9002.19
660.604	8883.41
660.796	8854.73
660.988	8764.62
661.18	8688.85
661.372	8766.67
661.563	8842.45
661.755	8514.77
661.947	8735.95
662.139	8414.42
662.331	8563.92
662.522	8387.8
662.714	8408.28
662.906	8312.02
663.097	8375.51
663.289	8178.9
663.481	8105.18
663.673	8135.9
663.864	8219.86
664.056	8166.62
664.247	7982.3
664.439	7845.09
664.631	7851.23
664.822	7836.89
665.014	7769.31
665.205	7707.87
665.397	7933.15
665.588	7894.24
665.78	7898.33
665.971	7681.25
666.163	7732.45
666.354	7527.65
666.546	7544.03
666.737	7425.25
666.929	7568.61
667.12	7505.12
667.311	7298.28
667.503	7261.41
667.694	7580.9
667.885	7376.1
668.077	7402.72
668.268	7232.74
668.459	7281.89
668.651	7247.08
668.842	7234.79
669.033	7081.19
669.224	7195.88
669.416	7185.64
669.607	7113.96
669.798	6939.88
669.989	7066.86
670.18	7079.15
670.371	7011.56
670.563	6964.46
670.754	6921.45
670.945	6776.05
671.136	6810.86
671.327	7048.43
671.518	6894.83
671.709	6802.67
671.9	6917.36
672.091	6733.04
672.282	6659.31
672.473	6579.44
672.664	6812.91
672.855	6796.53
673.046	6620.4
673.237	6792.43
673.428	6606.06
673.619	6483.19
673.809	6595.82
674	6466.8
674.191	6536.43
674.382	6495.47
674.573	6325.49
674.764	6319.35
674.954	6540.53
675.145	6323.44
675.336	6229.24
675.527	6321.4
675.717	6317.3
675.908	6370.55
676.099	6468.85
676.289	6290.68
676.48	6212.85
676.671	6196.47
676.861	6126.84
677.052	6024.44
677.243	6280.44
677.433	6167.8
677.624	6067.45
677.814	6003.96
678.005	6110.46
678.195	6032.63
678.386	6251.77
678.576	5987.58
678.767	5854.46
678.957	6163.7
679.148	6077.69
679.338	6046.97
679.529	6016.25
679.719	6075.64
679.909	6089.98
680.1	6067.45
680.29	5995.77
680.481	5956.86
680.671	5965.05
680.861	5881.08
681.052	6022.39
681.242	5917.95
681.432	6085.88
681.622	5786.88
681.813	5993.72
682.003	5893.37
682.193	5846.27
682.383	5795.07
682.573	5838.08
682.764	5655.81
682.954	5850.36
683.144	5852.41
683.334	5758.21
683.524	5666.05
683.714	5967.1
683.904	5584.13
684.094	5827.84
684.284	5641.47
684.474	5641.47
684.664	5786.88
684.854	5666.05
685.044	5618.94
685.234	5573.89
685.424	5620.99
685.614	5618.94
685.804	5631.23
685.994	5467.39
686.184	5569.79
686.374	5553.41
686.564	5461.25
686.753	5420.29
686.943	5348.61
687.133	5309.7
687.323	5184.77
687.513	5381.38
687.702	5235.97
687.892	5207.3
688.082	5272.84
688.272	5147.91
688.461	5397.76
688.651	5293.32
688.841	5086.47
689.03	5164.29
689.22	5045.51
689.41	5149.96
689.599	5147.91
689.789	5215.49
689.979	5035.27
690.168	5195.01
690.358	4951.31
690.547	4838.67
690.737	4984.07
690.926	5115.14
691.116	4928.78
691.305	5004.55
691.495	4818.19
691.684	4889.87
691.874	5006.6
692.063	4963.59
692.252	5025.03
692.442	4889.87
692.631	4853
692.82	4736.27
693.01	4769.04
693.199	4910.35
693.388	4635.92
693.578	4685.07
693.767	4711.69
693.956	4601.1
694.146	4549.9
694.335	4506.9
694.524	4494.61
694.713	4605.2
694.902	4498.7
695.092	4478.22
695.281	4549.9
695.47	4465.94
695.659	4621.58
695.848	4498.7
696.037	4549.9
696.226	4513.04
696.415	4539.66
696.604	4470.03
696.793	4580.62
696.982	4476.18
697.171	4433.17
697.36	4361.49
697.549	4322.58
697.738	4484.37
697.927	4527.38
698.116	4279.57
698.305	4392.21
698.494	4310.29
698.683	4279.57
698.872	4324.63
699.061	4445.46
699.25	4414.74
699.438	4220.18
699.627	4375.83
699.816	4318.48
700.005	4384.02
700.193	4193.56
700.382	4347.15
700.571	4324.63
700.76	4250.9
700.948	4238.61
701.137	4300.05
701.326	4246.8
701.514	4236.56
701.703	4310.29
701.892	4248.85
702.08	4316.44
702.269	4377.87
702.457	4160.79
702.646	4197.65
702.834	4191.51
703.023	4218.13
703.212	4224.28
703.4	4244.76
703.589	4074.78
703.777	4177.17
703.965	4183.32
704.154	4138.26
704.342	4136.21
704.531	4101.4
704.719	4136.21
704.907	4197.65
705.096	4060.44
705.284	4111.64
705.472	4060.44
705.661	4148.5
705.849	4158.74
706.037	4062.49
706.226	4048.15
706.414	4093.21
706.602	4080.92
706.79	4123.93
706.979	4070.68
707.167	4152.6
707.355	4085.01
707.543	4015.38
707.731	3921.18
707.919	4111.64
708.107	4005.14
708.296	3929.37
708.484	3843.35
708.672	4013.34
708.86	3984.66
709.048	4107.54
709.236	3886.36
709.424	3992.86
709.612	4042.01
709.8	4029.72
709.988	4046.1
710.176	4009.24
710.364	3960.09
710.551	3826.97
710.739	3976.47
710.927	3912.99
711.115	4039.96
711.303	4017.43
711.491	3892.51
711.679	3931.42
711.866	3878.17
712.054	3994.9
712.242	3927.32
712.43	3859.74
712.617	3835.16
712.805	3876.12
712.993	3853.59
713.181	3771.68
713.368	3790.11
713.556	3976.47
713.744	3865.88
713.931	3921.18
714.119	3829.02
714.306	4056.34
714.494	3861.79
714.682	3779.87
714.869	3912.99
715.057	3796.25
715.244	3656.99
715.432	3786.01
715.619	3855.64
715.807	3779.87
715.994	3937.56
716.182	3804.44
716.369	3861.79
716.556	3747.1
716.744	3648.8
716.931	3745.05
717.119	3990.81
717.306	3958.04
717.493	3829.02
717.681	3761.44
717.868	3857.69
718.055	3886.36
718.242	3689.76
718.43	3863.83
718.617	3771.68
718.804	3632.41
718.991	3771.68
719.179	3736.86
719.366	3788.06
719.553	3767.58
719.74	3781.92
719.927	3628.32
720.114	3704.09
720.301	3710.24
720.488	3808.54
720.676	3753.24
720.863	3775.77
721.05	3702.04
721.237	3790.11
721.424	3691.8
721.611	3669.28
721.798	3652.89
721.985	3638.56
722.172	3624.22
722.358	3579.17
722.545	3722.52
722.732	3564.83
722.919	3675.42
723.106	3636.51
723.293	3757.34
723.48	3644.7
723.667	3570.97
723.853	3515.68
724.04	3636.51
724.227	3646.75
724.414	3620.13
724.6	3530.02
724.787	3616.03
724.974	3607.84
725.161	3583.26
725.347	3560.73
725.534	3507.49
725.72	3579.17
725.907	3421.47
726.094	3558.69
726.28	3570.97
726.467	3540.26
726.653	3552.54
726.84	3552.54
727.027	3624.22
727.213	3446.05
727.4	3501.34
727.586	3603.74
727.773	3425.57
727.959	3570.97
728.145	3421.47
728.332	3527.97
728.518	3458.34
728.705	3497.25
728.891	3357.99
729.077	3360.03
729.264	3392.8
729.45	3308.83
729.636	3523.87
729.823	3382.56
730.009	3501.34
730.195	3474.72
730.382	3284.26
730.568	3556.64
730.754	3253.54
730.94	3263.78
731.126	3294.5
731.313	3454.24
731.499	3339.55
731.685	3380.51
731.871	3304.74
732.057	3370.27
732.243	3235.11
732.429	3321.12
732.615	3304.74
732.801	3413.28
732.987	3351.84
733.173	3261.73
733.359	3327.27
733.545	3263.78
733.731	3128.61
733.917	3392.8
734.103	3251.49
734.289	3282.21
734.475	3222.82
734.661	3278.12
734.847	3204.39
735.033	3296.55
735.219	3304.74
735.404	3235.11
735.59	3149.09
735.776	3200.29
735.962	3161.38
736.148	3247.4
736.333	3128.61
736.519	3183.91
736.705	3269.92
736.89	3202.34
737.076	3208.48
737.262	3095.85
737.447	3067.17
737.633	3095.85
737.819	3093.8
738.004	3130.66
738.19	2999.59
738.375	3157.29
738.561	3081.51
738.747	3007.78
738.932	2921.77
739.118	3040.55
739.303	3116.33
739.489	3044.65
739.674	2897.19
739.859	3056.93
740.045	2917.67
740.23	2923.82
740.416	2927.91
740.601	2997.54
740.786	2864.43
740.972	3079.46
741.157	2936.1
741.342	2972.97
741.528	2786.6
741.713	2895.15
741.898	2770.22
742.084	2889
742.269	2923.82
742.454	2876.71
742.639	2766.12
742.824	2946.34
743.01	2809.13
743.195	2725.16
743.38	2753.84
743.565	2706.73
743.75	2811.18
743.935	2712.88
744.12	2665.77
744.305	2745.64
744.49	2690.35
744.675	2700.59
744.86	2725.16
745.045	2686.25
745.23	2655.53
745.415	2731.31
745.6	2776.36
745.785	2639.15
745.97	2569.52
746.155	2645.29
746.34	2573.61
746.525	2546.99
746.71	2614.57
746.895	2487.6
747.079	2600.24
747.264	2444.59
747.449	2428.21
747.634	2454.83
747.819	2436.4
748.003	2469.17
748.188	2475.31
748.373	2358.58
748.557	2409.78
748.742	2276.66
748.927	2342.19
749.111	2395.44
749.296	2239.8
749.481	2350.39
749.665	2334
749.85	2221.36
750.034	2241.84
750.219	2301.23
750.404	2266.42
750.588	2309.43
750.773	2219.32
750.957	2223.41
751.141	2235.7
751.326	2123.06
751.51	2182.45
751.695	2143.54
751.879	2213.17
752.064	2102.58
752.248	2096.44
752.432	2047.29
752.617	2041.14
752.801	2024.76
752.985	1985.85
753.17	2002.23
753.354	1961.27
753.538	1994.04
753.722	1928.5
753.907	1967.42
754.091	2006.33
754.275	2008.37
754.459	2002.23
754.643	1811.77
754.828	1862.97
755.012	1895.74
755.196	1903.93
755.38	1809.72
755.564	1776.95
755.748	1901.88
755.932	1783.1
756.116	1885.5
756.3	1748.28
756.484	1764.67
756.668	1723.71
756.852	1781.05
757.036	1740.09
757.22	1643.84
757.404	1695.04
757.588	1652.03
757.772	1711.42
757.956	1627.45
758.14	1664.32
758.323	1748.28
758.507	1600.83
758.691	1488.19
758.875	1754.43
759.059	1664.32
759.242	1615.16
759.426	1523.01
759.61	1609.02
759.794	1561.92
759.977	1623.36
760.161	1670.46
760.345	1559.87
760.528	1578.3
760.712	1551.68
760.895	1412.42
761.079	1465.66
761.263	1549.63
761.446	1551.68
761.63	1465.66
761.813	1568.06
761.997	1443.14
762.18	1473.85
762.364	1426.75
762.547	1314.11
762.731	1381.7
762.914	1455.42
763.098	1402.18
763.281	1369.41
763.464	1336.64
763.648	1412.42
763.831	1342.78
764.015	1320.26
764.198	1283.39
764.381	1436.99
764.564	1363.26
764.748	1338.69
764.931	1412.42
765.114	1267.01
765.297	1324.35
765.481	1369.41
765.664	1336.64
765.847	1338.69
766.03	1299.78
766.213	1326.4
766.397	1363.26
766.58	1275.2
766.763	1357.12
766.946	1281.35
767.129	1201.47
767.312	1201.47
767.495	1269.06
767.678	1228.1
767.861	1295.68
768.044	1213.76
768.227	1207.62
768.41	1355.07
768.593	1203.52
768.776	1252.67
768.959	1191.24
769.142	1203.52
769.324	1228.1
769.507	1267.01
769.69	1232.19
769.873	1152.32
770.056	1213.76
770.239	1178.95
770.421	1105.22
770.604	1140.04
770.787	1119.56
770.97	1094.98
771.152	1086.79
771.335	1101.12
771.518	1140.04
771.7	1142.08
771.883	1148.23
772.066	1133.89
772.248	1101.12
772.431	1174.85
772.613	1113.41
772.796	1119.56
772.978	1033.54
773.161	1045.83
773.343	1109.32
773.526	1113.41
773.708	1058.12
773.891	1027.4
774.073	1092.93
774.256	1008.97
774.438	998.73
774.621	1004.87
774.803	974.15
774.985	949.57
775.168	978.25
775.35	1019.21
775.532	992.58
775.715	914.76
775.897	994.63
776.079	871.75
776.261	931.14
776.444	970.05
776.626	892.23
776.808	949.57
776.99	879.94
777.173	941.38
777.355	806.22
777.537	894.28
777.719	806.22
777.901	873.8
778.083	826.7
778.265	787.79
778.447	931.14
778.629	808.26
778.811	875.85
778.993	816.46
779.175	871.75
779.357	818.5
779.539	752.97
779.721	838.98
779.903	816.46
780.085	740.68
780.267	820.55
780.449	703.82
780.631	773.45
780.812	781.64
780.994	793.93
781.176	802.12
781.358	712.01
781.54	826.7
781.721	699.72
781.903	787.79
782.085	730.44
782.267	744.78
782.448	666.96
782.63	693.58
782.812	734.54
782.993	740.68
783.175	726.35
783.357	658.76
783.538	718.15
783.72	687.43
783.901	681.29
784.083	654.67
784.264	609.61
784.446	609.61
784.627	511.31
784.809	714.06
784.99	740.68
785.172	658.76
785.353	599.37
785.535	591.18
785.716	646.48
785.897	611.66
786.079	585.04
786.26	644.43
786.441	499.02
786.623	550.22
786.804	574.8
786.985	511.31
787.167	593.23
787.348	554.32
787.529	591.18
787.71	576.84
787.891	552.27
788.073	556.36
788.254	460.11
788.435	558.41
788.616	556.36
788.797	517.45
788.978	478.54
789.159	433.49
789.34	574.8
789.522	507.21
789.703	447.82
789.884	519.5
790.065	468.3
790.246	535.89
790.427	544.08
790.607	464.21
790.788	560.46
790.969	425.29
791.15	451.92
791.331	460.11
791.512	468.3
791.693	427.34
791.874	492.88
792.054	521.55
792.235	472.4
792.416	398.67
792.597	406.86
792.778	453.97
792.958	456.01
793.139	527.69
793.32	499.02
793.5	482.64
793.681	515.41
793.862	490.83
794.042	367.95
794.223	388.43
794.404	365.9
794.584	388.43
794.765	388.43
794.945	404.82
795.126	484.69
795.306	410.96
795.487	308.56
795.667	388.43
795.848	400.72
796.028	361.81
796.209	382.29
796.389	384.34
796.57	386.38
796.75	413.01
796.93	406.86
797.111	339.28
797.291	431.44
797.471	376.14
797.652	396.62
797.832	388.43
798.012	425.29
798.192	370
798.373	341.33
798.553	347.47
798.733	288.08
798.913	312.66
799.093	413.01
799.274	318.8
799.454	376.14
799.634	331.09
799.814	384.34
799.994	390.48
800.174	341.33
800.354	286.03
800.534	318.8
800.714	318.8
800.894	312.66
801.074	333.14
801.254	306.51
801.434	380.24
801.614	312.66
801.794	281.94
801.974	867.66
802.154	378.19
802.334	265.55
802.514	343.38
802.693	273.75
802.873	263.51
803.053	298.32
803.233	308.56
803.413	292.18
803.592	202.07
803.772	277.84
803.952	310.61
804.131	255.31
804.311	312.66
804.491	345.42
804.67	304.46
804.85	249.17
805.03	326.99
805.209	324.94
805.389	243.03
805.568	306.51
805.748	224.59
805.928	273.75
806.107	341.33
806.287	265.55
806.466	347.47
806.646	236.88
806.825	212.31
807.004	257.36
807.184	292.18
807.363	300.37
807.543	388.43
807.722	286.03
807.901	294.22
808.081	277.84
808.26	212.31
808.439	245.07
808.619	249.17
808.798	273.75
808.977	195.92
809.156	363.86
809.336	263.51
809.515	230.74
809.694	200.02
809.873	337.23
810.052	224.59
810.231	255.31
810.411	249.17
810.59	240.98
810.769	247.12
810.948	331.09
811.127	175.44
811.306	243.03
811.485	269.65
811.664	292.18
811.843	298.32
812.022	238.93
812.201	216.4
812.38	294.22
812.559	265.55
812.737	232.79
812.916	240.98
813.095	202.07
813.274	255.31
813.453	281.94
813.632	173.39
813.811	232.79
813.989	197.97
814.168	214.35
814.347	202.07
814.526	247.12
814.704	238.93
814.883	218.45
815.062	154.96
815.24	146.77
815.419	234.83
815.598	220.5
815.776	171.35
815.955	195.92
816.133	253.27
816.312	222.55
816.49	159.06
816.669	204.11
816.847	273.75
817.026	208.21
817.204	204.11
817.383	220.5
817.561	204.11
817.74	216.4
817.918	191.83
818.097	179.54
818.275	232.79
818.453	247.12
818.632	212.31
818.81	181.59
818.988	171.35
819.167	128.34
819.345	224.59
819.523	234.83
819.701	206.16
819.879	236.88
820.058	185.68
820.236	181.59
820.414	150.87
820.592	187.73
820.77	245.07
820.948	163.15
821.127	163.15
821.305	140.63
821.483	173.39
821.661	210.26
821.839	120.15
822.017	122.2
822.195	136.53
822.373	232.79
822.551	224.59
822.729	167.25
822.907	134.48
823.085	204.11
823.262	240.98
823.44	134.48
823.618	177.49
823.796	154.96
823.974	222.55
824.152	159.06
824.329	212.31
824.507	177.49
824.685	142.68
824.863	157.01
825.04	134.48
825.218	257.36
825.396	150.87
825.574	122.2
825.751	148.82
825.929	105.81
826.107	114
826.284	144.72
826.462	118.1
826.639	179.54
826.817	101.72
826.994	109.91
827.172	200.02
827.349	243.03
827.527	157.01
827.704	187.73
827.882	148.82
828.059	197.97
828.237	81.24
828.414	230.74
828.591	120.15
828.769	118.1
828.946	124.24
829.124	197.97
829.301	142.68
829.478	169.3
829.655	101.72
829.833	126.29
830.01	42.32
830.187	138.58
830.364	85.33
830.542	150.87
830.719	150.87
830.896	175.44
831.073	109.91
831.25	157.01
831.427	214.35
831.604	157.01
831.782	95.57
831.959	150.87
832.136	146.77
832.313	144.72
832.49	111.96
832.667	114
832.844	124.24
833.021	109.91
833.198	99.67
833.374	177.49
833.551	21.84
833.728	134.48
833.905	95.57
834.082	99.67
834.259	107.86
834.436	183.63
834.612	152.91
834.789	140.63
834.966	73.04
835.143	167.25
835.319	77.14
835.496	120.15
835.673	105.81
835.85	159.06
836.026	124.24
836.203	89.43
836.38	52.56
836.556	118.1
836.733	68.95
836.909	183.63
837.086	60.76
837.262	89.43
837.439	146.77
837.616	146.77
837.792	130.39
837.968	118.1
838.145	48.47
838.321	81.24
838.498	167.25
838.674	111.96
838.851	99.67
839.027	114
839.203	34.13
839.38	138.58
839.556	118.1
839.732	169.3
839.909	75.09
840.085	181.59
840.261	116.05
840.437	89.43
840.614	68.95
840.79	109.91
840.966	157.01
841.142	101.72
841.318	15.7
841.494	109.91
841.671	114
841.847	85.33
842.023	56.66
842.199	99.67
842.375	111.96
842.551	52.56
842.727	89.43
842.903	118.1
843.079	42.32
843.255	66.9
843.431	71
843.607	89.43
843.783	52.56
843.959	46.42
844.134	62.8
844.31	212.31
844.486	87.38
844.662	60.76
844.838	40.28
845.013	42.32
845.189	52.56
845.365	27.99
845.541	52.56
845.716	101.72
845.892	73.04
846.068	58.71
846.244	56.66
846.419	52.56
846.595	54.61
846.77	83.28
846.946	93.52
847.122	58.71
847.297	101.72
847.473	89.43
847.648	13.65
847.824	138.58
847.999	3.41
848.175	77.14
848.35	52.56
848.526	144.72
848.701	62.8
848.876	56.66
849.052	42.32
849.227	30.04
849.403	75.09
849.578	32.08
849.753	134.48
849.929	77.14
850.104	54.61
850.279	44.37
850.454	3.41
850.63	64.85
850.805	89.43
850.98	44.37
851.155	54.61
851.33	99.67
851.505	-2.73
851.681	15.7
851.856	52.56
852.031	128.34
852.206	34.13
852.381	-21.16
852.556	32.08
852.731	130.39
852.906	56.66
853.081	48.47
853.256	42.32
853.431	44.37
853.606	52.56
853.781	23.89
853.956	89.43
854.131	13.65
854.305	-47.79
854.48	83.28
854.655	54.61
854.83	11.61
855.005	48.47
855.18	52.56
855.354	85.33
855.529	93.52
855.704	62.8
855.879	-21.16
856.053	30.04
856.228	-27.31
856.403	5.46
856.577	66.9
856.752	21.84
856.926	68.95
857.101	60.76
857.276	27.99
857.45	-2.73
857.625	48.47
857.799	-2.73
857.974	68.95
858.148	-29.35
858.323	44.37
858.497	-47.79
858.672	91.48
858.846	60.76
859.02	64.85
859.195	-53.93
859.369	-62.12
859.543	30.04
859.718	75.09
859.892	1.37
860.066	25.94
860.241	13.65
860.415	60.76
860.589	64.85
860.763	-6.83
860.938	73.04
861.112	48.47
861.286	32.08
861.46	9.56
861.634	52.56
861.808	54.61
861.982	7.51
862.157	17.75
862.331	19.8
862.505	-8.87
862.679	-29.35
862.853	48.47
863.027	54.61
863.201	64.85
863.375	-37.55
863.549	114
863.722	-0.68
863.896	50.52
864.07	73.04
864.244	40.28
864.418	19.8
864.592	48.47
864.766	23.89
864.939	44.37
865.113	-17.07
865.287	107.86
865.461	81.24
865.634	68.95
865.808	-19.11
865.982	77.14
866.156	-6.83
866.329	1.37
866.503	-10.92
866.676	27.99
866.85	-2.73
867.024	56.66
867.197	27.99
867.371	34.13
867.544	68.95
867.718	1.37
867.891	17.75
868.065	25.94
868.238	46.42
868.412	21.84
868.585	42.32
868.759	54.61
868.932	-37.55
869.105	1.37
869.279	36.18
869.452	30.04
869.625	56.66
869.799	56.66
869.972	116.05
870.145	1.37
870.319	62.8
870.492	25.94
870.665	-6.83
870.838	3.41
871.011	3.41
871.185	36.18
871.358	52.56
871.531	3.41
871.704	13.65
871.877	11.61
872.05	-17.07
872.223	-17.07
872.396	44.37
872.569	15.7
872.742	15.7
872.915	5.46
873.088	46.42
873.261	32.08
873.434	-10.92
873.607	73.04
873.78	19.8
873.953	60.76
874.126	44.37
874.299	19.8
874.471	-2.73
874.644	42.32
874.817	46.42
874.99	48.47
875.163	44.37
875.335	23.89
875.508	19.8
875.681	130.39
875.853	17.75
876.026	-41.64
876.199	30.04
876.371	5.46
876.544	-21.16
876.717	7.51
876.889	11.61
877.062	101.72
877.234	-45.74
877.407	1.37
877.579	91.48
877.752	56.66
877.924	23.89
878.097	13.65
878.269	50.52
878.442	32.08
878.614	1.37
878.786	27.99
878.959	44.37
879.131	-41.64
879.303	19.8
879.476	21.84
879.648	25.94
879.82	34.13
879.993	52.56
880.165	27.99
880.337	36.18
880.509	9.56
880.681	15.7
880.854	3.41
881.026	36.18
881.198	87.38
881.37	17.75
881.542	-10.92
881.714	58.71
881.886	95.57
882.058	25.94
882.23	71
882.402	-51.88
882.574	114
882.746	34.13
882.918	124.24
883.09	64.85
883.262	68.95
883.434	-35.5
883.606	-53.93
883.778	-4.78
883.95	48.47
884.122	-64.17
884.293	50.52
884.465	93.52
884.637	30.04
884.809	-31.4
884.98	27.99
885.152	83.28
885.324	32.08
885.496	-12.97
885.667	17.75
885.839	126.29
886.011	142.68
886.182	-2.73
886.354	19.8
886.525	109.91
886.697	11.61
886.869	36.18
887.04	21.84
887.212	48.47
887.383	19.8
887.555	-0.68
887.726	-49.83
887.897	27.99
888.069	-4.78
888.24	27.99
888.412	15.7
888.583	7.51
888.754	-105.13
888.926	48.47
889.097	71
889.268	-12.97
889.44	54.61
889.611	-17.07
889.782	17.75
889.953	-8.87
890.125	66.9
890.296	64.85
890.467	-27.31
890.638	32.08
890.809	-29.35
890.98	-29.35
891.151	25.94
891.323	46.42
891.494	3.41
891.665	66.9
891.836	75.09
892.007	50.52
892.178	46.42
892.349	75.09
892.52	1.37
892.691	-8.87
892.862	56.66
893.032	-41.64
893.203	44.37
893.374	40.28
893.545	87.38
893.716	44.37
893.887	75.09
894.057	42.32
894.228	17.75
894.399	50.52
894.57	30.04
894.74	-0.68
894.911	-19.11
895.082	15.7
895.253	17.75
895.423	32.08
895.594	44.37
895.764	68.95
895.935	-21.16
896.106	30.04
896.276	-62.12
896.447	-29.35
896.617	-0.68
896.788	23.89
896.958	52.56
897.129	23.89
897.299	-49.83
897.47	64.85
897.64	44.37
897.81	11.61
897.981	21.84
898.151	11.61
898.322	50.52
898.492	56.66
898.662	1.37
898.832	60.76
899.003	11.61
899.173	114
899.343	-0.68
899.513	19.8
