Data from USB4F104151__92__10-24-29-679.txt Node

Date: Wed Mar 12 10:24:29 EDT 2025
User: louis
Spectrometer: USB4F10415
Trigger mode: 4
Integration Time (sec): 3.000000E-2
Scans to average: 1
Electric dark correction enabled: true
Nonlinearity correction enabled: false
Boxcar width: 0
XAxis mode: Wavelengths
Number of Pixels in Spectrum: 3648
>>>>>Begin Spectral Data<<<<<
178.204	-134.14
178.424	-134.14
178.644	-134.14
178.864	-130.05
179.084	-119.81
179.304	-39.94
179.524	-64.51
179.744	3.07
179.964	-1.02
180.184	58.37
180.404	44.03
180.624	62.46
180.844	33.79
181.064	-27.65
181.283	-60.42
181.503	7.17
181.723	-15.36
181.943	-87.04
182.163	103.42
182.383	60.42
182.602	56.32
182.822	62.46
183.042	39.94
183.262	-27.65
183.482	3.07
183.701	27.65
183.921	82.94
184.141	-1.02
184.361	54.27
184.58	-1.02
184.8	25.6
185.02	13.31
185.239	82.94
185.459	66.56
185.679	5.12
185.898	-74.75
186.118	80.89
186.338	54.27
186.557	46.08
186.777	56.32
186.997	37.89
187.216	-13.31
187.436	66.56
187.655	54.27
187.875	-31.74
188.095	11.26
188.314	33.79
188.534	-9.22
188.753	5.12
188.973	33.79
189.192	56.32
189.412	3.07
189.631	87.04
189.851	-37.89
190.07	95.23
190.29	33.79
190.509	27.65
190.729	21.5
190.948	76.8
191.168	58.37
191.387	54.27
191.607	-48.13
191.826	84.99
192.045	-3.07
192.265	39.94
192.484	50.18
192.704	-29.7
192.923	62.46
193.142	54.27
193.362	44.03
193.581	41.98
193.8	1.02
194.02	62.46
194.239	-29.7
194.458	15.36
194.678	-7.17
194.897	111.61
195.116	29.7
195.335	74.75
195.555	37.89
195.774	48.13
195.993	56.32
196.212	54.27
196.432	62.46
196.651	-17.41
196.87	33.79
197.089	74.75
197.308	13.31
197.528	31.74
197.747	17.41
197.966	29.7
198.185	154.62
198.404	-23.55
198.623	84.99
198.842	27.65
199.062	58.37
199.281	46.08
199.5	31.74
199.719	21.5
199.938	113.66
200.157	117.76
200.376	-27.65
200.595	39.94
200.814	54.27
201.033	62.46
201.252	46.08
201.471	31.74
201.69	99.33
201.909	35.84
202.128	48.13
202.347	109.57
202.566	-11.26
202.785	13.31
203.004	97.28
203.223	109.57
203.442	-39.94
203.661	27.65
203.879	58.37
204.098	56.32
204.317	-29.7
204.536	37.89
204.755	37.89
204.974	68.61
205.193	-7.17
205.411	87.04
205.63	44.03
205.849	15.36
206.068	50.18
206.287	17.41
206.505	68.61
206.724	54.27
206.943	13.31
207.162	15.36
207.381	84.99
207.599	72.7
207.818	-21.5
208.037	3.07
208.255	21.5
208.474	52.22
208.693	44.03
208.911	117.76
209.13	119.81
209.349	50.18
209.567	125.95
209.786	5.12
210.005	113.66
210.223	89.09
210.442	48.13
210.661	82.94
210.879	9.22
211.098	1.02
211.316	17.41
211.535	64.51
211.753	-5.12
211.972	31.74
212.191	-44.03
212.409	89.09
212.628	62.46
212.846	-29.7
213.065	54.27
213.283	87.04
213.502	33.79
213.72	48.13
213.938	-9.22
214.157	-19.46
214.375	-9.22
214.594	60.42
214.812	-5.12
215.031	-5.12
215.249	-19.46
215.467	21.5
215.686	27.65
215.904	74.75
216.122	13.31
216.341	23.55
216.559	95.23
216.778	101.37
216.996	17.41
217.214	19.46
217.432	52.22
217.651	13.31
217.869	15.36
218.087	-1.02
218.306	46.08
218.524	93.18
218.742	74.75
218.96	9.22
219.179	-21.5
219.397	87.04
219.615	52.22
219.833	82.94
220.051	13.31
220.27	31.74
220.488	54.27
220.706	19.46
220.924	-15.36
221.142	23.55
221.36	9.22
221.578	99.33
221.796	39.94
222.015	60.42
222.233	35.84
222.451	33.79
222.669	1.02
222.887	89.09
223.105	-27.65
223.323	-74.75
223.541	7.17
223.759	78.85
223.977	19.46
224.195	33.79
224.413	66.56
224.631	-62.46
224.849	91.13
225.067	-3.07
225.285	44.03
225.503	23.55
225.721	-15.36
225.939	84.99
226.157	99.33
226.375	136.19
226.592	-64.51
226.81	-48.13
227.028	76.8
227.246	111.61
227.464	3.07
227.682	21.5
227.9	84.99
228.117	41.98
228.335	9.22
228.553	54.27
228.771	21.5
228.989	76.8
229.206	46.08
229.424	72.7
229.642	3.07
229.86	56.32
230.077	78.85
230.295	105.47
230.513	46.08
230.731	21.5
230.948	119.81
231.166	39.94
231.384	29.7
231.601	-52.22
231.819	76.8
232.037	-13.31
232.254	-5.12
232.472	21.5
232.689	58.37
232.907	107.52
233.125	60.42
233.342	9.22
233.56	21.5
233.777	-13.31
233.995	105.47
234.213	66.56
234.43	1.02
234.648	-21.5
234.865	29.7
235.083	119.81
235.3	60.42
235.518	103.42
235.735	68.61
235.953	56.32
236.17	-11.26
236.388	19.46
236.605	35.84
236.822	91.13
237.04	52.22
237.257	33.79
237.475	9.22
237.692	-15.36
237.909	-29.7
238.127	44.03
238.344	66.56
238.562	-31.74
238.779	-31.74
238.996	33.79
239.214	46.08
239.431	107.52
239.648	41.98
239.865	21.5
240.083	60.42
240.3	64.51
240.517	62.46
240.735	7.17
240.952	80.89
241.169	136.19
241.386	41.98
241.603	15.36
241.821	7.17
242.038	107.52
242.255	99.33
242.472	17.41
242.689	19.46
242.907	-33.79
243.124	35.84
243.341	-56.32
243.558	25.6
243.775	-27.65
243.992	-13.31
244.209	1.02
244.426	35.84
244.643	95.23
244.86	-3.07
245.078	52.22
245.295	119.81
245.512	48.13
245.729	31.74
245.946	54.27
246.163	41.98
246.38	80.89
246.597	17.41
246.814	-3.07
247.031	23.55
247.248	37.89
247.464	9.22
247.681	103.42
247.898	74.75
248.115	58.37
248.332	13.31
248.549	37.89
248.766	93.18
248.983	5.12
249.2	-11.26
249.417	68.61
249.633	5.12
249.85	74.75
250.067	-3.07
250.284	-7.17
250.501	3.07
250.717	46.08
250.934	-50.18
251.151	54.27
251.368	54.27
251.585	7.17
251.801	70.65
252.018	62.46
252.235	128
252.451	31.74
252.668	-3.07
252.885	95.23
253.102	25.6
253.318	3.07
253.535	29.7
253.752	7.17
253.968	19.46
254.185	-15.36
254.401	-7.17
254.618	-52.22
254.835	7.17
255.051	39.94
255.268	17.41
255.484	50.18
255.701	93.18
255.917	54.27
256.134	164.86
256.351	-9.22
256.567	-25.6
256.784	31.74
257	44.03
257.217	119.81
257.433	25.6
257.65	173.05
257.866	7.17
258.082	19.46
258.299	-66.56
258.515	-37.89
258.732	29.7
258.948	7.17
259.165	-11.26
259.381	82.94
259.597	15.36
259.814	11.26
260.03	-5.12
260.246	115.71
260.463	103.42
260.679	72.7
260.895	64.51
261.112	19.46
261.328	-15.36
261.544	13.31
261.761	154.62
261.977	39.94
262.193	-52.22
262.409	70.65
262.626	21.5
262.842	19.46
263.058	-5.12
263.274	35.84
263.49	95.23
263.707	93.18
263.923	60.42
264.139	5.12
264.355	37.89
264.571	128
264.787	46.08
265.004	46.08
265.22	44.03
265.436	-27.65
265.652	89.09
265.868	78.85
266.084	31.74
266.3	-17.41
266.516	72.7
266.732	50.18
266.948	58.37
267.164	37.89
267.38	91.13
267.596	33.79
267.812	93.18
268.028	27.65
268.244	31.74
268.46	-3.07
268.676	78.85
268.892	50.18
269.108	-66.56
269.324	-9.22
269.54	41.98
269.756	91.13
269.972	66.56
270.188	54.27
270.403	-11.26
270.619	123.9
270.835	17.41
271.051	52.22
271.267	50.18
271.483	23.55
271.698	52.22
271.914	35.84
272.13	66.56
272.346	82.94
272.562	125.95
272.777	60.42
272.993	48.13
273.209	95.23
273.425	84.99
273.64	-46.08
273.856	95.23
274.072	62.46
274.287	29.7
274.503	29.7
274.719	46.08
274.934	52.22
275.15	33.79
275.366	58.37
275.581	21.5
275.797	82.94
276.012	-33.79
276.228	19.46
276.444	13.31
276.659	89.09
276.875	31.74
277.09	56.32
277.306	-3.07
277.521	64.51
277.737	95.23
277.952	74.75
278.168	37.89
278.383	-7.17
278.599	121.85
278.814	1.02
279.03	7.17
279.245	117.76
279.461	48.13
279.676	37.89
279.892	-5.12
280.107	-11.26
280.322	50.18
280.538	91.13
280.753	-19.46
280.969	107.52
281.184	7.17
281.399	64.51
281.615	17.41
281.83	82.94
282.045	-23.55
282.26	33.79
282.476	70.65
282.691	64.51
282.906	15.36
283.122	13.31
283.337	1.02
283.552	31.74
283.767	44.03
283.983	66.56
284.198	35.84
284.413	84.99
284.628	-60.42
284.843	27.65
285.058	48.13
285.274	-9.22
285.489	70.65
285.704	7.17
285.919	41.98
286.134	-23.55
286.349	-29.7
286.564	39.94
286.779	52.22
286.995	15.36
287.21	-7.17
287.425	54.27
287.64	64.51
287.855	62.46
288.07	9.22
288.285	64.51
288.5	46.08
288.715	82.94
288.93	74.75
289.145	-21.5
289.36	41.98
289.575	7.17
289.79	152.57
290.004	48.13
290.219	76.8
290.434	78.85
290.649	-19.46
290.864	52.22
291.079	1.02
291.294	70.65
291.509	103.42
291.724	23.55
291.938	25.6
292.153	44.03
292.368	41.98
292.583	62.46
292.798	66.56
293.012	33.79
293.227	50.18
293.442	58.37
293.657	70.65
293.871	125.95
294.086	33.79
294.301	160.77
294.516	60.42
294.73	80.89
294.945	-25.6
295.16	5.12
295.374	111.61
295.589	78.85
295.804	37.89
296.018	62.46
296.233	25.6
296.447	78.85
296.662	54.27
296.877	109.57
297.091	48.13
297.306	13.31
297.52	19.46
297.735	72.7
297.949	80.89
298.164	117.76
298.378	23.55
298.593	9.22
298.807	11.26
299.022	68.61
299.236	87.04
299.451	21.5
299.665	60.42
299.88	95.23
300.094	132.09
300.309	113.66
300.523	21.5
300.737	19.46
300.952	66.56
301.166	87.04
301.381	1.02
301.595	-11.26
301.809	72.7
302.024	-3.07
302.238	21.5
302.452	19.46
302.667	82.94
302.881	109.57
303.095	72.7
303.309	39.94
303.524	60.42
303.738	82.94
303.952	-9.22
304.166	41.98
304.381	84.99
304.595	128
304.809	-35.84
305.023	-23.55
305.237	1.02
305.452	93.18
305.666	95.23
305.88	37.89
306.094	52.22
306.308	35.84
306.522	78.85
306.736	-11.26
306.95	78.85
307.164	11.26
307.379	119.81
307.593	33.79
307.807	62.46
308.021	164.86
308.235	52.22
308.449	54.27
308.663	9.22
308.877	95.23
309.091	76.8
309.305	21.5
309.519	1.02
309.733	113.66
309.947	31.74
310.161	29.7
310.374	48.13
310.588	50.18
310.802	-31.74
311.016	95.23
311.23	46.08
311.444	70.65
311.658	93.18
311.872	52.22
312.085	146.43
312.299	115.71
312.513	115.71
312.727	-46.08
312.941	76.8
313.154	17.41
313.368	82.94
313.582	70.65
313.796	46.08
314.009	41.98
314.223	173.05
314.437	41.98
314.651	66.56
314.864	11.26
315.078	64.51
315.292	27.65
315.505	17.41
315.719	17.41
315.933	25.6
316.146	46.08
316.36	29.7
316.573	87.04
316.787	33.79
317.001	68.61
317.214	44.03
317.428	101.37
317.641	-31.74
317.855	48.13
318.068	62.46
318.282	82.94
318.495	54.27
318.709	87.04
318.922	50.18
319.136	15.36
319.349	56.32
319.563	9.22
319.776	58.37
319.99	46.08
320.203	58.37
320.417	-11.26
320.63	35.84
320.843	111.61
321.057	50.18
321.27	-5.12
321.483	84.99
321.697	115.71
321.91	19.46
322.124	37.89
322.337	11.26
322.55	25.6
322.763	93.18
322.977	11.26
323.19	37.89
323.403	-1.02
323.617	74.75
323.83	70.65
324.043	68.61
324.256	-46.08
324.469	-5.12
324.683	89.09
324.896	70.65
325.109	13.31
325.322	-50.18
325.535	72.7
325.748	46.08
325.962	5.12
326.175	-1.02
326.388	33.79
326.601	50.18
326.814	31.74
327.027	15.36
327.24	148.48
327.453	70.65
327.666	21.5
327.879	25.6
328.092	68.61
328.305	3.07
328.518	5.12
328.731	113.66
328.944	82.94
329.157	91.13
329.37	138.24
329.583	72.7
329.796	78.85
330.009	58.37
330.222	62.46
330.435	82.94
330.648	-15.36
330.861	44.03
331.073	134.14
331.286	66.56
331.499	134.14
331.712	19.46
331.925	-21.5
332.138	-9.22
332.35	62.46
332.563	1.02
332.776	125.95
332.989	39.94
333.202	11.26
333.414	58.37
333.627	74.75
333.84	48.13
334.053	62.46
334.265	5.12
334.478	74.75
334.691	46.08
334.903	-3.07
335.116	37.89
335.329	21.5
335.541	21.5
335.754	93.18
335.966	56.32
336.179	-44.03
336.392	62.46
336.604	11.26
336.817	97.28
337.029	39.94
337.242	46.08
337.454	44.03
337.667	115.71
337.88	48.13
338.092	97.28
338.305	-7.17
338.517	46.08
338.729	128
338.942	64.51
339.154	50.18
339.367	-27.65
339.579	95.23
339.792	9.22
340.004	103.42
340.217	27.65
340.429	-3.07
340.641	95.23
340.854	56.32
341.066	52.22
341.278	62.46
341.491	82.94
341.703	48.13
341.915	39.94
342.128	78.85
342.34	56.32
342.552	-13.31
342.764	103.42
342.977	76.8
343.189	-11.26
343.401	76.8
343.613	-29.7
343.826	7.17
344.038	44.03
344.25	46.08
344.462	78.85
344.674	87.04
344.886	11.26
345.099	29.7
345.311	50.18
345.523	44.03
345.735	62.46
345.947	-44.03
346.159	76.8
346.371	41.98
346.583	64.51
346.795	125.95
347.007	39.94
347.219	72.7
347.431	5.12
347.643	60.42
347.855	148.48
348.067	93.18
348.279	-1.02
348.491	82.94
348.703	33.79
348.915	-23.55
349.127	-9.22
349.339	82.94
349.551	-62.46
349.763	82.94
349.975	66.56
350.187	91.13
350.399	54.27
350.61	46.08
350.822	62.46
351.034	46.08
351.246	91.13
351.458	107.52
351.669	50.18
351.881	89.09
352.093	84.99
352.305	-15.36
352.517	82.94
352.728	123.9
352.94	95.23
353.152	46.08
353.363	105.47
353.575	68.61
353.787	60.42
353.999	121.85
354.21	78.85
354.422	48.13
354.633	54.27
354.845	23.55
355.057	80.89
355.268	111.61
355.48	119.81
355.692	44.03
355.903	82.94
356.115	27.65
356.326	37.89
356.538	50.18
356.749	29.7
356.961	72.7
357.172	82.94
357.384	91.13
357.595	33.79
357.807	70.65
358.018	15.36
358.23	21.5
358.441	119.81
358.653	76.8
358.864	9.22
359.075	101.37
359.287	103.42
359.498	134.14
359.709	37.89
359.921	87.04
360.132	54.27
360.344	46.08
360.555	48.13
360.766	138.24
360.977	74.75
361.189	123.9
361.4	58.37
361.611	70.65
361.823	78.85
362.034	107.52
362.245	80.89
362.456	66.56
362.667	44.03
362.879	46.08
363.09	56.32
363.301	103.42
363.512	134.14
363.723	48.13
363.935	-25.6
364.146	117.76
364.357	44.03
364.568	87.04
364.779	27.65
364.99	58.37
365.201	109.57
365.412	74.75
365.623	1.02
365.834	130.05
366.045	115.71
366.256	128
366.467	17.41
366.678	99.33
366.889	-29.7
367.1	80.89
367.311	125.95
367.522	60.42
367.733	91.13
367.944	41.98
368.155	44.03
368.366	54.27
368.577	84.99
368.788	41.98
368.999	29.7
369.209	27.65
369.42	134.14
369.631	62.46
369.842	117.76
370.053	-27.65
370.264	41.98
370.474	17.41
370.685	95.23
370.896	78.85
371.107	64.51
371.317	74.75
371.528	54.27
371.739	95.23
371.95	50.18
372.16	33.79
372.371	37.89
372.582	41.98
372.792	62.46
373.003	1.02
373.214	70.65
373.424	15.36
373.635	56.32
373.846	109.57
374.056	80.89
374.267	82.94
374.477	105.47
374.688	50.18
374.898	54.27
375.109	54.27
375.319	44.03
375.53	89.09
375.74	72.7
375.951	52.22
376.161	62.46
376.372	37.89
376.582	13.31
376.793	130.05
377.003	62.46
377.214	52.22
377.424	44.03
377.635	107.52
377.845	46.08
378.055	93.18
378.266	72.7
378.476	113.66
378.686	101.37
378.897	134.14
379.107	101.37
379.317	87.04
379.528	37.89
379.738	56.32
379.948	46.08
380.158	70.65
380.369	31.74
380.579	9.22
380.789	66.56
380.999	87.04
381.21	52.22
381.42	72.7
381.63	54.27
381.84	68.61
382.05	128
382.261	82.94
382.471	21.5
382.681	64.51
382.891	123.9
383.101	134.14
383.311	93.18
383.521	76.8
383.731	84.99
383.941	99.33
384.151	70.65
384.361	25.6
384.571	101.37
384.781	58.37
384.991	117.76
385.201	70.65
385.411	132.09
385.621	70.65
385.831	-46.08
386.041	25.6
386.251	70.65
386.461	76.8
386.671	50.18
386.881	23.55
387.091	78.85
387.301	205.82
387.511	11.26
387.72	130.05
387.93	46.08
388.14	99.33
388.35	52.22
388.56	115.71
388.769	113.66
388.979	62.46
389.189	52.22
389.399	25.6
389.609	74.75
389.818	54.27
390.028	70.65
390.238	13.31
390.447	80.89
390.657	60.42
390.867	70.65
391.076	62.46
391.286	-5.12
391.496	82.94
391.705	66.56
391.915	68.61
392.125	99.33
392.334	105.47
392.544	125.95
392.753	44.03
392.963	82.94
393.172	60.42
393.382	136.19
393.591	171.01
393.801	46.08
394.01	113.66
394.22	123.9
394.429	37.89
394.639	76.8
394.848	68.61
395.058	58.37
395.267	109.57
395.477	103.42
395.686	68.61
395.895	171.01
396.105	214.01
396.314	107.52
396.524	58.37
396.733	29.7
396.942	148.48
397.152	201.72
397.361	99.33
397.57	134.14
397.78	166.91
397.989	158.72
398.198	218.11
398.407	177.15
398.617	91.13
398.826	101.37
399.035	76.8
399.244	234.49
399.453	128
399.663	74.75
399.872	197.63
400.081	74.75
400.29	158.72
400.499	144.38
400.708	152.57
400.917	134.14
401.127	142.33
401.336	97.28
401.545	171.01
401.754	177.15
401.963	168.96
402.172	132.09
402.381	146.43
402.59	119.81
402.799	144.38
403.008	168.96
403.217	132.09
403.426	162.81
403.635	119.81
403.844	164.86
404.053	107.52
404.262	138.24
404.471	209.92
404.68	185.34
404.888	158.72
405.097	222.2
405.306	199.68
405.515	252.92
405.724	156.67
405.933	254.97
406.142	230.4
406.35	254.97
406.559	138.24
406.768	226.3
406.977	205.82
407.185	324.6
407.394	250.88
407.603	224.25
407.812	275.45
408.02	365.56
408.229	338.94
408.438	230.4
408.646	302.08
408.855	295.93
409.064	312.32
409.272	322.56
409.481	273.4
409.69	287.74
409.898	322.56
410.107	359.42
410.315	388.09
410.524	340.99
410.733	422.91
410.941	381.95
411.15	375.8
411.358	453.63
411.567	453.63
411.775	560.12
411.984	435.19
412.192	525.3
412.401	611.32
412.609	560.12
412.818	599.03
413.026	607.22
413.234	621.56
413.443	617.46
413.651	685.05
413.86	701.43
414.068	775.16
414.276	775.16
414.485	738.29
414.693	873.46
414.901	816.12
415.11	814.07
415.318	859.12
415.526	910.32
415.734	914.42
415.943	967.67
416.151	1010.67
416.359	1029.1
416.567	1043.44
416.776	1068.02
416.984	1143.79
417.192	1117.17
417.4	1102.83
417.608	1223.66
417.817	1291.24
418.025	1299.44
418.233	1450.99
418.441	1393.64
418.649	1463.27
418.857	1520.62
419.065	1528.81
419.273	1508.33
419.481	1698.79
419.689	1672.17
419.897	1760.23
420.105	1868.77
420.313	2026.47
420.521	1901.54
420.729	2012.13
420.937	2008.03
421.145	2085.86
421.353	2216.93
421.561	2231.26
421.769	2296.8
421.977	2341.85
422.185	2470.87
422.393	2700.25
422.601	2665.43
422.809	2730.97
423.017	2862.04
423.224	2843.6
423.432	2950.1
423.64	2968.53
423.848	3277.77
424.056	3142.61
424.263	3462.09
424.471	3353.55
424.679	3406.8
424.887	3656.65
425.094	3800.01
425.302	3826.63
425.51	3957.7
425.718	4017.09
425.925	4103.11
426.133	4115.39
426.341	4608.95
426.548	4645.82
426.756	4694.97
426.964	4815.8
427.171	4940.72
427.379	5088.18
427.586	5319.6
427.794	5538.73
428.001	5596.07
428.209	5944.23
428.417	5845.93
428.624	6202.27
428.832	6316.96
429.039	6259.62
429.247	6181.79
429.454	6876.06
429.662	7113.62
429.869	6697.88
430.076	7291.79
430.284	6994.84
430.491	7269.27
430.699	7676.81
430.906	7891.85
431.114	8072.07
431.321	8162.18
431.528	8348.54
431.736	8745.85
431.943	9368.43
432.15	8956.79
432.358	9147.25
432.565	9337.71
432.772	9579.37
432.979	10001.26
433.187	10195.81
433.394	10226.53
433.601	10949.46
433.808	10959.7
434.016	10879.83
434.223	11522.9
434.43	11998.02
434.637	11932.49
434.844	12526.4
435.052	12763.97
435.259	12704.57
435.466	12643.14
435.673	12798.78
435.88	13562.67
436.087	14334.76
436.294	14134.06
436.501	13564.72
436.708	14213.93
436.915	14588.71
437.122	15463.19
437.329	15264.54
437.537	15641.36
437.743	15911.69
437.95	15758.1
438.157	16642.82
438.364	17093.37
438.571	17328.89
438.778	17279.74
438.985	19174.11
439.192	18354.92
439.399	18739.94
439.606	18250.47
439.813	19446.49
440.02	20656.84
440.227	20142.8
440.433	19813.07
440.64	20619.97
440.847	20284.11
441.054	20726.47
441.261	22448.81
441.467	22031.02
441.674	22346.41
441.881	22839.97
442.088	23343.77
442.294	22876.83
442.501	23730.84
442.708	24009.36
442.914	24906.37
443.121	26266.22
443.328	25447.04
443.534	27306.59
443.741	26098.29
443.948	26253.94
444.154	27841.11
444.361	27425.37
444.568	27957.85
444.774	27849.3
444.981	28277.33
445.187	28869.19
445.394	30456.37
445.6	29792.83
445.807	32807.44
446.013	31332.9
446.22	31922.71
446.426	32858.63
446.633	33380.87
446.839	34529.78
447.046	33270.28
447.252	34552.3
447.459	34742.77
447.665	34789.87
447.871	36233.69
448.078	37407.17
448.284	35932.64
448.491	36530.64
448.697	38459.83
448.903	38521.27
449.11	39020.97
449.316	38074.81
449.522	38900.14
449.728	39958.94
449.935	39748
450.141	39854.5
450.347	40966.54
450.553	39563.68
450.76	40051.1
450.966	41064.85
451.172	40436.12
451.378	41687.43
451.584	40892.82
451.791	41830.79
451.997	41386.38
452.203	41920.9
452.409	42101.12
452.615	42226.04
452.821	41062.8
453.027	40065.44
453.233	42267
453.44	40192.41
453.646	41025.93
453.852	40950.16
454.058	41509.25
454.264	40069.53
454.47	41236.87
454.676	40149.4
454.882	41494.92
455.088	37857.73
455.294	38146.49
455.5	38818.22
455.705	39020.97
455.911	37693.89
456.117	36704.72
456.323	36028.89
456.529	34441.71
456.735	36084.19
456.941	35068.39
457.147	34740.72
457.352	33362.43
457.558	32780.81
457.764	33243.65
457.97	31984.15
458.176	31537.69
458.381	31830.55
458.587	30022.2
458.793	30214.71
458.999	28342.86
459.204	30411.31
459.41	29850.17
459.616	27587.16
459.821	27603.55
460.027	27667.03
460.233	27122.27
460.438	25645.69
460.644	26120.82
460.85	24953.48
461.055	24502.92
461.261	24412.81
461.466	22690.47
461.672	21842.61
461.878	23487.13
462.083	22002.35
462.289	21676.73
462.494	21697.2
462.7	20357.83
462.905	19768.02
463.111	20624.07
463.316	20550.34
463.522	20085.45
463.727	20067.02
463.932	19999.44
464.138	19911.38
464.343	20181.71
464.549	19524.31
464.754	20208.33
464.959	19825.36
465.165	19966.67
465.37	19210.97
465.575	18483.94
465.781	19155.68
465.986	19241.69
466.191	18703.07
466.397	18299.62
466.602	17339.13
466.807	17953.52
467.012	18207.47
467.218	18080.49
467.423	17801.97
467.628	17801.97
467.833	18488.04
468.038	18008.81
468.244	17392.37
468.449	17933.04
468.654	17679.09
468.859	17593.08
469.064	17181.43
469.269	16581.38
469.474	16593.67
469.679	17083.13
469.885	16337.67
470.09	16558.85
470.295	16808.7
470.5	15973.13
470.705	16290.57
470.91	16026.38
471.115	15762.19
471.32	16081.67
471.525	15741.71
471.73	15801.1
471.935	15446.8
472.139	15008.54
472.344	15186.71
472.549	15088.41
472.754	14893.85
472.959	14406.44
473.164	14201.64
473.369	13931.31
473.574	14644
473.778	14375.72
473.983	14164.78
474.188	14111.53
474.393	13650.74
474.598	13568.82
474.802	13361.97
475.007	13370.16
475.212	13478.71
475.417	12753.73
475.621	13093.69
475.826	13278.01
476.031	12589.89
476.235	12589.89
476.44	12401.47
476.645	12444.48
476.849	12669.76
477.054	12159.81
477.259	12112.71
477.463	12159.81
477.668	12018.5
477.872	11895.63
478.077	11565.9
478.282	11662.16
478.486	11553.62
478.691	11432.79
478.895	11209.56
479.1	11316.05
479.304	11234.13
479.509	10810.2
479.713	11363.15
479.918	10922.84
480.122	10734.43
480.326	10885.98
480.531	11006.81
480.735	10763.1
480.94	10793.82
481.144	11131.73
481.348	10460
481.553	10627.93
481.757	10333.03
481.961	10484.58
482.166	10644.32
482.37	10498.91
482.574	10441.57
482.778	10396.51
482.983	10672.99
483.187	10568.54
483.391	10808.16
483.595	10146.66
483.8	10249.06
484.004	10425.18
484.208	10675.04
484.412	10431.33
484.616	10781.53
484.821	10505.06
485.025	10443.62
485.229	10570.59
485.433	10324.83
485.637	10484.58
485.841	10488.67
486.045	10285.92
486.249	10605.41
486.453	10505.06
486.657	10517.34
486.861	10644.32
487.065	10236.77
487.269	10464.1
487.473	10292.07
487.677	10566.49
487.881	10449.76
488.085	10347.36
488.289	10429.28
488.493	10414.95
488.697	10570.59
488.901	10515.3
489.105	10447.71
489.309	10552.16
489.512	10513.25
489.716	10636.13
489.92	10490.72
490.124	10433.38
490.328	10711.9
490.531	10472.29
490.735	10853.21
490.939	10648.41
491.143	10638.17
491.346	10681.18
491.55	10845.02
491.754	10855.26
491.958	10955.61
492.161	10918.75
492.365	11031.38
492.569	10838.87
492.772	11062.1
492.976	11168.6
493.18	11103.06
493.383	11141.97
493.587	11535.18
493.79	11316.05
493.994	11316.05
494.197	11367.25
494.401	11676.49
494.605	11631.44
494.808	11944.78
495.012	11686.73
495.215	11795.28
495.419	11987.79
495.622	12038.98
495.825	12264.26
496.029	12139.33
496.232	12567.36
496.436	12211.01
496.639	12665.66
496.843	12616.51
497.046	12933.95
497.249	13196.09
497.453	13267.77
497.656	13144.89
497.859	13110.07
498.063	13337.4
498.266	13849.39
498.469	13560.63
498.673	13703.98
498.876	13851.44
499.079	14191.4
499.282	14021.42
499.485	14351.14
499.689	14574.37
499.892	14637.86
500.095	14574.37
500.298	15180.57
500.501	14990.11
500.705	15469.33
500.908	15522.58
501.111	15721.23
501.314	15840.01
501.517	15858.45
501.72	16294.66
501.923	16306.95
502.126	16737.02
502.329	16714.5
502.532	16839.42
502.735	16954.11
502.938	17484.53
503.141	17427.19
503.344	17767.15
503.547	17836.78
503.75	18068.2
503.953	18217.71
504.156	18430.69
504.359	18463.46
504.562	18662.12
504.765	19229.4
504.968	19458.78
505.17	19489.49
505.373	19370.71
505.576	19858.13
505.779	20138.7
505.982	20007.63
506.185	20548.29
506.387	20927.17
506.59	20648.64
506.793	21373.63
506.996	21301.95
507.198	21867.19
507.401	21492.41
507.604	22043.31
507.807	22518.44
508.009	22446.76
508.212	22493.86
508.415	22913.7
508.617	23222.94
508.82	23208.61
509.022	23001.76
509.225	23913.11
509.428	23890.58
509.63	24005.27
509.833	24550.03
510.035	24951.43
510.238	24810.12
510.44	25318.01
510.643	25696.89
510.845	25719.42
511.048	25905.78
511.25	26339.95
511.453	26448.49
511.655	27150.95
511.858	27028.07
512.06	26892.9
512.262	27318.88
512.465	27089.51
512.667	28050
512.87	28320.34
513.072	28486.22
513.274	28717.64
513.477	28918.34
513.679	29088.32
513.881	29585.98
514.084	29743.67
514.286	30073.4
514.488	30255.67
514.69	30927.4
514.893	31052.33
515.095	31201.83
515.297	31433.25
515.499	31975.96
515.701	31910.43
515.904	32598.54
516.106	32725.52
516.308	33085.96
516.51	33317.38
516.712	33098.25
516.914	33905.15
517.116	34066.94
517.318	34249.21
517.52	34630.13
517.722	34912.75
517.925	35254.76
518.127	35461.6
518.329	36162.01
518.531	35797.47
518.733	36592.08
518.935	36901.32
519.136	36907.47
519.338	37220.81
519.54	37347.78
519.742	38115.77
519.944	38136.25
520.146	38824.37
520.348	38773.17
520.55	39135.66
520.752	39125.42
520.954	40110.49
521.155	39582.12
521.357	40376.73
521.559	40577.43
521.761	41122.19
521.963	41216.4
522.164	41648.52
522.366	41499.01
522.568	41931.14
522.77	41974.14
522.971	42731.89
523.173	42320.25
523.375	43110.77
523.576	43366.76
523.778	43313.52
523.98	43827.56
524.181	43907.43
524.383	43753.83
524.584	44511.58
524.786	44403.03
524.988	43981.15
525.189	45005.14
525.391	45410.64
525.592	45482.31
525.794	45642.06
525.995	45891.91
526.197	46201.15
526.398	45996.35
526.6	46344.51
526.801	47063.35
527.003	46827.83
527.204	46954.8
527.406	47145.26
527.607	47081.78
527.808	47685.93
528.01	47030.58
528.211	47509.8
528.412	48578.84
528.614	48544.03
528.815	48132.39
529.016	48283.94
529.218	48032.04
529.419	48556.32
529.62	48519.45
529.822	48525.6
530.023	48757.02
530.224	48972.05
530.425	48675.1
530.626	48773.4
530.828	48767.26
531.029	49887.49
531.23	48802.07
531.431	49453.33
531.632	49510.67
531.833	49518.86
532.035	49348.88
532.236	49248.53
532.437	49844.49
532.638	49371.41
532.839	49793.29
533.04	49975.56
533.241	49543.44
533.442	50002.18
533.643	50280.7
533.844	49873.16
534.045	50090.24
534.246	49649.93
534.447	50243.84
534.648	50383.1
534.849	50430.21
535.05	49998.09
535.251	50571.52
535.451	49975.56
535.652	50522.37
535.853	50559.23
536.054	50448.64
536.255	50635
536.456	49903.88
536.657	51063.03
536.857	49942.79
537.058	50020.61
537.259	50268.42
537.46	50960.63
537.66	50657.53
537.861	50804.98
538.062	49948.93
538.263	50630.91
538.463	50290.94
538.664	50010.37
538.865	50458.88
539.065	50288.9
539.266	49924.36
539.466	50856.18
539.667	50123.01
539.868	50743.55
540.068	50356.48
540.269	49944.84
540.469	50104.58
540.67	50231.55
540.87	50419.97
541.071	50319.62
541.271	50448.64
541.472	50002.18
541.672	49922.31
541.873	49907.97
542.073	49494.28
542.274	50419.97
542.474	50137.35
542.675	49717.51
542.875	50358.53
543.075	49998.09
543.276	49707.27
543.476	50616.57
543.676	49752.33
543.877	50553.08
544.077	50118.92
544.277	49740.04
544.478	49969.41
544.678	50354.43
544.878	49871.11
545.078	50223.36
545.279	49936.65
545.479	50145.54
545.679	49854.73
545.879	50034.95
546.079	49723.66
546.28	49948.93
546.48	49697.03
546.68	50108.68
546.88	49674.51
547.08	49932.55
547.28	49705.23
547.48	49539.34
547.68	49369.36
547.88	49608.97
548.081	49674.51
548.281	49754.38
548.481	49541.39
548.681	49975.56
548.881	49682.7
549.081	49717.51
549.28	49522.96
549.48	50200.83
549.68	49486.09
549.88	50266.37
550.08	49600.78
550.28	49705.23
550.48	49043.73
550.68	49914.12
550.88	49649.93
551.08	49637.64
551.279	49674.51
551.479	49293.58
551.679	49697.03
551.879	49355.02
552.079	49658.12
552.278	49449.23
552.478	49494.28
552.678	49234.19
552.878	49398.03
553.077	49486.09
553.277	48937.24
553.477	49881.35
553.676	48910.61
553.876	49400.08
554.076	48357.66
554.275	49447.18
554.475	48290.08
554.674	49154.32
554.874	48927
555.074	48683.29
555.273	49047.83
555.473	49142.03
555.672	48539.93
555.872	48531.74
556.071	48806.17
556.271	48634.14
556.47	48509.21
556.67	48675.1
556.869	48136.48
557.068	48275.74
557.268	48283.94
557.467	48431.39
557.667	48603.42
557.866	48294.18
558.065	48011.56
558.265	47782.18
558.464	47943.97
558.663	48498.97
558.863	47493.42
559.062	48451.87
559.261	47946.02
559.461	47937.83
559.66	47137.07
559.859	47540.52
560.058	47175.98
560.258	47401.26
560.457	47178.03
560.656	47094.07
560.855	47038.77
561.054	47434.03
561.253	46766.39
561.453	47006
561.652	47040.82
561.851	47157.55
562.05	46696.76
562.249	46426.43
562.448	47147.31
562.647	46842.17
562.846	46618.94
563.045	46432.57
563.244	46010.69
563.443	46602.55
563.642	45644.1
563.841	46221.63
564.04	45842.76
564.239	45734.21
564.438	45863.24
564.637	45676.87
564.836	45662.54
565.035	45152.59
565.234	45371.72
565.432	44964.18
565.631	44964.18
565.83	45209.93
566.029	44829.01
566.228	44964.18
566.427	44654.93
566.625	44886.36
566.824	44083.55
567.023	44644.69
567.222	43972.96
567.42	44708.18
567.619	44654.93
567.818	44108.13
568.016	43809.12
568.215	44067.17
568.414	43686.25
568.612	43587.94
568.811	43333.99
569.01	43317.61
569.208	43110.77
569.407	43876.71
569.605	42920.31
569.804	43397.48
570.002	42768.76
570.201	43331.95
570.4	42797.43
570.598	42606.97
570.797	42482.04
570.995	42369.4
571.193	41945.47
571.392	42326.39
571.59	41818.5
571.789	41886.08
571.987	42234.24
572.186	42064.25
572.384	41425.29
572.582	41609.61
572.781	41548.17
572.979	41273.74
573.177	41523.59
573.376	41482.63
573.574	40931.73
573.772	41269.64
573.971	40714.64
574.169	40716.69
574.367	40255.9
574.565	40472.98
574.763	40186.27
574.962	39979.42
575.16	40049.05
575.358	40061.34
575.556	39864.74
575.754	40200.6
575.952	39897.5
576.151	39596.45
576.349	39434.66
576.547	39457.19
576.745	39266.73
576.943	39135.66
577.141	39066.03
577.339	39127.47
577.537	38779.31
577.735	38701.49
577.933	38812.08
578.131	38959.53
578.329	38779.31
578.527	38396.34
578.725	38443.45
578.923	38638
579.121	37996.99
579.319	37890.49
579.516	37958.08
579.714	38164.92
579.912	38003.13
580.11	37308.87
580.308	37525.96
580.506	37618.11
580.704	36870.61
580.901	37394.89
581.099	37163.46
581.297	36755.92
581.495	36768.21
581.692	37018.06
581.89	36465.11
582.088	37032.39
582.285	36712.91
582.483	36944.33
582.681	36213.21
582.878	36403.67
583.076	35979.74
583.274	36309.46
583.471	35989.98
583.669	35920.35
583.866	35578.34
584.064	35920.35
584.262	35228.13
584.459	35934.68
584.657	35312.1
584.854	35697.12
585.052	34855.4
585.249	35140.07
585.447	35013.1
585.644	34785.77
585.841	34521.59
586.039	34677.23
586.236	34218.49
586.434	34689.52
586.631	34159.09
586.828	34249.21
587.026	34451.95
587.223	34402.8
587.42	34036.22
587.618	34238.97
587.815	33878.52
588.012	33536.51
588.21	33847.8
588.407	33853.95
588.604	33315.33
588.801	32899.59
588.999	33301
589.196	33042.95
589.393	32958.99
589.59	33249.8
589.787	32477.71
589.984	32870.92
590.182	32516.62
590.379	32793.1
590.576	32549.39
590.773	32178.71
590.97	32178.71
591.167	32430.61
591.364	32004.63
591.561	31908.38
591.758	31853.08
591.955	31740.44
592.152	32086.55
592.349	31851.03
592.546	31590.94
592.743	31625.76
592.94	31066.66
593.137	31296.03
593.334	31066.66
593.531	30605.87
593.727	31056.42
593.924	31060.52
594.121	30704.17
594.318	31296.03
594.515	30333.49
594.712	30880.3
594.908	30749.23
595.105	30632.49
595.302	29911.61
595.499	30503.47
595.696	30470.7
595.892	30011.96
596.089	29991.48
596.286	30149.17
596.482	29870.65
596.679	29626.94
596.876	29805.11
597.072	29375.04
597.269	29379.14
597.466	29205.06
597.662	29348.42
597.859	29590.08
598.055	29227.59
598.252	29035.08
598.448	29125.19
598.645	29055.56
598.841	28641.87
599.038	28832.33
599.234	28672.59
599.431	28402.25
599.627	28416.59
599.824	28568.14
600.02	28273.23
600.217	28260.94
600.413	27935.32
600.609	28097.11
600.806	27781.72
601.002	27837.02
601.198	27742.81
601.395	27574.88
601.591	27544.16
601.787	27521.63
601.984	27437.66
602.18	27560.54
602.376	27101.79
602.572	26788.46
602.769	27224.67
602.965	26983.01
603.161	26888.81
603.357	26364.53
603.553	26901.09
603.75	26843.75
603.946	26372.72
604.142	26559.08
604.338	26210.93
604.534	26749.54
604.73	26010.23
604.926	26108.53
605.122	26233.46
605.318	26196.59
605.514	25991.8
605.71	25811.57
605.906	25711.22
606.102	25815.67
606.298	25649.78
606.494	25641.59
606.69	25868.92
606.886	25463.42
607.082	25227.9
607.278	25287.29
607.474	24904.32
607.67	25387.64
607.866	24961.67
608.062	25270.91
608.257	24926.85
608.453	24748.68
608.649	25133.7
608.845	24339.08
609.041	25033.35
609.236	24580.74
609.432	24564.36
609.628	24703.62
609.824	24414.86
610.019	24205.97
610.215	24398.48
610.411	24429.2
610.606	24427.15
610.802	24455.82
610.998	24248.97
611.193	24060.56
611.389	24083.09
611.584	24119.95
611.78	23943.83
611.976	23794.32
612.171	23808.66
612.367	23534.23
612.562	23984.79
612.758	23474.84
612.953	23554.71
613.149	23657.11
613.344	23175.84
613.539	23558.81
613.735	23308.96
613.93	23700.12
614.126	23532.18
614.321	23546.52
614.517	23380.64
614.712	23181.98
614.907	23169.69
615.103	23349.92
615.298	23052.96
615.493	23265.95
615.688	22674.09
615.884	23239.33
616.079	22719.14
616.274	23055.01
616.47	22876.83
616.665	22692.52
616.86	22573.74
617.055	22506.15
617.25	22440.62
617.445	23034.53
617.641	21977.78
617.836	22289.07
618.031	22102.7
618.226	22407.85
618.421	22348.46
618.616	22211.25
618.811	21918.39
619.006	22266.54
619.201	21717.68
619.396	21842.61
619.591	21725.88
619.786	22327.98
619.981	21469.88
620.176	21590.71
620.371	21244.6
620.566	21187.26
620.761	21015.23
620.956	21295.8
621.151	20867.78
621.346	20818.63
621.541	20662.98
621.735	20808.39
621.93	20601.54
622.125	20880.07
622.32	20361.93
622.515	20634.31
622.709	20437.7
622.904	20396.74
623.099	20114.13
623.294	20015.82
623.488	19866.32
623.683	20015.82
623.878	19356.38
624.072	19632.85
624.267	19264.22
624.462	19032.8
624.656	19131.1
624.851	19210.97
625.046	19000.03
625.24	18963.17
625.435	18758.37
625.629	18868.96
625.824	18860.77
626.018	18688.74
626.213	18135.79
626.407	18338.54
626.602	18164.46
626.796	18266.86
626.991	18062.06
627.185	18000.62
627.38	17640.18
627.574	17914.61
627.768	17789.68
627.963	17758.96
628.157	17517.3
628.352	17507.06
628.546	17144.57
628.74	17345.27
628.935	17066.75
629.129	17169.15
629.323	16804.61
629.517	16890.62
629.712	16773.89
629.906	16896.77
630.1	16386.82
630.294	16669.44
630.489	16601.86
630.683	16495.36
630.877	15921.93
631.071	16214.79
631.265	16300.81
631.459	15844.11
631.653	15981.32
631.848	15610.64
632.042	15831.82
632.236	15880.97
632.43	15649.55
632.624	15436.56
632.818	15436.56
633.012	15145.75
633.206	15117.08
633.4	15061.79
633.594	15026.97
633.788	15164.18
633.982	15039.26
634.176	14826.27
634.369	14877.47
634.563	14533.41
634.757	14826.27
634.951	14682.91
635.145	14437.16
635.339	14490.4
635.533	14383.91
635.726	14322.47
635.92	14211.88
636.114	14091.05
636.308	14242.6
636.501	13998.89
636.695	13937.45
636.889	13929.26
637.083	13648.69
637.276	13671.22
637.47	13740.85
637.664	13597.49
637.857	13581.1
638.051	13417.27
638.244	13282.1
638.438	13327.16
638.632	13282.1
638.825	12983.1
639.019	13155.13
639.212	12983.1
639.406	12731.2
639.599	12825.4
639.793	12901.18
639.986	12374.85
640.18	12645.18
640.373	12645.18
640.567	12204.87
640.76	12421.95
640.954	12104.52
641.147	12280.64
641.34	12065.61
641.534	12147.53
641.727	12190.53
641.92	12006.22
642.114	11903.82
642.307	11893.58
642.5	11873.1
642.694	11742.03
642.887	11713.36
643.08	11561.81
643.273	11610.96
643.467	11416.4
643.66	11533.14
643.853	11305.81
644.046	11164.5
644.239	11141.97
644.432	11225.94
644.626	11238.23
644.819	11080.53
645.012	11037.53
645.205	10920.79
645.398	11027.29
645.591	10683.23
645.784	10808.16
645.977	10849.11
646.17	10584.93
646.363	10507.1
646.556	10462.05
646.749	10359.65
646.942	10359.65
647.135	10484.58
647.328	10281.83
647.521	10232.68
647.714	10085.22
647.907	10150.76
648.099	10105.7
648.292	9966.44
648.485	10034.02
648.678	9864.04
648.871	9767.79
649.064	9843.56
649.256	9788.27
649.449	9692.01
649.642	9665.39
649.835	9726.83
650.027	9491.31
650.22	9421.68
650.413	9569.13
650.605	9419.63
650.798	9098.1
650.991	9071.48
651.183	9292.66
651.376	9450.35
651.568	9116.53
651.761	9196.4
651.954	8950.65
652.146	8854.39
652.339	9096.05
652.531	9098.1
652.724	8969.08
652.916	8739.71
653.109	8889.21
653.301	8833.91
653.494	8911.74
653.686	8467.33
653.879	8672.12
654.071	8524.67
654.263	8446.85
654.456	8416.13
654.648	8571.77
654.84	8158.08
655.033	8409.98
655.225	8440.7
655.417	8356.74
655.61	8352.64
655.802	8346.5
655.994	8237.95
656.186	8063.88
656.379	8084.36
656.571	8274.82
656.763	8088.45
656.955	8258.43
657.148	7844.74
657.34	7961.48
657.532	7672.71
657.724	7803.78
657.916	7525.26
658.108	7631.76
658.3	7564.17
658.492	7705.48
658.684	7693.19
658.876	7637.9
659.068	7474.06
659.26	7361.42
659.452	7418.77
659.644	7570.32
659.836	7302.03
660.028	7293.84
660.22	7136.15
660.412	7265.17
660.604	7066.52
660.796	7082.9
660.988	7156.63
661.18	6951.83
661.372	6914.97
661.563	7072.66
661.755	7003.03
661.947	6955.93
662.139	6847.38
662.331	6859.67
662.522	6679.45
662.714	6753.18
662.906	6763.42
663.097	6714.27
663.289	6722.46
663.481	6579.1
663.673	6497.18
663.864	6476.7
664.056	6681.5
664.247	6407.07
664.439	6415.26
664.631	6546.33
664.822	6521.76
665.014	6579.1
665.205	6366.11
665.397	6433.69
665.588	6384.54
665.78	6261.66
665.971	6267.81
666.163	6370.21
666.354	6185.89
666.546	6118.31
666.737	6028.2
666.929	6214.56
667.12	6022.05
667.311	6128.55
667.503	5825.45
667.694	5919.65
667.885	5876.65
668.077	5956.52
668.268	5911.46
668.459	5985.19
668.651	5919.65
668.842	5872.55
669.033	5708.71
669.224	5774.25
669.416	5868.45
669.607	5716.9
669.798	5698.47
669.989	5800.87
670.18	5821.35
670.371	5612.46
670.563	5643.18
670.754	5632.94
670.945	5624.75
671.136	5755.82
671.327	5536.68
671.518	5557.16
671.709	5555.12
671.9	5469.1
672.091	5483.44
672.282	5516.2
672.473	5501.87
672.664	5591.98
672.855	5374.89
673.046	5424.05
673.237	5628.84
673.428	5653.42
673.619	5313.45
673.809	5184.43
674	5358.51
674.191	5217.2
674.382	5276.59
674.573	5348.27
674.764	5303.22
674.954	5315.5
675.145	5206.96
675.336	5135.28
675.527	5094.32
675.717	5149.62
675.908	5184.43
676.099	5122.99
676.289	5196.72
676.48	5114.8
676.671	5041.08
676.861	5180.34
677.052	5190.58
677.243	5010.36
677.433	5133.23
677.624	5090.23
677.814	4981.68
678.005	5245.87
678.195	5110.71
678.386	5116.85
678.576	4914.1
678.767	4989.88
678.957	4957.11
679.148	5053.36
679.338	4981.68
679.529	4834.23
679.719	5028.79
679.909	5039.03
680.1	4903.86
680.29	5020.6
680.481	4983.73
680.671	4973.49
680.861	4830.13
681.052	4840.37
681.242	4893.62
681.432	4961.2
681.622	4842.42
681.813	4873.14
682.003	4852.66
682.193	4801.46
682.383	4809.65
682.573	4844.47
682.764	4815.8
682.954	4756.41
683.144	4862.9
683.334	4750.26
683.524	4770.74
683.714	4789.17
683.904	4748.22
684.094	4772.79
684.284	4742.07
684.474	4799.41
684.664	4811.7
684.854	4713.4
685.044	4676.54
685.234	4860.85
685.424	4699.06
685.614	4662.2
685.804	4760.5
685.994	4707.26
686.184	4619.19
686.374	4621.24
686.564	4666.3
686.753	4756.41
686.943	4469.69
687.133	4529.08
687.323	4617.15
687.513	4436.92
687.702	4467.64
687.892	4504.51
688.082	4508.6
688.272	4512.7
688.461	4467.64
688.651	4479.93
688.841	4379.58
689.03	4498.36
689.22	4455.36
689.41	4365.25
689.599	4180.93
689.789	4443.07
689.979	4273.09
690.168	4309.95
690.358	4213.7
690.547	4246.46
690.737	4209.6
690.926	4107.2
691.116	4189.12
691.305	4148.16
691.495	4150.21
691.684	4119.49
691.874	4254.66
692.063	4105.15
692.252	4051.91
692.442	4262.85
692.631	3972.04
692.82	3980.23
693.01	4123.59
693.199	4221.89
693.388	3886.02
693.578	3984.32
693.767	3910.6
693.956	3929.03
694.146	3820.49
694.335	3857.35
694.524	3935.17
694.713	4058.05
694.902	3869.64
695.092	4002.75
695.281	3836.87
695.47	3873.73
695.659	3812.29
695.848	3855.3
696.037	3883.97
696.226	3949.51
696.415	3722.18
696.604	3853.25
696.793	3757
696.982	3742.66
697.171	3734.47
697.36	3746.76
697.549	3757
697.738	3660.74
697.927	3771.33
698.116	3824.58
698.305	3695.56
698.494	3716.04
698.683	3843.01
698.872	3582.92
699.061	3777.48
699.25	3941.32
699.438	3822.53
699.627	3707.85
699.816	3656.65
700.005	3775.43
700.193	3679.18
700.382	3675.08
700.571	3785.67
700.76	3822.53
700.948	3771.33
701.137	3646.41
701.326	3642.31
701.514	3546.06
701.703	3720.14
701.892	3642.31
702.08	3726.28
702.269	3746.76
702.457	3595.21
702.646	3709.9
702.834	3642.31
703.023	3634.12
703.212	3634.12
703.4	3769.29
703.589	3564.49
703.777	3574.73
703.965	3488.71
704.154	3609.54
704.342	3488.71
704.531	3720.14
704.719	3494.86
704.907	3681.22
705.096	3482.57
705.284	3716.04
705.472	3621.83
705.661	3640.26
705.849	3466.19
706.037	3642.31
706.226	3666.89
706.414	3531.72
706.602	3630.02
706.79	3568.59
706.979	3593.16
707.167	3486.67
707.355	3589.07
707.543	3634.12
707.731	3666.89
707.919	3554.25
708.107	3617.74
708.296	3621.83
708.484	3554.25
708.672	3621.83
708.86	3650.5
709.048	3503.05
709.236	3611.59
709.424	3617.74
709.612	3625.93
709.8	3492.81
709.988	3632.07
710.176	3533.77
710.364	3591.11
710.551	3576.78
710.739	3644.36
710.927	3458
711.115	3572.68
711.303	3650.5
711.491	3724.23
711.679	3535.82
711.866	3652.55
712.054	3572.68
712.242	3527.63
712.43	3460.04
712.617	3621.83
712.805	3578.83
712.993	3531.72
713.181	3513.29
713.368	3578.83
713.556	3544.01
713.744	3535.82
713.931	3613.64
714.119	3664.84
714.306	3587.02
714.494	3451.85
714.682	3699.66
714.869	3652.55
715.057	3476.43
715.244	3419.08
715.432	3537.87
715.619	3533.77
715.807	3517.39
715.994	3580.87
716.182	3453.9
716.369	3576.78
716.556	3496.91
716.744	3464.14
716.931	3560.39
717.119	3574.73
717.306	3435.47
717.493	3464.14
717.681	3607.5
717.868	3515.34
718.055	3503.05
718.242	3476.43
718.43	3392.46
718.617	3478.47
718.804	3617.74
718.991	3550.15
719.179	3503.05
719.366	3572.68
719.553	3599.31
719.74	3558.35
719.927	3374.03
720.114	3492.81
720.301	3458
720.488	3468.24
720.676	3490.76
720.863	3595.21
721.05	3443.66
721.237	3433.42
721.424	3578.83
721.611	3464.14
721.798	3322.83
721.985	3535.82
722.172	3396.56
722.358	3421.13
722.545	3560.39
722.732	3541.96
722.919	3533.77
723.106	3558.35
723.293	3408.84
723.48	3423.18
723.667	3441.61
723.853	3345.36
724.04	3529.67
724.227	3490.76
724.414	3404.75
724.6	3464.14
724.787	3353.55
724.974	3503.05
725.161	3402.7
725.347	3447.76
725.534	3544.01
725.72	3523.53
725.907	3490.76
726.094	3458
726.28	3412.94
726.467	3347.4
726.653	3429.32
726.84	3394.51
727.027	3441.61
727.213	3331.02
727.4	3378.12
727.586	3421.13
727.773	3314.64
727.959	3414.99
728.145	3476.43
728.332	3376.08
728.518	3374.03
728.705	3437.52
728.891	3333.07
729.077	3449.8
729.264	3359.69
729.45	3318.73
729.636	3320.78
729.823	3285.97
730.009	3476.43
730.195	3361.74
730.382	3320.78
730.568	3396.56
730.754	3509.19
730.94	3466.19
731.126	3384.27
731.313	3355.6
731.499	3324.88
731.685	3193.81
731.871	3312.59
732.057	3296.21
732.243	3404.75
732.429	3320.78
732.615	3371.98
732.801	3290.06
732.987	3347.4
733.173	3189.71
733.359	3335.12
733.545	3265.49
733.731	3339.21
733.917	3355.6
734.103	3296.21
734.289	3195.86
734.475	3232.72
734.661	3253.2
734.847	3249.1
735.033	3300.3
735.219	3214.29
735.404	3191.76
735.59	3238.86
735.776	3247.05
735.962	3208.14
736.148	3193.81
736.333	3208.14
736.519	3134.42
736.705	3257.29
736.89	3064.79
737.076	3245.01
737.262	3081.17
737.447	3212.24
737.633	3191.76
737.819	3060.69
738.004	3005.39
738.19	3044.31
738.375	3167.18
738.561	3240.91
738.747	3183.57
738.932	3144.66
739.118	3087.31
739.303	3134.42
739.489	3175.38
739.674	3009.49
739.859	2872.28
740.045	2995.15
740.23	3089.36
740.416	3042.26
740.601	3009.49
740.786	2999.25
740.972	2909.14
741.157	2948.05
741.342	2894.8
741.528	3005.39
741.713	3007.44
741.898	3034.07
742.084	2972.63
742.269	2827.22
742.454	2866.13
742.639	2890.71
742.824	3007.44
743.01	2925.52
743.195	2921.43
743.38	2765.78
743.565	2880.47
743.75	2829.27
743.935	2798.55
744.12	2831.32
744.305	2653.14
744.49	2880.47
744.675	2741.21
744.86	2730.97
745.045	2612.18
745.23	2798.55
745.415	2759.64
745.6	2718.68
745.785	2587.61
745.97	2706.39
746.155	2517.98
746.34	2589.66
746.525	2606.04
746.71	2644.95
746.895	2606.04
747.079	2638.81
747.264	2466.78
747.449	2495.45
747.634	2505.69
747.819	2528.22
748.003	2436.06
748.188	2442.2
748.373	2503.64
748.557	2479.07
748.742	2354.14
748.927	2413.53
749.111	2350.04
749.296	2345.95
749.481	2395.1
749.665	2319.32
749.85	2188.25
750.034	2362.33
750.219	2206.69
750.404	2319.32
750.588	2270.17
750.773	2130.91
750.957	2278.37
751.141	2272.22
751.326	2294.75
751.51	2137.06
751.695	2098.14
751.879	2132.96
752.064	2171.87
752.248	2114.53
752.432	2163.68
752.617	2114.53
752.801	2110.43
752.985	2073.57
753.17	2022.37
753.354	2044.9
753.538	1946.59
753.722	1909.73
753.907	2046.94
754.091	1962.98
754.275	1899.49
754.459	1965.03
754.643	1874.92
754.828	1950.69
755.012	1780.71
755.196	1958.88
755.38	1840.1
755.564	1917.92
755.748	1885.16
755.932	1919.97
756.116	1780.71
756.3	1813.48
756.484	1819.62
756.668	1762.28
756.852	1700.84
757.036	1717.22
757.22	1715.17
757.404	1659.88
757.588	1655.78
757.772	1620.97
757.956	1614.82
758.14	1872.87
758.323	1635.3
758.507	1704.93
758.691	1659.88
758.875	1549.29
759.059	1745.89
759.242	1659.88
759.426	1668.07
759.61	1594.34
759.794	1477.61
759.977	1614.82
760.161	1737.7
760.345	1553.38
760.528	1537
760.712	1395.69
760.895	1534.95
761.079	1510.38
761.263	1539.05
761.446	1537
761.63	1559.53
761.813	1641.45
761.997	1479.66
762.18	1455.08
762.364	1360.88
762.547	1381.35
762.731	1387.5
762.914	1414.12
763.098	1496.04
763.281	1604.58
763.464	1369.07
763.648	1465.32
763.831	1369.07
764.015	1438.7
764.198	1426.41
764.381	1326.06
764.564	1330.16
764.748	1389.55
764.931	1364.97
765.114	1299.44
765.297	1377.26
765.481	1356.78
765.664	1373.16
765.847	1397.74
766.03	1317.87
766.213	1258.48
766.397	1332.2
766.58	1315.82
766.763	1258.48
766.946	1307.63
767.129	1235.95
767.312	1266.67
767.495	1297.39
767.678	1238
767.861	1219.57
768.044	1307.63
768.227	1266.67
768.41	1287.15
768.593	1252.33
768.776	1217.52
768.959	1246.19
769.142	1221.61
769.324	1160.17
769.507	1250.28
769.69	1145.84
769.873	1061.87
770.056	1248.24
770.239	1160.17
770.421	1242.09
770.604	1133.55
770.787	1072.11
770.97	1207.28
771.152	1166.32
771.335	1078.26
771.518	1039.34
771.7	1184.75
771.883	1115.12
772.066	1123.31
772.248	1049.58
772.431	1139.69
772.613	1119.21
772.796	979.95
772.978	1068.02
773.161	1029.1
773.343	1043.44
773.526	1049.58
773.708	996.34
773.891	1082.35
774.073	1000.43
774.256	1047.54
774.438	1049.58
774.621	955.38
774.803	971.76
774.985	969.71
775.168	971.76
775.35	930.8
775.532	924.66
775.715	1020.91
775.897	973.81
776.079	887.79
776.261	873.46
776.444	836.6
776.626	988.14
776.808	916.47
776.99	832.5
777.173	887.79
777.355	883.7
777.537	930.8
777.719	865.27
777.901	895.99
778.083	828.4
778.265	865.27
778.447	881.65
778.629	832.5
778.811	816.12
778.993	855.03
779.175	832.5
779.357	771.06
779.539	750.58
779.721	814.07
779.903	721.91
780.085	777.2
780.267	787.44
780.449	840.69
780.631	789.49
780.812	830.45
780.994	758.77
781.176	678.9
781.358	695.29
781.54	631.8
781.721	726
781.903	685.05
782.085	736.24
782.267	756.72
782.448	666.61
782.63	687.09
782.812	781.3
782.993	666.61
783.175	689.14
783.357	678.9
783.538	650.23
783.72	715.77
783.901	689.14
784.083	609.27
784.264	615.41
784.446	656.37
784.627	498.68
784.809	594.93
784.99	570.36
785.172	627.7
785.353	584.7
785.535	644.09
785.716	549.88
785.897	476.15
786.079	527.35
786.26	496.63
786.441	623.61
786.623	500.73
786.804	496.63
786.985	625.65
787.167	621.56
787.348	576.5
787.529	486.39
787.71	605.17
787.891	599.03
788.073	619.51
788.254	455.67
788.435	594.93
788.616	508.92
788.797	500.73
788.978	596.98
789.159	476.15
789.34	498.68
789.522	459.77
789.703	472.06
789.884	478.2
790.065	412.67
790.246	551.93
790.427	500.73
790.607	439.29
790.788	535.54
790.969	355.32
791.15	541.69
791.331	480.25
791.512	433.15
791.693	371.71
791.874	408.57
792.054	451.58
792.235	543.74
792.416	347.13
792.597	429.05
792.778	486.39
792.958	445.43
793.139	502.78
793.32	465.91
793.5	465.91
793.681	420.86
793.862	463.86
794.042	381.95
794.223	390.14
794.404	349.18
794.584	404.47
794.765	433.15
794.945	431.1
795.126	443.39
795.306	404.47
795.487	316.41
795.667	336.89
795.848	429.05
796.028	314.36
796.209	353.27
796.389	390.14
796.57	433.15
796.75	340.99
796.93	381.95
797.111	324.6
797.291	390.14
797.471	437.24
797.652	332.79
797.832	320.51
798.012	371.71
798.192	361.47
798.373	318.46
798.553	345.08
798.733	349.18
798.913	340.99
799.093	373.75
799.274	406.52
799.454	324.6
799.634	328.7
799.814	369.66
799.994	326.65
800.174	295.93
800.354	373.75
800.534	338.94
800.714	300.03
800.894	336.89
801.074	308.22
801.254	365.56
801.434	238.59
801.614	328.7
801.794	293.88
801.974	859.12
802.154	271.36
802.334	328.7
802.514	312.32
802.693	324.6
802.873	345.08
803.053	357.37
803.233	365.56
803.413	404.47
803.592	320.51
803.772	302.08
803.952	279.55
804.131	332.79
804.311	263.16
804.491	306.17
804.67	189.44
804.85	310.27
805.03	300.03
805.209	328.7
805.389	291.84
805.568	275.45
805.748	248.83
805.928	238.59
806.107	297.98
806.287	205.82
806.466	314.36
806.646	257.02
806.825	259.07
807.004	209.92
807.184	275.45
807.363	312.32
807.543	269.31
807.722	269.31
807.901	328.7
808.081	318.46
808.26	304.12
808.439	226.3
808.619	293.88
808.798	265.21
808.977	250.88
809.156	261.12
809.336	291.84
809.515	238.59
809.694	232.44
809.873	222.2
810.052	250.88
810.231	312.32
810.411	283.64
810.59	226.3
810.769	205.82
810.948	291.84
811.127	242.68
811.306	160.77
811.485	295.93
811.664	289.79
811.843	242.68
812.022	267.26
812.201	222.2
812.38	166.91
812.559	226.3
812.737	240.64
812.916	132.09
813.095	177.15
813.274	183.29
813.453	279.55
813.632	197.63
813.811	195.58
813.989	201.72
814.168	267.26
814.347	183.29
814.526	177.15
814.704	289.79
814.883	228.35
815.062	199.68
815.24	271.36
815.419	140.29
815.598	187.39
815.776	109.57
815.955	234.49
816.133	173.05
816.312	275.45
816.49	164.86
816.669	177.15
816.847	144.38
817.026	181.25
817.204	162.81
817.383	226.3
817.561	113.66
817.74	158.72
817.918	173.05
818.097	185.34
818.275	134.14
818.453	201.72
818.632	193.53
818.81	128
818.988	201.72
819.167	191.49
819.345	130.05
819.523	197.63
819.701	226.3
819.879	197.63
820.058	148.48
820.236	248.83
820.414	164.86
820.592	224.25
820.77	177.15
820.948	119.81
821.127	150.53
821.305	187.39
821.483	175.1
821.661	142.33
821.839	93.18
822.017	144.38
822.195	158.72
822.373	138.24
822.551	189.44
822.729	168.96
822.907	111.61
823.085	93.18
823.262	144.38
823.44	87.04
823.618	142.33
823.796	168.96
823.974	74.75
824.152	121.85
824.329	125.95
824.507	68.61
824.685	168.96
824.863	179.2
825.04	142.33
825.218	140.29
825.396	175.1
825.574	132.09
825.751	183.29
825.929	185.34
826.107	99.33
826.284	160.77
826.462	136.19
826.639	152.57
826.817	58.37
826.994	87.04
827.172	68.61
827.349	142.33
827.527	95.23
827.704	115.71
827.882	130.05
828.059	220.16
828.237	211.96
828.414	103.42
828.591	11.26
828.769	117.76
828.946	132.09
829.124	162.81
829.301	171.01
829.478	134.14
829.655	70.65
829.833	97.28
830.01	82.94
830.187	168.96
830.364	82.94
830.542	138.24
830.719	64.51
830.896	62.46
831.073	82.94
831.25	89.09
831.427	148.48
831.604	97.28
831.782	117.76
831.959	60.42
832.136	109.57
832.313	132.09
832.49	119.81
832.667	166.91
832.844	58.37
833.021	91.13
833.198	142.33
833.374	150.53
833.551	87.04
833.728	105.47
833.905	101.37
834.082	105.47
834.259	103.42
834.436	146.43
834.612	89.09
834.789	107.52
834.966	52.22
835.143	84.99
835.319	68.61
835.496	50.18
835.673	107.52
835.85	113.66
836.026	146.43
836.203	150.53
836.38	123.9
836.556	109.57
836.733	103.42
836.909	152.57
837.086	148.48
837.262	111.61
837.439	68.61
837.616	115.71
837.792	-23.55
837.968	117.76
838.145	17.41
838.321	115.71
838.498	89.09
838.674	103.42
838.851	80.89
839.027	-5.12
839.203	9.22
839.38	70.65
839.556	101.37
839.732	150.53
839.909	-11.26
840.085	138.24
840.261	74.75
840.437	115.71
840.614	82.94
840.79	142.33
840.966	144.38
841.142	95.23
841.318	44.03
841.494	150.53
841.671	132.09
841.847	103.42
842.023	107.52
842.199	171.01
842.375	119.81
842.551	56.32
842.727	56.32
842.903	27.65
843.079	97.28
843.255	62.46
843.431	78.85
843.607	144.38
843.783	52.22
843.959	17.41
844.134	87.04
844.31	144.38
844.486	97.28
844.662	68.61
844.838	66.56
845.013	134.14
845.189	117.76
845.365	97.28
845.541	72.7
845.716	76.8
845.892	87.04
846.068	44.03
846.244	29.7
846.419	64.51
846.595	74.75
846.77	76.8
846.946	29.7
847.122	29.7
847.297	37.89
847.473	93.18
847.648	29.7
847.824	46.08
847.999	68.61
848.175	46.08
848.35	87.04
848.526	168.96
848.701	84.99
848.876	64.51
849.052	119.81
849.227	52.22
849.403	107.52
849.578	15.36
849.753	125.95
849.929	74.75
850.104	-19.46
850.279	99.33
850.454	62.46
850.63	41.98
850.805	66.56
850.98	25.6
851.155	70.65
851.33	-11.26
851.505	109.57
851.681	103.42
851.856	3.07
852.031	58.37
852.206	80.89
852.381	-17.41
852.556	44.03
852.731	138.24
852.906	9.22
853.081	41.98
853.256	117.76
853.431	130.05
853.606	64.51
853.781	50.18
853.956	-17.41
854.131	95.23
854.305	31.74
854.48	35.84
854.655	17.41
854.83	82.94
855.005	64.51
855.18	68.61
855.354	84.99
855.529	82.94
855.704	13.31
855.879	76.8
856.053	23.55
856.228	64.51
856.403	13.31
856.577	60.42
856.752	17.41
856.926	62.46
857.101	95.23
857.276	-1.02
857.45	1.02
857.625	56.32
857.799	76.8
857.974	68.61
858.148	9.22
858.323	105.47
858.497	-44.03
858.672	15.36
858.846	39.94
859.02	136.19
859.195	13.31
859.369	37.89
859.543	99.33
859.718	82.94
859.892	37.89
860.066	46.08
860.241	31.74
860.415	-19.46
860.589	25.6
860.763	-9.22
860.938	1.02
861.112	99.33
861.286	52.22
861.46	39.94
861.634	-3.07
861.808	111.61
861.982	76.8
862.157	29.7
862.331	-41.98
862.505	3.07
862.679	-3.07
862.853	23.55
863.027	-39.94
863.201	107.52
863.375	-60.42
863.549	33.79
863.722	29.7
863.896	70.65
864.07	117.76
864.244	66.56
864.418	29.7
864.592	27.65
864.766	41.98
864.939	-33.79
865.113	48.13
865.287	31.74
865.461	52.22
865.634	-11.26
865.808	-33.79
865.982	33.79
866.156	21.5
866.329	-23.55
866.503	-11.26
866.676	52.22
866.85	33.79
867.024	39.94
867.197	87.04
867.371	89.09
867.544	48.13
867.718	41.98
867.891	62.46
868.065	-29.7
868.238	-25.6
868.412	105.47
868.585	-33.79
868.759	-27.65
868.932	48.13
869.105	41.98
869.279	33.79
869.452	11.26
869.625	41.98
869.799	25.6
869.972	46.08
870.145	-3.07
870.319	21.5
870.492	-19.46
870.665	-11.26
870.838	15.36
871.011	62.46
871.185	37.89
871.358	11.26
871.531	78.85
871.704	-37.89
871.877	27.65
872.05	19.46
872.223	23.55
872.396	68.61
872.569	37.89
872.742	-80.89
872.915	-9.22
873.088	54.27
873.261	-11.26
873.434	-3.07
873.607	-7.17
873.78	35.84
873.953	46.08
874.126	46.08
874.299	-31.74
874.471	37.89
874.644	60.42
874.817	46.08
874.99	23.55
875.163	60.42
875.335	-9.22
875.508	31.74
875.681	-5.12
875.853	-19.46
876.026	13.31
876.199	44.03
876.371	62.46
876.544	5.12
876.717	41.98
876.889	19.46
877.062	89.09
877.234	-3.07
877.407	46.08
877.579	68.61
877.752	29.7
877.924	17.41
878.097	82.94
878.269	58.37
878.442	50.18
878.614	76.8
878.786	89.09
878.959	-13.31
879.131	78.85
879.303	-56.32
879.476	25.6
879.648	66.56
879.82	37.89
879.993	84.99
880.165	35.84
880.337	21.5
880.509	72.7
880.681	-54.27
880.854	-19.46
881.026	82.94
881.198	93.18
881.37	46.08
881.542	89.09
881.714	33.79
881.886	21.5
882.058	-25.6
882.23	17.41
882.402	-39.94
882.574	44.03
882.746	54.27
882.918	54.27
883.09	19.46
883.262	-41.98
883.434	84.99
883.606	19.46
883.778	11.26
883.95	123.9
884.122	13.31
884.293	33.79
884.465	-19.46
884.637	56.32
884.809	29.7
884.98	52.22
885.152	39.94
885.324	52.22
885.496	31.74
885.667	1.02
885.839	58.37
886.011	62.46
886.182	-9.22
886.354	50.18
886.525	-68.61
886.697	-29.7
886.869	37.89
887.04	-1.02
887.212	46.08
887.383	58.37
887.555	44.03
887.726	13.31
887.897	13.31
888.069	31.74
888.24	41.98
888.412	62.46
888.583	11.26
888.754	-31.74
888.926	-19.46
889.097	31.74
889.268	-62.46
889.44	9.22
889.611	-29.7
889.782	41.98
889.953	19.46
890.125	56.32
890.296	25.6
890.467	-27.65
890.638	-5.12
890.809	37.89
890.98	58.37
891.151	44.03
891.323	27.65
891.494	-5.12
891.665	-3.07
891.836	21.5
892.007	37.89
892.178	15.36
892.349	31.74
892.52	-31.74
892.691	-76.8
892.862	46.08
893.032	-74.75
893.203	62.46
893.374	76.8
893.545	52.22
893.716	-13.31
893.887	29.7
894.057	-11.26
894.228	-37.89
894.399	19.46
894.57	15.36
894.74	5.12
894.911	-66.56
895.082	-17.41
895.253	21.5
895.423	-17.41
895.594	95.23
895.764	46.08
895.935	-19.46
896.106	5.12
896.276	-3.07
896.447	66.56
896.617	41.98
896.788	-99.33
896.958	1.02
897.129	-44.03
897.299	-25.6
897.47	25.6
897.64	70.65
897.81	78.85
897.981	35.84
898.151	-11.26
898.322	21.5
898.492	21.5
898.662	13.31
898.832	23.55
899.003	-13.31
899.173	13.31
899.343	-50.18
899.513	-23.55
