Data from USB4F104151__217__10-30-08-312.txt Node

Date: Wed Mar 12 10:30:08 EDT 2025
User: louis
Spectrometer: USB4F10415
Trigger mode: 4
Integration Time (sec): 3.000000E-2
Scans to average: 1
Electric dark correction enabled: true
Nonlinearity correction enabled: false
Boxcar width: 0
XAxis mode: Wavelengths
Number of Pixels in Spectrum: 3648
>>>>>Begin Spectral Data<<<<<
178.204	-160.59
178.424	-160.59
178.644	-160.59
178.864	-93.01
179.084	-142.16
179.304	-21.33
179.524	23.72
179.744	-19.29
179.964	-21.33
180.184	7.34
180.404	-15.19
180.624	-19.29
180.844	52.39
181.064	-76.63
181.283	-4.95
181.503	50.35
181.723	44.2
181.943	-56.15
182.163	54.44
182.383	70.83
182.602	11.43
182.822	27.82
183.042	23.72
183.262	15.53
183.482	-47.96
183.701	19.63
183.921	-17.24
184.141	56.49
184.361	36.01
184.58	25.77
184.8	15.53
185.02	-19.29
185.239	58.54
185.459	3.24
185.679	60.59
185.898	-66.39
186.118	33.96
186.338	27.82
186.557	52.39
186.777	1.19
186.997	-29.52
187.216	60.59
187.436	72.87
187.655	54.44
187.875	113.83
188.095	56.49
188.314	17.58
188.534	-2.9
188.753	-4.95
188.973	-2.9
189.192	85.16
189.412	27.82
189.631	60.59
189.851	25.77
190.07	15.53
190.29	-41.81
190.509	-25.43
190.729	44.2
190.948	38.06
191.168	93.35
191.387	60.59
191.607	-56.15
191.826	60.59
192.045	7.34
192.265	17.58
192.484	3.24
192.704	68.78
192.923	-15.19
193.142	91.31
193.362	99.5
193.581	128.17
193.8	31.91
194.02	107.69
194.239	52.39
194.458	5.29
194.678	44.2
194.897	9.39
195.116	44.2
195.335	56.49
195.555	3.24
195.774	13.48
195.993	33.96
196.212	38.06
196.432	3.24
196.651	48.3
196.87	76.97
197.089	81.07
197.308	3.24
197.528	15.53
197.747	33.96
197.966	19.63
198.185	54.44
198.404	15.53
198.623	40.11
198.842	101.55
199.062	-23.38
199.281	99.5
199.5	9.39
199.719	95.4
199.938	130.22
200.157	81.07
200.376	-7
200.595	60.59
200.814	-7
201.033	-56.15
201.252	-25.43
201.471	101.55
201.69	68.78
201.909	38.06
202.128	54.44
202.347	31.91
202.566	-60.24
202.785	23.72
203.004	44.2
203.223	48.3
203.442	-103.25
203.661	-33.62
203.879	3.24
204.098	29.87
204.317	-21.33
204.536	38.06
204.755	-7
204.974	52.39
205.193	44.2
205.411	115.88
205.63	-17.24
205.849	-35.67
206.068	-4.95
206.287	-31.57
206.505	19.63
206.724	-17.24
206.943	85.16
207.162	36.01
207.381	40.11
207.599	29.87
207.818	-17.24
208.037	23.72
208.255	91.31
208.474	27.82
208.693	93.35
208.911	21.67
209.13	46.25
209.349	33.96
209.567	29.87
209.786	56.49
210.005	-21.33
210.223	62.63
210.442	-19.29
210.661	-9.05
210.879	-17.24
211.098	66.73
211.316	27.82
211.535	-23.38
211.753	-11.09
211.972	13.48
212.191	-25.43
212.409	119.98
212.628	66.73
212.846	15.53
213.065	9.39
213.283	70.83
213.502	60.59
213.72	-25.43
213.938	58.54
214.157	36.01
214.375	56.49
214.594	60.59
214.812	52.39
215.031	44.2
215.249	60.59
215.467	36.01
215.686	-23.38
215.904	-2.9
216.122	97.45
216.341	-0.85
216.559	-4.95
216.778	3.24
216.996	44.2
217.214	60.59
217.432	-4.95
217.651	48.3
217.869	-4.95
218.087	81.07
218.306	15.53
218.524	113.83
218.742	-23.38
218.96	101.55
219.179	-13.14
219.397	58.54
219.615	48.3
219.833	7.34
220.051	36.01
220.27	44.2
220.488	33.96
220.706	-4.95
220.924	58.54
221.142	17.58
221.36	-19.29
221.578	36.01
221.796	7.34
222.015	15.53
222.233	56.49
222.451	-4.95
222.669	-4.95
222.887	29.87
223.105	-13.14
223.323	76.97
223.541	11.43
223.759	3.24
223.977	79.02
224.195	50.35
224.413	58.54
224.631	81.07
224.849	74.92
225.067	87.21
225.285	-21.33
225.503	-7
225.721	33.96
225.939	40.11
226.157	-21.33
226.375	134.31
226.592	13.48
226.81	56.49
227.028	7.34
227.246	64.68
227.464	17.58
227.682	89.26
227.9	50.35
228.117	36.01
228.335	36.01
228.553	52.39
228.771	15.53
228.989	15.53
229.206	-45.91
229.424	54.44
229.642	-41.81
229.86	36.01
230.077	99.5
230.295	48.3
230.513	11.43
230.731	-25.43
230.948	101.55
231.166	52.39
231.384	76.97
231.601	11.43
231.819	83.11
232.037	-15.19
232.254	-9.05
232.472	40.11
232.689	76.97
232.907	58.54
233.125	76.97
233.342	11.43
233.56	13.48
233.777	29.87
233.995	25.77
234.213	19.63
234.43	50.35
234.648	50.35
234.865	-23.38
235.083	15.53
235.3	-72.53
235.518	15.53
235.735	66.73
235.953	11.43
236.17	54.44
236.388	48.3
236.605	68.78
236.822	97.45
237.04	29.87
237.257	52.39
237.475	74.92
237.692	27.82
237.909	64.68
238.127	11.43
238.344	25.77
238.562	1.19
238.779	-60.24
238.996	13.48
239.214	44.2
239.431	74.92
239.648	23.72
239.865	50.35
240.083	97.45
240.3	13.48
240.517	21.67
240.735	-39.76
240.952	-17.24
241.169	68.78
241.386	58.54
241.603	-0.85
241.821	31.91
242.038	138.41
242.255	27.82
242.472	31.91
242.689	27.82
242.907	48.3
243.124	27.82
243.341	60.59
243.558	-66.39
243.775	11.43
243.992	50.35
244.209	7.34
244.426	64.68
244.643	21.67
244.86	-39.76
245.078	62.63
245.295	29.87
245.512	46.25
245.729	5.29
245.946	31.91
246.163	46.25
246.38	11.43
246.597	31.91
246.814	-25.43
247.031	62.63
247.248	-43.86
247.464	76.97
247.681	-23.38
247.898	7.34
248.115	89.26
248.332	-0.85
248.549	56.49
248.766	23.72
248.983	87.21
249.2	-7
249.417	76.97
249.633	-29.52
249.85	48.3
250.067	25.77
250.284	19.63
250.501	11.43
250.717	56.49
250.934	-13.14
251.151	21.67
251.368	54.44
251.585	7.34
251.801	-0.85
252.018	42.15
252.235	21.67
252.451	13.48
252.668	11.43
252.885	44.2
253.102	46.25
253.318	13.48
253.535	-29.52
253.752	17.58
253.968	-82.77
254.185	5.29
254.401	3.24
254.618	52.39
254.835	-21.33
255.051	42.15
255.268	42.15
255.484	58.54
255.701	72.87
255.917	42.15
256.134	13.48
256.351	5.29
256.567	-19.29
256.784	74.92
257	27.82
257.217	36.01
257.433	66.73
257.65	91.31
257.866	79.02
258.082	11.43
258.299	7.34
258.515	93.35
258.732	29.87
258.948	-4.95
259.165	93.35
259.381	-37.72
259.597	76.97
259.814	38.06
260.03	17.58
260.246	-4.95
260.463	-0.85
260.679	19.63
260.895	-21.33
261.112	56.49
261.328	-33.62
261.544	36.01
261.761	85.16
261.977	15.53
262.193	56.49
262.409	-13.14
262.626	-0.85
262.842	60.59
263.058	9.39
263.274	46.25
263.49	115.88
263.707	1.19
263.923	36.01
264.139	-15.19
264.355	17.58
264.571	95.4
264.787	-4.95
265.004	-9.05
265.22	-21.33
265.436	3.24
265.652	36.01
265.868	1.19
266.084	38.06
266.3	19.63
266.516	21.67
266.732	58.54
266.948	64.68
267.164	48.3
267.38	68.78
267.596	85.16
267.812	52.39
268.028	87.21
268.244	19.63
268.46	-9.05
268.676	31.91
268.892	50.35
269.108	5.29
269.324	23.72
269.54	44.2
269.756	68.78
269.972	-33.62
270.188	40.11
270.403	-21.33
270.619	3.24
270.835	111.78
271.051	-19.29
271.267	1.19
271.483	44.2
271.698	5.29
271.914	44.2
272.13	48.3
272.346	52.39
272.562	27.82
272.777	21.67
272.993	99.5
273.209	-45.91
273.425	72.87
273.64	21.67
273.856	5.29
274.072	7.34
274.287	33.96
274.503	83.11
274.719	23.72
274.934	11.43
275.15	1.19
275.366	27.82
275.581	-21.33
275.797	72.87
276.012	48.3
276.228	29.87
276.444	85.16
276.659	11.43
276.875	-7
277.09	17.58
277.306	17.58
277.521	50.35
277.737	85.16
277.952	11.43
278.168	81.07
278.383	31.91
278.599	29.87
278.814	31.91
279.03	76.97
279.245	128.17
279.461	-43.86
279.676	38.06
279.892	3.24
280.107	15.53
280.322	-23.38
280.538	27.82
280.753	-7
280.969	-41.81
281.184	11.43
281.399	25.77
281.615	29.87
281.83	21.67
282.045	-21.33
282.26	31.91
282.476	60.59
282.691	19.63
282.906	23.72
283.122	19.63
283.337	42.15
283.552	36.01
283.767	29.87
283.983	62.63
284.198	40.11
284.413	70.83
284.628	-56.15
284.843	-27.48
285.058	21.67
285.274	50.35
285.489	-4.95
285.704	42.15
285.919	9.39
286.134	27.82
286.349	7.34
286.564	-21.33
286.779	117.93
286.995	33.96
287.21	64.68
287.425	44.2
287.64	44.2
287.855	29.87
288.07	-4.95
288.285	5.29
288.5	58.54
288.715	5.29
288.93	66.73
289.145	23.72
289.36	134.31
289.575	81.07
289.79	38.06
290.004	68.78
290.219	-11.09
290.434	19.63
290.649	19.63
290.864	72.87
291.079	25.77
291.294	17.58
291.509	48.3
291.724	-86.87
291.938	7.34
292.153	31.91
292.368	25.77
292.583	48.3
292.798	31.91
293.012	52.39
293.227	44.2
293.442	3.24
293.657	7.34
293.871	91.31
294.086	66.73
294.301	74.92
294.516	17.58
294.73	15.53
294.945	17.58
295.16	29.87
295.374	54.44
295.589	76.97
295.804	109.74
296.018	-27.48
296.233	25.77
296.447	27.82
296.662	1.19
296.877	85.16
297.091	99.5
297.306	19.63
297.52	7.34
297.735	19.63
297.949	27.82
298.164	87.21
298.378	13.48
298.593	21.67
298.807	60.59
299.022	17.58
299.236	74.92
299.451	9.39
299.665	29.87
299.88	36.01
300.094	19.63
300.309	58.54
300.523	13.48
300.737	64.68
300.952	11.43
301.166	54.44
301.381	50.35
301.595	-13.14
301.809	25.77
302.024	-43.86
302.238	7.34
302.452	25.77
302.667	-11.09
302.881	130.22
303.095	76.97
303.309	-21.33
303.524	17.58
303.738	50.35
303.952	9.39
304.166	31.91
304.381	-56.15
304.595	13.48
304.809	5.29
305.023	-0.85
305.237	27.82
305.452	58.54
305.666	-33.62
305.88	68.78
306.094	44.2
306.308	58.54
306.522	19.63
306.736	50.35
306.95	-7
307.164	60.59
307.379	15.53
307.593	132.26
307.807	13.48
308.021	27.82
308.235	107.69
308.449	23.72
308.663	31.91
308.877	156.84
309.091	48.3
309.305	89.26
309.519	3.24
309.733	44.2
309.947	-64.34
310.161	74.92
310.374	11.43
310.588	81.07
310.802	54.44
311.016	58.54
311.23	44.2
311.444	-21.33
311.658	54.44
311.872	50.35
312.085	3.24
312.299	66.73
312.513	117.93
312.727	33.96
312.941	-45.91
313.154	42.15
313.368	93.35
313.582	56.49
313.796	11.43
314.009	66.73
314.223	111.78
314.437	40.11
314.651	48.3
314.864	27.82
315.078	62.63
315.292	62.63
315.505	3.24
315.719	81.07
315.933	11.43
316.146	31.91
316.36	21.67
316.573	-15.19
316.787	91.31
317.001	83.11
317.214	-35.67
317.428	31.91
317.641	-29.52
317.855	85.16
318.068	58.54
318.282	-7
318.495	126.12
318.709	50.35
318.922	68.78
319.136	62.63
319.349	-17.24
319.563	93.35
319.776	85.16
319.99	40.11
320.203	52.39
320.417	46.25
320.63	40.11
320.843	76.97
321.057	19.63
321.27	-21.33
321.483	52.39
321.697	107.69
321.91	25.77
322.124	150.7
322.337	25.77
322.55	-25.43
322.763	23.72
322.977	11.43
323.19	-33.62
323.403	52.39
323.617	23.72
323.83	23.72
324.043	21.67
324.256	23.72
324.469	56.49
324.683	83.11
324.896	70.83
325.109	42.15
325.322	23.72
325.535	83.11
325.748	44.2
325.962	19.63
326.175	44.2
326.388	48.3
326.601	66.73
326.814	85.16
327.027	85.16
327.24	81.07
327.453	7.34
327.666	74.92
327.879	68.78
328.092	58.54
328.305	38.06
328.518	-19.29
328.731	33.96
328.944	-0.85
329.157	27.82
329.37	46.25
329.583	13.48
329.796	58.54
330.009	7.34
330.222	60.59
330.435	31.91
330.648	72.87
330.861	19.63
331.073	-15.19
331.286	46.25
331.499	13.48
331.712	7.34
331.925	15.53
332.138	27.82
332.35	68.78
332.563	42.15
332.776	-4.95
332.989	79.02
333.202	-41.81
333.414	27.82
333.627	3.24
333.84	-21.33
334.053	66.73
334.265	42.15
334.478	-27.48
334.691	27.82
334.903	56.49
335.116	-0.85
335.329	50.35
335.541	40.11
335.754	91.31
335.966	-31.57
336.179	-21.33
336.392	36.01
336.604	70.83
336.817	50.35
337.029	42.15
337.242	36.01
337.454	36.01
337.667	7.34
337.88	103.59
338.092	64.68
338.305	74.92
338.517	64.68
338.729	60.59
338.942	68.78
339.154	-13.14
339.367	-17.24
339.579	83.11
339.792	40.11
340.004	40.11
340.217	29.87
340.429	66.73
340.641	91.31
340.854	52.39
341.066	42.15
341.278	42.15
341.491	54.44
341.703	25.77
341.915	44.2
342.128	15.53
342.34	60.59
342.552	3.24
342.764	79.02
342.977	111.78
343.189	27.82
343.401	97.45
343.613	-39.76
343.826	72.87
344.038	56.49
344.25	52.39
344.462	-17.24
344.674	132.26
344.886	48.3
345.099	101.55
345.311	21.67
345.523	-4.95
345.735	-25.43
345.947	3.24
346.159	56.49
346.371	60.59
346.583	23.72
346.795	111.78
347.007	117.93
347.219	56.49
347.431	-2.9
347.643	85.16
347.855	13.48
348.067	91.31
348.279	-29.52
348.491	107.69
348.703	105.64
348.915	23.72
349.127	11.43
349.339	101.55
349.551	-35.67
349.763	23.72
349.975	42.15
350.187	19.63
350.399	29.87
350.61	46.25
350.822	36.01
351.034	64.68
351.246	-13.14
351.458	-2.9
351.669	36.01
351.881	158.89
352.093	54.44
352.305	79.02
352.517	5.29
352.728	142.5
352.94	-13.14
353.152	76.97
353.363	33.96
353.575	-4.95
353.787	79.02
353.999	76.97
354.21	40.11
354.422	31.91
354.633	21.67
354.845	95.4
355.057	38.06
355.268	7.34
355.48	7.34
355.692	-56.15
355.903	68.78
356.115	33.96
356.326	42.15
356.538	136.36
356.749	74.92
356.961	99.5
357.172	-4.95
357.384	119.98
357.595	19.63
357.807	52.39
358.018	17.58
358.23	9.39
358.441	119.98
358.653	95.4
358.864	-9.05
359.075	42.15
359.287	62.63
359.498	91.31
359.709	9.39
359.921	1.19
360.132	31.91
360.344	70.83
360.555	11.43
360.766	42.15
360.977	70.83
361.189	27.82
361.4	19.63
361.611	3.24
361.823	107.69
362.034	11.43
362.245	9.39
362.456	31.91
362.667	56.49
362.879	-41.81
363.09	44.2
363.301	60.59
363.512	107.69
363.723	-31.57
363.935	58.54
364.146	5.29
364.357	64.68
364.568	21.67
364.779	9.39
364.99	95.4
365.201	-15.19
365.412	42.15
365.623	5.29
365.834	56.49
366.045	19.63
366.256	99.5
366.467	46.25
366.678	21.67
366.889	33.96
367.1	1.19
367.311	70.83
367.522	-72.53
367.733	85.16
367.944	122.02
368.155	48.3
368.366	72.87
368.577	50.35
368.788	54.44
368.999	17.58
369.209	48.3
369.42	76.97
369.631	126.12
369.842	76.97
370.053	99.5
370.264	21.67
370.474	50.35
370.685	11.43
370.896	29.87
371.107	109.74
371.317	74.92
371.528	56.49
371.739	31.91
371.95	42.15
372.16	64.68
372.371	44.2
372.582	-25.43
372.792	62.63
373.003	66.73
373.214	36.01
373.424	48.3
373.635	-21.33
373.846	89.26
374.056	36.01
374.267	107.69
374.477	11.43
374.688	-4.95
374.898	85.16
375.109	50.35
375.319	99.5
375.53	38.06
375.74	93.35
375.951	1.19
376.161	25.77
376.372	103.59
376.582	38.06
376.793	62.63
377.003	31.91
377.214	76.97
377.424	68.78
377.635	1.19
377.845	17.58
378.055	48.3
378.266	-84.82
378.476	-4.95
378.686	97.45
378.897	89.26
379.107	11.43
379.317	-13.14
379.528	40.11
379.738	66.73
379.948	27.82
380.158	68.78
380.369	40.11
380.579	42.15
380.789	44.2
380.999	52.39
381.21	29.87
381.42	117.93
381.63	85.16
381.84	50.35
382.05	113.83
382.261	68.78
382.471	52.39
382.681	-33.62
382.891	107.69
383.101	74.92
383.311	17.58
383.521	-27.48
383.731	56.49
383.941	87.21
384.151	60.59
384.361	70.83
384.571	48.3
384.781	85.16
384.991	146.6
385.201	81.07
385.411	60.59
385.621	62.63
385.831	117.93
386.041	15.53
386.251	44.2
386.461	74.92
386.671	74.92
386.881	115.88
387.091	21.67
387.301	117.93
387.511	76.97
387.72	93.35
387.93	36.01
388.14	68.78
388.35	58.54
388.56	109.74
388.769	54.44
388.979	21.67
389.189	-58.2
389.399	113.83
389.609	140.46
389.818	169.13
390.028	44.2
390.238	79.02
390.447	3.24
390.657	113.83
390.867	56.49
391.076	44.2
391.286	62.63
391.496	115.88
391.705	60.59
391.915	117.93
392.125	103.59
392.334	64.68
392.544	91.31
392.753	148.65
392.963	42.15
393.172	91.31
393.382	89.26
393.591	144.55
393.801	117.93
394.01	158.89
394.22	19.63
394.429	167.08
394.639	142.5
394.848	60.59
395.058	68.78
395.267	64.68
395.477	122.02
395.686	134.31
395.895	115.88
396.105	83.11
396.314	58.54
396.524	115.88
396.733	85.16
396.942	111.78
397.152	64.68
397.361	119.98
397.57	85.16
397.78	60.59
397.989	99.5
398.198	91.31
398.407	95.4
398.617	132.26
398.826	56.49
399.035	21.67
399.244	138.41
399.453	36.01
399.663	70.83
399.872	91.31
400.081	130.22
400.29	60.59
400.499	154.79
400.708	122.02
400.917	138.41
401.127	171.18
401.336	48.3
401.545	224.42
401.754	177.32
401.963	148.65
402.172	142.5
402.381	60.59
402.59	187.56
402.799	199.85
403.008	101.55
403.217	165.03
403.426	119.98
403.635	105.64
403.844	60.59
404.053	130.22
404.262	162.98
404.471	244.9
404.68	109.74
404.888	134.31
405.097	195.75
405.306	167.08
405.515	197.8
405.724	130.22
405.933	208.04
406.142	152.74
406.35	232.62
406.559	140.46
406.768	203.94
406.977	257.19
407.185	283.81
407.394	269.48
407.603	187.56
407.812	230.57
408.02	367.78
408.229	216.23
408.438	265.38
408.646	375.97
408.855	365.73
409.064	261.29
409.272	244.9
409.481	369.83
409.69	314.53
409.898	203.94
410.107	343.21
410.315	427.17
410.524	263.33
410.733	375.97
410.941	398.5
411.15	330.92
411.358	380.07
411.567	461.99
411.775	435.36
411.984	425.12
412.192	431.27
412.401	380.07
412.609	507.04
412.818	586.91
413.026	539.81
413.234	425.12
413.443	476.32
413.651	629.92
413.86	609.44
414.068	607.39
414.276	597.15
414.485	677.02
414.693	644.26
414.901	746.66
415.11	799.9
415.318	820.38
415.526	707.74
415.734	871.58
415.943	806.05
416.151	867.49
416.359	806.05
416.567	890.01
416.776	980.12
416.984	988.32
417.192	1016.99
417.4	1057.95
417.608	1074.33
417.817	1191.06
418.025	1213.59
418.233	1260.7
418.441	1160.34
418.649	1225.88
418.857	1402.01
419.065	1320.09
419.273	1291.41
419.481	1500.31
419.689	1633.43
419.897	1580.18
420.105	1696.91
420.313	1705.1
420.521	1588.37
420.729	1639.57
420.937	1862.8
421.145	1895.57
421.353	1909.9
421.561	2100.36
421.769	1977.48
421.977	2217.1
422.185	2067.6
422.393	2219.14
422.601	2509.96
422.809	2487.43
423.017	2309.26
423.224	2530.44
423.432	2624.64
423.64	2643.07
423.848	2858.11
424.056	2813.06
424.263	2980.99
424.471	3024
424.679	3159.16
424.887	3243.13
425.094	3398.77
425.302	3343.48
425.51	3576.95
425.718	3533.94
425.925	3560.56
426.133	3849.33
426.341	4105.32
426.548	4033.65
426.756	4101.23
426.964	4197.48
427.171	4461.67
427.379	4656.23
427.586	4602.98
427.794	4834.4
428.001	4985.95
428.209	5321.82
428.417	5184.6
428.624	5510.23
428.832	5676.12
429.039	5469.27
429.247	5491.8
429.454	6028.37
429.662	6347.85
429.869	6042.7
430.076	6399.05
430.284	6081.61
430.491	6556.74
430.699	6820.93
430.906	6743.11
431.114	7074.88
431.321	7248.96
431.528	7484.47
431.736	7703.61
431.943	8137.77
432.15	7932.98
432.358	8035.38
432.565	8580.14
432.772	8401.96
432.979	8887.33
433.187	8944.67
433.394	9102.37
433.601	9595.93
433.808	9647.13
434.016	9665.56
434.223	9974.8
434.43	10720.26
434.637	10447.88
434.844	10970.12
435.052	11353.09
435.259	11172.86
435.466	11414.52
435.673	11150.34
435.88	11881.46
436.087	12919.78
436.294	12393.45
436.501	12321.77
436.708	12518.38
436.915	12839.91
437.122	13439.97
437.329	13499.36
437.537	13800.41
437.743	14195.67
437.95	14042.07
438.157	14627.79
438.364	15211.46
438.571	15109.06
438.778	15147.97
438.985	16894.89
439.192	16077.75
439.399	16522.16
439.606	16171.96
439.813	16993.19
440.02	18314.13
440.227	17666.97
440.433	17697.69
440.64	18391.95
440.847	18193.3
441.054	18287.51
441.261	19848.06
441.467	19614.59
441.674	19745.66
441.881	20190.07
442.088	20587.38
442.294	20329.33
442.501	21029.74
442.708	21048.17
442.914	22219.61
443.121	23391.05
443.328	22467.41
443.534	24101.69
443.741	23276.36
443.948	23116.62
444.154	24738.61
444.361	24445.75
444.568	24728.37
444.774	24490.8
444.981	25103.15
445.187	25701.15
445.394	26557.21
445.6	26301.21
445.807	28900.08
446.013	27886.34
446.22	28062.46
446.426	29506.28
446.633	29741.8
446.839	30522.07
447.046	29160.17
447.252	31224.53
447.459	30696.15
447.665	30835.41
447.871	31822.53
448.078	33600.17
448.284	31662.79
448.491	32682.68
448.697	33882.79
448.903	34550.43
449.11	34228.9
449.316	33925.8
449.522	34597.53
449.728	35410.57
449.935	35631.75
450.141	35216.02
450.347	36651.64
450.553	35320.46
450.76	35420.81
450.966	36467.33
451.172	36141.7
451.378	37003.89
451.584	36481.66
451.791	37157.49
451.997	37053.05
452.203	38048.36
452.409	37374.58
452.615	37679.72
452.821	36311.68
453.027	36022.92
453.233	37671.53
453.44	36237.95
453.646	36539.01
453.852	36340.35
454.058	37063.29
454.264	36100.74
454.47	36686.46
454.676	35508.88
454.882	36860.54
455.088	33383.09
455.294	34378.4
455.5	34472.6
455.705	35211.92
455.911	33684.14
456.117	33329.84
456.323	32252.61
456.529	30690.01
456.735	31730.37
456.941	31304.4
457.147	30700.25
457.352	29985.51
457.558	29586.15
457.764	29737.7
457.97	28984.05
458.176	28404.47
458.381	28355.32
458.587	27003.66
458.793	26768.15
458.999	25543.46
459.204	27278.09
459.41	26749.71
459.616	24945.45
459.821	24828.72
460.027	24554.29
460.233	24466.23
460.438	23180.1
460.644	23155.53
460.85	22434.64
461.055	21781.34
461.261	21787.49
461.466	20245.37
461.672	19819.39
461.878	21298.02
462.083	19772.28
462.289	19307.4
462.494	19086.22
462.7	18389.91
462.905	17990.55
463.111	18467.73
463.316	18553.74
463.522	18279.32
463.727	18181.01
463.932	18119.57
464.138	17738.65
464.343	17814.43
464.549	17521.57
464.754	18166.68
464.959	17984.41
465.165	17695.64
465.37	16892.84
465.575	16589.74
465.781	16966.57
465.986	17378.21
466.191	16585.65
466.397	16343.99
466.602	15526.85
466.807	16292.79
467.012	15985.59
467.218	16184.24
467.423	15784.89
467.628	16100.28
467.833	16430
468.038	16004.02
468.244	15467.45
468.449	15954.87
468.654	15528.89
468.859	15576
469.064	15463.36
469.269	14701.51
469.474	15260.61
469.679	15209.41
469.885	14724.04
470.09	14875.59
470.295	14928.84
470.5	14891.98
470.705	14820.3
470.91	14072.79
471.115	14234.58
471.32	14572.49
471.525	14371.79
471.73	13978.58
471.935	13999.06
472.139	13538.27
472.344	13532.12
472.549	13538.27
472.754	13241.31
472.959	13069.28
473.164	12735.46
473.369	12696.55
473.574	13100
473.778	13026.28
473.983	12887.01
474.188	12620.78
474.393	12317.68
474.598	12123.12
474.802	12076.02
475.007	12102.64
475.212	12041.2
475.417	11631.61
475.621	11475.96
475.826	11647.99
476.031	11498.49
476.235	11260.93
476.44	11523.07
476.645	11117.57
476.849	11181.06
477.054	11152.38
477.259	10816.52
477.463	10857.48
477.668	10732.55
477.872	10566.67
478.077	10568.71
478.282	10361.87
478.486	10544.14
478.691	10103.82
478.895	10288.14
479.1	10165.26
479.304	10251.28
479.509	9808.92
479.713	9917.46
479.918	9761.81
480.122	9600.02
480.326	9860.12
480.531	9919.51
480.735	9913.36
480.94	9753.62
481.144	9935.89
481.348	9628.7
481.553	9686.04
481.757	9440.28
481.961	9489.43
482.166	9696.28
482.37	9571.35
482.574	9356.32
482.778	9303.07
482.983	9815.06
483.187	9499.67
483.391	9593.88
483.595	9497.63
483.8	9284.64
484.004	9528.35
484.208	9755.67
484.412	9471
484.616	9301.02
484.821	9421.85
485.025	9235.49
485.229	9333.79
485.433	9188.38
485.637	9446.43
485.841	9354.27
486.045	9280.54
486.249	9409.56
486.453	9251.87
486.657	9532.44
486.861	9481.24
487.065	9247.77
487.269	9409.56
487.473	9151.52
487.677	9346.08
487.881	9649.18
488.085	9370.65
488.289	9360.41
488.493	9182.24
488.697	9669.66
488.901	9462.81
489.105	9567.26
489.309	9704.47
489.512	9372.7
489.716	9649.18
489.92	9597.98
490.124	9368.6
490.328	9765.91
490.531	9593.88
490.735	9677.85
490.939	9743.38
491.143	9628.7
491.346	9569.3
491.55	9921.56
491.754	9731.09
491.958	9972.75
492.161	9757.72
492.365	10023.95
492.569	9911.32
492.772	9956.37
492.976	10120.21
493.18	10175.5
493.383	10204.17
493.587	10310.67
493.79	10251.28
493.994	10294.29
494.197	10501.13
494.401	10415.12
494.605	10486.79
494.808	10517.51
495.012	10724.36
495.215	10884.1
495.419	10912.77
495.622	10972.16
495.825	10830.85
496.029	10972.16
496.232	11334.65
496.436	11144.19
496.639	11287.55
496.843	11310.08
497.046	11559.93
497.249	11641.85
497.453	11742.2
497.656	11822.07
497.859	12018.68
498.063	12096.5
498.266	12243.95
498.469	12186.61
498.673	12362.73
498.876	12626.92
499.079	12817.38
499.282	12684.27
499.485	13022.18
499.689	13220.83
499.892	13356
500.095	13298.66
500.298	13575.13
500.501	13429.73
500.705	13833.18
500.908	14218.19
501.111	14207.95
501.314	14353.36
501.517	14263.25
501.72	14801.86
501.923	14670.79
502.126	15076.29
502.329	15102.92
502.532	15420.35
502.735	15532.99
502.938	15676.35
503.141	15877.05
503.344	16090.04
503.547	15975.35
503.75	16448.43
503.953	16776.11
504.156	16735.15
504.359	16974.76
504.562	17081.25
504.765	17271.72
504.968	17324.96
505.17	17589.15
505.373	17626.01
505.576	17769.37
505.779	18121.62
505.982	18342.8
506.185	18645.9
506.387	18621.33
506.59	18828.17
506.793	19026.82
506.996	19200.9
507.198	19878.78
507.401	19688.32
507.604	20069.24
507.807	20360.05
508.009	20345.72
508.212	20556.66
508.415	21179.24
508.617	20990.83
508.82	21418.85
509.022	21068.65
509.225	21625.7
509.428	21779.29
509.63	21990.24
509.833	21949.28
510.035	22838.09
510.238	22510.42
510.44	23092.04
510.643	23200.58
510.845	23264.07
511.048	23212.87
511.25	23753.54
511.453	23755.58
511.655	24668.98
511.858	24331.06
512.06	24593.2
512.262	24642.35
512.465	25090.86
512.667	25463.59
512.87	25975.58
513.072	25592.61
513.274	26530.58
513.477	26352.41
513.679	27101.97
513.881	26825.49
514.084	26956.56
514.286	27329.29
514.488	27409.16
514.69	28453.62
514.893	28365.56
515.095	28375.8
515.297	28912.37
515.499	28891.89
515.701	29287.15
515.904	29831.91
516.106	30036.7
516.308	30096.1
516.51	30536.41
516.712	30829.27
516.914	30896.85
517.116	31584.97
517.318	31441.61
517.52	31740.61
517.722	31789.77
517.925	32176.83
518.127	32811.7
518.329	32987.83
518.531	33026.74
518.733	33503.92
518.935	33950.37
519.136	33890.98
519.338	34562.72
519.54	34265.76
519.742	34751.13
519.944	34900.63
520.146	35263.12
520.348	35906.18
520.55	35744.39
520.752	36108.93
520.954	36776.57
521.155	36471.42
521.357	36903.54
521.559	37245.55
521.761	37952.1
521.963	37757.55
522.164	37980.78
522.366	38183.52
522.568	38638.17
522.77	38795.87
522.971	39463.5
523.173	39117.4
523.375	39457.36
523.576	39252.56
523.778	39961.16
523.98	40571.46
524.181	40565.31
524.383	41071.16
524.584	41134.65
524.786	41030.2
524.988	40956.47
525.189	41650.74
525.391	41790
525.592	41974.31
525.794	42553.89
525.995	42412.58
526.197	42467.87
526.398	42844.7
526.6	43311.64
526.801	43057.69
527.003	43102.74
527.204	43254.29
527.406	44134.92
527.607	43811.34
527.808	44085.77
528.01	43661.84
528.211	44036.62
528.412	45038.08
528.614	44950.01
528.815	44556.8
529.016	45240.82
529.218	44753.41
529.419	45347.32
529.62	45038.08
529.822	45095.42
530.023	45232.63
530.224	45758.96
530.425	45552.12
530.626	45267.45
530.828	45294.07
531.029	46248.42
531.23	45738.48
531.431	45715.95
531.632	46012.91
531.833	46447.08
532.035	46035.44
532.236	46572
532.437	46504.42
532.638	46168.55
532.839	46133.74
533.04	46715.36
533.241	46268.9
533.442	47149.53
533.643	46832.1
533.844	46694.88
534.045	46707.17
534.246	46348.78
534.447	47051.23
534.648	46891.49
534.849	46952.93
535.05	46879.2
535.251	46844.38
535.451	46717.41
535.652	47636.95
535.853	47276.51
536.054	47210.97
536.255	47391.19
536.456	46936.54
536.657	47632.85
536.857	46932.45
537.058	46825.95
537.259	47004.13
537.46	47010.27
537.66	47047.13
537.861	47010.27
538.062	46936.54
538.263	47063.52
538.463	46930.4
538.664	47049.18
538.865	46907.87
539.065	47548.89
539.266	47112.67
539.466	47690.19
539.667	46916.06
539.868	47495.64
540.068	47000.03
540.269	47014.37
540.469	47473.11
540.67	47020.51
540.87	47196.63
541.071	46805.47
541.271	47383
541.472	47100.38
541.672	47333.85
541.873	46791.14
542.073	46334.44
542.274	47092.19
542.474	47131.1
542.675	46580.2
542.875	47202.78
543.075	47280.6
543.276	46498.28
543.476	47362.52
543.676	46717.41
543.877	47215.07
544.077	47016.41
544.277	46971.36
544.478	47022.56
544.678	46952.93
544.878	46977.5
545.078	46838.24
545.279	46281.19
545.479	46477.8
545.679	46907.87
545.879	46911.97
546.079	46668.26
546.28	47034.84
546.48	46453.22
546.68	47006.17
546.88	46664.16
547.08	46832.1
547.28	46485.99
547.48	46461.41
547.68	46729.7
547.88	46535.14
548.081	47151.58
548.281	46873.06
548.481	46750.18
548.681	46858.72
548.881	47026.65
549.081	46696.93
549.28	46156.27
549.48	46807.52
549.68	45941.23
549.88	47530.45
550.08	46176.75
550.28	46539.24
550.48	46660.07
550.68	46715.36
550.88	46416.36
551.08	46514.66
551.279	46496.23
551.479	46150.12
551.679	46600.68
551.879	46297.58
552.079	46277.1
552.278	46469.61
552.478	46260.71
552.678	46248.42
552.878	46852.58
553.077	46002.67
553.277	46078.44
553.477	46637.54
553.676	46037.48
553.876	46092.78
554.076	45791.73
554.275	46426.6
554.475	45607.41
554.674	46309.86
554.874	46252.52
555.074	45836.78
555.273	46092.78
555.473	45867.5
555.672	45470.2
555.872	45496.82
556.071	45642.23
556.271	46103.02
556.47	45611.51
556.67	45261.3
556.869	45441.53
557.068	45529.59
557.268	45103.61
557.467	45646.32
557.667	45699.57
557.866	45179.39
558.065	45044.22
558.265	44814.85
558.464	44941.82
558.663	45539.83
558.863	44853.76
559.062	45584.88
559.261	44659.2
559.461	45332.98
559.66	44276.23
559.859	44601.86
560.058	44546.56
560.258	44896.77
560.457	43776.53
560.656	44753.41
560.855	44042.76
561.054	44421.64
561.253	43639.31
561.453	44567.04
561.652	44235.27
561.851	44028.43
562.05	43584.02
562.249	43352.6
562.448	44077.58
562.647	43979.28
562.846	43446.8
563.045	43561.49
563.244	43213.34
563.443	43594.26
563.642	42693.15
563.841	43137.56
564.04	42705.44
564.239	43569.68
564.438	42596.9
564.637	42652.19
564.836	42988.06
565.035	42230.31
565.234	42850.84
565.432	42318.37
565.631	41974.31
565.83	42431.01
566.029	42060.33
566.228	41916.97
566.427	41824.81
566.625	41794.09
566.824	40983.1
567.023	41685.55
567.222	41054.78
567.42	41447.99
567.619	41415.22
567.818	41075.26
568.016	41075.26
568.215	41398.83
568.414	40788.54
568.612	41312.82
568.811	40727.1
569.01	40858.17
569.208	40077.9
569.407	40489.54
569.605	40018.5
569.804	40677.95
570.002	39850.57
570.201	40053.32
570.4	39494.22
570.598	39567.95
570.797	39799.37
570.995	39817.8
571.193	38847.07
571.392	39926.35
571.59	39082.58
571.789	39346.77
571.987	38775.39
572.186	38900.31
572.384	38589.02
572.582	38654.56
572.781	38775.39
572.979	38048.36
573.177	38746.72
573.376	38154.85
573.574	38060.65
573.772	38103.65
573.971	37722.73
574.169	37835.37
574.367	37767.79
574.565	38115.94
574.763	37614.19
574.962	37448.3
575.16	37306.99
575.358	37614.19
575.556	36895.35
575.754	37341.81
575.952	36829.82
576.151	36999.8
576.349	36649.6
576.547	36389.5
576.745	36688.51
576.943	36643.45
577.141	36344.45
577.339	36653.69
577.537	36059.78
577.735	36156.03
577.933	35873.42
578.131	36358.78
578.329	35527.31
578.527	35287.7
578.725	35527.31
578.923	35541.64
579.121	35500.68
579.319	35250.83
579.516	35445.39
579.714	35259.02
579.912	35314.32
580.11	35197.59
580.308	34994.84
580.506	34869.91
580.704	34116.26
580.901	34701.98
581.099	34640.54
581.297	34001.57
581.495	33815.21
581.692	34171.55
581.89	34032.29
582.088	34128.55
582.285	33866.41
582.483	34192.03
582.681	33821.35
582.878	33747.62
583.076	33372.85
583.274	33606.31
583.471	32959.16
583.669	33278.64
583.866	33239.73
584.064	33643.18
584.262	32674.49
584.459	32821.94
584.657	32703.16
584.854	32973.49
585.052	32330.43
585.249	32617.14
585.447	32588.47
585.644	32256.7
585.841	32320.19
586.039	32486.07
586.236	31652.55
586.434	31990.47
586.631	31564.49
586.828	32023.23
587.026	31781.57
587.223	31642.31
587.42	31580.87
587.618	31527.63
587.815	31046.35
588.012	31122.13
588.21	31163.09
588.407	31214.29
588.604	30874.32
588.801	30903
588.999	30851.8
589.196	30743.25
589.393	30552.79
589.59	30573.27
589.787	30511.83
589.984	30315.23
590.182	30155.49
590.379	30270.17
590.576	29874.91
590.773	29922.02
590.97	29782.76
591.167	30051.04
591.364	29545.19
591.561	29887.2
591.758	29377.26
591.955	29233.9
592.152	29666.02
592.349	29426.41
592.546	29289.2
592.743	29149.93
592.94	28971.76
593.137	29080.3
593.334	28955.38
593.531	28584.69
593.727	28793.59
593.924	28605.17
594.121	28431.1
594.318	28625.65
594.515	28226.3
594.712	28443.38
594.908	27884.29
595.105	28123.9
595.302	27554.57
595.499	27810.56
595.696	27814.66
595.892	27538.18
596.089	27845.38
596.286	27761.41
596.482	27648.77
596.679	27671.3
596.876	27527.94
597.072	27089.68
597.269	27177.74
597.466	27093.77
597.662	27020.05
597.859	26993.42
598.055	27118.35
598.252	26723.09
598.448	26753.81
598.645	26751.76
598.841	25981.73
599.038	26540.82
599.234	26495.77
599.431	26221.34
599.627	25817.89
599.824	26372.89
600.02	25975.58
600.217	26084.12
600.413	26227.48
600.609	25930.53
600.806	25633.57
601.002	25975.58
601.198	25408.29
601.395	25271.08
601.591	25492.26
601.787	25365.29
601.984	25240.36
602.18	25389.86
602.376	25193.26
602.572	25121.58
602.769	25142.06
602.965	24623.92
603.161	24810.29
603.357	24681.27
603.553	24707.89
603.75	24748.85
603.946	24023.87
604.142	24615.73
604.338	24040.25
604.534	24185.66
604.73	24347.45
604.926	24189.75
605.122	24068.92
605.318	23989.05
605.514	24093.5
605.71	23661.38
605.906	24075.07
606.102	23847.74
606.298	23993.15
606.494	23868.22
606.69	23628.61
606.886	23669.57
607.082	23286.6
607.278	23571.27
607.474	22702.93
607.67	23647.04
607.866	23167.82
608.062	23227.21
608.257	23069.51
608.453	23130.95
608.649	23262.02
608.845	22670.16
609.041	22922.06
609.236	23030.6
609.432	22764.37
609.628	22657.87
609.824	22606.67
610.019	22743.89
610.215	22428.5
610.411	22528.85
610.606	22516.56
610.802	22623.06
610.998	22248.28
611.193	22469.46
611.389	22082.39
611.584	22084.44
611.78	21906.27
611.976	22145.88
612.171	21918.56
612.367	22111.07
612.562	21977.95
612.758	21756.77
612.953	21789.53
613.149	21828.45
613.344	21672.8
613.539	21902.17
613.735	21947.23
613.93	21848.93
614.126	21320.55
614.321	21945.18
614.517	21574.5
614.712	21508.96
614.907	21142.38
615.103	21642.08
615.298	20976.49
615.493	21240.68
615.688	20882.28
615.884	21547.87
616.079	21193.58
616.274	21156.71
616.47	21144.42
616.665	21087.08
616.86	20677.49
617.055	20894.57
617.25	20716.4
617.445	21091.18
617.641	20874.09
617.836	20657.01
618.031	20495.22
618.226	20611.95
618.421	20591.47
618.616	20532.08
618.811	20446.07
619.006	20368.24
619.201	19927.93
619.396	20153.21
619.591	19829.63
619.786	19794.81
619.981	19735.42
620.176	19999.61
620.371	19522.43
620.566	19532.67
620.761	19477.38
620.956	19303.3
621.151	19518.34
621.346	19385.22
621.541	19178.37
621.735	19116.93
621.93	18899.85
622.125	18938.76
622.32	18602.89
622.515	18768.78
622.709	18885.51
622.904	18674.57
623.099	18469.78
623.294	18281.36
623.488	18336.66
623.683	18371.47
623.878	17990.55
624.072	18207.64
624.267	18051.99
624.462	17839
624.656	17587.1
624.851	17728.41
625.046	17726.36
625.24	17669.02
625.435	17382.31
625.629	17429.41
625.824	17226.66
626.018	17327.01
626.213	16939.94
626.407	16927.66
626.602	16714.67
626.796	16726.96
626.991	16567.21
627.185	16503.73
627.38	16477.1
627.574	16544.69
627.768	16477.1
627.963	16300.98
628.157	16094.13
628.352	16290.74
628.546	15766.46
628.74	16061.37
628.935	15956.92
629.129	15924.15
629.323	15856.57
629.517	15500.22
629.712	15541.18
629.906	15670.2
630.1	15176.64
630.294	15381.44
630.489	15061.96
630.683	15119.3
630.877	15043.53
631.071	15053.76
631.265	14816.2
631.459	14719.95
631.653	14656.46
631.848	14478.29
632.042	14486.48
632.236	14631.88
632.43	14326.74
632.624	14455.76
632.818	14273.49
633.012	14158.8
633.206	14078.93
633.4	14148.56
633.594	14046.16
633.788	13837.27
633.982	13845.46
634.176	13876.18
634.369	13822.94
634.563	13609.95
634.757	13718.49
634.951	13532.12
635.145	13634.52
635.339	13536.22
635.533	13312.99
635.726	13474.78
635.92	13034.47
636.114	13233.12
636.308	12987.36
636.501	13132.77
636.695	12985.32
636.889	12956.64
637.083	12674.03
637.276	12426.22
637.47	12688.36
637.664	12450.8
637.857	12491.76
638.051	12375.02
638.244	12317.68
638.438	12342.25
638.632	12231.66
638.825	12182.51
639.019	12139.51
639.212	11975.67
639.406	11869.17
639.599	11963.38
639.793	11856.89
639.986	11639.8
640.18	11539.45
640.373	11566.07
640.567	11521.02
640.76	11418.62
640.954	11217.92
641.147	11478.01
641.34	11332.61
641.534	11461.63
641.727	11209.73
641.92	11136
642.114	10992.64
642.307	11074.56
642.5	10988.55
642.694	10902.53
642.887	10837
643.08	10920.96
643.273	10531.85
643.467	10693.64
643.66	10566.67
643.853	10458.12
644.046	10357.77
644.239	10574.86
644.432	10245.13
644.626	10241.04
644.819	10193.94
645.012	10294.29
645.205	10210.32
645.398	10187.79
645.591	10048.53
645.784	10054.67
645.977	9911.32
646.17	9952.27
646.363	9868.31
646.556	9749.53
646.749	9557.02
646.942	9829.4
647.135	9825.3
647.328	9649.18
647.521	9464.86
647.714	9565.21
647.907	9427.99
648.099	9430.04
648.292	9401.37
648.485	9370.65
648.678	9333.79
648.871	9174.05
649.064	9018.4
649.256	8922.15
649.449	9100.32
649.642	9002.02
649.835	8989.73
650.027	9049.12
650.22	8879.14
650.413	8899.62
650.605	8676.39
650.798	8668.2
650.991	8578.09
651.183	8739.88
651.376	8551.46
651.568	8391.72
651.761	8471.59
651.954	8469.55
652.146	8430.63
652.339	8250.41
652.531	8389.67
652.724	8227.89
652.916	7990.32
653.109	8100.91
653.301	8031.28
653.494	8055.86
653.686	7930.93
653.879	8086.58
654.071	8016.94
654.263	7889.97
654.456	7840.82
654.648	8006.7
654.84	7834.68
655.033	7777.33
655.225	7752.76
655.417	7732.28
655.61	7801.91
655.802	7724.08
655.994	7668.79
656.186	7619.64
656.379	7486.52
656.571	7408.7
656.763	7363.64
656.955	7267.39
657.148	7490.62
657.34	7529.53
657.532	7044.16
657.724	7212.09
657.916	7291.96
658.108	7208
658.3	6962.24
658.492	7101.5
658.684	7093.31
658.876	7007.3
659.068	7003.2
659.26	6943.81
659.452	6999.1
659.644	6937.66
659.836	6958.14
660.028	7072.83
660.22	6702.15
660.412	6802.5
660.604	6818.88
660.796	6841.41
660.988	6546.5
661.18	6622.28
661.372	6515.78
661.563	6534.21
661.755	6644.81
661.947	6581.32
662.139	6417.48
662.331	6566.98
662.522	6446.15
662.714	6411.34
662.906	6337.61
663.097	6413.38
663.289	6296.65
663.481	6263.88
663.673	6112.33
663.864	6179.92
664.056	6065.23
664.247	6112.33
664.439	6138.96
664.631	6014.03
664.822	6175.82
665.014	5975.12
665.205	5921.87
665.397	5893.2
665.588	5905.49
665.78	5905.49
665.971	5899.34
666.163	5950.54
666.354	5745.75
666.546	5751.89
666.737	5688.4
666.929	5749.84
667.12	5694.55
667.311	5573.72
667.503	5706.84
667.694	5567.57
667.885	5704.79
668.077	5543
668.268	5477.46
668.459	5577.81
668.651	5454.94
668.842	5598.29
669.033	5422.17
669.224	5506.13
669.416	5528.66
669.607	5428.31
669.798	5383.26
669.989	5452.89
670.18	5454.94
670.371	5454.94
670.563	5305.43
670.754	5336.15
670.945	5139.55
671.136	5198.94
671.327	5229.66
671.518	5266.52
671.709	5289.05
671.9	5295.19
672.091	5219.42
672.282	5221.47
672.473	5043.29
672.664	5162.08
672.855	5168.22
673.046	5231.71
673.237	5192.8
673.428	5037.15
673.619	5028.96
673.809	4846.69
674	5047.39
674.191	5133.4
674.382	5084.25
674.573	5198.94
674.764	5035.1
674.954	5043.29
675.145	5020.77
675.336	5065.82
675.527	4830.3
675.717	4914.27
675.908	5016.67
676.099	4901.98
676.289	4904.03
676.48	5074.01
676.671	4893.79
676.861	4787.3
677.052	4863.07
677.243	4775.01
677.433	4740.19
677.624	4934.75
677.814	4738.15
678.005	4981.85
678.195	4877.41
678.386	4766.82
678.576	4734.05
678.767	4713.57
678.957	4844.64
679.148	4811.87
679.338	4744.29
679.529	4697.19
679.719	4955.23
679.909	5002.33
680.1	4725.86
680.29	4734.05
680.481	4619.36
680.671	4738.15
680.861	4779.11
681.052	4803.68
681.242	4553.83
681.432	4834.4
681.622	4676.71
681.813	4869.22
682.003	4625.51
682.193	4656.23
682.383	4803.68
682.573	4699.23
682.764	4682.85
682.954	4611.17
683.144	4564.07
683.334	4654.18
683.524	4650.08
683.714	4639.84
683.904	4605.03
684.094	4641.89
684.284	4584.55
684.474	4684.9
684.664	4625.51
684.854	4674.66
685.044	4666.47
685.234	4332.65
685.424	4467.81
685.614	4426.86
685.804	4572.26
685.994	4639.84
686.184	4531.3
686.374	4402.28
686.564	4414.57
686.753	4406.38
686.943	4406.38
687.133	4533.35
687.323	4494.44
687.513	4424.81
687.702	4338.79
687.892	4441.19
688.082	4183.15
688.272	4308.07
688.461	4213.87
688.651	4281.45
688.841	4250.73
689.03	4160.62
689.22	4201.58
689.41	4222.06
689.599	4250.73
689.789	4142.19
689.979	3986.54
690.168	4056.17
690.358	4074.6
690.547	4129.9
690.737	4177
690.926	4047.98
691.116	4115.56
691.305	4074.6
691.495	4047.98
691.684	3988.59
691.874	3984.49
692.063	3914.86
692.252	3947.63
692.442	3912.81
692.631	3884.14
692.82	3988.59
693.01	4015.21
693.199	3992.69
693.388	3859.57
693.578	3857.52
693.767	3916.91
693.956	3900.53
694.146	3867.76
694.335	3859.57
694.524	3740.79
694.713	3867.76
694.902	3857.52
695.092	3763.31
695.281	3791.98
695.47	3783.79
695.659	3818.61
695.848	3728.5
696.037	3736.69
696.226	3841.14
696.415	3822.7
696.604	3746.93
696.793	3628.15
696.982	3675.25
697.171	3757.17
697.36	3730.55
697.549	3693.68
697.738	3538.04
697.927	3601.52
698.116	3587.19
698.305	3650.67
698.494	3556.47
698.683	3634.29
698.872	3542.13
699.061	3603.57
699.25	3619.96
699.438	3609.72
699.627	3562.61
699.816	3687.54
700.005	3689.59
700.193	3611.76
700.382	3677.3
700.571	3548.28
700.76	3552.37
700.948	3542.13
701.137	3523.7
701.326	3503.22
701.514	3611.76
701.703	3562.61
701.892	3603.57
702.08	3615.86
702.269	3550.32
702.457	3531.89
702.646	3609.72
702.834	3523.7
703.023	3535.99
703.212	3548.28
703.4	3742.83
703.589	3486.84
703.777	3632.24
703.965	3574.9
704.154	3599.48
704.342	3574.9
704.531	3497.08
704.719	3462.26
704.907	3650.67
705.096	3597.43
705.284	3476.6
705.472	3538.04
705.661	3556.47
705.849	3712.11
706.037	3472.5
706.226	3492.98
706.414	3480.69
706.602	3488.89
706.79	3417.21
706.979	3511.41
707.167	3484.79
707.355	3527.8
707.543	3490.93
707.731	3572.85
707.919	3488.89
708.107	3359.86
708.296	3550.32
708.484	3437.69
708.672	3535.99
708.86	3538.04
709.048	3611.76
709.236	3509.37
709.424	3495.03
709.612	3531.89
709.8	3617.91
709.988	3521.65
710.176	3560.56
710.364	3554.42
710.551	3533.94
710.739	3560.56
710.927	3583.09
711.115	3433.59
711.303	3587.19
711.491	3531.89
711.679	3562.61
711.866	3599.48
712.054	3472.5
712.242	3607.67
712.43	3574.9
712.617	3542.13
712.805	3492.98
712.993	3566.71
713.181	3527.8
713.368	3540.08
713.556	3636.34
713.744	3509.37
713.931	3523.7
714.119	3525.75
714.306	3511.41
714.494	3509.37
714.682	3615.86
714.869	3603.57
715.057	3685.49
715.244	3368.06
715.432	3650.67
715.619	3492.98
715.807	3531.89
715.994	3574.9
716.182	3521.65
716.369	3579
716.556	3607.67
716.744	3492.98
716.931	3558.52
717.119	3515.51
717.306	3617.91
717.493	3632.24
717.681	3443.83
717.868	3413.11
718.055	3554.42
718.242	3570.8
718.43	3523.7
718.617	3542.13
718.804	3490.93
718.991	3558.52
719.179	3619.96
719.366	3593.33
719.553	3490.93
719.74	3535.99
719.927	3533.94
720.114	3515.51
720.301	3499.13
720.488	3558.52
720.676	3484.79
720.863	3558.52
721.05	3685.49
721.237	3574.9
721.424	3443.83
721.611	3474.55
721.798	3470.45
721.985	3558.52
722.172	3458.17
722.358	3554.42
722.545	3398.77
722.732	3531.89
722.919	3472.5
723.106	3544.18
723.293	3533.94
723.48	3452.02
723.667	3497.08
723.853	3386.49
724.04	3456.12
724.227	3474.55
724.414	3517.56
724.6	3415.16
724.787	3347.58
724.974	3589.24
725.161	3449.97
725.347	3419.25
725.534	3476.6
725.72	3421.3
725.907	3527.8
726.094	3421.3
726.28	3474.55
726.467	3345.53
726.653	3363.96
726.84	3357.82
727.027	3583.09
727.213	3447.93
727.4	3345.53
727.586	3394.68
727.773	3441.78
727.959	3359.86
728.145	3368.06
728.332	3484.79
728.518	3294.33
728.705	3378.3
728.891	3527.8
729.077	3433.59
729.264	3306.62
729.45	3400.82
729.636	3292.28
729.823	3468.41
730.009	3306.62
730.195	3380.34
730.382	3419.25
730.568	3533.94
730.754	3398.77
730.94	3394.68
731.126	3323
731.313	3503.22
731.499	3366.01
731.685	3316.86
731.871	3337.34
732.057	3466.36
732.243	3279.99
732.429	3406.97
732.615	3478.65
732.801	3335.29
732.987	3314.81
733.173	3316.86
733.359	3388.53
733.545	3335.29
733.731	3292.28
733.917	3386.49
734.103	3308.66
734.289	3230.84
734.475	3265.66
734.661	3447.93
734.847	3290.23
735.033	3341.43
735.219	3419.25
735.404	3333.24
735.59	3206.27
735.776	3333.24
735.962	3394.68
736.148	3300.47
736.333	3243.13
736.519	3253.37
736.705	3357.82
736.89	3132.54
737.076	3265.66
737.262	3138.68
737.447	3273.85
737.633	3269.75
737.819	3222.65
738.004	3157.11
738.19	3189.88
738.375	3306.62
738.561	3257.46
738.747	3185.79
738.932	3138.68
739.118	3189.88
739.303	3171.45
739.489	3116.16
739.674	3046.52
739.859	3097.72
740.045	3009.66
740.23	3024
740.416	2993.28
740.601	3013.76
740.786	3114.11
740.972	3001.47
741.157	3042.43
741.342	2983.04
741.528	3019.9
741.713	3038.33
741.898	2886.78
742.084	3048.57
742.269	2927.74
742.454	2983.04
742.639	2903.17
742.824	2907.26
743.01	3017.85
743.195	2964.61
743.38	2768
743.565	2974.85
743.75	2968.7
743.935	2831.49
744.12	2966.65
744.305	2800.77
744.49	2819.2
744.675	2765.95
744.86	2755.71
745.045	2759.81
745.23	2839.68
745.415	2835.58
745.6	2774.14
745.785	2788.48
745.97	2827.39
746.155	2718.85
746.34	2702.47
746.525	2712.71
746.71	2557.06
746.895	2747.52
747.079	2647.17
747.264	2571.4
747.449	2614.4
747.634	2518.15
747.819	2628.74
748.003	2514.05
748.188	2600.07
748.373	2514.05
748.557	2542.72
748.742	2499.72
748.927	2600.07
749.111	2520.2
749.296	2434.18
749.481	2395.27
749.665	2401.41
749.85	2430.09
750.034	2346.12
750.219	2288.78
750.404	2309.26
750.588	2317.45
750.773	2278.54
750.957	2202.76
751.141	2286.73
751.326	2256.01
751.51	2237.58
751.695	2153.61
751.879	2206.86
752.064	2196.62
752.248	2272.39
752.432	2165.9
752.617	2323.59
752.801	2143.37
752.985	2112.65
753.17	2122.89
753.354	2126.99
753.538	2030.73
753.722	2075.79
753.907	1971.34
754.091	1987.72
754.275	1946.76
754.459	1944.72
754.643	1985.68
754.828	1971.34
755.012	2008.2
755.196	1875.09
755.38	1895.57
755.564	1899.66
755.748	1909.9
755.932	1918.09
756.116	1836.17
756.3	1858.7
756.484	1911.95
756.668	1811.6
756.852	1735.82
757.036	1760.4
757.22	1842.32
757.404	1819.79
757.588	1655.95
757.772	1811.6
757.956	1735.82
758.14	1766.54
758.323	1621.14
758.507	1633.43
758.691	1674.39
758.875	1590.42
759.059	1709.2
759.242	1674.39
759.426	1703.06
759.61	1571.99
759.794	1633.43
759.977	1553.55
760.161	1660.05
760.345	1555.6
760.528	1604.75
760.712	1563.79
760.895	1549.46
761.079	1473.68
761.263	1533.08
761.446	1559.7
761.63	1483.92
761.813	1551.51
761.997	1469.59
762.18	1383.57
762.364	1518.74
762.547	1406.1
762.731	1526.93
762.914	1469.59
763.098	1451.16
763.281	1420.44
763.464	1580.18
763.648	1453.2
763.831	1408.15
764.015	1397.91
764.198	1328.28
764.381	1412.25
764.564	1408.15
764.748	1285.27
764.931	1402.01
765.114	1379.48
765.297	1445.01
765.481	1289.37
765.664	1350.81
765.847	1361.05
766.03	1281.18
766.213	1346.71
766.397	1301.65
766.58	1297.56
766.763	1356.95
766.946	1309.85
767.129	1256.6
767.312	1373.33
767.495	1240.22
767.678	1332.37
767.861	1209.5
768.044	1238.17
768.227	1328.28
768.41	1281.18
768.593	1293.46
768.776	1215.64
768.959	1166.49
769.142	1277.08
769.324	1234.07
769.507	1285.27
769.69	1178.78
769.873	1127.58
770.056	1272.98
770.239	1260.7
770.421	1100.95
770.604	1211.54
770.787	1207.45
770.97	1113.24
771.152	1121.43
771.335	1148.06
771.518	1047.71
771.7	1164.44
771.883	1193.11
772.066	1113.24
772.248	1129.63
772.431	1115.29
772.613	1121.43
772.796	1084.57
772.978	1121.43
773.161	1172.63
773.343	1031.32
773.526	992.41
773.708	1035.42
773.891	1051.8
774.073	998.56
774.256	918.68
774.438	1014.94
774.621	1010.84
774.803	1123.48
774.985	943.26
775.168	1014.94
775.35	953.5
775.532	988.32
775.715	937.12
775.897	939.16
776.079	1014.94
776.261	885.92
776.444	935.07
776.626	953.5
776.808	844.96
776.99	898.2
777.173	928.92
777.355	904.35
777.537	900.25
777.719	912.54
777.901	789.66
778.083	855.2
778.265	832.67
778.447	789.66
778.629	767.13
778.811	820.38
778.993	912.54
779.175	904.35
779.357	756.9
779.539	896.16
779.721	730.27
779.903	869.53
780.085	799.9
780.267	691.36
780.449	756.9
780.631	797.85
780.812	822.43
780.994	685.22
781.176	674.98
781.358	720.03
781.54	752.8
781.721	724.13
781.903	779.42
782.085	748.7
782.267	697.5
782.448	672.93
782.63	588.96
782.812	777.37
782.993	720.03
783.175	691.36
783.357	773.28
783.538	701.6
783.72	670.88
783.901	660.64
784.083	681.12
784.264	658.59
784.446	527.52
784.627	617.63
784.809	576.67
784.99	674.98
785.172	670.88
785.353	623.78
785.535	554.15
785.716	560.29
785.897	527.52
786.079	502.95
786.26	588.96
786.441	674.98
786.623	552.1
786.804	525.47
786.985	611.49
787.167	588.96
787.348	607.39
787.529	576.67
787.71	541.86
787.891	586.91
788.073	486.56
788.254	535.71
788.435	568.48
788.616	599.2
788.797	504.99
788.978	480.42
789.159	535.71
789.34	482.47
789.522	478.37
789.703	545.95
789.884	570.53
790.065	470.18
790.246	576.67
790.427	500.9
790.607	500.9
790.788	468.13
790.969	435.36
791.15	468.13
791.331	421.03
791.512	445.6
791.693	412.84
791.874	388.26
792.054	429.22
792.235	437.41
792.416	425.12
792.597	386.21
792.778	406.69
792.958	394.4
793.139	423.08
793.32	384.16
793.5	509.09
793.681	472.23
793.862	394.4
794.042	414.88
794.223	363.69
794.404	328.87
794.584	382.12
794.765	410.79
794.945	482.47
795.126	408.74
795.306	408.74
795.487	466.08
795.667	416.93
795.848	326.82
796.028	380.07
796.209	416.93
796.389	410.79
796.57	371.88
796.75	306.34
796.93	412.84
797.111	404.64
797.291	380.07
797.471	326.82
797.652	351.4
797.832	357.54
798.012	408.74
798.192	318.63
798.373	230.57
798.553	402.6
798.733	308.39
798.913	353.45
799.093	343.21
799.274	324.77
799.454	392.36
799.634	375.97
799.814	410.79
799.994	232.62
800.174	304.29
800.354	349.35
800.534	244.9
800.714	347.3
800.894	425.12
801.074	296.1
801.254	298.15
801.434	304.29
801.614	320.68
801.794	277.67
801.974	763.04
802.154	343.21
802.334	326.82
802.514	271.53
802.693	320.68
802.873	363.69
803.053	330.92
803.233	320.68
803.413	328.87
803.592	316.58
803.772	265.38
803.952	300.2
804.131	224.42
804.311	425.12
804.491	257.19
804.67	230.57
804.85	304.29
805.03	263.33
805.209	292.01
805.389	310.44
805.568	367.78
805.748	269.48
805.928	218.28
806.107	257.19
806.287	246.95
806.466	287.91
806.646	212.14
806.825	285.86
807.004	294.05
807.184	322.73
807.363	306.34
807.543	296.1
807.722	216.23
807.901	298.15
808.081	271.53
808.26	208.04
808.439	242.85
808.619	222.38
808.798	220.33
808.977	158.89
809.156	312.49
809.336	298.15
809.515	263.33
809.694	191.66
809.873	224.42
810.052	220.33
810.231	277.67
810.411	201.9
810.59	320.68
810.769	205.99
810.948	222.38
811.127	148.65
811.306	246.95
811.485	197.8
811.664	257.19
811.843	199.85
812.022	197.8
812.201	156.84
812.38	146.6
812.559	173.22
812.737	203.94
812.916	224.42
813.095	246.95
813.274	195.75
813.453	199.85
813.632	228.52
813.811	210.09
813.989	189.61
814.168	187.56
814.347	167.08
814.526	222.38
814.704	195.75
814.883	261.29
815.062	175.27
815.24	183.46
815.419	185.51
815.598	126.12
815.776	150.7
815.955	136.36
816.133	208.04
816.312	253.09
816.49	165.03
816.669	158.89
816.847	191.66
817.026	158.89
817.204	115.88
817.383	154.79
817.561	199.85
817.74	158.89
817.918	191.66
818.097	193.7
818.275	203.94
818.453	197.8
818.632	160.94
818.81	228.52
818.988	175.27
819.167	130.22
819.345	253.09
819.523	187.56
819.701	171.18
819.879	167.08
820.058	175.27
820.236	142.5
820.414	177.32
820.592	144.55
820.77	167.08
820.948	130.22
821.127	128.17
821.305	238.76
821.483	140.46
821.661	128.17
821.839	124.07
822.017	97.45
822.195	154.79
822.373	130.22
822.551	146.6
822.729	175.27
822.907	140.46
823.085	212.14
823.262	162.98
823.44	171.18
823.618	160.94
823.796	228.52
823.974	105.64
824.152	119.98
824.329	70.83
824.507	173.22
824.685	199.85
824.863	107.69
825.04	156.84
825.218	132.26
825.396	162.98
825.574	179.37
825.751	187.56
825.929	154.79
826.107	183.46
826.284	74.92
826.462	162.98
826.639	107.69
826.817	85.16
826.994	173.22
827.172	85.16
827.349	175.27
827.527	138.41
827.704	115.88
827.882	156.84
828.059	167.08
828.237	136.36
828.414	97.45
828.591	103.59
828.769	189.61
828.946	107.69
829.124	126.12
829.301	140.46
829.478	99.5
829.655	150.7
829.833	144.55
830.01	89.26
830.187	154.79
830.364	132.26
830.542	130.22
830.719	136.36
830.896	109.74
831.073	189.61
831.25	130.22
831.427	46.25
831.604	109.74
831.782	109.74
831.959	122.02
832.136	117.93
832.313	140.46
832.49	165.03
832.667	97.45
832.844	134.31
833.021	124.07
833.198	179.37
833.374	152.74
833.551	97.45
833.728	97.45
833.905	124.07
834.082	48.3
834.259	146.6
834.436	140.46
834.612	93.35
834.789	97.45
834.966	115.88
835.143	85.16
835.319	85.16
835.496	95.4
835.673	109.74
835.85	158.89
836.026	101.55
836.203	83.11
836.38	68.78
836.556	50.35
836.733	60.59
836.909	128.17
837.086	9.39
837.262	144.55
837.439	115.88
837.616	70.83
837.792	58.54
837.968	122.02
838.145	115.88
838.321	60.59
838.498	107.69
838.674	122.02
838.851	74.92
839.027	-21.33
839.203	119.98
839.38	25.77
839.556	79.02
839.732	21.67
839.909	117.93
840.085	99.5
840.261	9.39
840.437	85.16
840.614	72.87
840.79	70.83
840.966	93.35
841.142	85.16
841.318	44.2
841.494	99.5
841.671	113.83
841.847	122.02
842.023	64.68
842.199	52.39
842.375	99.5
842.551	42.15
842.727	50.35
842.903	130.22
843.079	19.63
843.255	72.87
843.431	66.73
843.607	152.74
843.783	85.16
843.959	105.64
844.134	-29.52
844.31	146.6
844.486	70.83
844.662	76.97
844.838	40.11
845.013	50.35
845.189	87.21
845.365	126.12
845.541	23.72
845.716	50.35
845.892	44.2
846.068	56.49
846.244	42.15
846.419	23.72
846.595	-19.29
846.77	5.29
846.946	156.84
847.122	58.54
847.297	-31.57
847.473	50.35
847.648	9.39
847.824	27.82
847.999	-33.62
848.175	97.45
848.35	56.49
848.526	81.07
848.701	95.4
848.876	107.69
849.052	9.39
849.227	38.06
849.403	1.19
849.578	-13.14
849.753	105.64
849.929	93.35
850.104	25.77
850.279	21.67
850.454	29.87
850.63	95.4
850.805	-13.14
850.98	33.96
851.155	7.34
851.33	58.54
851.505	19.63
851.681	93.35
851.856	-4.95
852.031	76.97
852.206	23.72
852.381	31.91
852.556	-4.95
852.731	87.21
852.906	58.54
853.081	1.19
853.256	93.35
853.431	23.72
853.606	7.34
853.781	113.83
853.956	58.54
854.131	19.63
854.305	23.72
854.48	19.63
854.655	-7
854.83	7.34
855.005	-33.62
855.18	117.93
855.354	27.82
855.529	56.49
855.704	-4.95
855.879	23.72
856.053	42.15
856.228	87.21
856.403	44.2
856.577	52.39
856.752	50.35
856.926	1.19
857.101	-17.24
857.276	-19.29
857.45	31.91
857.625	21.67
857.799	5.29
857.974	101.55
858.148	-33.62
858.323	19.63
858.497	3.24
858.672	31.91
858.846	23.72
859.02	76.97
859.195	-56.15
859.369	7.34
859.543	60.59
859.718	48.3
859.892	60.59
860.066	109.74
860.241	66.73
860.415	-4.95
860.589	105.64
860.763	60.59
860.938	50.35
861.112	76.97
861.286	48.3
861.46	36.01
861.634	-21.33
861.808	66.73
861.982	3.24
862.157	-2.9
862.331	-66.39
862.505	40.11
862.679	23.72
862.853	9.39
863.027	-0.85
863.201	105.64
863.375	-50
863.549	25.77
863.722	-2.9
863.896	38.06
864.07	-33.62
864.244	56.49
864.418	52.39
864.592	99.5
864.766	19.63
864.939	29.87
865.113	-23.38
865.287	15.53
865.461	-31.57
865.634	42.15
865.808	99.5
865.982	-54.1
866.156	11.43
866.329	-31.57
866.503	9.39
866.676	40.11
866.85	15.53
867.024	40.11
867.197	21.67
867.371	60.59
867.544	48.3
867.718	-33.62
867.891	-70.48
868.065	42.15
868.238	44.2
868.412	81.07
868.585	9.39
868.759	-54.1
868.932	50.35
869.105	-25.43
869.279	76.97
869.452	23.72
869.625	25.77
869.799	-29.52
869.972	17.58
870.145	79.02
870.319	25.77
870.492	-19.29
870.665	-37.72
870.838	21.67
871.011	-25.43
871.185	33.96
871.358	9.39
871.531	64.68
871.704	33.96
871.877	27.82
872.05	48.3
872.223	15.53
872.396	-7
872.569	5.29
872.742	29.87
872.915	-13.14
873.088	-27.48
873.261	-9.05
873.434	13.48
873.607	23.72
873.78	44.2
873.953	31.91
874.126	1.19
874.299	48.3
874.471	25.77
874.644	7.34
874.817	1.19
874.99	46.25
875.163	44.2
875.335	-13.14
875.508	7.34
875.681	15.53
875.853	40.11
876.026	15.53
876.199	25.77
876.371	27.82
876.544	23.72
876.717	70.83
876.889	52.39
877.062	44.2
877.234	7.34
877.407	-9.05
877.579	48.3
877.752	-25.43
877.924	52.39
878.097	40.11
878.269	38.06
878.442	-21.33
878.614	-21.33
878.786	52.39
878.959	21.67
879.131	36.01
879.303	25.77
879.476	-33.62
879.648	-9.05
879.82	64.68
879.993	-9.05
880.165	7.34
880.337	-23.38
880.509	50.35
880.681	1.19
880.854	40.11
881.026	-15.19
881.198	9.39
881.37	13.48
881.542	9.39
881.714	-27.48
881.886	-2.9
882.058	62.63
882.23	-15.19
882.402	25.77
882.574	13.48
882.746	3.24
882.918	56.49
883.09	52.39
883.262	-4.95
883.434	13.48
883.606	-39.76
883.778	19.63
883.95	74.92
884.122	-47.96
884.293	21.67
884.465	19.63
884.637	62.63
884.809	-78.68
884.98	17.58
885.152	-35.67
885.324	42.15
885.496	9.39
885.667	17.58
885.839	19.63
886.011	36.01
886.182	-0.85
886.354	-7
886.525	-47.96
886.697	1.19
886.869	-23.38
887.04	40.11
887.212	44.2
887.383	54.44
887.555	19.63
887.726	56.49
887.897	64.68
888.069	19.63
888.24	1.19
888.412	17.58
888.583	-50
888.754	-25.43
888.926	-152.4
889.097	-21.33
889.268	-4.95
889.44	-41.81
889.611	-84.82
889.782	-56.15
889.953	-17.24
890.125	-60.24
890.296	9.39
890.467	-23.38
890.638	-23.38
890.809	-21.33
890.98	-4.95
891.151	-13.14
891.323	44.2
891.494	-15.19
891.665	-29.52
891.836	-0.85
892.007	-37.72
892.178	19.63
892.349	-29.52
892.52	31.91
892.691	1.19
892.862	-41.81
893.032	-21.33
893.203	19.63
893.374	-62.29
893.545	52.39
893.716	-2.9
893.887	42.15
894.057	-29.52
894.228	-21.33
894.399	52.39
894.57	-60.24
894.74	3.24
894.911	-23.38
895.082	40.11
895.253	-31.57
895.423	7.34
895.594	25.77
895.764	44.2
895.935	9.39
896.106	9.39
896.276	-9.05
896.447	9.39
896.617	7.34
896.788	3.24
896.958	38.06
897.129	-19.29
897.299	11.43
897.47	27.82
897.64	-11.09
897.81	-9.05
897.981	-9.05
898.151	5.29
898.322	-4.95
898.492	-25.43
898.662	-58.2
898.832	1.19
899.003	93.35
899.173	-35.67
899.343	-23.38
899.513	-47.96
