Data from USB4F104151__56__10-23-52-153.txt Node

Date: Wed Mar 12 10:23:52 EDT 2025
User: louis
Spectrometer: USB4F10415
Trigger mode: 4
Integration Time (sec): 3.000000E-2
Scans to average: 1
Electric dark correction enabled: true
Nonlinearity correction enabled: false
Boxcar width: 0
XAxis mode: Wavelengths
Number of Pixels in Spectrum: 3648
>>>>>Begin Spectral Data<<<<<
178.204	-148.14
178.424	-148.14
178.644	-148.14
178.864	-139.94
179.084	-109.23
179.304	-25.26
179.524	-23.21
179.744	1.37
179.964	-6.83
180.184	-6.83
180.404	56.66
180.624	-2.73
180.844	21.85
181.064	19.8
181.283	-53.93
181.503	-17.07
181.723	36.18
181.943	30.04
182.163	3.41
182.383	-35.5
182.602	66.9
182.822	99.67
183.042	-29.35
183.262	-58.03
183.482	-2.73
183.701	21.85
183.921	75.09
184.141	7.51
184.361	-15.02
184.58	34.13
184.8	81.24
185.02	9.56
185.239	58.71
185.459	54.61
185.679	15.7
185.898	13.65
186.118	48.47
186.338	52.56
186.557	-12.97
186.777	-31.4
186.997	7.51
187.216	54.61
187.436	66.9
187.655	25.94
187.875	-31.4
188.095	-39.59
188.314	3.41
188.534	34.13
188.753	15.7
188.973	9.56
189.192	71
189.412	-4.78
189.631	21.85
189.851	1.37
190.07	58.71
190.29	13.65
190.509	7.51
190.729	-19.11
190.948	75.09
191.168	165.2
191.387	60.76
191.607	-0.68
191.826	32.08
192.045	-31.4
192.265	13.65
192.484	15.7
192.704	3.41
192.923	-2.73
193.142	93.52
193.362	9.56
193.581	56.66
193.8	32.08
194.02	-17.07
194.239	32.08
194.458	42.32
194.678	-25.26
194.897	-0.68
195.116	1.37
195.335	38.23
195.555	36.18
195.774	34.13
195.993	25.94
196.212	34.13
196.432	-8.87
196.651	9.56
196.87	-4.78
197.089	34.13
197.308	17.75
197.528	85.33
197.747	23.89
197.966	11.61
198.185	-8.87
198.404	62.8
198.623	64.85
198.842	-15.02
199.062	21.85
199.281	1.37
199.5	42.32
199.719	15.7
199.938	13.65
200.157	64.85
200.376	-39.59
200.595	-2.73
200.814	66.9
201.033	42.32
201.252	13.65
201.471	42.32
201.69	38.23
201.909	75.09
202.128	54.61
202.347	105.81
202.566	5.46
202.785	-6.83
203.004	-8.87
203.223	73.04
203.442	34.13
203.661	-23.21
203.879	19.8
204.098	-10.92
204.317	1.37
204.536	66.9
204.755	30.04
204.974	50.52
205.193	-21.16
205.411	77.14
205.63	25.94
205.849	-45.74
206.068	54.61
206.287	-29.35
206.505	42.32
206.724	23.89
206.943	91.48
207.162	-23.21
207.381	-27.31
207.599	32.08
207.818	48.47
208.037	3.41
208.255	1.37
208.474	66.9
208.693	-4.78
208.911	-10.92
209.13	40.28
209.349	71
209.567	36.18
209.786	32.08
210.005	1.37
210.223	-10.92
210.442	5.46
210.661	13.65
210.879	42.32
211.098	50.52
211.316	-12.97
211.535	60.76
211.753	44.37
211.972	50.52
212.191	19.8
212.409	60.76
212.628	9.56
212.846	21.85
213.065	-33.45
213.283	13.65
213.502	-15.02
213.72	44.37
213.938	73.04
214.157	3.41
214.375	114
214.594	-10.92
214.812	25.94
215.031	1.37
215.249	50.52
215.467	46.42
215.686	23.89
215.904	85.33
216.122	13.65
216.341	77.14
216.559	25.94
216.778	66.9
216.996	64.85
217.214	42.32
217.432	-0.68
217.651	75.09
217.869	44.37
218.087	23.89
218.306	-10.92
218.524	62.8
218.742	5.46
218.96	-2.73
219.179	-4.78
219.397	42.32
219.615	68.95
219.833	23.89
220.051	87.38
220.27	13.65
220.488	50.52
220.706	9.56
220.924	5.46
221.142	-0.68
221.36	17.75
221.578	-23.21
221.796	32.08
222.015	93.52
222.233	-10.92
222.451	85.33
222.669	99.67
222.887	30.04
223.105	-17.07
223.323	30.04
223.541	-10.92
223.759	116.05
223.977	1.37
224.195	36.18
224.413	91.48
224.631	91.48
224.849	-8.87
225.067	103.76
225.285	32.08
225.503	46.42
225.721	19.8
225.939	64.85
226.157	-6.83
226.375	165.2
226.592	25.94
226.81	66.9
227.028	15.7
227.246	9.56
227.464	9.56
227.682	7.51
227.9	21.85
228.117	52.56
228.335	19.8
228.553	27.99
228.771	58.71
228.989	21.85
229.206	66.9
229.424	5.46
229.642	-2.73
229.86	-27.31
230.077	19.8
230.295	-8.87
230.513	46.42
230.731	1.37
230.948	23.89
231.166	44.37
231.384	56.66
231.601	17.75
231.819	83.28
232.037	-19.11
232.254	11.61
232.472	13.65
232.689	1.37
232.907	66.9
233.125	-41.64
233.342	50.52
233.56	50.52
233.777	-0.68
233.995	9.56
234.213	52.56
234.43	50.52
234.648	7.51
234.865	46.42
235.083	46.42
235.3	56.66
235.518	73.04
235.735	13.65
235.953	-17.07
236.17	25.94
236.388	11.61
236.605	60.76
236.822	152.91
237.04	34.13
237.257	-37.55
237.475	-74.41
237.692	9.56
237.909	-23.21
238.127	58.71
238.344	91.48
238.562	79.19
238.779	13.65
238.996	-35.5
239.214	48.47
239.431	83.28
239.648	-19.11
239.865	66.9
240.083	107.86
240.3	75.09
240.517	5.46
240.735	-47.79
240.952	50.52
241.169	32.08
241.386	25.94
241.603	-29.35
241.821	-19.11
242.038	103.76
242.255	58.71
242.472	97.62
242.689	114
242.907	77.14
243.124	30.04
243.341	19.8
243.558	-47.79
243.775	-6.83
243.992	11.61
244.209	58.71
244.426	101.72
244.643	34.13
244.86	-31.4
245.078	-2.73
245.295	-27.31
245.512	25.94
245.729	15.7
245.946	50.52
246.163	27.99
246.38	64.85
246.597	66.9
246.814	-19.11
247.031	40.28
247.248	38.23
247.464	50.52
247.681	7.51
247.898	1.37
248.115	66.9
248.332	58.71
248.549	50.52
248.766	50.52
248.983	71
249.2	42.32
249.417	34.13
249.633	-10.92
249.85	34.13
250.067	40.28
250.284	73.04
250.501	48.47
250.717	34.13
250.934	3.41
251.151	-0.68
251.368	-17.07
251.585	7.51
251.801	-25.26
252.018	17.75
252.235	87.38
252.451	-47.79
252.668	-49.83
252.885	50.52
253.102	60.76
253.318	116.05
253.535	1.37
253.752	-19.11
253.968	40.28
254.185	46.42
254.401	-15.02
254.618	-8.87
254.835	-10.92
255.051	105.81
255.268	42.32
255.484	-31.4
255.701	85.33
255.917	42.32
256.134	-51.88
256.351	40.28
256.567	54.61
256.784	40.28
257	-47.79
257.217	38.23
257.433	52.56
257.65	9.56
257.866	17.75
258.082	-6.83
258.299	-33.45
258.515	71
258.732	-15.02
258.948	71
259.165	-27.31
259.381	-33.45
259.597	68.95
259.814	71
260.03	-12.97
260.246	62.8
260.463	75.09
260.679	85.33
260.895	83.28
261.112	48.47
261.328	56.66
261.544	30.04
261.761	-15.02
261.977	107.86
262.193	11.61
262.409	13.65
262.626	-10.92
262.842	-17.07
263.058	42.32
263.274	83.28
263.49	46.42
263.707	75.09
263.923	34.13
264.139	-25.26
264.355	5.46
264.571	95.57
264.787	-51.88
265.004	19.8
265.22	-41.64
265.436	-15.02
265.652	15.7
265.868	-37.55
266.084	-60.07
266.3	13.65
266.516	62.8
266.732	-2.73
266.948	44.37
267.164	-0.68
267.38	34.13
267.596	159.06
267.812	13.65
268.028	64.85
268.244	-10.92
268.46	25.94
268.676	25.94
268.892	42.32
269.108	17.75
269.324	25.94
269.54	-6.83
269.756	64.85
269.972	-4.78
270.188	-55.98
270.403	38.23
270.619	36.18
270.835	68.95
271.051	21.85
271.267	-17.07
271.483	-6.83
271.698	27.99
271.914	21.85
272.13	-12.97
272.346	38.23
272.562	-0.68
272.777	50.52
272.993	11.61
273.209	46.42
273.425	46.42
273.64	71
273.856	75.09
274.072	34.13
274.287	9.56
274.503	77.14
274.719	-15.02
274.934	89.43
275.15	32.08
275.366	19.8
275.581	-4.78
275.797	62.8
276.012	124.24
276.228	91.48
276.444	-90.79
276.659	32.08
276.875	9.56
277.09	23.89
277.306	44.37
277.521	66.9
277.737	1.37
277.952	25.94
278.168	-23.21
278.383	132.44
278.599	40.28
278.814	-2.73
279.03	9.56
279.245	25.94
279.461	30.04
279.676	56.66
279.892	9.56
280.107	9.56
280.322	-45.74
280.538	21.85
280.753	-35.5
280.969	50.52
281.184	25.94
281.399	21.85
281.615	19.8
281.83	34.13
282.045	52.56
282.26	71
282.476	73.04
282.691	1.37
282.906	13.65
283.122	17.75
283.337	1.37
283.552	19.8
283.767	7.51
283.983	17.75
284.198	97.62
284.413	-10.92
284.628	11.61
284.843	40.28
285.058	17.75
285.274	75.09
285.489	-23.21
285.704	15.7
285.919	5.46
286.134	36.18
286.349	17.75
286.564	13.65
286.779	32.08
286.995	42.32
287.21	-31.4
287.425	52.56
287.64	89.43
287.855	97.62
288.07	-2.73
288.285	42.32
288.5	38.23
288.715	81.24
288.93	-27.31
289.145	1.37
289.36	58.71
289.575	58.71
289.79	111.96
290.004	7.51
290.219	58.71
290.434	27.99
290.649	9.56
290.864	-27.31
291.079	50.52
291.294	40.28
291.509	34.13
291.724	50.52
291.938	34.13
292.153	54.61
292.368	-8.87
292.583	21.85
292.798	42.32
293.012	58.71
293.227	32.08
293.442	89.43
293.657	34.13
293.871	68.95
294.086	62.8
294.301	103.76
294.516	71
294.73	21.85
294.945	32.08
295.16	56.66
295.374	116.05
295.589	58.71
295.804	13.65
296.018	23.89
296.233	9.56
296.447	54.61
296.662	21.85
296.877	3.41
297.091	23.89
297.306	9.56
297.52	3.41
297.735	-2.73
297.949	73.04
298.164	38.23
298.378	13.65
298.593	50.52
298.807	40.28
299.022	66.9
299.236	58.71
299.451	62.8
299.665	-27.31
299.88	58.71
300.094	-15.02
300.309	19.8
300.523	1.37
300.737	15.7
300.952	-33.45
301.166	50.52
301.381	48.47
301.595	23.89
301.809	48.47
302.024	40.28
302.238	-15.02
302.452	54.61
302.667	-15.02
302.881	25.94
303.095	13.65
303.309	-27.31
303.524	-29.35
303.738	54.61
303.952	58.71
304.166	25.94
304.381	-12.97
304.595	15.7
304.809	-2.73
305.023	83.28
305.237	42.32
305.452	-17.07
305.666	95.57
305.88	-2.73
306.094	60.76
306.308	48.47
306.522	40.28
306.736	25.94
306.95	11.61
307.164	66.9
307.379	71
307.593	54.61
307.807	66.9
308.021	27.99
308.235	46.42
308.449	-105.13
308.663	-33.45
308.877	103.76
309.091	25.94
309.305	23.89
309.519	15.7
309.733	152.91
309.947	-94.89
310.161	48.47
310.374	7.51
310.588	83.28
310.802	-0.68
311.016	7.51
311.23	81.24
311.444	27.99
311.658	27.99
311.872	50.52
312.085	-8.87
312.299	89.43
312.513	27.99
312.727	15.7
312.941	7.51
313.154	56.66
313.368	50.52
313.582	27.99
313.796	36.18
314.009	-19.11
314.223	111.96
314.437	-25.26
314.651	17.75
314.864	50.52
315.078	62.8
315.292	30.04
315.505	58.71
315.719	60.76
315.933	97.62
316.146	95.57
316.36	36.18
316.573	93.52
316.787	66.9
317.001	54.61
317.214	93.52
317.428	58.71
317.641	60.76
317.855	85.33
318.068	-6.83
318.282	85.33
318.495	126.29
318.709	62.8
318.922	50.52
319.136	44.37
319.349	83.28
319.563	46.42
319.776	48.47
319.99	-12.97
320.203	-10.92
320.417	46.42
320.63	50.52
320.843	122.2
321.057	38.23
321.27	21.85
321.483	56.66
321.697	1.37
321.91	32.08
322.124	99.67
322.337	-10.92
322.55	25.94
322.763	56.66
322.977	11.61
323.19	7.51
323.403	66.9
323.617	25.94
323.83	103.76
324.043	5.46
324.256	38.23
324.469	21.85
324.683	21.85
324.896	23.89
325.109	21.85
325.322	15.7
325.535	95.57
325.748	71
325.962	73.04
326.175	118.1
326.388	21.85
326.601	75.09
326.814	-23.21
327.027	-0.68
327.24	1.37
327.453	-53.93
327.666	9.56
327.879	83.28
328.092	99.67
328.305	-0.68
328.518	38.23
328.731	62.8
328.944	118.1
329.157	56.66
329.37	27.99
329.583	48.47
329.796	7.51
330.009	50.52
330.222	58.71
330.435	54.61
330.648	23.89
330.861	30.04
331.073	42.32
331.286	48.47
331.499	56.66
331.712	42.32
331.925	25.94
332.138	21.85
332.35	130.39
332.563	25.94
332.776	73.04
332.989	9.56
333.202	7.51
333.414	89.43
333.627	60.76
333.84	1.37
334.053	1.37
334.265	15.7
334.478	103.76
334.691	1.37
334.903	60.76
335.116	62.8
335.329	54.61
335.541	34.13
335.754	50.52
335.966	-31.4
336.179	91.48
336.392	58.71
336.604	50.52
336.817	64.85
337.029	9.56
337.242	15.7
337.454	34.13
337.667	42.32
337.88	44.37
338.092	97.62
338.305	81.24
338.517	42.32
338.729	17.75
338.942	48.47
339.154	-2.73
339.367	32.08
339.579	9.56
339.792	50.52
340.004	66.9
340.217	97.62
340.429	116.05
340.641	40.28
340.854	48.47
341.066	-0.68
341.278	52.56
341.491	62.8
341.703	27.99
341.915	105.81
342.128	75.09
342.34	9.56
342.552	81.24
342.764	91.48
342.977	83.28
343.189	-51.88
343.401	85.33
343.613	48.47
343.826	81.24
344.038	50.52
344.25	101.72
344.462	32.08
344.674	-33.45
344.886	9.56
345.099	-43.69
345.311	40.28
345.523	50.52
345.735	-0.68
345.947	91.48
346.159	9.56
346.371	-21.16
346.583	15.7
346.795	87.38
347.007	148.82
347.219	87.38
347.431	9.56
347.643	46.42
347.855	11.61
348.067	75.09
348.279	64.85
348.491	60.76
348.703	81.24
348.915	58.71
349.127	7.51
349.339	95.57
349.551	103.76
349.763	46.42
349.975	54.61
350.187	91.48
350.399	91.48
350.61	30.04
350.822	17.75
351.034	99.67
351.246	42.32
351.458	-6.83
351.669	58.71
351.881	120.15
352.093	13.65
352.305	85.33
352.517	13.65
352.728	142.68
352.94	130.39
353.152	83.28
353.363	-39.59
353.575	58.71
353.787	79.19
353.999	107.86
354.21	103.76
354.422	-41.64
354.633	54.61
354.845	54.61
355.057	60.76
355.268	40.28
355.48	111.96
355.692	-15.02
355.903	48.47
356.115	23.89
356.326	52.56
356.538	163.15
356.749	-58.03
356.961	101.72
357.172	27.99
357.384	34.13
357.595	103.76
357.807	54.61
358.018	36.18
358.23	54.61
358.441	132.44
358.653	97.62
358.864	48.47
359.075	66.9
359.287	62.8
359.498	19.8
359.709	52.56
359.921	54.61
360.132	-10.92
360.344	60.76
360.555	7.51
360.766	38.23
360.977	99.67
361.189	118.1
361.4	-8.87
361.611	68.95
361.823	91.48
362.034	79.19
362.245	21.85
362.456	-2.73
362.667	34.13
362.879	73.04
363.09	9.56
363.301	25.94
363.512	13.65
363.723	56.66
363.935	30.04
364.146	107.86
364.357	15.7
364.568	32.08
364.779	38.23
364.99	-29.35
365.201	40.28
365.412	52.56
365.623	5.46
365.834	58.71
366.045	36.18
366.256	77.14
366.467	87.38
366.678	19.8
366.889	3.41
367.1	11.61
367.311	120.15
367.522	75.09
367.733	42.32
367.944	71
368.155	23.89
368.366	40.28
368.577	23.89
368.788	87.38
368.999	-39.59
369.209	34.13
369.42	101.72
369.631	128.34
369.842	34.13
370.053	19.8
370.264	52.56
370.474	38.23
370.685	5.46
370.896	23.89
371.107	17.75
371.317	44.37
371.528	105.81
371.739	107.86
371.95	56.66
372.16	73.04
372.371	9.56
372.582	71
372.792	-10.92
373.003	42.32
373.214	-17.07
373.424	27.99
373.635	73.04
373.846	87.38
374.056	48.47
374.267	126.29
374.477	71
374.688	17.75
374.898	56.66
375.109	17.75
375.319	48.47
375.53	64.85
375.74	73.04
375.951	46.42
376.161	54.61
376.372	99.67
376.582	15.7
376.793	17.75
377.003	52.56
377.214	25.94
377.424	34.13
377.635	58.71
377.845	23.89
378.055	11.61
378.266	-82.6
378.476	32.08
378.686	89.43
378.897	15.7
379.107	93.52
379.317	79.19
379.528	32.08
379.738	116.05
379.948	-8.87
380.158	93.52
380.369	52.56
380.579	140.63
380.789	30.04
380.999	79.19
381.21	48.47
381.42	148.82
381.63	71
381.84	44.37
382.05	146.77
382.261	85.33
382.471	77.14
382.681	109.91
382.891	48.47
383.101	-19.11
383.311	-2.73
383.521	79.19
383.731	56.66
383.941	81.24
384.151	75.09
384.361	44.37
384.571	81.24
384.781	62.8
384.991	81.24
385.201	103.76
385.411	75.09
385.621	116.05
385.831	71
386.041	79.19
386.251	19.8
386.461	46.42
386.671	91.48
386.881	48.47
387.091	34.13
387.301	83.28
387.511	56.66
387.72	71
387.93	42.32
388.14	48.47
388.35	11.61
388.56	124.24
388.769	75.09
388.979	58.71
389.189	42.32
389.399	36.18
389.609	97.62
389.818	107.86
390.028	50.52
390.238	9.56
390.447	48.47
390.657	66.9
390.867	68.95
391.076	-15.02
391.286	124.24
391.496	130.39
391.705	91.48
391.915	150.87
392.125	46.42
392.334	48.47
392.544	150.87
392.753	25.94
392.963	-19.11
393.172	91.48
393.382	9.56
393.591	120.15
393.801	66.9
394.01	99.67
394.22	36.18
394.429	97.62
394.639	101.72
394.848	124.24
395.058	101.72
395.267	83.28
395.477	120.15
395.686	177.49
395.895	54.61
396.105	130.39
396.314	126.29
396.524	58.71
396.733	87.38
396.942	120.15
397.152	42.32
397.361	134.48
397.57	79.19
397.78	77.14
397.989	128.34
398.198	202.07
398.407	81.24
398.617	103.76
398.826	157.01
399.035	73.04
399.244	152.91
399.453	122.2
399.663	54.61
399.872	64.85
400.081	118.1
400.29	122.2
400.499	128.34
400.708	87.38
400.917	77.14
401.127	169.3
401.336	122.2
401.545	204.11
401.754	169.3
401.963	75.09
402.172	128.34
402.381	58.71
402.59	97.62
402.799	187.73
403.008	136.53
403.217	216.4
403.426	83.28
403.635	185.68
403.844	226.64
404.053	175.44
404.262	54.61
404.471	138.58
404.68	212.31
404.888	255.31
405.097	167.25
405.306	136.53
405.515	275.79
405.724	226.64
405.933	187.73
406.142	243.03
406.35	118.1
406.559	247.12
406.768	202.07
406.977	277.84
407.185	230.74
407.394	206.16
407.603	175.44
407.812	195.92
408.02	230.74
408.229	226.64
408.438	288.08
408.646	288.08
408.855	267.6
409.064	341.33
409.272	286.03
409.481	402.77
409.69	279.89
409.898	320.85
410.107	267.6
410.315	308.56
410.524	312.66
410.733	386.38
410.941	331.09
411.15	468.3
411.358	513.36
411.567	490.83
411.775	486.73
411.984	427.34
412.192	531.79
412.401	523.6
412.609	525.65
412.818	564.56
413.026	585.04
413.234	597.32
413.443	523.6
413.651	648.52
413.86	697.67
414.068	742.73
414.276	628.04
414.485	650.57
414.693	728.39
414.901	845.13
415.11	898.38
415.318	793.93
415.526	886.09
415.734	925
415.943	916.81
416.151	935.24
416.359	959.81
416.567	1064.26
416.776	1017.16
416.984	1086.79
417.192	1217.86
417.4	1137.99
417.608	1172.8
417.817	1221.95
418.025	1297.73
418.233	1322.31
418.441	1264.96
418.649	1381.7
418.857	1486.14
419.065	1486.14
419.273	1525.05
419.481	1621.31
419.689	1645.88
419.897	1717.56
420.105	1783.1
420.313	1854.78
420.521	1830.2
420.729	1942.84
420.937	1975.61
421.145	1934.65
421.353	2149.68
421.561	2223.41
421.769	2295.09
421.977	2409.78
422.185	2358.58
422.393	2432.3
422.601	2575.66
422.809	2710.83
423.017	2698.54
423.224	2776.36
423.432	2811.18
423.64	2909.48
423.848	3245.35
424.056	3095.85
424.263	3263.78
424.471	3405.09
424.679	3331.36
424.887	3675.42
425.094	3716.38
425.302	3611.93
425.51	3734.81
425.718	4031.77
425.925	3884.31
426.133	4052.25
426.341	4496.66
426.548	4490.51
426.756	4515.09
426.964	4627.73
427.171	4783.37
427.379	5129.48
427.586	5025.03
427.794	5235.97
428.001	5430.53
428.209	5768.45
428.417	5657.85
428.624	6016.25
428.832	6104.31
429.039	6065.4
429.247	6040.83
429.454	6362.36
429.662	7068.91
429.869	6450.42
430.076	7111.91
430.284	6913.26
430.491	7234.79
430.699	7531.75
430.906	7513.31
431.114	7677.15
431.321	7849.18
431.528	8035.55
431.736	8645.84
431.943	8955.08
432.15	8494.29
432.358	8955.08
432.565	9241.8
432.772	9284.81
432.979	9764.03
433.187	9790.66
433.394	9807.04
433.601	10630.32
433.808	10597.56
434.016	10665.14
434.223	10978.48
434.43	11625.64
434.637	11361.45
434.844	12123.29
435.052	12473.49
435.259	12432.54
435.466	12493.97
435.673	12367
435.88	13071.5
436.087	13720.71
436.294	13702.28
436.501	13687.94
436.708	13968.51
436.915	13915.26
437.122	14740.6
437.329	14670.97
437.537	15135.85
437.743	15520.87
437.95	15336.56
438.157	16219.23
438.364	16630.87
438.571	16790.61
438.778	16788.57
438.985	18306.11
439.192	17617.99
439.399	18340.93
439.606	17767.49
439.813	18773.05
440.02	19549.23
440.227	19538.99
440.433	19145.78
440.64	19936.29
440.847	19817.51
441.054	20259.87
441.261	21885.96
441.467	21234.71
441.674	21914.63
441.881	22647.8
442.088	22635.52
442.294	22258.69
442.501	22694.91
442.708	23510
442.914	24417.25
443.121	25275.35
443.328	24396.77
443.534	26332.1
443.741	25719.76
443.948	25271.25
444.154	27143.1
444.361	26911.67
444.568	27190.2
444.774	27347.89
444.981	27311.03
445.187	28240.81
445.394	29252.5
445.6	28973.98
445.807	31763.31
446.013	30163.85
446.22	30757.76
446.426	32392.04
446.633	32422.76
446.839	33411.93
447.046	32154.47
447.252	33676.12
447.459	33917.78
447.665	33815.38
447.871	35103.55
448.078	36336.43
448.284	35083.07
448.491	35695.41
448.697	37012.26
448.903	37530.39
449.11	37718.81
449.316	36832.04
449.522	38107.92
449.728	38286.09
449.935	38902.53
450.141	38791.94
450.347	39844.6
450.553	38703.88
450.76	38781.7
450.966	40205.04
451.172	39783.16
451.378	40483.56
451.584	40057.59
451.791	40966.88
451.997	40917.73
452.203	41548.51
452.409	41413.34
452.615	40985.32
452.821	39387.9
453.027	39209.73
453.233	41108.19
453.44	39187.2
453.646	39738.1
453.852	40053.49
454.058	40712.94
454.264	39332.61
454.47	39676.66
454.676	39097.09
454.882	40520.43
455.088	36991.78
455.294	37446.43
455.5	37825.3
455.705	38101.78
455.911	36610.85
456.117	35912.5
456.323	35685.17
456.529	33606.48
456.735	35005.25
456.941	34200.4
457.147	33651.54
457.352	32361.32
457.558	31972.21
457.764	32566.12
457.97	31650.67
458.176	30835.58
458.381	30843.77
458.587	29612.95
458.793	29330.33
458.999	28068.78
459.204	29813.65
459.41	29127.58
459.616	27061.18
459.821	27317.17
460.027	27114.42
460.233	26299.33
460.438	25070.55
460.644	25619.41
460.85	24312.8
461.055	24175.59
461.261	23589.87
461.466	22246.4
461.672	21423.12
461.878	23149.56
462.083	21568.52
462.289	21169.17
462.494	21126.16
462.7	19842.09
462.905	19577.9
463.111	20134.95
463.316	20489.24
463.522	19723.3
463.727	19983.4
463.932	19563.56
464.138	19760.17
464.343	19455.02
464.549	18967.6
464.754	19801.13
464.959	19635.24
465.165	19354.67
465.37	18934.84
465.575	18148.42
465.781	18725.94
465.986	18795.57
466.191	18312.25
466.397	17994.82
466.602	17185.87
466.807	17634.38
467.012	17810.5
467.218	17542.22
467.423	17419.34
467.628	17646.66
467.833	18351.17
468.038	17572.94
468.244	17028.18
468.449	17757.25
468.654	17038.42
468.859	16813.14
469.064	17038.42
469.269	16354.4
469.474	16188.51
469.679	16872.53
469.885	16075.87
470.09	16274.52
470.295	16510.04
470.5	15932.51
470.705	16163.93
470.91	15514.73
471.115	15346.8
471.32	15506.54
471.525	15537.26
471.73	15148.14
471.935	15258.73
472.139	14625.91
472.344	14730.36
472.549	14845.04
472.754	14697.59
472.959	14689.4
473.164	14052.48
473.369	13819.01
473.574	14347.39
473.778	14021.76
473.983	14118.01
474.188	14013.57
474.393	13380.75
474.598	13515.91
474.802	13227.15
475.007	13296.78
475.212	13161.61
475.417	12852.37
475.621	12477.59
475.826	13042.83
476.031	12334.23
476.235	12293.27
476.44	12332.19
476.645	12254.36
476.849	12231.83
477.054	11908.26
477.259	12057.76
477.463	11830.43
477.668	11855.01
477.872	11674.79
478.077	11916.45
478.282	11189.42
478.486	11011.25
478.691	11351.21
478.895	11156.65
479.1	11205.8
479.304	11080.88
479.509	10882.22
479.713	11166.89
479.918	10734.77
480.122	10755.25
480.326	10806.45
480.531	10708.15
480.735	10816.69
480.94	10374.33
481.144	10857.65
481.348	10372.28
481.553	10583.22
481.757	10357.94
481.961	10304.7
482.166	10656.95
482.37	10505.4
482.574	10390.71
482.778	10417.33
482.983	10501.3
483.187	10329.27
483.391	10298.55
483.595	10443.96
483.8	10079.42
484.004	10456.25
484.208	10474.68
484.412	10534.07
484.616	10454.2
484.821	10450.1
485.025	10230.97
485.229	10446.01
485.433	10511.54
485.637	10562.74
485.841	10255.54
486.045	10073.28
486.249	10157.24
486.453	10327.22
486.657	10355.9
486.861	10503.35
487.065	10073.28
487.269	10478.77
487.473	10403
487.677	10314.94
487.881	10431.67
488.085	10310.84
488.289	10427.57
488.493	10368.18
488.697	10407.09
488.901	10349.75
489.105	10478.77
489.309	10482.87
489.512	10493.11
489.716	10413.24
489.92	10564.79
490.124	10376.38
490.328	10648.75
490.531	10511.54
490.735	10687.67
490.939	10747.06
491.143	10595.51
491.346	10769.58
491.55	10826.93
491.754	10874.03
491.958	10831.02
492.161	10871.98
492.365	10939.57
492.569	10953.9
492.772	11205.8
492.976	10998.96
493.18	11381.93
493.383	11406.5
493.587	11048.11
493.79	11371.69
493.994	11271.34
494.197	11588.77
494.401	11695.27
494.605	11248.81
494.808	12008.61
495.012	11611.3
495.215	11723.94
495.419	12031.13
495.622	11992.22
495.825	12127.39
496.029	12149.92
496.232	12477.59
496.436	12391.58
496.639	12952.72
496.843	12598.42
497.046	12960.91
497.249	13026.45
497.453	13243.53
497.656	13184.14
497.859	13223.05
498.063	13640.84
498.266	13587.59
498.469	13567.11
498.673	13489.29
498.876	13778.05
499.079	14214.27
499.282	14105.73
499.485	14554.23
499.689	14812.28
499.892	14840.95
500.095	14822.52
500.298	15064.18
500.501	15035.5
500.705	15516.78
500.908	15715.43
501.111	15735.91
501.314	15819.88
501.517	16084.06
501.72	16389.21
501.923	16419.93
502.126	16424.03
502.329	16868.44
502.532	16976.98
502.735	17067.09
502.938	17505.35
503.141	17617.99
503.344	17902.66
503.547	17697.86
503.75	18269.25
503.953	18197.57
504.156	18498.62
504.359	18701.37
504.562	18875.45
504.765	19223.6
504.968	19162.16
505.17	19663.91
505.373	19690.54
505.576	20044.84
505.779	20321.31
505.982	20282.4
506.185	20491.29
506.387	20497.44
506.59	21034
506.793	21517.32
506.996	21562.38
507.198	22062.08
507.401	21791.75
507.604	22383.62
507.807	22295.55
508.009	22475.77
508.212	22879.22
508.415	22959.09
508.617	23448.56
508.82	23618.54
509.022	23254
509.225	24056.81
509.428	24075.24
509.63	24417.25
509.833	24605.66
510.035	25060.31
510.238	25035.74
510.44	25482.19
510.643	26182.6
510.845	26233.8
511.048	25637.84
511.25	26305.48
511.453	26536.9
511.655	27509.68
511.858	27251.64
512.06	27964.33
512.262	27837.36
512.465	27585.46
512.667	28249
512.87	28615.58
513.072	28527.52
513.274	29442.96
513.477	29301.65
513.679	29545.36
513.881	29975.44
514.084	30292.87
514.286	30018.44
514.488	30352.26
514.69	31351.67
514.893	31449.97
515.095	31642.48
515.297	31828.85
515.499	32074.6
515.701	32621.41
515.904	32590.69
516.106	33078.11
516.308	33506.13
516.51	34028.37
516.712	33860.43
516.914	34141
517.116	34904.9
517.318	34808.64
517.52	34904.9
517.722	34956.1
517.925	35601.21
518.127	36270.89
518.329	36285.23
518.531	36150.06
518.733	37069.6
518.935	36897.57
519.136	37047.07
519.338	37911.31
519.54	38251.28
519.742	38613.77
519.944	38376.2
520.146	39242.49
520.348	39287.55
520.55	39496.44
520.752	39719.67
520.954	40749.8
521.155	40340.21
521.357	40616.68
521.559	40729.32
521.761	41667.29
521.963	41657.05
522.164	42177.23
522.366	41939.67
522.568	42683.08
522.77	42527.44
522.971	43111.11
523.173	42527.44
523.375	43393.73
523.576	43330.24
523.778	43584.19
523.98	44337.84
524.181	44497.58
524.383	44276.4
524.584	44712.62
524.786	45243.04
524.988	44561.07
525.189	45380.26
525.391	45589.15
525.592	46340.75
525.794	46539.41
525.995	46645.9
526.197	46502.54
526.398	46842.51
526.6	47217.28
526.801	47235.72
527.003	47522.43
527.204	47751.8
527.406	47970.94
527.607	47870.59
527.808	48331.38
528.01	47479.42
528.211	47999.61
528.412	49072.74
528.614	49048.17
528.815	49048.17
529.016	49597.02
529.218	48777.84
529.419	49150.57
529.62	49470.05
529.822	49130.09
530.023	49502.82
530.224	49967.71
530.425	49506.91
530.626	49228.39
530.828	49668.7
531.029	50735.7
531.23	49973.85
531.431	50207.32
531.632	50137.69
531.833	50498.13
532.035	50231.89
532.236	50399.83
532.437	50342.49
532.638	50653.78
532.839	51049.03
533.04	50958.92
533.241	50266.71
533.442	51116.62
533.643	51030.6
533.844	50958.92
534.045	51100.23
534.246	50582.1
534.447	51259.98
534.648	50680.4
534.849	50903.63
535.05	50537.04
535.251	50850.38
535.451	50610.77
535.652	51333.7
535.853	50991.69
536.054	51225.16
536.255	51573.31
536.456	50784.85
536.657	51907.13
536.857	50973.26
537.058	50979.4
537.259	51667.52
537.46	51311.17
537.66	51266.12
537.861	51343.94
538.062	50686.54
538.263	51483.2
538.463	51051.08
538.664	51210.82
538.865	51436.1
539.065	51319.37
539.266	51032.65
539.466	51743.3
539.667	50862.67
539.868	51599.94
540.068	51366.47
540.269	51010.12
540.469	51450.44
540.67	50940.49
540.87	51407.43
541.071	50885.2
541.271	51317.32
541.472	51530.31
541.672	50907.72
541.873	51114.57
542.073	50383.44
542.274	51608.13
542.474	51116.62
542.675	50625.1
542.875	51716.67
543.075	51481.16
543.276	50602.58
543.476	51472.96
543.676	50895.44
543.877	51190.34
544.077	51280.45
544.277	51382.85
544.478	50864.72
544.678	51186.25
544.878	51176.01
545.078	50958.92
545.279	50858.57
545.479	50866.77
545.679	51481.16
545.879	50731.6
546.079	51012.17
546.28	50784.85
546.48	50393.68
546.68	51196.49
546.88	50932.3
547.08	51176.01
547.28	50797.13
547.48	50358.87
547.68	51128.91
547.88	50432.6
548.081	50627.15
548.281	50901.58
548.481	50655.82
548.681	51190.34
548.881	50823.76
549.081	50811.47
549.28	50448.98
549.48	51141.19
549.68	50756.17
549.88	51251.78
550.08	50541.14
550.28	50750.03
550.48	50917.96
550.68	50743.89
550.88	50383.44
551.08	50815.57
551.279	50958.92
551.479	50344.53
551.679	50719.31
551.879	50698.83
552.079	50469.46
552.278	49932.89
552.478	50287.19
552.678	50596.43
552.878	50653.78
553.077	50408.02
553.277	49832.54
553.477	51081.8
553.676	50393.68
553.876	50365.01
554.076	49959.51
554.275	49820.25
554.475	49672.8
554.674	50342.49
554.874	50203.22
555.074	49916.51
555.273	50739.79
555.473	49932.89
555.672	49828.44
555.872	50283.09
556.071	49687.14
556.271	50477.65
556.47	49515.11
556.67	49332.84
556.869	49394.28
557.068	50137.69
557.268	48982.63
557.467	49572.45
557.667	49361.51
557.866	49394.28
558.065	49355.36
558.265	49150.57
558.464	48966.25
558.663	49343.08
558.863	48622.19
559.062	49519.2
559.261	48519.79
559.461	49535.59
559.66	48425.59
559.859	48544.37
560.058	48421.49
560.258	48441.97
560.457	48179.83
560.656	48577.14
560.855	48122.49
561.054	48278.13
561.253	47946.36
561.453	48034.42
561.652	48026.23
561.851	48351.86
562.05	48116.34
562.249	47721.09
562.448	48015.99
562.647	47841.92
562.846	47514.24
563.045	47417.99
563.244	47262.34
563.443	47901.31
563.642	47141.51
563.841	47336.07
564.04	47123.08
564.239	47250.05
564.438	46457.49
564.637	47174.28
564.836	46944.9
565.035	46738.06
565.234	46881.42
565.432	46729.87
565.631	46086.81
565.83	46942.86
566.029	46162.58
566.228	46025.37
566.427	46084.76
566.625	45806.23
566.824	45636.25
567.023	46164.63
567.222	45046.44
567.42	45826.71
567.619	45570.72
567.818	45163.17
568.016	45443.74
568.215	45712.03
568.414	45218.47
568.612	45806.23
568.811	44757.67
569.01	44812.97
569.208	44444.34
569.407	44812.97
569.605	44004.02
569.804	44636.84
570.002	43764.41
570.201	44571.31
570.4	44112.56
570.598	43868.86
570.797	44118.71
570.995	43774.65
571.193	43510.46
571.392	43846.33
571.59	42977.99
571.789	43576
571.987	43092.68
572.186	43219.65
572.384	42961.61
572.582	43199.17
572.781	43545.28
572.979	42429.13
573.177	42836.68
573.376	42744.52
573.574	42457.81
573.772	42588.88
573.971	41767.64
574.169	41749.21
574.367	41421.53
574.565	42197.71
574.763	41681.63
574.962	41853.65
575.16	41429.73
575.358	41677.53
575.556	41132.77
575.754	41511.64
575.952	41378.53
576.151	41220.83
576.349	40377.07
576.547	41040.61
576.745	41253.6
576.943	40751.85
577.141	40612.59
577.339	40588.01
577.537	40338.16
577.735	40383.21
577.933	40233.71
578.131	40098.55
578.329	39656.18
578.527	39443.2
578.725	39635.7
578.923	39906.04
579.121	39406.33
579.319	39295.74
579.516	39564.03
579.714	39123.71
579.912	39095.04
580.11	39271.17
580.308	39265.02
580.506	39252.73
580.704	38224.65
580.901	39025.41
581.099	39293.69
581.297	38443.79
581.495	38140.69
581.692	38675.21
581.89	38044.43
582.088	38359.82
582.285	38189.84
582.483	38429.45
582.681	37845.78
582.878	37989.14
583.076	37724.95
583.274	37673.75
583.471	37362.46
583.669	37516.06
583.866	37077.79
584.064	37581.59
584.262	36956.96
584.459	37262.11
584.657	36793.12
584.854	36985.63
585.052	36291.37
585.249	36576.04
585.447	36569.9
585.644	36154.16
585.841	36223.79
586.039	36721.44
586.236	36277.04
586.434	36395.82
586.631	35877.68
586.828	35791.67
587.026	35836.72
587.223	35621.69
587.42	35728.18
587.618	35498.81
587.815	35318.59
588.012	35386.17
588.21	35175.23
588.407	35275.58
588.604	34921.28
588.801	34917.18
588.999	34872.13
589.196	34802.5
589.393	34978.62
589.59	34681.67
589.787	34227.02
589.984	34194.25
590.182	33839.95
590.379	34014.03
590.576	34112.33
590.773	34343.75
590.97	33762.13
591.167	33911.63
591.364	33878.86
591.561	33772.37
591.758	33342.3
591.955	32918.37
592.152	33430.36
592.349	33315.67
592.546	33291.1
592.743	33022.81
592.94	32430.95
593.137	32672.61
593.334	33270.62
593.531	32211.82
593.727	32897.89
593.924	32891.74
594.121	32037.74
594.318	32639.84
594.515	32072.56
594.712	32711.52
594.908	32050.03
595.105	32195.43
595.302	31878
595.499	31859.57
595.696	31660.91
595.892	31279.99
596.089	31843.18
596.286	31511.41
596.482	30989.18
596.679	31411.06
596.876	31126.39
597.072	30915.45
597.269	31165.31
597.466	31038.33
597.662	31030.14
597.859	30792.58
598.055	30718.85
598.252	30350.21
598.448	30606.21
598.645	30555.01
598.841	30057.35
599.038	30477.19
599.234	30120.84
599.431	29903.76
599.627	30311.3
599.824	30026.64
600.02	29688.72
600.217	29891.47
600.413	29778.83
600.609	29649.81
600.806	29608.85
601.002	29840.27
601.198	29111.19
601.395	29205.4
601.591	29074.33
601.787	29215.64
601.984	29000.6
602.18	29111.19
602.376	28560.29
602.572	28765.09
602.769	28740.51
602.965	28656.54
603.161	28717.98
603.357	28349.35
603.553	28263.33
603.75	28435.36
603.946	28195.75
604.142	28406.69
604.338	27777.97
604.534	28124.07
604.73	27646.9
604.926	27845.55
605.122	27927.47
605.318	27440.05
605.514	27665.33
605.71	27483.06
605.906	27315.12
606.102	27366.32
606.298	27257.78
606.494	27444.15
606.69	27362.23
606.886	27184.05
607.082	26729.41
607.278	27024.31
607.474	26608.58
607.67	26639.29
607.866	26680.25
608.062	26782.65
608.257	26571.71
608.453	26551.23
608.649	26729.41
608.845	26211.27
609.041	26483.65
609.236	26266.56
609.432	26246.08
609.628	26149.83
609.824	26039.24
610.019	25949.13
610.215	26086.34
610.411	25895.88
610.606	25725.9
610.802	26190.79
610.998	25537.49
611.193	25625.55
611.389	25367.51
611.584	25416.66
611.78	25273.3
611.976	25459.66
612.171	25390.03
612.367	25340.88
612.562	25261.01
612.758	25103.32
612.953	24953.82
613.149	25240.53
613.344	24982.49
613.539	25430.99
613.735	25189.33
613.93	25191.38
614.126	24716.25
614.321	25209.81
614.517	24746.97
614.712	24902.62
614.907	24736.73
615.103	24574.94
615.298	24636.38
615.493	24624.09
615.688	24443.87
615.884	24626.14
616.079	24351.71
616.274	24376.29
616.47	24331.23
616.665	24339.43
616.86	24058.85
617.055	24157.16
617.25	24040.42
617.445	24335.33
617.641	23927.78
617.836	23813.1
618.031	23663.6
618.226	23786.47
618.421	23358.45
618.616	23800.81
618.811	23309.3
619.006	23708.65
619.201	23165.94
619.396	23585.77
619.591	22866.94
619.786	23268.34
619.981	22776.83
620.176	23374.83
620.371	22555.65
620.566	22789.11
620.761	22653.95
620.956	22809.59
621.151	22440.96
621.346	22426.62
621.541	21928.97
621.735	22309.89
621.93	21865.48
622.125	21971.97
622.32	21871.62
622.515	22047.75
622.709	21797.9
622.904	21367.82
623.099	21416.97
623.294	21517.32
623.488	21246.99
623.683	21242.9
623.878	21105.68
624.072	21572.62
624.267	21068.82
624.462	20706.33
624.656	20438.05
624.851	20904.98
625.046	20450.33
625.24	20501.53
625.435	20038.69
625.629	20012.07
625.824	20053.03
626.018	19739.69
626.213	19409.97
626.407	19745.83
626.602	19526.7
626.796	19817.51
626.991	19551.27
627.185	19440.68
627.38	19268.66
627.574	18926.64
627.768	18867.25
627.963	18961.46
628.157	18539.58
628.352	18834.49
628.546	18193.47
628.74	18584.63
628.935	18254.91
629.129	18369.6
629.323	17855.56
629.517	18123.84
629.712	17849.41
629.906	17923.14
630.1	17630.28
630.294	17587.27
630.489	17572.94
630.683	17683.53
630.877	17335.37
631.071	17613.9
631.265	17540.17
631.459	17308.75
631.653	16964.69
631.848	17009.75
632.042	16798.81
632.236	17054.8
632.43	16815.19
632.624	16671.83
632.818	16397.4
633.012	16206.94
633.206	16637.02
633.4	16260.19
633.594	16215.13
633.788	16335.96
633.982	16188.51
634.176	16120.93
634.369	15703.14
634.563	15909.99
634.757	15531.11
634.951	15914.08
635.145	15582.31
635.339	15549.54
635.533	15217.77
635.726	15334.51
635.92	14990.45
636.114	15342.7
636.308	14910.58
636.501	14982.26
636.695	14869.62
636.889	14754.93
637.083	14697.59
637.276	14773.36
637.47	14699.64
637.664	14664.82
637.857	14529.66
638.051	14500.98
638.244	14378.11
638.438	14230.65
638.632	13945.98
638.825	13868.16
639.019	13905.03
639.212	13733
639.406	13896.83
639.599	13845.63
639.793	13819.01
639.986	13456.52
640.18	13622.41
640.373	13300.87
640.567	13278.35
640.76	13345.93
640.954	13194.38
641.147	13071.5
641.34	13012.11
641.534	13069.45
641.727	13083.79
641.92	12903.57
642.114	12862.61
642.307	12770.45
642.5	12555.41
642.694	12385.43
642.887	12403.86
643.08	12555.41
643.273	12547.22
643.467	12299.42
643.66	12307.61
643.853	12237.98
644.046	12078.24
644.239	11932.83
644.432	11883.68
644.626	11758.75
644.819	11734.18
645.012	11779.23
645.205	11859.1
645.398	11791.52
645.591	11672.74
645.784	11814.05
645.977	11396.26
646.17	11560.1
646.363	11353.26
646.556	11230.38
646.749	11193.51
646.942	11111.6
647.135	11242.67
647.328	10986.67
647.521	11080.88
647.714	10984.62
647.907	10665.14
648.099	10896.56
648.292	10779.82
648.485	10681.52
648.678	10671.28
648.871	10400.95
649.064	10454.2
649.256	10413.24
649.449	10392.76
649.642	10327.22
649.835	10190.01
650.027	10222.78
650.22	10122.43
650.413	10198.2
650.605	10042.56
650.798	9891.01
650.991	9815.23
651.183	10030.27
651.376	9749.7
651.568	9837.76
651.761	9821.38
651.954	9862.33
652.146	9747.65
652.339	9532.61
652.531	9567.43
652.724	9628.87
652.916	9327.81
653.109	9301.19
653.301	9350.34
653.494	9493.7
653.686	9227.46
653.879	9372.87
654.071	9075.91
654.263	9008.33
654.456	8907.98
654.648	9147.59
654.84	8684.75
655.033	8926.41
655.225	8772.82
655.417	8883.41
655.61	8733.9
655.802	8867.02
655.994	8625.36
656.186	8746.19
656.379	8625.36
656.571	8410.32
656.763	8445.14
656.955	8381.65
657.148	8496.34
657.34	8412.37
657.532	8242.39
657.724	8174.81
657.916	8226.01
658.108	8340.69
658.3	8076.51
658.492	8475.86
658.684	8099.03
658.876	8117.47
659.068	8072.41
659.26	7673.06
659.452	8082.65
659.644	7904.48
659.836	7849.18
660.028	7941.34
660.22	7648.48
660.412	7757.02
660.604	7750.88
660.796	7787.74
660.988	7726.3
661.18	7427.3
661.372	7341.29
661.563	7404.77
661.755	7353.57
661.947	7265.51
662.139	7267.56
662.331	7386.34
662.522	7210.22
662.714	7267.56
662.906	7052.52
663.097	7292.13
663.289	7159.02
663.481	7132.39
663.673	6960.36
663.864	7132.39
664.056	6958.32
664.247	7021.8
664.439	6714.61
664.631	6956.27
664.822	6948.08
665.014	6835.44
665.205	6675.7
665.397	6624.5
665.588	6745.33
665.78	6472.95
665.971	6649.07
666.163	6663.41
666.354	6497.52
666.546	6431.99
666.737	6464.75
666.929	6423.8
667.12	6405.36
667.311	6513.91
667.503	6460.66
667.694	6489.33
667.885	6161.66
668.077	6405.36
668.268	6401.27
668.459	6173.94
668.651	6161.66
668.842	6059.26
669.033	6026.49
669.224	6132.98
669.416	6182.13
669.607	6053.11
669.798	5969.15
669.989	6016.25
670.18	6010.11
670.371	5930.23
670.563	5979.39
670.754	5965.05
670.945	5901.56
671.136	6003.96
671.327	5858.56
671.518	5836.03
671.709	5817.6
671.9	5807.36
672.091	5874.94
672.282	5645.57
672.473	5719.29
672.664	5770.49
672.855	5653.76
673.046	5678.33
673.237	5692.67
673.428	5539.07
673.619	5559.55
673.809	5524.74
674	5580.03
674.191	5723.39
674.382	5547.26
674.573	5551.36
674.764	5616.9
674.954	5479.68
675.145	5471.49
675.336	5588.22
675.527	5457.15
675.717	5350.66
675.908	5373.19
676.099	5430.53
676.289	5291.27
676.48	5414.15
676.671	5344.52
676.861	5270.79
677.052	5365
677.243	5498.11
677.433	5252.36
677.624	5283.08
677.814	5274.88
678.005	5360.9
678.195	5299.46
678.386	5338.37
678.576	5104.9
678.767	5219.59
678.957	5207.3
679.148	5172.49
679.338	5082.38
679.529	5238.02
679.719	5121.29
679.909	5113.1
680.1	5158.15
680.29	5059.85
680.481	5174.53
680.671	5188.87
680.861	5063.94
681.052	5068.04
681.242	5143.81
681.432	5117.19
681.622	4996.36
681.813	4900.11
682.003	5022.98
682.193	5035.27
682.383	4965.64
682.573	4949.26
682.764	4912.39
682.954	5063.94
683.144	4932.87
683.334	5027.08
683.524	4877.58
683.714	5098.76
683.904	4818.19
684.094	4879.63
684.284	4785.42
684.474	4928.78
684.664	4979.98
684.854	4900.11
685.044	4936.97
685.234	4812.04
685.424	4830.48
685.614	4781.32
685.804	4676.88
685.994	4726.03
686.184	4766.99
686.374	4781.32
686.564	4670.73
686.753	4783.37
686.943	4773.13
687.133	4515.09
687.323	4570.38
687.513	4734.22
687.702	4674.83
687.892	4617.49
688.082	4588.82
688.272	4637.97
688.461	4486.42
688.651	4570.38
688.841	4351.25
689.03	4465.94
689.22	4494.61
689.41	4578.58
689.599	4353.3
689.789	4478.22
689.979	4324.63
690.168	4420.88
690.358	4379.92
690.547	4427.03
690.737	4228.37
690.926	4318.48
691.116	4197.65
691.305	4318.48
691.495	4396.31
691.684	4238.61
691.874	4314.39
692.063	4279.57
692.252	4338.96
692.442	4281.62
692.631	4142.36
692.82	4121.88
693.01	4265.24
693.199	4187.41
693.388	4107.54
693.578	3921.18
693.767	3841.31
693.956	3990.81
694.146	4121.88
694.335	4148.5
694.524	3988.76
694.713	4056.34
694.902	4105.49
695.092	3966.23
695.281	4005.14
695.47	3898.65
695.659	4009.24
695.848	3917.08
696.037	3806.49
696.226	4011.29
696.415	3976.47
696.604	3896.6
696.793	3902.75
696.982	3921.18
697.171	3886.36
697.36	3894.55
697.549	3835.16
697.738	3730.72
697.927	3847.45
698.116	3847.45
698.305	3974.42
698.494	3904.79
698.683	3755.29
698.872	3788.06
699.061	3855.64
699.25	3796.25
699.438	3747.1
699.627	3771.68
699.816	3900.7
700.005	3708.19
700.193	3788.06
700.382	3892.51
700.571	3947.8
700.76	3781.92
700.948	3730.72
701.137	3761.44
701.326	3835.16
701.514	3806.49
701.703	3724.57
701.892	3677.47
702.08	3751.2
702.269	3751.2
702.457	3745.05
702.646	3788.06
702.834	3718.43
703.023	3775.77
703.212	3839.26
703.4	3704.09
703.589	3786.01
703.777	3841.31
703.965	3683.61
704.154	3581.21
704.342	3642.65
704.531	3675.42
704.719	3659.04
704.907	3788.06
705.096	3681.57
705.284	3609.89
705.472	3681.57
705.661	3613.98
705.849	3667.23
706.037	3628.32
706.226	3656.99
706.414	3687.71
706.602	3745.05
706.79	3810.59
706.979	3634.46
707.167	3638.56
707.355	3573.02
707.543	3648.8
707.731	3669.28
707.919	3648.8
708.107	3743
708.296	3595.55
708.484	3558.69
708.672	3570.97
708.86	3671.33
709.048	3691.8
709.236	3689.76
709.424	3724.57
709.612	3663.13
709.8	3519.78
709.988	3525.92
710.176	3607.84
710.364	3538.21
710.551	3536.16
710.739	3646.75
710.927	3591.45
711.115	3665.18
711.303	3603.74
711.491	3638.56
711.679	3652.89
711.866	3755.29
712.054	3575.07
712.242	3593.5
712.43	3597.6
712.617	3562.78
712.805	3589.41
712.993	3601.69
713.181	3589.41
713.368	3704.09
713.556	3534.11
713.744	3503.39
713.931	3734.81
714.119	3341.6
714.306	3648.8
714.494	3642.65
714.682	3616.03
714.869	3646.75
715.057	3632.41
715.244	3429.66
715.432	3685.66
715.619	3554.59
715.807	3704.09
715.994	3558.69
716.182	3573.02
716.369	3568.93
716.556	3515.68
716.744	3527.97
716.931	3718.43
717.119	3546.4
717.306	3683.61
717.493	3652.89
717.681	3560.73
717.868	3458.34
718.055	3630.37
718.242	3525.92
718.43	3597.6
718.617	3587.36
718.804	3589.41
718.991	3587.36
719.179	3540.26
719.366	3509.54
719.553	3433.76
719.74	3392.8
719.927	3603.74
720.114	3568.93
720.301	3552.54
720.488	3446.05
720.676	3484.96
720.863	3552.54
721.05	3554.59
721.237	3554.59
721.424	3519.78
721.611	3495.2
721.798	3458.34
721.985	3411.23
722.172	3450.14
722.358	3390.75
722.545	3505.44
722.732	3458.34
722.919	3550.5
723.106	3478.82
723.293	3450.14
723.48	3521.82
723.667	3454.24
723.853	3417.38
724.04	3538.21
724.227	3380.51
724.414	3419.43
724.6	3337.51
724.787	3421.47
724.974	3327.27
725.161	3495.2
725.347	3364.13
725.534	3448.1
725.72	3355.94
725.907	3425.57
726.094	3480.86
726.28	3317.03
726.467	3286.31
726.653	3476.77
726.84	3331.36
727.027	3400.99
727.213	3347.75
727.4	3364.13
727.586	3437.86
727.773	3290.4
727.959	3429.66
728.145	3376.42
728.332	3308.83
728.518	3423.52
728.705	3347.75
728.891	3400.99
729.077	3400.99
729.264	3278.12
729.45	3274.02
729.636	3419.43
729.823	3290.4
730.009	3396.9
730.195	3368.23
730.382	3362.08
730.568	3286.31
730.754	3368.23
730.94	3366.18
731.126	3335.46
731.313	3341.6
731.499	3280.16
731.685	3290.4
731.871	3335.46
732.057	3251.49
732.243	3312.93
732.429	3317.03
732.615	3257.64
732.801	3149.09
732.987	3155.24
733.173	3233.06
733.359	3226.92
733.545	3188
733.731	3128.61
733.917	3226.92
734.103	3308.83
734.289	3314.98
734.475	3288.36
734.661	3216.68
734.847	3218.72
735.033	3155.24
735.219	3169.57
735.404	3079.46
735.59	3161.38
735.776	3104.04
735.962	3276.07
736.148	3284.26
736.333	3216.68
736.519	3142.95
736.705	3169.57
736.89	3058.98
737.076	3224.87
737.262	3202.34
737.447	3015.98
737.633	2975.02
737.819	3081.51
738.004	2999.59
738.19	3206.44
738.375	3048.74
738.561	3085.61
738.747	3120.42
738.932	2968.87
739.118	3065.13
739.303	3032.36
739.489	2868.52
739.674	2929.96
739.859	3052.84
740.045	3069.22
740.23	2997.54
740.416	2927.91
740.601	2972.97
740.786	2893.1
740.972	2995.5
741.157	2880.81
741.342	2856.23
741.528	2837.8
741.713	2938.15
741.898	2893.1
742.084	2948.39
742.269	2899.24
742.454	2860.33
742.639	2866.47
742.824	2848.04
743.01	2809.13
743.195	2827.56
743.38	2802.99
743.565	2786.6
743.75	2710.83
743.935	2671.92
744.12	2856.23
744.305	2710.83
744.49	2772.27
744.675	2563.37
744.86	2852.14
745.045	2624.81
745.23	2686.25
745.415	2620.72
745.6	2612.53
745.785	2575.66
745.97	2639.15
746.155	2637.1
746.34	2563.37
746.525	2710.83
746.71	2682.16
746.895	2481.46
747.079	2524.46
747.264	2491.7
747.449	2616.62
747.634	2499.89
747.819	2512.17
748.003	2393.39
748.188	2393.39
748.373	2403.63
748.557	2276.66
748.742	2256.18
748.927	2428.21
749.111	2442.54
749.296	2346.29
749.481	2409.78
749.665	2327.86
749.85	2350.39
750.034	2293.04
750.219	2311.47
750.404	2262.32
750.588	2348.34
750.773	2194.74
750.957	2213.17
751.141	2078.01
751.326	2241.84
751.51	2078.01
751.695	2159.92
751.879	1975.61
752.064	2104.63
752.248	2026.81
752.432	2110.77
752.617	2057.53
752.801	2078.01
752.985	1983.8
753.17	1977.66
753.354	2000.18
753.538	2018.61
753.722	1852.73
753.907	1912.12
754.091	1815.87
754.275	1926.46
754.459	1908.02
754.643	1901.88
754.828	1897.78
755.012	1785.15
755.196	1875.26
755.38	1910.07
755.564	1758.52
755.748	1856.82
755.932	1807.67
756.116	1721.66
756.3	1738.04
756.484	1795.39
756.668	1799.48
756.852	1684.8
757.036	1709.37
757.22	1668.41
757.404	1639.74
757.588	1662.27
757.772	1690.94
757.956	1742.14
758.14	1604.92
758.323	1668.41
758.507	1672.51
758.691	1649.98
758.875	1617.21
759.059	1533.25
759.242	1643.84
759.426	1490.24
759.61	1561.92
759.794	1594.68
759.977	1527.1
760.161	1572.16
760.345	1557.82
760.528	1623.36
760.712	1516.86
760.895	1523.01
761.079	1555.77
761.263	1500.48
761.446	1459.52
761.63	1535.29
761.813	1496.38
761.997	1510.72
762.18	1502.53
762.364	1418.56
762.547	1416.51
762.731	1389.89
762.914	1389.89
763.098	1289.54
763.281	1359.17
763.464	1467.71
763.648	1336.64
763.831	1402.18
764.015	1369.41
764.198	1373.5
764.381	1443.14
764.564	1299.78
764.748	1320.26
764.931	1391.94
765.114	1375.55
765.297	1350.98
765.481	1303.87
765.664	1353.02
765.847	1273.15
766.03	1281.35
766.213	1195.33
766.397	1254.72
766.58	1187.14
766.763	1254.72
766.946	1217.86
767.129	1221.95
767.312	1226.05
767.495	1172.8
767.678	1197.38
767.861	1174.85
768.044	1201.47
768.227	1170.76
768.41	1168.71
768.593	1187.14
768.776	1215.81
768.959	1191.24
769.142	1199.43
769.324	1162.56
769.507	1082.69
769.69	1086.79
769.873	1201.47
770.056	1209.67
770.239	1185.09
770.421	1156.42
770.604	1162.56
770.787	1144.13
770.97	1117.51
771.152	1103.17
771.335	1162.56
771.518	1049.93
771.7	1133.89
771.883	1166.66
772.066	1054.02
772.248	1074.5
772.431	1086.79
772.613	1006.92
772.796	1062.21
772.978	1056.07
773.161	992.58
773.343	1064.26
773.526	963.91
773.708	1011.01
773.891	1025.35
774.073	1006.92
774.256	1000.77
774.438	980.29
774.621	955.72
774.803	1008.97
774.985	982.34
775.168	1015.11
775.35	949.57
775.532	922.95
775.715	902.47
775.897	949.57
776.079	898.38
776.261	927.05
776.444	925
776.626	935.24
776.808	918.86
776.99	943.43
777.173	941.38
777.355	900.42
777.537	955.72
777.719	789.83
777.901	851.27
778.083	843.08
778.265	914.76
778.447	877.9
778.629	755.02
778.811	830.79
778.993	802.12
779.175	828.74
779.357	841.03
779.539	763.21
779.721	808.26
779.903	738.63
780.085	691.53
780.267	818.5
780.449	699.72
780.631	699.72
780.812	740.68
780.994	697.67
781.176	761.16
781.358	707.91
781.54	724.3
781.721	793.93
781.903	722.25
782.085	736.59
782.267	816.46
782.448	628.04
782.63	615.76
782.812	699.72
782.993	683.34
783.175	687.43
783.357	570.7
783.538	599.37
783.72	671.05
783.901	603.47
784.083	595.28
784.264	732.49
784.446	626
784.627	566.6
784.809	597.32
784.99	595.28
785.172	574.8
785.353	591.18
785.535	597.32
785.716	580.94
785.897	621.9
786.079	546.12
786.26	517.45
786.441	574.8
786.623	574.8
786.804	574.8
786.985	517.45
787.167	509.26
787.348	525.65
787.529	542.03
787.71	576.84
787.891	599.37
788.073	589.13
788.254	515.41
788.435	582.99
788.616	515.41
788.797	484.69
788.978	513.36
789.159	521.55
789.34	560.46
789.522	476.49
789.703	462.16
789.884	468.3
790.065	529.74
790.246	542.03
790.427	501.07
790.607	505.17
790.788	523.6
790.969	453.97
791.15	413.01
791.331	425.29
791.512	480.59
791.693	419.15
791.874	427.34
792.054	509.26
792.235	503.12
792.416	353.62
792.597	376.14
792.778	470.35
792.958	417.1
793.139	421.2
793.32	435.53
793.5	472.4
793.681	413.01
793.862	480.59
794.042	339.28
794.223	386.38
794.404	394.58
794.584	388.43
794.765	355.66
794.945	392.53
795.126	386.38
795.306	441.68
795.487	406.86
795.667	419.15
795.848	408.91
796.028	343.38
796.209	349.52
796.389	423.25
796.57	347.47
796.75	331.09
796.93	398.67
797.111	304.46
797.291	367.95
797.471	312.66
797.652	341.33
797.832	384.34
798.012	386.38
798.192	296.27
798.373	347.47
798.553	279.89
798.733	380.24
798.913	249.17
799.093	335.18
799.274	320.85
799.454	365.9
799.634	349.52
799.814	349.52
799.994	388.43
800.174	312.66
800.354	308.56
800.534	374.1
800.714	357.71
800.894	279.89
801.074	312.66
801.254	316.75
801.434	337.23
801.614	318.8
801.794	230.74
801.974	771.4
802.154	302.42
802.334	419.15
802.514	279.89
802.693	238.93
802.873	281.94
803.053	304.46
803.233	337.23
803.413	283.98
803.592	255.31
803.772	288.08
803.952	318.8
804.131	210.26
804.311	263.51
804.491	367.95
804.67	259.41
804.85	267.6
805.03	304.46
805.209	294.22
805.389	236.88
805.568	249.17
805.748	304.46
805.928	181.59
806.107	279.89
806.287	329.04
806.466	255.31
806.646	271.7
806.825	249.17
807.004	236.88
807.184	273.75
807.363	329.04
807.543	243.03
807.722	206.16
807.901	177.49
808.081	333.14
808.26	136.53
808.439	240.98
808.619	185.68
808.798	279.89
808.977	296.27
809.156	216.4
809.336	238.93
809.515	173.39
809.694	212.31
809.873	189.78
810.052	316.75
810.231	265.55
810.411	204.11
810.59	140.63
810.769	214.35
810.948	290.13
811.127	202.07
811.306	177.49
811.485	181.59
811.664	222.55
811.843	230.74
812.022	277.84
812.201	150.87
812.38	124.24
812.559	173.39
812.737	183.63
812.916	195.92
813.095	161.11
813.274	204.11
813.453	140.63
813.632	210.26
813.811	220.5
813.989	109.91
814.168	183.63
814.347	187.73
814.526	197.97
814.704	216.4
814.883	210.26
815.062	195.92
815.24	197.97
815.419	183.63
815.598	142.68
815.776	89.43
815.955	226.64
816.133	152.91
816.312	224.59
816.49	140.63
816.669	230.74
816.847	154.96
817.026	183.63
817.204	189.78
817.383	195.92
817.561	148.82
817.74	169.3
817.918	204.11
818.097	89.43
818.275	101.72
818.453	220.5
818.632	222.55
818.81	103.76
818.988	179.54
819.167	183.63
819.345	150.87
819.523	214.35
819.701	128.34
819.879	146.77
820.058	243.03
820.236	220.5
820.414	111.96
820.592	134.48
820.77	159.06
820.948	185.68
821.127	25.94
821.305	179.54
821.483	109.91
821.661	146.77
821.839	206.16
822.017	177.49
822.195	200.02
822.373	116.05
822.551	38.23
822.729	109.91
822.907	109.91
823.085	185.68
823.262	202.07
823.44	91.48
823.618	128.34
823.796	165.2
823.974	40.28
824.152	173.39
824.329	85.33
824.507	91.48
824.685	132.44
824.863	173.39
825.04	165.2
825.218	89.43
825.396	138.58
825.574	136.53
825.751	136.53
825.929	142.68
826.107	181.59
826.284	134.48
826.462	150.87
826.639	56.66
826.817	87.38
826.994	187.73
827.172	107.86
827.349	136.53
827.527	71
827.704	83.28
827.882	140.63
828.059	87.38
828.237	38.23
828.414	163.15
828.591	66.9
828.769	71
828.946	120.15
829.124	122.2
829.301	146.77
829.478	95.57
829.655	9.56
829.833	120.15
830.01	79.19
830.187	146.77
830.364	83.28
830.542	152.91
830.719	116.05
830.896	73.04
831.073	136.53
831.25	48.47
831.427	97.62
831.604	212.31
831.782	73.04
831.959	187.73
832.136	118.1
832.313	81.24
832.49	150.87
832.667	111.96
832.844	138.58
833.021	150.87
833.198	107.86
833.374	62.8
833.551	197.97
833.728	17.75
833.905	107.86
834.082	91.48
834.259	95.57
834.436	126.29
834.612	83.28
834.789	101.72
834.966	46.42
835.143	97.62
835.319	66.9
835.496	85.33
835.673	146.77
835.85	71
836.026	91.48
836.203	56.66
836.38	75.09
836.556	103.76
836.733	42.32
836.909	144.72
837.086	50.52
837.262	99.67
837.439	62.8
837.616	81.24
837.792	79.19
837.968	27.99
838.145	-70.31
838.321	62.8
838.498	91.48
838.674	83.28
838.851	89.43
839.027	62.8
839.203	58.71
839.38	122.2
839.556	21.85
839.732	124.24
839.909	-15.02
840.085	56.66
840.261	15.7
840.437	66.9
840.614	130.39
840.79	165.2
840.966	91.48
841.142	40.28
841.318	101.72
841.494	89.43
841.671	159.06
841.847	62.8
842.023	11.61
842.199	91.48
842.375	122.2
842.551	38.23
842.727	46.42
842.903	79.19
843.079	58.71
843.255	140.63
843.431	-23.21
843.607	87.38
843.783	-10.92
843.959	54.61
844.134	64.85
844.31	130.39
844.486	66.9
844.662	38.23
844.838	58.71
845.013	95.57
845.189	54.61
845.365	91.48
845.541	128.34
845.716	89.43
845.892	40.28
846.068	25.94
846.244	83.28
846.419	103.76
846.595	58.71
846.77	62.8
846.946	-23.21
847.122	15.7
847.297	103.76
847.473	83.28
847.648	62.8
847.824	48.47
847.999	-0.68
848.175	134.48
848.35	7.51
848.526	64.85
848.701	54.61
848.876	77.14
849.052	93.52
849.227	-4.78
849.403	85.33
849.578	54.61
849.753	17.75
849.929	46.42
850.104	1.37
850.279	1.37
850.454	81.24
850.63	103.76
850.805	132.44
850.98	27.99
851.155	-4.78
851.33	73.04
851.505	-47.79
851.681	36.18
851.856	9.56
852.031	93.52
852.206	34.13
852.381	-23.21
852.556	7.51
852.731	83.28
852.906	87.38
853.081	46.42
853.256	23.89
853.431	50.52
853.606	71
853.781	15.7
853.956	-10.92
854.131	54.61
854.305	-31.4
854.48	-6.83
854.655	30.04
854.83	15.7
855.005	40.28
855.18	40.28
855.354	62.8
855.529	42.32
855.704	52.56
855.879	-15.02
856.053	40.28
856.228	34.13
856.403	-10.92
856.577	126.29
856.752	48.47
856.926	-27.31
857.101	17.75
857.276	23.89
857.45	120.15
857.625	66.9
857.799	58.71
857.974	81.24
858.148	-12.97
858.323	-2.73
858.497	-8.87
858.672	7.51
858.846	50.52
859.02	103.76
859.195	-8.87
859.369	58.71
859.543	30.04
859.718	95.57
859.892	-37.55
860.066	46.42
860.241	103.76
860.415	5.46
860.589	17.75
860.763	23.89
860.938	58.71
861.112	23.89
861.286	71
861.46	48.47
861.634	7.51
861.808	89.43
861.982	-39.59
862.157	27.99
862.331	50.52
862.505	23.89
862.679	-86.7
862.853	79.19
863.027	54.61
863.201	50.52
863.375	42.32
863.549	95.57
863.722	73.04
863.896	15.7
864.07	-41.64
864.244	15.7
864.418	25.94
864.592	105.81
864.766	34.13
864.939	56.66
865.113	21.85
865.287	27.99
865.461	-39.59
865.634	71
865.808	64.85
865.982	5.46
866.156	-51.88
866.329	-64.17
866.503	46.42
866.676	42.32
866.85	5.46
867.024	-8.87
867.197	17.75
867.371	75.09
867.544	52.56
867.718	-25.26
867.891	42.32
868.065	-0.68
868.238	44.37
868.412	87.38
868.585	5.46
868.759	25.94
868.932	13.65
869.105	23.89
869.279	23.89
869.452	-17.07
869.625	71
869.799	-2.73
869.972	56.66
870.145	7.51
870.319	25.94
870.492	-90.79
870.665	13.65
870.838	91.48
871.011	46.42
871.185	56.66
871.358	-15.02
871.531	56.66
871.704	-55.98
871.877	54.61
872.05	17.75
872.223	17.75
872.396	17.75
872.569	111.96
872.742	56.66
872.915	42.32
873.088	-2.73
873.261	46.42
873.434	34.13
873.607	5.46
873.78	34.13
873.953	11.61
874.126	-39.59
874.299	44.37
874.471	-4.78
874.644	56.66
874.817	-41.64
874.99	52.56
875.163	27.99
875.335	1.37
875.508	9.56
875.681	54.61
875.853	-27.31
876.026	85.33
876.199	9.56
876.371	-2.73
876.544	52.56
876.717	-12.97
876.889	-29.35
877.062	-15.02
877.234	15.7
877.407	32.08
877.579	44.37
877.752	32.08
877.924	73.04
878.097	38.23
878.269	-78.51
878.442	38.23
878.614	44.37
878.786	1.37
878.959	71
879.131	58.71
879.303	-90.79
879.476	-8.87
879.648	21.85
879.82	15.7
879.993	-27.31
880.165	25.94
880.337	7.51
880.509	-27.31
880.681	-62.12
880.854	32.08
881.026	36.18
881.198	83.28
881.37	-2.73
881.542	17.75
881.714	-8.87
881.886	-31.4
882.058	-15.02
882.23	13.65
882.402	-19.11
882.574	-55.98
882.746	-2.73
882.918	30.04
883.09	9.56
883.262	1.37
883.434	7.51
883.606	32.08
883.778	-51.88
883.95	-6.83
884.122	40.28
884.293	54.61
884.465	91.48
884.637	75.09
884.809	-21.16
884.98	48.47
885.152	13.65
885.324	44.37
885.496	-23.21
885.667	-21.16
885.839	-6.83
886.011	46.42
886.182	-17.07
886.354	48.47
886.525	36.18
886.697	-51.88
886.869	-33.45
887.04	-29.35
887.212	44.37
887.383	140.63
887.555	-10.92
887.726	11.61
887.897	-68.27
888.069	21.85
888.24	17.75
888.412	46.42
888.583	5.46
888.754	73.04
888.926	1.37
889.097	23.89
889.268	-45.74
889.44	48.47
889.611	-55.98
889.782	13.65
889.953	-41.64
890.125	68.95
890.296	13.65
890.467	17.75
890.638	-66.22
890.809	19.8
890.98	-39.59
891.151	1.37
891.323	-6.83
891.494	-35.5
891.665	-55.98
891.836	-19.11
892.007	-0.68
892.178	21.85
892.349	15.7
892.52	81.24
892.691	17.75
892.862	-66.22
893.032	-31.4
893.203	15.7
893.374	-15.02
893.545	-2.73
893.716	-0.68
893.887	71
894.057	19.8
894.228	30.04
894.399	-27.31
894.57	64.85
894.74	21.85
894.911	-31.4
895.082	-15.02
895.253	-23.21
895.423	-74.41
895.594	122.2
895.764	42.32
895.935	25.94
896.106	25.94
896.276	21.85
896.447	32.08
896.617	-19.11
896.788	50.52
896.958	-41.64
897.129	38.23
897.299	-53.93
897.47	7.51
897.64	9.56
897.81	-4.78
897.981	32.08
898.151	1.37
898.322	21.85
898.492	11.61
898.662	-25.26
898.832	-39.59
899.003	38.23
899.173	-80.55
899.343	-6.83
899.513	-29.35
