Data from USB4F104151__152__10-26-59-362.txt Node

Date: Wed Mar 12 10:26:59 EDT 2025
User: louis
Spectrometer: USB4F10415
Trigger mode: 4
Integration Time (sec): 3.000000E-2
Scans to average: 1
Electric dark correction enabled: true
Nonlinearity correction enabled: false
Boxcar width: 0
XAxis mode: Wavelengths
Number of Pixels in Spectrum: 3648
>>>>>Begin Spectral Data<<<<<
178.204	-96.43
178.424	-96.43
178.644	-96.43
178.864	-123.05
179.084	-102.57
179.304	26.45
179.524	-12.46
179.744	8.02
179.964	36.69
180.184	1.88
180.404	-37.03
180.624	-75.95
180.844	14.17
181.064	1.88
181.283	1.88
181.503	14.17
181.723	20.31
181.943	-16.55
182.163	67.41
182.383	32.6
182.602	40.79
182.822	26.45
183.042	-16.55
183.262	3.93
183.482	5.97
183.701	-96.43
183.921	30.55
184.141	-10.41
184.361	44.88
184.58	-20.65
184.8	63.32
185.02	-18.6
185.239	46.93
185.459	-6.31
185.679	65.36
185.898	-20.65
186.118	18.26
186.338	-22.7
186.557	20.31
186.777	59.22
186.997	-51.37
187.216	-10.41
187.436	14.17
187.655	42.84
187.875	38.74
188.095	-12.46
188.314	102.23
188.534	-18.6
188.753	12.12
188.973	38.74
189.192	10.07
189.412	83.8
189.631	5.97
189.851	30.55
190.07	-51.37
190.29	-104.62
190.509	-14.51
190.729	-10.41
190.948	-45.23
191.168	153.43
191.387	59.22
191.607	-41.13
191.826	40.79
192.045	-41.13
192.265	22.36
192.484	65.36
192.704	32.6
192.923	-49.32
193.142	12.12
193.362	26.45
193.581	67.41
193.8	53.08
194.02	-49.32
194.239	1.88
194.458	10.07
194.678	8.02
194.897	18.26
195.116	-26.79
195.335	-30.89
195.555	8.02
195.774	24.4
195.993	-39.08
196.212	1.88
196.432	-86.19
196.651	53.08
196.87	28.5
197.089	65.36
197.308	26.45
197.528	38.74
197.747	-47.27
197.966	5.97
198.185	24.4
198.404	-6.31
198.623	30.55
198.842	-47.27
199.062	59.22
199.281	67.41
199.5	-14.51
199.719	-24.75
199.938	30.55
200.157	63.32
200.376	38.74
200.595	-20.65
200.814	91.99
201.033	40.79
201.252	53.08
201.471	-12.46
201.69	3.93
201.909	-6.31
202.128	-14.51
202.347	-10.41
202.566	-10.41
202.785	1.88
203.004	5.97
203.223	63.32
203.442	1.88
203.661	5.97
203.879	42.84
204.098	-4.27
204.317	8.02
204.536	36.69
204.755	34.64
204.974	59.22
205.193	36.69
205.411	73.56
205.63	-30.89
205.849	48.98
206.068	-30.89
206.287	16.21
206.505	38.74
206.724	44.88
206.943	24.4
207.162	-2.22
207.381	46.93
207.599	-86.19
207.818	30.55
208.037	3.93
208.255	-18.6
208.474	-18.6
208.693	-4.27
208.911	-63.66
209.13	20.31
209.349	42.84
209.567	-32.94
209.786	-6.31
210.005	40.79
210.223	14.17
210.442	8.02
210.661	42.84
210.879	10.07
211.098	28.5
211.316	12.12
211.535	24.4
211.753	-10.41
211.972	14.17
212.191	53.08
212.409	32.6
212.628	30.55
212.846	32.6
213.065	26.45
213.283	32.6
213.502	-57.51
213.72	-8.36
213.938	16.21
214.157	102.23
214.375	132.95
214.594	28.5
214.812	46.93
215.031	-26.79
215.249	42.84
215.467	-28.84
215.686	18.26
215.904	16.21
216.122	-0.17
216.341	-14.51
216.559	-51.37
216.778	30.55
216.996	10.07
217.214	-12.46
217.432	-104.62
217.651	10.07
217.869	-2.22
218.087	1.88
218.306	46.93
218.524	55.12
218.742	46.93
218.96	130.9
219.179	-6.31
219.397	3.93
219.615	71.51
219.833	34.64
220.051	10.07
220.27	34.64
220.488	24.4
220.706	14.17
220.924	-41.13
221.142	-49.32
221.36	28.5
221.578	36.69
221.796	20.31
222.015	12.12
222.233	75.6
222.451	75.6
222.669	16.21
222.887	75.6
223.105	-61.61
223.323	48.98
223.541	-6.31
223.759	71.51
223.977	-24.75
224.195	51.03
224.413	48.98
224.631	24.4
224.849	22.36
225.067	26.45
225.285	-26.79
225.503	-34.99
225.721	-47.27
225.939	42.84
226.157	24.4
226.375	122.71
226.592	3.93
226.81	-28.84
227.028	38.74
227.246	102.23
227.464	-59.56
227.682	106.32
227.9	67.41
228.117	22.36
228.335	-12.46
228.553	83.8
228.771	-14.51
228.989	51.03
229.206	53.08
229.424	-20.65
229.642	8.02
229.86	3.93
230.077	22.36
230.295	53.08
230.513	83.8
230.731	24.4
230.948	65.36
231.166	42.84
231.384	-47.27
231.601	1.88
231.819	53.08
232.037	-16.55
232.254	75.6
232.472	5.97
232.689	26.45
232.907	30.55
233.125	-0.17
233.342	-61.61
233.56	-32.94
233.777	-14.51
233.995	-34.99
234.213	34.64
234.43	26.45
234.648	-51.37
234.865	-37.03
235.083	44.88
235.3	18.26
235.518	-2.22
235.735	-2.22
235.953	79.7
236.17	-6.31
236.388	-18.6
236.605	22.36
236.822	53.08
237.04	38.74
237.257	24.4
237.475	-47.27
237.692	14.17
237.909	73.56
238.127	-6.31
238.344	-20.65
238.562	79.7
238.779	34.64
238.996	-24.75
239.214	-37.03
239.431	18.26
239.648	16.21
239.865	44.88
240.083	1.88
240.3	26.45
240.517	38.74
240.735	-53.42
240.952	-10.41
241.169	130.9
241.386	16.21
241.603	-18.6
241.821	-16.55
242.038	18.26
242.255	38.74
242.472	94.04
242.689	57.17
242.907	16.21
243.124	-65.71
243.341	14.17
243.558	26.45
243.775	-4.27
243.992	-41.13
244.209	34.64
244.426	24.4
244.643	87.89
244.86	10.07
245.078	16.21
245.295	-30.89
245.512	-18.6
245.729	14.17
245.946	81.75
246.163	-71.85
246.38	32.6
246.597	-43.18
246.814	14.17
247.031	3.93
247.248	18.26
247.464	5.97
247.681	-18.6
247.898	38.74
248.115	-16.55
248.332	34.64
248.549	28.5
248.766	51.03
248.983	34.64
249.2	30.55
249.417	34.64
249.633	-18.6
249.85	-65.71
250.067	18.26
250.284	18.26
250.501	51.03
250.717	61.27
250.934	5.97
251.151	-12.46
251.368	51.03
251.585	53.08
251.801	16.21
252.018	-8.36
252.235	12.12
252.451	-0.17
252.668	-18.6
252.885	65.36
253.102	71.51
253.318	34.64
253.535	-110.76
253.752	-34.99
253.968	-6.31
254.185	-14.51
254.401	-6.31
254.618	36.69
254.835	-18.6
255.051	38.74
255.268	30.55
255.484	-4.27
255.701	-8.36
255.917	40.79
256.134	1.88
256.351	-28.84
256.567	-16.55
256.784	42.84
257	-49.32
257.217	-24.75
257.433	-20.65
257.65	34.64
257.866	26.45
258.082	-34.99
258.299	-51.37
258.515	-39.08
258.732	18.26
258.948	10.07
259.165	10.07
259.381	-20.65
259.597	40.79
259.814	5.97
260.03	28.5
260.246	36.69
260.463	32.6
260.679	28.5
260.895	-53.42
261.112	-14.51
261.328	3.93
261.544	1.88
261.761	108.37
261.977	-10.41
262.193	10.07
262.409	-34.99
262.626	-4.27
262.842	-28.84
263.058	-30.89
263.274	85.84
263.49	24.4
263.707	10.07
263.923	26.45
264.139	26.45
264.355	18.26
264.571	5.97
264.787	-4.27
265.004	110.42
265.22	-2.22
265.436	22.36
265.652	-20.65
265.868	18.26
266.084	-16.55
266.3	34.64
266.516	-6.31
266.732	-34.99
266.948	-12.46
267.164	63.32
267.38	1.88
267.596	-30.89
267.812	48.98
268.028	48.98
268.244	-30.89
268.46	18.26
268.676	16.21
268.892	22.36
269.108	-30.89
269.324	-71.85
269.54	26.45
269.756	96.08
269.972	24.4
270.188	12.12
270.403	-22.7
270.619	-67.75
270.835	44.88
271.051	67.41
271.267	67.41
271.483	30.55
271.698	48.98
271.914	106.32
272.13	1.88
272.346	-8.36
272.562	48.98
272.777	59.22
272.993	81.75
273.209	-18.6
273.425	-16.55
273.64	24.4
273.856	46.93
274.072	24.4
274.287	22.36
274.503	24.4
274.719	20.31
274.934	32.6
275.15	-2.22
275.366	3.93
275.581	-53.42
275.797	91.99
276.012	26.45
276.228	26.45
276.444	30.55
276.659	30.55
276.875	-32.94
277.09	-20.65
277.306	26.45
277.521	-22.7
277.737	53.08
277.952	-0.17
278.168	-47.27
278.383	-6.31
278.599	1.88
278.814	28.5
279.03	67.41
279.245	75.6
279.461	-39.08
279.676	75.6
279.892	-12.46
280.107	5.97
280.322	-39.08
280.538	-22.7
280.753	-43.18
280.969	73.56
281.184	-75.95
281.399	71.51
281.615	18.26
281.83	-28.84
282.045	75.6
282.26	-26.79
282.476	-39.08
282.691	20.31
282.906	34.64
283.122	-6.31
283.337	1.88
283.552	-10.41
283.767	-57.51
283.983	-22.7
284.198	28.5
284.413	83.8
284.628	53.08
284.843	69.46
285.058	24.4
285.274	26.45
285.489	-4.27
285.704	-2.22
285.919	40.79
286.134	10.07
286.349	-49.32
286.564	5.97
286.779	46.93
286.995	40.79
287.21	-6.31
287.425	8.02
287.64	1.88
287.855	57.17
288.07	-14.51
288.285	30.55
288.5	75.6
288.715	116.56
288.93	32.6
289.145	-53.42
289.36	48.98
289.575	3.93
289.79	22.36
290.004	-0.17
290.219	71.51
290.434	-22.7
290.649	-18.6
290.864	14.17
291.079	10.07
291.294	22.36
291.509	-39.08
291.724	26.45
291.938	14.17
292.153	1.88
292.368	26.45
292.583	38.74
292.798	67.41
293.012	32.6
293.227	61.27
293.442	-16.55
293.657	20.31
293.871	1.88
294.086	8.02
294.301	-37.03
294.516	30.55
294.73	-28.84
294.945	-55.47
295.16	-49.32
295.374	-14.51
295.589	38.74
295.804	-16.55
296.018	-0.17
296.233	-10.41
296.447	53.08
296.662	-14.51
296.877	65.36
297.091	3.93
297.306	16.21
297.52	5.97
297.735	36.69
297.949	-24.75
298.164	44.88
298.378	48.98
298.593	26.45
298.807	-14.51
299.022	61.27
299.236	44.88
299.451	18.26
299.665	-24.75
299.88	14.17
300.094	-2.22
300.309	87.89
300.523	-2.22
300.737	20.31
300.952	18.26
301.166	-6.31
301.381	-0.17
301.595	-6.31
301.809	-8.36
302.024	3.93
302.238	10.07
302.452	57.17
302.667	36.69
302.881	100.18
303.095	32.6
303.309	-0.17
303.524	10.07
303.738	55.12
303.952	87.89
304.166	36.69
304.381	8.02
304.595	48.98
304.809	-2.22
305.023	-18.6
305.237	-55.47
305.452	-67.75
305.666	36.69
305.88	53.08
306.094	51.03
306.308	14.17
306.522	24.4
306.736	61.27
306.95	-4.27
307.164	-51.37
307.379	65.36
307.593	42.84
307.807	1.88
308.021	91.99
308.235	83.8
308.449	-14.51
308.663	20.31
308.877	53.08
309.091	-14.51
309.305	20.31
309.519	-8.36
309.733	-39.08
309.947	40.79
310.161	135
310.374	55.12
310.588	5.97
310.802	3.93
311.016	14.17
311.23	5.97
311.444	22.36
311.658	12.12
311.872	104.28
312.085	20.31
312.299	69.46
312.513	96.08
312.727	57.17
312.941	-22.7
313.154	32.6
313.368	114.52
313.582	112.47
313.796	53.08
314.009	22.36
314.223	100.18
314.437	65.36
314.651	-6.31
314.864	-6.31
315.078	8.02
315.292	-32.94
315.505	61.27
315.719	59.22
315.933	69.46
316.146	1.88
316.36	24.4
316.573	65.36
316.787	-22.7
317.001	63.32
317.214	8.02
317.428	18.26
317.641	-2.22
317.855	61.27
318.068	44.88
318.282	42.84
318.495	104.28
318.709	106.32
318.922	36.69
319.136	67.41
319.349	12.12
319.563	40.79
319.776	10.07
319.99	14.17
320.203	59.22
320.417	61.27
320.63	71.51
320.843	48.98
321.057	-4.27
321.27	-41.13
321.483	108.37
321.697	42.84
321.91	32.6
322.124	48.98
322.337	26.45
322.55	79.7
322.763	34.64
322.977	73.56
323.19	-73.9
323.403	34.64
323.617	46.93
323.83	28.5
324.043	-53.42
324.256	42.84
324.469	-24.75
324.683	32.6
324.896	-14.51
325.109	-22.7
325.322	-32.94
325.535	34.64
325.748	-6.31
325.962	-65.71
326.175	44.88
326.388	32.6
326.601	63.32
326.814	-14.51
327.027	20.31
327.24	38.74
327.453	36.69
327.666	124.76
327.879	-22.7
328.092	40.79
328.305	10.07
328.518	-80.04
328.731	8.02
328.944	-32.94
329.157	53.08
329.37	8.02
329.583	55.12
329.796	69.46
330.009	-49.32
330.222	83.8
330.435	55.12
330.648	42.84
330.861	18.26
331.073	-0.17
331.286	32.6
331.499	-57.51
331.712	-88.23
331.925	22.36
332.138	-28.84
332.35	149.33
332.563	14.17
332.776	55.12
332.989	-2.22
333.202	53.08
333.414	24.4
333.627	59.22
333.84	83.8
334.053	20.31
334.265	-16.55
334.478	26.45
334.691	67.41
334.903	128.85
335.116	-47.27
335.329	1.88
335.541	10.07
335.754	122.71
335.966	-80.04
336.179	20.31
336.392	40.79
336.604	-16.55
336.817	-14.51
337.029	53.08
337.242	59.22
337.454	38.74
337.667	65.36
337.88	40.79
338.092	71.51
338.305	55.12
338.517	-49.32
338.729	3.93
338.942	59.22
339.154	34.64
339.367	32.6
339.579	-4.27
339.792	-10.41
340.004	59.22
340.217	-16.55
340.429	44.88
340.641	42.84
340.854	10.07
341.066	14.17
341.278	61.27
341.491	75.6
341.703	24.4
341.915	22.36
342.128	91.99
342.34	51.03
342.552	30.55
342.764	-10.41
342.977	79.7
343.189	-14.51
343.401	10.07
343.613	-24.75
343.826	89.94
344.038	-45.23
344.25	51.03
344.462	1.88
344.674	44.88
344.886	38.74
345.099	24.4
345.311	18.26
345.523	65.36
345.735	30.55
345.947	83.8
346.159	40.79
346.371	26.45
346.583	46.93
346.795	87.89
347.007	32.6
347.219	55.12
347.431	-30.89
347.643	28.5
347.855	3.93
348.067	26.45
348.279	-39.08
348.491	-6.31
348.703	-0.17
348.915	10.07
349.127	18.26
349.339	34.64
349.551	55.12
349.763	-14.51
349.975	30.55
350.187	83.8
350.399	32.6
350.61	5.97
350.822	32.6
351.034	65.36
351.246	48.98
351.458	51.03
351.669	8.02
351.881	98.13
352.093	28.5
352.305	46.93
352.517	18.26
352.728	85.84
352.94	51.03
353.152	-8.36
353.363	26.45
353.575	16.21
353.787	-43.18
353.999	40.79
354.21	91.99
354.422	83.8
354.633	87.89
354.845	87.89
355.057	77.65
355.268	30.55
355.48	65.36
355.692	-41.13
355.903	-22.7
356.115	12.12
356.326	-32.94
356.538	34.64
356.749	8.02
356.961	59.22
357.172	16.21
357.384	42.84
357.595	-0.17
357.807	-32.94
358.018	59.22
358.23	51.03
358.441	61.27
358.653	-10.41
358.864	112.47
359.075	20.31
359.287	-24.75
359.498	-2.22
359.709	-18.6
359.921	-2.22
360.132	51.03
360.344	71.51
360.555	-32.94
360.766	46.93
360.977	-14.51
361.189	67.41
361.4	38.74
361.611	34.64
361.823	-8.36
362.034	42.84
362.245	-69.8
362.456	46.93
362.667	55.12
362.879	-28.84
363.09	-10.41
363.301	75.6
363.512	57.17
363.723	87.89
363.935	40.79
364.146	96.08
364.357	34.64
364.568	22.36
364.779	22.36
364.99	53.08
365.201	-18.6
365.412	18.26
365.623	-30.89
365.834	40.79
366.045	22.36
366.256	89.94
366.467	18.26
366.678	18.26
366.889	137.04
367.1	-22.7
367.311	3.93
367.522	-30.89
367.733	38.74
367.944	85.84
368.155	10.07
368.366	32.6
368.577	132.95
368.788	83.8
368.999	42.84
369.209	22.36
369.42	112.47
369.631	36.69
369.842	108.37
370.053	16.21
370.264	38.74
370.474	36.69
370.685	36.69
370.896	30.55
371.107	114.52
371.317	26.45
371.528	-6.31
371.739	59.22
371.95	42.84
372.16	-0.17
372.371	-30.89
372.582	16.21
372.792	22.36
373.003	-2.22
373.214	-55.47
373.424	59.22
373.635	14.17
373.846	67.41
374.056	83.8
374.267	36.69
374.477	67.41
374.688	81.75
374.898	51.03
375.109	1.88
375.319	-4.27
375.53	38.74
375.74	44.88
375.951	-14.51
376.161	57.17
376.372	81.75
376.582	-32.94
376.793	94.04
377.003	32.6
377.214	-39.08
377.424	-6.31
377.635	-0.17
377.845	10.07
378.055	53.08
378.266	-61.61
378.476	63.32
378.686	16.21
378.897	26.45
379.107	75.6
379.317	83.8
379.528	24.4
379.738	40.79
379.948	42.84
380.158	57.17
380.369	40.79
380.579	98.13
380.789	40.79
380.999	75.6
381.21	-75.95
381.42	91.99
381.63	114.52
381.84	-0.17
382.05	51.03
382.261	57.17
382.471	18.26
382.681	69.46
382.891	61.27
383.101	34.64
383.311	-41.13
383.521	-14.51
383.731	112.47
383.941	75.6
384.151	83.8
384.361	30.55
384.571	18.26
384.781	40.79
384.991	44.88
385.201	124.76
385.411	79.7
385.621	5.97
385.831	81.75
386.041	57.17
386.251	-47.27
386.461	38.74
386.671	-14.51
386.881	26.45
387.091	44.88
387.301	79.7
387.511	8.02
387.72	48.98
387.93	57.17
388.14	10.07
388.35	12.12
388.56	55.12
388.769	30.55
388.979	28.5
389.189	-4.27
389.399	32.6
389.609	34.64
389.818	-6.31
390.028	55.12
390.238	96.08
390.447	8.02
390.657	44.88
390.867	116.56
391.076	36.69
391.286	87.89
391.496	59.22
391.705	-0.17
391.915	48.98
392.125	57.17
392.334	96.08
392.544	55.12
392.753	83.8
392.963	46.93
393.172	32.6
393.382	71.51
393.591	81.75
393.801	83.8
394.01	75.6
394.22	-8.36
394.429	85.84
394.639	71.51
394.848	65.36
395.058	-14.51
395.267	18.26
395.477	104.28
395.686	30.55
395.895	112.47
396.105	112.47
396.314	96.08
396.524	83.8
396.733	40.79
396.942	100.18
397.152	147.28
397.361	112.47
397.57	26.45
397.78	61.27
397.989	130.9
398.198	120.66
398.407	89.94
398.617	14.17
398.826	77.65
399.035	83.8
399.244	75.6
399.453	34.64
399.663	102.23
399.872	65.36
400.081	102.23
400.29	178
400.499	38.74
400.708	173.91
400.917	69.46
401.127	212.82
401.336	75.6
401.545	157.52
401.754	145.24
401.963	116.56
402.172	67.41
402.381	51.03
402.59	89.94
402.799	122.71
403.008	241.49
403.217	149.33
403.426	87.89
403.635	75.6
403.844	94.04
404.053	198.48
404.262	63.32
404.471	83.8
404.68	128.85
404.888	171.86
405.097	155.47
405.306	135
405.515	157.52
405.724	141.14
405.933	112.47
406.142	149.33
406.35	190.29
406.559	175.95
406.768	169.81
406.977	223.06
407.185	171.86
407.394	198.48
407.603	155.47
407.812	237.39
408.02	296.78
408.229	266.07
408.438	255.83
408.646	188.24
408.855	229.2
409.064	274.26
409.272	272.21
409.481	253.78
409.69	333.65
409.898	286.54
410.107	268.11
410.315	307.02
410.524	325.46
410.733	382.8
410.941	386.9
411.15	333.65
411.358	341.84
411.567	399.18
411.775	477.01
411.984	483.15
412.192	491.34
412.401	440.14
412.609	390.99
412.818	474.96
413.026	530.25
413.234	524.11
413.443	517.97
413.651	532.3
413.86	618.32
414.068	696.14
414.276	634.7
414.485	595.79
414.693	646.99
414.901	704.33
415.11	720.71
415.318	649.04
415.526	751.43
415.734	825.16
415.943	784.2
416.151	866.12
416.359	776.01
416.567	884.55
416.776	896.84
416.984	1027.91
417.192	974.66
417.4	1017.67
417.608	1056.58
417.817	1050.44
418.025	1161.03
418.233	1232.71
418.441	1113.92
418.649	1175.36
418.857	1410.88
419.065	1251.14
419.273	1380.16
419.481	1419.07
419.689	1550.14
419.897	1460.03
420.105	1619.77
420.313	1611.58
420.521	1664.83
420.729	1877.82
420.937	1793.85
421.145	1767.23
421.353	1838.91
421.561	1992.5
421.769	2105.14
421.977	2113.33
422.185	2307.89
422.393	2142
422.601	2465.58
422.809	2516.78
423.017	2410.29
423.224	2600.75
423.432	2590.51
423.64	2617.13
423.848	2832.17
424.056	2875.18
424.263	3063.59
424.471	3098.41
424.679	3092.26
424.887	3295.01
425.094	3335.97
425.302	3401.51
425.51	3534.62
425.718	3477.28
425.925	3561.25
426.133	3626.78
426.341	3981.08
426.548	4134.68
426.756	4194.07
426.964	4192.02
427.171	4540.18
427.379	4654.86
427.586	4720.4
427.794	4837.13
428.001	4810.51
428.209	5347.08
428.417	5097.22
428.624	5351.17
428.832	5476.1
429.039	5457.67
429.247	5392.13
429.454	5873.4
429.662	6379.25
429.869	6018.81
430.076	6336.24
430.284	6133.5
430.491	6428.4
430.699	6833.9
430.906	6848.24
431.114	6901.48
431.321	7319.27
431.528	7368.42
431.736	7794.4
431.943	8091.35
432.15	7941.85
432.358	7997.15
432.565	8439.51
432.772	8462.04
432.979	8785.62
433.187	8994.51
433.394	9209.54
433.601	9567.94
433.808	9563.84
434.016	9619.14
434.223	10084.03
434.43	10589.88
434.637	10335.93
434.844	11071.15
435.052	11286.19
435.259	11241.13
435.466	11269.8
435.673	11122.35
435.88	11751.07
436.087	12373.66
436.294	12387.99
436.501	12248.73
436.708	12539.54
436.915	12990.1
437.122	13368.97
437.329	13497.99
437.537	13860.48
437.743	13829.76
437.95	13958.78
438.157	14501.5
438.364	15173.23
438.571	15308.4
438.778	15023.73
438.985	16387.68
439.192	16002.66
439.399	16608.86
439.606	16141.92
439.813	16893.52
440.02	17991.23
440.227	17657.42
440.433	17528.39
440.64	18124.35
440.847	18028.1
441.054	18263.61
441.261	19566.12
441.467	19332.65
441.674	19797.54
441.881	20444.7
442.088	20370.97
442.294	20143.65
442.501	20858.39
442.708	21251.6
442.914	22304.26
443.121	22939.13
443.328	22185.47
443.534	23801.32
443.741	23047.67
443.948	23162.36
444.154	24428
444.361	24145.38
444.568	24921.56
444.774	24896.99
444.981	24870.36
445.187	25730.51
445.394	26885.56
445.6	26475.97
445.807	28806.56
446.013	27518.39
446.22	28192.17
446.426	28974.49
446.633	29154.71
446.839	30143.88
447.046	29109.66
447.252	30707.07
447.459	30580.1
447.665	30418.31
447.871	31706.48
448.078	33174.88
448.284	31610.23
448.491	32413.03
448.697	33293.66
448.903	34248.01
449.11	34295.11
449.316	33269.08
449.522	34258.25
449.728	35220.8
449.935	35392.83
450.141	35102.01
450.347	36203.82
450.553	34983.23
450.76	35253.56
450.966	36373.8
451.172	35988.78
451.378	36797.73
451.584	35990.83
451.791	37014.82
451.997	36695.33
452.203	37199.13
452.409	37227.81
452.615	37164.32
452.821	35560.76
453.027	35495.22
453.233	37315.87
453.44	35644.73
453.646	36322.6
453.852	36175.15
454.058	37076.26
454.264	35501.37
454.47	36275.5
454.676	35179.84
454.882	36744.48
455.088	33348.95
455.294	33791.31
455.5	34514.25
455.705	34446.66
455.911	33215.83
456.117	32761.19
456.323	32003.44
456.529	30297.48
456.735	31765.87
456.941	30711.17
457.147	30514.56
457.352	29537.68
457.558	28978.59
457.764	29072.79
457.97	28779.93
458.176	27942.31
458.381	27907.5
458.587	26711.49
458.793	26592.7
458.999	24980.95
459.204	26742.21
459.41	26144.2
459.616	24688.09
459.821	24632.8
460.027	24215.01
460.233	23836.14
460.438	22433.28
460.644	23000.57
460.85	21726.73
461.055	21714.44
461.261	21376.53
461.466	20022.82
461.672	19279.41
461.878	20655.64
462.083	19371.57
462.289	18908.72
462.494	19002.93
462.7	18118.21
462.905	17638.98
463.111	18032.19
463.316	18339.39
463.522	17679.94
463.727	17942.08
463.932	17778.25
464.138	17659.46
464.343	17645.13
464.549	17204.81
464.754	17804.87
464.959	17538.63
465.165	17481.29
465.37	16715.35
465.575	16416.35
465.781	17065.55
465.986	16830.04
466.191	16553.56
466.397	16133.73
466.602	15447.66
466.807	15976.03
467.012	16217.69
467.218	15881.83
467.423	15591.02
467.628	15885.92
467.833	16361.05
468.038	15842.92
468.244	15490.66
468.449	15746.66
468.654	15339.12
468.859	15322.73
469.064	15275.63
469.269	14659.19
469.474	14638.71
469.679	15142.51
469.885	14677.62
470.09	15058.54
470.295	14712.44
470.5	14204.54
470.705	14376.57
470.91	13905.54
471.115	14071.42
471.32	14001.79
471.525	14018.18
471.73	13952.64
471.935	13819.52
472.139	13278.86
472.344	13518.47
472.549	13375.11
472.754	13178.51
472.959	12959.38
473.164	12701.33
473.369	12478.1
473.574	12936.85
473.778	12922.51
473.983	12545.69
474.188	12555.93
474.393	12064.41
474.598	12340.89
474.802	11966.11
475.007	11984.54
475.212	11894.43
475.417	11452.07
475.621	11503.27
475.826	11398.82
476.031	11308.71
476.235	11273.9
476.44	11374.25
476.645	11153.07
476.849	11085.48
477.054	10895.02
477.259	10647.22
477.463	10841.78
477.668	10415.8
477.872	10706.61
478.077	10309.3
478.282	10127.03
478.486	10122.94
478.691	10167.99
478.895	10122.94
479.1	10047.16
479.304	10016.44
479.509	9707.2
479.713	9799.36
479.918	9793.22
480.122	9625.28
480.326	9901.76
480.531	9604.8
480.735	9524.93
480.94	9639.62
481.144	9791.17
481.348	9385.67
481.553	9529.03
481.757	9307.85
481.961	9520.84
482.166	9723.58
482.37	9336.52
482.574	9172.68
482.778	9510.6
482.983	9479.88
483.187	9400.01
483.391	9516.74
483.595	9365.19
483.8	9060.04
484.004	9492.16
484.208	9434.82
484.412	9383.62
484.616	9465.54
484.821	9426.63
485.025	9082.57
485.229	9436.87
485.433	9375.43
485.637	9408.2
485.841	9275.08
486.045	9367.24
486.249	9434.82
486.453	9295.56
486.657	9400.01
486.861	9377.48
487.065	9219.78
487.269	9354.95
487.473	9205.45
487.677	9656
487.881	9526.98
488.085	9258.7
488.289	9381.57
488.493	9463.49
488.697	9334.47
488.901	9512.64
489.105	9537.22
489.309	9578.18
489.512	9522.88
489.716	9445.06
489.92	9635.52
490.124	9422.53
490.328	9633.47
490.531	9481.92
490.735	9907.9
490.939	9717.44
491.143	9770.69
491.346	9699.01
491.55	9793.22
491.754	9940.67
491.958	9846.46
492.161	9856.7
492.365	9868.99
492.569	9961.15
492.772	9889.47
492.976	9993.92
493.18	10030.78
493.383	10239.67
493.587	10299.06
493.79	10254.01
493.994	10145.47
494.197	10462.9
494.401	10542.77
494.605	10409.65
494.808	10610.36
495.012	10532.53
495.215	10802.86
495.419	10882.74
495.622	10733.23
495.825	10952.37
496.029	10927.79
496.232	10991.28
496.436	10903.21
496.639	11499.17
496.843	11413.16
497.046	11476.65
497.249	11724.45
497.453	11671.2
497.656	11998.88
497.859	11839.14
498.063	12238.49
498.266	12261.02
498.469	12361.37
498.673	12400.28
498.876	12549.78
499.079	12832.4
499.282	12721.81
499.485	13086.35
499.689	13133.45
499.892	13270.67
500.095	13500.04
500.298	13801.09
500.501	13774.47
500.705	13878.91
500.908	13901.44
501.111	14173.82
501.314	14134.91
501.517	14552.7
501.72	14462.58
501.923	14843.51
502.126	14814.84
502.329	14997.1
502.532	15310.44
502.735	15441.51
502.938	15658.6
503.141	15806.05
503.344	16068.19
503.547	16125.54
503.75	16518.75
503.953	16500.31
504.156	16569.94
504.359	16813.65
504.562	16975.44
504.765	17112.66
504.968	17241.68
505.17	17622.6
505.373	17569.35
505.576	18005.57
505.779	18144.83
505.982	18200.13
506.185	18353.73
506.387	18716.22
506.59	18998.84
506.793	19361.33
506.996	19121.71
507.198	19691.05
507.401	19422.76
507.604	19680.81
507.807	20405.79
508.009	20121.12
508.212	20524.57
508.415	20626.97
508.617	20874.77
508.82	20985.37
509.022	21034.52
509.225	21423.63
509.428	21638.67
509.63	22054.4
509.833	22478.33
510.035	22449.66
510.238	22201.86
510.44	22629.88
510.643	23082.49
510.845	23074.29
511.048	23117.3
511.25	23522.8
511.453	23864.81
511.655	24804.83
511.858	24399.33
512.06	24706.52
512.262	24526.3
512.465	24958.42
512.667	25554.38
512.87	25310.68
513.072	25433.55
513.274	26074.57
513.477	26305.99
513.679	26666.43
513.881	26398.15
514.084	27037.11
514.286	26932.67
514.488	27184.57
514.69	27790.77
514.893	27968.94
515.095	28181.93
515.297	28724.64
515.499	28282.28
515.701	29162.9
515.904	29017.5
516.106	29588.88
516.308	29855.12
516.51	30254.47
516.712	30072.2
516.914	30774.66
517.116	30731.65
517.318	31112.57
517.52	31288.7
517.722	31487.35
517.925	31786.35
518.127	32249.19
518.329	32724.32
518.531	31919.47
518.733	32687.46
518.935	32752.99
519.136	33324.38
519.338	33822.03
519.54	33920.34
519.742	34145.61
519.944	34336.07
520.146	34936.13
520.348	35376.44
520.55	35214.65
520.752	35527.99
520.954	36162.86
521.155	35769.65
521.357	36525.35
521.559	36658.47
521.761	37268.76
521.963	36949.28
522.164	37385.5
522.366	37647.64
522.568	37739.8
522.77	37836.05
522.971	38919.43
523.173	38329.61
523.375	38645
523.576	38337.8
523.778	39304.45
523.98	39314.69
524.181	39410.94
524.383	39777.53
524.584	40099.06
524.786	40021.23
524.988	39996.66
525.189	40547.56
525.391	40639.72
525.592	41024.74
525.794	41399.52
525.995	41247.97
526.197	41385.18
526.398	41833.69
526.6	41712.86
526.801	42222.8
527.003	42190.03
527.204	42208.47
527.406	42357.97
527.607	42151.12
527.808	43072.71
528.01	42153.17
528.211	42886.34
528.412	43412.67
528.614	43019.46
528.815	43349.18
529.016	43904.18
529.218	43400.38
529.419	43611.32
529.62	43680.95
529.822	43809.98
530.023	43939
530.224	44006.58
530.425	44225.71
530.626	43711.67
530.828	43803.83
531.029	44594.35
531.23	44221.62
531.431	44149.94
531.632	44682.41
531.833	44805.29
532.035	44426.42
532.236	44756.14
532.437	44879.02
532.638	44625.07
532.839	45429.92
533.04	45331.62
533.241	44266.67
533.442	45300.9
533.643	44770.47
533.844	44702.89
534.045	45255.84
534.246	44825.77
534.447	45522.08
534.648	45188.26
534.849	45364.39
535.05	45053.09
535.251	45100.2
535.451	45094.05
535.652	45044.9
535.853	45302.95
536.054	45337.76
536.255	45515.93
536.456	44936.36
536.657	45937.82
536.857	45345.95
537.058	45237.41
537.259	45683.87
537.46	45399.2
537.66	45092.01
537.861	45356.19
538.062	45126.82
538.263	45966.49
538.463	45233.32
538.664	45499.55
538.865	45864.09
539.065	45640.86
539.266	44952.74
539.466	45397.15
539.667	44700.84
539.868	46126.23
540.068	45225.12
540.269	45339.81
540.469	45499.55
540.67	44821.67
540.87	45321.38
541.071	45165.73
541.271	45583.52
541.472	45114.53
541.672	45153.44
541.873	45298.85
542.073	44604.59
542.274	45552.8
542.474	44795.05
542.675	44883.11
542.875	45452.45
543.075	44756.14
543.276	44717.23
543.476	45579.42
543.676	44975.27
543.877	45120.68
544.077	45427.87
544.277	45012.13
544.478	45126.82
544.678	45202.6
544.878	44854.44
545.078	45282.47
545.279	45141.16
545.479	44919.98
545.679	45542.56
545.879	45167.78
546.079	45337.76
546.28	45147.3
546.48	44735.66
546.68	45173.92
546.88	45501.6
547.08	45161.64
547.28	45335.71
547.48	44762.28
547.68	45081.77
547.88	44813.48
548.081	45141.16
548.281	44860.58
548.481	44520.62
548.681	45348
548.881	44819.63
549.081	44975.27
549.28	44377.26
549.48	45188.26
549.68	44795.05
549.88	45276.32
550.08	44498.09
550.28	45098.15
550.48	44516.53
550.68	44723.37
550.88	45053.09
551.08	44674.22
551.279	44721.32
551.479	44471.47
551.679	44967.08
551.879	44610.73
552.079	44899.5
552.278	44825.77
552.478	44571.82
552.678	44702.89
552.878	44424.37
553.077	44846.25
553.277	43939
553.477	44809.39
553.676	44485.81
553.876	44518.57
554.076	44281.01
554.275	44489.9
554.475	43994.29
554.674	44162.23
554.874	44326.06
555.074	43979.96
555.273	44381.36
555.473	44051.64
555.672	44170.42
555.872	44119.22
556.071	44002.49
556.271	44240.05
556.47	43664.57
556.67	43556.03
556.869	43678.91
557.068	44176.56
557.268	43566.27
557.467	43883.7
557.667	43695.29
557.866	43740.35
558.065	43515.07
558.265	43484.35
558.464	43500.73
558.663	43881.66
558.863	43275.46
559.062	43685.05
559.261	42714.31
559.461	43764.92
559.66	42984.65
559.859	43394.24
560.058	42785.99
560.258	42761.42
560.457	42822.86
560.656	43095.24
560.855	42742.99
561.054	42892.49
561.253	42392.78
561.453	42753.22
561.652	42622.15
561.851	42319.06
562.05	42622.15
562.249	42388.69
562.448	42521.8
562.647	42194.13
562.846	42185.94
563.045	42314.96
563.244	42018
563.443	42486.99
563.642	41323.74
563.841	42007.76
564.04	41491.68
564.239	42022.1
564.438	41598.17
564.637	41313.5
564.836	41684.19
565.035	41196.77
565.234	41438.43
565.432	41497.82
565.631	40516.84
565.83	41422.05
566.029	40705.26
566.228	41106.66
566.427	41080.03
566.625	40244.46
566.824	39914.74
567.023	40672.49
567.222	39949.56
567.42	40432.88
567.619	40340.72
567.818	40010.99
568.016	39820.53
568.215	40307.95
568.414	39664.89
568.612	40256.75
568.811	39628.02
569.01	39603.45
569.208	39126.27
569.407	39748.85
569.605	38520.07
569.804	39275.77
570.002	39177.47
570.201	39488.76
570.4	39073.03
570.598	38884.61
570.797	38847.75
570.995	38948.1
571.193	38493.45
571.392	38704.39
571.59	38198.54
571.789	38567.18
571.987	38333.71
572.186	38030.61
572.384	37944.59
572.582	38157.58
572.781	38075.66
572.979	37397.79
573.177	37600.54
573.376	37729.56
573.574	37416.22
573.772	37584.15
573.971	37365.02
574.169	37279
574.367	36996.38
574.565	37121.31
574.763	36707.62
574.962	36879.65
575.16	36560.17
575.358	36871.46
575.556	36396.33
575.754	36869.41
575.952	36527.4
576.151	36402.47
576.349	36017.46
576.547	36017.46
576.745	36242.73
576.943	36465.96
577.141	35953.97
577.339	35693.88
577.537	35403.07
577.735	35728.69
577.933	35351.87
578.131	35620.15
578.329	35208.51
578.527	35036.48
578.725	35044.67
578.923	35179.84
579.121	34970.94
579.319	34925.89
579.516	34794.82
579.714	35048.77
579.912	34606.41
580.11	34555.21
580.308	34940.22
580.506	34504.01
580.704	34088.27
580.901	34395.46
581.099	34291.02
581.297	34231.63
581.495	33770.83
581.692	33791.31
581.89	33748.31
582.088	34012.49
582.285	33709.39
582.483	34362.7
582.681	33326.42
582.878	33365.34
583.076	32941.41
583.274	33172.83
583.471	32812.38
583.669	33459.54
583.866	33295.71
584.064	33201.5
584.262	32597.35
584.459	32859.49
584.657	32529.76
584.854	33273.18
585.052	32310.63
585.249	32468.33
585.447	32443.75
585.644	31839.6
585.841	31886.7
586.039	32216.43
586.236	31671.67
586.434	31880.56
586.631	31710.58
586.828	31806.83
587.026	31430.01
587.223	31829.36
587.42	31499.64
587.618	31628.66
587.815	31282.55
588.012	31118.71
588.21	30997.88
588.407	31481.2
588.604	30942.59
588.801	30838.14
588.999	31141.24
589.196	30565.76
589.393	30635.39
589.59	30930.3
589.787	30524.8
589.984	30571.91
590.182	30074.25
590.379	30367.11
590.576	29640.08
590.773	30338.44
590.97	29881.74
591.167	30070.15
591.364	29494.68
591.561	29851.02
591.758	29373.85
591.955	29752.72
592.152	29752.72
592.349	29492.63
592.546	29468.05
592.743	29293.97
592.94	29189.53
593.137	28835.23
593.334	29549.97
593.531	28884.38
593.727	29392.28
593.924	28716.45
594.121	28593.57
594.318	28571.04
594.515	28370.34
594.712	28513.7
594.908	28728.73
595.105	28640.67
595.302	28278.18
595.499	28145.06
595.696	28046.76
595.892	27635.12
596.089	28179.88
596.286	28016.04
596.482	27706.8
596.679	27841.96
596.876	27491.76
597.072	27659.7
597.269	27653.55
597.466	27246.01
597.662	27155.89
597.859	27073.98
598.055	27129.27
598.252	26828.22
598.448	26934.71
598.645	26809.79
598.841	26461.63
599.038	27008.44
599.234	26707.39
599.431	26521.02
599.627	26602.94
599.824	26473.92
600.02	26361.28
600.217	26375.62
600.413	26222.02
600.609	25912.78
600.806	25908.68
601.002	26090.95
601.198	25750.99
601.395	25505.23
601.591	25519.57
601.787	25810.38
601.984	25365.97
602.18	25777.61
602.376	25550.29
602.572	25304.53
602.769	25411.03
602.965	25138.65
603.161	25001.43
603.357	24993.24
603.553	25091.54
603.75	25095.64
603.946	24837.59
604.142	25163.22
604.338	24622.56
604.534	24757.72
604.73	24409.57
604.926	24514.02
605.122	24354.27
605.318	24450.53
605.514	24280.55
605.71	24393.19
605.906	24301.03
606.102	23627.24
606.298	24169.96
606.494	23989.74
606.69	23817.71
606.886	23668.2
607.082	23748.07
607.278	23950.82
607.474	23358.96
607.67	23834.09
607.866	23188.98
608.062	23682.54
608.257	23318
608.453	23371.25
608.649	23371.25
608.845	23240.18
609.041	23019
609.236	23164.4
609.432	23221.75
609.628	23088.63
609.824	22785.53
610.019	23180.79
610.215	23053.81
610.411	22773.24
610.606	22611.45
610.802	22971.89
610.998	22617.6
611.193	22734.33
611.389	22722.04
611.584	22609.4
611.78	22380.03
611.976	22380.03
612.171	22400.51
612.367	22451.71
612.562	22220.29
612.758	22027.78
612.953	21904.9
613.149	22119.94
613.344	21984.77
613.539	22339.07
613.735	21980.68
613.93	22144.52
614.126	21960.2
614.321	22195.71
614.517	21904.9
614.712	22060.55
614.907	21612.04
615.103	21970.44
615.298	21483.02
615.493	21732.87
615.688	21470.73
615.884	21775.88
616.079	21202.45
616.274	21650.95
616.47	21280.27
616.665	21427.73
616.86	21380.62
617.055	21331.47
617.25	21259.79
617.445	21319.18
617.641	20942.36
617.836	21141.01
618.031	20991.51
618.226	21024.28
618.421	20590.11
618.616	20702.75
618.811	20487.71
619.006	20899.35
619.201	20241.95
619.396	20401.69
619.591	20358.69
619.786	20385.31
619.981	19949.09
620.176	20246.05
620.371	20026.92
620.566	20063.78
620.761	19713.58
620.956	19869.22
621.151	19760.68
621.346	19969.57
621.541	19318.32
621.735	19654.19
621.93	18951.73
622.125	19164.72
622.32	18871.86
622.515	19260.98
622.709	19113.52
622.904	19191.34
623.099	18679.35
623.294	18701.88
623.488	18454.08
623.683	18652.73
623.878	18486.84
624.072	18329.15
624.267	18316.86
624.462	18099.78
624.656	17960.52
624.851	18132.54
625.046	17651.27
625.24	17958.47
625.435	17620.55
625.629	17614.41
625.824	17462.86
626.018	17305.17
626.213	17118.8
626.407	17399.37
626.602	16621.14
626.796	16940.63
626.991	17190.48
627.185	16631.38
627.38	16764.5
627.574	16864.85
627.768	16461.4
627.963	16391.77
628.157	16164.45
628.352	16438.87
628.546	16055.9
628.74	16256.61
628.935	15873.64
629.129	16164.45
629.323	15789.67
629.517	15797.86
629.712	15627.88
629.906	15887.97
630.1	15380.07
630.294	15378.03
630.489	15214.19
630.683	15171.18
630.877	15158.89
631.071	15285.87
631.265	14915.19
631.459	15001.2
631.653	15025.78
631.848	14739.06
632.042	14640.76
632.236	14689.91
632.43	14601.85
632.624	14618.23
632.818	14616.18
633.012	14304.89
633.206	14290.56
633.4	14290.56
633.594	13936.26
633.788	14073.47
633.982	14009.98
634.176	13866.63
634.369	13829.76
634.563	13786.75
634.757	13672.07
634.951	13678.21
635.145	13446.79
635.339	13596.29
635.533	13536.9
635.726	13162.12
635.92	13184.65
636.114	13182.6
636.308	13231.76
636.501	13162.12
636.695	13033.1
636.889	12748.43
637.083	12975.76
637.276	12660.37
637.47	12643.99
637.664	12543.64
637.857	12654.23
638.051	12588.69
638.244	12451.48
638.438	12328.6
638.632	12492.44
638.825	12175
639.019	12078.75
639.212	12070.56
639.406	12002.97
639.599	12041.89
639.793	11691.68
639.986	12013.21
640.18	11679.4
640.373	11650.72
640.567	11593.38
640.76	11628.2
640.954	11450.02
641.147	11450.02
641.34	11253.42
641.534	11284.14
641.727	11263.66
641.92	11273.9
642.114	10921.65
642.307	11083.44
642.5	10978.99
642.694	10718.9
642.887	11024.05
643.08	10905.26
643.273	10757.81
643.467	10841.78
643.66	10477.24
643.853	10409.65
644.046	10770.1
644.239	10634.93
644.432	10528.44
644.626	10421.94
644.819	10264.25
645.012	10167.99
645.205	10180.28
645.398	10163.9
645.591	10092.22
645.784	10016.44
645.977	9914.05
646.17	9834.18
646.363	9817.79
646.556	9596.61
646.749	9615.04
646.942	9799.36
647.135	9756.35
647.328	9479.88
647.521	9522.88
647.714	9279.18
647.907	9301.7
648.099	9303.75
648.292	9443.01
648.485	9141.96
648.678	9250.5
648.871	9033.42
649.064	9025.23
649.256	9146.06
649.449	8951.5
649.642	8990.41
649.835	8883.92
650.027	8765.14
650.22	8906.45
650.413	8763.09
650.605	8675.02
650.798	8560.34
650.991	8685.26
651.183	8388.31
651.376	8361.69
651.568	8521.43
651.761	8404.69
651.954	8496.85
652.146	8578.77
652.339	8050.39
652.531	8314.58
652.724	8193.75
652.916	8036.06
653.109	8201.94
653.301	8066.78
653.494	7923.42
653.686	7913.18
653.879	8109.79
654.071	7780.06
654.263	7978.72
654.456	7792.35
654.648	7714.53
654.84	7661.28
655.033	7849.69
655.225	7681.76
655.417	7718.62
655.61	7630.56
655.802	7558.88
655.994	7347.94
656.186	7653.09
656.379	7382.76
656.571	7431.91
656.763	7196.39
656.955	7069.42
657.148	7309.03
657.34	7212.78
657.532	7153.38
657.724	7112.42
657.916	7118.57
658.108	7044.84
658.3	6993.64
658.492	6940.4
658.684	6954.73
658.876	6936.3
659.068	6768.37
659.26	6883.05
659.452	6891.24
659.644	6921.96
659.836	6758.13
660.028	6784.75
660.22	6504.18
660.412	6606.58
660.604	6717.17
660.796	6459.12
660.988	6526.71
661.18	6516.47
661.372	6334.2
661.563	6330.1
661.755	6305.53
661.947	6424.31
662.139	6272.76
662.331	6364.92
662.522	6108.92
662.714	6272.76
662.906	6221.56
663.097	6024.95
663.289	6039.29
663.481	6033.15
663.673	6084.34
663.864	5961.47
664.056	5955.32
664.247	5969.66
664.439	5830.4
664.631	5928.7
664.822	6027
665.014	5938.94
665.205	5803.77
665.397	5740.29
665.588	5691.13
665.78	5721.85
665.971	5637.89
666.163	5506.82
666.354	5615.36
666.546	5590.78
666.737	5443.33
666.929	5494.53
667.12	5332.74
667.311	5404.42
667.503	5371.65
667.694	5467.91
667.885	5455.62
668.077	5521.15
668.268	5320.45
668.459	5166.85
668.651	5250.82
668.842	5295.88
669.033	5232.39
669.224	5095.18
669.416	5154.57
669.607	4990.73
669.798	5203.72
669.989	5027.59
670.18	5091.08
670.371	5013.26
670.563	4884.23
670.754	5048.07
670.945	4853.52
671.136	4914.95
671.327	4781.84
671.518	4824.84
671.709	4996.87
671.9	4949.77
672.091	4802.32
672.282	4845.32
672.473	4661.01
672.664	4654.86
672.855	4740.88
673.046	4777.74
673.237	4742.92
673.428	4724.49
673.619	4585.23
673.809	4470.55
674	4534.03
674.191	4409.11
674.382	4718.35
674.573	4620.05
674.764	4609.81
674.954	4538.13
675.145	4480.78
675.336	4460.31
675.527	4480.78
675.717	4531.98
675.908	4308.76
676.099	4493.07
676.289	4470.55
676.48	4366.1
676.671	4427.54
676.861	4255.51
677.052	4294.42
677.243	4163.35
677.433	4239.12
677.624	4192.02
677.814	4325.14
678.005	4108.05
678.195	4181.78
678.386	4200.21
678.576	4085.53
678.767	4106.01
678.957	4138.77
679.148	4112.15
679.338	4085.53
679.529	4122.39
679.719	4161.3
679.909	4093.72
680.1	4063
680.29	4089.62
680.481	4054.81
680.671	3921.69
680.861	4028.18
681.052	3956.5
681.242	3868.44
681.432	3989.27
681.622	3847.96
681.813	3852.06
682.003	3974.94
682.193	3993.37
682.383	3884.83
682.573	3972.89
682.764	3938.07
682.954	3872.54
683.144	3940.12
683.334	3700.51
683.524	3792.67
683.714	3708.7
683.904	3663.65
684.094	3823.39
684.284	3628.83
684.474	3786.52
684.664	3798.81
684.854	3696.41
685.044	3616.54
685.234	3813.15
685.424	3684.13
685.614	3651.36
685.804	3688.22
685.994	3567.39
686.184	3639.07
686.374	3663.65
686.564	3649.31
686.753	3553.06
686.943	3491.62
687.133	3442.46
687.323	3409.7
687.513	3565.34
687.702	3399.46
687.892	3520.29
688.082	3540.77
688.272	3514.14
688.461	3481.38
688.651	3440.42
688.841	3428.13
689.03	3301.15
689.22	3360.55
689.41	3426.08
689.599	3358.5
689.789	3471.14
689.979	3383.07
690.168	3493.66
690.358	3292.96
690.547	3301.15
690.737	3401.51
690.926	3268.39
691.116	3215.14
691.305	3245.86
691.495	3221.28
691.684	3233.57
691.874	3303.2
692.063	3258.15
692.252	3211.04
692.442	3149.61
692.631	3112.74
692.82	3151.65
693.01	3125.03
693.199	3122.98
693.388	3198.76
693.578	3112.74
693.767	3125.03
693.956	3096.36
694.146	3012.39
694.335	3122.98
694.524	3114.79
694.713	3041.06
694.902	3063.59
695.092	3022.63
695.281	3041.06
695.47	2948.9
695.659	2948.9
695.848	3053.35
696.037	2901.8
696.226	3049.25
696.415	3024.68
696.604	3065.64
696.793	2981.67
696.982	3036.97
697.171	3004.2
697.36	2907.94
697.549	2871.08
697.738	2891.56
697.927	3018.54
698.116	3016.49
698.305	2895.66
698.494	2963.24
698.683	3053.35
698.872	3082.02
699.061	3002.15
699.25	2998.06
699.438	3094.31
699.627	2996.01
699.816	3014.44
700.005	2877.23
700.193	2881.32
700.382	2967.34
700.571	2983.72
700.76	3020.58
700.948	3016.49
701.137	2871.08
701.326	2955.05
701.514	2881.32
701.703	2916.14
701.892	3008.3
702.08	3032.87
702.269	3039.01
702.457	2946.86
702.646	2914.09
702.834	2944.81
703.023	2955.05
703.212	2823.98
703.4	2975.53
703.589	2924.33
703.777	2893.61
703.965	2955.05
704.154	2920.23
704.342	2920.23
704.531	2881.32
704.719	2817.83
704.907	2991.91
705.096	2844.46
705.284	2856.75
705.472	2891.56
705.661	2897.71
705.849	2971.43
706.037	3032.87
706.226	2854.7
706.414	2877.23
706.602	2797.35
706.79	2967.34
706.979	2840.36
707.167	2942.76
707.355	2926.38
707.543	2969.38
707.731	2932.52
707.919	2965.29
708.107	2942.76
708.296	2840.36
708.484	2746.16
708.672	3000.1
708.86	2959.14
709.048	2811.69
709.236	2959.14
709.424	2887.47
709.612	2852.65
709.8	2934.57
709.988	2848.55
710.176	2920.23
710.364	2877.23
710.551	2930.47
710.739	2998.06
710.927	2985.77
711.115	2787.11
711.303	2817.83
711.491	2817.83
711.679	2940.71
711.866	2760.49
712.054	2930.47
712.242	2877.23
712.43	2864.94
712.617	2920.23
712.805	2844.46
712.993	2948.9
713.181	2682.67
713.368	2899.75
713.556	2770.73
713.744	2760.49
713.931	2916.14
714.119	2873.13
714.306	2823.98
714.494	2842.41
714.682	2848.55
714.869	2830.12
715.057	2834.22
715.244	2805.55
715.432	2817.83
715.619	2907.94
715.807	2754.35
715.994	2795.31
716.182	2852.65
716.369	2860.84
716.556	2916.14
716.744	2754.35
716.931	2797.35
717.119	2893.61
717.306	2733.87
717.493	2848.55
717.681	2768.68
717.868	2862.89
718.055	2805.55
718.242	2811.69
718.43	2834.22
718.617	2850.6
718.804	2746.16
718.991	2772.78
719.179	2826.03
719.366	2805.55
719.553	2651.95
719.74	2774.83
719.927	2772.78
720.114	2725.68
720.301	2787.11
720.488	2783.02
720.676	2766.64
720.863	2744.11
721.05	2725.68
721.237	2555.69
721.424	2772.78
721.611	2823.98
721.798	2828.07
721.985	2762.54
722.172	2811.69
722.358	2778.92
722.545	2656.04
722.732	2660.14
722.919	2789.16
723.106	2684.72
723.293	2762.54
723.48	2643.76
723.667	2713.39
723.853	2703.15
724.04	2705.2
724.227	2766.64
724.414	2750.25
724.6	2688.81
724.787	2719.53
724.974	2850.6
725.161	2539.31
725.347	2570.03
725.534	2686.76
725.72	2647.85
725.907	2555.69
726.094	2713.39
726.28	2656.04
726.467	2633.52
726.653	2596.65
726.84	2541.36
727.027	2801.45
727.213	2537.26
727.4	2621.23
727.586	2756.4
727.773	2557.74
727.959	2484.02
728.145	2592.56
728.332	2596.65
728.518	2545.45
728.705	2543.41
728.891	2578.22
729.077	2557.74
729.264	2619.18
729.45	2406.19
729.636	2664.24
729.823	2541.36
730.009	2551.6
730.195	2582.32
730.382	2561.84
730.568	2502.45
730.754	2545.45
730.94	2447.15
731.126	2459.44
731.313	2578.22
731.499	2598.7
731.685	2486.06
731.871	2586.41
732.057	2488.11
732.243	2502.45
732.429	2500.4
732.615	2441.01
732.801	2621.23
732.987	2520.88
733.173	2500.4
733.359	2488.11
733.545	2496.3
733.731	2404.14
733.917	2418.48
734.103	2400.05
734.289	2471.73
734.475	2520.88
734.661	2420.53
734.847	2375.47
735.033	2447.15
735.219	2307.89
735.404	2408.24
735.59	2406.19
735.776	2256.69
735.962	2367.28
736.148	2391.86
736.333	2346.8
736.519	2416.43
736.705	2324.27
736.89	2279.22
737.076	2369.33
737.262	2289.46
737.447	2359.09
737.633	2178.87
737.819	2383.66
738.004	2223.92
738.19	2291.51
738.375	2209.59
738.561	2271.03
738.747	2213.68
738.932	2119.48
739.118	2289.46
739.303	2322.23
739.489	2236.21
739.674	2275.12
739.859	2221.88
740.045	2228.02
740.23	2225.97
740.416	2187.06
740.601	2162.48
740.786	2099
740.972	2131.76
741.157	2103.09
741.342	2045.75
741.528	2086.71
741.713	2064.18
741.898	2090.81
742.084	2096.95
742.269	2125.62
742.454	2066.23
742.639	2058.04
742.824	2082.61
743.01	2078.52
743.195	2062.13
743.38	1939.26
743.565	2066.23
743.75	1998.65
743.935	1931.06
744.12	1994.55
744.305	2078.52
744.49	1955.64
744.675	2033.46
744.86	2015.03
745.045	1875.77
745.23	1918.78
745.415	1886.01
745.6	1886.01
745.785	1994.55
745.97	1898.3
746.155	1908.54
746.34	1820.47
746.525	1830.71
746.71	1900.34
746.895	1767.23
747.079	1795.9
747.264	1836.86
747.449	1806.14
747.634	1771.32
747.819	1859.38
748.003	1843
748.188	1730.36
748.373	1822.52
748.557	1744.7
748.742	1808.19
748.927	1634.11
749.111	1691.45
749.296	1615.68
749.481	1662.78
749.665	1779.51
749.85	1705.79
750.034	1593.15
750.219	1593.15
750.404	1656.64
750.588	1605.44
750.773	1670.97
750.957	1539.9
751.141	1638.2
751.326	1537.85
751.51	1552.19
751.695	1574.72
751.879	1607.48
752.064	1548.09
752.248	1523.52
752.432	1574.72
752.617	1523.52
752.801	1386.3
752.985	1554.24
753.17	1480.51
753.354	1437.5
753.538	1396.54
753.722	1337.15
753.907	1384.26
754.091	1341.25
754.275	1378.11
754.459	1353.54
754.643	1394.5
754.828	1392.45
755.012	1396.54
755.196	1386.3
755.38	1279.81
755.564	1326.91
755.748	1212.23
755.932	1345.34
756.116	1347.39
756.3	1197.89
756.484	1302.34
756.668	1386.3
756.852	1220.42
757.036	1181.51
757.22	1388.35
757.404	1335.1
757.588	1191.75
757.772	1230.66
757.956	1193.8
758.14	1242.95
758.323	1232.71
758.507	1285.95
758.691	1236.8
758.875	1222.47
759.059	1177.41
759.242	1308.48
759.426	1115.97
759.61	1232.71
759.794	1118.02
759.977	1212.23
760.161	1130.31
760.345	1146.69
760.528	1083.2
760.712	1134.4
760.895	1128.26
761.079	1107.78
761.263	1056.58
761.446	1083.2
761.63	1005.38
761.813	1075.01
761.997	1093.44
762.18	1032.01
762.364	1095.49
762.547	1032.01
762.731	1077.06
762.914	1029.96
763.098	1077.06
763.281	974.66
763.464	1042.25
763.648	1115.97
763.831	1003.33
764.015	902.98
764.198	980.81
764.381	943.94
764.564	976.71
764.748	954.18
764.931	970.57
765.114	941.89
765.297	884.55
765.481	919.37
765.664	966.47
765.847	952.13
766.03	1095.49
766.213	943.94
766.397	933.7
766.58	968.52
766.763	1070.92
766.946	890.7
767.129	921.42
767.312	911.18
767.495	876.36
767.678	923.46
767.861	950.09
768.044	909.13
768.227	954.18
768.41	939.85
768.593	886.6
768.776	886.6
768.959	931.66
769.142	927.56
769.324	943.94
769.507	919.37
769.69	829.26
769.873	902.98
770.056	968.52
770.239	911.18
770.421	843.59
770.604	896.84
770.787	872.26
770.97	845.64
771.152	909.13
771.335	859.98
771.518	833.35
771.7	962.37
771.883	767.82
772.066	882.5
772.248	905.03
772.431	841.54
772.613	788.3
772.796	821.06
772.978	859.98
773.161	782.15
773.343	771.91
773.526	814.92
773.708	794.44
773.891	870.22
774.073	739.15
774.256	802.63
774.438	786.25
774.621	722.76
774.803	757.58
774.985	730.95
775.168	812.87
775.35	841.54
775.532	765.77
775.715	683.85
775.897	776.01
776.079	665.42
776.261	747.34
776.444	702.28
776.626	757.58
776.808	724.81
776.99	704.33
777.173	780.11
777.355	675.66
777.537	694.09
777.719	667.47
777.901	636.75
778.083	603.98
778.265	720.71
778.447	634.7
778.629	538.45
778.811	632.65
778.993	622.41
779.175	632.65
779.357	675.66
779.539	606.03
779.721	589.64
779.903	622.41
780.085	583.5
780.267	587.6
780.449	640.84
780.631	638.8
780.812	597.84
780.994	595.79
781.176	669.52
781.358	620.36
781.54	628.56
781.721	558.92
781.903	526.16
782.085	544.59
782.267	587.6
782.448	622.41
782.63	526.16
782.812	526.16
782.993	610.12
783.175	495.44
783.357	571.21
783.538	493.39
783.72	520.01
783.901	505.68
784.083	546.64
784.264	632.65
784.446	501.58
784.627	515.92
784.809	415.57
784.99	477.01
785.172	483.15
785.353	434
785.535	479.05
785.716	436.05
785.897	347.98
786.079	384.85
786.26	468.81
786.441	456.53
786.623	479.05
786.804	421.71
786.985	450.38
787.167	413.52
787.348	411.47
787.529	419.66
787.71	382.8
787.891	517.97
788.073	358.22
788.254	386.9
788.435	431.95
788.616	419.66
788.797	450.38
788.978	450.38
789.159	489.29
789.34	425.81
789.522	345.94
789.703	384.85
789.884	407.38
790.065	376.66
790.246	382.8
790.427	319.31
790.607	354.13
790.788	419.66
790.969	259.92
791.15	427.85
791.331	364.37
791.512	294.74
791.693	384.85
791.874	370.51
792.054	319.31
792.235	452.43
792.416	339.79
792.597	345.94
792.778	399.18
792.958	378.7
793.139	331.6
793.32	366.42
793.5	304.98
793.681	380.75
793.862	386.9
794.042	292.69
794.223	276.31
794.404	374.61
794.584	296.78
794.765	214.87
794.945	313.17
795.126	247.63
795.306	315.22
795.487	274.26
795.667	280.4
795.848	257.87
796.028	292.69
796.209	343.89
796.389	327.5
796.57	327.5
796.75	245.59
796.93	350.03
797.111	311.12
797.291	307.02
797.471	276.31
797.652	298.83
797.832	286.54
798.012	284.5
798.192	237.39
798.373	202.58
798.553	294.74
798.733	198.48
798.913	233.3
799.093	270.16
799.274	231.25
799.454	243.54
799.634	247.63
799.814	251.73
799.994	302.93
800.174	229.2
800.354	280.4
800.534	245.59
800.714	261.97
800.894	186.19
801.074	180.05
801.254	210.77
801.434	274.26
801.614	278.35
801.794	143.19
801.974	757.58
802.154	163.67
802.334	247.63
802.514	194.39
802.693	253.78
802.873	247.63
803.053	298.83
803.233	212.82
803.413	259.92
803.592	216.91
803.772	227.15
803.952	196.43
804.131	157.52
804.311	202.58
804.491	370.51
804.67	157.52
804.85	173.91
805.03	165.71
805.209	229.2
805.389	169.81
805.568	227.15
805.748	253.78
805.928	276.31
806.107	184.15
806.287	161.62
806.466	145.24
806.646	161.62
806.825	149.33
807.004	149.33
807.184	231.25
807.363	253.78
807.543	141.14
807.722	206.67
807.901	137.04
808.081	206.67
808.26	100.18
808.439	157.52
808.619	216.91
808.798	167.76
808.977	141.14
809.156	227.15
809.336	182.1
809.515	178
809.694	208.72
809.873	210.77
810.052	153.43
810.231	206.67
810.411	214.87
810.59	221.01
810.769	147.28
810.948	182.1
811.127	153.43
811.306	143.19
811.485	196.43
811.664	145.24
811.843	96.08
812.022	120.66
812.201	116.56
812.38	147.28
812.559	190.29
812.737	206.67
812.916	145.24
813.095	182.1
813.274	44.88
813.453	81.75
813.632	188.24
813.811	130.9
813.989	51.03
814.168	171.86
814.347	122.71
814.526	200.53
814.704	51.03
814.883	180.05
815.062	108.37
815.24	182.1
815.419	108.37
815.598	83.8
815.776	57.17
815.955	141.14
816.133	118.61
816.312	137.04
816.49	24.4
816.669	104.28
816.847	108.37
817.026	124.76
817.204	114.52
817.383	153.43
817.561	124.76
817.74	157.52
817.918	87.89
818.097	59.22
818.275	132.95
818.453	196.43
818.632	130.9
818.81	122.71
818.988	87.89
819.167	112.47
819.345	135
819.523	57.17
819.701	163.67
819.879	128.85
820.058	149.33
820.236	98.13
820.414	198.48
820.592	65.36
820.77	120.66
820.948	135
821.127	100.18
821.305	169.81
821.483	75.6
821.661	71.51
821.839	130.9
822.017	120.66
822.195	71.51
822.373	91.99
822.551	108.37
822.729	159.57
822.907	89.94
823.085	69.46
823.262	143.19
823.44	24.4
823.618	32.6
823.796	79.7
823.974	122.71
824.152	16.21
824.329	130.9
824.507	194.39
824.685	81.75
824.863	53.08
825.04	87.89
825.218	161.62
825.396	104.28
825.574	128.85
825.751	124.76
825.929	132.95
826.107	16.21
826.284	96.08
826.462	91.99
826.639	96.08
826.817	141.14
826.994	67.41
827.172	67.41
827.349	165.71
827.527	12.12
827.704	114.52
827.882	110.42
828.059	120.66
828.237	10.07
828.414	81.75
828.591	22.36
828.769	114.52
828.946	8.02
829.124	81.75
829.301	18.26
829.478	116.56
829.655	100.18
829.833	171.86
830.01	55.12
830.187	71.51
830.364	126.8
830.542	165.71
830.719	30.55
830.896	46.93
831.073	83.8
831.25	108.37
831.427	180.05
831.604	48.98
831.782	53.08
831.959	114.52
832.136	61.27
832.313	46.93
832.49	85.84
832.667	102.23
832.844	102.23
833.021	87.89
833.198	75.6
833.374	57.17
833.551	38.74
833.728	-4.27
833.905	155.47
834.082	28.5
834.259	96.08
834.436	98.13
834.612	51.03
834.789	65.36
834.966	36.69
835.143	53.08
835.319	44.88
835.496	16.21
835.673	12.12
835.85	32.6
836.026	83.8
836.203	26.45
836.38	-41.13
836.556	18.26
836.733	87.89
836.909	67.41
837.086	77.65
837.262	3.93
837.439	-26.79
837.616	94.04
837.792	5.97
837.968	63.32
838.145	67.41
838.321	18.26
838.498	26.45
838.674	36.69
838.851	-0.17
839.027	53.08
839.203	30.55
839.38	48.98
839.556	59.22
839.732	42.84
839.909	65.36
840.085	67.41
840.261	18.26
840.437	71.51
840.614	55.12
840.79	38.74
840.966	96.08
841.142	71.51
841.318	87.89
841.494	30.55
841.671	67.41
841.847	28.5
842.023	22.36
842.199	69.46
842.375	89.94
842.551	51.03
842.727	22.36
842.903	67.41
843.079	30.55
843.255	69.46
843.431	139.09
843.607	67.41
843.783	-71.85
843.959	-16.55
844.134	-10.41
844.31	104.28
844.486	14.17
844.662	122.71
844.838	46.93
845.013	22.36
845.189	-2.22
845.365	14.17
845.541	10.07
845.716	55.12
845.892	98.13
846.068	69.46
846.244	-8.36
846.419	116.56
846.595	32.6
846.77	18.26
846.946	14.17
847.122	98.13
847.297	24.4
847.473	98.13
847.648	24.4
847.824	83.8
847.999	-14.51
848.175	-10.41
848.35	73.56
848.526	5.97
848.701	55.12
848.876	22.36
849.052	46.93
849.227	77.65
849.403	-0.17
849.578	-20.65
849.753	51.03
849.929	38.74
850.104	61.27
850.279	51.03
850.454	26.45
850.63	-2.22
850.805	83.8
850.98	-12.46
851.155	55.12
851.33	38.74
851.505	-10.41
851.681	81.75
851.856	51.03
852.031	14.17
852.206	79.7
852.381	1.88
852.556	-20.65
852.731	48.98
852.906	16.21
853.081	26.45
853.256	73.56
853.431	75.6
853.606	20.31
853.781	-63.66
853.956	-41.13
854.131	18.26
854.305	-22.7
854.48	14.17
854.655	30.55
854.83	32.6
855.005	75.6
855.18	18.26
855.354	18.26
855.529	-0.17
855.704	44.88
855.879	3.93
856.053	-43.18
856.228	-16.55
856.403	24.4
856.577	-30.89
856.752	-14.51
856.926	-8.36
857.101	28.5
857.276	32.6
857.45	-32.94
857.625	59.22
857.799	3.93
857.974	24.4
858.148	-55.47
858.323	18.26
858.497	42.84
858.672	3.93
858.846	55.12
859.02	32.6
859.195	22.36
859.369	-12.46
859.543	-2.22
859.718	-30.89
859.892	1.88
860.066	-2.22
860.241	-8.36
860.415	-10.41
860.589	-4.27
860.763	51.03
860.938	-12.46
861.112	-59.56
861.286	12.12
861.46	-2.22
861.634	-10.41
861.808	114.52
861.982	69.46
862.157	-24.75
862.331	14.17
862.505	-59.56
862.679	18.26
862.853	55.12
863.027	-100.52
863.201	26.45
863.375	-22.7
863.549	34.64
863.722	-28.84
863.896	5.97
864.07	-37.03
864.244	18.26
864.418	28.5
864.592	-6.31
864.766	32.6
864.939	-6.31
865.113	-20.65
865.287	18.26
865.461	3.93
865.634	1.88
865.808	20.31
865.982	10.07
866.156	10.07
866.329	-41.13
866.503	16.21
866.676	-6.31
866.85	38.74
867.024	3.93
867.197	-20.65
867.371	-67.75
867.544	26.45
867.718	-20.65
867.891	34.64
868.065	-34.99
868.238	5.97
868.412	36.69
868.585	-77.99
868.759	-57.51
868.932	-26.79
869.105	-0.17
869.279	44.88
869.452	-16.55
869.625	-16.55
869.799	57.17
869.972	22.36
870.145	12.12
870.319	8.02
870.492	-14.51
870.665	-6.31
870.838	3.93
871.011	-16.55
871.185	10.07
871.358	-8.36
871.531	16.21
871.704	55.12
871.877	32.6
872.05	-22.7
872.223	-57.51
872.396	40.79
872.569	-2.22
872.742	-12.46
872.915	46.93
873.088	-32.94
873.261	-24.75
873.434	-14.51
873.607	59.22
873.78	-37.03
873.953	-30.89
874.126	-20.65
874.299	1.88
874.471	-39.08
874.644	14.17
874.817	-10.41
874.99	-20.65
875.163	-0.17
875.335	16.21
875.508	-12.46
875.681	42.84
875.853	-8.36
876.026	18.26
876.199	40.79
876.371	-6.31
876.544	-80.04
876.717	-16.55
876.889	-71.85
877.062	36.69
877.234	-63.66
877.407	-43.18
877.579	5.97
877.752	16.21
877.924	28.5
878.097	34.64
878.269	30.55
878.442	20.31
878.614	16.21
878.786	3.93
878.959	22.36
879.131	-22.7
879.303	-51.37
879.476	53.08
879.648	-47.27
879.82	1.88
879.993	-49.32
880.165	-8.36
880.337	-47.27
880.509	18.26
880.681	-18.6
880.854	-49.32
881.026	10.07
881.198	1.88
881.37	51.03
881.542	-2.22
881.714	-47.27
881.886	-4.27
882.058	1.88
882.23	-10.41
882.402	-84.14
882.574	55.12
882.746	-14.51
882.918	32.6
883.09	16.21
883.262	-55.47
883.434	-92.33
883.606	-55.47
883.778	-112.81
883.95	-28.84
884.122	22.36
884.293	44.88
884.465	8.02
884.637	40.79
884.809	-47.27
884.98	-6.31
885.152	44.88
885.324	28.5
885.496	32.6
885.667	-37.03
885.839	8.02
886.011	40.79
886.182	-118.95
886.354	55.12
886.525	-30.89
886.697	-0.17
886.869	5.97
887.04	8.02
887.212	-80.04
887.383	3.93
887.555	-4.27
887.726	-20.65
887.897	-57.51
888.069	-47.27
888.24	-47.27
888.412	-57.51
888.583	53.08
888.754	-12.46
888.926	-57.51
889.097	-14.51
889.268	51.03
889.44	22.36
889.611	-0.17
889.782	30.55
889.953	-14.51
890.125	8.02
890.296	1.88
890.467	-6.31
890.638	-37.03
890.809	91.99
890.98	8.02
891.151	-4.27
891.323	8.02
891.494	-2.22
891.665	40.79
891.836	-61.61
892.007	-2.22
892.178	30.55
892.349	-18.6
892.52	20.31
892.691	-39.08
892.862	-55.47
893.032	8.02
893.203	-59.56
893.374	-98.47
893.545	-6.31
893.716	-41.13
893.887	-59.56
894.057	-18.6
894.228	10.07
894.399	-32.94
894.57	48.98
894.74	-20.65
894.911	-20.65
895.082	32.6
895.253	51.03
895.423	-26.79
895.594	-59.56
895.764	-26.79
895.935	-51.37
896.106	3.93
896.276	-22.7
896.447	-53.42
896.617	-37.03
896.788	-2.22
896.958	-4.27
897.129	-12.46
897.299	-10.41
897.47	16.21
897.64	-6.31
897.81	-49.32
897.981	-4.27
898.151	-34.99
898.322	16.21
898.492	22.36
898.662	-14.51
898.832	-8.36
899.003	14.17
899.173	18.26
899.343	51.03
899.513	-32.94
