Data from USB4F104151__208__10-29-51-424.txt Node

Date: Wed Mar 12 10:29:51 EDT 2025
User: louis
Spectrometer: USB4F10415
Trigger mode: 4
Integration Time (sec): 3.000000E-2
Scans to average: 1
Electric dark correction enabled: true
Nonlinearity correction enabled: false
Boxcar width: 0
XAxis mode: Wavelengths
Number of Pixels in Spectrum: 3648
>>>>>Begin Spectral Data<<<<<
178.204	-119.12
178.424	-119.12
178.644	-119.12
178.864	-135.51
179.084	-84.31
179.304	-90.45
179.524	38.57
179.744	-26.96
179.964	-4.44
180.184	1.71
180.404	46.76
180.624	-10.58
180.844	13.99
181.064	-51.54
181.283	7.85
181.503	18.09
181.723	57
181.943	-14.68
182.163	36.52
182.383	44.71
182.602	-6.49
182.822	5.8
183.042	67.24
183.262	-18.77
183.482	-51.54
183.701	-37.2
183.921	65.19
184.141	-2.39
184.361	110.25
184.58	26.28
184.8	1.71
185.02	65.19
185.239	138.92
185.459	7.85
185.679	40.62
185.898	28.33
186.118	46.76
186.338	-10.58
186.557	-4.44
186.777	-35.16
186.997	-22.87
187.216	1.71
187.436	57
187.655	5.8
187.875	-6.49
188.095	-63.83
188.314	-29.01
188.534	100.01
188.753	-0.34
188.973	42.67
189.192	42.67
189.412	-29.01
189.631	26.28
189.851	1.71
190.07	-78.16
190.29	-4.44
190.509	67.24
190.729	-24.92
190.948	38.57
191.168	102.06
191.387	9.9
191.607	30.38
191.826	48.81
192.045	-47.44
192.265	-47.44
192.484	40.62
192.704	24.23
192.923	-37.2
193.142	11.95
193.362	57
193.581	89.77
193.8	71.34
194.02	-8.53
194.239	20.14
194.458	97.96
194.678	3.75
194.897	-31.06
195.116	11.95
195.335	54.95
195.555	-47.44
195.774	-18.77
195.993	26.28
196.212	-37.2
196.432	-45.4
196.651	-14.68
196.87	-35.16
197.089	52.91
197.308	-8.53
197.528	-16.73
197.747	-18.77
197.966	-33.11
198.185	-24.92
198.404	16.04
198.623	38.57
198.842	-22.87
199.062	40.62
199.281	81.58
199.5	7.85
199.719	-14.68
199.938	30.38
200.157	-4.44
200.376	44.71
200.595	-33.11
200.814	5.8
201.033	44.71
201.252	-10.58
201.471	57
201.69	50.86
201.909	-0.34
202.128	73.39
202.347	30.38
202.566	-41.3
202.785	38.57
203.004	-63.83
203.223	44.71
203.442	11.95
203.661	40.62
203.879	79.53
204.098	42.67
204.317	-67.92
204.536	48.81
204.755	71.34
204.974	13.99
205.193	5.8
205.411	71.34
205.63	11.95
205.849	-2.39
206.068	-41.3
206.287	-29.01
206.505	18.09
206.724	20.14
206.943	-41.3
207.162	67.24
207.381	26.28
207.599	5.8
207.818	-53.59
208.037	-10.58
208.255	-57.68
208.474	-18.77
208.693	28.33
208.911	18.09
209.13	52.91
209.349	-10.58
209.567	54.95
209.786	44.71
210.005	30.38
210.223	-0.34
210.442	18.09
210.661	-12.63
210.879	-24.92
211.098	1.71
211.316	30.38
211.535	61.1
211.753	30.38
211.972	5.8
212.191	13.99
212.409	61.1
212.628	-47.44
212.846	26.28
213.065	104.11
213.283	44.71
213.502	-10.58
213.72	75.43
213.938	83.63
214.157	-10.58
214.375	38.57
214.594	-2.39
214.812	91.82
215.031	-2.39
215.249	-4.44
215.467	11.95
215.686	-14.68
215.904	63.15
216.122	46.76
216.341	28.33
216.559	65.19
216.778	42.67
216.996	-2.39
217.214	52.91
217.432	26.28
217.651	-61.78
217.869	46.76
218.087	18.09
218.306	-10.58
218.524	36.52
218.742	-37.2
218.96	38.57
219.179	-12.63
219.397	38.57
219.615	75.43
219.833	16.04
220.051	5.8
220.27	38.57
220.488	67.24
220.706	9.9
220.924	13.99
221.142	7.85
221.36	1.71
221.578	38.57
221.796	71.34
222.015	5.8
222.233	28.33
222.451	50.86
222.669	1.71
222.887	100.01
223.105	-16.73
223.323	22.19
223.541	-26.96
223.759	22.19
223.977	46.76
224.195	120.49
224.413	34.47
224.631	30.38
224.849	36.52
225.067	59.05
225.285	34.47
225.503	3.75
225.721	22.19
225.939	-35.16
226.157	40.62
226.375	128.68
226.592	11.95
226.81	50.86
227.028	46.76
227.246	71.34
227.464	54.95
227.682	85.67
227.9	24.23
228.117	-24.92
228.335	106.15
228.553	36.52
228.771	28.33
228.989	147.11
229.206	-53.59
229.424	54.95
229.642	-8.53
229.86	57
230.077	42.67
230.295	-8.53
230.513	71.34
230.731	22.19
230.948	-4.44
231.166	104.11
231.384	1.71
231.601	-39.25
231.819	61.1
232.037	-8.53
232.254	-69.97
232.472	69.29
232.689	-6.49
232.907	26.28
233.125	-35.16
233.342	-8.53
233.56	-51.54
233.777	9.9
233.995	-6.49
234.213	5.8
234.43	32.43
234.648	22.19
234.865	32.43
235.083	28.33
235.3	36.52
235.518	40.62
235.735	-16.73
235.953	38.57
236.17	-4.44
236.388	-4.44
236.605	-24.92
236.822	38.57
237.04	-14.68
237.257	26.28
237.475	-18.77
237.692	16.04
237.909	46.76
238.127	-43.35
238.344	40.62
238.562	46.76
238.779	-59.73
238.996	83.63
239.214	38.57
239.431	-41.3
239.648	-26.96
239.865	50.86
240.083	85.67
240.3	9.9
240.517	-51.54
240.735	54.95
240.952	73.39
241.169	50.86
241.386	-14.68
241.603	-57.68
241.821	34.47
242.038	44.71
242.255	30.38
242.472	9.9
242.689	-18.77
242.907	20.14
243.124	-39.25
243.341	3.75
243.558	-61.78
243.775	-24.92
243.992	-0.34
244.209	28.33
244.426	100.01
244.643	67.24
244.86	67.24
245.078	-20.82
245.295	63.15
245.512	36.52
245.729	-8.53
245.946	30.38
246.163	9.9
246.38	63.15
246.597	-51.54
246.814	3.75
247.031	26.28
247.248	1.71
247.464	-14.68
247.681	-55.64
247.898	-14.68
248.115	-10.58
248.332	11.95
248.549	16.04
248.766	22.19
248.983	44.71
249.2	77.48
249.417	30.38
249.633	18.09
249.85	71.34
250.067	-6.49
250.284	-16.73
250.501	77.48
250.717	75.43
250.934	-49.49
251.151	-53.59
251.368	-35.16
251.585	1.71
251.801	46.76
252.018	81.58
252.235	87.72
252.451	-0.34
252.668	-90.45
252.885	46.76
253.102	13.99
253.318	-45.4
253.535	-31.06
253.752	65.19
253.968	-20.82
254.185	-41.3
254.401	-47.44
254.618	63.15
254.835	-57.68
255.051	112.3
255.268	34.47
255.484	22.19
255.701	44.71
255.917	46.76
256.134	11.95
256.351	16.04
256.567	-16.73
256.784	50.86
257	13.99
257.217	-39.25
257.433	52.91
257.65	40.62
257.866	-14.68
258.082	-39.25
258.299	44.71
258.515	50.86
258.732	75.43
258.948	-10.58
259.165	59.05
259.381	18.09
259.597	36.52
259.814	75.43
260.03	69.29
260.246	-10.58
260.463	-33.11
260.679	16.04
260.895	16.04
261.112	22.19
261.328	-22.87
261.544	34.47
261.761	118.44
261.977	-16.73
262.193	9.9
262.409	38.57
262.626	26.28
262.842	-53.59
263.058	73.39
263.274	63.15
263.49	3.75
263.707	42.67
263.923	18.09
264.139	7.85
264.355	24.23
264.571	-0.34
264.787	38.57
265.004	63.15
265.22	-49.49
265.436	-2.39
265.652	-20.82
265.868	50.86
266.084	-12.63
266.3	9.9
266.516	-2.39
266.732	30.38
266.948	-6.49
267.164	63.15
267.38	30.38
267.596	81.58
267.812	20.14
268.028	26.28
268.244	-29.01
268.46	1.71
268.676	48.81
268.892	46.76
269.108	-2.39
269.324	102.06
269.54	1.71
269.756	-10.58
269.972	5.8
270.188	40.62
270.403	24.23
270.619	46.76
270.835	38.57
271.051	67.24
271.267	-24.92
271.483	28.33
271.698	-39.25
271.914	38.57
272.13	1.71
272.346	-20.82
272.562	9.9
272.777	36.52
272.993	36.52
273.209	20.14
273.425	54.95
273.64	38.57
273.856	7.85
274.072	54.95
274.287	-37.2
274.503	63.15
274.719	87.72
274.934	26.28
275.15	24.23
275.366	44.71
275.581	24.23
275.797	42.67
276.012	67.24
276.228	20.14
276.444	11.95
276.659	28.33
276.875	59.05
277.09	54.95
277.306	63.15
277.521	42.67
277.737	5.8
277.952	44.71
278.168	46.76
278.383	57
278.599	-22.87
278.814	-10.58
279.03	38.57
279.245	-10.58
279.461	52.91
279.676	71.34
279.892	-92.5
280.107	44.71
280.322	-22.87
280.538	24.23
280.753	-33.11
280.969	44.71
281.184	20.14
281.399	106.15
281.615	54.95
281.83	85.67
282.045	-22.87
282.26	13.99
282.476	9.9
282.691	57
282.906	-4.44
283.122	-86.36
283.337	-67.92
283.552	52.91
283.767	13.99
283.983	108.2
284.198	22.19
284.413	3.75
284.628	-37.2
284.843	42.67
285.058	7.85
285.274	-63.83
285.489	-59.73
285.704	54.95
285.919	3.75
286.134	1.71
286.349	-18.77
286.564	-65.88
286.779	104.11
286.995	5.8
287.21	48.81
287.425	9.9
287.64	3.75
287.855	50.86
288.07	-14.68
288.285	22.19
288.5	65.19
288.715	-49.49
288.93	-10.58
289.145	-35.16
289.36	22.19
289.575	63.15
289.79	104.11
290.004	38.57
290.219	44.71
290.434	16.04
290.649	11.95
290.864	-51.54
291.079	32.43
291.294	54.95
291.509	79.53
291.724	40.62
291.938	79.53
292.153	20.14
292.368	63.15
292.583	138.92
292.798	-6.49
293.012	69.29
293.227	-24.92
293.442	22.19
293.657	81.58
293.871	-2.39
294.086	-18.77
294.301	75.43
294.516	63.15
294.73	-26.96
294.945	5.8
295.16	42.67
295.374	24.23
295.589	34.47
295.804	50.86
296.018	42.67
296.233	11.95
296.447	-8.53
296.662	-78.16
296.877	83.63
297.091	28.33
297.306	-39.25
297.52	28.33
297.735	38.57
297.949	30.38
298.164	59.05
298.378	-6.49
298.593	16.04
298.807	-31.06
299.022	38.57
299.236	100.01
299.451	-43.35
299.665	63.15
299.88	112.3
300.094	59.05
300.309	50.86
300.523	38.57
300.737	46.76
300.952	3.75
301.166	87.72
301.381	-74.07
301.595	18.09
301.809	24.23
302.024	-37.2
302.238	-24.92
302.452	-59.73
302.667	54.95
302.881	85.67
303.095	13.99
303.309	7.85
303.524	3.75
303.738	44.71
303.952	20.14
304.166	38.57
304.381	-33.11
304.595	87.72
304.809	-0.34
305.023	38.57
305.237	112.3
305.452	50.86
305.666	38.57
305.88	95.91
306.094	18.09
306.308	54.95
306.522	46.76
306.736	69.29
306.95	-8.53
307.164	28.33
307.379	1.71
307.593	114.34
307.807	52.91
308.021	40.62
308.235	-10.58
308.449	-8.53
308.663	22.19
308.877	147.11
309.091	7.85
309.305	67.24
309.519	-22.87
309.733	24.23
309.947	-26.96
310.161	36.52
310.374	-4.44
310.588	-4.44
310.802	-6.49
311.016	61.1
311.23	91.82
311.444	5.8
311.658	-2.39
311.872	132.78
312.085	30.38
312.299	-0.34
312.513	46.76
312.727	32.43
312.941	-18.77
313.154	-0.34
313.368	5.8
313.582	77.48
313.796	52.91
314.009	-55.64
314.223	79.53
314.437	65.19
314.651	91.82
314.864	50.86
315.078	20.14
315.292	-61.78
315.505	18.09
315.719	22.19
315.933	30.38
316.146	-29.01
316.36	22.19
316.573	-29.01
316.787	44.71
317.001	130.73
317.214	-16.73
317.428	16.04
317.641	-12.63
317.855	-12.63
318.068	-45.4
318.282	69.29
318.495	50.86
318.709	52.91
318.922	-29.01
319.136	26.28
319.349	42.67
319.563	40.62
319.776	63.15
319.99	-31.06
320.203	77.48
320.417	63.15
320.63	65.19
320.843	153.26
321.057	11.95
321.27	-14.68
321.483	50.86
321.697	63.15
321.91	-6.49
322.124	16.04
322.337	5.8
322.55	11.95
322.763	13.99
322.977	3.75
323.19	38.57
323.403	34.47
323.617	28.33
323.83	67.24
324.043	46.76
324.256	50.86
324.469	71.34
324.683	9.9
324.896	67.24
325.109	75.43
325.322	30.38
325.535	-26.96
325.748	32.43
325.962	11.95
326.175	36.52
326.388	26.28
326.601	36.52
326.814	104.11
327.027	-2.39
327.24	91.82
327.453	-51.54
327.666	52.91
327.879	13.99
328.092	1.71
328.305	22.19
328.518	-8.53
328.731	-67.92
328.944	-47.44
329.157	5.8
329.37	26.28
329.583	57
329.796	18.09
330.009	9.9
330.222	13.99
330.435	3.75
330.648	-39.25
330.861	-4.44
331.073	63.15
331.286	59.05
331.499	-43.35
331.712	24.23
331.925	91.82
332.138	24.23
332.35	46.76
332.563	54.95
332.776	61.1
332.989	46.76
333.202	36.52
333.414	7.85
333.627	-2.39
333.84	-24.92
334.053	38.57
334.265	-12.63
334.478	-49.49
334.691	-20.82
334.903	91.82
335.116	-57.68
335.329	59.05
335.541	11.95
335.754	65.19
335.966	-2.39
336.179	52.91
336.392	-63.83
336.604	-2.39
336.817	59.05
337.029	40.62
337.242	13.99
337.454	73.39
337.667	77.48
337.88	54.95
338.092	-37.2
338.305	20.14
338.517	-18.77
338.729	147.11
338.942	59.05
339.154	-47.44
339.367	54.95
339.579	63.15
339.792	30.38
340.004	69.29
340.217	69.29
340.429	30.38
340.641	38.57
340.854	-14.68
341.066	-33.11
341.278	28.33
341.491	18.09
341.703	16.04
341.915	-72.02
342.128	1.71
342.34	-14.68
342.552	5.8
342.764	-4.44
342.977	79.53
343.189	16.04
343.401	30.38
343.613	-12.63
343.826	54.95
344.038	42.67
344.25	30.38
344.462	11.95
344.674	-4.44
344.886	46.76
345.099	54.95
345.311	-53.59
345.523	38.57
345.735	7.85
345.947	26.28
346.159	30.38
346.371	24.23
346.583	3.75
346.795	30.38
347.007	85.67
347.219	52.91
347.431	-39.25
347.643	3.75
347.855	91.82
348.067	106.15
348.279	69.29
348.491	38.57
348.703	28.33
348.915	59.05
349.127	-69.97
349.339	40.62
349.551	-37.2
349.763	57
349.975	16.04
350.187	46.76
350.399	65.19
350.61	100.01
350.822	-2.39
351.034	69.29
351.246	54.95
351.458	46.76
351.669	126.63
351.881	97.96
352.093	44.71
352.305	11.95
352.517	89.77
352.728	13.99
352.94	104.11
353.152	57
353.363	-22.87
353.575	81.58
353.787	65.19
353.999	38.57
354.21	118.44
354.422	24.23
354.633	18.09
354.845	40.62
355.057	-18.77
355.268	34.47
355.48	77.48
355.692	-8.53
355.903	52.91
356.115	7.85
356.326	-10.58
356.538	114.34
356.749	9.9
356.961	22.19
357.172	18.09
357.384	40.62
357.595	153.26
357.807	1.71
358.018	-6.49
358.23	-18.77
358.441	52.91
358.653	52.91
358.864	13.99
359.075	-8.53
359.287	38.57
359.498	116.39
359.709	1.71
359.921	50.86
360.132	26.28
360.344	77.48
360.555	71.34
360.766	54.95
360.977	20.14
361.189	5.8
361.4	44.71
361.611	75.43
361.823	108.2
362.034	75.43
362.245	-39.25
362.456	11.95
362.667	50.86
362.879	85.67
363.09	63.15
363.301	106.15
363.512	61.1
363.723	-33.11
363.935	79.53
364.146	3.75
364.357	9.9
364.568	61.1
364.779	13.99
364.99	9.9
365.201	5.8
365.412	30.38
365.623	11.95
365.834	75.43
366.045	42.67
366.256	32.43
366.467	65.19
366.678	46.76
366.889	20.14
367.1	-24.92
367.311	11.95
367.522	18.09
367.733	-0.34
367.944	46.76
368.155	22.19
368.366	71.34
368.577	69.29
368.788	-10.58
368.999	71.34
369.209	40.62
369.42	50.86
369.631	87.72
369.842	69.29
370.053	97.96
370.264	40.62
370.474	-20.82
370.685	3.75
370.896	71.34
371.107	34.47
371.317	87.72
371.528	26.28
371.739	24.23
371.95	9.9
372.16	75.43
372.371	-6.49
372.582	-14.68
372.792	3.75
373.003	108.2
373.214	100.01
373.424	40.62
373.635	36.52
373.846	71.34
374.056	122.54
374.267	61.1
374.477	63.15
374.688	-41.3
374.898	5.8
375.109	42.67
375.319	50.86
375.53	61.1
375.74	24.23
375.951	73.39
376.161	36.52
376.372	34.47
376.582	32.43
376.793	24.23
377.003	11.95
377.214	112.3
377.424	42.67
377.635	61.1
377.845	-4.44
378.055	126.63
378.266	24.23
378.476	20.14
378.686	11.95
378.897	54.95
379.107	34.47
379.317	85.67
379.528	54.95
379.738	91.82
379.948	48.81
380.158	54.95
380.369	38.57
380.579	50.86
380.789	-2.39
380.999	20.14
381.21	-10.58
381.42	157.35
381.63	-39.25
381.84	36.52
382.05	22.19
382.261	57
382.471	57
382.681	59.05
382.891	54.95
383.101	50.86
383.311	-39.25
383.521	59.05
383.731	87.72
383.941	93.87
384.151	54.95
384.361	-2.39
384.571	57
384.781	40.62
384.991	50.86
385.201	116.39
385.411	40.62
385.621	79.53
385.831	36.52
386.041	61.1
386.251	3.75
386.461	126.63
386.671	-29.01
386.881	48.81
387.091	108.2
387.301	7.85
387.511	11.95
387.72	87.72
387.93	54.95
388.14	-39.25
388.35	59.05
388.56	5.8
388.769	91.82
388.979	28.33
389.189	30.38
389.399	18.09
389.609	116.39
389.818	54.95
390.028	77.48
390.238	42.67
390.447	46.76
390.657	9.9
390.867	46.76
391.076	28.33
391.286	-20.82
391.496	112.3
391.705	7.85
391.915	42.67
392.125	57
392.334	32.43
392.544	54.95
392.753	16.04
392.963	-6.49
393.172	122.54
393.382	32.43
393.591	102.06
393.801	50.86
394.01	89.77
394.22	106.15
394.429	44.71
394.639	-35.16
394.848	50.86
395.058	59.05
395.267	42.67
395.477	85.67
395.686	59.05
395.895	77.48
396.105	132.78
396.314	13.99
396.524	69.29
396.733	67.24
396.942	65.19
397.152	75.43
397.361	73.39
397.57	59.05
397.78	50.86
397.989	114.34
398.198	143.02
398.407	38.57
398.617	54.95
398.826	77.48
399.035	54.95
399.244	57
399.453	91.82
399.663	54.95
399.872	126.63
400.081	-0.34
400.29	149.16
400.499	85.67
400.708	32.43
400.917	106.15
401.127	-10.58
401.336	83.63
401.545	126.63
401.754	157.35
401.963	128.68
402.172	71.34
402.381	85.67
402.59	112.3
402.799	20.14
403.008	153.26
403.217	130.73
403.426	151.21
403.635	69.29
403.844	157.35
404.053	126.63
404.262	95.91
404.471	169.64
404.68	134.82
404.888	118.44
405.097	93.87
405.306	116.39
405.515	112.3
405.724	161.45
405.933	145.06
406.142	83.63
406.35	112.3
406.559	157.35
406.768	122.54
406.977	147.11
407.185	194.22
407.394	251.56
407.603	210.6
407.812	212.65
408.02	315.05
408.229	177.83
408.438	177.83
408.646	175.78
408.855	179.88
409.064	210.6
409.272	235.18
409.481	241.32
409.69	255.65
409.898	239.27
410.107	274.09
410.315	198.31
410.524	255.65
410.733	265.89
410.941	294.57
411.15	401.06
411.358	396.96
411.567	353.96
411.775	439.97
411.984	386.72
412.192	380.58
412.401	411.3
412.609	460.45
412.818	458.4
413.026	466.6
413.234	474.79
413.443	493.22
413.651	454.31
413.86	503.46
414.068	511.65
414.276	554.66
414.485	620.19
414.693	566.95
414.901	587.43
415.11	609.95
415.318	652.96
415.526	640.67
415.734	652.96
415.943	652.96
416.151	804.51
416.359	759.46
416.567	802.46
416.776	808.61
416.984	933.53
417.192	878.24
417.4	806.56
417.608	822.94
417.817	962.2
418.025	1046.17
418.233	1087.13
418.441	960.16
418.649	1048.22
418.857	1193.62
419.065	1248.92
419.273	1156.76
419.481	1283.74
419.689	1300.12
419.897	1265.3
420.105	1412.76
420.313	1449.62
420.521	1490.58
420.729	1619.6
420.937	1564.31
421.145	1511.06
421.353	1738.38
421.561	1740.43
421.769	1717.9
421.977	1900.17
422.185	1767.06
422.393	1910.41
422.601	2094.73
422.809	2127.5
423.017	2168.46
423.224	2219.66
423.432	2215.56
423.64	2297.48
423.848	2475.65
424.056	2305.67
424.263	2563.72
424.471	2600.58
424.679	2682.5
424.887	2774.66
425.094	2895.49
425.302	2823.81
425.51	3077.76
425.718	3073.66
425.925	3065.47
426.133	3157.63
426.341	3444.34
426.548	3462.77
426.756	3470.97
426.964	3630.71
427.171	3769.97
427.379	3894.9
427.586	4015.73
427.794	4007.53
428.001	4298.35
428.209	4439.65
428.417	4376.17
428.624	4808.29
428.832	4658.79
429.039	4630.12
429.247	4523.62
429.454	5109.34
429.662	5451.35
429.869	5105.24
430.076	5516.89
430.284	5291.61
430.491	5690.96
430.699	5858.9
430.906	5746.26
431.114	6012.49
431.321	6106.7
431.528	6342.22
431.736	6602.31
431.943	6991.42
432.15	6780.48
432.358	6895.17
432.565	7331.39
432.772	7343.67
432.979	7487.03
433.187	7652.92
433.394	7779.89
433.601	8295.98
433.808	8377.9
434.016	8240.68
434.223	8711.72
434.43	8904.23
434.637	8900.13
434.844	9463.32
435.052	9522.71
435.259	9537.05
435.466	9530.91
435.673	9561.62
435.88	10262.03
436.087	10733.06
436.294	10753.54
436.501	10569.23
436.708	10604.04
436.915	11263.49
437.122	11593.21
437.329	11474.43
437.537	12162.55
437.743	12154.35
437.95	11871.73
438.157	12439.02
438.364	13131.23
438.571	13149.67
438.778	13127.14
438.985	14069.2
439.192	13778.39
439.399	14292.43
439.606	13901.27
439.813	14785.99
440.02	15678.91
440.227	15275.46
440.433	15044.04
440.64	15625.66
440.847	15431.1
441.054	16104.88
441.261	16911.78
441.467	16840.11
441.674	17118.63
441.881	17530.27
442.088	17550.75
442.294	17421.73
442.501	17862.04
442.708	18181.53
442.914	18988.42
443.121	19445.12
443.328	19359.11
443.534	20505.97
443.741	20018.55
443.948	19592.58
444.154	20966.76
444.361	21259.62
444.568	21196.14
444.774	21407.08
444.981	21339.49
445.187	21810.53
445.394	23131.47
445.6	22867.28
445.807	24818.99
446.013	23575.87
446.22	24182.07
446.426	25187.63
446.633	25126.19
446.839	26189.08
447.046	24956.21
447.252	26428.7
447.459	26664.21
447.665	26090.78
447.871	27299.08
448.078	28761.33
448.284	27235.6
448.491	27813.12
448.697	28734.71
448.903	29502.7
449.11	29560.04
449.316	28673.27
449.522	29865.19
449.728	30606.55
449.935	30610.65
450.141	30395.61
450.347	31227.09
450.553	29893.86
450.76	30776.53
450.966	31364.3
451.172	30889.17
451.378	32115.9
451.584	31116.5
451.791	32160.96
451.997	31995.07
452.203	32105.66
452.409	32586.94
452.615	31925.44
452.821	30880.98
453.027	30817.49
453.233	32269.5
453.44	30758.1
453.646	31089.87
453.852	31065.3
454.058	31859.91
454.264	30434.52
454.47	31501.51
454.676	30379.23
454.882	31474.89
455.088	29058.29
455.294	29492.46
455.5	29709.54
455.705	29850.85
455.911	29140.21
456.117	28431.61
456.323	27849.99
456.529	26285.34
456.735	27518.21
456.941	26776.85
457.147	26328.34
457.352	25519.4
457.558	25216.3
457.764	25257.26
457.97	24812.85
458.176	24405.3
458.381	24249.66
458.587	23061.83
458.793	22834.51
458.999	21912.92
459.204	23170.38
459.41	22713.68
459.616	21050.73
459.821	21198.18
460.027	21177.7
460.233	20923.76
460.438	19774.84
460.644	19768.7
460.85	18666.89
461.055	18986.38
461.261	18632.08
461.466	17122.73
461.672	16723.37
461.878	17857.95
462.083	16692.65
462.289	16584.11
462.494	16201.14
462.7	15515.07
462.905	15248.83
463.111	15742.39
463.316	15607.23
463.522	15601.08
463.727	15562.17
463.932	15500.73
464.138	15396.29
464.343	15279.55
464.549	15027.65
464.754	15531.45
464.959	15267.27
465.165	15209.92
465.37	14513.61
465.575	14142.93
465.781	14874.06
465.986	14740.94
466.191	14212.56
466.397	14036.44
466.602	13497.82
466.807	13909.46
467.012	13751.77
467.218	13686.23
467.423	13563.36
467.628	13845.98
467.833	14175.7
468.038	13934.04
468.244	13290.98
468.449	13794.78
468.654	13379.04
468.859	13071.84
469.064	13024.74
469.269	12834.28
469.474	12797.42
469.679	12946.92
469.885	12721.64
470.09	12998.12
470.295	12711.4
470.5	12445.16
470.705	12547.56
470.91	12293.62
471.115	12092.91
471.32	12369.39
471.525	12166.64
471.73	11806.2
471.935	11920.88
472.139	11615.74
472.344	11513.34
472.549	11494.91
472.754	11322.88
472.959	11288.06
473.164	10874.37
473.369	10790.41
473.574	11474.43
473.778	11130.37
473.983	11040.26
474.188	10978.82
474.393	10477.07
474.598	10577.42
474.802	10321.42
475.007	10395.15
475.212	10329.61
475.417	9842.2
475.621	9899.54
475.826	9901.59
476.031	10030.61
476.235	9549.34
476.44	9811.48
476.645	9448.99
476.849	9813.52
477.054	9348.64
477.259	9303.58
477.463	9272.86
477.668	9084.45
477.872	9180.7
478.077	9025.06
478.282	8947.23
478.486	8873.51
478.691	8867.36
478.895	8719.91
479.1	8701.48
479.304	8728.1
479.509	8615.46
479.713	8674.85
479.918	8521.26
480.122	8351.28
480.326	8535.59
480.531	8461.87
480.735	8160.81
480.94	8138.29
481.144	8416.81
481.348	8101.42
481.553	8140.33
481.757	8017.46
481.961	8119.85
482.166	8326.7
482.37	8097.33
482.574	8078.9
482.778	8042.03
482.983	7925.3
483.187	8142.38
483.391	8150.57
483.595	8173.1
483.8	8050.22
484.004	8103.47
484.208	8033.84
484.412	7966.26
484.616	8222.25
484.821	8109.61
485.025	7913.01
485.229	8164.91
485.433	7937.59
485.637	8058.42
485.841	8117.81
486.045	8019.5
486.249	7921.2
486.453	8087.09
486.657	8240.68
486.861	8119.85
487.065	7953.97
487.269	8035.89
487.473	7884.34
487.677	8050.22
487.881	8263.21
488.085	8087.09
488.289	8148.53
488.493	7939.63
488.697	8044.08
488.901	8238.64
489.105	8250.92
489.309	8087.09
489.512	8265.26
489.716	8066.61
489.92	8263.21
490.124	8232.49
490.328	8396.33
490.531	8201.77
490.735	8308.27
490.939	8402.47
491.143	8224.3
491.346	8455.72
491.55	8494.63
491.754	8455.72
491.958	8525.35
492.161	8594.98
492.365	8549.93
492.569	8656.42
492.772	8373.8
492.976	8564.26
493.18	8742.44
493.383	8949.28
493.587	8777.25
493.79	8955.43
493.994	8893.99
494.197	8803.88
494.401	8900.13
494.605	9037.34
494.808	9205.28
495.012	9229.85
495.215	9201.18
495.419	9330.2
495.622	9313.82
495.825	9483.8
496.029	9645.59
496.232	9711.13
496.436	9729.56
496.639	9750.04
496.843	9938.45
497.046	10104.34
497.249	10137.1
497.453	10186.26
497.656	10323.47
497.859	10075.66
498.063	10378.76
498.266	10622.47
498.469	10786.31
498.673	10802.69
498.876	10935.81
499.079	11068.93
499.282	10960.39
499.485	11408.89
499.689	11464.19
499.892	11456
500.095	11392.51
500.298	11775.48
500.501	11892.21
500.705	12060.15
500.908	12211.7
501.111	12328.43
501.314	12408.3
501.517	12568.04
501.72	12568.04
501.923	12752.36
502.126	13024.74
502.329	13288.93
502.532	13043.17
502.735	13499.87
502.938	13383.13
503.141	13739.48
503.344	14065.11
503.547	13880.79
503.75	14024.15
503.953	14499.28
504.156	14458.32
504.359	14634.44
504.562	14712.27
504.765	14806.47
504.968	15128
505.17	15525.31
505.373	15351.23
505.576	15611.32
505.779	15678.91
505.982	15857.08
506.185	16434.61
506.387	16219.57
506.59	16227.76
506.793	16651.69
506.996	16756.14
507.198	17311.14
507.401	17089.96
507.604	17485.22
507.807	17671.58
508.009	17747.36
508.212	17884.57
508.415	17933.72
508.617	18251.16
508.82	18414.99
509.022	18507.15
509.225	18828.68
509.428	18926.99
509.63	19109.26
509.833	19504.51
510.035	19697.02
510.238	19531.14
510.44	20112.76
510.643	20163.96
510.845	20419.96
511.048	20147.58
511.25	20612.46
511.453	20952.43
511.655	21599.59
511.858	21331.3
512.06	21509.47
512.262	21742.94
512.465	22087
512.667	22588.75
512.87	22105.43
513.072	22625.62
513.274	22807.89
513.477	22814.03
513.679	23328.07
513.881	23569.73
514.084	23899.45
514.286	24038.72
514.488	24008
514.69	24874.29
514.893	24870.19
515.095	24941.87
515.297	25400.62
515.499	25095.47
515.701	25734.43
515.904	26000.67
516.106	26195.23
516.308	26268.95
516.51	26529.05
516.712	26658.07
516.914	27125
517.116	27452.68
517.318	27657.48
517.52	27970.82
517.722	27774.21
517.925	28173.56
518.127	28398.84
518.329	28675.32
518.531	28685.56
518.733	29672.68
518.935	29766.88
519.136	29664.49
519.338	30332.12
519.54	30280.92
519.742	30880.98
519.944	30661.85
520.146	31466.7
520.348	31417.55
520.55	31554.76
520.752	31939.78
520.954	32343.23
521.155	32236.73
521.357	32773.3
521.559	32890.04
521.761	33303.73
521.963	33598.63
522.164	33285.29
522.366	34061.47
522.568	34059.43
522.77	34174.11
522.971	35275.92
523.173	34602.14
523.375	34831.51
523.576	34929.81
523.778	35097.75
523.98	35568.78
524.181	35617.93
524.383	35892.36
524.584	36617.34
524.786	36281.47
524.988	36306.05
525.189	36940.92
525.391	37213.3
525.592	37166.2
525.794	37723.24
525.995	37674.09
526.197	37784.68
526.398	37682.28
526.6	38149.22
526.801	38427.74
527.003	38544.48
527.204	38677.6
527.406	38710.36
527.607	38751.32
527.808	39232.6
528.01	38526.05
528.211	39257.17
528.412	40057.93
528.614	39672.91
528.815	39369.81
529.016	40381.51
529.218	39484.5
529.419	40303.68
529.62	40537.15
529.822	40606.78
530.023	40219.72
530.224	40369.22
530.425	40399.94
530.626	40350.79
530.828	40203.33
531.029	41339.96
531.23	40414.27
531.431	40815.68
531.632	40885.31
531.833	41219.13
532.035	41182.26
532.236	41151.54
532.437	41364.53
532.638	40969.27
532.839	41380.92
533.04	41581.62
533.241	40942.65
533.442	41983.02
533.643	41581.62
533.844	41397.3
534.045	41651.25
534.246	41262.13
534.447	41417.78
534.648	41362.48
534.849	41577.52
535.05	41565.23
535.251	41706.54
535.451	41888.81
535.652	41772.08
535.853	41653.3
536.054	41477.17
536.255	42007.59
536.456	41172.02
536.657	42533.92
536.857	41804.84
537.058	41702.45
537.259	41851.95
537.46	42097.7
537.66	41903.15
537.861	42046.51
538.062	41792.56
538.263	42032.17
538.463	41481.27
538.664	41778.22
538.865	42034.22
539.065	42015.79
539.266	41595.95
539.466	42365.99
539.667	41460.79
539.868	42146.86
540.068	41798.7
540.269	41925.67
540.469	41897
540.67	41622.58
540.87	41962.54
541.071	41872.43
541.271	42183.72
541.472	41860.14
541.672	41907.24
541.873	42056.74
542.073	41163.83
542.274	42112.04
542.474	41686.06
542.675	41968.68
542.875	42359.84
543.075	42009.64
543.276	41745.45
543.476	42191.91
543.676	41630.77
543.877	42316.84
544.077	41589.81
544.277	41618.48
544.478	41577.52
544.678	42224.68
544.878	42017.83
545.078	41897
545.279	41626.67
545.479	41763.89
545.679	42146.86
545.879	41520.18
546.079	41784.37
546.28	41886.76
546.48	41391.16
546.68	41784.37
546.88	41729.07
547.08	41647.15
547.28	41704.49
547.48	41065.53
547.68	41616.43
547.88	41630.77
548.081	41806.89
548.281	41374.77
548.481	41477.17
548.681	42159.14
548.881	41428.02
549.081	41548.85
549.28	41577.52
549.48	41870.38
549.68	41628.72
549.88	41823.28
550.08	41387.06
550.28	41757.74
550.48	41452.59
550.68	41872.43
550.88	41331.76
551.08	41763.89
551.279	41577.52
551.479	41452.59
551.679	41432.11
551.879	41258.04
552.079	41704.49
552.278	41378.87
552.478	41368.63
552.678	41399.35
552.878	41260.09
553.077	41364.53
553.277	40944.7
553.477	41962.54
553.676	41049.14
553.876	41389.11
554.076	40703.04
554.275	41215.03
554.475	40625.21
554.674	40809.53
554.874	40766.52
555.074	40981.56
555.273	41086.01
555.473	41210.93
555.672	40795.2
555.872	40690.75
556.071	41055.29
556.271	41270.32
556.47	40975.42
556.67	40451.14
556.869	40680.51
557.068	40764.48
557.268	40174.66
557.467	40770.62
557.667	40492.1
557.866	40221.76
558.065	40166.47
558.265	40346.69
558.464	39779.4
558.663	40582.21
558.863	39892.04
559.062	40760.38
559.261	39799.88
559.461	40483.9
559.66	39578.7
559.859	40291.4
560.058	39621.71
560.258	39588.94
560.457	39050.33
560.656	40160.33
560.855	39097.43
561.054	39781.45
561.253	39218.26
561.453	39224.4
561.652	39418.96
561.851	39517.26
562.05	38929.5
562.249	38722.65
562.448	39238.74
562.647	38710.36
562.846	39038.04
563.045	38876.25
563.244	38372.45
563.443	38917.21
563.642	38196.32
563.841	38392.93
564.04	38194.28
564.239	39128.15
564.438	38313.06
564.637	38122.6
564.836	38296.67
565.035	37751.91
565.234	37600.36
565.432	37641.32
565.631	37729.39
565.83	37839.98
566.029	37221.49
566.228	37307.51
566.427	37319.79
566.625	37297.27
566.824	36883.58
567.023	37172.34
567.222	36330.62
567.42	37463.15
567.619	36869.24
567.818	36914.3
568.016	36572.28
568.215	36453.5
568.414	36222.08
568.612	36197.51
568.811	36263.04
569.01	36408.45
569.208	35601.55
569.407	35925.13
569.605	35722.38
569.804	36160.64
570.002	35468.43
570.201	35783.82
570.4	35329.17
570.598	35413.13
570.797	35277.97
570.995	35103.89
571.193	34462.88
571.392	35097.75
571.59	34788.5
571.789	34843.8
571.987	34602.14
572.186	34454.68
572.384	34432.16
572.582	34544.8
572.781	34233.5
572.979	34047.14
573.177	34110.63
573.376	34155.68
573.574	33961.12
573.772	34045.09
573.971	33486
574.169	33703.08
574.367	33492.14
574.565	33576.11
574.763	33352.88
574.962	33352.88
575.16	32832.69
575.358	33119.41
575.556	32666.81
575.754	32967.86
575.952	32605.37
576.151	32849.08
576.349	32484.54
576.547	32304.32
576.745	32740.54
576.943	32570.55
577.141	32310.46
577.339	31993.03
577.537	32019.65
577.735	31972.55
577.933	31683.78
578.131	31878.34
578.329	31675.59
578.527	31599.82
578.725	31589.58
578.923	31354.06
579.121	31243.47
579.319	31431.88
579.516	31235.28
579.714	31038.67
579.912	31302.86
580.11	31026.39
580.308	30807.25
580.506	30958.8
580.704	30459.1
580.901	30436.57
581.099	30436.57
581.297	30557.4
581.495	30338.27
581.692	30487.77
581.89	29951.2
582.088	30549.21
582.285	30047.46
582.483	30061.79
582.681	30022.88
582.878	29785.32
583.076	29467.88
583.274	30000.35
583.471	29334.76
583.669	29623.53
583.866	29302
584.064	29578.47
584.262	29406.44
584.459	29420.78
584.657	28677.37
584.854	29289.71
585.052	28669.17
585.249	29035.76
585.447	28972.27
585.644	28581.11
585.841	28388.6
586.039	28429.56
586.236	28312.83
586.434	28380.41
586.631	28060.93
586.828	28204.28
587.026	28325.11
587.223	27954.43
587.42	27944.19
587.618	27847.94
587.815	27770.11
588.012	27133.2
588.21	27413.77
588.407	27507.97
588.604	27053.33
588.801	27219.21
588.999	27505.93
589.196	27548.93
589.393	27069.71
589.59	26725.65
589.787	26793.23
589.984	26627.35
590.182	26408.22
590.379	26750.23
590.576	26301.72
590.773	26537.24
590.97	26506.52
591.167	26330.39
591.364	26150.17
591.561	26303.77
591.758	25916.7
591.955	25695.52
592.152	25885.98
592.349	25957.66
592.546	25918.75
592.743	25716
592.94	25312.55
593.137	25640.23
593.334	25681.19
593.531	25206.06
593.727	25406.76
593.924	25281.83
594.121	25247.02
594.318	25138.48
594.515	24751.41
594.712	25101.61
594.908	24419.64
595.105	24642.87
595.302	24548.66
595.499	24597.81
595.696	24536.37
595.892	24259.9
596.089	24231.22
596.286	24499.51
596.482	24325.43
596.679	24038.72
596.876	24243.51
597.072	23938.37
597.269	24356.15
597.466	23797.06
597.662	23741.76
597.859	23895.36
598.055	23694.66
598.252	23405.89
598.448	23553.35
598.645	23518.53
598.841	23117.13
599.038	23418.18
599.234	23440.71
599.431	23037.26
599.627	22994.25
599.824	23102.79
600.02	22492.5
600.217	22981.96
600.413	22953.29
600.609	22898
600.806	22674.77
601.002	22844.75
601.198	22605.14
601.395	22371.67
601.591	22218.07
601.787	22457.68
601.984	22162.78
602.18	22631.76
602.376	22113.63
602.572	22023.51
602.769	21828.96
602.965	21785.95
603.161	21730.66
603.357	21853.53
603.553	21525.86
603.75	21669.22
603.946	21681.5
604.142	21628.26
604.338	21138.79
604.534	21427.56
604.73	21202.28
604.926	21351.78
605.122	21427.56
605.318	20960.62
605.514	20917.61
605.71	20981.1
605.906	20854.12
606.102	20907.37
606.298	20991.34
606.494	20811.12
606.69	20837.74
606.886	20884.84
607.082	20655.47
607.278	20692.33
607.474	20299.12
607.67	20700.53
607.866	20166.01
608.062	20567.41
608.257	20438.39
608.453	20342.13
608.649	20514.16
608.845	20114.81
609.041	20024.7
609.236	20243.83
609.432	20174.2
609.628	19817.85
609.824	19762.56
610.019	19801.47
610.215	19647.87
610.411	19885.44
610.606	19856.76
610.802	19647.87
610.998	19330.44
611.193	19709.31
611.389	19506.56
611.584	19289.48
611.78	19258.76
611.976	19355.01
612.171	19391.87
612.367	19422.59
612.562	19158.41
612.758	18881.93
612.953	18937.23
613.149	19201.41
613.344	18666.89
613.539	19053.96
613.735	18879.88
613.93	19156.36
614.126	18503.06
614.321	19096.97
614.517	18959.75
614.712	18986.38
614.907	18648.46
615.103	18904.46
615.298	18365.84
615.493	18814.35
615.688	18498.96
615.884	18998.66
616.079	18466.19
616.274	18488.72
616.47	18304.4
616.665	18302.36
616.86	18214.29
617.055	18263.44
617.25	18017.69
617.445	18281.88
617.641	17739.16
617.836	18167.19
618.031	17808.79
618.226	17931.67
618.421	17837.47
618.616	17980.82
618.811	17618.33
619.006	17708.44
619.201	17235.36
619.396	17358.24
619.591	17333.67
619.786	17634.72
619.981	17337.76
620.176	17237.41
620.371	17130.92
620.566	17132.97
620.761	17393.06
620.956	16985.51
621.151	17069.48
621.346	17036.71
621.541	16582.06
621.735	16637.36
621.93	16455.09
622.125	16414.13
622.32	16143.8
622.515	16283.06
622.709	16041.4
622.904	16195
623.099	16250.29
623.294	16158.13
623.488	15760.83
623.683	15861.18
623.878	15822.27
624.072	15615.42
624.267	15750.59
624.462	15562.17
624.656	15500.73
624.851	15504.83
625.046	15285.7
625.24	15322.56
625.435	14960.07
625.629	14949.83
625.824	15103.43
626.018	14900.68
626.213	14421.45
626.407	14855.62
626.602	14599.63
626.796	14800.33
626.991	14462.41
627.185	14511.57
627.38	14448.08
627.574	14337.49
627.768	14069.2
627.963	13907.41
628.157	14009.81
628.352	13983.19
628.546	13653.47
628.74	13989.33
628.935	13811.16
629.129	13712.86
629.323	13735.39
629.517	13635.03
629.712	13762.01
629.906	13401.57
630.1	13108.71
630.294	13250.02
630.489	13120.99
630.683	13237.73
630.877	12930.53
631.071	12854.76
631.265	13127.14
631.459	12955.11
631.653	12754.41
631.848	12627.43
632.042	12674.54
632.236	12613.1
632.43	12574.19
632.624	12508.65
632.818	12449.26
633.012	12275.18
633.206	12174.83
633.4	12383.73
633.594	12156.4
633.788	12092.91
633.982	12183.02
634.176	11998.71
634.369	12051.95
634.563	11888.12
634.757	11683.32
634.951	11843.06
635.145	11834.87
635.339	11711.99
635.533	11558.39
635.726	11398.65
635.92	11304.45
636.114	11326.97
636.308	11257.34
636.501	11118.08
636.695	11290.11
636.889	11216.38
637.083	10728.97
637.276	10917.38
637.47	10987.01
637.664	10812.93
637.857	10802.69
638.051	10997.25
638.244	10688.01
638.438	10571.27
638.632	10737.16
638.825	10415.63
639.019	10524.17
639.212	10335.76
639.406	10192.4
639.599	10276.37
639.793	10262.03
639.986	10110.48
640.18	10092.05
640.373	10219.02
640.567	9889.3
640.76	10057.23
640.954	9868.82
641.147	10014.23
641.34	9780.76
641.534	9672.22
641.727	9821.72
641.92	9752.09
642.114	9557.53
642.307	9440.79
642.5	9301.53
642.694	9367.07
642.887	9346.59
643.08	9512.47
643.273	9281.05
643.467	9106.98
643.66	9086.5
643.853	9096.74
644.046	8939.04
644.239	8924.71
644.432	8793.64
644.626	8922.66
644.819	8857.12
645.012	8738.34
645.205	8898.08
645.398	8924.71
645.591	8633.89
645.784	8619.56
645.977	8490.54
646.17	8523.3
646.363	8556.07
646.556	8390.19
646.749	8341.04
646.942	8351.28
647.135	8273.45
647.328	8121.9
647.521	8224.3
647.714	8070.7
647.907	8035.89
648.099	8107.57
648.292	8109.61
648.485	8048.18
648.678	7968.31
648.871	7781.94
649.064	7775.8
649.256	7874.1
649.449	7616.05
649.642	7808.56
649.835	7755.32
650.027	7693.88
650.22	7607.86
650.413	7718.45
650.605	7431.74
650.798	7462.46
650.991	7491.13
651.183	7417.4
651.376	7452.22
651.568	7384.63
651.761	7290.43
651.954	7216.7
652.146	7296.57
652.339	7224.89
652.531	7198.27
652.724	6946.37
652.916	6866.5
653.109	6950.46
653.301	6964.8
653.494	6985.28
653.686	6960.7
653.879	6932.03
654.071	6895.17
654.263	6774.34
654.456	6866.5
654.648	6880.83
654.84	6723.14
655.033	6803.01
655.225	6626.89
655.417	6610.5
655.61	6542.92
655.802	6526.54
655.994	6530.63
656.186	6624.84
656.379	6497.86
656.571	6590.02
656.763	6461
656.955	6256.2
657.148	6270.54
657.34	6239.82
657.532	6143.56
657.724	6141.52
657.916	6219.34
658.108	6227.53
658.3	6162
658.492	6325.83
658.684	5973.58
658.876	6217.29
659.068	5940.82
659.26	6127.18
659.452	5994.06
659.644	5936.72
659.836	5854.8
660.028	5965.39
660.22	5813.84
660.412	5815.89
660.604	5658.2
660.796	5797.46
660.988	5721.68
661.18	5682.77
661.372	5609.05
661.563	5635.67
661.755	5527.13
661.947	5494.36
662.139	5688.92
662.331	5512.79
662.522	5377.62
662.714	5508.69
662.906	5594.71
663.097	5363.29
663.289	5428.82
663.481	5391.96
663.673	5334.62
663.864	5236.31
664.056	5383.77
664.247	5359.19
664.439	5232.22
664.631	5334.62
664.822	5326.43
665.014	5125.72
665.205	5054.05
665.397	5150.3
665.588	5084.77
665.78	4914.78
665.971	5115.48
666.163	5015.13
666.354	5150.3
666.546	5101.15
666.737	4847.2
666.929	5058.14
667.12	4968.03
667.311	5008.99
667.503	4918.88
667.694	5000.8
667.885	4937.31
668.077	5064.29
668.268	4802.15
668.459	4771.43
668.651	4757.09
668.842	4714.08
669.033	4791.91
669.224	4640.36
669.416	4714.08
669.607	4662.88
669.798	4730.47
669.989	4877.92
670.18	4722.27
670.371	4558.44
670.563	4666.98
670.754	4732.51
670.945	4589.16
671.136	4523.62
671.327	4632.16
671.518	4470.37
671.709	4585.06
671.9	4626.02
672.091	4537.96
672.282	4628.07
672.473	4437.61
672.664	4372.07
672.855	4566.63
673.046	4445.8
673.237	4546.15
673.428	4548.2
673.619	4376.17
673.809	4449.89
674	4345.45
674.191	4437.61
674.382	4392.55
674.573	4462.18
674.764	4306.54
674.954	4433.51
675.145	4359.78
675.336	4376.17
675.527	4380.26
675.717	4460.13
675.908	4392.55
676.099	4331.11
676.289	4320.87
676.48	4281.96
676.671	4247.15
676.861	4435.56
677.052	4249.19
677.243	4245.1
677.433	4234.86
677.624	4269.67
677.814	4220.52
678.005	4316.78
678.195	4306.54
678.386	4226.67
678.576	4324.97
678.767	4343.4
678.957	4136.56
679.148	4257.39
679.338	4206.19
679.529	4279.91
679.719	4261.48
679.909	4320.87
680.1	4236.91
680.29	4064.88
680.481	4298.35
680.671	4361.83
680.861	4152.94
681.052	4191.85
681.242	4200.04
681.432	4232.81
681.622	4284.01
681.813	4138.6
682.003	4318.82
682.193	4224.62
682.383	4372.07
682.573	4316.78
682.764	4341.35
682.954	4148.84
683.144	4171.37
683.334	4152.94
683.524	4288.11
683.714	4179.56
683.904	4193.9
684.094	4216.43
684.284	4107.88
684.474	4351.59
684.664	4306.54
684.854	4202.09
685.044	4128.36
685.234	4060.78
685.424	4124.27
685.614	4114.03
685.804	4087.4
685.994	4009.58
686.184	4167.28
686.374	4218.47
686.564	3995.25
686.753	3968.62
686.943	3868.27
687.133	3921.52
687.323	3939.95
687.513	3927.66
687.702	4130.41
687.892	3956.33
688.082	3919.47
688.272	3919.47
688.461	3894.9
688.651	3962.48
688.841	3806.83
689.03	3864.18
689.22	3913.33
689.41	3858.03
689.599	3931.76
689.789	3880.56
689.979	3778.16
690.168	3792.5
690.358	3681.91
690.547	3780.21
690.737	3849.84
690.926	3827.31
691.116	3794.54
691.305	3733.11
691.495	3743.35
691.684	3602.04
691.874	3608.18
692.063	3538.55
692.252	3651.19
692.442	3692.15
692.631	3491.45
692.82	3593.84
693.01	3462.77
693.199	3546.74
693.388	3401.33
693.578	3532.4
693.767	3448.44
693.956	3413.62
694.146	3450.49
694.335	3561.08
694.524	3503.73
694.713	3509.88
694.902	3430.01
695.092	3448.44
695.281	3450.49
695.47	3356.28
695.659	3372.66
695.848	3493.49
696.037	3434.1
696.226	3430.01
696.415	3341.94
696.604	3411.57
696.793	3360.38
696.982	3436.15
697.171	3415.67
697.36	3432.05
697.549	3415.67
697.738	3378.81
697.927	3331.7
698.116	3368.57
698.305	3368.57
698.494	3376.76
698.683	3290.74
698.872	3442.29
699.061	3360.38
699.25	3323.51
699.438	3346.04
699.627	3407.48
699.816	3319.42
700.005	3190.39
700.193	3368.57
700.382	3399.29
700.571	3380.86
700.76	3260.02
700.948	3276.41
701.137	3319.42
701.326	3266.17
701.514	3339.9
701.703	3364.47
701.892	3362.42
702.08	3319.42
702.269	3296.89
702.457	3325.56
702.646	3225.21
702.834	3360.38
703.023	3309.18
703.212	3329.66
703.4	3204.73
703.589	3231.35
703.777	3272.31
703.965	3352.18
704.154	3237.5
704.342	3255.93
704.531	3262.07
704.719	3339.9
704.907	3217.02
705.096	3247.74
705.284	3192.44
705.472	3257.98
705.661	3368.57
705.849	3241.59
706.037	3235.45
706.226	3235.45
706.414	3323.51
706.602	3270.26
706.79	3321.46
706.979	3280.5
707.167	3296.89
707.355	3249.79
707.543	3225.21
707.731	3227.26
707.919	3333.75
708.107	3108.48
708.296	3348.09
708.484	3315.32
708.672	3288.7
708.86	3180.15
709.048	3212.92
709.236	3194.49
709.424	3294.84
709.612	3290.74
709.8	3290.74
709.988	3235.45
710.176	3282.55
710.364	3163.77
710.551	3307.13
710.739	3110.52
710.927	3235.45
711.115	3286.65
711.303	3450.49
711.491	3339.9
711.679	3278.46
711.866	3376.76
712.054	3370.62
712.242	3141.24
712.43	3352.18
712.617	3227.26
712.805	3311.22
712.993	3323.51
713.181	3286.65
713.368	3292.79
713.556	3217.02
713.744	3182.2
713.931	3356.28
714.119	3278.46
714.306	3182.2
714.494	3225.21
714.682	3253.88
714.869	3282.55
715.057	3296.89
715.244	3227.26
715.432	3296.89
715.619	3239.55
715.807	3210.87
715.994	3221.11
716.182	3204.73
716.369	3225.21
716.556	3225.21
716.744	3272.31
716.931	3315.32
717.119	3276.41
717.306	3305.08
717.493	3163.77
717.681	3276.41
717.868	3305.08
718.055	3167.87
718.242	3290.74
718.43	3262.07
718.617	3257.98
718.804	3360.38
718.991	3237.5
719.179	3315.32
719.366	3200.63
719.553	3370.62
719.74	3348.09
719.927	3311.22
720.114	3180.15
720.301	3249.79
720.488	3270.26
720.676	3305.08
720.863	3255.93
721.05	3282.55
721.237	3331.7
721.424	3159.67
721.611	3200.63
721.798	3180.15
721.985	3210.87
722.172	3065.47
722.358	3131
722.545	3270.26
722.732	3241.59
722.919	3141.24
723.106	3264.12
723.293	3131
723.48	3128.95
723.667	3133.05
723.853	3151.48
724.04	3159.67
724.227	3047.04
724.414	3153.53
724.6	3081.85
724.787	3145.34
724.974	3192.44
725.161	3264.12
725.347	3126.91
725.534	3255.93
725.72	3151.48
725.907	3253.88
726.094	3176.06
726.28	3192.44
726.467	3249.79
726.653	3171.96
726.84	3190.39
727.027	3255.93
727.213	3190.39
727.4	3133.05
727.586	3212.92
727.773	3151.48
727.959	3188.35
728.145	3118.72
728.332	3192.44
728.518	3090.04
728.705	3182.2
728.891	3147.39
729.077	3028.6
729.264	3053.18
729.45	3124.86
729.636	3188.35
729.823	3200.63
730.009	3184.25
730.195	3122.81
730.382	3149.43
730.568	3069.56
730.754	3188.35
730.94	3075.71
731.126	3133.05
731.313	3077.76
731.499	3090.04
731.685	2946.69
731.871	2958.97
732.057	3120.76
732.243	3094.14
732.429	3094.14
732.615	3092.09
732.801	3071.61
732.987	3061.37
733.173	2997.88
733.359	2889.34
733.545	3114.62
733.731	2979.45
733.917	3051.13
734.103	3022.46
734.289	3049.08
734.475	2889.34
734.661	3090.04
734.847	2926.21
735.033	3122.81
735.219	2983.55
735.404	2987.65
735.59	3008.12
735.776	2963.07
735.962	2954.88
736.148	3034.75
736.333	2989.69
736.519	2911.87
736.705	2944.64
736.89	3001.98
737.076	2934.4
737.262	2866.81
737.447	2909.82
737.633	2913.92
737.819	2889.34
738.004	2985.6
738.19	2805.38
738.375	3055.23
738.561	2903.68
738.747	2881.15
738.932	2956.93
739.118	2858.62
739.303	2805.38
739.489	2946.69
739.674	2795.14
739.859	2821.76
740.045	2791.04
740.23	2807.42
740.416	2707.07
740.601	2727.55
740.786	2780.8
740.972	2651.78
741.157	2762.37
741.342	2801.28
741.528	2678.4
741.713	2748.03
741.898	2784.9
742.084	2729.6
742.269	2711.17
742.454	2809.47
742.639	2829.95
742.824	2582.15
743.01	2608.77
743.195	2748.03
743.38	2520.71
743.565	2526.85
743.75	2653.83
743.935	2553.48
744.12	2520.71
744.305	2526.85
744.49	2557.57
744.675	2563.72
744.86	2549.38
745.045	2455.17
745.23	2483.84
745.415	2465.41
745.6	2498.18
745.785	2453.13
745.97	2584.2
746.155	2545.28
746.34	2418.31
746.525	2510.47
746.71	2393.73
746.895	2461.32
747.079	2375.3
747.264	2418.31
747.449	2299.53
747.634	2342.53
747.819	2207.37
748.003	2381.45
748.188	2262.66
748.373	2274.95
748.557	2266.76
748.742	2209.42
748.927	2277
749.111	2092.68
749.296	2324.1
749.481	2213.51
749.665	2248.33
749.85	2064.01
750.034	2111.11
750.219	2176.65
750.404	2018.96
750.588	2088.59
750.773	2016.91
750.957	2090.63
751.141	2064.01
751.326	1926.8
751.51	2012.81
751.695	1918.61
751.879	2053.77
752.064	2035.34
752.248	2012.81
752.432	2045.58
752.617	1883.79
752.801	1916.56
752.985	1996.43
753.17	1990.28
753.354	1877.65
753.538	1826.45
753.722	1848.97
753.907	1814.16
754.091	1820.3
754.275	1783.44
754.459	1875.6
754.643	1711.76
754.828	1861.26
755.012	1767.06
755.196	1674.9
755.38	1750.67
755.564	1730.19
755.748	1697.42
755.932	1685.14
756.116	1664.66
756.3	1644.18
756.484	1668.75
756.668	1640.08
756.852	1662.61
757.036	1603.22
757.22	1611.41
757.404	1658.51
757.588	1627.79
757.772	1666.71
757.956	1541.78
758.14	1529.49
758.323	1445.52
758.507	1437.33
758.691	1443.48
758.875	1511.06
759.059	1554.07
759.242	1466
759.426	1486.48
759.61	1453.72
759.794	1449.62
759.977	1494.68
760.161	1478.29
760.345	1384.09
760.528	1439.38
760.712	1339.03
760.895	1367.7
761.079	1351.32
761.263	1343.13
761.446	1388.18
761.63	1277.59
761.813	1386.13
761.997	1326.74
762.18	1363.61
762.364	1271.45
762.547	1326.74
762.731	1316.5
762.914	1365.65
763.098	1287.83
763.281	1273.5
763.464	1334.93
763.648	1326.74
763.831	1263.26
764.015	1261.21
764.198	1187.48
764.381	1220.25
764.564	1271.45
764.748	1269.4
764.931	1306.26
765.114	1222.3
765.297	1250.97
765.481	1183.38
765.664	1291.93
765.847	1224.34
766.03	1207.96
766.213	1144.47
766.397	1263.26
766.58	1181.34
766.763	1187.48
766.946	1267.35
767.129	1179.29
767.312	1146.52
767.495	1187.48
767.678	1089.18
767.861	1197.72
768.044	1160.86
768.227	1123.99
768.41	1095.32
768.593	1136.28
768.776	1095.32
768.959	1105.56
769.142	1033.88
769.324	1085.08
769.507	1144.47
769.69	1111.71
769.873	1130.14
770.056	1119.9
770.239	1175.19
770.421	1121.95
770.604	1119.9
770.787	1142.43
770.97	976.54
771.152	1078.94
771.335	1009.31
771.518	1001.12
771.7	997.02
771.883	1019.55
772.066	1003.16
772.248	1128.09
772.431	1027.74
772.613	1072.79
772.796	935.58
772.978	962.2
773.161	1033.88
773.343	941.72
773.526	876.19
773.708	1046.17
773.891	900.76
774.073	870.05
774.256	904.86
774.438	1040.03
774.621	931.48
774.803	908.96
774.985	929.44
775.168	839.33
775.35	808.61
775.532	865.95
775.715	868
775.897	741.02
776.079	839.33
776.261	943.77
776.444	843.42
776.626	857.76
776.808	861.85
776.99	827.04
777.173	829.09
777.355	829.09
777.537	829.09
777.719	714.4
777.901	771.74
778.083	743.07
778.265	743.07
778.447	818.85
778.629	781.98
778.811	845.47
778.993	767.65
779.175	757.41
779.357	691.87
779.539	655.01
779.721	743.07
779.903	767.65
780.085	702.11
780.267	642.72
780.449	720.54
780.631	655.01
780.812	802.46
780.994	677.54
781.176	710.3
781.358	685.73
781.54	648.86
781.721	652.96
781.903	616.1
782.085	632.48
782.267	624.29
782.448	603.81
782.63	681.63
782.812	759.46
782.993	612
783.175	568.99
783.357	568.99
783.538	720.54
783.72	648.86
783.901	585.38
784.083	622.24
784.264	581.28
784.446	618.15
784.627	595.62
784.809	620.19
784.99	573.09
785.172	583.33
785.353	609.95
785.535	566.95
785.716	618.15
785.897	542.37
786.079	585.38
786.26	493.22
786.441	519.84
786.623	390.82
786.804	530.08
786.985	546.47
787.167	489.12
787.348	466.6
787.529	511.65
787.71	554.66
787.891	554.66
788.073	446.12
788.254	423.59
788.435	521.89
788.616	515.75
788.797	358.05
788.978	476.84
789.159	433.83
789.34	448.16
789.522	439.97
789.703	429.73
789.884	478.88
790.065	501.41
790.246	521.89
790.427	431.78
790.607	509.6
790.788	466.6
790.969	370.34
791.15	396.96
791.331	405.16
791.512	378.53
791.693	376.48
791.874	347.81
792.054	360.1
792.235	399.01
792.416	313
792.597	437.92
792.778	388.77
792.958	366.25
793.139	388.77
793.32	331.43
793.5	331.43
793.681	349.86
793.862	306.85
794.042	349.86
794.223	378.53
794.404	323.24
794.584	353.96
794.765	351.91
794.945	396.96
795.126	364.2
795.306	431.78
795.487	374.44
795.667	290.47
795.848	341.67
796.028	390.82
796.209	321.19
796.389	349.86
796.57	343.72
796.75	321.19
796.93	310.95
797.111	306.85
797.291	235.18
797.471	364.2
797.652	364.2
797.832	306.85
798.012	337.57
798.192	366.25
798.373	288.42
798.553	317.09
798.733	204.46
798.913	331.43
799.093	249.51
799.274	327.33
799.454	444.07
799.634	296.61
799.814	321.19
799.994	347.81
800.174	345.77
800.354	181.93
800.534	263.85
800.714	251.56
800.894	259.75
801.074	177.83
801.254	192.17
801.434	267.94
801.614	243.37
801.794	302.76
801.974	874.14
802.154	192.17
802.334	247.46
802.514	229.03
802.693	265.89
802.873	284.33
803.053	294.57
803.233	315.05
803.413	235.18
803.592	222.89
803.772	239.27
803.952	286.37
804.131	212.65
804.311	317.09
804.491	327.33
804.67	235.18
804.85	214.7
805.03	267.94
805.209	317.09
805.389	267.94
805.568	265.89
805.748	267.94
805.928	218.79
806.107	202.41
806.287	243.37
806.466	249.51
806.646	255.65
806.825	222.89
807.004	202.41
807.184	179.88
807.363	226.98
807.543	267.94
807.722	169.64
807.901	245.41
808.081	261.8
808.26	145.06
808.439	261.8
808.619	233.13
808.798	202.41
808.977	224.94
809.156	202.41
809.336	210.6
809.515	161.45
809.694	274.09
809.873	202.41
810.052	169.64
810.231	247.46
810.411	224.94
810.59	153.26
810.769	104.11
810.948	210.6
811.127	151.21
811.306	220.84
811.485	169.64
811.664	216.74
811.843	159.4
812.022	177.83
812.201	136.87
812.38	192.17
812.559	120.49
812.737	202.41
812.916	157.35
813.095	175.78
813.274	112.3
813.453	116.39
813.632	155.3
813.811	249.51
813.989	136.87
814.168	188.07
814.347	143.02
814.526	122.54
814.704	214.7
814.883	218.79
815.062	212.65
815.24	183.98
815.419	134.82
815.598	186.02
815.776	216.74
815.955	145.06
816.133	83.63
816.312	155.3
816.49	173.74
816.669	134.82
816.847	155.3
817.026	157.35
817.204	118.44
817.383	179.88
817.561	102.06
817.74	235.18
817.918	143.02
818.097	167.59
818.275	93.87
818.453	155.3
818.632	161.45
818.81	188.07
818.988	71.34
819.167	179.88
819.345	173.74
819.523	140.97
819.701	132.78
819.879	171.69
820.058	104.11
820.236	120.49
820.414	128.68
820.592	87.72
820.77	89.77
820.948	169.64
821.127	124.58
821.305	126.63
821.483	116.39
821.661	89.77
821.839	7.85
822.017	108.2
822.195	124.58
822.373	118.44
822.551	59.05
822.729	161.45
822.907	151.21
823.085	165.54
823.262	112.3
823.44	116.39
823.618	100.01
823.796	161.45
823.974	153.26
824.152	22.19
824.329	110.25
824.507	87.72
824.685	155.3
824.863	147.11
825.04	147.11
825.218	186.02
825.396	91.82
825.574	128.68
825.751	136.87
825.929	153.26
826.107	79.53
826.284	50.86
826.462	112.3
826.639	126.63
826.817	65.19
826.994	167.59
827.172	67.24
827.349	171.69
827.527	79.53
827.704	124.58
827.882	108.2
828.059	75.43
828.237	120.49
828.414	95.91
828.591	36.52
828.769	108.2
828.946	48.81
829.124	140.97
829.301	85.67
829.478	114.34
829.655	124.58
829.833	71.34
830.01	95.91
830.187	106.15
830.364	42.67
830.542	106.15
830.719	136.87
830.896	81.58
831.073	75.43
831.25	91.82
831.427	71.34
831.604	83.63
831.782	85.67
831.959	22.19
832.136	79.53
832.313	63.15
832.49	95.91
832.667	104.11
832.844	77.48
833.021	165.54
833.198	24.23
833.374	130.73
833.551	136.87
833.728	102.06
833.905	106.15
834.082	77.48
834.259	71.34
834.436	85.67
834.612	38.57
834.789	95.91
834.966	85.67
835.143	93.87
835.319	69.29
835.496	79.53
835.673	79.53
835.85	114.34
836.026	79.53
836.203	110.25
836.38	71.34
836.556	38.57
836.733	83.63
836.909	100.01
837.086	26.28
837.262	28.33
837.439	52.91
837.616	65.19
837.792	61.1
837.968	97.96
838.145	63.15
838.321	65.19
838.498	120.49
838.674	136.87
838.851	54.95
839.027	102.06
839.203	3.75
839.38	46.76
839.556	155.3
839.732	106.15
839.909	77.48
840.085	61.1
840.261	38.57
840.437	40.62
840.614	114.34
840.79	100.01
840.966	116.39
841.142	77.48
841.318	71.34
841.494	77.48
841.671	104.11
841.847	79.53
842.023	22.19
842.199	42.67
842.375	85.67
842.551	42.67
842.727	22.19
842.903	104.11
843.079	57
843.255	110.25
843.431	77.48
843.607	30.38
843.783	-31.06
843.959	63.15
844.134	-16.73
844.31	67.24
844.486	-0.34
844.662	34.47
844.838	67.24
845.013	-0.34
845.189	24.23
845.365	48.81
845.541	59.05
845.716	57
845.892	67.24
846.068	-4.44
846.244	38.57
846.419	69.29
846.595	16.04
846.77	-2.39
846.946	79.53
847.122	75.43
847.297	54.95
847.473	28.33
847.648	54.95
847.824	118.44
847.999	9.9
848.175	120.49
848.35	89.77
848.526	63.15
848.701	54.95
848.876	42.67
849.052	24.23
849.227	28.33
849.403	-26.96
849.578	11.95
849.753	42.67
849.929	91.82
850.104	-53.59
850.279	13.99
850.454	140.97
850.63	-0.34
850.805	69.29
850.98	65.19
851.155	-24.92
851.33	79.53
851.505	7.85
851.681	-14.68
851.856	-12.63
852.031	42.67
852.206	77.48
852.381	30.38
852.556	-10.58
852.731	38.57
852.906	73.39
853.081	52.91
853.256	81.58
853.431	26.28
853.606	20.14
853.781	22.19
853.956	1.71
854.131	40.62
854.305	11.95
854.48	3.75
854.655	63.15
854.83	18.09
855.005	16.04
855.18	69.29
855.354	28.33
855.529	48.81
855.704	-35.16
855.879	54.95
856.053	9.9
856.228	-29.01
856.403	-31.06
856.577	40.62
856.752	1.71
856.926	54.95
857.101	46.76
857.276	38.57
857.45	36.52
857.625	65.19
857.799	34.47
857.974	57
858.148	-18.77
858.323	42.67
858.497	16.04
858.672	24.23
858.846	38.57
859.02	104.11
859.195	-14.68
859.369	-10.58
859.543	-4.44
859.718	79.53
859.892	87.72
860.066	52.91
860.241	-2.39
860.415	69.29
860.589	-41.3
860.763	9.9
860.938	44.71
861.112	-33.11
861.286	13.99
861.46	57
861.634	3.75
861.808	87.72
861.982	-69.97
862.157	16.04
862.331	-31.06
862.505	-74.07
862.679	-12.63
862.853	16.04
863.027	-37.2
863.201	110.25
863.375	-8.53
863.549	5.8
863.722	38.57
863.896	59.05
864.07	48.81
864.244	34.47
864.418	-12.63
864.592	54.95
864.766	22.19
864.939	46.76
865.113	-49.49
865.287	24.23
865.461	-22.87
865.634	40.62
865.808	46.76
865.982	18.09
866.156	-67.92
866.329	-4.44
866.503	-57.68
866.676	75.43
866.85	30.38
867.024	34.47
867.197	38.57
867.371	118.44
867.544	-39.25
867.718	30.38
867.891	54.95
868.065	-2.39
868.238	48.81
868.412	46.76
868.585	32.43
868.759	9.9
868.932	42.67
869.105	-29.01
869.279	-14.68
869.452	54.95
869.625	-16.73
869.799	30.38
869.972	-6.49
870.145	-2.39
870.319	32.43
870.492	-39.25
870.665	3.75
870.838	73.39
871.011	-12.63
871.185	-12.63
871.358	40.62
871.531	20.14
871.704	-98.64
871.877	46.76
872.05	36.52
872.223	20.14
872.396	28.33
872.569	24.23
872.742	-67.92
872.915	26.28
873.088	26.28
873.261	-14.68
873.434	16.04
873.607	-47.44
873.78	93.87
873.953	18.09
874.126	13.99
874.299	69.29
874.471	-4.44
874.644	26.28
874.817	-39.25
874.99	71.34
875.163	-2.39
875.335	28.33
875.508	-8.53
875.681	32.43
875.853	-6.49
876.026	-6.49
876.199	30.38
876.371	122.54
876.544	46.76
876.717	-20.82
876.889	-4.44
877.062	48.81
877.234	3.75
877.407	-4.44
877.579	-94.55
877.752	-39.25
877.924	-100.69
878.097	-12.63
878.269	-26.96
878.442	-20.82
878.614	28.33
878.786	1.71
878.959	44.71
879.131	-45.4
879.303	-35.16
879.476	36.52
879.648	7.85
879.82	7.85
879.993	-63.83
880.165	-22.87
880.337	-35.16
880.509	9.9
880.681	-47.44
880.854	-18.77
881.026	-26.96
881.198	38.57
881.37	13.99
881.542	11.95
881.714	-49.49
881.886	-10.58
882.058	48.81
882.23	9.9
882.402	-8.53
882.574	1.71
882.746	69.29
882.918	77.48
883.09	34.47
883.262	13.99
883.434	-51.54
883.606	71.34
883.778	-55.64
883.95	20.14
884.122	-12.63
884.293	40.62
884.465	-4.44
884.637	18.09
884.809	-78.16
884.98	1.71
885.152	3.75
885.324	63.15
885.496	-18.77
885.667	71.34
885.839	-16.73
886.011	59.05
886.182	-61.78
886.354	59.05
886.525	63.15
886.697	-39.25
886.869	-2.39
887.04	59.05
887.212	-39.25
887.383	50.86
887.555	-6.49
887.726	-76.12
887.897	-43.35
888.069	24.23
888.24	30.38
888.412	-35.16
888.583	-45.4
888.754	-26.96
888.926	30.38
889.097	-14.68
889.268	-26.96
889.44	-31.06
889.611	-110.93
889.782	-2.39
889.953	30.38
890.125	65.19
890.296	-55.64
890.467	26.28
890.638	-45.4
890.809	-14.68
890.98	-26.96
891.151	46.76
891.323	89.77
891.494	20.14
891.665	38.57
891.836	28.33
892.007	-24.92
892.178	13.99
892.349	-12.63
892.52	16.04
892.691	-0.34
892.862	50.86
893.032	7.85
893.203	-14.68
893.374	-76.12
893.545	13.99
893.716	11.95
893.887	24.23
894.057	38.57
894.228	65.19
894.399	-43.35
894.57	42.67
894.74	-76.12
894.911	50.86
895.082	63.15
895.253	-31.06
895.423	5.8
895.594	24.23
895.764	20.14
895.935	20.14
896.106	5.8
896.276	-88.4
896.447	26.28
896.617	36.52
896.788	-29.01
896.958	-6.49
897.129	16.04
897.299	-33.11
897.47	-26.96
897.64	-22.87
897.81	-39.25
897.981	42.67
898.151	-37.2
898.322	67.24
898.492	-14.68
898.662	-33.11
898.832	1.71
899.003	-67.92
899.173	36.52
899.343	-33.11
899.513	11.95
