Data from USB4F104151__70__10-24-04-092.txt Node

Date: Wed Mar 12 10:24:04 EDT 2025
User: louis
Spectrometer: USB4F10415
Trigger mode: 4
Integration Time (sec): 3.000000E-2
Scans to average: 1
Electric dark correction enabled: true
Nonlinearity correction enabled: false
Boxcar width: 0
XAxis mode: Wavelengths
Number of Pixels in Spectrum: 3648
>>>>>Begin Spectral Data<<<<<
178.204	-68.27
178.424	-68.27
178.644	-68.27
178.864	-58.03
179.084	-162.47
179.304	13.65
179.524	-31.4
179.744	21.85
179.964	48.47
180.184	-60.07
180.404	11.61
180.624	58.71
180.844	40.28
181.064	-43.69
181.283	-68.27
181.503	13.65
181.723	-4.78
181.943	-19.11
182.163	111.96
182.383	56.66
182.602	42.32
182.822	111.96
183.042	40.28
183.262	7.51
183.482	122.2
183.701	34.13
183.921	62.8
184.141	27.99
184.361	34.13
184.58	19.8
184.8	50.52
185.02	48.47
185.239	124.24
185.459	42.32
185.679	95.57
185.898	21.85
186.118	99.67
186.338	105.81
186.557	95.57
186.777	71
186.997	11.61
187.216	-17.07
187.436	105.81
187.655	48.47
187.875	114
188.095	36.18
188.314	91.48
188.534	144.72
188.753	60.76
188.973	87.38
189.192	71
189.412	-6.83
189.631	79.19
189.851	73.04
190.07	77.14
190.29	-10.92
190.509	19.8
190.729	68.95
190.948	111.96
191.168	109.91
191.387	93.52
191.607	179.54
191.826	107.86
192.045	42.32
192.265	68.95
192.484	66.9
192.704	11.61
192.923	3.41
193.142	95.57
193.362	42.32
193.581	71
193.8	95.57
194.02	71
194.239	52.56
194.458	89.43
194.678	54.61
194.897	107.86
195.116	85.33
195.335	48.47
195.555	56.66
195.774	124.24
195.993	71
196.212	50.52
196.432	62.8
196.651	21.85
196.87	21.85
197.089	183.63
197.308	87.38
197.528	79.19
197.747	-2.73
197.966	56.66
198.185	142.68
198.404	44.37
198.623	85.33
198.842	40.28
199.062	1.37
199.281	75.09
199.5	15.7
199.719	15.7
199.938	42.32
200.157	161.11
200.376	120.15
200.595	79.19
200.814	58.71
201.033	-33.45
201.252	71
201.471	91.48
201.69	91.48
201.909	66.9
202.128	30.04
202.347	62.8
202.566	85.33
202.785	25.94
203.004	27.99
203.223	144.72
203.442	91.48
203.661	124.24
203.879	13.65
204.098	54.61
204.317	87.38
204.536	91.48
204.755	87.38
204.974	44.37
205.193	17.75
205.411	66.9
205.63	91.48
205.849	64.85
206.068	46.42
206.287	-2.73
206.505	89.43
206.724	132.44
206.943	44.37
207.162	34.13
207.381	56.66
207.599	13.65
207.818	93.52
208.037	75.09
208.255	25.94
208.474	42.32
208.693	99.67
208.911	60.76
209.13	21.85
209.349	124.24
209.567	193.87
209.786	81.24
210.005	38.23
210.223	38.23
210.442	7.51
210.661	-39.59
210.879	3.41
211.098	77.14
211.316	109.91
211.535	111.96
211.753	-12.97
211.972	30.04
212.191	11.61
212.409	77.14
212.628	46.42
212.846	95.57
213.065	85.33
213.283	21.85
213.502	-4.78
213.72	36.18
213.938	64.85
214.157	17.75
214.375	54.61
214.594	116.05
214.812	68.95
215.031	52.56
215.249	-23.21
215.467	132.44
215.686	150.87
215.904	103.76
216.122	75.09
216.341	79.19
216.559	-4.78
216.778	68.95
216.996	83.28
217.214	7.51
217.432	9.56
217.651	71
217.869	30.04
218.087	9.56
218.306	32.08
218.524	34.13
218.742	-27.31
218.96	62.8
219.179	71
219.397	128.34
219.615	142.68
219.833	79.19
220.051	85.33
220.27	52.56
220.488	105.81
220.706	56.66
220.924	34.13
221.142	7.51
221.36	68.95
221.578	66.9
221.796	62.8
222.015	95.57
222.233	54.61
222.451	154.96
222.669	32.08
222.887	109.91
223.105	68.95
223.323	60.76
223.541	66.9
223.759	68.95
223.977	9.56
224.195	23.89
224.413	81.24
224.631	19.8
224.849	81.24
225.067	132.44
225.285	11.61
225.503	42.32
225.721	3.41
225.939	1.37
226.157	13.65
226.375	159.06
226.592	38.23
226.81	91.48
227.028	105.81
227.246	114
227.464	60.76
227.682	154.96
227.9	109.91
228.117	87.38
228.335	120.15
228.553	42.32
228.771	77.14
228.989	58.71
229.206	21.85
229.424	97.62
229.642	66.9
229.86	68.95
230.077	56.66
230.295	38.23
230.513	130.39
230.731	58.71
230.948	36.18
231.166	111.96
231.384	60.76
231.601	71
231.819	91.48
232.037	21.85
232.254	128.34
232.472	120.15
232.689	21.85
232.907	7.51
233.125	32.08
233.342	21.85
233.56	13.65
233.777	103.76
233.995	81.24
234.213	142.68
234.43	114
234.648	93.52
234.865	34.13
235.083	79.19
235.3	75.09
235.518	73.04
235.735	136.53
235.953	105.81
236.17	-12.97
236.388	64.85
236.605	83.28
236.822	91.48
237.04	95.57
237.257	50.52
237.475	85.33
237.692	36.18
237.909	15.7
238.127	71
238.344	38.23
238.562	87.38
238.779	54.61
238.996	19.8
239.214	11.61
239.431	34.13
239.648	19.8
239.865	-12.97
240.083	48.47
240.3	101.72
240.517	3.41
240.735	152.91
240.952	75.09
241.169	130.39
241.386	25.94
241.603	56.66
241.821	11.61
242.038	17.75
242.255	58.71
242.472	95.57
242.689	50.52
242.907	109.91
243.124	50.52
243.341	120.15
243.558	34.13
243.775	93.52
243.992	66.9
244.209	1.37
244.426	191.83
244.643	-8.87
244.86	46.42
245.078	58.71
245.295	107.86
245.512	1.37
245.729	79.19
245.946	95.57
246.163	15.7
246.38	13.65
246.597	79.19
246.814	58.71
247.031	64.85
247.248	23.89
247.464	99.67
247.681	11.61
247.898	109.91
248.115	21.85
248.332	97.62
248.549	107.86
248.766	157.01
248.983	83.28
249.2	56.66
249.417	144.72
249.633	95.57
249.85	81.24
250.067	38.23
250.284	30.04
250.501	122.2
250.717	71
250.934	13.65
251.151	42.32
251.368	93.52
251.585	85.33
251.801	118.1
252.018	54.61
252.235	68.95
252.451	54.61
252.668	111.96
252.885	38.23
253.102	50.52
253.318	79.19
253.535	48.47
253.752	44.37
253.968	111.96
254.185	54.61
254.401	66.9
254.618	109.91
254.835	9.56
255.051	95.57
255.268	124.24
255.484	15.7
255.701	71
255.917	-17.07
256.134	58.71
256.351	77.14
256.567	58.71
256.784	91.48
257	-10.92
257.217	120.15
257.433	52.56
257.65	9.56
257.866	60.76
258.082	5.46
258.299	17.75
258.515	5.46
258.732	-2.73
258.948	91.48
259.165	95.57
259.381	13.65
259.597	99.67
259.814	91.48
260.03	99.67
260.246	30.04
260.463	46.42
260.679	91.48
260.895	95.57
261.112	85.33
261.328	120.15
261.544	73.04
261.761	103.76
261.977	75.09
262.193	19.8
262.409	81.24
262.626	36.18
262.842	40.28
263.058	1.37
263.274	71
263.49	91.48
263.707	54.61
263.923	126.29
264.139	19.8
264.355	114
264.571	58.71
264.787	68.95
265.004	87.38
265.22	30.04
265.436	46.42
265.652	58.71
265.868	73.04
266.084	19.8
266.3	77.14
266.516	19.8
266.732	101.72
266.948	36.18
267.164	107.86
267.38	105.81
267.596	114
267.812	75.09
268.028	-0.68
268.244	50.52
268.46	83.28
268.676	3.41
268.892	42.32
269.108	54.61
269.324	13.65
269.54	17.75
269.756	73.04
269.972	66.9
270.188	81.24
270.403	52.56
270.619	79.19
270.835	68.95
271.051	48.47
271.267	30.04
271.483	73.04
271.698	-2.73
271.914	50.52
272.13	134.48
272.346	19.8
272.562	46.42
272.777	181.59
272.993	19.8
273.209	101.72
273.425	93.52
273.64	19.8
273.856	132.44
274.072	25.94
274.287	-12.97
274.503	105.81
274.719	44.37
274.934	62.8
275.15	120.15
275.366	-4.78
275.581	-2.73
275.797	93.52
276.012	66.9
276.228	13.65
276.444	38.23
276.659	93.52
276.875	17.75
277.09	11.61
277.306	68.95
277.521	109.91
277.737	58.71
277.952	152.91
278.168	9.56
278.383	116.05
278.599	126.29
278.814	68.95
279.03	46.42
279.245	122.2
279.461	56.66
279.676	13.65
279.892	-53.93
280.107	15.7
280.322	105.81
280.538	54.61
280.753	34.13
280.969	77.14
281.184	62.8
281.399	101.72
281.615	42.32
281.83	32.08
282.045	3.41
282.26	85.33
282.476	93.52
282.691	128.34
282.906	79.19
283.122	93.52
283.337	1.37
283.552	128.34
283.767	-33.45
283.983	148.82
284.198	101.72
284.413	60.76
284.628	23.89
284.843	58.71
285.058	50.52
285.274	25.94
285.489	25.94
285.704	58.71
285.919	42.32
286.134	130.39
286.349	79.19
286.564	103.76
286.779	68.95
286.995	54.61
287.21	32.08
287.425	99.67
287.64	64.85
287.855	75.09
288.07	42.32
288.285	114
288.5	56.66
288.715	58.71
288.93	103.76
289.145	87.38
289.36	116.05
289.575	56.66
289.79	161.11
290.004	30.04
290.219	97.62
290.434	38.23
290.649	7.51
290.864	144.72
291.079	34.13
291.294	58.71
291.509	114
291.724	50.52
291.938	75.09
292.153	54.61
292.368	134.48
292.583	68.95
292.798	93.52
293.012	91.48
293.227	62.8
293.442	73.04
293.657	-0.68
293.871	89.43
294.086	103.76
294.301	71
294.516	73.04
294.73	87.38
294.945	21.85
295.16	32.08
295.374	44.37
295.589	157.01
295.804	62.8
296.018	13.65
296.233	103.76
296.447	81.24
296.662	5.46
296.877	95.57
297.091	21.85
297.306	5.46
297.52	71
297.735	87.38
297.949	122.2
298.164	103.76
298.378	60.76
298.593	44.37
298.807	87.38
299.022	52.56
299.236	23.89
299.451	27.99
299.665	66.9
299.88	85.33
300.094	68.95
300.309	-53.93
300.523	36.18
300.737	-4.78
300.952	95.57
301.166	154.96
301.381	36.18
301.595	87.38
301.809	93.52
302.024	40.28
302.238	-0.68
302.452	146.77
302.667	54.61
302.881	79.19
303.095	103.76
303.309	5.46
303.524	30.04
303.738	27.99
303.952	87.38
304.166	66.9
304.381	9.56
304.595	101.72
304.809	54.61
305.023	95.57
305.237	109.91
305.452	48.47
305.666	30.04
305.88	73.04
306.094	71
306.308	89.43
306.522	71
306.736	107.86
306.95	126.29
307.164	30.04
307.379	83.28
307.593	85.33
307.807	95.57
308.021	1.37
308.235	101.72
308.449	19.8
308.663	44.37
308.877	89.43
309.091	71
309.305	19.8
309.519	-33.45
309.733	32.08
309.947	58.71
310.161	87.38
310.374	54.61
310.588	83.28
310.802	46.42
311.016	93.52
311.23	34.13
311.444	-23.21
311.658	75.09
311.872	83.28
312.085	44.37
312.299	85.33
312.513	48.47
312.727	99.67
312.941	-10.92
313.154	99.67
313.368	56.66
313.582	46.42
313.796	132.44
314.009	32.08
314.223	44.37
314.437	91.48
314.651	87.38
314.864	42.32
315.078	-6.83
315.292	60.76
315.505	44.37
315.719	118.1
315.933	25.94
316.146	36.18
316.36	64.85
316.573	89.43
316.787	103.76
317.001	52.56
317.214	50.52
317.428	9.56
317.641	58.71
317.855	9.56
318.068	25.94
318.282	27.99
318.495	189.78
318.709	71
318.922	71
319.136	27.99
319.349	71
319.563	85.33
319.776	48.47
319.99	52.56
320.203	99.67
320.417	64.85
320.63	38.23
320.843	103.76
321.057	19.8
321.27	83.28
321.483	89.43
321.697	107.86
321.91	23.89
322.124	93.52
322.337	30.04
322.55	54.61
322.763	138.58
322.977	75.09
323.19	34.13
323.403	25.94
323.617	81.24
323.83	58.71
324.043	50.52
324.256	62.8
324.469	79.19
324.683	79.19
324.896	27.99
325.109	101.72
325.322	-10.92
325.535	83.28
325.748	77.14
325.962	99.67
326.175	9.56
326.388	136.53
326.601	101.72
326.814	66.9
327.027	79.19
327.24	13.65
327.453	34.13
327.666	52.56
327.879	118.1
328.092	58.71
328.305	25.94
328.518	13.65
328.731	27.99
328.944	154.96
329.157	89.43
329.37	30.04
329.583	132.44
329.796	132.44
330.009	-4.78
330.222	93.52
330.435	77.14
330.648	159.06
330.861	77.14
331.073	62.8
331.286	60.76
331.499	44.37
331.712	50.52
331.925	97.62
332.138	126.29
332.35	68.95
332.563	54.61
332.776	11.61
332.989	5.46
333.202	75.09
333.414	91.48
333.627	42.32
333.84	79.19
334.053	118.1
334.265	107.86
334.478	60.76
334.691	87.38
334.903	99.67
335.116	32.08
335.329	89.43
335.541	54.61
335.754	99.67
335.966	42.32
336.179	138.58
336.392	73.04
336.604	71
336.817	89.43
337.029	71
337.242	116.05
337.454	120.15
337.667	111.96
337.88	87.38
338.092	58.71
338.305	128.34
338.517	68.95
338.729	48.47
338.942	81.24
339.154	1.37
339.367	46.42
339.579	107.86
339.792	38.23
340.004	48.47
340.217	34.13
340.429	75.09
340.641	44.37
340.854	48.47
341.066	5.46
341.278	132.44
341.491	118.1
341.703	36.18
341.915	40.28
342.128	83.28
342.34	142.68
342.552	71
342.764	95.57
342.977	46.42
343.189	62.8
343.401	44.37
343.613	128.34
343.826	77.14
344.038	34.13
344.25	152.91
344.462	46.42
344.674	99.67
344.886	42.32
345.099	54.61
345.311	64.85
345.523	116.05
345.735	89.43
345.947	101.72
346.159	-8.87
346.371	42.32
346.583	21.85
346.795	89.43
347.007	42.32
347.219	132.44
347.431	111.96
347.643	136.53
347.855	34.13
348.067	73.04
348.279	81.24
348.491	68.95
348.703	-4.78
348.915	-31.4
349.127	21.85
349.339	77.14
349.551	83.28
349.763	64.85
349.975	46.42
350.187	56.66
350.399	97.62
350.61	34.13
350.822	73.04
351.034	58.71
351.246	15.7
351.458	77.14
351.669	68.95
351.881	89.43
352.093	34.13
352.305	109.91
352.517	105.81
352.728	146.77
352.94	140.63
353.152	-23.21
353.363	34.13
353.575	144.72
353.787	62.8
353.999	32.08
354.21	93.52
354.422	132.44
354.633	71
354.845	50.52
355.057	25.94
355.268	118.1
355.48	101.72
355.692	52.56
355.903	46.42
356.115	25.94
356.326	64.85
356.538	73.04
356.749	126.29
356.961	68.95
357.172	73.04
357.384	75.09
357.595	132.44
357.807	27.99
358.018	32.08
358.23	30.04
358.441	81.24
358.653	42.32
358.864	109.91
359.075	148.82
359.287	42.32
359.498	103.76
359.709	87.38
359.921	97.62
360.132	19.8
360.344	116.05
360.555	19.8
360.766	13.65
360.977	-6.83
361.189	126.29
361.4	97.62
361.611	126.29
361.823	87.38
362.034	52.56
362.245	42.32
362.456	148.82
362.667	87.38
362.879	60.76
363.09	21.85
363.301	105.81
363.512	114
363.723	68.95
363.935	21.85
364.146	163.15
364.357	23.89
364.568	75.09
364.779	101.72
364.99	83.28
365.201	54.61
365.412	134.48
365.623	46.42
365.834	120.15
366.045	105.81
366.256	21.85
366.467	46.42
366.678	13.65
366.889	68.95
367.1	3.41
367.311	109.91
367.522	46.42
367.733	79.19
367.944	87.38
368.155	66.9
368.366	122.2
368.577	103.76
368.788	87.38
368.999	93.52
369.209	68.95
369.42	99.67
369.631	105.81
369.842	73.04
370.053	68.95
370.264	71
370.474	46.42
370.685	109.91
370.896	56.66
371.107	64.85
371.317	118.1
371.528	62.8
371.739	159.06
371.95	11.61
372.16	161.11
372.371	85.33
372.582	75.09
372.792	109.91
373.003	48.47
373.214	114
373.424	126.29
373.635	-33.45
373.846	126.29
374.056	136.53
374.267	79.19
374.477	52.56
374.688	58.71
374.898	77.14
375.109	62.8
375.319	83.28
375.53	105.81
375.74	122.2
375.951	103.76
376.161	42.32
376.372	71
376.582	36.18
376.793	101.72
377.003	157.01
377.214	77.14
377.424	62.8
377.635	50.52
377.845	91.48
378.055	128.34
378.266	71
378.476	134.48
378.686	87.38
378.897	73.04
379.107	21.85
379.317	23.89
379.528	116.05
379.738	48.47
379.948	114
380.158	-6.83
380.369	150.87
380.579	148.82
380.789	68.95
380.999	126.29
381.21	87.38
381.42	120.15
381.63	54.61
381.84	79.19
382.05	120.15
382.261	75.09
382.471	36.18
382.681	85.33
382.891	132.44
383.101	71
383.311	36.18
383.521	73.04
383.731	87.38
383.941	99.67
384.151	146.77
384.361	85.33
384.571	42.32
384.781	50.52
384.991	124.24
385.201	103.76
385.411	66.9
385.621	140.63
385.831	85.33
386.041	44.37
386.251	42.32
386.461	116.05
386.671	60.76
386.881	161.11
387.091	109.91
387.301	93.52
387.511	132.44
387.72	38.23
387.93	171.35
388.14	87.38
388.35	75.09
388.56	38.23
388.769	116.05
388.979	122.2
389.189	1.37
389.399	99.67
389.609	93.52
389.818	66.9
390.028	97.62
390.238	118.1
390.447	148.82
390.657	140.63
390.867	124.24
391.076	87.38
391.286	124.24
391.496	118.1
391.705	3.41
391.915	154.96
392.125	126.29
392.334	60.76
392.544	157.01
392.753	87.38
392.963	21.85
393.172	107.86
393.382	40.28
393.591	136.53
393.801	27.99
394.01	173.39
394.22	93.52
394.429	56.66
394.639	134.48
394.848	105.81
395.058	136.53
395.267	122.2
395.477	132.44
395.686	154.96
395.895	154.96
396.105	181.59
396.314	136.53
396.524	109.91
396.733	120.15
396.942	150.87
397.152	132.44
397.361	140.63
397.57	226.64
397.78	152.91
397.989	99.67
398.198	175.44
398.407	101.72
398.617	91.48
398.826	97.62
399.035	40.28
399.244	173.39
399.453	124.24
399.663	154.96
399.872	136.53
400.081	85.33
400.29	95.57
400.499	148.82
400.708	193.87
400.917	95.57
401.127	116.05
401.336	85.33
401.545	181.59
401.754	148.82
401.963	152.91
402.172	118.1
402.381	122.2
402.59	169.3
402.799	148.82
403.008	134.48
403.217	181.59
403.426	177.49
403.635	122.2
403.844	87.38
404.053	195.92
404.262	169.3
404.471	214.35
404.68	142.68
404.888	128.34
405.097	197.97
405.306	216.4
405.515	134.48
405.724	120.15
405.933	161.11
406.142	187.73
406.35	304.46
406.559	183.63
406.768	218.45
406.977	243.03
407.185	154.96
407.394	220.5
407.603	140.63
407.812	281.94
408.02	331.09
408.229	210.26
408.438	277.84
408.646	238.93
408.855	226.64
409.064	324.94
409.272	308.56
409.481	324.94
409.69	351.57
409.898	333.14
410.107	400.72
410.315	419.15
410.524	292.18
410.733	370
410.941	304.46
411.15	382.29
411.358	363.86
411.567	370
411.775	365.9
411.984	464.21
412.192	417.1
412.401	447.82
412.609	527.69
412.818	480.59
413.026	456.01
413.234	490.83
413.443	593.23
413.651	578.89
413.86	521.55
414.068	623.95
414.276	689.48
414.485	666.96
414.693	677.2
414.901	689.48
415.11	757.07
415.318	662.86
415.526	695.63
415.734	816.46
415.943	742.73
416.151	812.36
416.359	855.37
416.567	890.18
416.776	888.14
416.984	906.57
417.192	980.29
417.4	953.67
417.608	943.43
417.817	990.53
418.025	1092.93
418.233	1199.43
418.441	1004.87
418.649	1187.14
418.857	1121.6
419.065	1353.02
419.273	1176.9
419.481	1277.25
419.689	1350.98
419.897	1461.57
420.105	1508.67
420.313	1412.42
420.521	1545.53
420.729	1598.78
420.937	1672.51
421.145	1684.8
421.353	1766.71
421.561	1908.02
421.769	1891.64
421.977	1905.98
422.185	1836.35
422.393	2026.81
422.601	2166.07
422.809	2098.49
423.017	2139.44
423.224	2247.99
423.432	2372.91
423.64	2338.1
423.848	2694.44
424.056	2542.89
424.263	2635.05
424.471	2757.93
424.679	2788.65
424.887	2819.37
425.094	3015.98
425.302	3056.93
425.51	3009.83
425.718	3208.48
425.925	3306.79
426.133	3294.5
426.341	3425.57
426.548	3605.79
426.756	3593.5
426.964	3630.37
427.171	3880.22
427.379	4089.11
427.586	4205.85
427.794	4230.42
428.001	4453.65
428.209	4437.27
428.417	4613.39
428.624	4853
428.832	4855.05
429.039	4713.74
429.247	4826.38
429.454	5197.06
429.662	5610.75
429.869	5276.93
430.076	5516.55
430.284	5473.54
430.491	5643.52
430.699	6032.63
430.906	5971.19
431.114	6073.59
431.321	6352.12
431.528	6522.1
431.736	6886.64
431.943	7161.06
432.15	6841.58
432.358	7050.47
432.565	7490.79
432.772	7306.47
432.979	7675.1
433.187	8043.74
433.394	7970.01
433.601	8467.67
433.808	8471.76
434.016	8283.35
434.223	8803.53
434.43	9456.84
434.637	9215.18
434.844	9827.52
435.052	9956.54
435.259	9759.94
435.466	9911.49
435.673	9725.12
435.88	10450.1
436.087	10937.52
436.294	11023.53
436.501	10933.42
436.708	10998.96
436.915	11367.59
437.122	11779.23
437.329	12033.18
437.537	11953.31
437.743	12364.95
437.95	12264.6
438.157	12795.03
438.364	13333.64
438.571	13339.79
438.778	13343.88
438.985	14808.18
439.192	14136.45
439.399	14425.21
439.606	14068.86
439.813	14920.82
440.02	15750.24
440.227	15559.78
440.433	15406.19
440.64	16043.1
440.847	15879.27
441.054	16100.45
441.261	17355.85
441.467	17017.94
441.674	17351.76
441.881	18109.5
442.088	18062.4
442.294	17826.89
442.501	18017.35
442.708	18871.35
442.914	19493.93
443.121	19973.16
443.328	19633.19
443.534	21210.13
443.741	20554.78
443.948	20167.71
444.154	21715.98
444.361	21502.99
444.568	21556.24
444.774	21644.3
444.981	21918.73
445.187	22305.79
445.394	23176.18
445.6	23006.2
445.807	25519.06
446.013	24423.39
446.22	24706.01
446.426	25308.12
446.633	25639.89
446.839	26780.6
447.046	25578.45
447.252	26909.63
447.459	27251.64
447.665	26895.29
447.871	27921.32
448.078	29090.71
448.284	28003.24
448.491	28564.39
448.697	29440.92
448.903	30008.2
449.11	29911.95
449.316	29309.85
449.522	30129.03
449.728	31050.62
449.935	31062.91
450.141	31050.62
450.347	31787.89
450.553	30776.19
450.76	30759.81
450.966	32062.32
451.172	31658.87
451.378	32394.09
451.584	31941.49
451.791	32643.94
451.997	32783.2
452.203	32934.75
452.409	32883.55
452.615	32607.08
452.821	31470.45
453.027	31257.46
453.233	32787.3
453.44	31253.37
453.646	31910.77
453.852	31832.94
454.058	32344.94
454.264	31110.01
454.47	31773.55
454.676	31337.34
454.882	32146.28
455.088	29545.36
455.294	29899.66
455.5	30016.4
455.705	30931.84
455.911	29096.86
456.117	28877.72
456.323	28433.32
456.529	26860.48
456.735	27999.15
456.941	27231.16
457.147	26751.93
457.352	25691.09
457.558	25820.11
457.764	25672.65
457.97	25170.9
458.176	24746.97
458.381	24392.67
458.587	23507.95
458.793	23315.44
458.999	22277.12
459.204	23862.25
459.41	23514.09
459.616	21718.03
459.821	21879.82
460.027	21832.71
460.233	20972.57
460.438	20053.03
460.644	20407.33
460.85	19616.81
461.055	19303.47
461.261	18861.11
461.466	17714.25
461.672	17306.7
461.878	18498.62
462.083	17548.36
462.289	16737.37
462.494	16622.68
462.7	15963.23
462.905	15510.63
463.111	16487.51
463.316	16319.58
463.522	15813.73
463.727	15891.55
463.932	15928.42
464.138	15688.81
464.343	15762.53
464.549	15389.8
464.754	15930.47
464.959	15574.12
465.165	15307.88
465.37	14576.76
465.575	14599.29
465.781	14765.17
465.986	15311.98
466.191	14457.98
466.397	14357.63
466.602	13565.06
466.807	13991.04
467.012	14109.82
467.218	14032
467.423	13905.03
467.628	13870.21
467.833	14591.09
468.038	13747.33
468.244	13380.75
468.449	14216.32
468.654	13651.08
468.859	13780.1
469.064	13411.46
469.269	13024.4
469.474	13069.45
469.679	13446.28
469.885	13012.11
470.09	13063.31
470.295	13261.96
470.5	12608.66
470.705	12526.74
470.91	12340.38
471.115	12377.24
471.32	12633.24
471.525	12481.69
471.73	12078.24
471.935	12244.12
472.139	11840.67
472.344	11994.27
472.549	11707.55
472.754	11789.47
472.959	11394.22
473.164	11175.08
473.369	10933.42
473.574	11498.66
473.778	11433.13
473.983	10962.09
474.188	10900.65
474.393	10708.15
474.598	10818.74
474.802	10732.72
475.007	10466.49
475.212	10581.17
475.417	10251.45
475.621	10114.23
475.826	10079.42
476.031	10122.43
476.235	9755.84
476.44	9770.18
476.645	9921.73
476.849	9721.02
477.054	9743.55
477.259	9573.57
477.463	9471.17
477.668	9153.74
477.872	9399.49
478.077	9272.52
478.282	9061.58
478.486	8873.17
478.691	8893.65
478.895	8834.25
479.1	8942.8
479.304	8879.31
479.509	8563.92
479.713	8881.36
479.918	8576.21
480.122	8551.63
480.326	8557.78
480.531	8563.92
480.735	8326.36
480.94	8410.32
481.144	8654.03
481.348	8410.32
481.553	8492.24
481.757	8203.48
481.961	8352.98
482.166	8586.45
482.37	8316.12
482.574	8135.9
482.778	8221.91
482.983	8473.81
483.187	8381.65
483.391	8348.89
483.595	8316.12
483.8	8172.76
484.004	8264.92
484.208	8410.32
484.412	8305.88
484.616	8178.9
484.821	8205.53
485.025	8119.51
485.229	8240.34
485.433	8375.51
485.637	8334.55
485.841	7978.2
486.045	8096.99
486.249	8242.39
486.453	8303.83
486.657	8340.69
486.861	8287.45
487.065	8144.09
487.269	8365.27
487.473	8021.21
487.677	8281.3
487.881	8248.54
488.085	8232.15
488.289	8373.46
488.493	8209.62
488.697	8318.17
488.901	8303.83
489.105	8254.68
489.309	8185.05
489.512	8260.82
489.716	8269.02
489.92	8246.49
490.124	8412.37
490.328	8469.72
490.531	8312.02
490.735	8477.91
490.939	8486.1
491.143	8434.9
491.346	8412.37
491.55	8555.73
491.754	8690.9
491.958	8422.61
492.161	8801.49
492.365	8709.33
492.569	8731.86
492.772	8733.9
492.976	8752.34
493.18	8674.51
493.383	8852.69
493.587	8983.76
493.79	8973.52
493.994	8934.6
494.197	9196.74
494.401	9229.51
494.605	9249.99
494.808	9231.56
495.012	9303.24
495.215	9491.65
495.419	9336.01
495.622	9368.77
495.825	9841.86
496.029	9780.42
496.232	9716.93
496.436	9854.14
496.639	10097.85
496.843	9948.35
497.046	10142.91
497.249	10464.44
497.453	10396.85
497.656	10572.98
497.859	10466.49
498.063	10611.89
498.266	10767.54
498.469	10921.13
498.673	11039.92
498.876	11232.43
499.079	11117.74
499.282	11179.18
499.485	11515.05
499.689	11439.27
499.892	11617.44
500.095	11768.99
500.298	11973.79
500.501	11820.19
500.705	12020.89
500.908	12475.54
501.111	12383.38
501.314	12741.78
501.517	12772.5
501.72	12657.81
501.923	12911.76
502.126	13321.35
502.329	13444.23
502.532	13532.29
502.735	13438.09
502.938	13767.81
503.141	13853.83
503.344	14126.21
503.547	14185.6
503.75	14316.67
503.953	14668.92
504.156	14818.42
504.359	14879.86
504.562	14912.63
504.765	15209.58
504.968	15404.14
505.17	15453.29
505.373	15623.27
505.576	15907.94
505.779	16180.32
505.982	16188.51
506.185	16448.6
506.387	16299.1
506.59	16403.55
506.793	17183.82
506.996	17054.8
507.198	17355.85
507.401	17591.37
507.604	17583.18
507.807	17908.8
508.009	17919.04
508.212	17986.63
508.415	18541.63
508.617	18549.82
508.82	18875.45
509.022	18705.46
509.225	18926.64
509.428	19381.29
509.63	19655.72
509.833	19670.06
510.035	20286.5
510.238	19805.22
510.44	20474.91
510.643	20587.55
510.845	20724.76
511.048	20769.82
511.25	21236.75
511.453	21175.31
511.655	21756.94
511.858	21613.58
512.06	21660.68
512.262	22154.24
512.465	22309.89
512.667	22344.7
512.87	22934.52
513.072	22823.93
513.274	23340.02
513.477	23340.02
513.679	23843.82
513.881	23970.79
514.084	24277.99
514.286	24450.02
514.488	24683.48
514.69	25043.93
514.893	24957.91
515.095	25449.42
515.297	25828.3
515.499	25844.68
515.701	26215.37
515.904	26555.33
516.106	26641.34
516.308	26739.65
516.51	27319.22
516.712	27376.56
516.914	27534.26
517.116	27954.09
517.318	28103.59
517.52	28208.04
517.722	28591.01
517.925	29064.09
518.127	29571.99
518.329	29565.84
518.531	29746.06
518.733	29684.62
518.935	30094.22
519.136	30346.12
519.338	30712.7
519.54	30911.36
519.742	31175.55
519.944	31304.57
520.146	31808.37
520.348	32103.28
520.55	32346.98
520.752	32418.66
520.954	33184.6
521.155	32711.52
521.357	33489.75
521.559	33674.07
521.761	34009.93
521.963	34042.7
522.164	34278.22
522.366	34702.15
522.568	35150.65
522.77	34908.99
522.971	35570.49
523.173	35056.45
523.375	35642.17
523.576	35504.95
523.778	35908.4
523.98	36485.93
524.181	36795.17
524.383	36305.71
524.584	37116.7
524.786	37079.84
524.988	37387.03
525.189	37880.6
525.391	37788.44
525.592	38103.82
525.794	38316.81
525.995	38306.57
526.197	38365.96
526.398	38351.63
526.6	38779.65
526.801	39156.48
527.003	39295.74
527.204	39449.34
527.406	39791.35
527.607	39746.29
527.808	40170.22
528.01	39148.29
528.211	40051.44
528.412	40622.83
528.614	40637.16
528.815	40598.25
529.016	41097.95
529.218	40725.22
529.419	41009.89
529.62	40962.79
529.822	41145.06
530.023	41294.56
530.224	41540.32
530.425	41280.22
530.626	41229.02
530.828	41126.63
531.029	42113.75
531.23	41589.47
531.431	41726.68
531.632	42113.75
531.833	41894.61
532.035	42207.95
532.236	41972.44
532.437	42564.3
532.638	42007.25
532.839	42558.16
533.04	42629.83
533.241	42115.79
533.442	43289.28
533.643	42629.83
533.844	42752.71
534.045	42556.11
534.246	42177.23
534.447	42773.19
534.648	43006.66
534.849	42846.92
535.05	42683.08
535.251	42777.29
535.451	42572.49
535.652	42703.56
535.853	42486.48
536.054	43248.32
536.255	43225.79
536.456	42707.66
536.657	43322.05
536.857	42754.76
537.058	42803.91
537.259	43109.06
537.46	42816.2
537.66	43117.25
537.861	43406.01
538.062	43084.48
538.263	43109.06
538.463	42937.03
538.664	42769.1
538.865	43383.49
539.065	43170.5
539.266	42703.56
539.466	43420.35
539.667	42750.66
539.868	43233.99
540.068	43059.91
540.269	43059.91
540.469	43502.27
540.67	42609.36
540.87	42805.96
541.071	42836.68
541.271	43035.33
541.472	42863.3
541.672	42990.28
541.873	42566.35
542.073	42744.52
542.274	43322.05
542.474	42971.85
542.675	42640.07
542.875	43504.32
543.075	42928.84
543.276	42461.9
543.476	43547.32
543.676	42808.01
543.877	43397.82
544.077	42908.36
544.277	43008.71
544.478	43199.17
544.678	43135.68
544.878	43096.77
545.078	42640.07
545.279	42590.92
545.479	42601.16
545.679	42732.23
545.879	42488.52
546.079	42859.21
546.28	43211.46
546.48	42703.56
546.68	42871.5
546.88	42771.14
547.08	43109.06
547.28	42638.03
547.48	42943.17
547.68	42345.17
547.88	42703.56
548.081	42953.41
548.281	42705.61
548.481	42623.69
548.681	42848.97
548.881	42447.57
549.081	42928.84
549.28	42496.72
549.48	43162.31
549.68	42789.58
549.88	43350.72
550.08	42648.27
550.28	42996.42
550.48	42490.57
550.68	42908.36
550.88	42564.3
551.08	42752.71
551.279	42932.93
551.479	42205.91
551.679	42496.72
551.879	42398.41
552.079	43006.66
552.278	42240.72
552.478	42459.85
552.678	42803.91
552.878	42613.45
553.077	42509
553.277	42080.98
553.477	42912.45
553.676	42191.57
553.876	42164.95
554.076	42115.79
554.275	42220.24
554.475	41683.67
554.674	42306.26
554.874	42115.79
555.074	42130.13
555.273	42140.37
555.473	42336.98
555.672	41884.37
555.872	42228.43
556.071	42189.52
556.271	42328.78
556.47	41802.46
556.67	41521.88
556.869	41867.99
557.068	42011.35
557.268	41597.66
557.467	41867.99
557.667	41542.36
557.866	41579.23
558.065	41401.05
558.265	41306.85
558.464	41147.11
558.663	41476.83
558.863	41245.41
559.062	41781.98
559.261	41194.21
559.461	41173.73
559.66	40893.16
559.859	41290.46
560.058	41143.01
560.258	40960.74
560.457	40598.25
560.656	40725.22
560.855	40524.52
561.054	40860.39
561.253	40213.23
561.453	40360.69
561.652	40614.63
561.851	40196.85
562.05	40301.29
562.249	40211.18
562.448	40233.71
562.647	40084.21
562.846	39564.03
563.045	40043.25
563.244	39426.81
563.443	40194.8
563.642	39119.62
563.841	39668.47
564.04	39639.8
564.239	39594.75
564.438	38982.4
564.637	39480.06
564.836	39353.08
565.035	39066.37
565.234	39303.93
565.432	38875.91
565.631	38492.94
565.83	38611.72
566.029	38464.27
566.228	38556.43
566.427	38253.33
566.625	37829.4
566.824	37686.04
567.023	38337.29
567.222	37456.67
567.42	38339.34
567.619	37692.18
567.818	37661.46
568.016	37636.89
568.215	37628.7
568.414	37372.7
568.612	37688.09
568.811	37192.48
569.01	37452.57
569.208	36782.88
569.407	37051.17
569.605	36567.85
569.804	36578.09
570.002	36285.23
570.201	36604.71
570.4	36344.62
570.598	36283.18
570.797	35844.91
570.995	36217.64
571.193	35535.67
571.392	36162.35
571.59	35461.94
571.789	35420.98
571.987	35535.67
572.186	35769.14
572.384	35130.17
572.582	35044.16
572.781	35400.51
572.979	34679.62
573.177	35134.27
573.376	34859.84
573.574	34601.8
573.772	34820.93
573.971	34863.94
574.169	34405.19
574.367	34220.88
574.565	34134.86
574.763	34403.14
574.962	33770.32
575.16	33577.81
575.358	34061.13
575.556	33954.64
575.754	34036.56
575.952	33194.84
576.151	33848.14
576.349	33164.12
576.547	33332.06
576.745	32967.52
576.943	33250.14
577.141	33051.49
577.339	33260.38
577.537	32783.2
577.735	32551.78
577.933	32652.13
578.131	32820.06
578.329	32498.53
578.527	32381.8
578.725	32557.92
578.923	32496.49
579.121	31966.06
579.319	31890.29
579.516	32140.14
579.714	31978.35
579.912	31941.49
580.11	31474.55
580.308	31535.99
580.506	31380.34
580.704	31118.2
580.901	31378.29
581.099	31488.88
581.297	31112.06
581.495	30954.36
581.692	31142.78
581.89	30565.25
582.088	30835.58
582.285	30845.82
582.483	31056.76
582.681	31005.56
582.878	31028.09
583.076	30530.44
583.274	30569.35
583.471	29942.67
583.669	30126.99
583.866	29807.5
584.064	30024.59
584.262	29836.17
584.459	30008.2
584.657	30032.78
584.854	29453.2
585.052	29490.07
585.249	29352.85
585.447	29373.33
585.644	29539.22
585.841	29322.13
586.039	29322.13
586.236	28705.7
586.434	28885.92
586.631	28695.46
586.828	28890.01
587.026	28609.44
587.223	28562.34
587.42	28873.63
587.618	28347.3
587.815	28433.32
588.012	28175.27
588.21	28015.53
588.407	28382.12
588.604	28011.43
588.801	27751.34
588.999	27636.66
589.196	27919.28
589.393	27618.22
589.59	27466.67
589.787	27706.29
589.984	27493.3
590.182	27200.44
590.379	27558.83
590.576	27057.08
590.773	27335.6
590.97	26819.52
591.167	27253.69
591.364	26842.04
591.561	26885.05
591.758	26885.05
591.955	26536.9
592.152	26823.61
592.349	26164.17
592.546	26608.58
592.743	26266.56
592.94	26006.47
593.137	26559.42
593.334	26411.97
593.531	26194.89
593.727	26182.6
593.924	25643.98
594.121	25658.32
594.318	25959.37
594.515	25304.02
594.712	25801.68
594.908	25568.21
595.105	25664.46
595.302	25344.98
595.499	25394.13
595.696	25322.45
595.892	25150.42
596.089	25066.45
596.286	25000.92
596.482	24804.31
596.679	25111.51
596.876	24812.51
597.072	24507.36
597.269	24499.17
597.466	24413.15
597.662	24316.9
597.859	24480.74
598.055	24497.12
598.252	24400.86
598.448	24357.86
598.645	23714.8
598.841	23817.19
599.038	24058.85
599.234	24054.76
599.431	23417.84
599.627	23696.36
599.824	24112.1
600.02	23456.75
600.217	23606.25
600.413	23428.08
600.609	23251.95
600.806	23098.36
601.002	23313.39
601.198	23047.16
601.395	22729.72
601.591	22991.86
601.787	22983.67
601.984	22920.18
602.18	23000.05
602.376	22490.11
602.572	22574.08
602.769	22629.37
602.965	22361.09
603.161	22498.3
603.357	22453.25
603.553	22342.66
603.75	22387.71
603.946	22141.96
604.142	22246.4
604.338	21857.29
604.534	22123.52
604.73	21986.31
604.926	21666.83
605.122	22082.56
605.318	21568.52
605.514	21765.13
605.71	21500.94
605.906	21609.48
606.102	21732.36
606.298	21290
606.494	21064.72
606.69	21277.71
606.886	21238.8
607.082	20685.85
607.278	21361.68
607.474	20810.78
607.67	21109.78
607.866	20778.01
608.062	21214.23
608.257	20796.44
608.453	20945.94
608.649	20743.19
608.845	20679.71
609.041	20628.51
609.236	20272.16
609.432	20552.73
609.628	20343.84
609.824	20337.69
610.019	20048.93
610.215	20188.19
610.411	20007.97
610.606	20180
610.802	20356.13
610.998	20118.56
611.193	19975.2
611.389	20214.82
611.584	20040.74
611.78	19745.83
611.976	19790.89
612.171	19983.4
612.367	19745.83
612.562	19758.12
612.758	19397.68
612.953	19557.42
613.149	19799.08
613.344	19487.79
613.539	19819.56
613.735	19491.88
613.93	19534.89
614.126	19303.47
614.321	19471.4
614.517	19551.27
614.712	19264.56
614.907	19303.47
615.103	19326
615.298	19209.26
615.493	19235.89
615.688	18762.81
615.884	19258.42
616.079	18832.44
616.274	19098.67
616.47	18777.14
616.665	18883.64
616.86	18762.81
617.055	18668.6
617.25	18789.43
617.445	18654.26
617.641	18629.69
617.836	18512.95
618.031	18553.91
618.226	18668.6
618.421	18226.24
618.616	18353.21
618.811	18250.81
619.006	18283.58
619.201	17845.32
619.396	18310.21
619.591	17828.93
619.786	18046.02
619.981	17654.86
620.176	17531.98
620.371	17587.27
620.566	17415.24
620.761	17491.02
620.956	17833.03
621.151	17013.84
621.346	17462.35
621.541	17161.3
621.735	17308.75
621.93	16960.59
622.125	16878.68
622.32	16780.37
622.515	16993.36
622.709	16706.65
622.904	16825.43
623.099	16512.09
623.294	16895.06
623.488	16469.08
623.683	16274.52
623.878	16102.5
624.072	16155.74
624.267	16241.76
624.462	16045.15
624.656	15864.93
624.851	15828.07
625.046	15594.6
625.24	15694.95
625.435	15598.7
625.629	15422.57
625.824	15305.84
626.018	15404.14
626.213	15148.14
626.407	15441
626.602	15131.76
626.796	15131.76
626.991	14834.8
627.185	14847.09
627.38	14828.66
627.574	14695.54
627.768	14572.66
627.963	14566.52
628.157	14627.96
628.352	14417.02
628.546	14341.24
628.74	14093.44
628.935	14179.45
629.129	14261.37
629.323	13700.23
629.517	14158.97
629.712	13960.32
629.906	13837.44
630.1	13804.67
630.294	13755.52
630.489	13501.58
630.683	13569.16
630.877	13464.71
631.071	13300.87
631.265	13364.36
631.459	13018.25
631.653	12913.81
631.848	12872.85
632.042	12977.3
632.236	12866.7
632.43	12758.16
632.624	12885.14
632.818	12600.47
633.012	12565.65
633.206	12666
633.4	12831.89
633.594	12493.97
633.788	12569.75
633.982	12446.87
634.176	12250.27
634.369	12182.68
634.563	12084.38
634.757	12100.76
634.951	12020.89
635.145	11910.3
635.339	11961.5
635.533	11902.11
635.726	12024.99
635.92	11469.99
636.114	11773.09
636.308	11697.31
636.501	11820.19
636.695	11504.81
636.889	11463.85
637.083	11363.5
637.276	11330.73
637.47	11164.84
637.664	11097.26
637.857	11148.46
638.051	11080.88
638.244	11031.73
638.438	10919.09
638.632	10962.09
638.825	10691.76
639.019	10607.8
639.212	10632.37
639.406	10652.85
639.599	10599.6
639.793	10648.75
639.986	10302.65
640.18	10517.68
640.373	10339.51
640.567	10040.51
640.76	10253.5
640.954	10263.74
641.147	10067.13
641.34	9852.09
641.534	9907.39
641.727	10065.08
641.92	9934.01
642.114	9833.66
642.307	9839.81
642.5	9700.55
642.694	9606.34
642.887	9487.56
643.08	9592
643.273	9505.99
643.467	9450.69
643.66	9327.81
643.853	9319.62
644.046	9258.18
644.239	9325.77
644.432	9184.46
644.626	9153.74
644.819	9069.77
645.012	9047.24
645.205	9016.52
645.398	8887.5
645.591	8850.64
645.784	8643.79
645.977	8783.06
646.17	8615.12
646.363	8672.47
646.556	8578.26
646.749	8312.02
646.942	8582.35
647.135	8522.96
647.328	8570.07
647.521	8277.21
647.714	8385.75
647.907	8400.09
648.099	8299.73
648.292	8643.79
648.485	8307.93
648.678	8082.65
648.871	8111.32
649.064	7935.2
649.256	8039.64
649.449	8000.73
649.642	7939.29
649.835	7754.98
650.027	7607.52
650.22	7892.19
650.413	7711.97
650.605	7785.69
650.798	7859.42
650.991	7603.43
651.183	7650.53
651.376	7468.26
651.568	7589.09
651.761	7544.03
651.954	7460.07
652.146	7273.7
652.339	7511.27
652.531	7232.74
652.724	7320.81
652.916	7169.26
653.109	7073
653.301	7159.02
653.494	7161.06
653.686	7034.09
653.879	7050.47
654.071	7040.23
654.263	6771.95
654.456	6769.9
654.648	7015.66
654.84	6788.33
655.033	6804.72
655.225	6876.4
655.417	6903.02
655.61	6724.85
655.802	6833.39
655.994	6878.44
656.186	6704.37
656.379	6644.98
656.571	6710.51
656.763	6417.65
656.955	6534.39
657.148	6579.44
657.34	6442.23
657.532	6526.19
657.724	6497.52
657.916	6190.33
658.108	6444.27
658.3	6386.93
658.492	6421.75
658.684	6124.79
658.876	6247.67
659.068	6243.57
659.26	6026.49
659.452	6165.75
659.644	6169.85
659.836	6065.4
660.028	5973.24
660.22	5924.09
660.412	6014.2
660.604	5860.6
660.796	5897.47
660.988	5874.94
661.18	5860.6
661.372	5698.81
661.563	5684.48
661.755	5567.74
661.947	5747.97
662.139	5803.26
662.331	5616.9
662.522	5537.02
662.714	5557.5
662.906	5524.74
663.097	5545.22
663.289	5555.46
663.481	5352.71
663.673	5498.11
663.864	5360.9
664.056	5401.86
664.247	5330.18
664.439	5326.08
664.631	5410.05
664.822	5469.44
665.014	5268.74
665.205	5301.51
665.397	5301.51
665.588	5352.71
665.78	5240.07
665.971	5135.62
666.163	5207.3
666.354	4990.22
666.546	4930.83
666.737	4973.83
666.929	4963.59
667.12	4957.45
667.311	5074.18
667.503	4996.36
667.694	4887.82
667.885	4928.78
668.077	4920.59
668.268	4861.2
668.459	5057.8
668.651	4842.76
668.842	4810
669.033	4793.61
669.224	4746.51
669.416	4748.56
669.607	4816.14
669.798	4781.32
669.989	4826.38
670.18	4711.69
670.371	4791.56
670.563	4551.95
670.754	4760.84
670.945	4746.51
671.136	4676.88
671.327	4590.86
671.518	4613.39
671.709	4654.35
671.9	4752.65
672.091	4551.95
672.282	4484.37
672.473	4363.54
672.664	4570.38
672.855	4384.02
673.046	4599.06
673.237	4504.85
673.428	4371.73
673.619	4478.22
673.809	4418.83
674	4461.84
674.191	4474.13
674.382	4390.16
674.573	4562.19
674.764	4410.64
674.954	4404.5
675.145	4463.89
675.336	4384.02
675.527	4343.06
675.717	4492.56
675.908	4515.09
676.099	4386.07
676.289	4492.56
676.48	4332.82
676.671	4353.3
676.861	4343.06
677.052	4298
677.243	4244.76
677.433	4381.97
677.624	4302.1
677.814	4269.33
678.005	4357.39
678.195	4232.47
678.386	4412.69
678.576	4207.89
678.767	4336.92
678.957	4240.66
679.148	4248.85
679.338	4298
679.529	4279.57
679.719	4207.89
679.909	4363.54
680.1	4263.19
680.29	4406.55
680.481	4168.98
680.671	4146.45
680.861	4238.61
681.052	4257.04
681.242	4177.17
681.432	4400.4
681.622	4353.3
681.813	4121.88
682.003	4187.41
682.193	4238.61
682.383	4355.35
682.573	4144.41
682.764	4171.03
682.954	4107.54
683.144	4269.33
683.334	4343.06
683.524	4291.86
683.714	4207.89
683.904	4060.44
684.094	4201.75
684.284	4146.45
684.474	4197.65
684.664	4152.6
684.854	4099.35
685.044	4042.01
685.234	3947.8
685.424	4003.1
685.614	4140.31
685.804	4037.91
685.994	4007.19
686.184	4085.01
686.374	4035.86
686.564	4134.17
686.753	4078.87
686.943	3980.57
687.133	3970.33
687.323	4033.82
687.513	3968.28
687.702	4052.25
687.892	3933.47
688.082	4046.1
688.272	3958.04
688.461	3945.75
688.651	3968.28
688.841	3775.77
689.03	3933.47
689.22	3826.97
689.41	3806.49
689.599	3763.48
689.789	4009.24
689.979	3808.54
690.168	3743
690.358	3734.81
690.547	3747.1
690.737	3810.59
690.926	3726.62
691.116	3702.04
691.305	3855.64
691.495	3667.23
691.684	3628.32
691.874	3702.04
692.063	3650.85
692.252	3816.73
692.442	3659.04
692.631	3634.46
692.82	3841.31
693.01	3648.8
693.199	3636.51
693.388	3646.75
693.578	3591.45
693.767	3599.65
693.956	3673.37
694.146	3519.78
694.335	3491.1
694.524	3482.91
694.713	3487.01
694.902	3577.12
695.092	3540.26
695.281	3532.06
695.47	3493.15
695.659	3564.83
695.848	3437.86
696.037	3423.52
696.226	3489.06
696.415	3407.14
696.604	3630.37
696.793	3437.86
696.982	3407.14
697.171	3544.35
697.36	3435.81
697.549	3517.73
697.738	3304.74
697.927	3411.23
698.116	3337.51
698.305	3554.59
698.494	3376.42
698.683	3458.34
698.872	3337.51
699.061	3482.91
699.25	3388.71
699.438	3456.29
699.627	3564.83
699.816	3460.38
700.005	3274.02
700.193	3394.85
700.382	3421.47
700.571	3386.66
700.76	3446.05
700.948	3452.19
701.137	3396.9
701.326	3427.62
701.514	3364.13
701.703	3433.76
701.892	3341.6
702.08	3441.95
702.269	3482.91
702.457	3409.19
702.646	3462.43
702.834	3321.12
703.023	3368.23
703.212	3435.81
703.4	3407.14
703.589	3386.66
703.777	3474.72
703.965	3464.48
704.154	3487.01
704.342	3370.27
704.531	3368.23
704.719	3292.45
704.907	3466.53
705.096	3312.93
705.284	3388.71
705.472	3380.51
705.661	3372.32
705.849	3384.61
706.037	3421.47
706.226	3390.75
706.414	3321.12
706.602	3433.76
706.79	3343.65
706.979	3380.51
707.167	3429.66
707.355	3269.92
707.543	3435.81
707.731	3417.38
707.919	3435.81
708.107	3384.61
708.296	3386.66
708.484	3290.4
708.672	3308.83
708.86	3415.33
709.048	3323.17
709.236	3394.85
709.424	3382.56
709.612	3482.91
709.8	3317.03
709.988	3339.55
710.176	3378.47
710.364	3411.23
710.551	3511.58
710.739	3355.94
710.927	3372.32
711.115	3386.66
711.303	3384.61
711.491	3310.88
711.679	3376.42
711.866	3312.93
712.054	3458.34
712.242	3345.7
712.43	3544.35
712.617	3378.47
712.805	3448.1
712.993	3280.16
713.181	3312.93
713.368	3274.02
713.556	3470.62
713.744	3304.74
713.931	3429.66
714.119	3245.35
714.306	3333.41
714.494	3419.43
714.682	3497.25
714.869	3228.96
715.057	3458.34
715.244	3327.27
715.432	3355.94
715.619	3450.14
715.807	3323.17
715.994	3327.27
716.182	3400.99
716.369	3325.22
716.556	3360.03
716.744	3302.69
716.931	3175.72
717.119	3409.19
717.306	3384.61
717.493	3343.65
717.681	3329.31
717.868	3366.18
718.055	3415.33
718.242	3321.12
718.43	3450.14
718.617	3495.2
718.804	3317.03
718.991	3448.1
719.179	3493.15
719.366	3523.87
719.553	3403.04
719.74	3360.03
719.927	3337.51
720.114	3337.51
720.301	3276.07
720.488	3341.6
720.676	3407.14
720.863	3278.12
721.05	3388.71
721.237	3257.64
721.424	3298.6
721.611	3296.55
721.798	3249.44
721.985	3269.92
722.172	3257.64
722.358	3302.69
722.545	3413.28
722.732	3192.1
722.919	3501.34
723.106	3284.26
723.293	3411.23
723.48	3347.75
723.667	3380.51
723.853	3247.4
724.04	3431.71
724.227	3239.2
724.414	3341.6
724.6	3319.07
724.787	3372.32
724.974	3362.08
725.161	3376.42
725.347	3349.79
725.534	3274.02
725.72	3343.65
725.907	3304.74
726.094	3237.16
726.28	3372.32
726.467	3212.58
726.653	3233.06
726.84	3343.65
727.027	3400.99
727.213	3376.42
727.4	3290.4
727.586	3257.64
727.773	3347.75
727.959	3333.41
728.145	3198.24
728.332	3380.51
728.518	3284.26
728.705	3296.55
728.891	3161.38
729.077	3302.69
729.264	3239.2
729.45	3228.96
729.636	3306.79
729.823	3153.19
730.009	3343.65
730.195	3271.97
730.382	3204.39
730.568	3167.52
730.754	3224.87
730.94	3271.97
731.126	3208.48
731.313	3421.47
731.499	3173.67
731.685	3296.55
731.871	3265.83
732.057	3249.44
732.243	3251.49
732.429	3140.9
732.615	3132.71
732.801	3114.28
732.987	3169.57
733.173	3231.01
733.359	3104.04
733.545	3106.09
733.731	3231.01
733.917	3237.16
734.103	3181.86
734.289	3183.91
734.475	3044.65
734.661	3145
734.847	3169.57
735.033	3058.98
735.219	3091.75
735.404	3134.76
735.59	3126.57
735.776	3101.99
735.962	3147.05
736.148	3050.79
736.333	3128.61
736.519	3042.6
736.705	3200.29
736.89	3114.28
737.076	3034.41
737.262	3157.29
737.447	3054.89
737.633	2942.25
737.819	2952.49
738.004	3050.79
738.19	2995.5
738.375	2893.1
738.561	2927.91
738.747	3003.69
738.932	2936.1
739.118	3009.83
739.303	2950.44
739.489	3114.28
739.674	2886.95
739.859	2925.86
740.045	2936.1
740.23	2866.47
740.416	2878.76
740.601	2854.19
740.786	2815.27
740.972	2798.89
741.157	2964.78
741.342	2860.33
741.528	2733.36
741.713	2807.08
741.898	2909.48
742.084	2815.27
742.269	2829.61
742.454	2743.6
742.639	2727.21
742.824	2759.98
743.01	2733.36
743.195	2796.84
743.38	2768.17
743.565	2807.08
743.75	2866.47
743.935	2706.73
744.12	2766.12
744.305	2645.29
744.49	2745.64
744.675	2747.69
744.86	2600.24
745.045	2598.19
745.23	2585.9
745.415	2559.28
745.6	2594.09
745.785	2647.34
745.97	2569.52
746.155	2499.89
746.34	2526.51
746.525	2524.46
746.71	2544.94
746.895	2450.74
747.079	2424.11
747.264	2510.13
747.449	2495.79
747.634	2503.98
747.819	2379.06
748.003	2487.6
748.188	2360.63
748.373	2405.68
748.557	2413.87
748.742	2405.68
748.927	2309.43
749.111	2379.06
749.296	2235.7
749.481	2213.17
749.665	2245.94
749.85	2307.38
750.034	2233.65
750.219	2286.9
750.404	2159.92
750.588	2239.8
750.773	2092.34
750.957	2166.07
751.141	2172.21
751.326	2155.83
751.51	2135.35
751.695	2151.73
751.879	2155.83
752.064	2168.12
752.248	2043.19
752.432	2061.62
752.617	1994.04
752.801	2018.61
752.985	2045.24
753.17	1942.84
753.354	1996.09
753.538	1957.18
753.722	1944.89
753.907	1951.03
754.091	1928.5
754.275	1903.93
754.459	1830.2
754.643	1813.82
754.828	1869.11
755.012	1760.57
755.196	1631.55
755.38	1916.22
755.564	1723.71
755.748	1830.2
755.932	1832.25
756.116	1867.06
756.3	1838.39
756.484	1713.47
756.668	1783.1
756.852	1686.84
757.036	1686.84
757.22	1723.71
757.404	1746.23
757.588	1623.36
757.772	1596.73
757.956	1645.88
758.14	1664.32
758.323	1695.04
758.507	1598.78
758.691	1469.76
758.875	1574.21
759.059	1578.3
759.242	1520.96
759.426	1494.33
759.61	1643.84
759.794	1539.39
759.977	1598.78
760.161	1516.86
760.345	1488.19
760.528	1527.1
760.712	1436.99
760.895	1492.29
761.079	1484.09
761.263	1471.81
761.446	1484.09
761.63	1451.33
761.813	1494.33
761.997	1340.74
762.18	1455.42
762.364	1404.22
762.547	1312.07
762.731	1416.51
762.914	1404.22
763.098	1389.89
763.281	1346.88
763.464	1396.03
763.648	1412.42
763.831	1359.17
764.015	1262.91
764.198	1385.79
764.381	1410.37
764.564	1307.97
764.748	1240.39
764.931	1303.87
765.114	1365.31
765.297	1285.44
765.481	1363.26
765.664	1320.26
765.847	1285.44
766.03	1283.39
766.213	1260.87
766.397	1295.68
766.58	1207.62
766.763	1303.87
766.946	1299.78
767.129	1156.42
767.312	1275.2
767.495	1281.35
767.678	1150.28
767.861	1207.62
768.044	1127.75
768.227	1191.24
768.41	1228.1
768.593	1258.82
768.776	1252.67
768.959	1137.99
769.142	1217.86
769.324	1131.84
769.507	1172.8
769.69	1250.63
769.873	1224
770.056	1219.91
770.239	1045.83
770.421	1213.76
770.604	1254.72
770.787	1092.93
770.97	1168.71
771.152	1045.83
771.335	1117.51
771.518	992.58
771.7	1144.13
771.883	1074.5
772.066	1011.01
772.248	1049.93
772.431	1058.12
772.613	1107.27
772.796	1076.55
772.978	1031.49
773.161	1111.36
773.343	929.1
773.526	970.05
773.708	980.29
773.891	986.44
774.073	1027.4
774.256	1029.45
774.438	1031.49
774.621	888.14
774.803	1025.35
774.985	931.14
775.168	972.1
775.35	939.34
775.532	906.57
775.715	824.65
775.897	841.03
776.079	927.05
776.261	918.86
776.444	949.57
776.626	869.7
776.808	845.13
776.99	879.94
777.173	767.31
777.355	884.04
777.537	775.5
777.719	828.74
777.901	875.85
778.083	767.31
778.265	816.46
778.447	806.22
778.629	802.12
778.811	808.26
778.993	765.26
779.175	808.26
779.357	755.02
779.539	812.36
779.721	716.11
779.903	789.83
780.085	777.55
780.267	775.5
780.449	703.82
780.631	795.98
780.812	873.8
780.994	808.26
781.176	722.25
781.358	705.87
781.54	599.37
781.721	675.15
781.903	755.02
782.085	685.39
782.267	677.2
782.448	638.28
782.63	634.19
782.812	759.11
782.993	712.01
783.175	656.72
783.357	681.29
783.538	660.81
783.72	634.19
783.901	648.52
784.083	675.15
784.264	671.05
784.446	685.39
784.627	648.52
784.809	597.32
784.99	609.61
785.172	562.51
785.353	615.76
785.535	687.43
785.716	677.2
785.897	531.79
786.079	578.89
786.26	599.37
786.441	597.32
786.623	578.89
786.804	597.32
786.985	472.4
787.167	560.46
787.348	619.85
787.529	558.41
787.71	646.48
787.891	542.03
788.073	507.21
788.254	529.74
788.435	527.69
788.616	521.55
788.797	607.56
788.978	537.93
789.159	433.49
789.34	527.69
789.522	515.41
789.703	552.27
789.884	535.89
790.065	445.77
790.246	460.11
790.427	439.63
790.607	527.69
790.788	509.26
790.969	400.72
791.15	521.55
791.331	443.73
791.512	544.08
791.693	429.39
791.874	513.36
792.054	470.35
792.235	464.21
792.416	456.01
792.597	370
792.778	509.26
792.958	398.67
793.139	396.62
793.32	400.72
793.5	417.1
793.681	484.69
793.862	443.73
794.042	511.31
794.223	390.48
794.404	384.34
794.584	413.01
794.765	417.1
794.945	339.28
795.126	445.77
795.306	456.01
795.487	437.58
795.667	374.1
795.848	337.23
796.028	382.29
796.209	398.67
796.389	386.38
796.57	331.09
796.75	435.53
796.93	322.9
797.111	318.8
797.291	351.57
797.471	413.01
797.652	404.82
797.832	306.51
798.012	396.62
798.192	367.95
798.373	341.33
798.553	349.52
798.733	431.44
798.913	281.94
799.093	265.55
799.274	363.86
799.454	370
799.634	408.91
799.814	363.86
799.994	316.75
800.174	425.29
800.354	410.96
800.534	261.46
800.714	390.48
800.894	345.42
801.074	324.94
801.254	294.22
801.434	372.05
801.614	259.41
801.794	310.61
801.974	910.66
802.154	314.7
802.334	292.18
802.514	271.7
802.693	259.41
802.873	222.55
803.053	367.95
803.233	259.41
803.413	257.36
803.592	339.28
803.772	302.42
803.952	271.7
804.131	283.99
804.311	247.12
804.491	308.56
804.67	220.5
804.85	294.22
805.03	283.99
805.209	281.94
805.389	298.32
805.568	300.37
805.748	294.22
805.928	283.99
806.107	314.7
806.287	265.55
806.466	267.6
806.646	316.75
806.825	261.46
807.004	335.18
807.184	275.79
807.363	341.33
807.543	288.08
807.722	200.02
807.901	302.42
808.081	271.7
808.26	210.26
808.439	216.4
808.619	226.64
808.798	265.55
808.977	253.27
809.156	337.23
809.336	193.87
809.515	236.88
809.694	251.22
809.873	253.27
810.052	226.64
810.231	326.99
810.411	243.03
810.59	275.79
810.769	226.64
810.948	265.55
811.127	204.11
811.306	234.83
811.485	193.87
811.664	286.03
811.843	265.55
812.022	234.83
812.201	181.59
812.38	224.59
812.559	175.44
812.737	257.36
812.916	163.15
813.095	214.35
813.274	157.01
813.453	279.89
813.632	202.07
813.811	306.51
813.989	126.29
814.168	234.83
814.347	222.55
814.526	204.11
814.704	288.08
814.883	206.16
815.062	230.74
815.24	243.03
815.419	185.68
815.598	263.51
815.776	208.21
815.955	165.2
816.133	109.91
816.312	152.91
816.49	189.78
816.669	126.29
816.847	195.92
817.026	228.69
817.204	181.59
817.383	245.07
817.561	161.11
817.74	202.07
817.918	255.31
818.097	234.83
818.275	165.2
818.453	220.5
818.632	251.22
818.81	181.59
818.988	154.96
819.167	249.17
819.345	154.96
819.523	142.68
819.701	193.87
819.879	189.78
820.058	197.97
820.236	107.86
820.414	150.87
820.592	216.4
820.77	204.11
820.948	210.26
821.127	132.44
821.305	197.97
821.483	132.44
821.661	193.87
821.839	187.73
822.017	83.28
822.195	159.06
822.373	230.74
822.551	152.91
822.729	202.07
822.907	177.49
823.085	150.87
823.262	197.97
823.44	132.44
823.618	210.26
823.796	187.73
823.974	126.29
824.152	159.06
824.329	216.4
824.507	167.25
824.685	150.87
824.863	118.1
825.04	208.21
825.218	212.31
825.396	210.26
825.574	128.34
825.751	101.72
825.929	161.11
826.107	152.91
826.284	167.25
826.462	161.11
826.639	189.78
826.817	116.05
826.994	171.35
827.172	95.57
827.349	210.26
827.527	189.78
827.704	161.11
827.882	169.3
828.059	181.59
828.237	154.96
828.414	148.82
828.591	159.06
828.769	148.82
828.946	120.15
829.124	185.68
829.301	210.26
829.478	181.59
829.655	146.77
829.833	152.91
830.01	134.48
830.187	197.97
830.364	66.9
830.542	159.06
830.719	185.68
830.896	130.39
831.073	177.49
831.25	152.91
831.427	83.28
831.604	157.01
831.782	99.67
831.959	150.87
832.136	95.57
832.313	183.63
832.49	77.14
832.667	230.74
832.844	144.72
833.021	144.72
833.198	161.11
833.374	120.15
833.551	130.39
833.728	116.05
833.905	210.26
834.082	64.85
834.259	83.28
834.436	161.11
834.612	126.29
834.789	134.48
834.966	87.38
835.143	124.24
835.319	134.48
835.496	154.96
835.673	52.56
835.85	214.35
836.026	120.15
836.203	95.57
836.38	111.96
836.556	109.91
836.733	77.14
836.909	159.06
837.086	87.38
837.262	126.29
837.439	169.3
837.616	107.86
837.792	144.72
837.968	142.68
838.145	25.94
838.321	126.29
838.498	163.15
838.674	71
838.851	77.14
839.027	111.96
839.203	124.24
839.38	68.95
839.556	120.15
839.732	128.34
839.909	42.32
840.085	99.67
840.261	36.18
840.437	64.85
840.614	109.91
840.79	91.48
840.966	103.76
841.142	114
841.318	50.52
841.494	167.25
841.671	154.96
841.847	99.67
842.023	30.04
842.199	85.33
842.375	111.96
842.551	42.32
842.727	91.48
842.903	99.67
843.079	132.44
843.255	107.86
843.431	93.52
843.607	79.19
843.783	19.8
843.959	107.86
844.134	144.72
844.31	81.24
844.486	103.76
844.662	128.34
844.838	161.11
845.013	212.31
845.189	103.76
845.365	144.72
845.541	150.87
845.716	99.67
845.892	101.72
846.068	124.24
846.244	27.99
846.419	105.81
846.595	87.38
846.77	99.67
846.946	118.1
847.122	140.63
847.297	54.61
847.473	101.72
847.648	77.14
847.824	64.85
847.999	38.23
848.175	124.24
848.35	120.15
848.526	154.96
848.701	48.47
848.876	124.24
849.052	68.95
849.227	68.95
849.403	77.14
849.578	103.76
849.753	132.44
849.929	75.09
850.104	32.08
850.279	68.95
850.454	60.76
850.63	21.85
850.805	81.24
850.98	30.04
851.155	124.24
851.33	54.61
851.505	111.96
851.681	38.23
851.856	54.61
852.031	103.76
852.206	128.34
852.381	40.28
852.556	71
852.731	132.44
852.906	85.33
853.081	171.35
853.256	93.52
853.431	50.52
853.606	56.66
853.781	32.08
853.956	36.18
854.131	114
854.305	83.28
854.48	130.39
854.655	103.76
854.83	-0.68
855.005	68.95
855.18	68.95
855.354	11.61
855.529	134.48
855.704	19.8
855.879	148.82
856.053	64.85
856.228	19.8
856.403	21.85
856.577	124.24
856.752	130.39
856.926	32.08
857.101	38.23
857.276	58.71
857.45	-19.11
857.625	97.62
857.799	56.66
857.974	89.43
858.148	-0.68
858.323	79.19
858.497	23.89
858.672	56.66
858.846	60.76
859.02	161.11
859.195	101.72
859.369	36.18
859.543	27.99
859.718	83.28
859.892	105.81
860.066	50.52
860.241	89.43
860.415	103.76
860.589	11.61
860.763	50.52
860.938	58.71
861.112	17.75
861.286	5.46
861.46	159.06
861.634	44.37
861.808	13.65
861.982	118.1
862.157	52.56
862.331	30.04
862.505	23.89
862.679	91.48
862.853	36.18
863.027	46.42
863.201	85.33
863.375	46.42
863.549	95.57
863.722	62.8
863.896	118.1
864.07	5.46
864.244	9.56
864.418	142.68
864.592	120.15
864.766	17.75
864.939	93.52
865.113	60.76
865.287	68.95
865.461	99.67
865.634	83.28
865.808	111.96
865.982	48.47
866.156	46.42
866.329	5.46
866.503	44.37
866.676	95.57
866.85	91.48
867.024	71
867.197	13.65
867.371	95.57
867.544	81.24
867.718	-19.11
867.891	66.9
868.065	-8.87
868.238	91.48
868.412	77.14
868.585	44.37
868.759	32.08
868.932	54.61
869.105	42.32
869.279	-12.97
869.452	42.32
869.625	111.96
869.799	91.48
869.972	-68.27
870.145	56.66
870.319	21.85
870.492	34.13
870.665	109.91
870.838	71
871.011	48.47
871.185	99.67
871.358	36.18
871.531	142.68
871.704	-15.02
871.877	46.42
872.05	34.13
872.223	66.9
872.396	9.56
872.569	-10.92
872.742	42.32
872.915	56.66
873.088	-25.26
873.261	54.61
873.434	40.28
873.607	66.9
873.78	85.33
873.953	60.76
874.126	5.46
874.299	116.05
874.471	85.33
874.644	23.89
874.817	44.37
874.99	19.8
875.163	54.61
875.335	62.8
875.508	91.48
875.681	111.96
875.853	42.32
876.026	48.47
876.199	142.68
876.371	52.56
876.544	-51.88
876.717	-17.07
876.889	-49.83
877.062	109.91
877.234	-15.02
877.407	36.18
877.579	32.08
877.752	27.99
877.924	68.95
878.097	103.76
878.269	-31.4
878.442	140.63
878.614	62.8
878.786	89.43
878.959	21.85
879.131	79.19
879.303	87.38
879.476	66.9
879.648	87.38
879.82	44.37
879.993	-47.79
880.165	58.71
880.337	30.04
880.509	34.13
880.681	34.13
880.854	19.8
881.026	81.24
881.198	138.58
881.37	114
881.542	-31.4
881.714	66.9
881.886	34.13
882.058	126.29
882.23	-15.02
882.402	34.13
882.574	103.76
882.746	30.04
882.918	30.04
883.09	34.13
883.262	32.08
883.434	-8.87
883.606	-6.83
883.778	52.56
883.95	19.8
884.122	-4.78
884.293	30.04
884.465	60.76
884.637	54.61
884.809	42.32
884.98	48.47
885.152	17.75
885.324	95.57
885.496	11.61
885.667	50.52
885.839	38.23
886.011	25.94
886.182	116.05
886.354	36.18
886.525	17.75
886.697	134.48
886.869	3.41
887.04	30.04
887.212	68.95
887.383	83.28
887.555	-12.97
887.726	-49.83
887.897	46.42
888.069	-35.5
888.24	46.42
888.412	30.04
888.583	27.99
888.754	60.76
888.926	27.99
889.097	79.19
889.268	38.23
889.44	48.47
889.611	11.61
889.782	-43.69
889.953	-8.87
890.125	30.04
890.296	54.61
890.467	13.65
890.638	103.76
890.809	30.04
890.98	-39.59
891.151	56.66
891.323	50.52
891.494	42.32
891.665	-15.02
891.836	7.51
892.007	25.94
892.178	30.04
892.349	21.85
892.52	-2.73
892.691	-15.02
892.862	46.42
893.032	-21.16
893.203	-19.11
893.374	17.75
893.545	79.19
893.716	36.18
893.887	56.66
894.057	-74.41
894.228	54.61
894.399	81.24
894.57	42.32
894.74	42.32
894.911	136.53
895.082	30.04
895.253	3.41
895.423	75.09
895.594	19.8
895.764	111.96
895.935	46.42
896.106	58.71
896.276	-6.83
896.447	105.81
896.617	32.08
896.788	40.28
896.958	66.9
897.129	38.23
897.299	101.72
897.47	58.71
897.64	81.24
897.81	62.8
897.981	25.94
898.151	-19.11
898.322	38.23
898.492	-2.73
898.662	19.8
898.832	44.37
899.003	44.37
899.173	-31.4
899.343	71
899.513	87.38
