Data from USB4F104151__247__10-31-03-626.txt Node

Date: Wed Mar 12 10:31:03 EDT 2025
User: louis
Spectrometer: USB4F10415
Trigger mode: 4
Integration Time (sec): 3.000000E-2
Scans to average: 1
Electric dark correction enabled: true
Nonlinearity correction enabled: false
Boxcar width: 0
XAxis mode: Wavelengths
Number of Pixels in Spectrum: 3648
>>>>>Begin Spectral Data<<<<<
178.204	-138.24
178.424	-138.24
178.644	-138.24
178.864	-87.04
179.084	-146.43
179.304	-3.07
179.524	37.89
179.744	-15.36
179.964	-11.26
180.184	-35.84
180.404	7.17
180.624	5.12
180.844	56.32
181.064	-15.36
181.283	7.17
181.503	-58.37
181.723	25.6
181.943	-19.46
182.163	-13.31
182.383	-15.36
182.602	25.6
182.822	7.17
183.042	44.03
183.262	-64.51
183.482	-33.79
183.701	-7.17
183.921	52.22
184.141	-84.99
184.361	9.22
184.58	-35.84
184.8	-19.46
185.02	-3.07
185.239	19.46
185.459	-60.42
185.679	95.23
185.898	-27.65
186.118	35.84
186.338	1.02
186.557	29.7
186.777	-50.18
186.997	146.43
187.216	-37.89
187.436	72.7
187.655	-3.07
187.875	23.55
188.095	3.07
188.314	29.7
188.534	35.84
188.753	29.7
188.973	9.22
189.192	48.13
189.412	50.18
189.631	11.26
189.851	9.22
190.07	78.85
190.29	-54.27
190.509	15.36
190.729	-7.17
190.948	37.89
191.168	119.81
191.387	-5.12
191.607	39.94
191.826	82.94
192.045	74.75
192.265	7.17
192.484	-50.18
192.704	21.5
192.923	-37.89
193.142	60.42
193.362	58.37
193.581	44.03
193.8	21.5
194.02	84.99
194.239	37.89
194.458	91.13
194.678	50.18
194.897	37.89
195.116	66.56
195.335	125.95
195.555	-11.26
195.774	56.32
195.993	11.26
196.212	13.31
196.432	-52.22
196.651	44.03
196.87	-11.26
197.089	74.75
197.308	23.55
197.528	23.55
197.747	-13.31
197.966	25.6
198.185	68.61
198.404	50.18
198.623	84.99
198.842	25.6
199.062	50.18
199.281	74.75
199.5	-19.46
199.719	27.65
199.938	93.18
200.157	41.98
200.376	46.08
200.595	48.13
200.814	37.89
201.033	1.02
201.252	17.41
201.471	91.13
201.69	115.71
201.909	-35.84
202.128	17.41
202.347	15.36
202.566	19.46
202.785	-11.26
203.004	62.46
203.223	99.33
203.442	29.7
203.661	37.89
203.879	50.18
204.098	87.04
204.317	11.26
204.536	3.07
204.755	21.5
204.974	15.36
205.193	52.22
205.411	25.6
205.63	54.27
205.849	27.65
206.068	27.65
206.287	70.65
206.505	60.42
206.724	13.31
206.943	66.56
207.162	52.22
207.381	19.46
207.599	-31.74
207.818	72.7
208.037	-15.36
208.255	7.17
208.474	5.12
208.693	-15.36
208.911	-29.7
209.13	21.5
209.349	72.7
209.567	62.46
209.786	41.98
210.005	46.08
210.223	3.07
210.442	-52.22
210.661	3.07
210.879	-19.46
211.098	41.98
211.316	25.6
211.535	9.22
211.753	19.46
211.972	-44.03
212.191	-3.07
212.409	15.36
212.628	27.65
212.846	48.13
213.065	84.99
213.283	-25.6
213.502	60.42
213.72	76.8
213.938	25.6
214.157	41.98
214.375	3.07
214.594	5.12
214.812	60.42
215.031	89.09
215.249	27.65
215.467	-99.33
215.686	23.55
215.904	1.02
216.122	-35.84
216.341	25.6
216.559	66.56
216.778	111.61
216.996	33.79
217.214	-48.13
217.432	-33.79
217.651	-3.07
217.869	-7.17
218.087	-3.07
218.306	29.7
218.524	23.55
218.742	-13.31
218.96	46.08
219.179	-5.12
219.397	31.74
219.615	66.56
219.833	74.75
220.051	17.41
220.27	19.46
220.488	54.27
220.706	89.09
220.924	-64.51
221.142	7.17
221.36	29.7
221.578	-31.74
221.796	35.84
222.015	11.26
222.233	-13.31
222.451	41.98
222.669	21.5
222.887	17.41
223.105	-15.36
223.323	50.18
223.541	7.17
223.759	58.37
223.977	64.51
224.195	-5.12
224.413	7.17
224.631	103.42
224.849	-35.84
225.067	-11.26
225.285	-50.18
225.503	5.12
225.721	17.41
225.939	82.94
226.157	-35.84
226.375	70.65
226.592	-5.12
226.81	95.23
227.028	1.02
227.246	95.23
227.464	68.61
227.682	89.09
227.9	66.56
228.117	29.7
228.335	99.33
228.553	5.12
228.771	-11.26
228.989	76.8
229.206	52.22
229.424	33.79
229.642	-23.55
229.86	33.79
230.077	-1.02
230.295	1.02
230.513	52.22
230.731	50.18
230.948	109.57
231.166	-13.31
231.384	-31.74
231.601	-3.07
231.819	-5.12
232.037	15.36
232.254	-25.6
232.472	46.08
232.689	-64.51
232.907	103.42
233.125	-60.42
233.342	82.94
233.56	-21.5
233.777	19.46
233.995	46.08
234.213	-17.41
234.43	41.98
234.648	-25.6
234.865	48.13
235.083	62.46
235.3	31.74
235.518	11.26
235.735	103.42
235.953	101.37
236.17	19.46
236.388	9.22
236.605	-19.46
236.822	44.03
237.04	50.18
237.257	70.65
237.475	9.22
237.692	17.41
237.909	-11.26
238.127	-19.46
238.344	-23.55
238.562	11.26
238.779	-76.8
238.996	107.52
239.214	111.61
239.431	-11.26
239.648	-37.89
239.865	31.74
240.083	64.51
240.3	-7.17
240.517	-13.31
240.735	54.27
240.952	-11.26
241.169	62.46
241.386	78.85
241.603	-35.84
241.821	-21.5
242.038	76.8
242.255	70.65
242.472	-31.74
242.689	54.27
242.907	-19.46
243.124	11.26
243.341	54.27
243.558	33.79
243.775	25.6
243.992	37.89
244.209	-68.61
244.426	123.9
244.643	52.22
244.86	58.37
245.078	91.13
245.295	54.27
245.512	41.98
245.729	-39.94
245.946	29.7
246.163	-19.46
246.38	-11.26
246.597	76.8
246.814	-21.5
247.031	52.22
247.248	-39.94
247.464	17.41
247.681	-31.74
247.898	9.22
248.115	91.13
248.332	7.17
248.549	62.46
248.766	101.37
248.983	89.09
249.2	48.13
249.417	19.46
249.633	41.98
249.85	111.61
250.067	1.02
250.284	-29.7
250.501	25.6
250.717	76.8
250.934	-82.94
251.151	52.22
251.368	-27.65
251.585	17.41
251.801	23.55
252.018	5.12
252.235	76.8
252.451	11.26
252.668	91.13
252.885	-1.02
253.102	46.08
253.318	54.27
253.535	62.46
253.752	46.08
253.968	-68.61
254.185	78.85
254.401	37.89
254.618	21.5
254.835	-39.94
255.051	7.17
255.268	60.42
255.484	50.18
255.701	54.27
255.917	113.66
256.134	-29.7
256.351	-11.26
256.567	-3.07
256.784	-11.26
257	35.84
257.217	7.17
257.433	-58.37
257.65	39.94
257.866	-35.84
258.082	31.74
258.299	-13.31
258.515	130.05
258.732	29.7
258.948	33.79
259.165	35.84
259.381	44.03
259.597	13.31
259.814	44.03
260.03	39.94
260.246	-9.22
260.463	48.13
260.679	60.42
260.895	17.41
261.112	17.41
261.328	35.84
261.544	37.89
261.761	46.08
261.977	-21.5
262.193	-5.12
262.409	1.02
262.626	-35.84
262.842	23.55
263.058	35.84
263.274	13.31
263.49	3.07
263.707	111.61
263.923	27.65
264.139	-11.26
264.355	9.22
264.571	13.31
264.787	37.89
265.004	46.08
265.22	62.46
265.436	13.31
265.652	70.65
265.868	-9.22
266.084	41.98
266.3	64.51
266.516	-46.08
266.732	29.7
266.948	68.61
267.164	68.61
267.38	31.74
267.596	95.23
267.812	160.77
268.028	-3.07
268.244	-9.22
268.46	52.22
268.676	84.99
268.892	33.79
269.108	-27.65
269.324	78.85
269.54	41.98
269.756	-5.12
269.972	-19.46
270.188	119.81
270.403	9.22
270.619	33.79
270.835	58.37
271.051	70.65
271.267	-3.07
271.483	17.41
271.698	58.37
271.914	5.12
272.13	105.47
272.346	93.18
272.562	33.79
272.777	60.42
272.993	37.89
273.209	44.03
273.425	128
273.64	-5.12
273.856	41.98
274.072	19.46
274.287	44.03
274.503	31.74
274.719	66.56
274.934	-13.31
275.15	11.26
275.366	5.12
275.581	-9.22
275.797	29.7
276.012	29.7
276.228	66.56
276.444	27.65
276.659	50.18
276.875	11.26
277.09	60.42
277.306	19.46
277.521	97.28
277.737	25.6
277.952	44.03
278.168	-23.55
278.383	56.32
278.599	-27.65
278.814	50.18
279.03	23.55
279.245	68.61
279.461	56.32
279.676	7.17
279.892	17.41
280.107	-11.26
280.322	95.23
280.538	66.56
280.753	15.36
280.969	52.22
281.184	13.31
281.399	66.56
281.615	-44.03
281.83	29.7
282.045	7.17
282.26	60.42
282.476	82.94
282.691	9.22
282.906	25.6
283.122	39.94
283.337	44.03
283.552	41.98
283.767	19.46
283.983	87.04
284.198	91.13
284.413	62.46
284.628	-21.5
284.843	15.36
285.058	95.23
285.274	52.22
285.489	-19.46
285.704	48.13
285.919	23.55
286.134	46.08
286.349	-46.08
286.564	25.6
286.779	29.7
286.995	44.03
287.21	19.46
287.425	11.26
287.64	-39.94
287.855	17.41
288.07	39.94
288.285	76.8
288.5	115.71
288.715	52.22
288.93	21.5
289.145	70.65
289.36	60.42
289.575	7.17
289.79	-37.89
290.004	-11.26
290.219	27.65
290.434	23.55
290.649	-41.98
290.864	29.7
291.079	-15.36
291.294	39.94
291.509	-35.84
291.724	64.51
291.938	-56.32
292.153	54.27
292.368	33.79
292.583	50.18
292.798	52.22
293.012	44.03
293.227	46.08
293.442	17.41
293.657	-3.07
293.871	62.46
294.086	-7.17
294.301	117.76
294.516	48.13
294.73	31.74
294.945	21.5
295.16	19.46
295.374	27.65
295.589	46.08
295.804	1.02
296.018	74.75
296.233	103.42
296.447	87.04
296.662	41.98
296.877	48.13
297.091	91.13
297.306	25.6
297.52	25.6
297.735	21.5
297.949	78.85
298.164	50.18
298.378	99.33
298.593	-5.12
298.807	-11.26
299.022	50.18
299.236	78.85
299.451	56.32
299.665	13.31
299.88	35.84
300.094	39.94
300.309	60.42
300.523	78.85
300.737	-5.12
300.952	52.22
301.166	66.56
301.381	-5.12
301.595	-37.89
301.809	29.7
302.024	82.94
302.238	-7.17
302.452	54.27
302.667	-7.17
302.881	78.85
303.095	33.79
303.309	103.42
303.524	-44.03
303.738	37.89
303.952	17.41
304.166	68.61
304.381	-33.79
304.595	121.85
304.809	-13.31
305.023	103.42
305.237	-60.42
305.452	58.37
305.666	89.09
305.88	29.7
306.094	52.22
306.308	11.26
306.522	68.61
306.736	27.65
306.95	33.79
307.164	27.65
307.379	-50.18
307.593	62.46
307.807	46.08
308.021	44.03
308.235	46.08
308.449	-7.17
308.663	11.26
308.877	64.51
309.091	46.08
309.305	62.46
309.519	-60.42
309.733	52.22
309.947	9.22
310.161	84.99
310.374	33.79
310.588	107.52
310.802	44.03
311.016	35.84
311.23	62.46
311.444	25.6
311.658	-29.7
311.872	103.42
312.085	66.56
312.299	99.33
312.513	44.03
312.727	119.81
312.941	50.18
313.154	41.98
313.368	-3.07
313.582	64.51
313.796	3.07
314.009	74.75
314.223	19.46
314.437	37.89
314.651	78.85
314.864	21.5
315.078	68.61
315.292	-95.23
315.505	29.7
315.719	58.37
315.933	-11.26
316.146	-5.12
316.36	-5.12
316.573	21.5
316.787	25.6
317.001	78.85
317.214	41.98
317.428	50.18
317.641	80.89
317.855	-15.36
318.068	60.42
318.282	111.61
318.495	37.89
318.709	44.03
318.922	33.79
319.136	87.04
319.349	19.46
319.563	80.89
319.776	52.22
319.99	11.26
320.203	107.52
320.417	-9.22
320.63	44.03
320.843	171.01
321.057	9.22
321.27	1.02
321.483	78.85
321.697	50.18
321.91	70.65
322.124	5.12
322.337	50.18
322.55	19.46
322.763	35.84
322.977	39.94
323.19	-13.31
323.403	23.55
323.617	41.98
323.83	44.03
324.043	111.61
324.256	3.07
324.469	87.04
324.683	56.32
324.896	15.36
325.109	70.65
325.322	72.7
325.535	136.19
325.748	58.37
325.962	-7.17
326.175	31.74
326.388	64.51
326.601	33.79
326.814	-5.12
327.027	74.75
327.24	97.28
327.453	31.74
327.666	70.65
327.879	46.08
328.092	-13.31
328.305	23.55
328.518	-15.36
328.731	27.65
328.944	41.98
329.157	29.7
329.37	19.46
329.583	13.31
329.796	87.04
330.009	21.5
330.222	25.6
330.435	-19.46
330.648	64.51
330.861	78.85
331.073	29.7
331.286	46.08
331.499	5.12
331.712	-52.22
331.925	-19.46
332.138	-3.07
332.35	56.32
332.563	46.08
332.776	52.22
332.989	91.13
333.202	27.65
333.414	41.98
333.627	19.46
333.84	41.98
334.053	105.47
334.265	17.41
334.478	66.56
334.691	1.02
334.903	50.18
335.116	41.98
335.329	66.56
335.541	35.84
335.754	138.24
335.966	21.5
336.179	95.23
336.392	50.18
336.604	31.74
336.817	87.04
337.029	-15.36
337.242	82.94
337.454	91.13
337.667	41.98
337.88	-56.32
338.092	-5.12
338.305	52.22
338.517	76.8
338.729	33.79
338.942	87.04
339.154	37.89
339.367	54.27
339.579	78.85
339.792	74.75
340.004	19.46
340.217	17.41
340.429	17.41
340.641	-1.02
340.854	70.65
341.066	99.33
341.278	95.23
341.491	37.89
341.703	80.89
341.915	-44.03
342.128	91.13
342.34	33.79
342.552	50.18
342.764	17.41
342.977	60.42
343.189	52.22
343.401	52.22
343.613	27.65
343.826	66.56
344.038	-7.17
344.25	31.74
344.462	84.99
344.674	21.5
344.886	25.6
345.099	37.89
345.311	68.61
345.523	29.7
345.735	-70.65
345.947	29.7
346.159	76.8
346.371	23.55
346.583	41.98
346.795	138.24
347.007	50.18
347.219	56.32
347.431	-3.07
347.643	78.85
347.855	31.74
348.067	48.13
348.279	-5.12
348.491	-7.17
348.703	105.47
348.915	62.46
349.127	107.52
349.339	-5.12
349.551	-11.26
349.763	31.74
349.975	-19.46
350.187	56.32
350.399	76.8
350.61	-7.17
350.822	-11.26
351.034	99.33
351.246	31.74
351.458	54.27
351.669	91.13
351.881	82.94
352.093	-1.02
352.305	52.22
352.517	31.74
352.728	27.65
352.94	62.46
353.152	62.46
353.363	39.94
353.575	109.57
353.787	-13.31
353.999	1.02
354.21	35.84
354.422	74.75
354.633	76.8
354.845	44.03
355.057	54.27
355.268	-17.41
355.48	52.22
355.692	37.89
355.903	-11.26
356.115	78.85
356.326	-39.94
356.538	99.33
356.749	27.65
356.961	60.42
357.172	17.41
357.384	87.04
357.595	117.76
357.807	-7.17
358.018	95.23
358.23	31.74
358.441	62.46
358.653	82.94
358.864	82.94
359.075	27.65
359.287	89.09
359.498	1.02
359.709	46.08
359.921	33.79
360.132	44.03
360.344	46.08
360.555	48.13
360.766	44.03
360.977	27.65
361.189	78.85
361.4	1.02
361.611	60.42
361.823	105.47
362.034	35.84
362.245	-3.07
362.456	29.7
362.667	82.94
362.879	19.46
363.09	70.65
363.301	66.56
363.512	29.7
363.723	3.07
363.935	39.94
364.146	87.04
364.357	1.02
364.568	5.12
364.779	31.74
364.99	52.22
365.201	70.65
365.412	46.08
365.623	27.65
365.834	93.18
366.045	-23.55
366.256	84.99
366.467	160.77
366.678	105.47
366.889	11.26
367.1	41.98
367.311	41.98
367.522	105.47
367.733	128
367.944	119.81
368.155	76.8
368.366	46.08
368.577	-23.55
368.788	89.09
368.999	13.31
369.209	70.65
369.42	89.09
369.631	140.29
369.842	72.7
370.053	62.46
370.264	58.37
370.474	66.56
370.685	21.5
370.896	56.32
371.107	33.79
371.317	62.46
371.528	7.17
371.739	39.94
371.95	17.41
372.16	107.52
372.371	50.18
372.582	3.07
372.792	9.22
373.003	33.79
373.214	87.04
373.424	41.98
373.635	89.09
373.846	173.05
374.056	-5.12
374.267	152.57
374.477	46.08
374.688	5.12
374.898	84.99
375.109	72.7
375.319	-31.74
375.53	3.07
375.74	56.32
375.951	56.32
376.161	58.37
376.372	76.8
376.582	27.65
376.793	68.61
377.003	72.7
377.214	7.17
377.424	-1.02
377.635	107.52
377.845	89.09
378.055	31.74
378.266	33.79
378.476	9.22
378.686	21.5
378.897	48.13
379.107	144.38
379.317	27.65
379.528	66.56
379.738	52.22
379.948	1.02
380.158	113.66
380.369	19.46
380.579	52.22
380.789	33.79
380.999	70.65
381.21	101.37
381.42	134.14
381.63	44.03
381.84	-15.36
382.05	54.27
382.261	41.98
382.471	44.03
382.681	35.84
382.891	37.89
383.101	52.22
383.311	87.04
383.521	19.46
383.731	19.46
383.941	82.94
384.151	-3.07
384.361	44.03
384.571	66.56
384.781	41.98
384.991	70.65
385.201	39.94
385.411	64.51
385.621	-31.74
385.831	103.42
386.041	54.27
386.251	44.03
386.461	87.04
386.671	93.18
386.881	87.04
387.091	56.32
387.301	95.23
387.511	41.98
387.72	27.65
387.93	97.28
388.14	41.98
388.35	44.03
388.56	82.94
388.769	39.94
388.979	82.94
389.189	58.37
389.399	15.36
389.609	78.85
389.818	48.13
390.028	15.36
390.238	109.57
390.447	56.32
390.657	-13.31
390.867	60.42
391.076	52.22
391.286	78.85
391.496	80.89
391.705	109.57
391.915	156.67
392.125	-1.02
392.334	41.98
392.544	58.37
392.753	54.27
392.963	46.08
393.172	91.13
393.382	119.81
393.591	91.13
393.801	84.99
394.01	128
394.22	84.99
394.429	111.61
394.639	21.5
394.848	121.85
395.058	64.51
395.267	82.94
395.477	64.51
395.686	125.95
395.895	152.57
396.105	150.53
396.314	60.42
396.524	80.89
396.733	99.33
396.942	97.28
397.152	144.38
397.361	44.03
397.57	76.8
397.78	78.85
397.989	166.91
398.198	220.16
398.407	68.61
398.617	89.09
398.826	107.52
399.035	50.18
399.244	111.61
399.453	99.33
399.663	119.81
399.872	136.19
400.081	111.61
400.29	144.38
400.499	54.27
400.708	62.46
400.917	144.38
401.127	158.72
401.336	84.99
401.545	154.62
401.754	84.99
401.963	164.86
402.172	175.1
402.381	123.9
402.59	89.09
402.799	119.81
403.008	183.29
403.217	136.19
403.426	156.67
403.635	84.99
403.844	132.09
404.053	134.14
404.262	218.11
404.471	187.39
404.68	128
404.888	162.81
405.097	166.91
405.306	195.58
405.515	130.05
405.724	201.72
405.933	191.49
406.142	152.57
406.35	177.15
406.559	265.21
406.768	240.64
406.977	248.83
407.185	187.39
407.394	242.68
407.603	130.05
407.812	283.64
408.02	226.3
408.229	183.29
408.438	214.01
408.646	254.97
408.855	293.88
409.064	263.16
409.272	297.98
409.481	324.6
409.69	271.36
409.898	295.93
410.107	300.03
410.315	332.79
410.524	304.12
410.733	373.75
410.941	404.47
411.15	373.75
411.358	392.19
411.567	443.39
411.775	472.06
411.984	412.67
412.192	435.19
412.401	447.48
412.609	553.98
412.818	582.65
413.026	506.87
413.234	601.08
413.443	553.98
413.651	642.04
413.86	592.89
414.068	736.24
414.276	639.99
414.485	515.06
414.693	709.62
414.901	740.34
415.11	748.53
415.318	773.11
415.526	814.07
415.734	711.67
415.943	754.68
416.151	967.67
416.359	859.12
416.567	857.07
416.776	1061.87
416.984	1043.44
417.192	1027.06
417.4	844.79
417.608	936.95
417.817	1104.88
418.025	1182.7
418.233	1250.28
418.441	1168.37
418.649	1238
418.857	1354.73
419.065	1434.6
419.273	1430.51
419.481	1487.85
419.689	1471.47
419.897	1608.68
420.105	1594.34
420.313	1602.54
420.521	1639.4
420.729	1731.56
420.937	1715.17
421.145	1795.04
421.353	1885.16
421.561	1967.07
421.769	1946.59
421.977	2143.2
422.185	2116.58
422.393	2180.06
422.601	2341.85
422.809	2423.77
423.017	2395.1
423.224	2425.82
423.432	2499.55
423.64	2685.91
423.848	2745.3
424.056	2870.23
424.263	2946
424.471	3023.83
424.679	3167.18
424.887	3224.53
425.094	3341.26
425.302	3412.94
425.51	3441.61
425.718	3638.22
425.925	3546.06
426.133	3824.58
426.341	3845.06
426.548	4123.59
426.756	4172.74
426.964	4330.43
427.171	4283.33
427.379	4469.69
427.586	4416.44
427.794	4707.26
428.001	4953.01
428.209	5073.84
428.417	4987.83
428.624	5516.2
428.832	5546.92
429.039	5329.84
429.247	5520.3
429.454	5909.41
429.662	6220.71
429.869	5825.45
430.076	6394.78
430.284	6247.33
430.491	6357.92
430.699	6812.57
430.906	6769.56
431.114	6802.33
431.321	7173.01
431.528	7099.28
431.736	7719.82
431.943	7986.05
432.15	7787.4
432.358	7805.83
432.565	8317.83
432.772	8307.59
432.979	8553.34
433.187	8934.26
433.394	8678.27
433.601	9409.39
433.808	9554.8
434.016	9474.93
434.223	10101.61
434.43	10490.72
434.637	10343.27
434.844	10875.74
435.052	11334.48
435.259	11133.78
435.466	11279.19
435.673	11051.86
435.88	11627.34
436.087	12389.19
436.294	12419.91
436.501	11993.93
436.708	12575.55
436.915	12759.87
437.122	13337.4
437.329	13339.44
437.537	13667.12
437.743	13894.44
437.95	13859.63
438.157	14482.21
438.364	15340.31
438.571	14768.93
438.778	14883.61
438.985	16323.33
439.192	15915.79
439.399	16470.79
439.606	16141.07
439.813	16884.48
440.02	17984.24
440.227	17666.8
440.433	17535.73
440.64	18027.24
440.847	18000.62
441.054	18162.41
441.261	19727.06
441.467	19692.24
441.674	19741.39
441.881	20587.21
442.088	20392.65
442.294	19935.95
442.501	20687.56
442.708	21039.81
442.914	21996.21
443.121	22772.39
443.328	21985.97
443.534	23825.04
443.741	23311
443.948	22629.03
444.154	24097.42
444.361	24189.58
444.568	24558.22
444.774	24244.88
444.981	24605.32
445.187	25672.31
445.394	26595.95
445.6	26411.63
445.807	28893.77
446.013	27413.09
446.22	27587.16
446.426	29170.24
446.633	29323.84
446.839	29819.45
447.046	29043.27
447.252	30439.98
447.459	30284.34
447.665	30968.36
447.871	31963.67
448.078	33268.23
448.284	31769.12
448.491	32238.1
448.697	33516.03
448.903	34501.11
449.11	34675.18
449.316	33520.13
449.522	34286.07
449.728	35396.07
449.935	35377.64
450.141	35437.03
450.347	35932.64
450.553	35238.37
450.76	35281.38
450.966	36227.54
451.172	35932.64
451.378	36780.49
451.584	36194.78
451.791	37308.87
451.997	37181.9
452.203	37679.55
452.409	37706.18
452.615	37548.48
452.821	35885.53
453.027	35404.26
453.233	37349.83
453.44	35944.92
453.646	36174.3
453.852	36504.02
454.058	36987.34
454.264	35805.66
454.47	36264.41
454.676	35480.03
454.882	36880.85
455.088	33751.55
455.294	34095.61
455.5	34640.37
455.705	35168.74
455.911	33528.32
456.117	32995.85
456.323	32205.33
456.529	30575.15
456.735	31914.52
456.941	31230.5
457.147	30775.85
457.352	29829.69
457.558	29211.2
457.764	29235.78
457.97	29110.85
458.176	28244.56
458.381	28570.19
458.587	26460.78
458.793	26880.61
458.999	25508.47
459.204	27263.58
459.41	26741.35
459.616	25066.11
459.821	25148.03
460.027	24722.05
460.233	24253.07
460.438	22790.82
460.644	23413.4
460.85	22268.59
461.055	21914.29
461.261	21463.74
461.466	20130.51
461.672	19520.21
461.878	20804.29
462.083	19552.98
462.289	19311.32
462.494	19350.23
462.7	18176.75
462.905	17560.31
463.111	18361.06
463.316	18688.74
463.522	18021.1
463.727	17930.99
463.932	17896.17
464.138	17775.34
464.343	18023.15
464.549	17419
464.754	18014.96
464.959	17660.66
465.165	17836.78
465.37	16988.92
465.575	16532.23
465.781	17328.89
465.986	17330.94
466.191	16788.22
466.397	16427.78
466.602	15596.31
466.807	16216.84
467.012	16028.43
467.218	16130.83
467.423	15661.84
467.628	15819.53
467.833	16648.96
468.038	15758.1
468.244	15594.26
468.449	16249.61
468.654	15422.23
468.859	15426.32
469.064	15172.38
469.269	14873.37
469.474	14779.17
469.679	15151.9
469.885	14611.23
470.09	14844.7
470.295	14830.37
470.5	14314.28
470.705	14592.8
470.91	14349.09
471.115	13939.5
471.32	14166.82
471.525	14199.59
471.73	13869.87
471.935	13796.14
472.139	13239.09
472.344	13550.39
472.549	13271.86
472.754	13161.27
472.959	12833.6
473.164	12497.73
473.369	12591.94
473.574	13005.63
473.778	12692.29
473.983	12628.8
474.188	12688.19
474.393	12266.31
474.598	11942.73
474.802	11973.45
475.007	11979.59
475.212	12002.12
475.417	11664.21
475.621	11508.56
475.826	11567.95
476.031	11488.08
476.235	11291.48
476.44	11242.32
476.645	10965.85
476.849	11184.98
477.054	10965.85
477.259	10519.39
477.463	10781.53
477.668	10580.83
477.872	10552.16
478.077	10531.68
478.282	10154.85
478.486	10144.61
478.691	10242.92
478.895	10062.69
479.1	9874.28
479.304	10021.74
479.509	9698.16
479.713	9851.75
479.918	9689.96
480.122	9552.75
480.326	9685.87
480.531	9778.03
480.735	9515.89
480.94	9313.14
481.144	9696.11
481.348	9481.07
481.553	9458.54
481.757	9251.7
481.961	9337.71
482.166	9528.17
482.37	9456.5
482.574	9210.74
482.778	9048.95
482.983	9601.9
483.187	9171.83
483.391	9411.44
483.595	9237.36
483.8	9151.35
484.004	9302.9
484.208	9259.89
484.412	9384.82
484.616	9257.84
484.821	9233.27
485.025	9010.04
485.229	9225.08
485.433	9122.68
485.637	9196.4
485.841	9161.59
486.045	9235.32
486.249	9231.22
486.453	9188.21
486.657	9292.66
486.861	9276.27
487.065	9139.06
487.269	9089.91
487.473	8921.98
487.677	9194.36
487.881	9284.47
488.085	9227.12
488.289	9405.3
488.493	9311.09
488.697	9272.18
488.901	9243.51
489.105	9126.77
489.309	9306.99
489.512	9077.62
489.716	9284.47
489.92	9270.13
490.124	9317.23
490.328	9479.02
490.531	9329.52
490.735	9427.82
490.939	9552.75
491.143	9483.12
491.346	9278.32
491.55	9421.68
491.754	9675.63
491.958	9698.16
492.161	9585.52
492.365	9786.22
492.569	9552.75
492.772	9778.03
492.976	9735.02
493.18	9771.88
493.383	10015.59
493.587	9823.08
493.79	10056.55
493.994	10023.78
494.197	10204
494.401	10038.12
494.605	10089.32
494.808	10244.96
495.012	10335.07
495.215	10394.47
495.419	10539.87
495.622	10503.01
495.825	10527.58
496.029	10701.66
496.232	10853.21
496.436	10951.51
496.639	11162.45
496.843	10853.21
497.046	11434.83
497.249	11592.53
497.453	11500.37
497.656	11645.77
497.859	11694.93
498.063	11690.83
498.266	11709.26
498.469	11696.97
498.673	11979.59
498.876	12454.72
499.079	12233.54
499.282	12254.02
499.485	12579.65
499.689	12880.7
499.892	12610.37
500.095	12901.18
500.298	13359.92
500.501	12942.14
500.705	13507.38
500.908	13742.89
501.111	13574.96
501.314	13927.21
501.517	14086.95
501.72	14105.38
501.923	14109.48
502.126	14392.1
502.329	14637.86
502.532	14789.41
502.735	14865.18
502.938	15115.03
503.141	15244.06
503.344	15534.87
503.547	15452.95
503.75	15772.43
503.953	15969.04
504.156	16360.2
504.359	16022.28
504.562	16161.55
504.765	16896.77
504.968	16579.33
505.17	16999.16
505.373	17068.8
505.576	17380.09
505.779	17437.43
505.982	17588.98
506.185	17994.48
506.387	18076.4
506.59	18244.33
506.793	18426.6
506.996	18600.68
507.198	19237.59
507.401	18887.39
507.604	19165.92
507.807	19600.08
508.009	19440.34
508.212	19360.47
508.415	19981.01
508.617	20103.89
508.82	20359.88
509.022	20189.9
509.225	20712.13
509.428	20832.96
509.63	21011.14
509.833	21271.23
510.035	21924.53
510.238	21695.16
510.44	22119.09
510.643	21963.44
510.845	22555.3
511.048	22397.61
511.25	22901.41
511.453	22807.2
511.655	23741.08
511.858	23653.02
512.06	24007.31
512.262	24107.66
512.465	24216.21
512.667	24482.44
512.87	24476.3
513.072	24883.84
513.274	25246.33
513.477	25625.21
513.679	25840.25
513.881	26030.71
514.084	26153.58
514.286	26405.49
514.488	26325.61
514.69	26835.56
514.893	27122.27
515.095	27454.05
515.297	27748.95
515.499	27791.96
515.701	27908.69
515.904	28271.18
516.106	28662.35
516.308	29033.03
516.51	29426.24
516.712	29217.35
516.914	29837.88
517.116	30169.65
517.318	30100.02
517.52	30515.76
517.722	30409.26
517.925	30908.97
518.127	31312.42
518.329	31330.85
518.531	31433.25
518.733	32070.17
518.935	32348.69
519.136	32317.97
519.338	32875.02
519.54	32967.18
519.742	33348.1
519.944	33526.27
520.146	34101.75
520.348	34159.09
520.55	34058.74
520.752	34595.31
520.954	35115.5
521.155	34630.13
521.357	35471.84
521.559	35666.4
521.761	36241.88
521.963	36065.75
522.164	36178.39
522.366	36637.14
522.568	36944.33
522.77	36999.63
522.971	37898.69
523.173	37575.11
523.375	38138.3
523.576	37648.83
523.778	38193.59
523.98	38707.63
524.181	38744.5
524.383	39172.52
524.584	39221.67
524.786	39246.25
524.988	39080.36
525.189	40319.38
525.391	40012.19
525.592	40329.62
525.794	40835.47
525.995	40616.34
526.197	40831.38
526.398	40548.76
526.6	41435.53
526.801	41550.21
527.003	41453.96
527.204	41671.04
527.406	42002.82
527.607	41820.55
527.808	42680.69
528.01	41687.43
528.211	42469.75
528.412	42840.43
528.614	42991.98
528.815	43075.95
529.016	43651.43
529.218	43243.88
529.419	42944.88
529.62	43311.47
529.822	43446.63
530.023	43276.65
530.224	43948.39
530.425	43510.12
530.626	43399.53
530.828	43434.35
531.029	44622.17
531.23	43831.65
531.431	43899.23
531.632	44278.11
531.833	44302.68
532.035	44364.12
532.236	44310.88
532.437	44616.02
532.638	44298.59
532.839	44919.12
533.04	44980.56
533.241	44286.3
533.442	45412.68
533.643	44960.08
533.844	44771.67
534.045	44796.24
534.246	44769.62
534.447	45451.59
534.648	44951.89
534.849	44953.94
535.05	44644.69
535.251	45181.26
535.451	45027.66
535.652	44841.3
535.853	45152.59
536.054	45031.76
536.255	45519.18
536.456	44958.03
536.657	45611.34
536.857	45248.85
537.058	45324.62
537.259	45615.43
537.46	45226.32
537.66	45551.94
537.861	45156.69
538.062	45123.92
538.263	45701.45
538.463	44814.68
538.664	45250.89
538.865	45627.72
539.065	45578.57
539.266	45097.3
539.466	45691.21
539.667	44630.36
539.868	45777.22
540.068	44992.85
540.269	45293.9
540.469	45666.63
540.67	44943.7
540.87	44972.37
541.071	45214.03
541.271	45734.21
541.472	45527.37
541.672	45154.64
541.873	45277.52
542.073	44335.45
542.274	45545.8
542.474	45027.66
542.675	45015.38
542.875	45705.54
543.075	45914.44
543.276	45095.25
543.476	45123.92
543.676	45140.3
543.877	45420.87
544.077	45222.22
544.277	45064.53
544.478	45001.04
544.678	45486.41
544.878	45177.17
545.078	44753.24
545.279	45302.09
545.479	45158.73
545.679	45048.14
545.879	44933.46
546.079	45480.27
546.28	44964.18
546.48	44736.85
546.68	45195.6
546.88	45508.94
547.08	45211.98
547.28	45048.14
547.48	44863.83
547.68	44818.77
547.88	44710.23
548.081	45259.09
548.281	45412.68
548.481	44783.96
548.681	45304.14
548.881	44743
549.081	44955.99
549.28	44718.42
549.48	45494.6
549.68	44955.99
549.88	45586.76
550.08	44794.2
550.28	45209.93
550.48	44783.96
550.68	44972.37
550.88	44986.71
551.08	44599.64
551.279	45283.66
551.479	44575.06
551.679	44771.67
551.879	44505.43
552.079	45068.62
552.278	44513.62
552.478	44816.72
552.678	44722.52
552.878	44491.1
553.077	44675.41
553.277	44511.58
553.477	44980.56
553.676	44618.07
553.876	44790.1
554.076	44333.4
554.275	44235.1
554.475	43882.85
554.674	44585.3
554.874	44570.97
555.074	44337.5
555.273	44400.99
555.473	44611.93
555.672	43950.43
555.872	44339.55
556.071	44333.4
556.271	44341.6
556.47	43827.56
556.67	43712.87
556.869	44032.35
557.068	44087.65
557.268	43510.12
557.467	43759.97
557.667	43624.81
557.866	43608.42
558.065	43702.63
558.265	43374.95
558.464	42924.4
558.663	43538.79
558.863	42936.69
559.062	44091.74
559.261	43065.71
559.461	43882.85
559.66	42805.62
559.859	43006.32
560.058	42586.49
560.258	42998.13
560.457	42754.42
560.656	43049.33
560.855	42525.05
561.054	42785.14
561.253	42594.68
561.453	42512.76
561.652	42795.38
561.851	42631.54
562.05	42318.2
562.249	42082.69
562.448	42779
562.647	42092.93
562.846	42109.31
563.045	42074.49
563.244	41800.07
563.443	41984.38
563.642	41490.82
563.841	41619.84
564.04	41693.57
564.239	41918.85
564.438	41347.47
564.637	41292.17
564.836	41533.83
565.035	40776.08
565.234	41263.5
565.432	41050.51
565.631	40800.66
565.83	41218.44
566.029	40685.97
566.228	40720.79
566.427	40241.56
566.625	39717.28
566.824	39633.32
567.023	40417.69
567.222	39590.31
567.42	39950.75
567.619	39938.46
567.818	39510.44
568.016	39616.93
568.215	39991.71
568.414	39496.1
568.612	39924.13
568.811	39283.11
569.01	39123.37
569.208	39061.93
569.407	39090.6
569.605	38779.31
569.804	39270.82
570.002	38472.12
570.201	38566.32
570.4	38402.49
570.598	38242.74
570.797	37980.6
570.995	38447.54
571.193	38134.2
571.392	38017.47
571.59	37904.83
571.789	37697.98
571.987	37530.05
572.186	37786.05
572.384	37345.73
572.582	37751.23
572.781	37384.65
572.979	36936.14
573.177	37206.47
573.376	36764.11
573.574	36563.41
573.772	36970.96
573.971	36499.92
574.169	36612.56
574.367	36461.01
574.565	36694.48
574.763	36231.64
574.962	36096.47
575.16	35797.47
575.358	35955.16
575.556	35535.33
575.754	36336.09
575.952	35557.86
576.151	35828.19
576.349	35437.03
576.547	35437.03
576.745	35414.5
576.943	35523.04
577.141	35062.25
577.339	34988.52
577.537	34927.08
577.735	34857.45
577.933	34652.66
578.131	34927.08
578.329	34619.89
578.527	34181.62
578.725	34349.56
578.923	34320.88
579.121	34212.34
579.319	33982.97
579.516	33866.24
579.714	33962.49
579.912	33667.58
580.11	33800.7
580.308	33661.44
580.506	33595.9
580.704	33282.56
580.901	33317.38
581.099	33198.6
581.297	32987.66
581.495	33018.38
581.692	33186.31
581.89	32883.21
582.088	33284.61
582.285	32676.37
582.483	32752.14
582.681	32580.11
582.878	32102.93
583.076	31697.44
583.274	32303.64
583.471	31791.64
583.669	32373.27
583.866	31556.13
584.064	32301.59
584.262	31281.7
584.459	31857.18
584.657	31445.54
584.854	31777.31
585.052	31150.63
585.249	31357.47
585.447	31310.37
585.644	30810.67
585.841	31248.93
586.039	30966.31
586.236	30640.68
586.434	30884.39
586.631	30427.7
586.828	30829.1
587.026	30411.31
587.223	30190.13
587.42	30042.68
587.618	30325.3
587.815	29891.13
588.012	29706.81
588.21	29805.11
588.407	30089.78
588.604	29540.93
588.801	29448.77
588.999	29436.48
589.196	29649.47
589.393	29545.02
589.59	29606.46
589.787	29252.16
589.984	28850.76
590.182	29082.18
590.379	28817.99
590.576	28858.95
590.773	29205.06
590.97	28518.99
591.167	28768.84
591.364	28312.14
591.561	28297.81
591.758	28461.65
591.955	28234.32
592.152	28138.07
592.349	27884.12
592.546	28027.48
592.743	27961.94
592.94	27482.72
593.137	27746.9
593.334	28045.91
593.531	27322.98
593.727	27427.42
593.924	27411.04
594.121	26913.38
594.318	27449.95
594.515	27042.4
594.712	27241.06
594.908	26847.85
595.105	27019.88
595.302	26653.29
595.499	26735.21
595.696	26561.13
595.892	26337.9
596.089	26585.71
596.286	26342
596.482	25999.99
596.679	26331.76
596.876	26034.8
597.072	25825.91
597.269	25956.98
597.466	25807.48
597.662	25584.25
597.859	25903.73
598.055	25666.17
598.252	25389.69
598.448	25463.42
598.645	25539.19
598.841	25195.14
599.038	25395.84
599.234	25375.36
599.431	24933
599.627	24572.55
599.824	25449.08
600.02	24752.77
600.217	24666.76
600.413	24623.75
600.609	24461.96
600.806	24478.35
601.002	24445.58
601.198	24337.04
601.395	24128.14
601.591	24087.18
601.787	23992.98
601.984	23939.73
602.18	24150.67
602.376	23655.06
602.572	23698.07
602.769	23747.22
602.965	23548.57
603.161	23812.76
603.357	23753.37
603.553	23288.48
603.75	23616.15
603.946	23095.97
604.142	23032.48
604.338	22999.71
604.534	23028.38
604.73	22885.03
604.926	22932.13
605.122	22809.25
605.318	22479.53
605.514	22987.43
605.71	22657.7
605.906	22612.65
606.102	22571.69
606.298	22411.95
606.494	22426.28
606.69	22481.58
606.886	22409.9
607.082	21764.79
607.278	22055.6
607.474	21932.72
607.67	22182.57
607.866	21951.15
608.062	21717.68
608.257	21793.46
608.453	21899.95
608.649	21920.43
608.845	21213.88
609.041	21697.2
609.236	21478.07
609.432	21529.27
609.628	21480.12
609.824	21471.93
610.019	21097.15
610.215	21154.49
610.411	21203.64
610.606	21000.9
610.802	21074.62
610.998	21023.42
611.193	20880.07
611.389	21000.9
611.584	20947.65
611.78	20832.96
611.976	20740.8
612.171	20777.67
612.367	20767.43
612.562	20638.41
612.758	20779.71
612.953	20277.96
613.149	20624.07
613.344	20300.49
613.539	20916.93
613.735	20292.3
613.93	20499.14
614.126	20366.03
614.321	20413.13
614.517	20185.8
614.712	20439.75
614.907	20017.87
615.103	20249.29
615.298	19823.31
615.493	20355.79
615.688	19770.07
615.884	20019.92
616.079	19786.45
616.274	19905.23
616.47	19968.72
616.665	19983.06
616.86	19686.1
617.055	19639
617.25	19444.44
617.445	19940.05
617.641	19409.62
617.836	19266.27
618.031	19231.45
618.226	19509.97
618.421	18989.79
618.616	19585.75
618.811	19249.88
619.006	19763.92
619.201	19069.66
619.396	18936.54
619.591	18707.17
619.786	18907.87
619.981	18535.14
620.176	18909.92
620.371	18402.02
620.566	18524.9
620.761	18414.31
620.956	18694.88
621.151	18338.54
621.346	18303.72
621.541	18060.01
621.735	18203.37
621.93	17980.14
622.125	17930.99
622.32	17345.27
622.515	18035.44
622.709	17435.38
622.904	17529.59
623.099	17357.56
623.294	17339.13
623.488	17230.59
623.683	17378.04
623.878	16999.16
624.072	17109.75
624.267	16857.85
624.462	16669.44
624.656	16630.53
624.851	16739.07
625.046	16526.08
625.24	16309
625.435	16233.22
625.629	16075.53
625.824	16114.44
626.018	16403.21
626.213	15930.12
626.407	15895.31
626.602	15784.72
626.796	15923.98
626.991	15702.8
627.185	15534.87
627.38	15510.29
627.574	15266.58
627.768	15061.79
627.963	15096.6
628.157	15098.65
628.352	15041.31
628.546	15049.5
628.74	14867.23
628.935	15033.11
629.129	14934.81
629.323	14603.04
629.517	14641.95
629.712	14535.46
629.906	14279.46
630.1	14211.88
630.294	14240.55
630.489	14076.71
630.683	14127.91
630.877	13896.49
631.071	14039.85
631.265	13871.92
631.459	13787.95
631.653	13708.08
631.848	13812.53
632.042	13652.78
632.236	13513.52
632.43	13527.86
632.624	13486.9
632.818	13302.58
633.012	13304.63
633.206	13079.35
633.4	13040.44
633.594	13099.83
633.788	12942.14
633.982	13062.97
634.176	12884.8
634.369	12725.05
634.563	12802.88
634.757	12716.86
634.951	12819.26
635.145	12745.53
635.339	12624.7
635.533	12432.19
635.726	12186.44
635.92	12096.33
636.114	12403.52
636.308	11998.02
636.501	12133.19
636.695	12061.51
636.889	11791.18
637.083	11766.6
637.276	11836.24
637.47	11815.76
637.664	12036.94
637.857	11713.36
638.051	11805.52
638.244	11797.32
638.438	11477.84
638.632	11410.26
638.825	11258.71
639.019	11156.31
639.212	11021.14
639.406	11328.34
639.599	11068.25
639.793	11021.14
639.986	10881.88
640.18	10992.47
640.373	10859.35
640.567	10802.01
640.76	10847.07
640.954	10693.47
641.147	10617.69
641.34	10478.43
641.534	10513.25
641.727	10482.53
641.92	10406.75
642.114	10574.69
642.307	10392.42
642.5	10398.56
642.694	10285.92
642.887	9956.2
643.08	10163.04
643.273	10025.83
643.467	9923.43
643.66	9790.31
643.853	9769.83
644.046	9737.07
644.239	9798.51
644.432	9681.77
644.626	9657.2
644.819	9519.98
645.012	9655.15
645.205	9591.66
645.398	9429.87
645.591	9350
645.784	9384.82
645.977	9298.8
646.17	9302.9
646.363	9085.81
646.556	9229.17
646.749	9151.35
646.942	8958.84
647.135	9065.33
647.328	8944.5
647.521	8901.5
647.714	8788.86
647.907	8766.33
648.099	8946.55
648.292	8950.65
648.485	8893.3
648.678	8459.13
648.871	8682.36
649.064	8606.59
649.256	8637.31
649.449	8545.15
649.642	8432.51
649.835	8479.61
650.027	8201.09
650.22	8422.27
650.413	8420.22
650.605	8127.36
650.798	8110.98
650.991	8059.78
651.183	8237.95
651.376	7887.75
651.568	8055.69
651.761	8039.3
651.954	7975.81
652.146	7893.9
652.339	7965.57
652.531	7924.62
652.724	7803.78
652.916	7517.07
653.109	7717.77
653.301	7846.79
653.494	7738.25
653.686	7687.05
653.879	7445.39
654.071	7381.9
654.263	7529.36
654.456	7500.69
654.648	7326.61
654.84	7363.47
655.033	7248.79
655.225	7252.88
655.417	7240.59
655.61	7232.4
655.802	7353.23
655.994	7254.93
656.186	7211.92
656.379	7115.67
656.571	7005.08
656.763	6953.88
656.955	6984.6
657.148	7050.13
657.34	7140.24
657.532	6927.25
657.724	6632.35
657.916	6927.25
658.108	6849.43
658.3	6792.09
658.492	6744.99
658.684	6536.09
658.876	6626.2
659.068	6431.65
659.26	6767.51
659.452	6448.03
659.644	6529.95
659.836	6396.83
660.028	6450.08
660.22	6355.87
660.412	6409.12
660.604	6402.97
660.796	6374.3
660.988	6362.01
661.18	6159.27
661.372	6200.23
661.563	6302.62
661.755	6167.46
661.947	6200.23
662.139	6050.72
662.331	6046.63
662.522	6136.74
662.714	6058.92
662.906	6048.68
663.097	6009.76
663.289	5909.41
663.481	5987.24
663.673	5925.8
663.864	5915.56
664.056	5721
664.247	5780.39
664.439	5825.45
664.631	5731.24
664.822	5768.1
665.014	5829.54
665.205	5569.45
665.397	5702.57
665.588	5628.84
665.78	5702.57
665.971	5622.7
666.163	5706.66
666.354	5641.13
666.546	5567.4
666.737	5409.71
666.929	5342.13
667.12	5501.87
667.311	5272.5
667.503	5270.45
667.694	5397.42
667.885	5372.85
668.077	5479.34
668.268	5366.7
668.459	5321.65
668.651	5180.34
668.842	5180.34
669.033	5348.27
669.224	5245.87
669.416	5270.45
669.607	5469.1
669.798	5137.33
669.989	5233.58
670.18	5014.45
670.371	5209.01
670.563	5104.56
670.754	5135.28
670.945	5028.79
671.136	5233.58
671.327	4950.96
671.518	4885.43
671.709	5170.1
671.9	5108.66
672.091	5043.12
672.282	4969.4
672.473	4973.49
672.664	4918.2
672.855	4971.44
673.046	4901.81
673.237	4948.92
673.428	4910.01
673.619	4977.59
673.809	4856.76
674	4981.68
674.191	4944.82
674.382	4830.13
674.573	4787.13
674.764	4852.66
674.954	4707.26
675.145	4625.34
675.336	4787.13
675.527	4754.36
675.717	4764.6
675.908	4672.44
676.099	4858.81
676.289	4721.59
676.48	4654.01
676.671	4729.78
676.861	4572.09
677.052	4551.61
677.243	4662.2
677.433	4740.02
677.624	4672.44
677.814	4672.44
678.005	4768.7
678.195	4686.78
678.386	4649.91
678.576	4567.99
678.767	4537.27
678.957	4625.34
679.148	4703.16
679.338	4721.59
679.529	4570.04
679.719	4520.89
679.909	4649.91
680.1	4668.34
680.29	4355.01
680.481	4567.99
680.671	4633.53
680.861	4692.92
681.052	4690.87
681.242	4615.1
681.432	4627.39
681.622	4547.51
681.813	4582.33
682.003	4654.01
682.193	4567.99
682.383	4588.47
682.573	4625.34
682.764	4469.69
682.954	4539.32
683.144	4504.51
683.334	4400.06
683.524	4557.75
683.714	4586.43
683.904	4471.74
684.094	4561.85
684.284	4629.43
684.474	4596.67
684.664	4498.36
684.854	4344.77
685.044	4332.48
685.234	4400.06
685.424	4490.17
685.614	4367.29
685.804	4379.58
685.994	4416.44
686.184	4488.12
686.374	4383.68
686.564	4260.8
686.753	4199.36
686.943	4189.12
687.133	4348.86
687.323	4264.89
687.513	4355.01
687.702	4271.04
687.892	4133.82
688.082	4152.26
688.272	4135.87
688.461	4207.55
688.651	4215.74
688.841	4119.49
689.03	4080.58
689.22	4131.78
689.41	4146.11
689.599	4172.74
689.789	4174.78
689.979	4180.93
690.168	3969.99
690.358	4041.67
690.547	3994.56
690.737	4043.71
690.926	4027.33
691.116	3883.97
691.305	4000.71
691.495	3992.52
691.684	3896.26
691.874	3898.31
692.063	3752.9
692.252	3988.42
692.442	3818.44
692.631	3707.85
692.82	3863.49
693.01	3748.81
693.199	3759.05
693.388	3730.38
693.578	3716.04
693.767	3703.75
693.956	3732.42
694.146	3806.15
694.335	3650.5
694.524	3607.5
694.713	3652.55
694.902	3730.38
695.092	3652.55
695.281	3599.31
695.47	3763.14
695.659	3507.15
695.848	3650.5
696.037	3724.23
696.226	3568.59
696.415	3589.07
696.604	3685.32
696.793	3630.02
696.982	3621.83
697.171	3642.31
697.36	3605.45
697.549	3693.51
697.738	3679.18
697.927	3572.68
698.116	3625.93
698.305	3597.26
698.494	3621.83
698.683	3572.68
698.872	3539.91
699.061	3525.58
699.25	3496.91
699.438	3501
699.627	3531.72
699.816	3525.58
700.005	3554.25
700.193	3494.86
700.382	3529.67
700.571	3570.63
700.76	3484.62
700.948	3539.91
701.137	3607.5
701.326	3482.57
701.514	3390.41
701.703	3652.55
701.892	3437.52
702.08	3523.53
702.269	3564.49
702.457	3453.9
702.646	3447.76
702.834	3417.04
703.023	3503.05
703.212	3611.59
703.4	3505.1
703.589	3445.71
703.777	3666.89
703.965	3673.03
704.154	3591.11
704.342	3523.53
704.531	3462.09
704.719	3478.47
704.907	3494.86
705.096	3417.04
705.284	3550.15
705.472	3584.97
705.661	3419.08
705.849	3560.39
706.037	3533.77
706.226	3517.39
706.414	3556.3
706.602	3441.61
706.79	3640.26
706.979	3406.8
707.167	3517.39
707.355	3513.29
707.543	3412.94
707.731	3486.67
707.919	3449.8
708.107	3535.82
708.296	3474.38
708.484	3367.88
708.672	3584.97
708.86	3484.62
709.048	3437.52
709.236	3501
709.424	3503.05
709.612	3544.01
709.8	3525.58
709.988	3376.08
710.176	3697.61
710.364	3460.04
710.551	3509.19
710.739	3474.38
710.927	3447.76
711.115	3501
711.303	3640.26
711.491	3419.08
711.679	3414.99
711.866	3498.95
712.054	3470.28
712.242	3484.62
712.43	3625.93
712.617	3480.52
712.805	3474.38
712.993	3414.99
713.181	3466.19
713.368	3482.57
713.556	3662.79
713.744	3439.56
713.931	3738.57
714.119	3593.16
714.306	3572.68
714.494	3605.45
714.682	3482.57
714.869	3541.96
715.057	3552.2
715.244	3505.1
715.432	3587.02
715.619	3507.15
715.807	3531.72
715.994	3486.67
716.182	3550.15
716.369	3550.15
716.556	3552.2
716.744	3404.75
716.931	3556.3
717.119	3595.21
717.306	3441.61
717.493	3584.97
717.681	3548.11
717.868	3490.76
718.055	3529.67
718.242	3523.53
718.43	3726.28
718.617	3617.74
718.804	3548.11
718.991	3593.16
719.179	3552.2
719.366	3539.91
719.553	3607.5
719.74	3593.16
719.927	3599.31
720.114	3568.59
720.301	3537.87
720.488	3460.04
720.676	3580.87
720.863	3478.47
721.05	3544.01
721.237	3501
721.424	3564.49
721.611	3654.6
721.798	3503.05
721.985	3646.41
722.172	3609.54
722.358	3658.7
722.545	3609.54
722.732	3521.48
722.919	3486.67
723.106	3503.05
723.293	3535.82
723.48	3525.58
723.667	3462.09
723.853	3527.63
724.04	3603.4
724.227	3521.48
724.414	3470.28
724.6	3374.03
724.787	3566.54
724.974	3480.52
725.161	3539.91
725.347	3474.38
725.534	3597.26
725.72	3539.91
725.907	3505.1
726.094	3683.27
726.28	3486.67
726.467	3617.74
726.653	3443.66
726.84	3572.68
727.027	3722.18
727.213	3572.68
727.4	3458
727.586	3570.63
727.773	3410.89
727.959	3513.29
728.145	3460.04
728.332	3478.47
728.518	3533.77
728.705	3531.72
728.891	3490.76
729.077	3412.94
729.264	3519.43
729.45	3513.29
729.636	3572.68
729.823	3462.09
730.009	3507.15
730.195	3396.56
730.382	3470.28
730.568	3445.71
730.754	3513.29
730.94	3376.08
731.126	3371.98
731.313	3341.26
731.499	3367.88
731.685	3359.69
731.871	3494.86
732.057	3292.11
732.243	3374.03
732.429	3365.84
732.615	3484.62
732.801	3445.71
732.987	3353.55
733.173	3390.41
733.359	3488.71
733.545	3441.61
733.731	3505.1
733.917	3404.75
734.103	3347.4
734.289	3392.46
734.475	3519.43
734.661	3392.46
734.847	3398.6
735.033	3470.28
735.219	3349.45
735.404	3298.25
735.59	3445.71
735.776	3369.93
735.962	3417.04
736.148	3363.79
736.333	3328.97
736.519	3267.53
736.705	3271.63
736.89	3394.51
737.076	3275.73
737.262	3359.69
737.447	3322.83
737.633	3226.57
737.819	3324.88
738.004	3214.29
738.19	3312.59
738.375	3283.92
738.561	3204.05
738.747	3300.3
738.932	3072.98
739.118	3249.1
739.303	3292.11
739.489	3331.02
739.674	3085.26
739.859	3150.8
740.045	3087.31
740.23	3120.08
740.416	3081.17
740.601	3222.48
740.786	3134.42
740.972	3103.7
741.157	3115.98
741.342	3077.07
741.528	3083.22
741.713	3197.9
741.898	3032.02
742.084	3083.22
742.269	3089.36
742.454	3134.42
742.639	3087.31
742.824	2952.15
743.01	3017.68
743.195	2976.72
743.38	2919.38
743.565	2989.01
743.75	3003.35
743.935	2894.8
744.12	2943.96
744.305	2868.18
744.49	2868.18
744.675	2890.71
744.86	2778.07
745.045	2747.35
745.23	2839.51
745.415	2788.31
745.6	2780.12
745.785	2841.56
745.97	2769.88
746.155	2806.74
746.34	2794.45
746.525	2649.05
746.71	2843.6
746.895	2665.43
747.079	2673.62
747.264	2757.59
747.449	2806.74
747.634	2587.61
747.819	2808.79
748.003	2657.24
748.188	2634.71
748.373	2577.37
748.557	2765.78
748.742	2558.94
748.927	2554.84
749.111	2567.13
749.296	2513.88
749.481	2477.02
749.665	2388.96
749.85	2415.58
750.034	2436.06
750.219	2405.34
750.404	2425.82
750.588	2452.44
750.773	2329.56
750.957	2356.19
751.141	2350.04
751.326	2261.98
751.51	2184.16
751.695	2343.9
751.879	2319.32
752.064	2261.98
752.248	2307.04
752.432	2145.25
752.617	2208.73
752.801	2135.01
752.985	2249.69
753.17	2145.25
753.354	2180.06
753.538	2061.28
753.722	2040.8
753.907	2106.34
754.091	2048.99
754.275	1975.27
754.459	1952.74
754.643	2010.08
754.828	2028.51
755.012	2067.42
755.196	2053.09
755.38	1962.98
755.564	1969.12
755.748	1895.4
755.932	2003.94
756.116	1864.68
756.3	1942.5
756.484	1897.44
756.668	1854.44
756.852	1858.53
757.036	1962.98
757.22	1829.86
757.404	1862.63
757.588	1721.32
757.772	1848.29
757.956	1766.37
758.14	1758.18
758.323	1713.13
758.507	1749.99
758.691	1741.8
758.875	1770.47
759.059	1770.47
759.242	1754.09
759.426	1655.78
759.61	1668.07
759.794	1541.1
759.977	1715.17
760.161	1666.02
760.345	1684.45
760.528	1584.1
760.712	1602.54
760.895	1614.82
761.079	1602.54
761.263	1547.24
761.446	1604.58
761.63	1463.27
761.813	1610.73
761.997	1500.14
762.18	1541.1
762.364	1567.72
762.547	1436.65
762.731	1469.42
762.914	1461.23
763.098	1471.47
763.281	1457.13
763.464	1487.85
763.648	1471.47
763.831	1422.31
764.015	1541.1
764.198	1438.7
764.381	1401.83
764.564	1405.93
764.748	1403.88
764.931	1403.88
765.114	1330.16
765.297	1410.03
765.481	1412.07
765.664	1354.73
765.847	1315.82
766.03	1379.31
766.213	1356.78
766.397	1385.45
766.58	1291.24
766.763	1307.63
766.946	1262.57
767.129	1360.88
767.312	1283.05
767.495	1313.77
767.678	1246.19
767.861	1297.39
768.044	1309.68
768.227	1324.01
768.41	1291.24
768.593	1240.05
768.776	1352.68
768.959	1266.67
769.142	1342.44
769.324	1194.99
769.507	1262.57
769.69	1250.28
769.873	1213.42
770.056	1328.11
770.239	1219.57
770.421	1299.44
770.604	1238
770.787	1321.96
770.97	1240.05
771.152	1192.94
771.335	1199.09
771.518	1143.79
771.7	1147.89
771.883	1180.65
772.066	1166.32
772.248	1170.41
772.431	1098.74
772.613	1029.1
772.796	1162.22
772.978	1164.27
773.161	1094.64
773.343	1096.69
773.526	1006.58
773.708	1063.92
773.891	971.76
774.073	1149.93
774.256	1004.53
774.438	1092.59
774.621	973.81
774.803	1094.64
774.985	943.09
775.168	1041.39
775.35	1012.72
775.532	988.14
775.715	906.23
775.897	930.8
776.079	1018.86
776.261	1059.82
776.444	979.95
776.626	938.99
776.808	957.43
776.99	977.91
777.173	887.79
777.355	945.14
777.537	871.41
777.719	947.19
777.901	984.05
778.083	953.33
778.265	865.27
778.447	834.55
778.629	779.25
778.811	900.08
778.993	879.6
779.175	783.35
779.357	824.31
779.539	803.83
779.721	873.46
779.903	750.58
780.085	877.55
780.267	822.26
780.449	865.27
780.631	779.25
780.812	869.36
780.994	775.16
781.176	685.05
781.358	787.44
781.54	746.48
781.721	764.92
781.903	748.53
782.085	754.68
782.267	771.06
782.448	678.9
782.63	756.72
782.812	619.51
782.993	769.01
783.175	701.43
783.357	713.72
783.538	613.37
783.72	637.94
783.901	650.23
784.083	637.94
784.264	728.05
784.446	599.03
784.627	586.74
784.809	635.89
784.99	615.41
785.172	574.46
785.353	656.37
785.535	619.51
785.716	605.17
785.897	623.61
786.079	568.31
786.26	652.28
786.441	576.5
786.623	586.74
786.804	560.12
786.985	592.89
787.167	594.93
787.348	574.46
787.529	617.46
787.71	644.09
787.891	590.84
788.073	558.07
788.254	549.88
788.435	539.64
788.616	529.4
788.797	431.1
788.978	547.83
789.159	474.1
789.34	601.08
789.522	451.58
789.703	504.82
789.884	502.78
790.065	467.96
790.246	500.73
790.427	492.54
790.607	478.2
790.788	488.44
790.969	521.21
791.15	562.17
791.331	467.96
791.512	429.05
791.693	453.63
791.874	422.91
792.054	574.46
792.235	513.02
792.416	445.43
792.597	390.14
792.778	482.3
792.958	515.06
793.139	480.25
793.32	439.29
793.5	455.67
793.681	465.91
793.862	412.67
794.042	439.29
794.223	422.91
794.404	461.82
794.584	404.47
794.765	424.95
794.945	418.81
795.126	408.57
795.306	377.85
795.487	367.61
795.667	410.62
795.848	377.85
796.028	398.33
796.209	398.33
796.389	463.86
796.57	398.33
796.75	320.51
796.93	306.17
797.111	322.56
797.291	316.41
797.471	441.34
797.652	340.99
797.832	408.57
798.012	388.09
798.192	349.18
798.373	377.85
798.553	306.17
798.733	365.56
798.913	332.79
799.093	320.51
799.274	357.37
799.454	357.37
799.634	295.93
799.814	406.52
799.994	427
800.174	300.03
800.354	322.56
800.534	263.16
800.714	240.64
800.894	326.65
801.074	300.03
801.254	365.56
801.434	316.41
801.614	318.46
801.794	222.2
801.974	938.99
802.154	377.85
802.334	281.6
802.514	353.27
802.693	304.12
802.873	265.21
803.053	338.94
803.233	273.4
803.413	302.08
803.592	357.37
803.772	220.16
803.952	275.45
804.131	295.93
804.311	316.41
804.491	351.23
804.67	336.89
804.85	312.32
805.03	328.7
805.209	373.75
805.389	326.65
805.568	142.33
805.748	318.46
805.928	246.78
806.107	271.36
806.287	302.08
806.466	224.25
806.646	277.5
806.825	250.88
807.004	203.77
807.184	306.17
807.363	285.69
807.543	152.57
807.722	324.6
807.901	269.31
808.081	287.74
808.26	236.54
808.439	220.16
808.619	218.11
808.798	261.12
808.977	297.98
809.156	326.65
809.336	257.02
809.515	328.7
809.694	197.63
809.873	232.44
810.052	199.68
810.231	197.63
810.411	185.34
810.59	267.26
810.769	234.49
810.948	246.78
811.127	218.11
811.306	181.25
811.485	279.55
811.664	283.64
811.843	291.84
812.022	201.72
812.201	173.05
812.38	250.88
812.559	195.58
812.737	259.07
812.916	113.66
813.095	117.76
813.274	244.73
813.453	273.4
813.632	214.01
813.811	220.16
813.989	244.73
814.168	236.54
814.347	226.3
814.526	162.81
814.704	201.72
814.883	267.26
815.062	144.38
815.24	211.96
815.419	136.19
815.598	197.63
815.776	173.05
815.955	197.63
816.133	171.01
816.312	216.06
816.49	140.29
816.669	150.53
816.847	185.34
817.026	185.34
817.204	76.8
817.383	211.96
817.561	87.04
817.74	250.88
817.918	166.91
818.097	144.38
818.275	177.15
818.453	160.77
818.632	216.06
818.81	177.15
818.988	168.96
819.167	205.82
819.345	177.15
819.523	156.67
819.701	136.19
819.879	156.67
820.058	183.29
820.236	142.33
820.414	125.95
820.592	187.39
820.77	230.4
820.948	187.39
821.127	144.38
821.305	130.05
821.483	128
821.661	189.44
821.839	93.18
822.017	101.37
822.195	166.91
822.373	203.77
822.551	175.1
822.729	152.57
822.907	160.77
823.085	193.53
823.262	46.08
823.44	173.05
823.618	134.14
823.796	119.81
823.974	107.52
824.152	168.96
824.329	191.49
824.507	189.44
824.685	111.61
824.863	156.67
825.04	136.19
825.218	160.77
825.396	138.24
825.574	138.24
825.751	128
825.929	181.25
826.107	187.39
826.284	189.44
826.462	87.04
826.639	82.94
826.817	146.43
826.994	146.43
827.172	136.19
827.349	109.57
827.527	113.66
827.704	125.95
827.882	125.95
828.059	130.05
828.237	87.04
828.414	136.19
828.591	78.85
828.769	78.85
828.946	109.57
829.124	89.09
829.301	152.57
829.478	103.42
829.655	156.67
829.833	105.47
830.01	93.18
830.187	181.25
830.364	156.67
830.542	66.56
830.719	173.05
830.896	111.61
831.073	68.61
831.25	136.19
831.427	128
831.604	123.9
831.782	144.38
831.959	136.19
832.136	109.57
832.313	175.1
832.49	107.52
832.667	54.27
832.844	103.42
833.021	95.23
833.198	205.82
833.374	80.89
833.551	78.85
833.728	123.9
833.905	93.18
834.082	185.34
834.259	93.18
834.436	156.67
834.612	115.71
834.789	82.94
834.966	146.43
835.143	136.19
835.319	48.13
835.496	48.13
835.673	150.53
835.85	125.95
836.026	103.42
836.203	136.19
836.38	91.13
836.556	119.81
836.733	80.89
836.909	119.81
837.086	125.95
837.262	80.89
837.439	107.52
837.616	-11.26
837.792	87.04
837.968	56.32
838.145	111.61
838.321	31.74
838.498	107.52
838.674	99.33
838.851	123.9
839.027	37.89
839.203	46.08
839.38	29.7
839.556	138.24
839.732	84.99
839.909	41.98
840.085	39.94
840.261	60.42
840.437	101.37
840.614	109.57
840.79	87.04
840.966	121.85
841.142	58.37
841.318	54.27
841.494	134.14
841.671	107.52
841.847	52.22
842.023	64.51
842.199	99.33
842.375	70.65
842.551	58.37
842.727	93.18
842.903	101.37
843.079	19.46
843.255	91.13
843.431	74.75
843.607	44.03
843.783	17.41
843.959	44.03
844.134	84.99
844.31	113.66
844.486	89.09
844.662	103.42
844.838	74.75
845.013	107.52
845.189	41.98
845.365	119.81
845.541	50.18
845.716	103.42
845.892	46.08
846.068	13.31
846.244	-7.17
846.419	48.13
846.595	58.37
846.77	27.65
846.946	97.28
847.122	7.17
847.297	64.51
847.473	109.57
847.648	-19.46
847.824	179.2
847.999	15.36
848.175	27.65
848.35	125.95
848.526	21.5
848.701	97.28
848.876	78.85
849.052	93.18
849.227	31.74
849.403	11.26
849.578	41.98
849.753	27.65
849.929	111.61
850.104	35.84
850.279	35.84
850.454	64.51
850.63	64.51
850.805	48.13
850.98	21.5
851.155	-13.31
851.33	13.31
851.505	35.84
851.681	107.52
851.856	-11.26
852.031	80.89
852.206	46.08
852.381	66.56
852.556	125.95
852.731	70.65
852.906	101.37
853.081	60.42
853.256	27.65
853.431	13.31
853.606	54.27
853.781	-29.7
853.956	-31.74
854.131	70.65
854.305	-52.22
854.48	11.26
854.655	66.56
854.83	76.8
855.005	56.32
855.18	3.07
855.354	15.36
855.529	87.04
855.704	13.31
855.879	13.31
856.053	13.31
856.228	60.42
856.403	13.31
856.577	60.42
856.752	48.13
856.926	3.07
857.101	19.46
857.276	17.41
857.45	33.79
857.625	78.85
857.799	9.22
857.974	-13.31
858.148	-35.84
858.323	33.79
858.497	-7.17
858.672	54.27
858.846	23.55
859.02	27.65
859.195	-5.12
859.369	54.27
859.543	31.74
859.718	-66.56
859.892	21.5
860.066	44.03
860.241	13.31
860.415	54.27
860.589	-5.12
860.763	58.37
860.938	-3.07
861.112	21.5
861.286	21.5
861.46	25.6
861.634	64.51
861.808	82.94
861.982	-19.46
862.157	-25.6
862.331	3.07
862.505	-5.12
862.679	5.12
862.853	35.84
863.027	25.6
863.201	117.76
863.375	52.22
863.549	-5.12
863.722	-54.27
863.896	44.03
864.07	-33.79
864.244	58.37
864.418	5.12
864.592	3.07
864.766	-19.46
864.939	95.23
865.113	-5.12
865.287	103.42
865.461	-27.65
865.634	-11.26
865.808	3.07
865.982	-1.02
866.156	-37.89
866.329	109.57
866.503	107.52
866.676	25.6
866.85	17.41
867.024	93.18
867.197	107.52
867.371	11.26
867.544	3.07
867.718	15.36
867.891	46.08
868.065	37.89
868.238	107.52
868.412	93.18
868.585	46.08
868.759	31.74
868.932	7.17
869.105	33.79
869.279	-17.41
869.452	19.46
869.625	17.41
869.799	-31.74
869.972	46.08
870.145	11.26
870.319	11.26
870.492	-68.61
870.665	70.65
870.838	-72.7
871.011	-41.98
871.185	27.65
871.358	-33.79
871.531	-19.46
871.704	9.22
871.877	-56.32
872.05	-58.37
872.223	37.89
872.396	56.32
872.569	9.22
872.742	-84.99
872.915	-60.42
873.088	13.31
873.261	9.22
873.434	17.41
873.607	15.36
873.78	103.42
873.953	5.12
874.126	50.18
874.299	50.18
874.471	13.31
874.644	56.32
874.817	58.37
874.99	70.65
875.163	7.17
875.335	17.41
875.508	-35.84
875.681	87.04
875.853	-95.23
876.026	13.31
876.199	-25.6
876.371	95.23
876.544	54.27
876.717	58.37
876.889	29.7
877.062	13.31
877.234	9.22
877.407	-13.31
877.579	17.41
877.752	-17.41
877.924	7.17
878.097	123.9
878.269	7.17
878.442	58.37
878.614	74.75
878.786	56.32
878.959	21.5
879.131	27.65
879.303	-44.03
879.476	25.6
879.648	-7.17
879.82	-3.07
879.993	-15.36
880.165	54.27
880.337	-11.26
880.509	44.03
880.681	13.31
880.854	76.8
881.026	52.22
881.198	60.42
881.37	19.46
881.542	41.98
881.714	58.37
881.886	5.12
882.058	52.22
882.23	-3.07
882.402	-56.32
882.574	15.36
882.746	37.89
882.918	-17.41
883.09	39.94
883.262	29.7
883.434	-58.37
883.606	1.02
883.778	15.36
883.95	158.72
884.122	5.12
884.293	-27.65
884.465	37.89
884.637	46.08
884.809	-9.22
884.98	17.41
885.152	23.55
885.324	17.41
885.496	39.94
885.667	23.55
885.839	11.26
886.011	105.47
886.182	-15.36
886.354	56.32
886.525	17.41
886.697	19.46
886.869	-95.23
887.04	21.5
887.212	60.42
887.383	46.08
887.555	62.46
887.726	64.51
887.897	9.22
888.069	37.89
888.24	11.26
888.412	84.99
888.583	3.07
888.754	-3.07
888.926	-25.6
889.097	23.55
889.268	-27.65
889.44	-19.46
889.611	-60.42
889.782	-68.61
889.953	-70.65
890.125	48.13
890.296	-48.13
890.467	-17.41
890.638	13.31
890.809	15.36
890.98	44.03
891.151	-7.17
891.323	33.79
891.494	-21.5
891.665	-5.12
891.836	50.18
892.007	54.27
892.178	-44.03
892.349	5.12
892.52	3.07
892.691	52.22
892.862	-11.26
893.032	3.07
893.203	-62.46
893.374	21.5
893.545	-1.02
893.716	-50.18
893.887	21.5
894.057	-19.46
894.228	-35.84
894.399	-9.22
894.57	35.84
894.74	-19.46
894.911	27.65
895.082	25.6
895.253	27.65
895.423	60.42
895.594	3.07
895.764	35.84
895.935	27.65
896.106	-23.55
896.276	-48.13
896.447	62.46
896.617	-31.74
896.788	-15.36
896.958	-19.46
897.129	-17.41
897.299	52.22
897.47	27.65
897.64	-5.12
897.81	41.98
897.981	80.89
898.151	37.89
898.322	-3.07
898.492	31.74
898.662	29.7
898.832	13.31
899.003	-21.5
899.173	-13.31
899.343	58.37
899.513	-39.94
