Data from USB4F104151__155__10-27-01-042.txt Node

Date: Wed Mar 12 10:27:01 EDT 2025
User: louis
Spectrometer: USB4F10415
Trigger mode: 4
Integration Time (sec): 3.000000E-2
Scans to average: 1
Electric dark correction enabled: true
Nonlinearity correction enabled: false
Boxcar width: 0
XAxis mode: Wavelengths
Number of Pixels in Spectrum: 3648
>>>>>Begin Spectral Data<<<<<
178.204	-96.94
178.424	-96.94
178.644	-96.94
178.864	-121.51
179.084	-70.31
179.304	-23.21
179.524	-2.73
179.744	-29.35
179.964	1.37
180.184	-10.92
180.404	58.71
180.624	91.48
180.844	1.37
181.064	-96.94
181.283	36.18
181.503	-35.5
181.723	9.56
181.943	-29.35
182.163	-31.4
182.383	30.04
182.602	48.47
182.822	34.13
183.042	81.24
183.262	-43.69
183.482	83.28
183.701	-6.83
183.921	15.7
184.141	-2.73
184.361	-0.68
184.58	58.71
184.8	34.13
185.02	32.08
185.239	27.99
185.459	81.24
185.679	-33.45
185.898	32.08
186.118	75.09
186.338	25.94
186.557	54.61
186.777	-62.12
186.997	1.37
187.216	7.51
187.436	66.9
187.655	60.76
187.875	56.66
188.095	52.56
188.314	79.19
188.534	42.32
188.753	7.51
188.973	-4.78
189.192	48.47
189.412	25.94
189.631	17.75
189.851	-17.07
190.07	99.67
190.29	-6.83
190.509	50.52
190.729	81.24
190.948	60.76
191.168	91.48
191.387	120.15
191.607	-6.83
191.826	79.19
192.045	62.8
192.265	27.99
192.484	17.75
192.704	54.61
192.923	-70.31
193.142	122.2
193.362	34.13
193.581	62.8
193.8	36.18
194.02	25.94
194.239	-2.73
194.458	34.13
194.678	23.89
194.897	34.13
195.116	-21.16
195.335	-6.83
195.555	13.65
195.774	-6.83
195.993	5.46
196.212	71
196.432	44.37
196.651	21.85
196.87	17.75
197.089	132.44
197.308	46.42
197.528	17.75
197.747	42.32
197.966	101.72
198.185	-33.45
198.404	21.85
198.623	21.85
198.842	64.85
199.062	71
199.281	48.47
199.5	7.51
199.719	62.8
199.938	46.42
200.157	17.75
200.376	3.41
200.595	79.19
200.814	85.33
201.033	21.85
201.252	54.61
201.471	34.13
201.69	62.8
201.909	56.66
202.128	21.85
202.347	66.9
202.566	-0.68
202.785	-27.31
203.004	1.37
203.223	64.85
203.442	56.66
203.661	-33.45
203.879	-45.74
204.098	5.46
204.317	-37.55
204.536	81.24
204.755	-23.21
204.974	-23.21
205.193	19.8
205.411	126.29
205.63	34.13
205.849	87.38
206.068	105.81
206.287	-19.11
206.505	62.8
206.724	46.42
206.943	40.28
207.162	23.89
207.381	50.52
207.599	11.61
207.818	46.42
208.037	60.76
208.255	25.94
208.474	85.33
208.693	15.7
208.911	-8.87
209.13	15.7
209.349	19.8
209.567	46.42
209.786	101.72
210.005	17.75
210.223	17.75
210.442	19.8
210.661	62.8
210.879	-10.92
211.098	13.65
211.316	46.42
211.535	42.32
211.753	-0.68
211.972	-10.92
212.191	46.42
212.409	19.8
212.628	60.76
212.846	32.08
213.065	64.85
213.283	58.71
213.502	62.8
213.72	99.67
213.938	9.56
214.157	122.2
214.375	25.94
214.594	-33.45
214.812	46.42
215.031	128.34
215.249	-17.07
215.467	40.28
215.686	-25.26
215.904	97.62
216.122	48.47
216.341	95.57
216.559	-0.68
216.778	87.38
216.996	71
217.214	-19.11
217.432	-0.68
217.651	-25.26
217.869	44.37
218.087	-6.83
218.306	9.56
218.524	58.71
218.742	-15.02
218.96	62.8
219.179	36.18
219.397	3.41
219.615	146.77
219.833	79.19
220.051	-15.02
220.27	103.76
220.488	30.04
220.706	50.52
220.924	56.66
221.142	87.38
221.36	62.8
221.578	19.8
221.796	7.51
222.015	27.99
222.233	-0.68
222.451	38.23
222.669	30.04
222.887	71
223.105	85.33
223.323	46.42
223.541	32.08
223.759	17.75
223.977	-12.97
224.195	32.08
224.413	75.09
224.631	36.18
224.849	27.99
225.067	99.67
225.285	71
225.503	77.14
225.721	30.04
225.939	93.52
226.157	50.52
226.375	56.66
226.592	-39.59
226.81	56.66
227.028	89.43
227.246	109.91
227.464	48.47
227.682	40.28
227.9	36.18
228.117	73.04
228.335	58.71
228.553	44.37
228.771	48.47
228.989	38.23
229.206	89.43
229.424	81.24
229.642	64.85
229.86	34.13
230.077	50.52
230.295	50.52
230.513	116.05
230.731	-8.87
230.948	64.85
231.166	71
231.384	1.37
231.601	-2.73
231.819	34.13
232.037	23.89
232.254	-21.16
232.472	111.96
232.689	-35.5
232.907	17.75
233.125	40.28
233.342	38.23
233.56	68.95
233.777	71
233.995	1.37
234.213	48.47
234.43	107.86
234.648	42.32
234.865	-4.78
235.083	17.75
235.3	38.23
235.518	13.65
235.735	111.96
235.953	11.61
236.17	46.42
236.388	5.46
236.605	13.65
236.822	132.44
237.04	-15.02
237.257	38.23
237.475	-43.69
237.692	25.94
237.909	7.51
238.127	36.18
238.344	64.85
238.562	64.85
238.779	38.23
238.996	7.51
239.214	32.08
239.431	44.37
239.648	95.57
239.865	36.18
240.083	73.04
240.3	-0.68
240.517	66.9
240.735	-45.74
240.952	64.85
241.169	13.65
241.386	-39.59
241.603	25.94
241.821	23.89
242.038	64.85
242.255	34.13
242.472	101.72
242.689	40.28
242.907	99.67
243.124	85.33
243.341	-12.97
243.558	52.56
243.775	1.37
243.992	-10.92
244.209	42.32
244.426	91.48
244.643	34.13
244.86	99.67
245.078	75.09
245.295	25.94
245.512	13.65
245.729	30.04
245.946	54.61
246.163	50.52
246.38	36.18
246.597	25.94
246.814	44.37
247.031	101.72
247.248	54.61
247.464	1.37
247.681	44.37
247.898	54.61
248.115	116.05
248.332	-58.03
248.549	83.28
248.766	62.8
248.983	27.99
249.2	58.71
249.417	107.86
249.633	-6.83
249.85	-10.92
250.067	11.61
250.284	32.08
250.501	3.41
250.717	58.71
250.934	32.08
251.151	34.13
251.368	-8.87
251.585	66.9
251.801	17.75
252.018	50.52
252.235	1.37
252.451	-19.11
252.668	17.75
252.885	99.67
253.102	83.28
253.318	58.71
253.535	-10.92
253.752	25.94
253.968	68.95
254.185	38.23
254.401	21.85
254.618	-17.07
254.835	66.9
255.051	30.04
255.268	13.65
255.484	85.33
255.701	-41.64
255.917	81.24
256.134	-6.83
256.351	21.85
256.567	30.04
256.784	54.61
257	34.13
257.217	62.8
257.433	3.41
257.65	81.24
257.866	66.9
258.082	17.75
258.299	42.32
258.515	25.94
258.732	58.71
258.948	-33.45
259.165	-10.92
259.381	50.52
259.597	124.24
259.814	42.32
260.03	17.75
260.246	19.8
260.463	-25.26
260.679	11.61
260.895	21.85
261.112	132.44
261.328	21.85
261.544	40.28
261.761	68.95
261.977	21.85
262.193	21.85
262.409	-2.73
262.626	46.42
262.842	83.28
263.058	54.61
263.274	95.57
263.49	66.9
263.707	34.13
263.923	64.85
264.139	30.04
264.355	58.71
264.571	95.57
264.787	64.85
265.004	101.72
265.22	-15.02
265.436	50.52
265.652	50.52
265.868	30.04
266.084	13.65
266.3	89.43
266.516	17.75
266.732	111.96
266.948	25.94
267.164	44.37
267.38	58.71
267.596	38.23
267.812	-0.68
268.028	81.24
268.244	-6.83
268.46	25.94
268.676	1.37
268.892	58.71
269.108	-39.59
269.324	25.94
269.54	-2.73
269.756	-0.68
269.972	62.8
270.188	77.14
270.403	21.85
270.619	34.13
270.835	13.65
271.051	50.52
271.267	40.28
271.483	36.18
271.698	11.61
271.914	87.38
272.13	-43.69
272.346	-19.11
272.562	42.32
272.777	50.52
272.993	50.52
273.209	-31.4
273.425	75.09
273.64	79.19
273.856	64.85
274.072	32.08
274.287	13.65
274.503	75.09
274.719	48.47
274.934	44.37
275.15	7.51
275.366	-23.21
275.581	34.13
275.797	5.46
276.012	-2.73
276.228	38.23
276.444	-12.97
276.659	68.95
276.875	5.46
277.09	91.48
277.306	11.61
277.521	146.77
277.737	9.56
277.952	25.94
278.168	-6.83
278.383	30.04
278.599	89.43
278.814	124.24
279.03	-15.02
279.245	103.76
279.461	95.57
279.676	73.04
279.892	-33.45
280.107	91.48
280.322	30.04
280.538	40.28
280.753	34.13
280.969	-43.69
281.184	15.7
281.399	68.95
281.615	52.56
281.83	17.75
282.045	-39.59
282.26	85.33
282.476	68.95
282.691	30.04
282.906	68.95
283.122	71
283.337	48.47
283.552	23.89
283.767	120.15
283.983	81.24
284.198	71
284.413	-27.31
284.628	-37.55
284.843	32.08
285.058	64.85
285.274	27.99
285.489	-25.26
285.704	99.67
285.919	15.7
286.134	25.94
286.349	38.23
286.564	1.37
286.779	19.8
286.995	-15.02
287.21	7.51
287.425	56.66
287.64	50.52
287.855	44.37
288.07	-58.03
288.285	34.13
288.5	152.92
288.715	-6.83
288.93	15.7
289.145	42.32
289.36	34.13
289.575	103.76
289.79	-8.87
290.004	54.61
290.219	58.71
290.434	42.32
290.649	7.51
290.864	52.56
291.079	-27.31
291.294	30.04
291.509	109.91
291.724	73.04
291.938	32.08
292.153	40.28
292.368	42.32
292.583	40.28
292.798	73.04
293.012	7.51
293.227	107.86
293.442	30.04
293.657	105.81
293.871	73.04
294.086	64.85
294.301	64.85
294.516	50.52
294.73	50.52
294.945	50.52
295.16	107.86
295.374	60.76
295.589	-19.11
295.804	-17.07
296.018	48.47
296.233	1.37
296.447	9.56
296.662	50.52
296.877	66.9
297.091	97.62
297.306	54.61
297.52	44.37
297.735	30.04
297.949	34.13
298.164	36.18
298.378	140.63
298.593	44.37
298.807	15.7
299.022	32.08
299.236	17.75
299.451	75.09
299.665	-25.26
299.88	38.23
300.094	32.08
300.309	95.57
300.523	79.19
300.737	-23.21
300.952	64.85
301.166	161.11
301.381	17.75
301.595	46.42
301.809	38.23
302.024	128.34
302.238	9.56
302.452	64.85
302.667	81.24
302.881	103.76
303.095	99.67
303.309	81.24
303.524	34.13
303.738	101.72
303.952	75.09
304.166	124.24
304.381	30.04
304.595	73.04
304.809	38.23
305.023	52.56
305.237	-0.68
305.452	25.94
305.666	52.56
305.88	9.56
306.094	38.23
306.308	9.56
306.522	79.19
306.736	-12.97
306.95	7.51
307.164	25.94
307.379	50.52
307.593	161.11
307.807	32.08
308.021	107.86
308.235	95.57
308.449	58.71
308.663	-4.78
308.877	81.24
309.091	36.18
309.305	44.37
309.519	25.94
309.733	21.85
309.947	25.94
310.161	40.28
310.374	44.37
310.588	142.68
310.802	27.99
311.016	46.42
311.23	95.57
311.444	81.24
311.658	66.9
311.872	91.48
312.085	34.13
312.299	116.05
312.513	91.48
312.727	50.52
312.941	-2.73
313.154	83.28
313.368	13.65
313.582	56.66
313.796	40.28
314.009	73.04
314.223	34.13
314.437	91.48
314.651	-15.02
314.864	25.94
315.078	71
315.292	56.66
315.505	-12.97
315.719	-8.87
315.933	-41.64
316.146	-4.78
316.36	87.38
316.573	71
316.787	34.13
317.001	120.15
317.214	52.56
317.428	40.28
317.641	-31.4
317.855	1.37
318.068	66.9
318.282	9.56
318.495	132.44
318.709	75.09
318.922	3.41
319.136	-4.78
319.349	17.75
319.563	71
319.776	64.85
319.99	68.95
320.203	140.63
320.417	38.23
320.63	50.52
320.843	91.48
321.057	107.86
321.27	-27.31
321.483	23.89
321.697	114
321.91	-39.59
322.124	19.8
322.337	-12.97
322.55	58.71
322.763	42.32
322.977	54.61
323.19	48.47
323.403	73.04
323.617	73.04
323.83	71
324.043	-33.45
324.256	58.71
324.469	-2.73
324.683	99.67
324.896	23.89
325.109	134.48
325.322	-21.16
325.535	71
325.748	75.09
325.962	19.8
326.175	5.46
326.388	66.9
326.601	140.63
326.814	73.04
327.027	62.8
327.24	95.57
327.453	48.47
327.666	9.56
327.879	75.09
328.092	44.37
328.305	87.38
328.518	-23.21
328.731	9.56
328.944	46.42
329.157	58.71
329.37	30.04
329.583	105.81
329.796	60.76
330.009	66.9
330.222	71
330.435	34.13
330.648	75.09
330.861	40.28
331.073	17.75
331.286	27.99
331.499	101.72
331.712	66.9
331.925	58.71
332.138	-12.97
332.35	77.14
332.563	58.71
332.776	40.28
332.989	-23.21
333.202	56.66
333.414	50.52
333.627	36.18
333.84	99.67
334.053	91.48
334.265	58.71
334.478	91.48
334.691	56.66
334.903	58.71
335.116	-8.87
335.329	23.89
335.541	36.18
335.754	81.24
335.966	-23.21
336.179	75.09
336.392	23.89
336.604	23.89
336.817	66.9
337.029	50.52
337.242	-35.5
337.454	48.47
337.667	32.08
337.88	105.81
338.092	62.8
338.305	9.56
338.517	97.62
338.729	21.85
338.942	46.42
339.154	27.99
339.367	27.99
339.579	46.42
339.792	52.56
340.004	19.8
340.217	19.8
340.429	-6.83
340.641	19.8
340.854	62.8
341.066	44.37
341.278	83.28
341.491	44.37
341.703	91.48
341.915	-6.83
342.128	85.33
342.34	58.71
342.552	56.66
342.764	116.05
342.977	54.61
343.189	105.81
343.401	64.85
343.613	-45.74
343.826	-21.16
344.038	17.75
344.25	-6.83
344.462	81.24
344.674	32.08
344.886	32.08
345.099	66.9
345.311	89.43
345.523	38.23
345.735	-0.68
345.947	75.09
346.159	32.08
346.371	-6.83
346.583	13.65
346.795	75.09
347.007	144.72
347.219	62.8
347.431	7.51
347.643	77.14
347.855	-27.31
348.067	25.94
348.279	-17.07
348.491	38.23
348.703	5.46
348.915	-29.35
349.127	66.9
349.339	30.04
349.551	75.09
349.763	62.8
349.975	73.04
350.187	128.34
350.399	68.95
350.61	81.24
350.822	38.23
351.034	99.67
351.246	77.14
351.458	77.14
351.669	58.71
351.881	111.96
352.093	75.09
352.305	32.08
352.517	52.56
352.728	97.62
352.94	56.66
353.152	54.61
353.363	19.8
353.575	66.9
353.787	58.71
353.999	7.51
354.21	128.34
354.422	32.08
354.633	21.85
354.845	56.66
355.057	34.13
355.268	62.8
355.48	116.05
355.692	-35.5
355.903	66.9
356.115	64.85
356.326	48.47
356.538	124.24
356.749	89.43
356.961	97.62
357.172	21.85
357.384	42.32
357.595	183.63
357.807	83.28
358.018	25.94
358.23	34.13
358.441	130.39
358.653	40.28
358.864	46.42
359.075	60.76
359.287	-8.87
359.498	30.04
359.709	111.96
359.921	79.19
360.132	11.61
360.344	44.37
360.555	38.23
360.766	114
360.977	48.47
361.189	66.9
361.4	-2.73
361.611	75.09
361.823	42.32
362.034	64.85
362.245	-0.68
362.456	40.28
362.667	73.04
362.879	30.04
363.09	54.61
363.301	89.43
363.512	79.19
363.723	-23.21
363.935	-4.78
364.146	183.63
364.357	38.23
364.568	122.2
364.779	73.04
364.99	81.24
365.201	40.28
365.412	75.09
365.623	87.38
365.834	50.52
366.045	34.13
366.256	81.24
366.467	95.57
366.678	77.14
366.889	87.38
367.1	21.85
367.311	118.1
367.522	79.19
367.733	105.81
367.944	85.33
368.155	75.09
368.366	52.56
368.577	73.04
368.788	54.61
368.999	25.94
369.209	38.23
369.42	118.1
369.631	120.15
369.842	77.14
370.053	109.91
370.264	48.47
370.474	34.13
370.685	66.9
370.896	81.24
371.107	56.66
371.317	132.44
371.528	71
371.739	64.85
371.95	66.9
372.16	128.34
372.371	36.18
372.582	66.9
372.792	101.72
373.003	103.76
373.214	23.89
373.424	77.14
373.635	44.37
373.846	27.99
374.056	-19.11
374.267	-2.73
374.477	54.61
374.688	99.67
374.898	-33.45
375.109	23.89
375.319	81.24
375.53	-23.21
375.74	25.94
375.951	107.86
376.161	42.32
376.372	79.19
376.582	40.28
376.793	-12.97
377.003	17.75
377.214	87.38
377.424	66.9
377.635	58.71
377.845	58.71
378.055	44.37
378.266	34.13
378.476	161.11
378.686	36.18
378.897	46.42
379.107	-8.87
379.317	-10.92
379.528	105.81
379.738	58.71
379.948	-2.73
380.158	54.61
380.369	103.76
380.579	64.85
380.789	-23.21
380.999	107.86
381.21	116.05
381.42	25.94
381.63	42.32
381.84	66.9
382.05	120.15
382.261	11.61
382.471	40.28
382.681	30.04
382.891	114
383.101	46.42
383.311	-37.55
383.521	46.42
383.731	114
383.941	9.56
384.151	87.38
384.361	71
384.571	-10.92
384.781	46.42
384.991	132.44
385.201	171.35
385.411	89.43
385.621	44.37
385.831	54.61
386.041	103.76
386.251	77.14
386.461	25.94
386.671	54.61
386.881	75.09
387.091	109.91
387.301	85.33
387.511	134.48
387.72	105.81
387.93	38.23
388.14	-6.83
388.35	56.66
388.56	64.85
388.769	134.48
388.979	13.65
389.189	89.43
389.399	95.57
389.609	181.59
389.818	85.33
390.028	73.04
390.238	42.32
390.447	93.52
390.657	97.62
390.867	32.08
391.076	34.13
391.286	64.85
391.496	91.48
391.705	62.8
391.915	116.05
392.125	105.81
392.334	71
392.544	89.43
392.753	44.37
392.963	34.13
393.172	36.18
393.382	11.61
393.591	85.33
393.801	56.66
394.01	81.24
394.22	185.68
394.429	105.81
394.639	73.04
394.848	75.09
395.058	105.81
395.267	111.96
395.477	58.71
395.686	87.38
395.895	124.24
396.105	124.24
396.314	50.52
396.524	122.2
396.733	83.28
396.942	140.63
397.152	109.91
397.361	99.67
397.57	140.63
397.78	56.66
397.989	83.28
398.198	114
398.407	130.39
398.617	136.53
398.826	105.81
399.035	107.86
399.244	71
399.453	146.77
399.663	140.63
399.872	91.48
400.081	73.04
400.29	109.91
400.499	50.52
400.708	179.54
400.917	150.87
401.127	189.78
401.336	46.42
401.545	214.35
401.754	175.44
401.963	154.96
402.172	126.29
402.381	87.38
402.59	157.01
402.799	107.86
403.008	185.68
403.217	140.63
403.426	202.07
403.635	161.11
403.844	120.15
404.053	163.15
404.262	157.01
404.471	228.69
404.68	138.58
404.888	105.81
405.097	157.01
405.306	210.26
405.515	118.1
405.724	232.79
405.933	247.12
406.142	200.02
406.35	165.2
406.559	167.25
406.768	210.26
406.977	214.35
407.185	251.22
407.394	236.88
407.603	283.99
407.812	197.97
408.02	216.4
408.229	283.99
408.438	275.79
408.646	288.08
408.855	193.87
409.064	251.22
409.272	306.51
409.481	267.6
409.69	283.99
409.898	413.01
410.107	345.42
410.315	382.29
410.524	308.56
410.733	419.15
410.941	386.38
411.15	406.86
411.358	406.86
411.567	472.4
411.775	480.59
411.984	451.92
412.192	349.52
412.401	431.44
412.609	554.32
412.818	562.51
413.026	566.6
413.234	562.51
413.443	513.36
413.651	529.74
413.86	554.32
414.068	679.24
414.276	556.36
414.485	722.25
414.693	716.11
414.901	781.64
415.11	793.93
415.318	654.67
415.526	838.98
415.734	789.83
415.943	818.5
416.151	912.71
416.359	898.38
416.567	961.86
416.776	896.33
416.984	986.44
417.192	1051.97
417.4	1031.49
417.608	1107.27
417.817	1115.46
418.025	1150.28
418.233	1267.01
418.441	1224
418.649	1242.43
418.857	1314.11
419.065	1496.38
419.273	1398.08
419.481	1414.46
419.689	1508.67
419.897	1617.21
420.105	1615.16
420.313	1594.69
420.521	1727.8
420.729	1635.64
420.937	1787.19
421.145	1865.02
421.353	1934.65
421.561	2063.67
421.769	2026.81
421.977	2270.51
422.185	2065.72
422.393	2311.47
422.601	2495.79
422.809	2491.7
423.017	2458.93
423.224	2573.61
423.432	2690.35
423.64	2598.19
423.848	2835.75
424.056	2854.19
424.263	3081.51
424.471	2989.35
424.679	3065.13
424.887	3231.01
425.094	3376.42
425.302	3417.38
425.51	3511.58
425.718	3593.5
425.925	3642.65
426.133	3872.03
426.341	3851.55
426.548	4130.07
426.756	4171.03
426.964	4232.47
427.171	4586.77
427.379	4723.98
427.586	4726.03
427.794	4891.91
428.001	4963.59
428.209	5303.56
428.417	5326.08
428.624	5598.46
428.832	5440.77
429.039	5549.31
429.247	5588.22
429.454	6223.09
429.662	6675.7
429.869	5958.91
430.076	6434.04
430.284	6175.99
430.491	6520.05
430.699	7070.95
430.906	6804.72
431.114	7001.32
431.321	7236.84
431.528	7394.53
431.736	7838.94
431.943	8162.52
432.15	7853.28
432.358	8084.7
432.565	8473.81
432.772	8328.41
432.979	8752.34
433.187	9161.93
433.394	9229.51
433.601	9663.68
433.808	9747.65
434.016	9737.41
434.223	10161.34
434.43	10708.15
434.637	10546.36
434.844	10982.57
435.052	11297.96
435.259	11254.95
435.466	11355.3
435.673	11343.02
435.88	11910.3
436.087	12623
436.294	12520.6
436.501	12352.66
436.708	12588.18
436.915	12944.53
437.122	13552.77
437.329	13550.73
437.537	14029.95
437.743	14193.79
437.95	13730.95
438.157	14902.39
438.364	15279.21
438.571	15357.03
438.778	15516.78
438.985	16763.99
439.192	15922.27
439.399	16499.8
439.606	16346.2
439.813	17323.08
440.02	18474.04
440.227	17855.56
440.433	17798.21
440.64	18117.7
440.847	18013.25
441.054	18562.11
441.261	19872.81
441.467	19467.31
441.674	20081.7
441.881	20669.47
442.088	20689.95
442.294	20403.23
442.501	21056.53
442.708	21404.69
442.914	22461.44
443.121	23309.3
443.328	22719.48
443.534	23970.79
443.741	23198.71
443.948	23262.19
444.154	24824.79
444.361	25011.16
444.568	24701.92
444.774	24663
444.981	25082.84
445.187	25658.32
445.394	26657.73
445.6	26602.43
445.807	29238.17
446.013	27894.7
446.22	28267.43
446.426	29213.59
446.633	29492.12
446.839	30210.95
447.046	29174.68
447.252	30557.06
447.459	30995.32
447.665	30819.2
447.871	31853.42
448.078	33250.14
448.284	31976.3
448.491	32637.8
448.697	33672.02
448.903	34388.81
449.11	34390.86
449.316	33633.11
449.522	34511.69
449.728	35582.77
449.935	35769.14
450.141	35722.04
450.347	36385.58
450.553	35005.25
450.76	35617.59
450.966	36528.94
451.172	36244.27
451.378	36997.92
451.584	36487.98
451.791	36858.66
451.997	37165.85
452.203	37559.06
452.409	37169.95
452.615	37550.87
452.821	36059.95
453.027	35834.67
453.233	37194.53
453.44	35763
453.646	36664.1
453.852	36719.4
454.058	36967.2
454.264	35760.95
454.47	36573.99
454.676	35658.55
454.882	36889.38
455.088	33801.04
455.294	33885.01
455.5	34458.44
455.705	35326.78
455.911	33407.83
456.117	32994.14
456.323	32338.79
456.529	30526.34
456.735	32000.88
456.941	31193.98
457.147	30645.12
457.352	29643.66
457.558	29172.63
457.764	29580.18
457.97	29096.86
458.176	28158.89
458.381	28060.59
458.587	26864.57
458.793	26915.77
458.999	25721.8
459.204	27171.77
459.41	26244.04
459.616	24800.22
459.821	24845.27
460.027	24804.31
460.233	24105.96
460.438	22805.5
460.644	22864.89
460.85	22078.47
461.055	21707.79
461.261	21853.19
461.466	20188.19
461.672	19717.16
461.878	20823.06
462.083	19737.64
462.289	18986.04
462.494	19223.6
462.7	18306.11
462.905	17824.84
463.111	18175.04
463.316	18515
463.522	18023.49
463.727	17943.62
463.932	17773.64
464.138	17566.79
464.343	17941.57
464.549	17353.8
464.754	18220.1
464.959	17976.39
465.165	17495.11
465.37	16936.02
465.575	16467.03
465.781	17220.69
465.986	17267.79
466.191	16890.96
466.397	16299.1
466.602	15723.62
466.807	15971.43
467.012	16305.24
467.218	15828.07
467.423	15772.77
467.628	16125.02
467.833	16639.06
468.038	15832.16
468.244	15582.31
468.449	16249.95
468.654	15336.56
468.859	15416.43
469.064	15309.93
469.269	14996.59
469.474	14595.19
469.679	15279.21
469.885	14795.89
470.09	15096.94
470.295	14797.94
470.5	14464.12
470.705	14716.02
470.91	14075.01
471.115	14328.95
471.32	14197.88
471.525	14113.92
471.73	13886.59
471.935	13767.81
472.139	13223.05
472.344	13583.49
472.549	13450.38
472.754	13384.84
472.959	13083.79
473.164	12620.95
473.369	12549.27
473.574	13036.69
473.778	12739.73
473.983	12946.58
474.188	12618.9
474.393	12127.39
474.598	12229.79
474.802	12211.35
475.007	11914.4
475.212	12309.66
475.417	11658.4
475.621	11803.81
475.826	11781.28
476.031	11261.1
476.235	11310.25
476.44	11482.28
476.645	10941.61
476.849	11297.96
477.054	11089.07
477.259	10968.24
477.463	10788.02
477.668	10757.3
477.872	10765.49
478.077	10237.11
478.282	10392.76
478.486	10376.38
478.691	10222.78
478.895	10118.33
479.1	10233.02
479.304	10089.66
479.509	9741.5
479.713	9997.5
479.918	9751.74
480.122	9555.14
480.326	9807.04
480.531	9549
480.735	9692.35
480.94	9702.59
481.144	9944.25
481.348	9620.67
481.553	9538.76
481.757	9516.23
481.961	9587.91
482.166	9661.63
482.37	9407.69
482.574	9346.25
482.778	9317.58
482.983	9581.76
483.187	9651.39
483.391	9475.27
483.595	9270.47
483.8	9428.17
484.004	9080.01
484.208	9551.04
484.412	9243.85
484.616	9381.06
484.821	9479.36
485.025	9278.66
485.229	9567.43
485.433	9374.92
485.637	9462.98
485.841	9393.35
486.045	9329.86
486.249	9426.12
486.453	9260.23
486.657	9409.73
486.861	9372.87
487.065	9303.24
487.269	9362.63
487.473	9178.31
487.677	9432.26
487.881	9592
488.085	9616.58
488.289	9565.38
488.493	9149.64
488.697	9712.83
488.901	9401.54
489.105	9399.49
489.309	9473.22
489.512	9688.26
489.716	9510.08
489.92	9557.19
490.124	9575.62
490.328	9960.64
490.531	9669.83
490.735	9673.92
490.939	9925.82
491.143	9729.22
491.346	9845.95
491.55	9903.29
491.754	9811.14
491.958	9966.78
492.161	9893.05
492.365	10060.99
492.569	9905.34
492.772	9940.16
492.976	10036.41
493.18	10181.82
493.383	10310.84
493.587	10253.5
493.79	10566.84
493.994	10359.99
494.197	10448.05
494.401	10534.07
494.605	10484.92
494.808	10863.79
495.012	10783.92
495.215	10765.49
495.419	10898.61
495.622	10994.86
495.825	10966.19
496.029	11060.4
496.232	11232.43
496.436	11465.89
496.639	11730.08
496.843	11314.34
497.046	11654.31
497.249	11852.96
497.453	11723.94
497.656	11990.17
497.859	12147.87
498.063	12076.19
498.266	12223.64
498.469	12293.27
498.673	12512.41
498.876	12694.68
499.079	12909.71
499.282	12639.38
499.485	13364.36
499.689	13038.73
499.892	13372.55
500.095	13560.97
500.298	13802.63
500.501	13522.06
500.705	13925.5
500.908	14257.28
501.111	14449.78
501.314	14439.55
501.517	14505.08
501.72	14865.52
501.923	14451.83
502.126	15182.96
502.329	15250.54
502.532	15789.16
502.735	15445.1
502.938	15672.42
503.141	15809.64
503.344	16092.26
503.547	16100.45
503.75	16360.54
503.953	16872.53
504.156	16974.93
504.359	16884.82
504.562	16938.07
504.765	17441.87
504.968	17613.9
505.17	17617.99
505.373	17736.77
505.576	17894.47
505.779	18146.37
505.982	18271.29
506.185	18875.45
506.387	18797.62
506.59	19070
506.793	19375.15
506.996	19440.68
507.198	19708.97
507.401	19524.65
507.604	20093.99
507.807	20436
508.009	20294.69
508.212	20472.86
508.415	20866.07
508.617	21165.07
508.82	21328.91
509.022	21031.96
509.225	21761.03
509.428	22023.17
509.63	21904.39
509.833	22098.95
510.035	22504.45
510.238	22543.36
510.44	22707.19
510.643	23174.13
510.845	23360.5
511.048	23024.63
511.25	23849.96
511.453	23997.42
511.655	24595.42
511.858	24312.8
512.06	24992.73
512.262	24732.64
512.465	24628.19
512.667	25248.72
512.87	25598.93
513.072	25836.49
513.274	26186.69
513.477	26737.6
513.679	26762.17
513.881	26684.35
514.084	27319.22
514.286	27460.53
514.488	27614.13
514.69	27947.95
514.893	28361.64
515.095	28429.22
515.297	28797.85
515.499	28797.85
515.701	28969.88
515.904	29348.76
516.106	29592.47
516.308	30116.75
516.51	30372.74
516.712	30446.47
516.914	30798.72
517.116	31017.85
517.318	31470.45
517.52	31419.25
517.722	31712.11
517.925	32213.87
518.127	32340.84
518.329	32312.17
518.531	32449.38
518.733	33071.96
518.935	33248.09
519.136	33608.53
519.338	33784.66
519.54	34171.72
519.742	34468.68
519.944	34747.2
520.146	35099.45
520.348	35386.17
520.55	35558.2
520.752	35515.19
520.954	36207.4
521.155	36105.01
521.357	36707.11
521.559	36559.66
521.761	37161.76
521.963	37055.26
522.164	37647.13
522.366	37571.35
522.568	37997.33
522.77	38394.64
522.971	38912.77
523.173	38494.99
523.375	39197.44
523.576	38988.55
523.778	39389.95
523.98	39701.24
524.181	39662.33
524.383	39707.38
524.584	40561.39
524.786	40221.42
524.988	40293.1
525.189	41007.84
525.391	41036.52
525.592	41265.89
525.794	41491.16
525.995	41564.89
526.197	41683.67
526.398	41702.1
526.6	42050.26
526.801	42316.5
527.003	42189.52
527.204	42502.86
527.406	42672.84
527.607	42945.22
527.808	43229.89
528.01	42603.21
528.211	42775.24
528.412	43522.75
528.614	43537.08
528.815	43383.49
529.016	43936.44
529.218	43633.34
529.419	43725.5
529.62	44204.72
529.822	44460.72
530.023	44296.88
530.224	43780.79
530.425	43868.86
530.626	44329.65
530.828	43963.06
531.029	45003.43
531.23	44430
531.431	44444.34
531.632	44679.85
531.833	45136.55
532.035	44829.35
532.236	44862.12
532.437	44999.33
532.638	44675.76
532.839	45331.11
533.04	45001.38
533.241	44909.22
533.442	45783.71
533.643	45558.43
533.844	45345.44
534.045	45607.58
534.246	45318.82
534.447	45499.04
534.648	45474.46
534.849	45464.22
535.05	45275.81
535.251	45437.6
535.451	45800.09
535.652	46021.27
535.853	45865.63
536.054	45765.27
536.255	45697.69
536.456	45181.6
536.657	46187.16
536.857	45304.48
537.058	45447.84
537.259	45718.17
537.46	45742.75
537.66	45789.85
537.861	45697.69
538.062	45712.03
538.263	45525.66
538.463	45648.54
538.664	45482.66
538.865	45429.41
539.065	45605.53
539.266	45388.45
539.466	45982.36
539.667	45419.17
539.868	45922.97
540.068	45683.36
540.269	45537.95
540.469	45658.78
540.67	45644.44
540.87	45468.32
541.071	45673.12
541.271	45847.19
541.472	45740.7
541.672	45763.23
541.873	45583.01
542.073	45144.74
542.274	45984.41
542.474	45208.23
542.675	45324.96
542.875	45951.64
543.075	45193.89
543.276	45468.32
543.476	45689.5
543.676	45243.04
543.877	45572.77
544.077	45570.72
544.277	45474.46
544.478	45558.43
544.678	45888.15
544.878	45144.74
545.078	45372.07
545.279	45359.78
545.479	45105.83
545.679	45404.83
545.879	45068.97
546.079	45206.18
546.28	45429.41
546.48	45249.19
546.68	45333.15
546.88	44999.33
547.08	45114.02
547.28	45333.15
547.48	44722.86
547.68	45230.76
547.88	44827.31
548.081	45456.03
548.281	45001.38
548.481	45238.95
548.681	45587.1
548.881	45159.08
549.081	45075.11
549.28	44577.45
549.48	45220.52
549.68	44919.46
549.88	45628.06
550.08	45107.88
550.28	45480.61
550.48	45208.23
550.68	45357.73
550.88	44886.7
551.08	44804.78
551.279	44993.19
551.479	44972.71
551.679	44890.79
551.879	44845.74
552.079	45017.77
552.278	44880.55
552.478	44823.21
552.678	45265.57
552.878	44817.07
553.077	44931.75
553.277	44346.03
553.477	45277.86
553.676	44855.98
553.876	44870.31
554.076	44581.55
554.275	44452.53
554.475	43956.92
554.674	44530.35
554.874	44821.16
555.074	44731.05
555.273	44794.54
555.473	44731.05
555.672	44118.71
555.872	44339.89
556.071	44573.36
556.271	44731.05
556.47	43485.89
556.67	43932.34
556.869	44169.91
557.068	44399.28
557.268	43745.98
557.467	44100.28
557.667	44030.65
557.866	43860.66
558.065	43895.48
558.265	43815.61
558.464	43655.87
558.663	44131
558.863	43141.83
559.062	43772.6
559.261	43565.76
559.461	43649.72
559.66	43115.2
559.859	43317.95
560.058	43088.58
560.258	43633.34
560.457	42822.34
560.656	43403.97
560.855	42674.89
561.054	43080.39
561.253	42607.31
561.453	43023.04
561.652	43027.14
561.851	43121.35
562.05	42298.06
562.249	42347.22
562.448	42787.53
562.647	42529.48
562.846	42511.05
563.045	42388.17
563.244	42109.65
563.443	42662.6
563.642	41646.81
563.841	42216.15
564.04	41667.29
564.239	42721.99
564.438	41503.45
564.637	42220.24
564.836	41523.93
565.035	41405.15
565.234	41218.78
565.432	41433.82
565.631	41235.17
565.83	41544.41
566.029	41024.23
566.228	40942.31
566.427	40858.34
566.625	40510.19
566.824	40565.48
567.023	40932.07
567.222	40237.81
567.42	41159.39
567.619	40420.08
567.818	40182.51
568.016	40184.56
568.215	40151.79
568.414	40006.39
568.612	40612.59
568.811	39549.69
569.01	40096.5
569.208	39314.17
569.407	39754.49
569.605	39578.36
569.804	39910.13
570.002	39037.7
570.201	39824.12
570.4	38894.34
570.598	38728.45
570.797	38679.3
570.995	39451.39
571.193	38603.53
571.392	39240.45
571.59	38775.56
571.789	38787.85
571.987	38581
572.186	38398.73
572.384	38316.81
572.582	38337.29
572.781	38587.14
572.979	37958.42
573.177	38001.43
573.376	37837.59
573.574	37493.53
573.772	37868.31
573.971	37403.42
574.169	37665.56
574.367	37286.68
574.565	37583.64
574.763	37165.85
574.962	37042.98
575.16	36971.3
575.358	37006.11
575.556	36614.95
575.754	37182.24
575.952	36307.76
576.151	36819.75
576.349	36031.28
576.547	36467.5
576.745	36084.53
576.943	36440.87
577.141	36068.14
577.339	36498.22
577.537	35781.43
577.735	35892.02
577.933	35326.78
578.131	36059.95
578.329	35130.17
578.527	35527.48
578.725	35435.32
578.923	35670.84
579.121	35638.07
579.319	35189.56
579.516	35369.79
579.714	35236.67
579.912	34751.3
580.11	34560.84
580.308	34745.16
580.506	34732.87
580.704	34323.27
580.901	34992.96
581.099	34589.51
581.297	34290.51
581.495	34036.56
581.692	34079.57
581.89	33688.4
582.088	34423.62
582.285	33862.48
582.483	33715.03
582.681	33817.43
582.878	33825.62
583.076	33133.4
583.274	33973.07
583.471	33157.98
583.669	33149.79
583.866	33076.06
584.064	33276.76
584.262	32729.95
584.459	33284.95
584.657	32977.76
584.854	33194.84
585.052	32535.4
585.249	32600.93
585.447	32752.48
585.644	31990.64
585.841	31753.07
586.039	32375.66
586.236	31898.48
586.434	32103.28
586.631	31832.94
586.828	31945.58
587.026	32389.99
587.223	31888.24
587.42	31574.9
587.618	31800.18
587.815	31386.49
588.012	31388.53
588.21	31320.95
588.407	31323
588.604	31130.49
588.801	31069.05
588.999	31304.57
589.196	30866.3
589.393	30966.65
589.59	31028.09
589.787	30690.18
589.984	30583.68
590.182	30491.52
590.379	30884.73
590.576	30231.43
590.773	30362.5
590.97	30051.21
591.167	30032.78
591.364	29965.2
591.561	30063.5
591.758	29625.23
591.955	29907.85
592.152	29838.22
592.349	29791.12
592.546	29619.09
592.743	29559.7
592.94	29166.49
593.137	29617.04
593.334	29457.3
593.531	28853.15
593.727	29025.18
593.924	29131.67
594.121	28658.59
594.318	28996.51
594.515	28572.58
594.712	28916.64
594.908	28564.39
595.105	28849.05
595.302	28271.53
595.499	28568.48
595.696	28109.74
595.892	28400.55
596.089	28292.01
596.286	28199.85
596.482	27861.93
596.679	27728.81
596.876	27790.25
597.072	27706.29
597.269	27624.37
597.466	27259.83
597.662	27343.8
597.859	27323.32
598.055	27499.44
598.252	27040.7
598.448	26923.96
598.645	26903.48
598.841	26708.93
599.038	27061.18
599.234	27229.11
599.431	26817.47
599.627	26629.06
599.824	27108.28
600.02	26598.34
600.217	26600.38
600.413	26313.67
600.609	26356.68
600.806	26008.52
601.002	26346.44
601.198	26309.57
601.395	25787.34
601.591	25609.17
601.787	25752.52
601.984	25707.47
602.18	26174.41
602.376	25457.62
602.572	25500.62
602.769	25488.34
602.965	25232.34
603.161	25299.92
603.357	25420.75
603.553	24974.3
603.75	25240.53
603.946	24949.72
604.142	25017.3
604.338	24777.69
604.534	24763.36
604.73	24765.4
604.926	24579.04
605.122	24609.76
605.318	24378.34
605.514	24460.26
605.71	24128.49
605.906	24304.61
606.102	24382.43
606.298	24191.97
606.494	24048.61
606.69	23919.59
606.886	24062.95
607.082	23817.19
607.278	24259.56
607.474	23540.72
607.67	23759.85
607.866	23358.45
608.062	23702.51
608.257	23770.09
608.453	23763.95
608.649	23641.07
608.845	23518.19
609.041	23237.62
609.236	23626.73
609.432	23440.37
609.628	23219.19
609.824	23127.03
610.019	22946.81
610.215	23092.21
610.411	23219.19
610.606	22660.09
610.802	22672.38
610.998	23145.46
611.193	22971.38
611.389	22692.86
611.584	22598.65
611.78	22469.63
611.976	22283.27
612.171	22412.29
612.367	22397.95
612.562	22285.31
612.758	22408.19
612.953	22287.36
613.149	22592.51
613.344	22098.95
613.539	22352.9
613.735	22193.15
613.93	22291.46
614.126	21890.06
614.321	22084.61
614.517	21990.41
614.712	21791.75
614.907	22002.69
615.103	21877.77
615.298	21752.84
615.493	21914.63
615.688	21615.63
615.884	22234.11
616.079	21533.71
616.274	21724.17
616.47	21715.98
616.665	21640.2
616.86	21623.82
617.055	21398.54
617.25	21226.51
617.445	21363.73
617.641	20950.04
617.836	21308.43
618.031	20706.33
618.226	21097.49
618.421	20794.39
618.616	20947.99
618.811	20859.93
619.006	20915.22
619.201	20694.04
619.396	20640.79
619.591	20388.89
619.786	20679.71
619.981	20196.39
620.176	20329.5
620.371	19969.06
620.566	20192.29
620.761	20073.51
620.956	20243.49
621.151	19725.35
621.346	19825.7
621.541	19495.98
621.735	19758.12
621.93	19348.53
622.125	19371.05
622.32	19383.34
622.515	19108.91
622.709	19022.9
622.904	19125.3
623.099	18873.4
623.294	19110.96
623.488	18672.7
623.683	18578.49
623.878	18433.08
624.072	18494.52
624.267	18510.91
624.462	18330.69
624.656	18091.07
624.851	18076.74
625.046	17830.98
625.24	17845.32
625.435	17910.85
625.629	17816.65
625.824	17663.05
626.018	17724.49
626.213	17355.85
626.407	17286.22
626.602	17140.82
626.796	17312.85
626.991	17194.06
627.185	17081.42
627.38	16903.25
627.574	16905.3
627.768	16690.26
627.963	16804.95
628.157	16374.88
628.352	16495.71
628.546	16606.3
628.74	16430.17
628.935	16233.57
629.129	16409.69
629.323	15746.15
629.517	16036.96
629.712	15766.63
629.906	15631.46
630.1	15543.4
630.294	15555.69
630.489	15494.25
630.683	15508.58
630.877	15219.82
631.071	15176.81
631.265	15178.86
631.459	15000.69
631.653	15043.7
631.848	14867.57
632.042	14920.82
632.236	14918.77
632.43	14746.74
632.624	14707.83
632.818	14466.17
633.012	14472.31
633.206	14535.8
633.4	14156.93
633.594	14187.64
633.788	14238.84
633.982	14036.1
634.176	14032
634.369	13812.87
634.563	13782.15
634.757	13810.82
634.951	13919.36
635.145	13741.19
635.339	13765.76
635.533	13655.17
635.726	13466.76
635.92	13235.34
636.114	13276.3
636.308	13358.22
636.501	13261.96
636.695	13157.52
636.889	12967.06
637.083	13192.33
637.276	13010.06
637.47	12842.13
637.664	12719.25
637.857	12614.8
638.051	12573.85
638.244	12352.66
638.438	12547.22
638.632	12194.97
638.825	12387.48
639.019	12258.46
639.212	12203.16
639.406	12072.09
639.599	12139.68
639.793	11934.88
639.986	11846.82
640.18	11953.31
640.373	11965.6
640.567	11703.46
640.76	12041.37
640.954	11455.65
641.147	11453.61
641.34	11599.01
641.534	11480.23
641.727	11455.65
641.92	11095.21
642.114	11175.08
642.307	11064.49
642.5	11154.6
642.694	10914.99
642.887	10974.38
643.08	11119.79
643.273	10745.01
643.467	10749.11
643.66	10718.39
643.853	10892.46
644.046	10265.78
644.239	10548.4
644.432	10566.84
644.626	10200.25
644.819	10384.57
645.012	10198.2
645.205	10384.57
645.398	10069.18
645.591	10247.35
645.784	10304.7
645.977	9872.57
646.17	9753.79
646.363	10001.6
646.556	9753.79
646.749	9868.48
646.942	9972.93
647.135	9768.13
647.328	9725.12
647.521	9743.55
647.714	9458.89
647.907	9495.75
648.099	9272.52
648.292	9462.98
648.485	9364.68
648.678	9092.3
648.871	9293
649.064	9282.76
649.256	9297.1
649.449	9057.48
649.642	8971.47
649.835	8998.09
650.027	8985.8
650.22	8885.45
650.413	8840.4
650.605	8815.82
650.798	8858.83
650.991	8715.47
651.183	8766.67
651.376	8529.11
651.568	8543.44
651.761	8514.77
651.954	8570.07
652.146	8594.64
652.339	8584.4
652.531	8332.5
652.724	8217.82
652.916	8264.92
653.109	8215.77
653.301	8101.08
653.494	8133.85
653.686	7957.72
653.879	8076.51
654.071	7890.14
654.263	8041.69
654.456	7957.72
654.648	7849.18
654.84	7668.96
655.033	7812.32
655.225	7685.34
655.417	7759.07
655.61	7705.82
655.802	7574.75
655.994	7587.04
656.186	7460.07
656.379	7509.22
656.571	7365.86
656.763	7396.58
656.955	7339.24
657.148	7292.13
657.34	7177.45
657.532	7228.65
657.724	7146.73
657.916	7042.28
658.108	7138.54
658.3	7095.53
658.492	7095.53
658.684	7013.61
658.876	6964.46
659.068	6925.55
659.26	6710.51
659.452	6814.96
659.644	6673.65
659.836	6513.91
660.028	6677.74
660.22	6712.56
660.412	6704.37
660.604	6548.72
660.796	6575.35
660.988	6722.8
661.18	6393.08
661.372	6567.15
661.563	6614.26
661.755	6378.74
661.947	6202.61
662.139	6167.8
662.331	6229.24
662.522	6206.71
662.714	6300.92
662.906	6128.89
663.097	6161.66
663.289	6155.51
663.481	6042.87
663.673	6063.35
663.864	5915.9
664.056	5901.56
664.247	5979.39
664.439	5870.84
664.631	5827.84
664.822	5922.04
665.014	5666.05
665.205	5852.41
665.397	5919.99
665.588	5756.16
665.78	5668.09
665.971	5633.28
666.163	5543.17
666.354	5709.05
666.546	5637.38
666.737	5516.55
666.929	5379.33
667.12	5475.59
667.311	5479.68
667.503	5451.01
667.694	5412.1
667.885	5414.15
668.077	5346.56
668.268	5289.22
668.459	5240.07
668.651	5405.95
668.842	5113.1
669.033	5018.89
669.224	5178.63
669.416	5248.26
669.607	5086.47
669.798	5043.46
669.989	5221.64
670.18	4990.22
670.371	4957.45
670.563	5137.67
670.754	5104.9
670.945	4957.45
671.136	4982.03
671.327	4939.02
671.518	4900.11
671.709	4789.52
671.9	4836.62
672.091	4924.68
672.282	4857.1
672.473	4781.32
672.664	4850.96
672.855	4771.08
673.046	4707.6
673.237	4703.5
673.428	4676.88
673.619	4728.08
673.809	4726.03
674	4701.45
674.191	4578.58
674.382	4556.05
674.573	4662.54
674.764	4476.18
674.954	4556.05
675.145	4556.05
675.336	4603.15
675.527	4357.39
675.717	4332.82
675.908	4447.51
676.099	4381.97
676.289	4474.13
676.48	4443.41
676.671	4316.44
676.861	4431.12
677.052	4246.8
677.243	4316.44
677.433	4386.07
677.624	4363.54
677.814	4160.79
678.005	4240.66
678.195	4224.28
678.386	4189.46
678.576	4244.76
678.767	4257.04
678.957	4224.28
679.148	4326.68
679.338	4136.21
679.529	4138.26
679.719	3882.27
679.909	4277.52
680.1	3921.18
680.29	4099.35
680.481	4048.15
680.671	4003.1
680.861	4009.24
681.052	4111.64
681.242	3884.31
681.432	4064.54
681.622	3878.17
681.813	3994.9
682.003	3888.41
682.193	3867.93
682.383	3829.02
682.573	3949.85
682.764	3853.59
682.954	3794.2
683.144	3994.9
683.334	3894.55
683.524	3849.5
683.714	3804.44
683.904	3917.08
684.094	3851.55
684.284	3861.79
684.474	3757.34
684.664	3738.91
684.854	3712.28
685.044	3654.94
685.234	3609.89
685.424	3628.32
685.614	3691.81
685.804	3626.27
685.994	3552.54
686.184	3630.37
686.374	3663.13
686.564	3695.9
686.753	3630.37
686.943	3470.62
687.133	3566.88
687.323	3566.88
687.513	3460.38
687.702	3513.63
687.892	3454.24
688.082	3435.81
688.272	3509.54
688.461	3446.05
688.651	3487.01
688.841	3446.05
689.03	3398.95
689.22	3347.75
689.41	3403.04
689.599	3474.72
689.789	3257.64
689.979	3409.19
690.168	3355.94
690.358	3341.6
690.547	3294.5
690.737	3202.34
690.926	3206.44
691.116	3259.68
691.305	3261.73
691.495	3233.06
691.684	3212.58
691.874	3138.85
692.063	3228.96
692.252	3079.46
692.442	3198.24
692.631	3169.57
692.82	3267.88
693.01	3185.96
693.199	3151.14
693.388	3067.17
693.578	3085.61
693.767	3126.57
693.956	3157.29
694.146	3169.57
694.335	3147.05
694.524	3038.5
694.713	3171.62
694.902	3046.69
695.092	2950.44
695.281	3058.98
695.47	3151.14
695.659	3003.69
695.848	2956.58
696.037	2821.42
696.226	2962.73
696.415	3009.83
696.604	2979.11
696.793	2909.48
696.982	3007.78
697.171	3163.43
697.36	3009.83
697.549	3048.74
697.738	3040.55
697.927	2962.73
698.116	2901.29
698.305	3085.61
698.494	3054.89
698.683	3024.17
698.872	2956.58
699.061	2968.87
699.25	2923.82
699.438	2958.63
699.627	2985.26
699.816	3034.41
700.005	3015.98
700.193	2823.47
700.382	3093.8
700.571	2956.58
700.76	2913.58
700.948	3077.41
701.137	2866.47
701.326	2909.48
701.514	2970.92
701.703	3005.74
701.892	2837.8
702.08	2968.87
702.269	2886.95
702.457	2854.19
702.646	2899.24
702.834	2993.45
703.023	2972.97
703.212	2897.19
703.4	2897.19
703.589	2891.05
703.777	2995.5
703.965	2864.43
704.154	2899.24
704.342	2915.62
704.531	2946.34
704.719	2901.29
704.907	2903.34
705.096	2848.04
705.284	2762.03
705.472	2927.91
705.661	3028.26
705.849	2975.02
706.037	2919.72
706.226	2942.25
706.414	2958.63
706.602	2821.42
706.79	2889
706.979	2843.95
707.167	2913.58
707.355	2815.27
707.543	2876.71
707.731	2962.73
707.919	2891.05
708.107	2932.01
708.296	2784.55
708.484	2884.91
708.672	2886.95
708.86	2848.04
709.048	2909.48
709.236	2921.77
709.424	2821.42
709.612	2891.05
709.8	3024.17
709.988	2966.82
710.176	2913.58
710.364	2755.88
710.551	2817.32
710.739	2925.86
710.927	2811.18
711.115	2880.81
711.303	2938.15
711.491	2919.72
711.679	2841.9
711.866	2917.67
712.054	2913.58
712.242	2891.05
712.43	2929.96
712.617	2839.85
712.805	2942.25
712.993	2985.26
713.181	2794.79
713.368	2927.91
713.556	2884.91
713.744	2823.47
713.931	2886.95
714.119	2874.67
714.306	2932.01
714.494	2868.52
714.682	2874.67
714.869	2835.75
715.057	2864.43
715.244	2755.88
715.432	2802.99
715.619	2860.33
715.807	2794.79
715.994	2921.77
716.182	2821.42
716.369	2946.34
716.556	2868.52
716.744	2845.99
716.931	2788.65
717.119	2757.93
717.306	2837.8
717.493	2868.52
717.681	2893.1
717.868	2753.84
718.055	2800.94
718.242	2845.99
718.43	2858.28
718.617	2813.23
718.804	2714.92
718.991	2764.08
719.179	2884.91
719.366	2817.32
719.553	2860.33
719.74	2794.79
719.927	2858.28
720.114	2886.95
720.301	2794.79
720.488	2821.42
720.676	2657.58
720.863	2686.25
721.05	2770.22
721.237	2743.6
721.424	2905.39
721.611	2759.98
721.798	2784.55
721.985	2721.07
722.172	2698.54
722.358	2778.41
722.545	2759.98
722.732	2809.13
722.919	2749.74
723.106	2688.3
723.293	2604.33
723.48	2594.09
723.667	2596.14
723.853	2633.01
724.04	2753.84
724.227	2706.73
724.414	2645.29
724.6	2743.6
724.787	2618.67
724.974	2696.49
725.161	2741.55
725.347	2528.56
725.534	2647.34
725.72	2673.96
725.907	2534.7
726.094	2628.91
726.28	2737.45
726.467	2585.9
726.653	2643.25
726.84	2600.24
727.027	2807.08
727.213	2489.65
727.4	2549.04
727.586	2667.82
727.773	2676.01
727.959	2557.23
728.145	2628.91
728.332	2571.57
728.518	2594.09
728.705	2626.86
728.891	2491.7
729.077	2594.09
729.264	2610.48
729.45	2530.61
729.636	2618.67
729.823	2536.75
730.009	2499.89
730.195	2581.81
730.382	2544.94
730.568	2692.4
730.754	2499.89
730.94	2530.61
731.126	2577.71
731.313	2491.7
731.499	2608.43
731.685	2616.62
731.871	2559.28
732.057	2520.37
732.243	2579.76
732.429	2483.5
732.615	2479.41
732.801	2481.46
732.987	2499.89
733.173	2508.08
733.359	2434.35
733.545	2469.17
733.731	2483.5
733.917	2569.52
734.103	2456.88
734.289	2471.22
734.475	2444.59
734.661	2518.32
734.847	2405.68
735.033	2452.78
735.219	2387.25
735.404	2381.11
735.59	2354.48
735.776	2356.53
735.962	2321.71
736.148	2454.83
736.333	2313.52
736.519	2309.43
736.705	2370.87
736.89	2215.22
737.076	2266.42
737.262	2204.98
737.447	2348.34
737.633	2237.75
737.819	2293.04
738.004	2274.61
738.19	2268.47
738.375	2307.38
738.561	2348.34
738.747	2219.32
738.932	2178.36
739.118	2325.81
739.303	2227.51
739.489	2176.31
739.674	2258.23
739.859	2153.78
740.045	2293.04
740.23	2151.73
740.416	2129.2
740.601	2188.6
740.786	2116.92
740.972	2139.44
741.157	2118.97
741.342	2106.68
741.528	2141.49
741.713	2151.73
741.898	2147.64
742.084	2247.99
742.269	2252.08
742.454	2073.91
742.639	2055.48
742.824	2116.92
743.01	2024.76
743.195	2245.94
743.38	2016.57
743.565	1979.7
743.75	2010.42
743.935	1971.51
744.12	2045.24
744.305	1985.85
744.49	2041.14
744.675	1883.45
744.86	2012.47
745.045	1883.45
745.23	2086.2
745.415	1879.35
745.6	1877.3
745.785	1940.79
745.97	1942.84
746.155	1944.89
746.34	1930.55
746.525	1887.54
746.71	1951.03
746.895	1801.53
747.079	1801.53
747.264	1785.15
747.449	1905.98
747.634	1826.11
747.819	1797.43
748.003	1719.61
748.188	1705.28
748.373	1733.95
748.557	1762.62
748.742	1783.1
748.927	1729.85
749.111	1658.17
749.296	1750.33
749.481	1807.67
749.665	1719.61
749.85	1617.21
750.034	1703.23
750.219	1701.18
750.404	1652.03
750.588	1619.26
750.773	1559.87
750.957	1692.99
751.141	1631.55
751.326	1746.23
751.51	1469.76
751.695	1633.6
751.879	1559.87
752.064	1592.64
752.248	1578.3
752.432	1451.33
752.617	1553.73
752.801	1500.48
752.985	1393.98
753.17	1439.04
753.354	1443.14
753.538	1449.28
753.722	1367.36
753.907	1353.02
754.091	1375.55
754.275	1477.95
754.459	1359.17
754.643	1389.89
754.828	1404.22
755.012	1422.66
755.196	1428.8
755.38	1426.75
755.564	1389.89
755.748	1340.74
755.932	1279.3
756.116	1314.11
756.3	1287.49
756.484	1267.01
756.668	1217.86
756.852	1289.54
757.036	1291.59
757.22	1197.38
757.404	1258.82
757.588	1224
757.772	1371.46
757.956	1213.76
758.14	1226.05
758.323	1250.63
758.507	1213.76
758.691	1213.76
758.875	1242.43
759.059	1164.61
759.242	1090.88
759.426	1187.14
759.61	1152.32
759.794	1221.95
759.977	1195.33
760.161	1193.28
760.345	1152.32
760.528	1129.8
760.712	1137.99
760.895	1170.76
761.079	1068.36
761.263	1123.65
761.446	1029.45
761.63	1131.84
761.813	1107.27
761.997	1033.54
762.18	1115.46
762.364	1045.83
762.547	1043.78
762.731	1025.35
762.914	1066.31
763.098	1035.59
763.281	1090.88
763.464	1078.6
763.648	906.57
763.831	1054.02
764.015	1006.92
764.198	1101.12
764.381	1023.3
764.564	1004.87
764.748	1045.83
764.931	992.58
765.114	1049.93
765.297	1066.31
765.481	939.34
765.664	1070.41
765.847	937.29
766.03	1068.36
766.213	961.86
766.397	1066.31
766.58	1029.45
766.763	929.1
766.946	1023.3
767.129	957.77
767.312	914.76
767.495	990.53
767.678	955.72
767.861	927.05
768.044	881.99
768.227	890.18
768.41	908.62
768.593	890.18
768.776	982.34
768.959	984.39
769.142	1049.93
769.324	873.8
769.507	830.79
769.69	931.14
769.873	849.22
770.056	1013.06
770.239	910.66
770.421	992.58
770.604	884.04
770.787	873.8
770.97	910.66
771.152	832.84
771.335	959.81
771.518	877.9
771.7	830.79
771.883	894.28
772.066	845.13
772.248	849.22
772.431	873.8
772.613	910.66
772.796	808.27
772.978	828.74
773.161	859.46
773.343	841.03
773.526	865.61
773.708	832.84
773.891	763.21
774.073	945.48
774.256	783.69
774.438	793.93
774.621	709.96
774.803	795.98
774.985	732.49
775.168	775.5
775.35	804.17
775.532	763.21
775.715	705.87
775.897	705.87
776.079	804.17
776.261	791.88
776.444	722.25
776.626	746.83
776.808	771.4
776.99	675.15
777.173	675.15
777.355	746.83
777.537	662.86
777.719	742.73
777.901	648.52
778.083	687.43
778.265	677.2
778.447	740.68
778.629	574.8
778.811	705.87
778.993	795.98
779.175	609.61
779.357	589.13
779.539	580.94
779.721	636.24
779.903	595.28
780.085	662.86
780.267	736.59
780.449	591.18
780.631	597.32
780.812	638.28
780.994	640.33
781.176	582.99
781.358	578.89
781.54	570.7
781.721	554.32
781.903	605.52
782.085	664.91
782.267	578.89
782.448	554.32
782.63	519.5
782.812	585.04
782.993	607.56
783.175	574.8
783.357	548.17
783.538	492.88
783.72	476.49
783.901	533.84
784.083	589.13
784.264	517.45
784.446	449.87
784.627	517.45
784.809	470.35
784.99	472.4
785.172	476.49
785.353	445.77
785.535	546.13
785.716	464.21
785.897	494.93
786.079	544.08
786.26	402.77
786.441	476.49
786.623	433.49
786.804	464.21
786.985	445.77
787.167	439.63
787.348	458.06
787.529	413.01
787.71	460.11
787.891	433.49
788.073	427.34
788.254	437.58
788.435	441.68
788.616	476.49
788.797	417.1
788.978	410.96
789.159	400.72
789.34	443.73
789.522	400.72
789.703	451.92
789.884	392.53
790.065	298.32
790.246	427.34
790.427	365.9
790.607	546.13
790.788	351.57
790.969	359.76
791.15	374.1
791.331	304.46
791.512	468.3
791.693	298.32
791.874	386.38
792.054	435.53
792.235	435.53
792.416	367.95
792.597	357.71
792.778	441.68
792.958	314.7
793.139	413.01
793.32	398.67
793.5	339.28
793.681	394.58
793.862	367.95
794.042	374.1
794.223	312.66
794.404	392.53
794.584	298.32
794.765	324.94
794.945	316.75
795.126	322.9
795.306	355.66
795.487	367.95
795.667	277.84
795.848	279.89
796.028	355.66
796.209	318.8
796.389	292.18
796.57	304.46
796.75	286.03
796.93	347.47
797.111	324.94
797.291	277.84
797.471	341.33
797.652	286.03
797.832	298.32
798.012	341.33
798.192	326.99
798.373	355.66
798.553	322.9
798.733	337.23
798.913	312.66
799.093	355.66
799.274	361.81
799.454	339.28
799.634	308.56
799.814	359.76
799.994	324.94
800.174	263.51
800.354	318.8
800.534	212.31
800.714	290.13
800.894	253.27
801.074	238.93
801.254	312.66
801.434	238.93
801.614	286.03
801.794	292.18
801.974	945.48
802.154	253.27
802.334	226.64
802.514	271.7
802.693	197.97
802.873	189.78
803.053	240.98
803.233	273.75
803.413	306.51
803.592	228.69
803.772	152.92
803.952	283.99
804.131	220.5
804.311	326.99
804.491	296.27
804.67	261.46
804.85	220.5
805.03	204.11
805.209	222.55
805.389	189.78
805.568	189.78
805.748	212.31
805.928	179.54
806.107	187.73
806.287	230.74
806.466	179.54
806.646	234.83
806.825	232.79
807.004	265.55
807.184	193.87
807.363	255.31
807.543	165.2
807.722	206.16
807.901	210.26
808.081	177.49
808.26	167.25
808.439	189.78
808.619	179.54
808.798	152.92
808.977	214.35
809.156	197.97
809.336	275.79
809.515	150.87
809.694	154.96
809.873	189.78
810.052	140.63
810.231	212.31
810.411	228.69
810.59	204.11
810.769	146.77
810.948	191.83
811.127	148.82
811.306	240.98
811.485	128.34
811.664	224.59
811.843	177.49
812.022	226.64
812.201	107.86
812.38	181.59
812.559	179.54
812.737	144.72
812.916	97.62
813.095	177.49
813.274	161.11
813.453	175.44
813.632	255.31
813.811	173.39
813.989	109.91
814.168	212.31
814.347	111.96
814.526	165.2
814.704	236.88
814.883	185.68
815.062	187.73
815.24	132.44
815.419	200.02
815.598	165.2
815.776	77.14
815.955	222.55
816.133	163.15
816.312	154.96
816.49	148.82
816.669	200.02
816.847	142.68
817.026	195.92
817.204	122.2
817.383	163.15
817.561	152.92
817.74	109.91
817.918	154.96
818.097	206.16
818.275	91.48
818.453	118.1
818.632	89.43
818.81	204.11
818.988	17.75
819.167	64.85
819.345	148.82
819.523	114
819.701	132.44
819.879	175.44
820.058	120.15
820.236	122.2
820.414	122.2
820.592	93.52
820.77	177.49
820.948	122.2
821.127	48.47
821.305	105.81
821.483	128.34
821.661	132.44
821.839	154.96
822.017	97.62
822.195	91.48
822.373	163.15
822.551	111.96
822.729	103.76
822.907	122.2
823.085	152.92
823.262	154.96
823.44	128.34
823.618	93.52
823.796	124.24
823.974	109.91
824.152	83.28
824.329	91.48
824.507	58.71
824.685	75.09
824.863	79.19
825.04	159.06
825.218	206.16
825.396	177.49
825.574	173.39
825.751	95.57
825.929	142.68
826.107	87.38
826.284	42.32
826.462	128.34
826.639	128.34
826.817	79.19
826.994	109.91
827.172	46.42
827.349	126.29
827.527	58.71
827.704	185.68
827.882	120.15
828.059	169.3
828.237	75.09
828.414	42.32
828.591	99.67
828.769	150.87
828.946	173.39
829.124	167.25
829.301	95.57
829.478	56.66
829.655	132.44
829.833	124.24
830.01	50.52
830.187	58.71
830.364	138.58
830.542	134.48
830.719	148.82
830.896	142.68
831.073	87.38
831.25	128.34
831.427	66.9
831.604	128.34
831.782	64.85
831.959	118.1
832.136	87.38
832.313	62.8
832.49	128.34
832.667	62.8
832.844	89.43
833.021	91.48
833.198	99.67
833.374	91.48
833.551	58.71
833.728	62.8
833.905	142.68
834.082	79.19
834.259	44.37
834.436	148.82
834.612	73.04
834.789	99.67
834.966	114
835.143	91.48
835.319	11.61
835.496	83.28
835.673	60.76
835.85	116.05
836.026	48.47
836.203	34.13
836.38	107.86
836.556	116.05
836.733	23.89
836.909	103.76
837.086	89.43
837.262	9.56
837.439	66.9
837.616	30.04
837.792	9.56
837.968	120.15
838.145	56.66
838.321	54.61
838.498	109.91
838.674	32.08
838.851	105.81
839.027	13.65
839.203	89.43
839.38	36.18
839.556	138.58
839.732	71
839.909	83.28
840.085	21.85
840.261	58.71
840.437	138.58
840.614	66.9
840.79	109.91
840.966	118.1
841.142	58.71
841.318	56.66
841.494	56.66
841.671	124.24
841.847	58.71
842.023	-6.83
842.199	132.44
842.375	132.44
842.551	-129.7
842.727	40.28
842.903	114
843.079	58.71
843.255	101.72
843.431	25.94
843.607	99.67
843.783	19.8
843.959	75.09
844.134	50.52
844.31	81.24
844.486	11.61
844.662	56.66
844.838	11.61
845.013	97.62
845.189	79.19
845.365	-33.45
845.541	58.71
845.716	73.04
845.892	-15.02
846.068	-15.02
846.244	60.76
846.419	40.28
846.595	-27.31
846.77	7.51
846.946	116.05
847.122	38.23
847.297	-37.55
847.473	91.48
847.648	27.99
847.824	62.8
847.999	-25.26
848.175	17.75
848.35	124.24
848.526	138.58
848.701	30.04
848.876	62.8
849.052	89.43
849.227	81.24
849.403	-23.21
849.578	34.13
849.753	105.81
849.929	54.61
850.104	15.7
850.279	58.71
850.454	21.85
850.63	95.57
850.805	32.08
850.98	109.91
851.155	-31.4
851.33	27.99
851.505	1.37
851.681	66.9
851.856	17.75
852.031	25.94
852.206	21.85
852.381	42.32
852.556	17.75
852.731	54.61
852.906	195.92
853.081	23.89
853.256	107.86
853.431	50.52
853.606	3.41
853.781	-41.64
853.956	42.32
854.131	40.28
854.305	-25.26
854.48	38.23
854.655	1.37
854.83	19.8
855.005	44.37
855.18	95.57
855.354	58.71
855.529	66.9
855.704	-10.92
855.879	44.37
856.053	-12.97
856.228	25.94
856.403	-58.03
856.577	36.18
856.752	25.94
856.926	25.94
857.101	-2.73
857.276	32.08
857.45	54.61
857.625	-15.02
857.799	25.94
857.974	120.15
858.148	-12.97
858.323	38.23
858.497	-15.02
858.672	40.28
858.846	27.99
859.02	-2.73
859.195	30.04
859.369	30.04
859.543	13.65
859.718	13.65
859.892	5.46
860.066	93.52
860.241	48.47
860.415	42.32
860.589	30.04
860.763	-15.02
860.938	21.85
861.112	48.47
861.286	-12.97
861.46	-25.26
861.634	27.99
861.808	42.32
861.982	42.32
862.157	-60.07
862.331	7.51
862.505	50.52
862.679	-25.26
862.853	71
863.027	1.37
863.201	1.37
863.375	83.28
863.549	30.04
863.722	27.99
863.896	60.76
864.07	-2.73
864.244	73.04
864.418	62.8
864.592	40.28
864.766	40.28
864.939	44.37
865.113	36.18
865.287	99.67
865.461	60.76
865.634	46.42
865.808	25.94
865.982	-27.31
866.156	50.52
866.329	-33.45
866.503	68.95
866.676	46.42
866.85	50.52
867.024	85.33
867.197	32.08
867.371	32.08
867.544	99.67
867.718	36.18
867.891	56.66
868.065	44.37
868.238	34.13
868.412	122.2
868.585	-6.83
868.759	50.52
868.932	9.56
869.105	58.71
869.279	73.04
869.452	-86.7
869.625	62.8
869.799	46.42
869.972	-39.59
870.145	-10.92
870.319	81.24
870.492	36.18
870.665	-4.78
870.838	-15.02
871.011	-37.55
871.185	-39.59
871.358	36.18
871.531	21.85
871.704	7.51
871.877	48.47
872.05	-31.4
872.223	54.61
872.396	68.95
872.569	38.23
872.742	-2.73
872.915	60.76
873.088	114
873.261	83.28
873.434	75.09
873.607	19.8
873.78	27.99
873.953	42.32
874.126	44.37
874.299	48.47
874.471	-2.73
874.644	-15.02
874.817	-10.92
874.99	38.23
875.163	32.08
875.335	79.19
875.508	-17.07
875.681	19.8
875.853	27.99
876.026	54.61
876.199	93.52
876.371	58.71
876.544	38.23
876.717	89.43
876.889	-31.4
877.062	87.38
877.234	50.52
877.407	3.41
877.579	-10.92
877.752	34.13
877.924	-17.07
878.097	101.72
878.269	56.66
878.442	46.42
878.614	3.41
878.786	38.23
878.959	-53.93
879.131	-2.73
879.303	7.51
879.476	32.08
879.648	75.09
879.82	34.13
879.993	32.08
880.165	68.95
880.337	-0.68
880.509	30.04
880.681	-25.26
880.854	9.56
881.026	17.75
881.198	38.23
881.37	73.04
881.542	56.66
881.714	44.37
881.886	23.89
882.058	9.56
882.23	30.04
882.402	17.75
882.574	34.13
882.746	-23.21
882.918	64.85
883.09	-10.92
883.262	-6.83
883.434	-23.21
883.606	-21.16
883.778	-10.92
883.95	30.04
884.122	-10.92
884.293	58.71
884.465	30.04
884.637	54.61
884.809	30.04
884.98	17.75
885.152	13.65
885.324	25.94
885.496	32.08
885.667	79.19
885.839	1.37
886.011	62.8
886.182	-64.17
886.354	36.18
886.525	-43.69
886.697	17.75
886.869	11.61
887.04	-2.73
887.212	44.37
887.383	66.9
887.555	15.7
887.726	-47.79
887.897	-12.97
888.069	19.8
888.24	40.28
888.412	13.65
888.583	-6.83
888.754	36.18
888.926	-23.21
889.097	-0.68
889.268	52.56
889.44	40.28
889.611	66.9
889.782	71
889.953	-6.83
890.125	40.28
890.296	5.46
890.467	32.08
890.638	9.56
890.809	21.85
890.98	7.51
891.151	-15.02
891.323	40.28
891.494	71
891.665	9.56
891.836	-12.97
892.007	19.8
892.178	-2.73
892.349	83.28
892.52	38.23
892.691	42.32
892.862	44.37
893.032	25.94
893.203	-4.78
893.374	36.18
893.545	85.33
893.716	-6.83
893.887	19.8
894.057	-15.02
894.228	-21.16
894.399	-8.87
894.57	83.28
894.74	1.37
894.911	83.28
895.082	-25.26
895.253	-68.27
895.423	40.28
895.594	54.61
895.764	-2.73
895.935	1.37
896.106	23.89
896.276	48.47
896.447	-17.07
896.617	-0.68
896.788	56.66
896.958	-12.97
897.129	-37.55
897.299	-25.26
897.47	-15.02
897.64	81.24
897.81	79.19
897.981	13.65
898.151	-19.11
898.322	21.85
898.492	-2.73
898.662	-41.64
898.832	91.48
899.003	34.13
899.173	9.56
899.343	-88.75
899.513	-33.45
