Data from USB4F104151__297__10-43-22-168.txt Node

Date: Wed Mar 12 10:43:22 EDT 2025
User: louis
Spectrometer: USB4F10415
Trigger mode: 4
Integration Time (sec): 3.000000E-2
Scans to average: 1
Electric dark correction enabled: true
Nonlinearity correction enabled: false
Boxcar width: 0
XAxis mode: Wavelengths
Number of Pixels in Spectrum: 3648
>>>>>Begin Spectral Data<<<<<
178.204	-91.99
178.424	-91.99
178.644	-91.99
178.864	-169.81
179.084	-51.03
179.304	-26.45
179.524	65.71
179.744	-14.17
179.964	37.03
180.184	2.22
180.404	-24.4
180.624	-10.07
180.844	0.17
181.064	-28.5
181.283	20.65
181.503	-20.31
181.723	-1.88
181.943	-18.26
182.163	41.13
182.383	10.41
182.602	73.9
182.822	96.43
183.042	-8.02
183.262	2.22
183.482	65.71
183.701	22.7
183.921	84.14
184.141	-55.12
184.361	102.57
184.58	-40.79
184.8	-24.4
185.02	88.23
185.239	57.51
185.459	80.04
185.679	30.89
185.898	-10.07
186.118	82.09
186.338	61.61
186.557	100.52
186.777	84.14
186.997	-28.5
187.216	2.22
187.436	121
187.655	39.08
187.875	20.65
188.095	82.09
188.314	61.61
188.534	143.53
188.753	24.75
188.973	116.9
189.192	71.85
189.412	-14.17
189.631	67.75
189.851	18.6
190.07	84.14
190.29	-53.08
190.509	-22.36
190.729	0.17
190.948	102.57
191.168	147.62
191.387	88.23
191.607	-18.26
191.826	59.56
192.045	-20.31
192.265	-32.6
192.484	-34.64
192.704	71.85
192.923	-10.07
193.142	135.34
193.362	67.75
193.581	71.85
193.8	77.99
194.02	45.23
194.239	-22.36
194.458	49.32
194.678	-1.88
194.897	37.03
195.116	34.99
195.335	30.89
195.555	73.9
195.774	73.9
195.993	28.84
196.212	67.75
196.432	-3.93
196.651	8.36
196.87	71.85
197.089	112.81
197.308	102.57
197.528	30.89
197.747	-16.21
197.966	-14.17
198.185	82.09
198.404	67.75
198.623	96.43
198.842	63.66
199.062	141.48
199.281	123.05
199.5	100.52
199.719	57.51
199.938	57.51
200.157	98.47
200.376	84.14
200.595	39.08
200.814	4.27
201.033	30.89
201.252	53.42
201.471	41.13
201.69	-3.93
201.909	106.67
202.128	-14.17
202.347	-8.02
202.566	82.09
202.785	8.36
203.004	69.8
203.223	75.95
203.442	-53.08
203.661	6.31
203.879	80.04
204.098	51.37
204.317	-1.88
204.536	49.32
204.755	10.41
204.974	104.62
205.193	104.62
205.411	47.27
205.63	-3.93
205.849	30.89
206.068	26.79
206.287	51.37
206.505	39.08
206.724	-8.02
206.943	88.23
207.162	53.42
207.381	-20.31
207.599	30.89
207.818	34.99
208.037	39.08
208.255	53.42
208.474	67.75
208.693	51.37
208.911	-16.21
209.13	39.08
209.349	-40.79
209.567	-3.93
209.786	65.71
210.005	98.47
210.223	6.31
210.442	2.22
210.661	37.03
210.879	116.9
211.098	47.27
211.316	14.51
211.535	71.85
211.753	59.56
211.972	18.6
212.191	28.84
212.409	45.23
212.628	22.7
212.846	82.09
213.065	45.23
213.283	102.57
213.502	65.71
213.72	59.56
213.938	30.89
214.157	41.13
214.375	82.09
214.594	-38.74
214.812	88.23
215.031	14.51
215.249	55.47
215.467	2.22
215.686	14.51
215.904	149.67
216.122	28.84
216.341	102.57
216.559	149.67
216.778	77.99
216.996	71.85
217.214	22.7
217.432	41.13
217.651	34.99
217.869	-14.17
218.087	41.13
218.306	57.51
218.524	45.23
218.742	118.95
218.96	45.23
219.179	2.22
219.397	73.9
219.615	53.42
219.833	30.89
220.051	63.66
220.27	67.75
220.488	75.95
220.706	18.6
220.924	-26.45
221.142	61.61
221.36	-18.26
221.578	98.47
221.796	30.89
222.015	26.79
222.233	90.28
222.451	39.08
222.669	-26.45
222.887	53.42
223.105	-22.36
223.323	55.47
223.541	14.51
223.759	49.32
223.977	-1.88
224.195	6.31
224.413	47.27
224.631	30.89
224.849	86.19
225.067	88.23
225.285	-26.45
225.503	26.79
225.721	-12.12
225.939	73.9
226.157	-36.69
226.375	80.04
226.592	-32.6
226.81	32.94
227.028	71.85
227.246	69.8
227.464	53.42
227.682	61.61
227.9	63.66
228.117	10.41
228.335	-1.88
228.553	0.17
228.771	22.7
228.989	73.9
229.206	77.99
229.424	96.43
229.642	24.75
229.86	73.9
230.077	-3.93
230.295	-10.07
230.513	141.48
230.731	30.89
230.948	94.38
231.166	10.41
231.384	59.56
231.601	80.04
231.819	49.32
232.037	47.27
232.254	34.99
232.472	69.8
232.689	6.31
232.907	90.28
233.125	0.17
233.342	39.08
233.56	16.55
233.777	-40.79
233.995	12.46
234.213	90.28
234.43	43.18
234.648	34.99
234.865	61.61
235.083	127.14
235.3	84.14
235.518	100.52
235.735	106.67
235.953	67.75
236.17	24.75
236.388	88.23
236.605	16.55
236.822	65.71
237.04	75.95
237.257	82.09
237.475	80.04
237.692	55.47
237.909	26.79
238.127	18.6
238.344	123.05
238.562	0.17
238.779	80.04
238.996	63.66
239.214	55.47
239.431	88.23
239.648	37.03
239.865	26.79
240.083	86.19
240.3	6.31
240.517	43.18
240.735	-1.88
240.952	88.23
241.169	37.03
241.386	20.65
241.603	18.6
241.821	84.14
242.038	53.42
242.255	96.43
242.472	47.27
242.689	80.04
242.907	67.75
243.124	10.41
243.341	80.04
243.558	-20.31
243.775	34.99
243.992	49.32
244.209	-30.55
244.426	61.61
244.643	145.58
244.86	57.51
245.078	63.66
245.295	125.1
245.512	67.75
245.729	14.51
245.946	57.51
246.163	18.6
246.38	30.89
246.597	18.6
246.814	8.36
247.031	55.47
247.248	69.8
247.464	-28.5
247.681	80.04
247.898	47.27
248.115	10.41
248.332	47.27
248.549	47.27
248.766	6.31
248.983	16.55
249.2	16.55
249.417	77.99
249.633	18.6
249.85	39.08
250.067	92.33
250.284	26.79
250.501	80.04
250.717	-63.32
250.934	65.71
251.151	96.43
251.368	39.08
251.585	92.33
251.801	53.42
252.018	-5.97
252.235	92.33
252.451	86.19
252.668	26.79
252.885	133.29
253.102	51.37
253.318	32.94
253.535	-14.17
253.752	28.84
253.968	57.51
254.185	32.94
254.401	59.56
254.618	-26.45
254.835	22.7
255.051	100.52
255.268	20.65
255.484	24.75
255.701	30.89
255.917	63.66
256.134	4.27
256.351	104.62
256.567	18.6
256.784	41.13
257	55.47
257.217	84.14
257.433	151.72
257.65	67.75
257.866	12.46
258.082	2.22
258.299	51.37
258.515	49.32
258.732	84.14
258.948	12.46
259.165	94.38
259.381	67.75
259.597	108.71
259.814	80.04
260.03	28.84
260.246	73.9
260.463	32.94
260.679	102.57
260.895	80.04
261.112	96.43
261.328	12.46
261.544	43.18
261.761	159.91
261.977	-3.93
262.193	51.37
262.409	75.95
262.626	92.33
262.842	84.14
263.058	73.9
263.274	73.9
263.49	32.94
263.707	69.8
263.923	53.42
264.139	92.33
264.355	77.99
264.571	45.23
264.787	32.94
265.004	90.28
265.22	100.52
265.436	16.55
265.652	22.7
265.868	22.7
266.084	10.41
266.3	2.22
266.516	61.61
266.732	67.75
266.948	0.17
267.164	20.65
267.38	67.75
267.596	26.79
267.812	26.79
268.028	53.42
268.244	53.42
268.46	45.23
268.676	88.23
268.892	110.76
269.108	71.85
269.324	32.94
269.54	-34.64
269.756	59.56
269.972	-14.17
270.188	88.23
270.403	-12.12
270.619	6.31
270.835	10.41
271.051	65.71
271.267	16.55
271.483	49.32
271.698	28.84
271.914	69.8
272.13	77.99
272.346	30.89
272.562	123.05
272.777	98.47
272.993	28.84
273.209	34.99
273.425	45.23
273.64	32.94
273.856	110.76
274.072	-5.97
274.287	-10.07
274.503	116.9
274.719	32.94
274.934	37.03
275.15	49.32
275.366	80.04
275.581	20.65
275.797	67.75
276.012	55.47
276.228	34.99
276.444	22.7
276.659	84.14
276.875	90.28
277.09	8.36
277.306	18.6
277.521	26.79
277.737	106.67
277.952	61.61
278.168	-1.88
278.383	100.52
278.599	-42.84
278.814	26.79
279.03	106.67
279.245	61.61
279.461	92.33
279.676	80.04
279.892	-22.36
280.107	39.08
280.322	18.6
280.538	92.33
280.753	69.8
280.969	65.71
281.184	32.94
281.399	59.56
281.615	108.71
281.83	16.55
282.045	37.03
282.26	61.61
282.476	37.03
282.691	84.14
282.906	-1.88
283.122	6.31
283.337	-42.84
283.552	84.14
283.767	37.03
283.983	82.09
284.198	10.41
284.413	84.14
284.628	10.41
284.843	114.86
285.058	114.86
285.274	32.94
285.489	61.61
285.704	20.65
285.919	69.8
286.134	55.47
286.349	-26.45
286.564	69.8
286.779	30.89
286.995	69.8
287.21	30.89
287.425	129.19
287.64	-12.12
287.855	30.89
288.07	75.95
288.285	61.61
288.5	84.14
288.715	32.94
288.93	159.91
289.145	-26.45
289.36	30.89
289.575	47.27
289.79	59.56
290.004	6.31
290.219	69.8
290.434	8.36
290.649	-10.07
290.864	108.71
291.079	45.23
291.294	-16.21
291.509	30.89
291.724	47.27
291.938	92.33
292.153	24.75
292.368	43.18
292.583	71.85
292.798	80.04
293.012	43.18
293.227	90.28
293.442	75.95
293.657	20.65
293.871	16.55
294.086	71.85
294.301	57.51
294.516	112.81
294.73	88.23
294.945	63.66
295.16	59.56
295.374	41.13
295.589	65.71
295.804	-24.4
296.018	34.99
296.233	59.56
296.447	155.82
296.662	61.61
296.877	47.27
297.091	71.85
297.306	4.27
297.52	16.55
297.735	59.56
297.949	53.42
298.164	88.23
298.378	98.47
298.593	65.71
298.807	8.36
299.022	10.41
299.236	129.19
299.451	34.99
299.665	28.84
299.88	71.85
300.094	67.75
300.309	14.51
300.523	59.56
300.737	24.75
300.952	59.56
301.166	153.77
301.381	47.27
301.595	57.51
301.809	100.52
302.024	98.47
302.238	104.62
302.452	28.84
302.667	37.03
302.881	30.89
303.095	61.61
303.309	55.47
303.524	82.09
303.738	69.8
303.952	-10.07
304.166	34.99
304.381	32.94
304.595	135.34
304.809	28.84
305.023	88.23
305.237	65.71
305.452	86.19
305.666	116.9
305.88	61.61
306.094	39.08
306.308	-26.45
306.522	55.47
306.736	43.18
306.95	88.23
307.164	39.08
307.379	30.89
307.593	88.23
307.807	22.7
308.021	43.18
308.235	118.95
308.449	16.55
308.663	-20.31
308.877	104.62
309.091	100.52
309.305	61.61
309.519	-22.36
309.733	63.66
309.947	59.56
310.161	131.24
310.374	22.7
310.588	75.95
310.802	100.52
311.016	22.7
311.23	49.32
311.444	61.61
311.658	47.27
311.872	129.19
312.085	47.27
312.299	96.43
312.513	10.41
312.727	75.95
312.941	43.18
313.154	41.13
313.368	69.8
313.582	88.23
313.796	65.71
314.009	77.99
314.223	88.23
314.437	51.37
314.651	129.19
314.864	-1.88
315.078	18.6
315.292	47.27
315.505	20.65
315.719	75.95
315.933	32.94
316.146	22.7
316.36	-36.69
316.573	71.85
316.787	141.48
317.001	121
317.214	53.42
317.428	98.47
317.641	59.56
317.855	45.23
318.068	37.03
318.282	114.86
318.495	34.99
318.709	96.43
318.922	34.99
319.136	96.43
319.349	57.51
319.563	98.47
319.776	88.23
319.99	-28.5
320.203	94.38
320.417	45.23
320.63	90.28
320.843	12.46
321.057	4.27
321.27	22.7
321.483	6.31
321.697	84.14
321.91	88.23
322.124	-14.17
322.337	59.56
322.55	16.55
322.763	49.32
322.977	51.37
323.19	80.04
323.403	-26.45
323.617	34.99
323.83	106.67
324.043	69.8
324.256	12.46
324.469	108.71
324.683	59.56
324.896	-18.26
325.109	43.18
325.322	80.04
325.535	104.62
325.748	8.36
325.962	88.23
326.175	67.75
326.388	49.32
326.601	-14.17
326.814	92.33
327.027	16.55
327.24	94.38
327.453	-46.93
327.666	59.56
327.879	59.56
328.092	129.19
328.305	67.75
328.518	63.66
328.731	51.37
328.944	-1.88
329.157	125.1
329.37	37.03
329.583	96.43
329.796	41.13
330.009	37.03
330.222	47.27
330.435	145.58
330.648	147.62
330.861	6.31
331.073	69.8
331.286	16.55
331.499	53.42
331.712	69.8
331.925	129.19
332.138	82.09
332.35	73.9
332.563	14.51
332.776	67.75
332.989	65.71
333.202	77.99
333.414	114.86
333.627	129.19
333.84	84.14
334.053	73.9
334.265	84.14
334.478	67.75
334.691	-53.08
334.903	90.28
335.116	8.36
335.329	114.86
335.541	14.51
335.754	135.34
335.966	43.18
336.179	84.14
336.392	92.33
336.604	28.84
336.817	94.38
337.029	45.23
337.242	94.38
337.454	39.08
337.667	10.41
337.88	43.18
338.092	41.13
338.305	125.1
338.517	2.22
338.729	92.33
338.942	80.04
339.154	14.51
339.367	-40.79
339.579	39.08
339.792	-16.21
340.004	-1.88
340.217	32.94
340.429	49.32
340.641	6.31
340.854	22.7
341.066	75.95
341.278	110.76
341.491	157.86
341.703	12.46
341.915	65.71
342.128	63.66
342.34	28.84
342.552	67.75
342.764	127.14
342.977	10.41
343.189	86.19
343.401	73.9
343.613	86.19
343.826	92.33
344.038	32.94
344.25	112.81
344.462	77.99
344.674	100.52
344.886	47.27
345.099	0.17
345.311	90.28
345.523	22.7
345.735	12.46
345.947	34.99
346.159	-3.93
346.371	116.9
346.583	14.51
346.795	137.38
347.007	65.71
347.219	18.6
347.431	-3.93
347.643	80.04
347.855	73.9
348.067	98.47
348.279	65.71
348.491	59.56
348.703	67.75
348.915	-10.07
349.127	6.31
349.339	51.37
349.551	51.37
349.763	129.19
349.975	71.85
350.187	51.37
350.399	84.14
350.61	26.79
350.822	55.47
351.034	37.03
351.246	51.37
351.458	34.99
351.669	61.61
351.881	84.14
352.093	112.81
352.305	69.8
352.517	84.14
352.728	123.05
352.94	-63.32
353.152	67.75
353.363	-1.88
353.575	139.43
353.787	98.47
353.999	26.79
354.21	139.43
354.422	71.85
354.633	84.14
354.845	104.62
355.057	98.47
355.268	45.23
355.48	10.41
355.692	90.28
355.903	63.66
356.115	39.08
356.326	57.51
356.538	61.61
356.749	118.95
356.961	92.33
357.172	16.55
357.384	30.89
357.595	63.66
357.807	77.99
358.018	47.27
358.23	63.66
358.441	71.85
358.653	98.47
358.864	2.22
359.075	28.84
359.287	47.27
359.498	69.8
359.709	-3.93
359.921	20.65
360.132	84.14
360.344	102.57
360.555	6.31
360.766	28.84
360.977	73.9
361.189	135.34
361.4	102.57
361.611	102.57
361.823	61.61
362.034	43.18
362.245	20.65
362.456	77.99
362.667	82.09
362.879	51.37
363.09	104.62
363.301	59.56
363.512	96.43
363.723	96.43
363.935	51.37
364.146	88.23
364.357	96.43
364.568	71.85
364.779	-46.93
364.99	94.38
365.201	41.13
365.412	141.48
365.623	77.99
365.834	41.13
366.045	63.66
366.256	20.65
366.467	61.61
366.678	61.61
366.889	137.38
367.1	104.62
367.311	75.95
367.522	2.22
367.733	55.47
367.944	73.9
368.155	100.52
368.366	127.14
368.577	86.19
368.788	73.9
368.999	-42.84
369.209	45.23
369.42	112.81
369.631	121
369.842	110.76
370.053	55.47
370.264	47.27
370.474	75.95
370.685	75.95
370.896	24.75
371.107	106.67
371.317	92.33
371.528	77.99
371.739	14.51
371.95	57.51
372.16	8.36
372.371	51.37
372.582	12.46
372.792	69.8
373.003	127.14
373.214	28.84
373.424	143.53
373.635	63.66
373.846	147.62
374.056	73.9
374.267	96.43
374.477	47.27
374.688	98.47
374.898	159.91
375.109	106.67
375.319	92.33
375.53	69.8
375.74	96.43
375.951	114.86
376.161	88.23
376.372	94.38
376.582	92.33
376.793	100.52
377.003	104.62
377.214	125.1
377.424	116.9
377.635	32.94
377.845	53.42
378.055	82.09
378.266	71.85
378.476	-1.88
378.686	53.42
378.897	34.99
379.107	84.14
379.317	37.03
379.528	69.8
379.738	127.14
379.948	71.85
380.158	41.13
380.369	80.04
380.579	112.81
380.789	30.89
380.999	94.38
381.21	69.8
381.42	118.95
381.63	106.67
381.84	69.8
382.05	149.67
382.261	39.08
382.471	47.27
382.681	55.47
382.891	34.99
383.101	84.14
383.311	43.18
383.521	-69.46
383.731	112.81
383.941	104.62
384.151	30.89
384.361	116.9
384.571	125.1
384.781	100.52
384.991	137.38
385.201	94.38
385.411	108.71
385.621	143.53
385.831	133.29
386.041	55.47
386.251	6.31
386.461	59.56
386.671	-42.84
386.881	41.13
387.091	86.19
387.301	92.33
387.511	-18.26
387.72	116.9
387.93	121
388.14	-26.45
388.35	55.47
388.56	63.66
388.769	82.09
388.979	37.03
389.189	80.04
389.399	80.04
389.609	157.86
389.818	63.66
390.028	100.52
390.238	73.9
390.447	67.75
390.657	110.76
390.867	77.99
391.076	90.28
391.286	-14.17
391.496	155.82
391.705	51.37
391.915	73.9
392.125	98.47
392.334	18.6
392.544	77.99
392.753	116.9
392.963	75.95
393.172	86.19
393.382	55.47
393.591	141.48
393.801	82.09
394.01	112.81
394.22	114.86
394.429	106.67
394.639	149.67
394.848	26.79
395.058	147.62
395.267	125.1
395.477	80.04
395.686	116.9
395.895	121
396.105	200.87
396.314	104.62
396.524	155.82
396.733	84.14
396.942	139.43
397.152	63.66
397.361	190.63
397.57	145.58
397.78	125.1
397.989	209.06
398.198	170.15
398.407	88.23
398.617	84.14
398.826	135.34
399.035	114.86
399.244	211.11
399.453	149.67
399.663	141.48
399.872	151.72
400.081	108.71
400.29	182.44
400.499	63.66
400.708	108.71
400.917	131.24
401.127	141.48
401.336	139.43
401.545	223.4
401.754	192.68
401.963	182.44
402.172	164.01
402.381	143.53
402.59	168.1
402.799	153.77
403.008	123.05
403.217	145.58
403.426	213.16
403.635	202.92
403.844	198.82
404.053	155.82
404.262	207.02
404.471	268.45
404.68	153.77
404.888	180.39
405.097	133.29
405.306	123.05
405.515	194.73
405.724	188.58
405.933	200.87
406.142	225.45
406.35	166.06
406.559	151.72
406.768	239.78
406.977	235.69
407.185	241.83
407.394	235.69
407.603	237.74
407.812	293.03
408.02	237.74
408.229	225.45
408.438	252.07
408.646	323.75
408.855	280.74
409.064	227.5
409.272	413.86
409.481	344.23
409.69	290.98
409.898	364.71
410.107	340.13
410.315	383.14
410.524	356.52
410.733	356.52
410.941	436.39
411.15	430.24
411.358	452.77
411.567	526.5
411.775	489.64
411.984	458.92
412.192	485.54
412.401	458.92
412.609	553.12
412.818	583.84
413.026	589.99
413.234	526.5
413.443	641.18
413.651	659.62
413.86	657.57
414.068	653.47
414.276	721.06
414.485	694.43
414.693	700.58
414.901	813.21
415.11	823.45
415.318	729.25
415.526	888.99
415.734	817.31
415.943	919.71
416.151	972.96
416.359	968.86
416.567	1071.26
416.776	1046.68
416.984	1118.36
417.192	1085.59
417.4	1163.42
417.608	1181.85
417.817	1210.52
418.025	1282.2
418.233	1300.63
418.441	1214.62
418.649	1392.79
418.857	1538.2
419.065	1425.56
419.273	1427.6
419.481	1507.48
419.689	1478.8
419.897	1734.8
420.105	1661.07
420.313	1779.86
420.521	1835.15
420.729	1843.34
420.937	1857.68
421.145	1994.89
421.353	2128.01
421.561	2216.07
421.769	2132.11
421.977	2353.29
422.185	2240.65
422.393	2398.34
422.601	2629.76
422.809	2691.2
423.017	2625.67
423.224	2676.87
423.432	2814.08
423.64	2838.66
423.848	3084.41
424.056	2990.21
424.263	3192.95
424.471	3221.63
424.679	3260.54
424.887	3555.44
425.094	3651.7
425.302	3555.44
425.51	3725.43
425.718	3819.63
425.925	3958.89
426.133	4110.44
426.341	4218.99
426.548	4407.4
426.756	4470.89
426.964	4526.18
427.171	4851.81
427.379	4993.12
427.586	4870.24
427.794	5079.13
428.001	5376.09
428.209	5656.66
428.417	5632.08
428.624	5929.04
428.832	5732.44
429.039	5996.62
429.247	6043.73
429.454	6365.26
429.662	6821.95
429.869	6389.83
430.076	6883.39
430.284	6586.44
430.491	7086.14
430.699	7379
430.906	7419.96
431.114	7465.02
431.321	7759.92
431.528	7860.27
431.736	8286.25
431.943	8814.63
432.15	8355.88
432.358	8491.05
432.565	9080.86
432.772	9134.11
432.979	9572.38
433.187	9713.69
433.394	9603.1
433.601	10407.95
433.808	10323.98
434.016	10319.89
434.223	10829.83
434.43	11333.63
434.637	11296.77
434.844	11921.4
435.052	12271.6
435.259	12216.3
435.466	12287.98
435.673	12214.26
435.88	13004.77
436.087	13365.21
436.294	13287.39
436.501	13268.96
436.708	13498.33
436.915	14112.72
437.122	14634.96
437.329	14856.14
437.537	15079.36
437.743	15448
437.95	15087.56
438.157	15734.71
438.364	16447.41
438.571	16451.5
438.778	16316.34
438.985	17973.14
439.192	17143.72
439.399	17792.92
439.606	17547.17
439.813	18571.15
440.02	19804.03
440.227	19341.19
440.433	19099.53
440.64	19920.76
440.847	19492.74
441.054	19976.06
441.261	21581.67
441.467	21297
441.674	21651.3
441.881	22372.18
442.088	22331.22
442.294	21868.38
442.501	22712.14
442.708	23359.3
442.914	24147.77
443.121	25341.74
443.328	24428.34
443.534	26380.06
443.741	25198.38
443.948	25177.9
444.154	26892.05
444.361	26441.5
444.568	26941.2
444.774	26941.2
444.981	27369.23
445.187	27991.81
445.394	29116.14
445.6	29058.8
445.807	31672.01
446.013	30215.9
446.22	30889.68
446.426	32116.42
446.633	32216.77
446.839	33373.87
447.046	31956.68
447.252	33492.65
447.459	33937.06
447.665	33867.43
447.871	35073.68
448.078	36552.32
448.284	34819.74
448.491	35786.38
448.697	37056.12
448.903	37733.99
449.11	37570.16
449.316	36892.28
449.522	37502.57
449.728	39013.98
449.935	38911.58
450.141	38747.74
450.347	39839.31
450.553	38612.57
450.76	38995.54
450.966	40433.22
451.172	39951.95
451.378	40791.61
451.584	40226.37
451.791	40914.49
451.997	40941.11
452.203	41461.3
452.409	41143.86
452.615	41180.73
452.821	39224.92
453.027	38854.23
453.233	41307.7
453.44	39509.58
453.646	40087.11
453.852	40091.21
454.058	40812.09
454.264	39351.89
454.47	39904.84
454.676	39165.53
454.882	40609.34
455.088	36937.34
455.294	37541.49
455.5	38364.77
455.705	38489.7
455.911	36923
456.117	36490.88
456.323	35786.38
456.529	33681.06
456.735	35163.79
456.941	34356.89
457.147	33928.87
457.352	32751.29
457.558	32491.19
457.764	32638.65
457.97	31915.72
458.176	31080.14
458.381	30871.25
458.587	29519.59
458.793	29568.74
458.999	27815.68
459.204	29830.88
459.41	29066.99
459.616	27086.61
459.821	26908.43
460.027	27055.89
460.233	26560.28
460.438	25540.39
460.644	25745.19
460.85	24414.01
461.055	24121.15
461.261	24082.24
461.466	22310.74
461.672	21426.02
461.878	23363.4
462.083	21442.4
462.289	21137.26
462.494	21321.57
462.7	20137.85
462.905	19394.43
463.111	20160.38
463.316	20084.6
463.522	19806.08
463.727	20117.37
463.932	19752.83
464.138	19597.18
464.343	19488.64
464.549	19081.1
464.754	19797.88
464.959	19353.48
465.165	19208.07
465.37	18859.91
465.575	18231.19
465.781	18827.15
465.986	19113.86
466.191	18319.25
466.397	18005.91
466.602	17319.84
466.807	18085.78
467.012	17799.07
467.218	17713.05
467.423	17444.77
467.628	17723.29
467.833	18358.16
468.038	17547.17
468.244	17174.44
468.449	17665.95
468.654	17340.32
468.859	17225.64
469.064	16897.96
469.269	16549.81
469.474	16789.42
469.679	16676.78
469.885	16125.88
470.09	16363.44
470.295	16431.02
470.5	16076.73
470.705	16144.31
470.91	15722.43
471.115	15531.97
471.32	15775.67
471.525	15779.77
471.73	15448
471.935	15255.49
472.139	14723.02
472.344	14946.25
472.549	15093.7
472.754	14598.09
472.959	14393.3
473.164	13854.68
473.369	14079.96
473.574	14436.3
473.778	14098.39
473.983	13961.17
474.188	13883.35
474.393	13359.07
474.598	13424.61
474.802	13430.75
475.007	13119.46
475.212	13318.11
475.417	12826.6
475.621	12851.17
475.826	12802.02
476.031	12640.23
476.235	12345.33
476.44	12613.61
476.645	12439.53
476.849	12339.18
477.054	12019.7
477.259	11788.28
477.463	11810.81
477.668	11687.93
477.872	11898.87
478.077	11644.92
478.282	11319.29
478.486	11180.03
478.691	11182.08
478.895	11319.29
479.1	10946.56
479.304	11186.18
479.509	10878.98
479.713	11020.29
479.918	10752.01
480.122	10663.94
480.326	10905.6
480.531	10926.08
480.735	10614.79
480.94	10366.99
481.144	10817.54
481.348	10340.36
481.553	10391.56
481.757	10512.39
481.961	10342.41
482.166	10684.42
482.37	10622.98
482.574	10328.08
482.778	10260.49
482.983	10547.21
483.187	10541.07
483.391	10553.35
483.595	10164.24
483.8	10215.44
484.004	10440.72
484.208	10629.13
484.412	10459.15
484.616	10244.11
484.821	10280.97
485.025	10125.33
485.229	10504.2
485.433	10473.48
485.637	10360.84
485.841	10297.36
486.045	10131.47
486.249	10381.32
486.453	10317.84
486.657	10426.38
486.861	10555.4
487.065	10160.14
487.269	10512.39
487.473	10176.53
487.677	10616.84
487.881	10631.18
488.085	10475.53
488.289	10561.55
488.493	10334.22
488.697	10473.48
488.901	10569.74
489.105	10418.19
489.309	10338.32
489.512	10577.93
489.716	10545.16
489.92	10647.56
490.124	10571.79
490.328	10706.95
490.531	10614.79
490.735	10600.46
490.939	10639.37
491.143	10508.3
491.346	10850.31
491.55	10866.69
491.754	10958.85
491.958	10756.1
492.161	10895.36
492.365	10952.71
492.569	10938.37
492.772	11132.93
492.976	11278.33
493.18	11030.53
493.383	11241.47
493.587	11307.01
493.79	11468.8
493.994	11442.17
494.197	11556.86
494.401	11403.26
494.605	11571.19
494.808	11640.83
495.012	11669.5
495.215	11823.09
495.419	11970.55
495.622	11775.99
495.825	12285.94
496.029	12023.8
496.232	12515.31
496.436	12593.13
496.639	12777.45
496.843	12599.27
497.046	13074.4
497.249	13023.2
497.453	12920.81
497.656	13256.67
497.859	13211.62
498.063	13416.41
498.266	13830.1
498.469	13664.22
498.673	13858.78
498.876	14116.82
499.079	14153.68
499.282	14415.82
499.485	14471.12
499.689	14487.5
499.892	14839.75
500.095	14983.11
500.298	15230.91
500.501	14919.62
500.705	15431.62
500.908	15658.94
501.111	15830.97
501.314	16097.21
501.517	16058.29
501.72	16613.29
501.923	16297.91
502.126	16830.38
502.329	16873.39
502.532	17209.25
502.735	17229.73
502.938	17573.79
503.141	17430.43
503.344	17696.67
503.547	17934.23
503.75	18093.97
503.953	18421.65
504.156	18687.89
504.359	18683.79
504.562	18683.79
504.765	19394.43
504.968	19287.94
505.17	19804.03
505.373	19699.58
505.576	20141.94
505.779	20258.68
505.982	20557.68
506.185	20742
506.387	20807.53
506.59	20928.36
506.793	21413.73
506.996	21618.53
507.198	22151
507.401	21960.54
507.604	22351.7
507.807	22855.5
508.009	22884.17
508.212	22890.32
508.415	23213.9
508.617	23582.53
508.82	23768.9
509.022	23818.05
509.225	24409.91
509.428	24248.12
509.63	24819.5
509.833	24747.83
510.035	25255.72
510.238	25360.17
510.44	25696.03
510.643	25653.03
510.845	26306.33
511.048	26083.1
511.25	26588.95
511.453	26748.69
511.655	27651.84
511.858	27401.99
512.06	27277.07
512.262	27778.82
512.465	27588.36
512.667	28380.92
512.87	28694.26
513.072	29011.7
513.274	29327.08
513.477	29648.61
513.679	29890.27
513.881	30224.09
514.084	30064.35
514.286	30334.68
514.488	30637.78
514.69	31565.51
514.893	31723.21
515.095	31958.72
515.297	32210.62
515.499	32347.84
515.701	32943.8
515.904	33148.59
516.106	33468.08
516.308	33326.77
516.51	33707.69
516.712	34074.27
516.914	34483.87
517.116	35217.04
517.318	35143.31
517.52	35110.55
517.722	35579.53
517.925	35962.5
518.127	36331.14
518.329	36789.88
518.531	36818.55
518.733	37109.36
518.935	37473.9
519.136	37389.94
519.338	38096.49
519.54	38069.86
519.742	38839.9
519.944	38813.27
520.146	39460.43
520.348	39577.17
520.55	40017.48
520.752	39788.11
520.954	40732.22
521.155	40357.44
521.357	41121.34
521.559	41039.42
521.761	41877.04
521.963	41885.23
522.164	42391.08
522.366	42348.07
522.568	42425.89
522.77	42774.05
522.971	43314.71
523.173	43499.03
523.375	43757.07
523.576	43626
523.778	44160.52
523.98	44531.2
524.181	44719.62
524.383	44547.59
524.584	45284.86
524.786	45213.18
524.988	45106.68
525.189	45628.91
525.391	46271.98
525.592	46177.77
525.794	46538.21
525.995	46083.56
526.197	46654.95
526.398	46765.54
526.6	47121.88
526.801	47058.4
527.003	47609.3
527.204	47252.95
527.406	47857.1
527.607	47734.23
527.808	48465.35
528.01	47644.12
528.211	47949.26
528.412	49012.16
528.614	48774.59
528.815	48455.11
529.016	49681.84
529.218	48790.98
529.419	48997.82
529.62	49511.86
529.822	48938.43
530.023	49577.4
530.224	49618.36
530.425	49548.73
530.626	49348.03
530.828	49014.21
531.029	50527.66
531.23	49606.07
531.431	49806.77
531.632	49731
531.833	49927.6
532.035	49634.74
532.236	49921.46
532.437	50220.46
532.638	50027.95
532.839	50632.1
533.04	50531.75
533.241	50585
533.442	50722.21
533.643	50679.21
533.844	50482.6
534.045	50906.53
534.246	50310.57
534.447	50914.72
534.648	50423.21
534.849	50955.68
535.05	50742.69
535.251	50818.47
535.451	50671.01
535.652	50826.66
535.853	50920.87
536.054	51281.31
536.255	51105.18
536.456	50447.78
536.657	51305.88
536.857	50660.77
537.058	50658.73
537.259	50822.56
537.46	50967.97
537.66	51094.94
537.861	51113.37
538.062	50970.02
538.263	51426.71
538.463	50675.11
538.664	50976.16
538.865	51021.22
539.065	51256.73
539.266	50546.09
539.466	51072.42
539.667	50333.1
539.868	51119.52
540.068	51121.57
540.269	51033.5
540.469	51434.91
540.67	50927.01
540.87	51019.17
541.071	50953.63
541.271	50929.06
541.472	50630.05
541.672	50464.17
541.873	50793.89
542.073	50171.31
542.274	51219.87
542.474	50802.08
542.675	50191.79
542.875	50668.97
543.075	50918.82
543.276	50116.01
543.476	50978.21
543.676	50322.86
543.877	50548.14
544.077	50273.71
544.277	50341.29
544.478	50425.26
544.678	50955.68
544.878	50625.96
545.078	50736.55
545.279	50003.38
545.479	50496.94
545.679	50781.6
545.879	50800.04
546.079	50707.88
546.28	50685.35
546.48	50455.98
546.68	50830.76
546.88	50494.89
547.08	50419.11
547.28	50263.47
547.48	50099.63
547.68	50322.86
547.88	49941.94
548.081	50574.76
548.281	50408.87
548.481	50050.48
548.681	50810.28
548.881	50322.86
549.081	50494.89
549.28	49708.47
549.48	50623.91
549.68	50304.43
549.88	50912.67
550.08	49876.4
550.28	50322.86
550.48	50097.58
550.68	50707.88
550.88	49831.35
551.08	49974.7
551.279	50113.97
551.479	49774
551.679	50073.01
551.879	49819.06
552.079	50062.77
552.278	49712.56
552.478	49864.11
552.678	49931.7
552.878	50081.2
553.077	49749.43
553.277	49413.56
553.477	49972.66
553.676	49905.07
553.876	49452.47
554.076	49399.22
554.275	49489.34
554.475	49165.76
554.674	49722.8
554.874	49573.3
555.074	49386.94
555.273	49685.94
555.473	49659.32
555.672	49331.64
555.872	49366.46
556.071	49446.33
556.271	49288.63
556.47	49145.28
556.67	49044.93
556.869	49192.38
557.068	49323.45
557.268	49157.56
557.467	48729.54
557.667	49194.43
557.866	48971.2
558.065	48741.83
558.265	48860.61
558.464	48377.29
558.663	48944.58
558.863	47734.23
559.062	49085.89
559.261	48121.29
559.461	48954.82
559.66	47855.06
559.859	48229.83
560.058	48049.61
560.258	48233.93
560.457	47941.07
560.656	48086.48
560.855	47476.18
561.054	48317.9
561.253	47435.22
561.453	48082.38
561.652	47766.99
561.851	47429.08
562.05	47363.54
562.249	47087.07
562.448	47539.67
562.647	47287.77
562.846	47267.29
563.045	46878.18
563.244	46730.72
563.443	46966.24
563.642	46540.26
563.841	46964.19
564.04	46104.04
564.239	47119.84
564.438	46220.78
564.637	46566.88
564.836	46216.68
565.035	45940.21
565.234	46411.24
565.432	45854.19
565.631	45770.22
565.83	46235.11
566.029	45737.46
566.228	45389.3
566.427	45223.42
566.625	45442.55
566.824	45039.1
567.023	45383.16
567.222	44627.46
567.42	45073.91
567.619	45172.22
567.818	44932.61
568.016	45139.45
568.215	45049.34
568.414	44305.93
568.612	44883.45
568.811	44619.27
569.01	44465.67
569.208	43718.16
569.407	44371.46
569.605	43937.29
569.804	44109.32
570.002	43853.33
570.201	44318.21
570.4	43329.05
570.598	43781.65
570.797	43052.57
570.995	43118.1
571.193	42823.2
571.392	43294.23
571.59	42778.14
571.789	43136.54
571.987	42829.34
572.186	42823.2
572.384	42524.19
572.582	42636.83
572.781	42774.05
572.979	41971.24
573.177	42225.19
573.376	42276.39
573.574	41754.16
573.772	42018.35
573.971	41449.01
574.169	41694.77
574.367	41606.7
574.565	41502.26
574.763	41221.69
574.962	41436.72
575.16	41385.52
575.358	40904.25
575.556	40705.6
575.754	41209.4
575.952	40437.31
576.151	40627.77
576.349	40257.09
576.547	40326.72
576.745	40652.35
576.943	40523.33
577.141	40103.49
577.339	40265.28
577.537	39978.57
577.735	40025.67
577.933	39448.14
578.131	39839.31
578.329	39136.85
578.527	38991.45
578.725	39630.41
578.923	39577.17
579.121	39374.42
579.319	38930.01
579.516	39214.68
579.714	39042.65
579.912	38655.58
580.11	38854.23
580.308	38823.51
580.506	38350.43
580.704	38219.36
580.901	38336.1
581.099	38270.56
581.297	37926.5
581.495	37793.39
581.692	38391.39
581.89	37774.95
582.088	37996.13
582.285	37598.83
582.483	37453.42
582.681	37482.09
582.878	37230.19
583.076	37015.16
583.274	37389.94
583.471	36808.31
583.669	37000.82
583.866	36642.43
584.064	36824.7
584.262	36087.43
584.459	36982.39
584.657	36290.18
584.854	36677.24
585.052	35323.54
585.249	36224.64
585.447	36220.55
585.644	35554.96
585.841	36021.89
586.039	36118.15
586.236	35497.61
586.434	35438.22
586.631	35004.05
586.828	35511.95
587.026	35255.95
587.223	35128.98
587.42	34832.02
587.618	35075.73
587.815	34672.28
588.012	34623.13
588.21	34487.96
588.407	35108.5
588.604	34399.9
588.801	34072.23
588.999	34127.52
589.196	34076.32
589.393	34094.75
589.59	34008.74
589.787	33515.18
589.984	33543.85
590.182	33259.18
590.379	33603.24
590.576	33334.96
590.773	33674.92
590.97	32923.32
591.167	33314.48
591.364	32888.5
591.561	33023.67
591.758	32695.99
591.955	32630.46
592.152	32773.81
592.349	32423.61
592.546	32505.53
592.743	32722.62
592.94	31899.33
593.137	32558.78
593.334	32034.5
593.531	31416.01
593.727	32214.72
593.924	31885
594.121	31639.24
594.318	31661.77
594.515	31311.56
594.712	31571.66
594.908	31418.06
595.105	31145.68
595.302	31014.61
595.499	30895.83
595.696	30918.35
595.892	30850.77
596.089	30971.6
596.286	30955.22
596.482	30686.93
596.679	30613.21
596.876	30834.39
597.072	30183.13
597.269	30342.88
597.466	30236.38
597.662	29910.75
597.859	29908.71
598.055	29863.65
598.252	29609.7
598.448	29726.44
598.645	29757.16
598.841	29751.01
599.038	29742.82
599.234	29652.71
599.431	29527.78
599.627	29234.92
599.824	29380.33
600.02	28958.45
600.217	29228.78
600.413	28772.08
600.609	28735.22
600.806	28616.44
601.002	28784.37
601.198	28397.31
601.395	28292.86
601.591	28421.88
601.787	28468.98
601.984	28333.82
602.18	28366.59
602.376	28116.73
602.572	27875.07
602.769	27979.52
602.965	27715.33
603.161	27670.28
603.357	27637.51
603.553	27158.28
603.75	27823.87
603.946	27213.58
604.142	27082.51
604.338	27102.99
604.534	27238.16
604.73	26509.08
604.926	26918.67
605.122	26992.4
605.318	26699.54
605.514	26699.54
605.71	26482.45
605.906	26578.71
606.102	26705.68
606.298	26451.74
606.494	26363.67
606.69	26070.81
606.886	26328.86
607.082	25863.97
607.278	26064.67
607.474	25569.06
607.67	26158.88
607.866	25915.17
608.062	26021.66
608.257	25853.73
608.453	25683.75
608.649	25673.51
608.845	25245.48
609.041	25274.15
609.236	25739.04
609.432	25239.34
609.628	25290.54
609.824	25311.02
610.019	24858.42
610.215	25022.25
610.411	25048.88
610.606	24899.37
610.802	25181.99
610.998	24876.85
611.193	25274.15
611.389	24833.84
611.584	24694.58
611.78	24497.97
611.976	24516.4
612.171	24465.21
612.367	24637.23
612.562	24188.73
612.758	24166.2
612.953	24178.49
613.149	24577.84
613.344	24205.11
613.539	24661.81
613.735	24139.58
613.93	24409.91
614.126	24072
614.321	24387.38
614.517	23797.57
614.712	23818.05
614.907	23748.42
615.103	24334.14
615.298	23658.31
615.493	24051.52
615.688	23590.72
615.884	24016.7
616.079	23478.08
616.274	23748.42
616.47	23428.93
616.665	23609.15
616.86	23191.37
617.055	23383.88
617.25	23261
617.445	23398.21
617.641	22882.13
617.836	23349.06
618.031	22781.78
618.226	23168.84
618.421	22808.4
618.616	23203.66
618.811	22497.11
619.006	22949.71
619.201	22445.91
619.396	22544.21
619.591	21970.78
619.786	22384.47
619.981	21964.64
620.176	22394.71
620.371	22237.02
620.566	22185.82
620.761	21862.24
620.956	21948.25
621.151	21466.98
621.346	21845.85
621.541	21391.2
621.735	21878.62
621.93	21145.45
622.125	21491.55
622.32	21184.36
622.515	21112.68
622.709	20823.92
622.904	20760.43
623.099	20615.02
623.294	20600.69
623.488	20512.63
623.683	20332.4
623.878	20330.36
624.072	20301.68
624.267	20080.5
624.462	20090.74
624.656	20154.23
624.851	19816.32
625.046	19984.25
625.24	19433.35
625.435	19564.42
625.629	19447.68
625.824	19187.59
626.018	19306.37
626.213	18798.48
626.407	19187.59
626.602	18775.95
626.796	18769.8
626.991	18790.28
627.185	18724.75
627.38	18671.5
627.574	18421.65
627.768	18155.41
627.963	18366.35
628.157	17997.72
628.352	18159.51
628.546	17719.2
628.74	17973.14
628.935	17622.94
629.129	17780.64
629.323	17426.34
629.517	17520.54
629.712	17391.52
629.906	17463.2
630.1	16879.53
630.294	17397.67
630.489	16867.24
630.683	17145.77
630.877	16623.53
631.071	16750.51
631.265	16971.69
631.459	16830.38
631.653	16488.37
631.848	16486.32
632.042	16428.98
632.236	16594.86
632.43	16412.59
632.624	16224.18
632.818	16263.09
633.012	16103.35
633.206	16015.29
633.4	15896.5
633.594	15554.49
633.788	15654.84
633.982	15931.32
634.176	15499.2
634.369	15660.99
634.563	15345.6
634.757	15310.79
634.951	15232.96
635.145	14909.38
635.339	15187.91
635.533	14946.25
635.726	14718.92
635.92	14602.19
636.114	14700.49
636.308	14522.32
636.501	14725.07
636.695	14530.51
636.889	14497.74
637.083	14110.68
637.276	14096.34
637.47	14344.14
637.664	14059.48
637.857	13959.13
638.051	13899.73
638.244	13844.44
638.438	13881.3
638.632	13807.58
638.825	13629.4
639.019	13649.88
639.212	13760.47
639.406	13514.72
639.599	13221.86
639.793	13424.61
639.986	13117.41
640.18	13088.74
640.373	13037.54
640.567	12814.31
640.76	13129.7
640.954	12605.42
641.147	12761.06
641.34	12775.4
641.534	12761.06
641.727	12599.27
641.92	12646.38
642.114	12148.72
642.307	12560.36
642.5	12304.37
642.694	12304.37
642.887	11937.78
643.08	12179.44
643.273	12011.51
643.467	12201.97
643.66	11825.14
643.853	12019.7
644.046	11593.72
644.239	11712.5
644.432	11640.83
644.626	11270.14
644.819	11560.95
645.012	11479.04
645.205	11413.5
645.398	11507.71
645.591	11415.55
645.784	11497.47
645.977	11061.25
646.17	11182.08
646.363	10917.89
646.556	10772.49
646.749	10909.7
646.942	10774.53
647.135	10960.9
647.328	10704.9
647.521	10817.54
647.714	10369.04
647.907	10600.46
648.099	10555.4
648.292	10549.26
648.485	10375.18
648.678	10235.92
648.871	10248.21
649.064	10223.63
649.256	10158.1
649.449	10266.64
649.642	10027.03
649.835	10096.66
650.027	10074.13
650.22	9895.96
650.413	9682.97
650.605	10033.17
650.798	9799.7
650.991	9793.56
651.183	9648.15
651.376	9408.54
651.568	9732.12
651.761	9457.69
651.954	9547.8
652.146	9453.59
652.339	9416.73
652.531	9123.87
652.724	9345.05
652.916	9064.48
653.109	9261.09
653.301	9205.79
653.494	9123.87
653.686	9000.99
653.879	9056.29
654.071	8882.21
654.263	8767.52
654.456	8892.45
654.648	8837.16
654.84	8611.88
655.033	8663.08
655.225	8450.09
655.417	8620.07
655.61	8712.23
655.802	8693.8
655.994	8474.67
656.186	8554.54
656.379	8405.03
656.571	8362.03
656.763	8472.62
656.955	8288.3
657.148	8194.09
657.34	8298.54
657.532	8112.17
657.724	8024.11
657.916	8091.7
658.108	8106.03
658.3	7942.19
658.492	7751.73
658.684	7972.91
658.876	7839.8
659.068	7884.85
659.26	7721.01
659.452	7702.58
659.644	7628.85
659.836	7764.02
660.028	7641.14
660.22	7204.92
660.412	7516.22
660.604	7485.5
660.796	7413.82
660.988	7379
661.18	7333.95
661.372	7194.68
661.563	7282.75
661.755	7282.75
661.947	7153.73
662.139	7217.21
662.331	7249.98
662.522	7055.42
662.714	7051.33
662.906	6910.02
663.097	6973.5
663.289	6899.78
663.481	6844.48
663.673	6860.87
663.864	6590.53
664.056	6764.61
664.247	6963.26
664.439	6602.82
664.631	6676.55
664.822	6688.84
665.014	6641.73
665.205	6563.91
665.397	6502.47
665.588	6494.28
665.78	6475.85
665.971	6400.07
666.163	6371.4
666.354	6395.98
666.546	6215.76
666.737	6275.15
666.929	6424.65
667.12	6123.6
667.311	6365.26
667.503	6234.19
667.694	6129.74
667.885	6178.89
668.077	6117.45
668.268	6172.75
668.459	6111.31
668.651	6234.19
668.842	6174.8
669.033	6023.25
669.224	5886.03
669.416	6041.68
669.607	5898.32
669.798	5926.99
669.989	6058.06
670.18	5826.64
670.371	5826.64
670.563	5765.2
670.754	5843.03
670.945	5666.9
671.136	5838.93
671.327	5777.49
671.518	5722.2
671.709	5834.83
671.9	5771.35
672.091	5742.68
672.282	5607.51
672.473	5623.89
672.664	5595.22
672.855	5566.55
673.046	5515.35
673.237	5619.8
673.428	5556.31
673.619	5423.19
673.809	5458.01
674	5634.13
674.191	5314.65
674.382	5343.32
674.573	5337.18
674.764	5308.51
674.954	5404.76
675.145	5371.99
675.336	5302.36
675.527	5326.94
675.717	5271.64
675.908	5322.84
676.099	5255.26
676.289	5275.74
676.48	5331.03
676.671	5062.75
676.861	5247.07
677.052	5013.6
677.243	5001.31
677.433	5107.8
677.624	5234.78
677.814	5070.94
678.005	5052.51
678.195	4986.97
678.386	5021.79
678.576	4931.68
678.767	4946.02
678.957	5075.04
679.148	5087.33
679.338	5124.19
679.529	5009.5
679.719	4966.49
679.909	5013.6
680.1	4917.34
680.29	4970.59
680.481	4927.58
680.671	4894.82
680.861	4954.21
681.052	4984.93
681.242	4905.06
681.432	4821.09
681.622	4749.41
681.813	4878.43
682.003	4835.42
682.193	4886.62
682.383	4847.71
682.573	4860
682.764	4876.38
682.954	4921.44
683.144	4773.99
683.334	4673.64
683.524	4730.98
683.714	4782.18
683.904	4704.35
684.094	4634.72
684.284	4788.32
684.474	4685.92
684.664	4773.99
684.854	4675.68
685.044	4604
685.234	4528.23
685.424	4630.63
685.614	4667.49
685.804	4671.59
685.994	4647.01
686.184	4612.2
686.374	4511.85
686.564	4573.28
686.753	4520.04
686.943	4386.92
687.133	4440.17
687.323	4530.28
687.513	4405.35
687.702	4417.64
687.892	4434.02
688.082	4386.92
688.272	4429.93
688.461	4354.15
688.651	4354.15
688.841	4309.1
689.03	4206.7
689.22	4245.61
689.41	4173.93
689.599	4216.94
689.789	4237.42
689.979	4192.36
690.168	4259.95
690.358	4094.06
690.547	4325.48
690.737	4151.4
690.926	4173.93
691.116	4157.55
691.305	4049
691.495	4145.26
691.684	4087.92
691.874	3962.99
692.063	4118.64
692.252	3938.41
692.442	4008.05
692.631	3919.98
692.82	3922.03
693.01	3942.51
693.199	3938.41
693.388	3879.02
693.578	3795.06
693.767	3975.28
693.956	3833.97
694.146	3842.16
694.335	3815.54
694.524	3770.48
694.713	3854.45
694.902	3711.09
695.092	3831.92
695.281	3889.26
695.47	3817.58
695.659	3756.15
695.848	3745.91
696.037	3709.04
696.226	3620.98
696.415	3657.84
696.604	3745.91
696.793	3623.03
696.982	3827.82
697.171	3754.1
697.36	3782.77
697.549	3629.17
697.738	3641.46
697.927	3584.12
698.116	3526.77
698.305	3594.36
698.494	3696.75
698.683	3608.69
698.872	3694.71
699.061	3700.85
699.25	3559.54
699.438	3510.39
699.627	3557.49
699.816	3639.41
700.005	3504.25
700.193	3569.78
700.382	3414.13
700.571	3561.59
700.76	3604.6
700.948	3526.77
701.137	3612.79
701.326	3569.78
701.514	3381.37
701.703	3369.08
701.892	3457.14
702.08	3438.71
702.269	3440.76
702.457	3487.86
702.646	3510.39
702.834	3375.22
703.023	3432.57
703.212	3457.14
703.4	3549.3
703.589	3412.09
703.777	3438.71
703.965	3364.98
704.154	3360.89
704.342	3418.23
704.531	3414.13
704.719	3276.92
704.907	3371.13
705.096	3344.5
705.284	3416.18
705.472	3393.65
705.661	3410.04
705.849	3459.19
706.037	3455.09
706.226	3328.12
706.414	3330.17
706.602	3336.31
706.79	3324.02
706.979	3403.89
707.167	3311.74
707.355	3430.52
707.543	3293.3
707.731	3401.85
707.919	3389.56
708.107	3213.43
708.296	3276.92
708.484	3283.06
708.672	3258.49
708.86	3270.78
709.048	3467.38
709.236	3168.38
709.424	3278.97
709.612	3375.22
709.8	3246.2
709.988	3311.74
710.176	3393.65
710.364	3459.19
710.551	3201.15
710.739	3262.58
710.927	3186.81
711.115	3330.17
711.303	3061.88
711.491	3192.95
711.679	3160.19
711.866	3223.67
712.054	3324.02
712.242	3278.97
712.43	3248.25
712.617	3123.32
712.805	3254.39
712.993	3190.91
713.181	3139.71
713.368	3229.82
713.556	3250.3
713.744	3147.9
713.931	3145.85
714.119	3135.61
714.306	3127.42
714.494	3203.19
714.682	3133.56
714.869	3164.28
715.057	3176.57
715.244	3164.28
715.432	3219.58
715.619	3160.19
715.807	3188.86
715.994	3188.86
716.182	3227.77
716.369	3229.82
716.556	3133.56
716.744	3215.48
716.931	3151.99
717.119	3233.91
717.306	3219.58
717.493	3092.6
717.681	3108.99
717.868	3211.39
718.055	3131.51
718.242	3209.34
718.43	3147.9
718.617	3207.29
718.804	3018.88
718.991	3158.14
719.179	3131.51
719.366	3055.74
719.553	3098.75
719.74	3090.56
719.927	3027.07
720.114	2979.97
720.301	3082.36
720.488	3022.97
720.676	3068.03
720.863	3135.61
721.05	3096.7
721.237	3039.36
721.424	3113.08
721.611	3143.8
721.798	2994.3
721.985	3145.85
722.172	2959.49
722.358	3121.28
722.545	3014.78
722.732	3002.49
722.919	3078.27
723.106	3035.26
723.293	2918.53
723.48	3082.36
723.667	2945.15
723.853	2984.06
724.04	2963.58
724.227	2971.77
724.414	2887.81
724.6	3002.49
724.787	2852.99
724.974	2994.3
725.161	3022.97
725.347	2934.91
725.534	2871.42
725.72	2994.3
725.907	2967.68
726.094	2982.01
726.28	2832.51
726.467	2965.63
726.653	2939.01
726.84	2852.99
727.027	2939.01
727.213	2814.08
727.4	2885.76
727.586	2959.49
727.773	2740.35
727.959	2971.77
728.145	2848.9
728.332	2877.57
728.518	2896
728.705	2918.53
728.891	2924.67
729.077	2977.92
729.264	2797.7
729.45	2846.85
729.636	2844.8
729.823	2758.78
730.009	3025.02
730.195	2883.71
730.382	2740.35
730.568	2869.37
730.754	2828.42
730.94	2873.47
731.126	2902.14
731.313	2904.19
731.499	3018.88
731.685	2844.8
731.871	2791.55
732.057	2846.85
732.243	2863.23
732.429	2814.08
732.615	2930.81
732.801	2777.22
732.987	2758.78
733.173	2893.95
733.359	2732.16
733.545	2812.03
733.731	2861.18
733.917	2777.22
734.103	2644.1
734.289	2820.22
734.475	2773.12
734.661	2726.02
734.847	2769.02
735.033	2785.41
735.219	2848.9
735.404	2570.37
735.59	2631.81
735.776	2672.77
735.962	2707.59
736.148	2703.49
736.333	2766.98
736.519	2683.01
736.705	2615.43
736.89	2676.87
737.076	2726.02
737.262	2523.27
737.447	2588.8
737.633	2568.32
737.819	2607.23
738.004	2597
738.19	2486.4
738.375	2617.47
738.561	2748.54
738.747	2617.47
738.932	2388.1
739.118	2646.15
739.303	2607.23
739.489	2703.49
739.674	2607.23
739.859	2652.29
740.045	2510.98
740.23	2529.41
740.416	2404.49
740.601	2523.27
740.786	2447.49
740.972	2455.69
741.157	2488.45
741.342	2457.73
741.528	2523.27
741.713	2519.17
741.898	2582.66
742.084	2365.57
742.269	2377.86
742.454	2410.63
742.639	2486.4
742.824	2500.74
743.01	2338.95
743.195	2357.38
743.38	2398.34
743.565	2273.42
743.75	2377.86
743.935	2228.36
744.12	2465.93
744.305	2369.67
744.49	2216.07
744.675	2310.28
744.86	2433.16
745.045	2216.07
745.23	2240.65
745.415	2379.91
745.6	2341
745.785	2386.05
745.97	2222.22
746.155	2273.42
746.34	2207.88
746.525	2232.46
746.71	2195.59
746.895	2185.35
747.079	2068.62
747.264	2144.39
747.449	2046.09
747.634	2054.28
747.819	2080.91
748.003	2078.86
748.188	2144.39
748.373	2035.85
748.557	2152.59
748.742	2050.19
748.927	1945.74
749.111	1988.75
749.296	2052.24
749.481	1902.73
749.665	1972.36
749.85	1917.07
750.034	2121.87
750.219	2058.38
750.404	1888.4
750.588	1777.81
750.773	1824.91
750.957	1900.69
751.141	1783.95
751.326	1869.97
751.51	1691.79
751.695	1898.64
751.879	1667.22
752.064	1816.72
752.248	1759.38
752.432	1820.81
752.617	1704.08
752.801	1681.55
752.985	1738.9
753.17	1716.37
753.354	1716.37
753.538	1767.57
753.722	1597.59
753.907	1661.07
754.091	1671.31
754.275	1667.22
754.459	1581.2
754.643	1599.63
754.828	1642.64
755.012	1611.92
755.196	1628.31
755.38	1544.34
755.564	1626.26
755.748	1618.07
755.932	1624.21
756.116	1513.62
756.3	1550.48
756.484	1450.13
756.668	1597.59
756.852	1491.09
757.036	1452.18
757.22	1446.04
757.404	1433.75
757.588	1417.37
757.772	1435.8
757.956	1400.98
758.14	1431.7
758.323	1366.17
758.507	1419.41
758.691	1349.78
758.875	1364.12
759.059	1282.2
759.242	1349.78
759.426	1357.97
759.61	1362.07
759.794	1337.49
759.977	1396.89
760.161	1304.73
760.345	1286.3
760.528	1274.01
760.712	1212.57
760.895	1259.67
761.079	1222.81
761.263	1265.82
761.446	1198.23
761.63	1190.04
761.813	1267.86
761.997	1185.94
762.18	1185.94
762.364	1212.57
762.547	1155.23
762.731	1231
762.914	1235.1
763.098	1235.1
763.281	1210.52
763.464	1122.46
763.648	1149.08
763.831	1251.48
764.015	1101.98
764.198	1202.33
764.381	1202.33
764.564	1185.94
764.748	1208.47
764.931	1093.79
765.114	1104.03
765.297	1214.62
765.481	1132.7
765.664	1112.22
765.847	1101.98
766.03	1235.1
766.213	1040.54
766.397	1026.2
766.58	1071.26
766.763	1081.5
766.946	1075.35
767.129	1081.5
767.312	1054.87
767.495	1013.92
767.678	1018.01
767.861	985.24
768.044	1042.59
768.227	964.76
768.41	927.9
768.593	1042.59
768.776	1120.41
768.959	1015.96
769.142	1095.83
769.324	1034.39
769.507	936.09
769.69	874.65
769.873	1022.11
770.056	1067.16
770.239	952.48
770.421	970.91
770.604	1099.93
770.787	915.61
770.97	991.39
771.152	1003.68
771.335	975
771.518	1011.87
771.7	1042.59
771.883	903.32
772.066	966.81
772.248	993.44
772.431	899.23
772.613	983.2
772.796	1001.63
772.978	940.19
773.161	921.76
773.343	876.7
773.526	854.17
773.708	886.94
773.891	848.03
774.073	915.61
774.256	805.02
774.438	925.85
774.621	936.09
774.803	819.36
774.985	796.83
775.168	841.89
775.35	798.88
775.532	925.85
775.715	733.34
775.897	802.97
776.079	823.45
776.261	788.64
776.444	882.85
776.626	872.61
776.808	821.41
776.99	731.3
777.173	856.22
777.355	719.01
777.537	743.58
777.719	815.26
777.901	714.91
778.083	835.74
778.265	714.91
778.447	788.64
778.629	776.35
778.811	704.67
778.993	755.87
779.175	663.71
779.357	700.58
779.539	702.62
779.721	688.29
779.903	669.86
780.085	655.52
780.267	632.99
780.449	684.19
780.631	667.81
780.812	622.75
780.994	661.66
781.176	649.38
781.358	649.38
781.54	542.88
781.721	632.99
781.903	690.34
782.085	682.14
782.267	620.71
782.448	610.47
782.63	575.65
782.812	641.18
782.993	606.37
783.175	663.71
783.357	520.35
783.538	651.42
783.72	508.07
783.901	592.03
784.083	614.56
784.264	553.12
784.446	506.02
784.627	428.2
784.809	573.6
784.99	452.77
785.172	528.55
785.353	555.17
785.535	616.61
785.716	489.64
785.897	520.35
786.079	579.75
786.26	499.88
786.441	501.92
786.623	512.16
786.804	465.06
786.985	479.4
787.167	506.02
787.348	391.33
787.529	465.06
787.71	530.59
787.891	387.24
788.073	411.81
788.254	499.88
788.435	460.96
788.616	438.44
788.797	428.2
788.978	514.21
789.159	473.25
789.34	469.16
789.522	448.68
789.703	415.91
789.884	444.58
790.065	481.44
790.246	413.86
790.427	450.72
790.607	495.78
790.788	395.43
790.969	383.14
791.15	346.28
791.331	336.04
791.512	358.57
791.693	350.37
791.874	448.68
792.054	481.44
792.235	444.58
792.416	397.48
792.597	370.85
792.778	352.42
792.958	354.47
793.139	383.14
793.32	383.14
793.5	350.37
793.681	469.16
793.862	370.85
794.042	385.19
794.223	409.76
794.404	381.09
794.584	313.51
794.765	350.37
794.945	385.19
795.126	350.37
795.306	342.18
795.487	379.04
795.667	325.8
795.848	327.85
796.028	319.65
796.209	422.05
796.389	424.1
796.57	356.52
796.75	385.19
796.93	319.65
797.111	284.84
797.291	305.32
797.471	305.32
797.652	280.74
797.832	264.36
798.012	286.89
798.192	309.41
798.373	342.18
798.553	243.88
798.733	237.74
798.913	272.55
799.093	223.4
799.274	374.95
799.454	307.37
799.634	315.56
799.814	325.8
799.994	170.15
800.174	336.04
800.354	268.45
800.534	219.3
800.714	321.7
800.894	227.5
801.074	305.32
801.254	239.78
801.434	309.41
801.614	159.91
801.794	260.26
801.974	794.78
802.154	280.74
802.334	309.41
802.514	252.07
802.693	286.89
802.873	247.97
803.053	307.37
803.233	223.4
803.413	311.46
803.592	192.68
803.772	221.35
803.952	280.74
804.131	245.93
804.311	268.45
804.491	299.17
804.67	231.59
804.85	280.74
805.03	223.4
805.209	290.98
805.389	293.03
805.568	264.36
805.748	260.26
805.928	196.78
806.107	231.59
806.287	166.06
806.466	221.35
806.646	192.68
806.825	243.88
807.004	176.3
807.184	207.02
807.363	252.07
807.543	241.83
807.722	223.4
807.901	295.08
808.081	264.36
808.26	198.82
808.439	268.45
808.619	143.53
808.798	231.59
808.977	223.4
809.156	235.69
809.336	145.58
809.515	315.56
809.694	239.78
809.873	250.02
810.052	219.3
810.231	256.17
810.411	215.21
810.59	174.25
810.769	190.63
810.948	188.58
811.127	141.48
811.306	245.93
811.485	184.49
811.664	209.06
811.843	223.4
812.022	225.45
812.201	188.58
812.38	172.2
812.559	174.25
812.737	207.02
812.916	194.73
813.095	194.73
813.274	168.1
813.453	192.68
813.632	200.87
813.811	221.35
813.989	161.96
814.168	194.73
814.347	190.63
814.526	202.92
814.704	211.11
814.883	225.45
815.062	96.43
815.24	252.07
815.419	131.24
815.598	139.43
815.776	110.76
815.955	149.67
816.133	133.29
816.312	106.67
816.49	182.44
816.669	63.66
816.847	149.67
817.026	192.68
817.204	184.49
817.383	125.1
817.561	192.68
817.74	219.3
817.918	284.84
818.097	215.21
818.275	247.97
818.453	153.77
818.632	118.95
818.81	243.88
818.988	139.43
819.167	86.19
819.345	166.06
819.523	168.1
819.701	159.91
819.879	129.19
820.058	75.95
820.236	227.5
820.414	243.88
820.592	114.86
820.77	127.14
820.948	100.52
821.127	164.01
821.305	129.19
821.483	104.62
821.661	137.38
821.839	211.11
822.017	133.29
822.195	135.34
822.373	157.86
822.551	149.67
822.729	104.62
822.907	108.71
823.085	151.72
823.262	129.19
823.44	77.99
823.618	110.76
823.796	190.63
823.974	90.28
824.152	139.43
824.329	108.71
824.507	159.91
824.685	59.56
824.863	147.62
825.04	112.81
825.218	131.24
825.396	178.34
825.574	110.76
825.751	26.79
825.929	151.72
826.107	141.48
826.284	161.96
826.462	141.48
826.639	182.44
826.817	104.62
826.994	116.9
827.172	67.75
827.349	174.25
827.527	94.38
827.704	90.28
827.882	100.52
828.059	88.23
828.237	118.95
828.414	121
828.591	127.14
828.769	145.58
828.946	127.14
829.124	149.67
829.301	45.23
829.478	147.62
829.655	90.28
829.833	166.06
830.01	104.62
830.187	106.67
830.364	127.14
830.542	147.62
830.719	100.52
830.896	96.43
831.073	108.71
831.25	200.87
831.427	80.04
831.604	141.48
831.782	90.28
831.959	102.57
832.136	123.05
832.313	145.58
832.49	57.51
832.667	106.67
832.844	82.09
833.021	114.86
833.198	104.62
833.374	100.52
833.551	110.76
833.728	104.62
833.905	116.9
834.082	123.05
834.259	133.29
834.436	90.28
834.612	71.85
834.789	176.3
834.966	47.27
835.143	84.14
835.319	0.17
835.496	129.19
835.673	8.36
835.85	49.32
836.026	110.76
836.203	129.19
836.38	61.61
836.556	133.29
836.733	112.81
836.909	147.62
837.086	88.23
837.262	59.56
837.439	133.29
837.616	112.81
837.792	65.71
837.968	80.04
838.145	26.79
838.321	100.52
838.498	129.19
838.674	129.19
838.851	112.81
839.027	98.47
839.203	30.89
839.38	118.95
839.556	125.1
839.732	71.85
839.909	112.81
840.085	110.76
840.261	104.62
840.437	61.61
840.614	104.62
840.79	104.62
840.966	39.08
841.142	104.62
841.318	86.19
841.494	133.29
841.671	63.66
841.847	80.04
842.023	90.28
842.199	80.04
842.375	73.9
842.551	37.03
842.727	139.43
842.903	102.57
843.079	80.04
843.255	112.81
843.431	88.23
843.607	157.86
843.783	75.95
843.959	51.37
844.134	10.41
844.31	121
844.486	39.08
844.662	10.41
844.838	28.84
845.013	96.43
845.189	61.61
845.365	174.25
845.541	86.19
845.716	92.33
845.892	106.67
846.068	53.42
846.244	86.19
846.419	133.29
846.595	22.7
846.77	49.32
846.946	92.33
847.122	96.43
847.297	24.75
847.473	143.53
847.648	104.62
847.824	80.04
847.999	26.79
848.175	92.33
848.35	75.95
848.526	-5.97
848.701	75.95
848.876	0.17
849.052	137.38
849.227	39.08
849.403	49.32
849.578	28.84
849.753	129.19
849.929	63.66
850.104	14.51
850.279	116.9
850.454	80.04
850.63	53.42
850.805	41.13
850.98	77.99
851.155	94.38
851.33	-12.12
851.505	18.6
851.681	118.95
851.856	90.28
852.031	104.62
852.206	100.52
852.381	80.04
852.556	8.36
852.731	65.71
852.906	80.04
853.081	51.37
853.256	94.38
853.431	-3.93
853.606	-24.4
853.781	100.52
853.956	71.85
854.131	80.04
854.305	24.75
854.48	80.04
854.655	0.17
854.83	65.71
855.005	77.99
855.18	39.08
855.354	75.95
855.529	133.29
855.704	24.75
855.879	57.51
856.053	18.6
856.228	45.23
856.403	16.55
856.577	125.1
856.752	32.94
856.926	71.85
857.101	-38.74
857.276	26.79
857.45	47.27
857.625	45.23
857.799	-1.88
857.974	86.19
858.148	-5.97
858.323	88.23
858.497	-20.31
858.672	53.42
858.846	84.14
859.02	71.85
859.195	-18.26
859.369	47.27
859.543	67.75
859.718	-10.07
859.892	118.95
860.066	82.09
860.241	18.6
860.415	22.7
860.589	-42.84
860.763	-5.97
860.938	28.84
861.112	94.38
861.286	6.31
861.46	69.8
861.634	-8.02
861.808	67.75
861.982	6.31
862.157	34.99
862.331	24.75
862.505	37.03
862.679	69.8
862.853	73.9
863.027	32.94
863.201	75.95
863.375	10.41
863.549	55.47
863.722	-46.93
863.896	16.55
864.07	59.56
864.244	43.18
864.418	41.13
864.592	20.65
864.766	24.75
864.939	43.18
865.113	8.36
865.287	96.43
865.461	39.08
865.634	34.99
865.808	-53.08
865.982	77.99
866.156	-51.03
866.329	22.7
866.503	18.6
866.676	127.14
866.85	18.6
867.024	-63.32
867.197	28.84
867.371	12.46
867.544	34.99
867.718	-10.07
867.891	34.99
868.065	32.94
868.238	59.56
868.412	26.79
868.585	45.23
868.759	6.31
868.932	28.84
869.105	-8.02
869.279	77.99
869.452	-5.97
869.625	18.6
869.799	45.23
869.972	-22.36
870.145	28.84
870.319	-57.17
870.492	14.51
870.665	53.42
870.838	-1.88
871.011	-22.36
871.185	47.27
871.358	10.41
871.531	34.99
871.704	28.84
871.877	-30.55
872.05	2.22
872.223	20.65
872.396	16.55
872.569	12.46
872.742	-12.12
872.915	22.7
873.088	-3.93
873.261	28.84
873.434	22.7
873.607	20.65
873.78	86.19
873.953	-36.69
874.126	34.99
874.299	47.27
874.471	80.04
874.644	-5.97
874.817	51.37
874.99	61.61
875.163	-12.12
875.335	28.84
875.508	-14.17
875.681	59.56
875.853	86.19
876.026	63.66
876.199	-1.88
876.371	71.85
876.544	34.99
876.717	92.33
876.889	41.13
877.062	82.09
877.234	30.89
877.407	-18.26
877.579	8.36
877.752	96.43
877.924	-1.88
878.097	6.31
878.269	32.94
878.442	6.31
878.614	86.19
878.786	34.99
878.959	69.8
879.131	8.36
879.303	-46.93
879.476	121
879.648	14.51
879.82	45.23
879.993	55.47
880.165	65.71
880.337	-98.13
880.509	32.94
880.681	22.7
880.854	-26.45
881.026	-14.17
881.198	80.04
881.37	2.22
881.542	14.51
881.714	-18.26
881.886	-1.88
882.058	-42.84
882.23	69.8
882.402	61.61
882.574	57.51
882.746	104.62
882.918	63.66
883.09	37.03
883.262	110.76
883.434	0.17
883.606	-40.79
883.778	26.79
883.95	82.09
884.122	47.27
884.293	80.04
884.465	-22.36
884.637	22.7
884.809	135.34
884.98	47.27
885.152	39.08
885.324	18.6
885.496	6.31
885.667	2.22
885.839	-5.97
886.011	106.67
886.182	0.17
886.354	80.04
886.525	63.66
886.697	18.6
886.869	-12.12
887.04	-12.12
887.212	49.32
887.383	-12.12
887.555	16.55
887.726	-8.02
887.897	43.18
888.069	106.67
888.24	-3.93
888.412	-1.88
888.583	20.65
888.754	47.27
888.926	-3.93
889.097	71.85
889.268	-75.6
889.44	49.32
889.611	-40.79
889.782	2.22
889.953	43.18
890.125	39.08
890.296	-34.64
890.467	67.75
890.638	-18.26
890.809	-63.32
890.98	-34.64
891.151	108.71
891.323	71.85
891.494	14.51
891.665	24.75
891.836	-12.12
892.007	2.22
892.178	-1.88
892.349	84.14
892.52	-40.79
892.691	-8.02
892.862	45.23
893.032	-30.55
893.203	24.75
893.374	125.1
893.545	2.22
893.716	6.31
893.887	-10.07
894.057	-18.26
894.228	43.18
894.399	12.46
894.57	47.27
894.74	-12.12
894.911	2.22
895.082	55.47
895.253	-12.12
895.423	32.94
895.594	10.41
895.764	4.27
895.935	-26.45
896.106	143.53
896.276	-75.6
896.447	8.36
896.617	67.75
896.788	-1.88
896.958	47.27
897.129	20.65
897.299	-5.97
897.47	65.71
897.64	-28.5
897.81	10.41
897.981	32.94
898.151	-24.4
898.322	-28.5
898.492	-1.88
898.662	10.41
898.832	47.27
899.003	47.27
899.173	-26.45
899.343	-34.64
899.513	-46.93
