Data from USB4F104151__161__10-27-14-091.txt Node

Date: Wed Mar 12 10:27:14 EDT 2025
User: louis
Spectrometer: USB4F10415
Trigger mode: 4
Integration Time (sec): 3.000000E-2
Scans to average: 1
Electric dark correction enabled: true
Nonlinearity correction enabled: false
Boxcar width: 0
XAxis mode: Wavelengths
Number of Pixels in Spectrum: 3648
>>>>>Begin Spectral Data<<<<<
178.204	-107.01
178.424	-107.01
178.644	-107.01
178.864	-61.95
179.084	-45.57
179.304	-57.86
179.524	40.45
179.744	-0.51
179.964	73.21
180.184	-8.7
180.404	-6.66
180.624	-41.47
180.844	-8.7
181.064	-18.94
181.283	-0.51
181.503	-25.09
181.723	54.78
181.943	-98.81
182.163	28.16
182.383	-6.66
182.602	22.02
182.822	62.98
183.042	103.93
183.262	9.73
183.482	38.4
183.701	124.41
183.921	22.02
184.141	40.45
184.361	138.75
184.58	52.74
184.8	9.73
185.02	91.65
185.239	71.17
185.459	13.82
185.679	73.21
185.898	-6.66
186.118	-33.28
186.338	24.06
186.557	69.12
186.777	7.68
186.997	7.68
187.216	17.92
187.436	58.88
187.655	105.98
187.875	38.4
188.095	73.21
188.314	75.26
188.534	34.3
188.753	11.78
188.973	52.74
189.192	58.88
189.412	-8.7
189.631	114.17
189.851	79.36
190.07	62.98
190.29	67.07
190.509	-8.7
190.729	7.68
190.948	17.92
191.168	114.17
191.387	22.02
191.607	62.98
191.826	77.31
192.045	40.45
192.265	7.68
192.484	67.07
192.704	40.45
192.923	-20.99
193.142	165.37
193.362	108.03
193.581	54.78
193.8	60.93
194.02	17.92
194.239	132.61
194.458	13.82
194.678	13.82
194.897	38.4
195.116	24.06
195.335	28.16
195.555	40.45
195.774	15.87
195.993	30.21
196.212	62.98
196.432	69.12
196.651	40.45
196.87	54.78
197.089	116.22
197.308	19.97
197.528	110.08
197.747	-70.14
197.966	28.16
198.185	103.93
198.404	48.64
198.623	-2.56
198.842	99.84
199.062	95.74
199.281	-35.33
199.5	54.78
199.719	65.02
199.938	11.78
200.157	38.4
200.376	112.13
200.595	19.97
200.814	32.26
201.033	126.46
201.252	128.51
201.471	112.13
201.69	116.22
201.909	30.21
202.128	17.92
202.347	54.78
202.566	24.06
202.785	-10.75
203.004	15.87
203.223	116.22
203.442	54.78
203.661	3.58
203.879	-37.38
204.098	124.41
204.317	38.4
204.536	13.82
204.755	19.97
204.974	116.22
205.193	-6.66
205.411	110.08
205.63	93.69
205.849	46.59
206.068	-8.7
206.287	60.93
206.505	110.08
206.724	22.02
206.943	-23.04
207.162	9.73
207.381	85.5
207.599	-27.14
207.818	58.88
208.037	85.5
208.255	48.64
208.474	58.88
208.693	146.94
208.911	65.02
209.13	97.79
209.349	60.93
209.567	60.93
209.786	155.13
210.005	-20.99
210.223	42.5
210.442	7.68
210.661	120.32
210.879	22.02
211.098	24.06
211.316	36.35
211.535	-0.51
211.753	40.45
211.972	62.98
212.191	-4.61
212.409	-0.51
212.628	13.82
212.846	42.5
213.065	95.74
213.283	38.4
213.502	62.98
213.72	36.35
213.938	38.4
214.157	17.92
214.375	62.98
214.594	44.54
214.812	128.51
215.031	1.54
215.249	50.69
215.467	-18.94
215.686	62.98
215.904	77.31
216.122	79.36
216.341	71.17
216.559	28.16
216.778	75.26
216.996	65.02
217.214	60.93
217.432	85.5
217.651	-2.56
217.869	52.74
218.087	48.64
218.306	97.79
218.524	-10.75
218.742	52.74
218.96	-12.8
219.179	56.83
219.397	79.36
219.615	105.98
219.833	60.93
220.051	30.21
220.27	89.6
220.488	36.35
220.706	56.83
220.924	83.45
221.142	32.26
221.36	44.54
221.578	48.64
221.796	17.92
222.015	-43.52
222.233	48.64
222.451	42.5
222.669	62.98
222.887	48.64
223.105	85.5
223.323	34.3
223.541	81.41
223.759	67.07
223.977	32.26
224.195	7.68
224.413	-29.18
224.631	36.35
224.849	7.68
225.067	112.13
225.285	36.35
225.503	1.54
225.721	-20.99
225.939	-8.7
226.157	73.21
226.375	116.22
226.592	-53.76
226.81	62.98
227.028	62.98
227.246	85.5
227.464	-10.75
227.682	101.89
227.9	30.21
228.117	52.74
228.335	-2.56
228.553	3.58
228.771	-33.28
228.989	58.88
229.206	36.35
229.424	-33.28
229.642	-37.38
229.86	-41.47
230.077	77.31
230.295	54.78
230.513	77.31
230.731	101.89
230.948	71.17
231.166	40.45
231.384	26.11
231.601	13.82
231.819	50.69
232.037	-80.38
232.254	-43.52
232.472	62.98
232.689	69.12
232.907	122.37
233.125	58.88
233.342	5.63
233.56	26.11
233.777	-12.8
233.995	-12.8
234.213	134.65
234.43	38.4
234.648	-0.51
234.865	54.78
235.083	40.45
235.3	11.78
235.518	32.26
235.735	11.78
235.953	118.27
236.17	54.78
236.388	-8.7
236.605	30.21
236.822	9.73
237.04	38.4
237.257	54.78
237.475	40.45
237.692	-8.7
237.909	11.78
238.127	56.83
238.344	32.26
238.562	91.65
238.779	3.58
238.996	-12.8
239.214	-29.18
239.431	34.3
239.648	44.54
239.865	124.41
240.083	40.45
240.3	34.3
240.517	-25.09
240.735	-6.66
240.952	9.73
241.169	56.83
241.386	36.35
241.603	15.87
241.821	-45.57
242.038	32.26
242.255	17.92
242.472	5.63
242.689	97.79
242.907	11.78
243.124	42.5
243.341	11.78
243.558	5.63
243.775	-8.7
243.992	65.02
244.209	69.12
244.426	56.83
244.643	73.21
244.86	9.73
245.078	32.26
245.295	-14.85
245.512	15.87
245.729	3.58
245.946	85.5
246.163	42.5
246.38	1.54
246.597	56.83
246.814	32.26
247.031	50.69
247.248	-4.61
247.464	24.06
247.681	99.84
247.898	46.59
248.115	97.79
248.332	26.11
248.549	130.56
248.766	65.02
248.983	130.56
249.2	40.45
249.417	85.5
249.633	9.73
249.85	58.88
250.067	56.83
250.284	71.17
250.501	-16.9
250.717	50.69
250.934	32.26
251.151	5.63
251.368	54.78
251.585	26.11
251.801	103.93
252.018	22.02
252.235	19.97
252.451	-12.8
252.668	44.54
252.885	46.59
253.102	40.45
253.318	-29.18
253.535	22.02
253.752	69.12
253.968	5.63
254.185	7.68
254.401	-29.18
254.618	118.27
254.835	93.69
255.051	65.02
255.268	40.45
255.484	11.78
255.701	7.68
255.917	112.13
256.134	-59.9
256.351	93.69
256.567	-6.66
256.784	77.31
257	24.06
257.217	105.98
257.433	40.45
257.65	65.02
257.866	153.09
258.082	73.21
258.299	-31.23
258.515	15.87
258.732	134.65
258.948	-14.85
259.165	101.89
259.381	15.87
259.597	42.5
259.814	-2.56
260.03	44.54
260.246	3.58
260.463	81.41
260.679	56.83
260.895	-8.7
261.112	30.21
261.328	5.63
261.544	26.11
261.761	69.12
261.977	3.58
262.193	38.4
262.409	83.45
262.626	67.07
262.842	101.89
263.058	56.83
263.274	48.64
263.49	-18.94
263.707	69.12
263.923	-41.47
264.139	-43.52
264.355	44.54
264.571	3.58
264.787	87.55
265.004	93.69
265.22	-6.66
265.436	52.74
265.652	34.3
265.868	24.06
266.084	17.92
266.3	7.68
266.516	-57.86
266.732	24.06
266.948	-57.86
267.164	1.54
267.38	118.27
267.596	101.89
267.812	62.98
268.028	73.21
268.244	-39.42
268.46	32.26
268.676	13.82
268.892	15.87
269.108	67.07
269.324	26.11
269.54	-10.75
269.756	67.07
269.972	46.59
270.188	15.87
270.403	1.54
270.619	95.74
270.835	93.69
271.051	69.12
271.267	-0.51
271.483	81.41
271.698	26.11
271.914	-14.85
272.13	36.35
272.346	42.5
272.562	40.45
272.777	108.03
272.993	60.93
273.209	13.82
273.425	36.35
273.64	22.02
273.856	71.17
274.072	38.4
274.287	38.4
274.503	99.84
274.719	56.83
274.934	32.26
275.15	1.54
275.366	79.36
275.581	30.21
275.797	22.02
276.012	15.87
276.228	36.35
276.444	34.3
276.659	85.5
276.875	-14.85
277.09	-10.75
277.306	24.06
277.521	87.55
277.737	48.64
277.952	36.35
278.168	83.45
278.383	-10.75
278.599	-4.61
278.814	3.58
279.03	99.84
279.245	71.17
279.461	22.02
279.676	30.21
279.892	38.4
280.107	22.02
280.322	3.58
280.538	24.06
280.753	-8.7
280.969	95.74
281.184	-8.7
281.399	71.17
281.615	73.21
281.83	46.59
282.045	89.6
282.26	28.16
282.476	5.63
282.691	69.12
282.906	-2.56
283.122	105.98
283.337	26.11
283.552	101.89
283.767	28.16
283.983	69.12
284.198	56.83
284.413	48.64
284.628	7.68
284.843	15.87
285.058	30.21
285.274	30.21
285.489	22.02
285.704	1.54
285.919	87.55
286.134	52.74
286.349	40.45
286.564	22.02
286.779	36.35
286.995	-12.8
287.21	-31.23
287.425	56.83
287.64	-8.7
287.855	9.73
288.07	38.4
288.285	85.5
288.5	-2.56
288.715	-18.94
288.93	22.02
289.145	75.26
289.36	7.68
289.575	-29.18
289.79	-29.18
290.004	38.4
290.219	13.82
290.434	15.87
290.649	13.82
290.864	3.58
291.079	69.12
291.294	71.17
291.509	52.74
291.724	42.5
291.938	30.21
292.153	30.21
292.368	7.68
292.583	65.02
292.798	62.98
293.012	71.17
293.227	48.64
293.442	15.87
293.657	-4.61
293.871	46.59
294.086	118.27
294.301	71.17
294.516	24.06
294.73	-18.94
294.945	-2.56
295.16	7.68
295.374	110.08
295.589	71.17
295.804	56.83
296.018	67.07
296.233	32.26
296.447	34.3
296.662	24.06
296.877	87.55
297.091	77.31
297.306	7.68
297.52	34.3
297.735	1.54
297.949	85.5
298.164	40.45
298.378	81.41
298.593	30.21
298.807	-14.85
299.022	36.35
299.236	-8.7
299.451	46.59
299.665	-0.51
299.88	19.97
300.094	48.64
300.309	9.73
300.523	60.93
300.737	44.54
300.952	38.4
301.166	62.98
301.381	11.78
301.595	65.02
301.809	-4.61
302.024	42.5
302.238	-29.18
302.452	110.08
302.667	79.36
302.881	22.02
303.095	97.79
303.309	-25.09
303.524	103.93
303.738	36.35
303.952	11.78
304.166	103.93
304.381	-35.33
304.595	62.98
304.809	32.26
305.023	48.64
305.237	7.68
305.452	48.64
305.666	79.36
305.88	36.35
306.094	75.26
306.308	34.3
306.522	24.06
306.736	40.45
306.95	-53.76
307.164	-0.51
307.379	71.17
307.593	89.6
307.807	58.88
308.021	36.35
308.235	93.69
308.449	11.78
308.663	71.17
308.877	124.41
309.091	24.06
309.305	83.45
309.519	28.16
309.733	83.45
309.947	32.26
310.161	13.82
310.374	54.78
310.588	36.35
310.802	-8.7
311.016	42.5
311.23	91.65
311.444	46.59
311.658	32.26
311.872	62.98
312.085	105.98
312.299	11.78
312.513	50.69
312.727	95.74
312.941	126.46
313.154	36.35
313.368	-4.61
313.582	17.92
313.796	46.59
314.009	24.06
314.223	83.45
314.437	40.45
314.651	15.87
314.864	11.78
315.078	11.78
315.292	101.89
315.505	50.69
315.719	17.92
315.933	42.5
316.146	-25.09
316.36	46.59
316.573	54.78
316.787	40.45
317.001	77.31
317.214	114.17
317.428	110.08
317.641	-37.38
317.855	5.63
318.068	22.02
318.282	36.35
318.495	58.88
318.709	120.32
318.922	38.4
319.136	46.59
319.349	71.17
319.563	19.97
319.776	83.45
319.99	-12.8
320.203	91.65
320.417	40.45
320.63	93.69
320.843	48.64
321.057	99.84
321.27	26.11
321.483	42.5
321.697	44.54
321.91	34.3
322.124	97.79
322.337	1.54
322.55	69.12
322.763	32.26
322.977	60.93
323.19	-33.28
323.403	103.93
323.617	-23.04
323.83	7.68
324.043	52.74
324.256	5.63
324.469	-51.71
324.683	19.97
324.896	44.54
325.109	56.83
325.322	-8.7
325.535	26.11
325.748	79.36
325.962	67.07
326.175	42.5
326.388	77.31
326.601	-14.85
326.814	-8.7
327.027	34.3
327.24	85.5
327.453	-61.95
327.666	91.65
327.879	-18.94
328.092	110.08
328.305	79.36
328.518	97.79
328.731	73.21
328.944	40.45
329.157	62.98
329.37	22.02
329.583	32.26
329.796	144.89
330.009	24.06
330.222	54.78
330.435	24.06
330.648	15.87
330.861	52.74
331.073	103.93
331.286	50.69
331.499	44.54
331.712	19.97
331.925	85.5
332.138	1.54
332.35	71.17
332.563	44.54
332.776	167.42
332.989	5.63
333.202	34.3
333.414	30.21
333.627	7.68
333.84	40.45
334.053	-6.66
334.265	93.69
334.478	67.07
334.691	34.3
334.903	44.54
335.116	-20.99
335.329	48.64
335.541	5.63
335.754	169.47
335.966	3.58
336.179	-16.9
336.392	26.11
336.604	132.61
336.817	71.17
337.029	69.12
337.242	77.31
337.454	13.82
337.667	73.21
337.88	71.17
338.092	40.45
338.305	44.54
338.517	17.92
338.729	91.65
338.942	105.98
339.154	7.68
339.367	81.41
339.579	22.02
339.792	-16.9
340.004	-33.28
340.217	71.17
340.429	42.5
340.641	71.17
340.854	7.68
341.066	-2.56
341.278	62.98
341.491	75.26
341.703	112.13
341.915	24.06
342.128	-41.47
342.34	105.98
342.552	-14.85
342.764	-18.94
342.977	-2.56
343.189	69.12
343.401	44.54
343.613	-29.18
343.826	38.4
344.038	52.74
344.25	130.56
344.462	81.41
344.674	40.45
344.886	-6.66
345.099	26.11
345.311	50.69
345.523	58.88
345.735	-25.09
345.947	34.3
346.159	56.83
346.371	81.41
346.583	60.93
346.795	87.55
347.007	42.5
347.219	73.21
347.431	24.06
347.643	52.74
347.855	46.59
348.067	71.17
348.279	26.11
348.491	46.59
348.703	67.07
348.915	1.54
349.127	101.89
349.339	26.11
349.551	83.45
349.763	36.35
349.975	67.07
350.187	56.83
350.399	112.13
350.61	34.3
350.822	-8.7
351.034	40.45
351.246	103.93
351.458	-12.8
351.669	5.63
351.881	36.35
352.093	56.83
352.305	36.35
352.517	99.84
352.728	77.31
352.94	36.35
353.152	56.83
353.363	13.82
353.575	38.4
353.787	77.31
353.999	36.35
354.21	79.36
354.422	28.16
354.633	-29.18
354.845	60.93
355.057	142.85
355.268	62.98
355.48	99.84
355.692	28.16
355.903	62.98
356.115	95.74
356.326	-16.9
356.538	126.46
356.749	73.21
356.961	79.36
357.172	93.69
357.384	26.11
357.595	167.42
357.807	91.65
358.018	-4.61
358.23	38.4
358.441	50.69
358.653	91.65
358.864	-20.99
359.075	89.6
359.287	-0.51
359.498	9.73
359.709	120.32
359.921	69.12
360.132	56.83
360.344	34.3
360.555	60.93
360.766	81.41
360.977	46.59
361.189	118.27
361.4	-25.09
361.611	148.99
361.823	19.97
362.034	60.93
362.245	46.59
362.456	60.93
362.667	112.13
362.879	19.97
363.09	95.74
363.301	17.92
363.512	24.06
363.723	48.64
363.935	83.45
364.146	75.26
364.357	65.02
364.568	75.26
364.779	48.64
364.99	93.69
365.201	56.83
365.412	81.41
365.623	52.74
365.834	60.93
366.045	65.02
366.256	69.12
366.467	105.98
366.678	87.55
366.889	36.35
367.1	15.87
367.311	110.08
367.522	85.5
367.733	62.98
367.944	42.5
368.155	1.54
368.366	91.65
368.577	85.5
368.788	56.83
368.999	40.45
369.209	58.88
369.42	146.94
369.631	71.17
369.842	7.68
370.053	1.54
370.264	110.08
370.474	40.45
370.685	22.02
370.896	50.69
371.107	79.36
371.317	103.93
371.528	34.3
371.739	52.74
371.95	11.78
372.16	73.21
372.371	-20.99
372.582	87.55
372.792	65.02
373.003	36.35
373.214	85.5
373.424	114.17
373.635	34.3
373.846	87.55
374.056	-12.8
374.267	103.93
374.477	48.64
374.688	54.78
374.898	38.4
375.109	54.78
375.319	5.63
375.53	58.88
375.74	36.35
375.951	19.97
376.161	65.02
376.372	93.69
376.582	134.65
376.793	65.02
377.003	42.5
377.214	44.54
377.424	1.54
377.635	-2.56
377.845	-12.8
378.055	128.51
378.266	22.02
378.476	7.68
378.686	46.59
378.897	40.45
379.107	85.5
379.317	87.55
379.528	15.87
379.738	85.5
379.948	83.45
380.158	101.89
380.369	81.41
380.579	87.55
380.789	69.12
380.999	114.17
381.21	58.88
381.42	112.13
381.63	65.02
381.84	118.27
382.05	1.54
382.261	140.8
382.471	5.63
382.681	-33.28
382.891	77.31
383.101	97.79
383.311	34.3
383.521	9.73
383.731	15.87
383.941	122.37
384.151	81.41
384.361	44.54
384.571	77.31
384.781	17.92
384.991	89.6
385.201	36.35
385.411	73.21
385.621	73.21
385.831	44.54
386.041	28.16
386.251	81.41
386.461	146.94
386.671	73.21
386.881	153.09
387.091	60.93
387.301	79.36
387.511	91.65
387.72	62.98
387.93	77.31
388.14	105.98
388.35	73.21
388.56	28.16
388.769	114.17
388.979	9.73
389.189	40.45
389.399	128.51
389.609	42.5
389.818	62.98
390.028	50.69
390.238	118.27
390.447	24.06
390.657	54.78
390.867	40.45
391.076	77.31
391.286	114.17
391.496	73.21
391.705	19.97
391.915	112.13
392.125	93.69
392.334	40.45
392.544	46.59
392.753	67.07
392.963	48.64
393.172	142.85
393.382	26.11
393.591	112.13
393.801	50.69
394.01	54.78
394.22	157.18
394.429	28.16
394.639	136.7
394.848	144.89
395.058	81.41
395.267	103.93
395.477	112.13
395.686	167.42
395.895	79.36
396.105	81.41
396.314	65.02
396.524	120.32
396.733	15.87
396.942	73.21
397.152	110.08
397.361	116.22
397.57	56.83
397.78	103.93
397.989	91.65
398.198	81.41
398.407	75.26
398.617	108.03
398.826	118.27
399.035	108.03
399.244	71.17
399.453	140.8
399.663	163.33
399.872	85.5
400.081	114.17
400.29	124.41
400.499	75.26
400.708	169.47
400.917	122.37
401.127	65.02
401.336	48.64
401.545	171.52
401.754	189.95
401.963	179.71
402.172	69.12
402.381	93.69
402.59	134.65
402.799	169.47
403.008	161.28
403.217	210.43
403.426	101.89
403.635	95.74
403.844	153.09
404.053	46.59
404.262	28.16
404.471	130.56
404.68	181.76
404.888	153.09
405.097	48.64
405.306	124.41
405.515	224.76
405.724	112.13
405.933	187.9
406.142	183.81
406.35	183.81
406.559	99.84
406.768	173.57
406.977	187.9
407.185	122.37
407.394	245.24
407.603	179.71
407.812	228.86
408.02	204.28
408.229	224.76
408.438	204.28
408.646	259.58
408.855	155.13
409.064	294.4
409.272	259.58
409.481	267.77
409.69	263.68
409.898	269.82
410.107	288.25
410.315	304.64
410.524	241.15
410.733	323.07
410.941	300.54
411.15	267.77
411.358	349.69
411.567	421.37
411.775	409.08
411.984	359.93
412.192	372.22
412.401	378.36
412.609	400.89
412.818	370.17
413.026	534.01
413.234	470.52
413.443	462.33
413.651	474.62
413.86	488.95
414.068	587.26
414.276	538.1
414.485	523.77
414.693	601.59
414.901	607.73
415.11	693.75
415.318	648.69
415.526	593.4
415.734	685.56
415.943	673.27
416.151	736.76
416.359	792.05
416.567	751.09
416.776	749.04
416.984	861.68
417.192	830.96
417.4	822.77
417.608	908.79
417.817	982.51
418.025	1064.43
418.233	988.66
418.441	976.37
418.649	986.61
418.857	1162.73
419.065	1056.24
419.273	1056.24
419.481	1279.47
419.689	1269.23
419.897	1314.28
420.105	1342.96
420.313	1375.72
420.521	1486.31
420.729	1390.06
420.937	1510.89
421.145	1551.85
421.353	1670.63
421.561	1822.18
421.769	1656.29
421.977	1811.94
422.185	1809.89
422.393	1922.53
422.601	2090.46
422.809	2104.8
423.017	2024.93
423.224	2096.61
423.432	2160.1
423.64	2213.34
423.848	2366.94
424.056	2430.43
424.263	2514.39
424.471	2444.76
424.679	2538.97
424.887	2692.57
425.094	2883.03
425.302	2713.05
425.51	2854.36
425.718	2995.67
425.925	3034.58
426.133	3149.26
426.341	3298.77
426.548	3458.51
426.756	3452.36
426.964	3591.63
427.171	3821
427.379	3751.37
427.586	3843.53
427.794	4009.41
428.001	4156.86
428.209	4279.74
428.417	4330.94
428.624	4566.46
428.832	4582.84
429.039	4525.5
429.247	4646.33
429.454	5107.12
429.662	5408.17
429.869	4896.18
430.076	5301.68
430.284	5088.69
430.491	5365.17
430.699	5674.41
430.906	5641.64
431.114	5907.88
431.321	6120.87
431.528	6170.02
431.736	6421.92
431.943	6671.77
432.15	6354.34
432.358	6602.14
432.565	6938.01
432.772	7011.73
432.979	7335.31
433.187	7460.24
433.394	7562.64
433.601	8101.25
433.808	7873.93
434.016	8025.48
434.223	8156.55
434.43	8797.56
434.637	8732.03
434.844	9215.35
435.052	9262.45
435.259	9139.57
435.466	9450.86
435.673	9237.88
435.88	9969
436.087	10276.2
436.294	10526.05
436.501	10257.76
436.708	10546.53
436.915	10769.76
437.122	11136.34
437.329	11267.41
437.537	11513.17
437.743	11793.74
437.95	11560.27
438.157	12250.44
438.364	12582.21
438.571	12635.46
438.778	12518.72
438.985	13845.8
439.192	13335.86
439.399	13841.71
439.606	13368.63
439.813	14267.69
440.02	14624.03
440.227	14677.28
440.433	14626.08
440.64	15117.59
440.847	14933.28
441.054	15172.89
441.261	16479.49
441.467	16155.91
441.674	16352.52
441.881	16872.7
442.088	16852.22
442.294	16829.7
442.501	17222.91
442.708	17632.5
442.914	18230.51
443.121	18799.84
443.328	18500.84
443.534	19659.99
443.741	19094.75
443.948	18881.76
444.154	20249.8
444.361	20204.75
444.568	20356.3
444.774	20317.39
444.981	20403.4
445.187	20982.98
445.394	21867.7
445.6	21630.13
445.807	23891.09
446.013	22828.2
446.22	23008.42
446.426	23923.86
446.633	24442
446.839	24927.36
447.046	23882.9
447.252	25343.1
447.459	25531.51
447.665	25220.22
447.871	26166.38
448.078	27415.65
448.284	26412.14
448.491	26991.72
448.697	27839.58
448.903	28544.08
449.11	28302.42
449.316	27735.13
449.522	28316.75
449.728	29094.98
449.935	29252.67
450.141	29211.71
450.347	30075.96
450.553	28689.48
450.76	29500.48
450.966	30155.83
451.172	29991.99
451.378	30702.64
451.584	29893.69
451.791	30886.95
451.997	30182.45
452.203	31478.82
452.409	31204.39
452.615	31128.61
452.821	29615.16
453.027	29207.62
453.233	30805.03
453.44	29631.55
453.646	29762.62
453.852	30299.19
454.058	30413.87
454.264	29375.55
454.47	30250.03
454.676	29361.22
454.882	30157.88
455.088	27665.5
455.294	28124.24
455.5	28097.62
455.705	28841.03
455.911	27548.76
456.117	27010.15
456.323	26965.09
456.529	25255.04
456.735	26299.5
456.941	25422.97
457.147	24980.61
457.352	24444.04
457.558	24157.33
457.764	24505.48
457.97	23792.79
458.176	23041.18
458.381	23071.9
458.587	22039.73
458.793	22123.69
458.999	20798.66
459.204	22277.29
459.41	21587.13
459.616	20294.86
459.821	20301
460.027	20245.71
460.233	19713.24
460.438	18603.24
460.644	18990.3
460.85	17913.07
461.055	18216.17
461.261	17921.26
461.466	16600.32
461.672	16125.19
461.878	17183.99
462.083	16117
462.289	15590.67
462.494	15807.76
462.7	14828.83
462.905	14617.89
463.111	14941.47
463.316	15148.31
463.522	14669.09
463.727	14816.54
463.932	14654.75
464.138	14552.35
464.343	14589.22
464.549	14171.43
464.754	15017.24
464.959	14646.56
465.165	14669.09
465.37	13872.43
465.575	13458.74
465.781	14093.61
465.986	14140.71
466.191	13708.59
466.397	13266.23
466.602	12711.23
466.807	13237.56
467.012	13266.23
467.218	13231.41
467.423	12854.59
467.628	13284.66
467.833	13729.07
468.038	13053.24
468.244	12764.48
468.449	13198.65
468.654	12752.19
468.859	12832.06
469.064	12744
469.269	12264.77
469.474	12152.13
469.679	12379.46
469.885	12129.61
470.09	12135.75
470.295	12090.7
470.5	11806.03
470.705	11933
470.91	11468.11
471.115	11707.73
471.32	11513.17
471.525	11715.92
471.73	11509.07
471.935	11302.23
472.139	10780
472.344	11019.61
472.549	10962.26
472.754	10925.4
472.959	10636.64
473.164	10505.57
473.369	10384.74
473.574	10669.41
473.778	10599.77
473.983	10478.94
474.188	10300.77
474.393	10028.39
474.598	9839.98
474.802	9807.21
475.007	9909.61
475.212	9641.32
475.417	9403.76
475.621	9600.37
475.826	9348.47
476.031	9411.95
476.235	9129.33
476.44	9389.42
476.645	9178.48
476.849	9100.66
477.054	9123.19
477.259	8936.82
477.463	8932.73
477.668	8678.78
477.872	8740.22
478.077	8576.38
478.282	8553.85
478.486	8418.69
478.691	8236.42
478.895	8492.41
479.1	8365.44
479.304	8338.82
479.509	8007.05
479.713	8201.6
479.918	7847.3
480.122	7921.03
480.326	7892.36
480.531	7959.94
480.735	8037.77
480.94	7847.3
481.144	8117.64
481.348	7878.02
481.553	7931.27
481.757	7773.58
481.961	7853.45
482.166	7923.08
482.37	7839.11
482.574	7568.78
482.778	7761.29
482.983	7890.31
483.187	7777.67
483.391	7749
483.595	7810.44
483.8	7839.11
484.004	7779.72
484.208	7732.62
484.412	7550.35
484.616	7728.52
484.821	7755.15
485.025	7538.06
485.229	7632.27
485.433	7669.13
485.637	7585.16
485.841	7677.32
486.045	7708.04
486.249	7929.22
486.453	7531.92
486.657	7728.52
486.861	7734.67
487.065	7576.97
487.269	7771.53
487.473	7540.11
487.677	7667.08
487.881	7839.11
488.085	7667.08
488.289	7740.81
488.493	7511.44
488.697	7886.22
488.901	7712.14
489.105	7871.88
489.309	7714.19
489.512	7761.29
489.716	7826.82
489.92	7753.1
490.124	7691.66
490.328	8007.05
490.531	7650.7
490.735	7837.06
490.939	8101.25
491.143	7982.47
491.346	7767.43
491.55	8074.63
491.754	7953.8
491.958	8187.27
492.161	8078.72
492.365	8224.13
492.569	8205.7
492.772	8308.1
492.976	8338.82
493.18	8369.54
493.383	8240.51
493.587	8516.99
493.79	8576.38
493.994	8297.86
494.197	8523.13
494.401	8656.25
494.605	8369.54
494.808	8682.88
495.012	8840.57
495.215	8789.37
495.419	8934.78
495.622	8826.23
495.825	8959.35
496.029	9153.91
496.232	9246.07
496.436	9153.91
496.639	9520.49
496.843	9416.05
497.046	9491.82
497.249	9596.27
497.453	9637.23
497.656	9751.92
497.859	9878.89
498.063	10018.15
498.266	10181.99
498.469	10018.15
498.673	10241.38
498.876	10480.99
499.079	10358.11
499.282	10394.98
499.485	10872.15
499.689	10812.76
499.892	10898.78
500.095	10929.5
500.298	11238.74
500.501	10941.79
500.705	11353.43
500.908	11349.33
501.111	11640.14
501.314	11545.94
501.517	12068.17
501.72	12184.9
501.923	11933
502.126	12426.56
502.329	12518.72
502.532	12461.38
502.735	12629.31
502.938	12778.81
503.141	12825.92
503.344	12934.46
503.547	13139.26
503.75	13352.24
503.953	13466.93
504.156	13649.2
504.359	13792.56
504.562	13718.83
504.765	14185.77
504.968	14167.34
505.17	14269.73
505.373	14437.67
505.576	14927.13
505.779	14869.79
505.982	14890.27
506.185	15242.52
506.387	15256.86
506.59	15555.86
506.793	15858.96
506.996	15830.29
507.198	16205.06
507.401	16145.67
507.604	16276.74
507.807	16827.65
508.009	16639.23
508.212	16628.99
508.415	17222.91
508.617	17161.47
508.82	17218.81
509.022	17050.88
509.225	17454.33
509.428	17804.53
509.63	18050.28
509.833	18273.51
510.035	18576.61
510.238	18382.06
510.44	18832.61
510.643	18961.63
510.845	18971.87
511.048	19029.21
511.25	19436.76
511.453	19408.09
511.655	20167.88
511.858	19838.16
512.06	20407.5
512.262	20479.18
512.465	20409.54
512.667	20554.95
512.87	20864.19
513.072	21095.61
513.274	21390.52
513.477	21394.62
513.679	21580.98
513.881	21814.45
514.084	22267.05
514.286	22215.85
514.488	22482.09
514.69	23239.84
514.893	23172.25
515.095	23329.95
515.297	23153.82
515.499	23581.85
515.701	23932.05
515.904	24038.55
516.106	24218.77
516.308	24528.01
516.51	24827.01
516.712	24745.09
516.914	25197.7
517.116	25205.89
517.318	25650.3
517.52	25814.13
517.722	25820.28
517.925	26311.79
518.127	26733.67
518.329	26950.76
518.531	26506.35
518.733	27180.13
518.935	27417.69
519.136	27608.15
519.338	28021.84
519.54	28001.36
519.742	28171.35
519.944	28249.17
520.146	29078.6
520.348	29191.23
520.55	29037.64
520.752	29406.27
520.954	29840.44
521.155	29783.1
521.357	29893.69
521.559	30460.98
521.761	30958.63
521.963	30800.94
522.164	30850.09
522.366	31067.17
522.568	31122.47
522.77	31536.16
522.971	31900.7
523.173	31624.22
523.375	32168.98
523.576	31953.94
523.778	32406.55
523.98	32926.73
524.181	32832.52
524.383	32863.24
524.584	33178.63
524.786	33434.63
524.988	33475.59
525.189	33899.51
525.391	34034.68
525.592	34378.74
525.794	34366.45
525.995	34391.03
526.197	34323.44
526.398	34554.86
526.6	34810.86
526.801	35044.33
527.003	35132.39
527.204	35032.04
527.406	35472.35
527.607	35382.24
527.808	36037.59
528.01	35185.64
528.211	35628
528.412	36312.02
528.614	36092.89
528.815	36264.92
529.016	36797.39
529.218	36197.34
529.419	36402.13
529.62	36688.85
529.822	36457.43
530.023	36889.55
530.224	36694.99
530.425	36994
530.626	36709.33
530.828	37004.24
531.029	37409.73
531.23	36717.52
531.431	36936.65
531.632	37192.65
531.833	37479.36
532.035	37059.53
532.236	37325.77
532.437	37209.03
532.638	37587.91
532.839	37514.18
533.04	37628.87
533.241	37483.46
533.442	38366.13
533.643	38142.91
533.844	37948.35
534.045	37729.22
534.246	37592
534.447	37835.71
534.648	37565.38
534.849	37854.14
535.05	37430.21
535.251	38013.88
535.451	37723.07
535.652	38220.73
535.853	38185.91
536.054	38048.7
536.255	38202.3
536.456	37594.05
536.657	38769.58
536.857	37739.46
537.058	37993.4
537.259	38192.06
537.46	38163.39
537.66	38224.82
537.861	38085.56
538.062	38085.56
538.263	38171.58
538.463	38206.39
538.664	38030.27
538.865	38167.48
539.065	38142.91
539.266	37721.02
539.466	38417.33
539.667	37606.34
539.868	38718.39
540.068	37970.88
540.269	38103.99
540.469	38286.26
540.67	37804.99
540.87	37798.85
541.071	37907.39
541.271	38183.87
541.472	37802.94
541.672	37725.12
541.873	37927.87
542.073	37290.95
542.274	38376.37
542.474	38036.41
542.675	37639.11
542.875	38206.39
543.075	38101.95
543.276	37761.98
543.476	38122.43
543.676	37864.38
543.877	37991.36
544.077	37778.37
544.277	37454.79
544.478	38081.47
544.678	37891.01
544.878	37604.29
545.078	37974.97
545.279	37974.97
545.479	37641.15
545.679	37835.71
545.879	37815.23
546.079	37641.15
546.28	37653.44
546.48	37200.84
546.68	38192.06
546.88	37782.46
547.08	37927.87
547.28	37659.59
547.48	37321.67
547.68	37802.94
547.88	37055.43
548.081	37766.08
548.281	37663.68
548.481	37708.74
548.681	38372.28
548.881	37381.06
549.081	37626.82
549.28	37262.28
549.48	38204.35
549.68	37514.18
549.88	37968.83
550.08	37254.09
550.28	37934.01
550.48	37809.09
550.68	37536.71
550.88	37102.54
551.08	37542.85
551.279	37780.42
551.479	37368.77
551.679	37608.39
551.879	37395.4
552.079	37790.66
552.278	37655.49
552.478	37637.06
552.678	37438.4
552.878	37667.78
553.077	37061.58
553.277	36889.55
553.477	37397.45
553.676	37266.38
553.876	37174.22
554.076	37327.81
554.275	37514.18
554.475	36660.18
554.674	37020.62
554.874	37163.98
555.074	36856.78
555.273	37022.67
555.473	37227.46
555.672	37151.69
555.872	37241.8
556.071	37110.73
556.271	36885.45
556.47	36457.43
556.67	36781.01
556.869	36791.25
557.068	37037
557.268	36482
557.467	36840.4
557.667	36754.38
557.866	36637.65
558.065	36244.44
558.265	35961.82
558.464	36107.23
558.663	36957.13
558.863	35939.29
559.062	36864.97
559.261	35836.89
559.461	36733.9
559.66	36142.04
559.859	36217.82
560.058	35957.72
560.258	36127.7
560.457	35638.24
560.656	36004.83
560.855	35591.14
561.054	35886.04
561.253	35523.55
561.453	35402.72
561.652	35775.45
561.851	35486.69
562.05	35415.01
562.249	35480.55
562.448	35574.75
562.647	35185.64
562.846	35232.74
563.045	35412.96
563.244	34673.65
563.443	34892.78
563.642	34915.31
563.841	34966.51
564.04	34397.17
564.239	35097.58
564.438	34655.22
564.637	34634.74
564.836	34976.75
565.035	34526.19
565.234	34384.88
565.432	34364.4
565.631	34161.65
565.83	34163.7
566.029	33831.93
566.228	33872.89
566.427	34071.54
566.625	34022.39
566.824	33584.13
567.023	33883.13
567.222	32879.63
567.42	33874.94
567.619	33457.15
567.818	33604.61
568.016	33420.29
568.215	34059.26
568.414	33229.83
568.612	33586.18
568.811	33049.61
569.01	33068.04
569.208	32711.69
569.407	32973.83
569.605	32238.61
569.804	32498.7
570.002	32298
570.201	32431.12
570.4	32074.77
570.598	32312.34
570.797	31802.39
570.995	32320.53
571.193	31880.22
571.392	31919.13
571.59	31931.42
571.789	32179.22
571.987	31601.69
572.186	31687.71
572.384	31577.12
572.582	31474.72
572.781	31327.27
572.979	30968.87
573.177	31161.38
573.376	31128.61
573.574	30673.96
573.772	31235.11
573.971	30831.66
574.169	30618.67
574.367	30616.62
574.565	30966.82
574.763	30581.81
574.962	30440.5
575.16	30196.79
575.358	30563.37
575.556	30094.39
575.754	30565.42
575.952	30051.38
576.151	30139.44
576.349	29813.82
576.547	29713.47
576.745	29674.56
576.943	29891.64
577.141	29523.01
577.339	29795.39
577.537	29291.59
577.735	29760.57
577.933	29094.98
578.131	29318.21
578.329	29434.94
578.527	28918.85
578.725	28906.57
578.923	29105.22
579.121	28953.67
579.319	28820.55
579.516	28843.08
579.714	28738.63
579.912	28699.72
580.11	28476.49
580.308	28251.22
580.506	28699.72
580.704	28001.36
580.901	28365.9
581.099	28521.55
581.297	27743.32
581.495	27935.83
581.692	28206.16
581.89	27870.29
582.088	28204.11
582.285	27972.69
582.483	27878.49
582.681	27673.69
582.878	27774.04
583.076	27239.52
583.274	27520.09
583.471	27432.03
583.669	27145.31
583.866	27223.14
584.064	27278.43
584.262	26971.24
584.459	27221.09
584.657	26973.28
584.854	26963.04
585.052	26584.17
585.249	27128.93
585.447	26635.37
585.644	26319.98
585.841	26483.82
586.039	26614.89
586.236	26313.84
586.434	26248.3
586.631	26010.74
586.828	26082.42
587.026	26354.8
587.223	25816.18
587.42	25519.23
587.618	25896.05
587.815	25816.18
588.012	25511.03
588.21	25799.8
588.407	25844.85
588.604	25685.11
588.801	25361.53
588.999	25390.2
589.196	25349.25
589.393	25451.64
589.59	25212.03
589.787	24904.84
589.984	24700.04
590.182	24632.46
590.379	24898.69
590.576	25054.34
590.773	25269.37
590.97	24489.1
591.167	24622.22
591.364	24237.2
591.561	24421.52
591.758	24136.85
591.955	24263.82
592.152	24497.29
592.349	23899.28
592.546	24198.29
592.743	24390.8
592.94	23731.35
593.137	24214.67
593.334	23848.08
593.531	23635.1
593.727	23811.22
593.924	23811.22
594.121	23420.06
594.318	23768.21
594.515	23319.71
594.712	23440.54
594.908	23332
595.105	23288.99
595.302	22983.84
595.499	23252.13
595.696	22850.72
595.892	22740.13
596.089	22963.36
596.286	22906.02
596.482	22822.05
596.679	22680.74
596.876	22656.17
597.072	22471.85
597.269	22621.35
597.466	22135.98
597.662	22260.91
597.859	22320.3
598.055	22314.16
598.252	22045.87
598.448	22185.13
598.645	22013.1
598.841	22013.1
599.038	21935.28
599.234	22115.5
599.431	21587.13
599.627	21558.46
599.824	22080.69
600.02	21654.71
600.217	21685.43
600.413	21417.15
600.609	21470.39
600.806	21458.1
601.002	21578.93
601.198	21292.22
601.395	21136.57
601.591	21329.08
601.787	21142.72
601.984	21003.46
602.18	21474.49
602.376	20847.81
602.572	20853.95
602.769	20782.27
602.965	20573.38
603.161	20899.01
603.357	20409.54
603.553	20577.48
603.75	20546.76
603.946	20257.99
604.142	20550.85
604.338	20149.45
604.534	20430.02
604.73	19975.38
604.926	19856.59
605.122	20085.97
605.318	19965.14
605.514	19877.07
605.71	19621.08
605.906	19834.07
606.102	19883.22
606.298	19827.92
606.494	19696.85
606.69	19616.98
606.886	19924.18
607.082	19586.26
607.278	19504.34
607.474	19186.91
607.67	19490.01
607.866	18932.96
608.062	19508.44
608.257	19055.84
608.453	19252.44
608.649	19383.51
608.845	18967.77
609.041	19172.57
609.236	19221.72
609.432	19143.9
609.628	19096.8
609.824	19252.44
610.019	18900.19
610.215	18820.32
610.411	18980.06
610.606	18562.28
610.802	18797.79
610.998	18629.86
611.193	18380.01
611.389	18699.49
611.584	18521.32
611.78	18463.97
611.976	18562.28
612.171	18603.24
612.367	18365.67
612.562	18203.88
612.758	18093.29
612.953	18216.17
613.149	18433.25
613.344	18150.64
613.539	18482.41
613.735	18402.54
613.93	17962.22
614.126	17999.09
614.321	18281.71
614.517	17962.22
614.712	18083.05
614.907	18146.54
615.103	18103.53
615.298	18171.11
615.493	17890.54
615.688	17562.87
615.884	18054.38
616.079	17728.75
616.274	17882.35
616.47	17577.2
616.665	17628.4
616.86	17466.61
617.055	17609.97
617.25	17327.35
617.445	17855.73
617.641	17186.04
617.836	17591.54
618.031	17147.13
618.226	17460.47
618.421	17302.78
618.616	17384.69
618.811	16975.1
619.006	17335.54
619.201	16747.78
619.396	17034.49
619.591	16704.77
619.786	17063.16
619.981	16710.91
620.176	16936.19
620.371	16549.12
620.566	16563.46
620.761	16555.27
620.956	16620.8
621.151	16340.23
621.346	16360.71
621.541	16278.79
621.735	16370.95
621.93	16024.84
622.125	15922.45
622.32	15738.13
622.515	15891.73
622.709	15758.61
622.904	15828.24
623.099	15576.34
623.294	15529.24
623.488	15424.79
623.683	15686.93
623.878	15142.17
624.072	15150.36
624.267	15267.1
624.462	15136.03
624.656	14982.43
624.851	14843.17
625.046	14896.41
625.24	14699.81
625.435	14646.56
625.629	14669.09
625.824	14667.04
626.018	14730.53
626.213	14417.19
626.407	14568.74
626.602	14200.1
626.796	14036.27
626.991	14224.68
627.185	14187.82
627.38	14196.01
627.574	14017.83
627.768	13690.16
627.963	13663.54
628.157	13618.48
628.352	13634.86
628.546	13448.5
628.74	13497.65
628.935	13393.2
629.129	13514.03
629.323	13301.05
629.517	13157.69
629.712	13026.62
629.906	13313.33
630.1	13071.67
630.294	13006.14
630.489	12645.7
630.683	12803.39
630.877	12592.45
631.071	12539.2
631.265	12547.39
631.459	12641.6
631.653	12455.23
631.848	12385.6
632.042	12287.3
632.236	12186.95
632.43	12090.7
632.624	12131.65
632.818	12131.65
633.012	11984.2
633.206	11795.79
633.4	12193.09
633.594	11652.43
633.788	11765.07
633.982	11681.1
634.176	11693.39
634.369	11427.15
634.563	11810.12
634.757	11427.15
634.951	11515.22
635.145	11341.14
635.339	11345.23
635.533	11199.83
635.726	11271.51
635.92	11048.28
636.114	11025.75
636.308	11152.73
636.501	10886.49
636.695	10921.31
636.889	10906.97
637.083	10661.21
637.276	10669.41
637.47	10556.77
637.664	10538.34
637.857	10626.4
638.051	10714.46
638.244	10610.01
638.438	10364.26
638.632	10255.72
638.825	10141.03
639.019	10222.95
639.212	10257.76
639.406	9975.14
639.599	10194.28
639.793	10100.07
639.986	9907.56
640.18	9788.78
640.373	9844.07
640.567	9913.7
640.76	9688.43
640.954	9631.09
641.147	9674.09
641.34	9581.93
641.534	9647.47
641.727	9563.5
641.92	9422.19
642.114	9409.9
642.307	9495.92
642.5	9342.32
642.694	9246.07
642.887	9098.61
643.08	9166.2
643.273	9201.01
643.467	9004.41
643.66	8879.48
643.853	8891.77
644.046	8938.87
644.239	8693.12
644.432	8746.36
644.626	8738.17
644.819	8742.27
645.012	8631.68
645.205	8613.24
645.398	8605.05
645.591	8580.48
645.784	8592.76
645.977	8328.58
646.17	8400.26
646.363	8328.58
646.556	8191.36
646.749	8297.86
646.942	8183.17
647.135	7980.42
647.328	7908.74
647.521	8052.1
647.714	7884.17
647.907	8037.77
648.099	7875.98
648.292	8017.29
648.485	7880.07
648.678	7789.96
648.871	7916.94
649.064	7679.37
649.256	7708.04
649.449	7482.77
649.642	7558.54
649.835	7562.64
650.027	7560.59
650.22	7607.69
650.413	7439.76
650.605	7462.29
650.798	7470.48
650.991	7431.57
651.183	7329.17
651.376	7161.23
651.568	7357.84
651.761	7140.76
651.954	7249.3
652.146	7083.41
652.339	7118.23
652.531	7062.93
652.724	7107.99
652.916	6890.9
653.109	6966.68
653.301	6950.29
653.494	6913.43
653.686	6684.06
653.879	6876.57
654.071	6784.41
654.263	6573.47
654.456	6649.24
654.648	6651.29
654.84	6466.97
655.033	6483.36
655.225	6530.46
655.417	6577.56
655.61	6477.21
655.802	6350.24
655.994	6284.7
656.186	6352.29
656.379	6217.12
656.571	6464.93
656.763	6196.64
656.955	6237.6
657.148	6178.21
657.34	6161.83
657.532	6135.2
657.724	6092.2
657.916	6020.52
658.108	6249.89
658.3	6065.57
658.492	5944.74
658.684	5954.98
658.876	5963.17
659.068	5862.82
659.26	5819.82
659.452	5834.15
659.644	5713.32
659.836	5688.75
660.028	5899.69
660.22	5805.48
660.412	5809.58
660.604	5557.68
660.796	5682.6
660.988	5610.92
661.18	5504.43
661.372	5483.95
661.563	5531.05
661.755	5471.66
661.947	5483.95
662.139	5395.89
662.331	5385.65
662.522	5371.31
662.714	5510.57
662.906	5320.11
663.097	5434.8
663.289	5162.42
663.481	5170.61
663.673	5293.49
663.864	5176.75
664.056	5223.86
664.247	5127.6
664.439	5072.31
664.631	5070.26
664.822	5109.17
665.014	5090.74
665.205	5113.27
665.397	5213.62
665.588	5064.11
665.78	4959.67
665.971	4865.46
666.163	4912.57
666.354	5027.25
666.546	4849.08
666.737	4730.3
666.929	4746.68
667.12	4849.08
667.311	4883.89
667.503	4545.98
667.694	4697.53
667.885	4668.86
668.077	4728.25
668.268	4597.18
668.459	4498.88
668.651	4548.03
668.842	4511.16
669.033	4578.75
669.224	4507.07
669.416	4519.36
669.607	4564.41
669.798	4490.68
669.989	4631.99
670.18	4472.25
670.371	4427.2
670.563	4486.59
670.754	4402.62
670.945	4306.37
671.136	4554.17
671.327	4306.37
671.518	4222.4
671.709	4419
671.9	4533.69
672.091	4263.36
672.282	4443.58
672.473	4242.88
672.664	4277.69
672.855	4126.15
673.046	4273.6
673.237	4144.58
673.428	4349.37
673.619	4115.91
673.809	4120
674	4181.44
674.191	4165.06
674.382	4081.09
674.573	4312.51
674.764	4062.66
674.954	4085.19
675.145	4064.71
675.336	4031.94
675.527	3962.31
675.717	3972.55
675.908	4033.99
676.099	3935.68
676.289	3974.6
676.48	3929.54
676.671	3962.31
676.861	3915.2
677.052	3825.09
677.243	3913.16
677.433	3810.76
677.624	3966.4
677.814	3896.77
678.005	3976.64
678.195	3859.91
678.386	3868.1
678.576	3947.97
678.767	3882.44
678.957	3825.09
679.148	3915.2
679.338	3857.86
679.529	3806.66
679.719	3716.55
679.909	3821
680.1	3782.09
680.29	3759.56
680.481	3829.19
680.671	3784.13
680.861	3806.66
681.052	3773.89
681.242	3612.1
681.432	3708.36
681.622	3716.55
681.813	3651.02
682.003	3773.89
682.193	3675.59
682.383	3626.44
682.573	3724.74
682.764	3702.22
682.954	3681.74
683.144	3716.55
683.334	3657.16
683.524	3763.65
683.714	3702.22
683.904	3599.82
684.094	3689.93
684.284	3653.06
684.474	3675.59
684.664	3577.29
684.854	3651.02
685.044	3569.1
685.234	3741.13
685.424	3362.25
685.614	3644.87
685.804	3538.38
685.994	3569.1
686.184	3603.91
686.374	3476.94
686.564	3311.05
686.753	3489.23
686.943	3454.41
687.133	3446.22
687.323	3423.69
687.513	3474.89
687.702	3513.8
687.892	3448.27
688.082	3321.29
688.272	3358.16
688.461	3270.09
688.651	3358.16
688.841	3286.48
689.03	3319.25
689.22	3329.49
689.41	3276.24
689.599	3347.92
689.789	3323.34
689.979	3386.83
690.168	3333.58
690.358	3266
690.547	3175.89
690.737	3247.57
690.926	3157.46
691.116	3196.37
691.305	3309.01
691.495	3145.17
691.684	3153.36
691.874	3161.55
692.063	3206.61
692.252	3202.51
692.442	3069.39
692.631	3120.59
692.82	3147.22
693.01	3196.37
693.199	3005.91
693.388	3046.87
693.578	2954.71
693.767	3005.91
693.956	2979.28
694.146	2960.85
694.335	3010
694.524	2985.43
694.713	3042.77
694.902	2964.95
695.092	2952.66
695.281	2883.03
695.47	3016.15
695.659	2997.71
695.848	2909.65
696.037	3036.63
696.226	2930.13
696.415	2969.04
696.604	2962.9
696.793	2923.99
696.982	2969.04
697.171	2762.2
697.36	2815.45
697.549	2960.85
697.738	2874.84
697.927	2829.78
698.116	2805.21
698.305	2805.21
698.494	2864.6
698.683	2850.26
698.872	2831.83
699.061	2694.61
699.25	2809.3
699.438	2817.49
699.627	2856.4
699.816	2846.16
700.005	2907.6
700.193	2702.81
700.382	2790.87
700.571	2915.8
700.76	2848.21
700.948	2704.85
701.137	2743.77
701.326	2758.1
701.514	2821.59
701.703	2817.49
701.892	2842.07
702.08	2772.44
702.269	2846.16
702.457	2825.68
702.646	2893.27
702.834	2676.18
703.023	2786.77
703.212	2846.16
703.4	2774.49
703.589	2835.92
703.777	2811.35
703.965	2700.76
704.154	2864.6
704.342	2870.74
704.531	2700.76
704.719	2723.29
704.907	2817.49
705.096	2665.94
705.284	2758.1
705.472	2792.92
705.661	2672.09
705.849	2784.73
706.037	2831.83
706.226	2788.82
706.414	2837.97
706.602	2711
706.79	2758.1
706.979	2756.05
707.167	2702.81
707.355	2729.43
707.543	2745.81
707.731	2805.21
707.919	2676.18
708.107	2688.47
708.296	2819.54
708.484	2727.38
708.672	2811.35
708.86	2749.91
709.048	2786.77
709.236	2696.66
709.424	2713.05
709.612	2717.14
709.8	2676.18
709.988	2672.09
710.176	2670.04
710.364	2706.9
710.551	2729.43
710.739	2692.57
710.927	2719.19
711.115	2768.34
711.303	2817.49
711.491	2823.64
711.679	2751.96
711.866	2772.44
712.054	2719.19
712.242	2606.55
712.43	2715.09
712.617	2684.38
712.805	2751.96
712.993	2739.67
713.181	2715.09
713.368	2749.91
713.556	2725.33
713.744	2721.24
713.931	2706.9
714.119	2702.81
714.306	2797.01
714.494	2749.91
714.682	2782.68
714.869	2756.05
715.057	2670.04
715.244	2799.06
715.432	2837.97
715.619	2784.73
715.807	2776.53
715.994	2790.87
716.182	2731.48
716.369	2641.37
716.556	2772.44
716.744	2743.77
716.931	2727.38
717.119	2764.25
717.306	2735.57
717.493	2805.21
717.681	2811.35
717.868	2749.91
718.055	2784.73
718.242	2758.1
718.43	2719.19
718.617	2696.66
718.804	2784.73
718.991	2780.63
719.179	2749.91
719.366	2751.96
719.553	2731.48
719.74	2702.81
719.927	2825.68
720.114	2727.38
720.301	2725.33
720.488	2754.01
720.676	2743.77
720.863	2760.15
721.05	2743.77
721.237	2706.9
721.424	2706.9
721.611	2780.63
721.798	2631.13
721.985	2620.89
722.172	2670.04
722.358	2706.9
722.545	2692.57
722.732	2815.45
722.919	2735.57
723.106	2639.32
723.293	2715.09
723.48	2655.7
723.667	2708.95
723.853	2620.89
724.04	2768.34
724.227	2637.27
724.414	2670.04
724.6	2635.22
724.787	2727.38
724.974	2690.52
725.161	2659.8
725.347	2622.94
725.534	2651.61
725.72	2627.03
725.907	2698.71
726.094	2754.01
726.28	2670.04
726.467	2690.52
726.653	2629.08
726.84	2702.81
727.027	2715.09
727.213	2645.46
727.4	2743.77
727.586	2520.54
727.773	2684.38
727.959	2661.85
728.145	2629.08
728.332	2592.22
728.518	2645.46
728.705	2653.66
728.891	2577.88
729.077	2616.79
729.264	2635.22
729.45	2602.46
729.636	2643.42
729.823	2536.92
730.009	2588.12
730.195	2502.11
730.382	2487.77
730.568	2561.5
730.754	2565.59
730.94	2614.74
731.126	2700.76
731.313	2608.6
731.499	2641.37
731.685	2551.26
731.871	2551.26
732.057	2594.26
732.243	2694.61
732.429	2575.83
732.615	2604.5
732.801	2563.54
732.987	2534.87
733.173	2588.12
733.359	2629.08
733.545	2563.54
733.731	2491.87
733.917	2571.74
734.103	2627.03
734.289	2633.18
734.475	2448.86
734.661	2684.38
734.847	2561.5
735.033	2614.74
735.219	2487.77
735.404	2422.24
735.59	2436.57
735.776	2561.5
735.962	2659.8
736.148	2534.87
736.333	2526.68
736.519	2422.24
736.705	2573.78
736.89	2534.87
737.076	2500.06
737.262	2385.37
737.447	2522.59
737.633	2420.19
737.819	2567.64
738.004	2373.08
738.19	2455
738.375	2461.15
738.561	2311.64
738.747	2428.38
738.932	2397.66
739.118	2350.56
739.303	2416.09
739.489	2459.1
739.674	2332.12
739.859	2352.6
740.045	2346.46
740.23	2289.12
740.416	2244.06
740.601	2387.42
740.786	2237.92
740.972	2289.12
741.157	2389.47
741.342	2246.11
741.528	2293.21
741.713	2301.4
741.898	2358.75
742.084	2280.93
742.269	2334.17
742.454	2295.26
742.639	2346.46
742.824	2190.81
743.01	2258.4
743.195	2278.88
743.38	2160.1
743.565	2278.88
743.75	2090.46
743.935	2215.39
744.12	2203.1
744.305	2031.07
744.49	2184.67
744.675	2137.57
744.86	2153.95
745.045	2121.18
745.23	2096.61
745.415	2078.18
745.6	2129.38
745.785	2125.28
745.97	2137.57
746.155	2063.84
746.34	1990.11
746.525	1977.83
746.71	2092.51
746.895	1869.28
747.079	2041.31
747.264	2061.79
747.449	2067.94
747.634	1938.91
747.819	2004.45
748.003	1902.05
748.188	1848.8
748.373	1916.39
748.557	1914.34
748.742	1813.99
748.927	1838.56
749.111	1930.72
749.296	2026.98
749.481	1879.52
749.665	1889.76
749.85	1822.18
750.034	1852.9
750.219	1924.58
750.404	1785.32
750.588	1762.79
750.773	1842.66
750.957	1791.46
751.141	1713.64
751.326	1713.64
751.51	1607.14
751.695	1607.14
751.879	1687.01
752.064	1656.29
752.248	1674.73
752.432	1605.1
752.617	1744.36
752.801	1607.14
752.985	1678.82
753.17	1613.29
753.354	1656.29
753.538	1605.1
753.722	1617.38
753.907	1615.34
754.091	1629.67
754.275	1490.41
754.459	1572.33
754.643	1590.76
754.828	1588.71
755.012	1486.31
755.196	1521.13
755.38	1441.26
755.564	1467.88
755.748	1461.74
755.932	1455.59
756.116	1400.3
756.3	1322.48
756.484	1400.3
756.668	1412.59
756.852	1459.69
757.036	1416.68
757.22	1365.48
757.404	1328.62
757.588	1312.24
757.772	1330.67
757.956	1334.76
758.14	1422.83
758.323	1326.57
758.507	1193.45
758.691	1283.56
758.875	1277.42
759.059	1322.48
759.242	1398.25
759.426	1191.41
759.61	1279.47
759.794	1228.27
759.977	1224.17
760.161	1279.47
760.345	1316.33
760.528	1287.66
760.712	1252.84
760.895	1166.83
761.079	1152.49
761.263	1355.24
761.446	1209.84
761.63	1154.54
761.813	1127.92
761.997	1084.91
762.18	1134.06
762.364	1199.6
762.547	1107.44
762.731	1191.41
762.914	1129.97
763.098	1084.91
763.281	1056.24
763.464	1072.62
763.648	1119.73
763.831	1187.31
764.015	1103.34
764.198	1095.15
764.381	1000.94
764.564	1072.62
764.748	1162.73
764.931	1021.42
765.114	1121.77
765.297	1095.15
765.481	1107.44
765.664	1048.05
765.847	1021.42
766.03	1062.38
766.213	1070.58
766.397	986.61
766.58	1017.33
766.763	1089.01
766.946	1021.42
767.129	1007.09
767.312	994.8
767.495	1035.76
767.678	900.59
767.861	1033.71
768.044	947.7
768.227	1013.23
768.41	974.32
768.593	1050.1
768.776	990.7
768.959	980.47
769.142	1007.09
769.324	976.37
769.507	937.46
769.69	998.9
769.873	916.98
770.056	916.98
770.239	859.63
770.421	939.51
770.604	796.15
770.787	982.51
770.97	941.55
771.152	802.29
771.335	794.1
771.518	968.18
771.7	808.44
771.883	955.89
772.066	908.79
772.248	857.59
772.431	873.97
772.613	822.77
772.796	876.02
772.978	833.01
773.161	841.2
773.343	808.44
773.526	794.1
773.708	818.68
773.891	810.48
774.073	871.92
774.256	781.81
774.438	802.29
774.621	810.48
774.803	857.59
774.985	710.13
775.168	779.76
775.35	794.1
775.532	857.59
775.715	775.67
775.897	714.23
776.079	732.66
776.261	675.32
776.444	677.37
776.626	718.33
776.808	765.43
776.99	699.89
777.173	744.95
777.355	640.5
777.537	693.75
777.719	767.48
777.901	605.69
778.083	654.84
778.265	620.02
778.447	714.23
778.629	654.84
778.811	669.17
778.993	663.03
779.175	738.8
779.357	579.06
779.539	622.07
779.721	628.21
779.903	632.31
780.085	568.82
780.267	583.16
780.449	593.4
780.631	650.74
780.812	720.37
780.994	617.97
781.176	572.92
781.358	497.14
781.54	681.46
781.721	658.93
781.903	570.87
782.085	560.63
782.267	613.88
782.448	474.62
782.63	562.68
782.812	564.73
782.993	577.02
783.175	548.34
783.357	456.19
783.538	638.45
783.72	556.54
783.901	527.86
784.083	507.38
784.264	527.86
784.446	527.86
784.627	454.14
784.809	456.19
784.99	501.24
785.172	495.1
785.353	474.62
785.535	478.71
785.716	568.82
785.897	398.84
786.079	497.14
786.26	505.34
786.441	464.38
786.623	433.66
786.804	550.39
786.985	493.05
787.167	476.66
787.348	431.61
787.529	466.42
787.71	462.33
787.891	413.18
788.073	466.42
788.254	417.27
788.435	460.28
788.616	462.33
788.797	366.07
788.978	351.74
789.159	423.42
789.34	411.13
789.522	450.04
789.703	407.03
789.884	400.89
790.065	331.26
790.246	433.66
790.427	404.99
790.607	398.84
790.788	364.03
790.969	441.85
791.15	323.07
791.331	370.17
791.512	357.88
791.693	433.66
791.874	370.17
792.054	392.7
792.235	421.37
792.416	273.92
792.597	302.59
792.778	402.94
792.958	380.41
793.139	335.35
793.32	366.07
793.5	306.68
793.681	357.88
793.862	316.92
794.042	347.64
794.223	292.35
794.404	343.55
794.584	308.73
794.765	370.17
794.945	329.21
795.126	341.5
795.306	314.88
795.487	341.5
795.667	216.57
795.848	331.26
796.028	230.91
796.209	392.7
796.389	304.64
796.57	298.49
796.75	359.93
796.93	292.35
797.111	333.31
797.291	267.77
797.471	331.26
797.652	226.81
797.832	312.83
798.012	300.54
798.192	251.39
798.373	253.44
798.553	257.53
798.733	280.06
798.913	249.34
799.093	247.29
799.274	243.2
799.454	218.62
799.634	300.54
799.814	298.49
799.994	245.24
800.174	251.39
800.354	314.88
800.534	280.06
800.714	196.09
800.894	243.2
801.074	286.2
801.254	218.62
801.434	294.4
801.614	222.72
801.794	232.96
801.974	652.79
802.154	218.62
802.334	243.2
802.514	200.19
802.693	228.86
802.873	163.33
803.053	298.49
803.233	259.58
803.413	255.48
803.592	235
803.772	212.48
803.952	235
804.131	235
804.311	179.71
804.491	206.33
804.67	228.86
804.85	177.66
805.03	185.85
805.209	261.63
805.389	136.7
805.568	235
805.748	159.23
805.928	271.87
806.107	237.05
806.287	245.24
806.466	228.86
806.646	273.92
806.825	187.9
807.004	181.76
807.184	189.95
807.363	169.47
807.543	175.61
807.722	153.09
807.901	257.53
808.081	218.62
808.26	187.9
808.439	175.61
808.619	159.23
808.798	155.13
808.977	151.04
809.156	173.57
809.336	157.18
809.515	232.96
809.694	187.9
809.873	175.61
810.052	200.19
810.231	202.24
810.411	204.28
810.59	187.9
810.769	148.99
810.948	187.9
811.127	85.5
811.306	140.8
811.485	138.75
811.664	198.14
811.843	187.9
812.022	165.37
812.201	138.75
812.38	163.33
812.559	108.03
812.737	257.53
812.916	118.27
813.095	126.46
813.274	185.85
813.453	157.18
813.632	146.94
813.811	118.27
813.989	105.98
814.168	140.8
814.347	235
814.526	128.51
814.704	230.91
814.883	286.2
815.062	202.24
815.24	228.86
815.419	122.37
815.598	220.67
815.776	171.52
815.955	181.76
816.133	120.32
816.312	257.53
816.49	167.42
816.669	198.14
816.847	183.81
817.026	144.89
817.204	189.95
817.383	130.56
817.561	200.19
817.74	179.71
817.918	226.81
818.097	202.24
818.275	173.57
818.453	73.21
818.632	259.58
818.81	159.23
818.988	183.81
819.167	120.32
819.345	165.37
819.523	85.5
819.701	189.95
819.879	216.57
820.058	108.03
820.236	212.48
820.414	103.93
820.592	120.32
820.77	185.85
820.948	124.41
821.127	87.55
821.305	130.56
821.483	163.33
821.661	122.37
821.839	163.33
822.017	105.98
822.195	89.6
822.373	212.48
822.551	73.21
822.729	179.71
822.907	187.9
823.085	95.74
823.262	101.89
823.44	126.46
823.618	97.79
823.796	79.36
823.974	69.12
824.152	103.93
824.329	146.94
824.507	122.37
824.685	116.22
824.863	87.55
825.04	116.22
825.218	163.33
825.396	146.94
825.574	122.37
825.751	69.12
825.929	159.23
826.107	116.22
826.284	138.75
826.462	138.75
826.639	60.93
826.817	126.46
826.994	91.65
827.172	118.27
827.349	169.47
827.527	126.46
827.704	105.98
827.882	126.46
828.059	136.7
828.237	103.93
828.414	173.57
828.591	89.6
828.769	126.46
828.946	54.78
829.124	101.89
829.301	130.56
829.478	69.12
829.655	132.61
829.833	159.23
830.01	101.89
830.187	130.56
830.364	99.84
830.542	163.33
830.719	138.75
830.896	130.56
831.073	73.21
831.25	114.17
831.427	101.89
831.604	187.9
831.782	69.12
831.959	187.9
832.136	89.6
832.313	116.22
832.49	93.69
832.667	136.7
832.844	130.56
833.021	167.42
833.198	146.94
833.374	42.5
833.551	114.17
833.728	153.09
833.905	110.08
834.082	36.35
834.259	151.04
834.436	144.89
834.612	110.08
834.789	91.65
834.966	26.11
835.143	56.83
835.319	28.16
835.496	112.13
835.673	91.65
835.85	73.21
836.026	89.6
836.203	73.21
836.38	34.3
836.556	58.88
836.733	62.98
836.909	105.98
837.086	73.21
837.262	13.82
837.439	120.32
837.616	118.27
837.792	95.74
837.968	67.07
838.145	48.64
838.321	67.07
838.498	159.23
838.674	130.56
838.851	28.16
839.027	132.61
839.203	138.75
839.38	67.07
839.556	65.02
839.732	77.31
839.909	83.45
840.085	19.97
840.261	19.97
840.437	60.93
840.614	32.26
840.79	52.74
840.966	81.41
841.142	54.78
841.318	65.02
841.494	44.54
841.671	122.37
841.847	58.88
842.023	22.02
842.199	93.69
842.375	46.59
842.551	42.5
842.727	73.21
842.903	126.46
843.079	-8.7
843.255	108.03
843.431	148.99
843.607	13.82
843.783	46.59
843.959	155.13
844.134	73.21
844.31	144.89
844.486	75.26
844.662	62.98
844.838	30.21
845.013	118.27
845.189	93.69
845.365	75.26
845.541	46.59
845.716	124.41
845.892	7.68
846.068	69.12
846.244	85.5
846.419	24.06
846.595	-8.7
846.77	34.3
846.946	40.45
847.122	19.97
847.297	54.78
847.473	112.13
847.648	-39.42
847.824	44.54
847.999	73.21
848.175	38.4
848.35	114.17
848.526	103.93
848.701	85.5
848.876	110.08
849.052	91.65
849.227	77.31
849.403	105.98
849.578	36.35
849.753	24.06
849.929	89.6
850.104	69.12
850.279	89.6
850.454	81.41
850.63	73.21
850.805	15.87
850.98	40.45
851.155	46.59
851.33	26.11
851.505	46.59
851.681	81.41
851.856	52.74
852.031	138.75
852.206	-20.99
852.381	40.45
852.556	9.73
852.731	99.84
852.906	22.02
853.081	7.68
853.256	153.09
853.431	-41.47
853.606	48.64
853.781	52.74
853.956	15.87
854.131	75.26
854.305	26.11
854.48	3.58
854.655	-16.9
854.83	-2.56
855.005	65.02
855.18	73.21
855.354	48.64
855.529	138.75
855.704	48.64
855.879	30.21
856.053	75.26
856.228	91.65
856.403	-8.7
856.577	79.36
856.752	28.16
856.926	-33.28
857.101	87.55
857.276	13.82
857.45	67.07
857.625	67.07
857.799	40.45
857.974	22.02
858.148	-2.56
858.323	32.26
858.497	28.16
858.672	-27.14
858.846	13.82
859.02	105.98
859.195	-18.94
859.369	77.31
859.543	103.93
859.718	54.78
859.892	89.6
860.066	54.78
860.241	46.59
860.415	7.68
860.589	-8.7
860.763	-41.47
860.938	36.35
861.112	62.98
861.286	28.16
861.46	103.93
861.634	81.41
861.808	91.65
861.982	19.97
862.157	19.97
862.331	28.16
862.505	71.17
862.679	58.88
862.853	13.82
863.027	13.82
863.201	36.35
863.375	71.17
863.549	32.26
863.722	32.26
863.896	157.18
864.07	5.63
864.244	36.35
864.418	83.45
864.592	50.69
864.766	32.26
864.939	52.74
865.113	7.68
865.287	-12.8
865.461	44.54
865.634	93.69
865.808	19.97
865.982	-64
866.156	-25.09
866.329	-53.76
866.503	38.4
866.676	-2.56
866.85	112.13
867.024	-18.94
867.197	110.08
867.371	30.21
867.544	7.68
867.718	-25.09
867.891	7.68
868.065	79.36
868.238	85.5
868.412	108.03
868.585	-18.94
868.759	118.27
868.932	1.54
869.105	48.64
869.279	32.26
869.452	44.54
869.625	38.4
869.799	69.12
869.972	56.83
870.145	36.35
870.319	73.21
870.492	40.45
870.665	3.58
870.838	62.98
871.011	22.02
871.185	99.84
871.358	-27.14
871.531	5.63
871.704	9.73
871.877	7.68
872.05	-10.75
872.223	-16.9
872.396	153.09
872.569	46.59
872.742	65.02
872.915	48.64
873.088	15.87
873.261	-33.28
873.434	-18.94
873.607	26.11
873.78	15.87
873.953	5.63
874.126	13.82
874.299	-0.51
874.471	-18.94
874.644	1.54
874.817	-10.75
874.99	128.51
875.163	-68.09
875.335	67.07
875.508	85.5
875.681	62.98
875.853	-6.66
876.026	81.41
876.199	52.74
876.371	79.36
876.544	26.11
876.717	128.51
876.889	34.3
877.062	65.02
877.234	-16.9
877.407	54.78
877.579	38.4
877.752	-16.9
877.924	28.16
878.097	44.54
878.269	-20.99
878.442	87.55
878.614	62.98
878.786	48.64
878.959	-8.7
879.131	22.02
879.303	-47.62
879.476	-35.33
879.648	77.31
879.82	48.64
879.993	-29.18
880.165	36.35
880.337	79.36
880.509	1.54
880.681	-33.28
880.854	13.82
881.026	-20.99
881.198	101.89
881.37	7.68
881.542	79.36
881.714	40.45
881.886	60.93
882.058	89.6
882.23	50.69
882.402	-10.75
882.574	9.73
882.746	56.83
882.918	81.41
883.09	-12.8
883.262	60.93
883.434	7.68
883.606	-70.14
883.778	44.54
883.95	67.07
884.122	-8.7
884.293	81.41
884.465	48.64
884.637	-8.7
884.809	-72.19
884.98	42.5
885.152	38.4
885.324	54.78
885.496	-53.76
885.667	42.5
885.839	42.5
886.011	-41.47
886.182	11.78
886.354	38.4
886.525	-16.9
886.697	69.12
886.869	17.92
887.04	-0.51
887.212	40.45
887.383	-29.18
887.555	-23.04
887.726	38.4
887.897	32.26
888.069	71.17
888.24	75.26
888.412	-4.61
888.583	24.06
888.754	44.54
888.926	-35.33
889.097	-0.51
889.268	28.16
889.44	46.59
889.611	-66.05
889.782	-27.14
889.953	50.69
890.125	19.97
890.296	-8.7
890.467	-25.09
890.638	24.06
890.809	3.58
890.98	-61.95
891.151	13.82
891.323	101.89
891.494	-8.7
891.665	24.06
891.836	48.64
892.007	19.97
892.178	77.31
892.349	40.45
892.52	62.98
892.691	56.83
892.862	11.78
893.032	5.63
893.203	-29.18
893.374	40.45
893.545	65.02
893.716	-33.28
893.887	40.45
894.057	22.02
894.228	54.78
894.399	-14.85
894.57	-37.38
894.74	144.89
894.911	11.78
895.082	17.92
895.253	-10.75
895.423	5.63
895.594	46.59
895.764	-0.51
895.935	-74.24
896.106	69.12
896.276	-41.47
896.447	60.93
896.617	19.97
896.788	-10.75
896.958	-23.04
897.129	-39.42
897.299	3.58
897.47	69.12
897.64	15.87
897.81	-8.7
897.981	9.73
898.151	-4.61
898.322	17.92
898.492	-41.47
898.662	7.68
898.832	50.69
899.003	15.87
899.173	-4.61
899.343	-25.09
899.513	22.02
