Data from USB4F104151__91__10-24-29-200.txt Node

Date: Wed Mar 12 10:24:29 EDT 2025
User: louis
Spectrometer: USB4F10415
Trigger mode: 4
Integration Time (sec): 3.000000E-2
Scans to average: 1
Electric dark correction enabled: true
Nonlinearity correction enabled: false
Boxcar width: 0
XAxis mode: Wavelengths
Number of Pixels in Spectrum: 3648
>>>>>Begin Spectral Data<<<<<
178.204	-121.51
178.424	-121.51
178.644	-121.51
178.864	-129.7
179.084	-101.03
179.304	-43.69
179.524	-35.5
179.744	64.85
179.964	62.8
180.184	-29.35
180.404	-4.78
180.624	-27.31
180.844	34.13
181.064	-45.74
181.283	1.37
181.503	-17.07
181.723	40.28
181.943	-19.11
182.163	40.28
182.383	38.23
182.602	36.18
182.822	132.44
183.042	-25.26
183.262	103.76
183.482	-19.11
183.701	60.76
183.921	-43.69
184.141	-4.78
184.361	95.57
184.58	-51.88
184.8	52.56
185.02	-10.92
185.239	73.04
185.459	17.75
185.679	-0.68
185.898	17.75
186.118	46.42
186.338	40.28
186.557	-8.87
186.777	1.37
186.997	34.13
187.216	77.14
187.436	64.85
187.655	91.48
187.875	91.48
188.095	9.56
188.314	48.47
188.534	42.32
188.753	1.37
188.973	60.76
189.192	44.37
189.412	25.94
189.631	9.56
189.851	58.71
190.07	66.9
190.29	17.75
190.509	40.28
190.729	46.42
190.948	75.09
191.168	79.19
191.387	85.33
191.607	21.85
191.826	5.46
192.045	56.66
192.265	34.13
192.484	42.32
192.704	75.09
192.923	-51.88
193.142	204.11
193.362	68.95
193.581	-4.78
193.8	75.09
194.02	7.51
194.239	89.43
194.458	109.91
194.678	17.75
194.897	1.37
195.116	68.95
195.335	46.42
195.555	68.95
195.774	58.71
195.993	34.13
196.212	42.32
196.432	105.81
196.651	25.94
196.87	7.51
197.089	64.85
197.308	56.66
197.528	101.72
197.747	44.37
197.966	-45.74
198.185	5.46
198.404	93.52
198.623	-55.98
198.842	56.66
199.062	97.62
199.281	79.19
199.5	1.37
199.719	-12.97
199.938	-8.87
200.157	103.76
200.376	38.23
200.595	87.38
200.814	87.38
201.033	21.85
201.252	81.24
201.471	75.09
201.69	42.32
201.909	73.04
202.128	62.8
202.347	21.85
202.566	64.85
202.785	17.75
203.004	-53.93
203.223	46.42
203.442	25.94
203.661	-27.31
203.879	58.71
204.098	75.09
204.317	36.18
204.536	25.94
204.755	1.37
204.974	144.72
205.193	75.09
205.411	111.96
205.63	85.33
205.849	148.82
206.068	23.89
206.287	38.23
206.505	32.08
206.724	62.8
206.943	34.13
207.162	56.66
207.381	36.18
207.599	56.66
207.818	27.99
208.037	105.81
208.255	27.99
208.474	-8.87
208.693	122.2
208.911	-2.73
209.13	32.08
209.349	77.14
209.567	75.09
209.786	87.38
210.005	79.19
210.223	68.95
210.442	15.7
210.661	56.66
210.879	21.85
211.098	1.37
211.316	81.24
211.535	66.9
211.753	17.75
211.972	30.04
212.191	27.99
212.409	27.99
212.628	60.76
212.846	15.7
213.065	64.85
213.283	54.61
213.502	9.56
213.72	89.43
213.938	-10.92
214.157	73.04
214.375	13.65
214.594	-4.78
214.812	165.2
215.031	21.85
215.249	-53.93
215.467	109.91
215.686	83.28
215.904	50.52
216.122	30.04
216.341	44.37
216.559	93.52
216.778	54.61
216.996	44.37
217.214	46.42
217.432	25.94
217.651	32.08
217.869	56.66
218.087	99.67
218.306	87.38
218.524	116.05
218.742	58.71
218.96	101.72
219.179	-27.31
219.397	44.37
219.615	83.28
219.833	50.52
220.051	30.04
220.27	148.82
220.488	42.32
220.706	30.04
220.924	77.14
221.142	46.42
221.36	30.04
221.578	21.85
221.796	5.46
222.015	-4.78
222.233	36.18
222.451	36.18
222.669	56.66
222.887	21.85
223.105	-25.26
223.323	73.04
223.541	54.61
223.759	13.65
223.977	81.24
224.195	60.76
224.413	83.28
224.631	38.23
224.849	25.94
225.067	89.43
225.285	7.51
225.503	44.37
225.721	-10.92
225.939	-19.11
226.157	38.23
226.375	42.32
226.592	66.9
226.81	64.85
227.028	21.85
227.246	87.38
227.464	50.52
227.682	50.52
227.9	52.56
228.117	46.42
228.335	25.94
228.553	77.14
228.771	3.41
228.989	58.71
229.206	25.94
229.424	-10.92
229.642	66.9
229.86	89.43
230.077	109.91
230.295	-17.07
230.513	40.28
230.731	1.37
230.948	58.71
231.166	64.85
231.384	-6.83
231.601	44.37
231.819	73.04
232.037	44.37
232.254	-55.98
232.472	109.91
232.689	73.04
232.907	101.72
233.125	-29.35
233.342	71
233.56	32.08
233.777	-6.83
233.995	44.37
234.213	83.28
234.43	38.23
234.648	11.61
234.865	25.94
235.083	107.86
235.3	46.42
235.518	85.33
235.735	81.24
235.953	75.09
236.17	50.52
236.388	71
236.605	27.99
236.822	89.43
237.04	15.7
237.257	52.56
237.475	-15.02
237.692	58.71
237.909	71
238.127	38.23
238.344	93.52
238.562	46.42
238.779	25.94
238.996	44.37
239.214	71
239.431	75.09
239.648	15.7
239.865	27.99
240.083	71
240.3	23.89
240.517	60.76
240.735	54.61
240.952	99.67
241.169	124.24
241.386	109.91
241.603	32.08
241.821	-19.11
242.038	85.33
242.255	42.32
242.472	83.28
242.689	-2.73
242.907	-17.07
243.124	64.85
243.341	71
243.558	81.24
243.775	23.89
243.992	50.52
244.209	46.42
244.426	50.52
244.643	13.65
244.86	-47.79
245.078	66.9
245.295	122.2
245.512	7.51
245.729	89.43
245.946	83.28
246.163	79.19
246.38	85.33
246.597	9.56
246.814	-17.07
247.031	1.37
247.248	66.9
247.464	58.71
247.681	13.65
247.898	42.32
248.115	19.8
248.332	120.15
248.549	58.71
248.766	73.04
248.983	-6.83
249.2	38.23
249.417	-0.68
249.633	46.42
249.85	52.56
250.067	44.37
250.284	66.9
250.501	-0.68
250.717	77.14
250.934	91.48
251.151	32.08
251.368	75.09
251.585	87.38
251.801	-25.26
252.018	36.18
252.235	71
252.451	1.37
252.668	46.42
252.885	83.28
253.102	17.75
253.318	-8.87
253.535	-8.87
253.752	21.85
253.968	15.7
254.185	1.37
254.401	50.52
254.618	5.46
254.835	9.56
255.051	77.14
255.268	89.43
255.484	42.32
255.701	17.75
255.917	68.95
256.134	17.75
256.351	30.04
256.567	40.28
256.784	40.28
257	-37.55
257.217	-43.69
257.433	91.48
257.65	64.85
257.866	97.62
258.082	27.99
258.299	64.85
258.515	83.28
258.732	66.9
258.948	-64.17
259.165	58.71
259.381	97.62
259.597	52.56
259.814	91.48
260.03	40.28
260.246	9.56
260.463	1.37
260.679	42.32
260.895	83.28
261.112	1.37
261.328	34.13
261.544	58.71
261.761	36.18
261.977	60.76
262.193	7.51
262.409	7.51
262.626	130.39
262.842	5.46
263.058	1.37
263.274	27.99
263.49	105.81
263.707	87.38
263.923	1.37
264.139	9.56
264.355	9.56
264.571	50.52
264.787	50.52
265.004	148.82
265.22	64.85
265.436	66.9
265.652	89.43
265.868	116.05
266.084	71
266.3	66.9
266.516	11.61
266.732	54.61
266.948	34.13
267.164	79.19
267.38	-10.92
267.596	93.52
267.812	75.09
268.028	17.75
268.244	-2.73
268.46	54.61
268.676	5.46
268.892	-19.11
269.108	46.42
269.324	34.13
269.54	58.71
269.756	87.38
269.972	-12.97
270.188	81.24
270.403	-27.31
270.619	64.85
270.835	9.56
271.051	62.8
271.267	30.04
271.483	-66.22
271.698	5.46
271.914	46.42
272.13	9.56
272.346	34.13
272.562	85.33
272.777	79.19
272.993	13.65
273.209	48.47
273.425	54.61
273.64	66.9
273.856	89.43
274.072	58.71
274.287	-17.07
274.503	66.9
274.719	75.09
274.934	62.8
275.15	-39.59
275.366	52.56
275.581	1.37
275.797	40.28
276.012	50.52
276.228	95.57
276.444	50.52
276.659	38.23
276.875	-6.83
277.09	107.86
277.306	58.71
277.521	-19.11
277.737	60.76
277.952	87.38
278.168	116.05
278.383	71
278.599	73.04
278.814	62.8
279.03	36.18
279.245	99.67
279.461	95.57
279.676	38.23
279.892	64.85
280.107	11.61
280.322	21.85
280.538	23.89
280.753	38.23
280.969	13.65
281.184	15.7
281.399	73.04
281.615	1.37
281.83	66.9
282.045	-31.4
282.26	7.51
282.476	-12.97
282.691	50.52
282.906	71
283.122	15.7
283.337	36.18
283.552	25.94
283.767	30.04
283.983	109.91
284.198	52.56
284.413	36.18
284.628	73.04
284.843	54.61
285.058	93.52
285.274	38.23
285.489	32.08
285.704	91.48
285.919	66.9
286.134	66.9
286.349	36.18
286.564	32.08
286.779	111.96
286.995	114
287.21	11.61
287.425	105.81
287.64	-10.92
287.855	-15.02
288.07	34.13
288.285	38.23
288.5	101.72
288.715	103.76
288.93	81.24
289.145	25.94
289.36	60.76
289.575	36.18
289.79	71
290.004	54.61
290.219	99.67
290.434	30.04
290.649	34.13
290.864	81.24
291.079	50.52
291.294	52.56
291.509	15.7
291.724	73.04
291.938	5.46
292.153	48.47
292.368	83.28
292.583	15.7
292.798	30.04
293.012	132.44
293.227	138.58
293.442	-12.97
293.657	50.52
293.871	140.63
294.086	48.47
294.301	50.52
294.516	30.04
294.73	38.23
294.945	83.28
295.16	73.04
295.374	38.23
295.589	91.48
295.804	91.48
296.018	21.85
296.233	130.39
296.447	81.24
296.662	25.94
296.877	122.2
297.091	42.32
297.306	71
297.52	34.13
297.735	21.85
297.949	95.57
298.164	73.04
298.378	50.52
298.593	-64.17
298.807	77.14
299.022	32.08
299.236	34.13
299.451	21.85
299.665	19.8
299.88	83.28
300.094	54.61
300.309	1.37
300.523	15.7
300.737	132.44
300.952	-2.73
301.166	75.09
301.381	52.56
301.595	23.89
301.809	42.32
302.024	52.56
302.238	52.56
302.452	34.13
302.667	30.04
302.881	99.67
303.095	107.86
303.309	89.43
303.524	9.56
303.738	5.46
303.952	19.8
304.166	38.23
304.381	17.75
304.595	27.99
304.809	-6.83
305.023	-2.73
305.237	34.13
305.452	21.85
305.666	13.65
305.88	58.71
306.094	79.19
306.308	38.23
306.522	58.71
306.736	79.19
306.95	93.52
307.164	25.94
307.379	5.46
307.593	32.08
307.807	116.05
308.021	107.86
308.235	103.76
308.449	66.9
308.663	1.37
308.877	128.34
309.091	36.18
309.305	-21.16
309.519	21.85
309.733	91.48
309.947	-10.92
310.161	148.82
310.374	95.57
310.588	79.19
310.802	109.91
311.016	36.18
311.23	66.9
311.444	58.71
311.658	1.37
311.872	83.28
312.085	83.28
312.299	83.28
312.513	42.32
312.727	64.85
312.941	-29.35
313.154	126.29
313.368	87.38
313.582	126.29
313.796	38.23
314.009	62.8
314.223	75.09
314.437	97.62
314.651	93.52
314.864	83.28
315.078	1.37
315.292	44.37
315.505	17.75
315.719	1.37
315.933	34.13
316.146	19.8
316.36	42.32
316.573	89.43
316.787	75.09
317.001	13.65
317.214	7.51
317.428	66.9
317.641	13.65
317.855	71
318.068	42.32
318.282	32.08
318.495	83.28
318.709	85.33
318.922	38.23
319.136	44.37
319.349	23.89
319.563	81.24
319.776	23.89
319.99	-29.35
320.203	77.14
320.417	77.14
320.63	30.04
320.843	122.2
321.057	68.95
321.27	46.42
321.483	97.62
321.697	46.42
321.91	50.52
322.124	83.28
322.337	15.7
322.55	23.89
322.763	-4.78
322.977	38.23
323.19	81.24
323.403	64.85
323.617	85.33
323.83	99.67
324.043	13.65
324.256	50.52
324.469	-4.78
324.683	-31.4
324.896	66.9
325.109	-25.26
325.322	64.85
325.535	83.28
325.748	95.57
325.962	95.57
326.175	109.91
326.388	105.81
326.601	73.04
326.814	68.95
327.027	48.47
327.24	83.28
327.453	34.13
327.666	54.61
327.879	32.08
328.092	83.28
328.305	87.38
328.518	19.8
328.731	52.56
328.944	9.56
329.157	111.96
329.37	66.9
329.583	75.09
329.796	107.86
330.009	-2.73
330.222	85.33
330.435	19.8
330.648	89.43
330.861	107.86
331.073	19.8
331.286	71
331.499	79.19
331.712	-49.83
331.925	95.57
332.138	23.89
332.35	48.47
332.563	1.37
332.776	99.67
332.989	34.13
333.202	38.23
333.414	13.65
333.627	48.47
333.84	116.05
334.053	77.14
334.265	87.38
334.478	83.28
334.691	11.61
334.903	87.38
335.116	-15.02
335.329	30.04
335.541	15.7
335.754	38.23
335.966	3.41
336.179	25.94
336.392	58.71
336.604	15.7
336.817	25.94
337.029	81.24
337.242	75.09
337.454	111.96
337.667	68.95
337.88	54.61
338.092	103.76
338.305	38.23
338.517	64.85
338.729	116.05
338.942	87.38
339.154	-10.92
339.367	-6.83
339.579	97.62
339.792	58.71
340.004	189.78
340.217	87.38
340.429	-8.87
340.641	42.32
340.854	60.76
341.066	152.92
341.278	25.94
341.491	85.33
341.703	87.38
341.915	66.9
342.128	66.9
342.34	85.33
342.552	34.13
342.764	50.52
342.977	73.04
343.189	66.9
343.401	85.33
343.613	-39.59
343.826	17.75
344.038	-0.68
344.25	107.86
344.462	54.61
344.674	36.18
344.886	-31.4
345.099	132.44
345.311	99.67
345.523	17.75
345.735	62.8
345.947	107.86
346.159	56.66
346.371	46.42
346.583	-2.73
346.795	48.47
347.007	-80.55
347.219	105.81
347.431	11.61
347.643	50.52
347.855	56.66
348.067	58.71
348.279	-43.69
348.491	23.89
348.703	99.67
348.915	-2.73
349.127	89.43
349.339	81.24
349.551	56.66
349.763	99.67
349.975	42.32
350.187	114
350.399	116.05
350.61	23.89
350.822	114
351.034	83.28
351.246	50.52
351.458	-27.31
351.669	111.96
351.881	114
352.093	91.48
352.305	97.62
352.517	73.04
352.728	107.86
352.94	62.8
353.152	1.37
353.363	97.62
353.575	83.28
353.787	38.23
353.999	13.65
354.21	66.9
354.422	44.37
354.633	15.7
354.845	77.14
355.057	58.71
355.268	32.08
355.48	56.66
355.692	46.42
355.903	116.05
356.115	32.08
356.326	68.95
356.538	58.71
356.749	40.28
356.961	118.1
357.172	5.46
357.384	-29.35
357.595	103.76
357.807	161.11
358.018	5.46
358.23	58.71
358.441	103.76
358.653	101.72
358.864	32.08
359.075	83.28
359.287	77.14
359.498	50.52
359.709	52.56
359.921	34.13
360.132	48.47
360.344	52.56
360.555	34.13
360.766	42.32
360.977	120.15
361.189	107.86
361.4	93.52
361.611	68.95
361.823	71
362.034	30.04
362.245	-51.88
362.456	48.47
362.667	91.48
362.879	64.85
363.09	118.1
363.301	73.04
363.512	95.57
363.723	97.62
363.935	44.37
364.146	157.01
364.357	17.75
364.568	103.76
364.779	83.28
364.99	107.86
365.201	13.65
365.412	148.82
365.623	120.15
365.834	7.51
366.045	13.65
366.256	124.24
366.467	54.61
366.678	9.56
366.889	71
367.1	27.99
367.311	81.24
367.522	-6.83
367.733	107.86
367.944	79.19
368.155	62.8
368.366	89.43
368.577	87.38
368.788	107.86
368.999	-4.78
369.209	95.57
369.42	120.15
369.631	146.77
369.842	109.91
370.053	52.56
370.264	134.48
370.474	23.89
370.685	68.95
370.896	105.81
371.107	150.87
371.317	54.61
371.528	-27.31
371.739	114
371.95	50.52
372.16	44.37
372.371	99.67
372.582	71
372.792	68.95
373.003	54.61
373.214	17.75
373.424	83.28
373.635	50.52
373.846	142.68
374.056	120.15
374.267	97.62
374.477	21.85
374.688	19.8
374.898	40.28
375.109	83.28
375.319	66.9
375.53	42.32
375.74	36.18
375.951	130.39
376.161	109.91
376.372	107.86
376.582	79.19
376.793	68.95
377.003	-37.55
377.214	66.9
377.424	109.91
377.635	71
377.845	97.62
378.055	95.57
378.266	1.37
378.476	99.67
378.686	99.67
378.897	75.09
379.107	101.72
379.317	64.85
379.528	60.76
379.738	103.76
379.948	83.28
380.158	77.14
380.369	44.37
380.579	101.72
380.789	71
380.999	77.14
381.21	101.72
381.42	120.15
381.63	83.28
381.84	58.71
382.05	150.87
382.261	30.04
382.471	75.09
382.681	107.86
382.891	136.53
383.101	34.13
383.311	66.9
383.521	103.76
383.731	114
383.941	66.9
384.151	107.86
384.361	81.24
384.571	116.05
384.781	68.95
384.991	200.02
385.201	120.15
385.411	48.47
385.621	132.44
385.831	62.8
386.041	91.48
386.251	91.48
386.461	193.87
386.671	75.09
386.881	114
387.091	17.75
387.301	79.19
387.511	50.52
387.72	118.1
387.93	99.67
388.14	89.43
388.35	66.9
388.56	132.44
388.769	54.61
388.979	157.01
389.189	42.32
389.399	120.15
389.609	165.2
389.818	114
390.028	79.19
390.238	97.62
390.447	83.28
390.657	181.59
390.867	101.72
391.076	50.52
391.286	120.15
391.496	107.86
391.705	83.28
391.915	109.91
392.125	58.71
392.334	157.01
392.544	179.54
392.753	75.09
392.963	99.67
393.172	95.57
393.382	97.62
393.591	220.5
393.801	87.38
394.01	181.59
394.22	126.29
394.429	87.38
394.639	50.52
394.848	116.05
395.058	146.77
395.267	105.81
395.477	116.05
395.686	122.2
395.895	128.34
396.105	193.87
396.314	134.48
396.524	150.87
396.733	130.39
396.942	126.29
397.152	138.58
397.361	191.83
397.57	91.48
397.78	107.86
397.989	124.24
398.198	204.11
398.407	161.11
398.617	132.44
398.826	189.78
399.035	77.14
399.244	185.68
399.453	157.01
399.663	95.57
399.872	132.44
400.081	140.63
400.29	214.35
400.499	197.97
400.708	175.44
400.917	181.59
401.127	173.39
401.336	146.77
401.545	189.78
401.754	210.26
401.963	89.43
402.172	81.24
402.381	140.63
402.59	165.2
402.799	124.24
403.008	165.2
403.217	210.26
403.426	177.49
403.635	165.2
403.844	150.87
404.053	245.07
404.262	193.87
404.471	300.37
404.68	193.87
404.888	189.78
405.097	128.34
405.306	240.98
405.515	179.54
405.724	236.88
405.933	218.45
406.142	206.16
406.35	261.46
406.559	230.74
406.768	148.82
406.977	243.03
407.185	243.03
407.394	314.7
407.603	185.68
407.812	243.03
408.02	318.8
408.229	296.27
408.438	333.14
408.646	265.55
408.855	347.47
409.064	357.71
409.272	236.88
409.481	402.77
409.69	300.37
409.898	374.1
410.107	339.28
410.315	431.44
410.524	499.02
410.733	423.25
410.941	431.44
411.15	488.78
411.358	456.01
411.567	470.35
411.775	509.26
411.984	408.91
412.192	599.37
412.401	570.7
412.609	566.6
412.818	560.46
413.026	640.33
413.234	628.04
413.443	640.33
413.651	687.43
413.86	697.67
414.068	744.78
414.276	716.11
414.485	771.4
414.693	812.36
414.901	867.66
415.11	861.51
415.318	949.57
415.526	982.34
415.734	902.47
415.943	976.2
416.151	1068.36
416.359	951.62
416.567	1043.78
416.776	1029.45
416.984	1111.36
417.192	1221.95
417.4	1140.04
417.608	1238.34
417.817	1185.09
418.025	1367.36
418.233	1350.98
418.441	1365.31
418.649	1525.05
418.857	1606.97
419.065	1629.5
419.273	1527.1
419.481	1611.07
419.689	1668.41
419.897	1789.24
420.105	1877.3
420.313	1856.83
420.521	1885.5
420.729	2039.09
420.937	2022.71
421.145	2229.56
421.353	2282.8
421.561	2317.62
421.769	2385.2
421.977	2465.07
422.185	2475.31
422.393	2510.13
422.601	2831.66
422.809	2823.47
423.017	2878.76
423.224	2841.9
423.432	3028.26
423.64	2987.3
423.848	3251.49
424.056	3231.01
424.263	3439.9
424.471	3388.71
424.679	3546.4
424.887	3732.76
425.094	3898.65
425.302	3822.88
425.51	4011.29
425.718	4062.49
425.925	4109.59
426.133	4224.28
426.341	4615.44
426.548	4683.02
426.756	4861.2
426.964	4844.81
427.171	5205.25
427.379	5340.42
427.586	5309.7
427.794	5549.31
428.001	5750.01
428.209	5960.95
428.417	5719.29
428.624	6249.72
428.832	6300.92
429.039	6128.89
429.247	6159.61
429.454	6796.53
429.662	7302.37
429.869	6612.21
430.076	7251.17
430.284	6958.32
430.491	7302.37
430.699	7824.61
430.906	7871.71
431.114	7701.73
431.321	8248.54
431.528	8240.34
431.736	8905.93
431.943	9170.12
432.15	9110.73
432.358	9008.33
432.565	9628.87
432.772	9524.42
432.979	10077.37
433.187	10374.33
433.394	10276.02
433.601	10994.86
433.808	10908.85
434.016	10734.77
434.223	11334.82
434.43	12018.85
434.637	11566.24
434.844	12551.32
435.052	12729.49
435.259	12655.76
435.466	12860.56
435.673	12518.55
435.88	13681.8
436.087	14085.25
436.294	14408.83
436.501	13829.25
436.708	14230.65
436.915	14451.83
437.122	15410.28
437.329	14961.78
437.537	15858.79
437.743	16024.67
437.95	15905.89
438.157	16716.89
438.364	17028.18
438.571	17022.03
438.778	17376.33
438.985	18582.59
439.192	18211.9
439.399	18756.66
439.606	18152.51
439.813	19180.59
440.02	20302.88
440.227	20126.75
440.433	19942.44
440.64	20626.46
440.847	20716.57
441.054	20962.33
441.261	22352.9
441.467	21832.71
441.674	22561.79
441.881	23235.57
442.088	23315.44
442.294	22817.79
442.501	23694.32
442.708	23788.52
442.914	25138.13
443.121	25856.97
443.328	25248.72
443.534	27204.53
443.741	26268.61
443.948	26151.88
444.154	28302.25
444.361	27620.27
444.568	28117.93
444.774	28027.82
444.981	28238.76
445.187	28971.93
445.394	30450.56
445.6	29920.14
445.807	32775.01
446.013	31124.35
446.22	31982.45
446.426	32969.57
446.633	33076.06
446.839	34331.47
447.046	33160.03
447.252	34761.54
447.459	34870.08
447.665	34872.13
447.871	36338.47
448.078	37780.24
448.284	35939.12
448.491	36436.78
448.697	38220.56
448.903	39045.89
449.11	38896.39
449.316	38292.24
449.522	39140.1
449.728	39987.96
449.935	40282.86
450.141	40020.72
450.347	40872.68
450.553	39662.33
450.76	40274.67
450.966	41237.22
451.172	41050.85
451.378	41884.37
451.584	41253.6
451.791	41906.9
451.997	41853.65
452.203	42627.79
452.409	42375.89
452.615	41994.96
452.821	40633.07
453.027	40041.2
453.233	42089.17
453.44	40624.87
453.646	41222.88
453.852	40469.23
454.058	41587.42
454.264	40446.7
454.47	41476.83
454.676	40217.33
454.882	41556.7
455.088	37796.63
455.294	38482.7
455.5	38853.38
455.705	39183.1
455.911	37663.51
456.117	37104.42
456.323	36584.23
456.529	34843.46
456.735	35828.53
456.941	35220.28
457.147	34159.44
457.352	33553.24
457.558	32938.85
457.764	33297.24
457.97	32701.28
458.176	31617.91
458.381	31605.62
458.587	30057.35
458.793	30309.25
458.999	28703.65
459.204	30346.12
459.41	29905.81
459.616	27876.27
459.821	27749.29
460.027	27521.97
460.233	27290.55
460.438	25832.4
460.644	26090.44
460.85	24929.24
461.055	24454.11
461.261	24511.46
461.466	22496.25
461.672	22135.81
461.878	23614.44
462.083	21904.39
462.289	21482.51
462.494	21251.09
462.7	20329.5
462.905	19792.94
463.111	20878.36
463.316	20794.39
463.522	20210.72
463.727	20427.81
463.932	20403.23
464.138	19967.01
464.343	20030.5
464.549	19790.89
464.754	20456.48
464.959	20134.95
465.165	19631.15
465.37	18953.27
465.575	18515
465.781	19321.9
465.986	19586.09
466.191	18852.92
466.397	18142.27
466.602	17417.29
466.807	17968.2
467.012	18263.1
467.218	17869.89
467.423	17972.29
467.628	17935.43
467.833	18572.35
468.038	18025.54
468.244	17396.81
468.449	18181.18
468.654	17548.36
468.859	17464.39
469.064	17359.95
469.269	16534.62
469.474	16714.84
469.679	17134.67
469.885	16477.27
470.09	16880.72
470.295	16784.47
470.5	16352.35
470.705	16313.44
470.91	16018.53
471.115	15907.94
471.32	16143.46
471.525	15752.29
471.73	15522.92
471.935	15375.47
472.139	15086.7
472.344	15105.13
472.549	15307.88
472.754	14859.38
472.959	14642.29
473.164	14206.08
473.369	14060.67
473.574	14619.77
473.778	14351.48
473.983	14367.87
474.188	14167.17
474.393	13642.89
474.598	13745.28
474.802	13526.15
475.007	13427.85
475.212	13575.3
475.417	13032.59
475.621	13202.57
475.826	13182.09
476.031	12872.85
476.235	12817.55
476.44	12831.89
476.645	12242.07
476.849	12350.62
477.054	12338.33
477.259	12233.88
477.463	12440.73
477.668	11900.06
477.872	12151.96
478.077	12039.33
478.282	11306.15
478.486	11502.76
478.691	11572.39
478.895	11451.56
479.1	11711.65
479.304	11314.34
479.509	10978.48
479.713	11097.26
479.918	10998.96
480.122	10837.17
480.326	10941.61
480.531	10810.54
480.735	10880.18
480.94	10745.01
481.144	11154.6
481.348	10622.13
481.553	10585.27
481.757	10472.63
481.961	10742.96
482.166	10628.28
482.37	10716.34
482.574	10372.28
482.778	10359.99
482.983	10654.9
483.187	10593.46
483.391	10630.32
483.595	10384.57
483.8	10466.49
484.004	10597.56
484.208	10605.75
484.412	10384.57
484.616	10654.9
484.821	10593.46
485.025	10446.01
485.229	10673.33
485.433	10396.85
485.637	10364.09
485.841	10327.22
486.045	10470.58
486.249	10333.37
486.453	10290.36
486.657	10521.78
486.861	10466.49
487.065	10290.36
487.269	10462.39
487.473	10341.56
487.677	10708.15
487.881	10534.07
488.085	10327.22
488.289	10468.53
488.493	10370.23
488.697	10417.33
488.901	10472.63
489.105	10474.68
489.309	10329.27
489.512	10421.43
489.716	10728.63
489.92	10493.11
490.124	10572.98
490.328	10749.11
490.531	10757.3
490.735	10593.46
490.939	10798.26
491.143	10749.11
491.346	10587.32
491.55	10783.92
491.754	10828.98
491.958	10931.37
492.161	10964.14
492.365	11011.25
492.569	10929.33
492.772	10964.14
492.976	11236.52
493.18	11345.06
493.383	11279.53
493.587	11465.89
493.79	11545.77
493.994	11308.2
494.197	11480.23
494.401	11916.45
494.605	11697.31
494.808	11850.91
495.012	11793.57
495.215	11973.79
495.419	11981.98
495.622	11922.59
495.825	12254.36
496.029	12192.92
496.232	12498.07
496.436	12330.14
496.639	12713.11
496.843	12604.57
497.046	12952.72
497.249	13014.16
497.453	13175.95
497.656	13157.52
497.859	13274.25
498.063	13538.44
498.266	13849.73
498.469	13661.32
498.673	13900.93
498.876	14062.72
499.079	14244.99
499.282	14136.45
499.485	14492.79
499.689	14580.85
499.892	14787.7
500.095	14732.4
500.298	15187.05
500.501	14761.08
500.705	15531.11
500.908	15690.85
501.111	15721.57
501.314	15901.79
501.517	15844.45
501.72	16254.05
501.923	16315.48
502.126	16843.86
502.329	16903.25
502.532	17028.18
502.735	17284.17
502.938	17298.51
503.141	17654.86
503.344	17935.43
503.547	17941.57
503.75	18056.26
503.953	18156.61
504.156	18476.09
504.359	18662.46
504.562	18807.86
504.765	19330.09
504.968	19135.54
505.17	19354.67
505.373	19608.62
505.576	19997.73
505.779	20253.73
505.982	20526.11
506.185	20657.18
506.387	20628.51
506.59	21070.87
506.793	21400.59
506.996	20966.42
507.198	21859.34
507.401	22127.62
507.604	22168.58
507.807	22344.7
508.009	22547.45
508.212	22742.01
508.415	23268.34
508.617	23215.09
508.82	23340.02
509.022	23202.8
509.225	23987.18
509.428	24095.72
509.63	24601.57
509.833	24484.83
510.035	24986.58
510.238	24978.39
510.44	25086.93
510.643	25881.55
510.845	25838.54
511.048	25762.76
511.25	26268.61
511.453	26239.94
511.655	27294.64
511.858	27022.26
512.06	27413.43
512.262	27405.24
512.465	27505.59
512.667	27724.72
512.87	27982.76
513.072	28425.12
513.274	28875.68
513.477	29170.58
513.679	29336.47
513.881	29576.08
514.084	30057.35
514.286	30049.16
514.488	30630.79
514.69	31353.72
514.893	31263.61
515.095	31417.21
515.297	31658.87
515.499	31828.85
515.701	32029.55
515.904	32525.16
516.106	32545.64
516.308	32809.82
516.51	33852.24
516.712	33493.85
516.914	33971.02
517.116	34493.25
517.318	34845.51
517.52	34921.28
517.722	34700.1
517.925	35169.08
518.127	35408.7
518.329	35865.39
518.531	35928.88
518.733	36481.83
518.935	37239.58
519.136	36805.41
519.338	37630.74
519.54	37702.42
519.742	38277.9
519.944	38482.7
520.146	38933.25
520.348	39205.63
520.55	38959.87
520.752	39514.87
520.954	40297.2
521.155	39863.03
521.357	40446.7
521.559	40608.49
521.761	41222.88
521.963	41364.19
522.164	41192.16
522.366	41626.33
522.568	42109.65
522.77	42371.79
522.971	42789.58
523.173	42765
523.375	43006.66
523.576	43252.42
523.778	43154.11
523.98	44110.52
524.181	43891.38
524.383	44575.41
524.584	44944.04
524.786	44520.11
524.988	44790.44
525.189	45277.86
525.391	45554.33
525.592	45441.7
525.794	45935.26
525.995	45828.76
526.197	46340.75
526.398	46092.95
526.6	46643.85
526.801	46867.08
527.003	47049.35
527.204	46979.72
527.406	47598.21
527.607	47475.33
527.808	47712.89
528.01	46725.77
528.211	47495.81
528.412	48640.62
528.614	48142.97
528.815	48034.42
529.016	48509.55
529.218	48372.34
529.419	48618.1
529.62	48996.97
529.822	49136.23
530.023	48925.29
530.224	48829.04
530.425	48738.93
530.626	48482.93
530.828	48538.22
531.029	49429.09
531.23	49212.01
531.431	48917.1
531.632	49369.7
531.833	49807.97
532.035	49793.63
532.236	49820.25
532.437	49754.72
532.638	49277.54
532.839	50338.39
533.04	50317.91
533.241	49531.49
533.442	50530.9
533.643	50301.53
533.844	50489.94
534.045	50039.39
534.246	49973.85
534.447	50362.96
534.648	50272.85
534.849	50496.08
535.05	50039.39
535.251	50289.24
535.451	50100.82
535.652	50539.09
535.853	50260.57
536.054	49982.04
536.255	50592.34
536.456	50076.25
536.657	51092.04
536.857	50313.81
537.058	49912.41
537.259	50879.05
537.46	50747.98
537.66	50244.18
537.861	50006.62
538.062	50498.13
538.263	50094.68
538.463	50256.47
538.664	50354.77
538.865	50682.45
539.065	50719.31
539.266	50248.28
539.466	51126.86
539.667	50295.38
539.868	50747.98
540.068	50524.75
540.269	50235.99
540.469	50793.04
540.67	50066.01
540.87	50518.61
541.071	50629.2
541.271	50682.45
541.472	50477.65
541.672	50211.42
541.873	50330.2
542.073	49752.67
542.274	50834
542.474	50023
542.675	49662.56
542.875	50596.43
543.075	50408.02
543.276	49863.26
543.476	50670.16
543.676	50186.84
543.877	50461.27
544.077	50264.66
544.277	50182.74
544.478	50115.16
544.678	50168.41
544.878	50311.77
545.078	49971.8
545.279	49908.32
545.479	49928.8
545.679	49982.04
545.879	50131.54
546.079	49830.49
546.28	50207.32
546.48	49844.83
546.68	50072.15
546.88	50184.79
547.08	49738.33
547.28	50418.26
547.48	49255.01
547.68	50336.34
547.88	49695.33
548.081	50270.81
548.281	49863.26
548.481	49867.36
548.681	50373.2
548.881	49760.86
549.081	49762.91
549.28	49754.72
549.48	49793.63
549.68	49762.91
549.88	50223.7
550.08	49207.91
550.28	49877.6
550.48	49826.4
550.68	49850.97
550.88	49392.23
551.08	49828.44
551.279	49883.74
551.479	49097.32
551.679	49871.45
551.879	49252.97
552.079	49400.42
552.278	49379.94
552.478	49443.43
552.678	49633.89
552.878	49711.71
553.077	49572.45
553.277	49072.74
553.477	49908.32
553.676	49302.12
553.876	48921.19
554.076	48964.2
554.275	49228.39
554.475	48820.84
554.674	49187.43
554.874	49195.62
555.074	48708.21
555.273	48882.28
555.473	49465.95
555.672	49019.5
555.872	49097.32
556.071	49013.35
556.271	49117.8
556.47	48708.21
556.67	48532.08
556.869	48654.96
557.068	48245.37
557.268	48491.12
557.467	48425.59
557.667	48278.13
557.866	48263.8
558.065	48599.66
558.265	48024.18
558.464	48042.62
558.663	48515.7
558.863	47385.22
559.062	48607.86
559.261	47604.35
559.461	47979.13
559.66	47348.35
559.859	47923.83
560.058	47401.6
560.258	47639.17
560.457	47065.74
560.656	47264.39
560.855	47323.78
561.054	47368.83
561.253	46951.05
561.453	47241.86
561.652	47368.83
561.851	47278.72
562.05	47024.78
562.249	46402.19
562.448	46832.27
562.647	46721.68
562.846	46549.65
563.045	46451.34
563.244	46142.1
563.443	46699.15
563.642	46123.67
563.841	46205.59
564.04	45806.23
564.239	46566.03
564.438	45476.51
564.637	45818.52
564.836	45738.65
565.035	45378.21
565.234	45779.61
565.432	45550.24
565.631	45402.78
565.83	45161.12
566.029	45243.04
566.228	45085.35
566.427	44780.2
566.625	44858.02
566.824	44206.77
567.023	44827.31
567.222	43930.29
567.42	44608.17
567.619	43801.27
567.818	44116.66
568.016	44126.9
568.215	44626.6
568.414	44141.24
568.612	44055.22
568.811	44137.14
569.01	44081.84
569.208	43072.2
569.407	43997.88
569.605	42969.8
569.804	43604.67
570.002	42957.51
570.201	43147.97
570.4	42674.89
570.598	42574.54
570.797	42085.08
570.995	42592.97
571.193	42386.13
571.392	42422.99
571.59	41880.28
571.789	42261.2
571.987	41988.82
572.186	41839.32
572.384	41274.08
572.582	41765.59
572.781	42162.9
572.979	41489.12
573.177	41253.6
573.376	41638.62
573.574	40934.12
573.772	41315.04
573.971	40891.11
574.169	41112.29
574.367	40604.39
574.565	40801
574.763	40164.08
574.962	40098.55
575.16	40162.03
575.358	40446.7
575.556	39746.29
575.754	40149.74
575.952	39480.06
576.151	39807.73
576.349	39486.2
576.547	39426.81
576.745	39906.04
576.943	39492.35
577.141	39191.3
577.339	39529.21
577.537	38861.57
577.735	39078.66
577.933	38630.15
578.131	38953.73
578.329	38707.97
578.527	38333.2
578.725	38583.05
578.923	38605.58
579.121	38312.72
579.319	38490.89
579.516	38320.91
579.714	38431.5
579.912	37939.99
580.11	37796.63
580.308	37835.54
580.506	37550.87
580.704	37471
580.901	37235.49
581.099	37808.92
581.297	37180.19
581.495	36991.78
581.692	37063.46
581.89	36877.09
582.088	37352.22
582.285	36735.78
582.483	36825.89
582.681	36645.67
582.878	36582.18
583.076	36035.38
583.274	36440.87
583.471	35717.94
583.669	35945.26
583.866	35810.1
584.064	35793.72
584.262	35582.77
584.459	36068.14
584.657	35439.42
584.854	35937.07
585.052	34947.9
585.249	35052.35
585.447	35400.51
585.644	34681.67
585.841	34999.1
586.039	34827.07
586.236	34536.26
586.434	34577.22
586.631	34798.4
586.828	34261.83
587.026	34165.58
587.223	34300.75
587.42	34057.04
587.618	34081.61
587.815	33813.33
588.012	33741.65
588.21	33878.86
588.407	34018.13
588.604	33231.71
588.801	33209.18
588.999	33086.3
589.196	33055.58
589.393	33176.41
589.59	32869.22
589.787	32559.97
589.984	33024.86
590.182	32656.23
590.379	32541.54
590.576	32422.76
590.773	32543.59
590.97	32402.28
591.167	32351.08
591.364	31800.18
591.561	32334.7
591.758	31771.5
591.955	31736.69
592.152	31921.01
592.349	31558.52
592.546	31947.63
592.743	31695.73
592.94	31579
593.137	31634.29
593.334	31775.6
593.531	31316.86
593.727	31380.34
593.924	30948.22
594.121	30571.39
594.318	30886.78
594.515	30290.82
594.712	31153.02
594.908	30428.04
595.105	30546.82
595.302	30233.48
595.499	30544.77
595.696	30387.08
595.892	30172.04
596.089	30268.3
596.286	30258.06
596.482	29870.99
596.679	29903.76
596.876	29989.77
597.072	29275.03
597.269	29490.07
597.466	29619.09
597.662	29571.99
597.859	29600.66
598.055	29201.3
598.252	28691.36
598.448	28933.02
598.645	28908.44
598.841	28572.58
599.038	28863.39
599.234	28867.48
599.431	28345.25
599.627	28500.9
599.824	28558.24
600.02	28355.49
600.217	28228.52
600.413	27904.94
600.609	28185.51
600.806	27577.26
601.002	27780.01
601.198	27767.73
601.395	27708.33
601.591	27870.12
601.787	27874.22
601.984	27540.4
602.18	27515.83
602.376	27370.42
602.572	27378.61
602.769	26940.35
602.965	26747.84
603.161	27192.25
603.357	26923.96
603.553	26569.66
603.75	26966.97
603.946	26670.01
604.142	26891.19
604.338	26096.58
604.534	26743.74
604.73	26117.06
604.926	26375.11
605.122	26360.77
605.318	26088.39
605.514	25773
605.71	25899.98
605.906	25482.19
606.102	25981.9
606.298	25889.74
606.494	25635.79
606.69	25760.72
606.886	25789.39
607.082	25199.57
607.278	25664.46
607.474	25101.27
607.67	25453.52
607.866	24888.28
608.062	25334.74
608.257	25002.97
608.453	24984.54
608.649	24898.52
608.845	24613.85
609.041	24949.72
609.236	24685.53
609.432	24570.85
609.628	24826.84
609.824	24685.53
610.019	24341.47
610.215	24179.68
610.411	24450.02
610.606	24085.48
610.802	24589.28
610.998	24077.29
611.193	24396.77
611.389	24099.81
611.584	24361.95
611.78	23757.8
611.976	24411.1
612.171	24189.92
612.367	23895.02
612.562	23694.32
612.758	23438.32
612.953	23571.44
613.149	23755.75
613.344	23374.83
613.539	23886.82
613.735	23419.89
613.93	23557.1
614.126	23323.63
614.321	23522.29
614.517	23360.5
614.712	23325.68
614.907	23057.4
615.103	23223.28
615.298	23055.35
615.493	23534.57
615.688	22744.06
615.884	23360.5
616.079	22772.73
616.274	23163.89
616.47	22793.21
616.665	23079.93
616.86	22332.42
617.055	22309.89
617.25	22424.58
617.445	22799.35
617.641	22178.82
617.836	22539.26
618.031	21912.58
618.226	22789.11
618.421	22191.11
618.616	22338.56
618.811	21961.73
619.006	22236.16
619.201	21695.5
619.396	21978.12
619.591	21537.8
619.786	21873.67
619.981	21443.6
620.176	21758.99
620.371	21193.75
620.566	21582.86
620.761	21476.37
620.956	21570.57
621.151	20806.68
621.346	21214.23
621.541	20722.71
621.735	20939.8
621.93	20536.35
622.125	20735
622.32	20431.9
622.515	20646.94
622.709	20096.03
622.904	20335.65
623.099	19999.78
623.294	20102.18
623.488	19649.58
623.683	19973.16
623.878	19543.08
624.072	19620.91
624.267	19291.18
624.462	19250.22
624.656	19182.64
624.851	19205.17
625.046	19160.11
625.24	19229.74
625.435	18824.25
625.629	18783.29
625.824	18736.18
626.018	18873.4
626.213	18332.73
626.407	18691.13
626.602	18226.24
626.796	18437.18
626.991	18256.96
627.185	18177.09
627.38	18054.21
627.574	18095.17
627.768	17468.49
627.963	17648.71
628.157	17519.69
628.352	17460.3
628.546	17423.44
628.74	17593.42
628.935	17149.01
629.129	17247.31
629.323	16612.44
629.517	16952.4
629.712	16899.16
629.906	16833.62
630.1	16684.12
630.294	16677.97
630.489	16485.47
630.683	16798.81
630.877	16004.19
631.071	16200.8
631.265	16413.79
631.459	15983.71
631.653	15727.72
631.848	15836.26
632.042	15866.98
632.236	15922.27
632.43	15516.78
632.624	15746.15
632.818	15363.18
633.012	15443.05
633.206	15180.91
633.4	15242.35
633.594	15137.9
633.788	15111.28
633.982	15111.28
634.176	15111.28
634.369	14857.33
634.563	14763.12
634.757	14423.16
634.951	14933.11
635.145	14505.08
635.339	14644.34
635.533	14195.84
635.726	14431.35
635.92	14070.91
636.114	14134.4
636.308	14216.32
636.501	14019.71
636.695	14019.71
636.889	13857.92
637.083	13810.82
637.276	13921.41
637.47	13728.9
637.664	13792.39
637.857	13429.9
638.051	13505.67
638.244	13055.12
638.438	13364.36
638.632	13206.67
638.825	13112.46
639.019	13307.02
639.212	13188.24
639.406	13018.25
639.599	12811.41
639.793	12713.11
639.986	12661.91
640.18	12680.34
640.373	12524.69
640.567	12407.96
640.76	12645.52
640.954	12176.54
641.147	12549.27
641.34	12262.55
641.534	12065.95
641.727	11916.45
641.92	12012.7
642.114	11969.69
642.307	12129.44
642.5	12031.13
642.694	11730.08
642.887	11535.53
643.08	11764.9
643.273	11748.51
643.467	11676.84
643.66	11480.23
643.853	11224.23
644.046	11285.67
644.239	11207.85
644.432	11146.41
644.626	10923.18
644.819	11058.35
645.012	11046.06
645.205	11046.06
645.398	10927.28
645.591	10640.56
645.784	10742.96
645.977	10529.97
646.17	10654.9
646.363	10640.56
646.556	10468.53
646.749	10341.56
646.942	10413.24
647.135	10372.28
647.328	10323.13
647.521	10067.13
647.714	10161.34
647.907	10042.56
648.099	10173.63
648.292	10052.8
648.485	9827.52
648.678	9938.11
648.871	9780.42
649.064	9860.29
649.256	9667.78
649.449	9708.74
649.642	9735.36
649.835	9776.32
650.027	9551.04
650.22	9612.48
650.413	9432.26
650.605	9503.94
650.798	9424.07
650.991	9354.44
651.183	9327.82
651.376	9166.03
651.568	9305.29
651.761	9073.87
651.954	9159.88
652.146	9249.99
652.339	9127.11
652.531	9082.06
652.724	8787.15
652.916	8781.01
653.109	8842.45
653.301	8830.16
653.494	8680.66
653.686	8668.37
653.879	8690.9
654.071	8553.68
654.263	8469.72
654.456	8568.02
654.648	8719.57
654.84	8299.73
655.033	8502.48
655.225	8191.19
655.417	8324.31
655.61	8193.24
655.802	8242.39
655.994	7945.44
656.186	8228.06
656.379	8015.07
656.571	8189.14
656.763	7779.55
656.955	7847.13
657.148	7996.64
657.34	8074.46
657.532	7797.98
657.724	7822.56
657.916	7900.38
658.108	7777.5
658.3	7791.84
658.492	7589.09
658.684	7488.74
658.876	7650.53
659.068	7435.49
659.26	7408.87
659.452	7482.6
659.644	7372
659.836	7392.48
660.028	7470.31
660.22	7132.39
660.412	7300.33
660.604	7126.25
660.796	7228.65
660.988	7189.74
661.18	7138.54
661.372	7044.33
661.563	7242.98
661.755	6849.77
661.947	6939.88
662.139	6999.27
662.331	6837.48
662.522	6739.18
662.714	6847.72
662.906	6718.7
663.097	6634.74
663.289	6825.2
663.481	6710.51
663.673	6653.17
663.864	6419.7
664.056	6563.06
664.247	6550.77
664.439	6415.6
664.631	6604.02
664.822	6585.58
665.014	6477.04
665.205	6305.01
665.397	6247.67
665.588	6321.4
665.78	6370.55
665.971	6391.03
666.163	6288.63
666.354	6268.15
666.546	6333.68
666.737	6108.41
666.929	6153.46
667.12	6071.54
667.311	6067.45
667.503	6071.54
667.694	6077.69
667.885	6036.73
668.077	5965.05
668.268	5985.53
668.459	5874.94
668.651	5893.37
668.842	5922.04
669.033	5657.85
669.224	5864.7
669.416	5905.66
669.607	5815.55
669.798	5694.72
669.989	5960.95
670.18	5682.43
670.371	5825.79
670.563	5655.81
670.754	5784.83
670.945	5551.36
671.136	5631.23
671.327	5510.4
671.518	5555.46
671.709	5643.52
671.9	5569.79
672.091	5446.91
672.282	5457.15
672.473	5471.49
672.664	5434.63
672.855	5444.87
673.046	5594.37
673.237	5592.32
673.428	5397.76
673.619	5373.19
673.809	5432.58
674	5283.08
674.191	5299.46
674.382	5221.64
674.573	5274.88
674.764	5178.63
674.954	5354.76
675.145	5160.2
675.336	5219.59
675.527	5231.88
675.717	5283.08
675.908	5149.96
676.099	5385.48
676.289	5092.62
676.48	5045.51
676.671	5000.46
676.861	5235.97
677.052	5149.96
677.243	4984.07
677.433	5129.48
677.624	5061.9
677.814	5051.66
678.005	5158.15
678.195	5027.08
678.386	5053.7
678.576	4904.2
678.767	5111.05
678.957	5010.7
679.148	4990.22
679.338	5053.7
679.529	5113.1
679.719	4996.36
679.909	5080.33
680.1	4730.13
680.29	5043.46
680.481	4947.21
680.671	4957.45
680.861	4975.88
681.052	4916.49
681.242	4932.87
681.432	4889.87
681.622	4842.76
681.813	4842.76
682.003	4822.28
682.193	4769.04
682.383	4818.19
682.573	4939.02
682.764	4846.86
682.954	4869.39
683.144	4707.6
683.334	4875.53
683.524	4953.35
683.714	4908.3
683.904	4791.56
684.094	4803.85
684.284	4828.43
684.474	4863.24
684.664	4816.14
684.854	4551.95
685.044	4822.28
685.234	4723.98
685.424	4789.52
685.614	4678.93
685.804	4719.89
685.994	4672.78
686.184	4889.87
686.374	4494.61
686.564	4613.39
686.753	4625.68
686.943	4527.38
687.133	4629.77
687.323	4558.1
687.513	4554
687.702	4465.94
687.892	4439.31
688.082	4431.12
688.272	4384.02
688.461	4502.8
688.651	4545.81
688.841	4404.5
689.03	4476.18
689.22	4367.63
689.41	4324.63
689.599	4328.72
689.789	4351.25
689.979	4341.01
690.168	4248.85
690.358	4289.81
690.547	4269.33
690.737	4220.18
690.926	4250.9
691.116	4128.02
691.305	4015.38
691.495	4240.66
691.684	4117.78
691.874	4125.97
692.063	4236.56
692.252	4009.24
692.442	4095.25
692.631	4033.82
692.82	4064.54
693.01	4048.15
693.199	4013.34
693.388	4003.1
693.578	3849.5
693.767	3845.4
693.956	3990.81
694.146	3904.79
694.335	4005.14
694.524	3972.38
694.713	3853.59
694.902	3933.47
695.092	3933.47
695.281	3890.46
695.47	3800.35
695.659	3915.03
695.848	3872.03
696.037	3853.59
696.226	3826.97
696.415	3829.02
696.604	3896.6
696.793	3640.61
696.982	3763.48
697.171	3853.59
697.36	3767.58
697.549	3872.03
697.738	3802.4
697.927	3839.26
698.116	3751.2
698.305	3740.96
698.494	3841.31
698.683	3751.2
698.872	3794.2
699.061	3757.34
699.25	3689.76
699.438	3702.04
699.627	3642.65
699.816	3781.92
700.005	3730.72
700.193	3689.76
700.382	3781.92
700.571	3634.46
700.76	3636.51
700.948	3777.82
701.137	3661.09
701.326	3669.28
701.514	3786.01
701.703	3734.81
701.892	3689.76
702.08	3667.23
702.269	3542.3
702.457	3599.65
702.646	3622.17
702.834	3706.14
703.023	3679.52
703.212	3695.9
703.4	3552.54
703.589	3814.68
703.777	3650.85
703.965	3601.69
704.154	3632.41
704.342	3546.4
704.531	3697.95
704.719	3573.02
704.907	3720.48
705.096	3575.07
705.284	3626.27
705.472	3663.13
705.661	3530.02
705.849	3654.94
706.037	3564.83
706.226	3548.45
706.414	3552.54
706.602	3587.36
706.79	3583.26
706.979	3544.35
707.167	3648.8
707.355	3630.37
707.543	3693.85
707.731	3546.4
707.919	3679.52
708.107	3581.21
708.296	3568.93
708.484	3587.36
708.672	3702.04
708.86	3554.59
709.048	3509.54
709.236	3554.59
709.424	3605.79
709.612	3515.68
709.8	3618.08
709.988	3605.79
710.176	3652.89
710.364	3628.32
710.551	3618.08
710.739	3484.96
710.927	3620.13
711.115	3630.37
711.303	3659.04
711.491	3466.53
711.679	3491.1
711.866	3493.15
712.054	3603.74
712.242	3493.15
712.43	3648.8
712.617	3427.62
712.805	3552.54
712.993	3585.31
713.181	3491.1
713.368	3591.45
713.556	3704.09
713.744	3523.87
713.931	3673.37
714.119	3478.82
714.306	3640.61
714.494	3425.57
714.682	3609.89
714.869	3583.26
715.057	3579.17
715.244	3384.61
715.432	3636.51
715.619	3532.06
715.807	3530.02
715.994	3609.89
716.182	3505.44
716.369	3544.35
716.556	3570.97
716.744	3579.17
716.931	3558.69
717.119	3566.88
717.306	3628.32
717.493	3421.47
717.681	3603.74
717.868	3605.79
718.055	3575.07
718.242	3577.12
718.43	3503.39
718.617	3546.4
718.804	3546.4
718.991	3511.58
719.179	3448.1
719.366	3626.27
719.553	3595.55
719.74	3470.62
719.927	3618.08
720.114	3562.78
720.301	3525.92
720.488	3501.34
720.676	3503.39
720.863	3583.26
721.05	3515.68
721.237	3525.92
721.424	3556.64
721.611	3636.51
721.798	3450.14
721.985	3378.47
722.172	3511.58
722.358	3476.77
722.545	3441.95
722.732	3515.68
722.919	3493.15
723.106	3568.93
723.293	3630.37
723.48	3495.2
723.667	3538.21
723.853	3472.67
724.04	3554.59
724.227	3554.59
724.414	3544.35
724.6	3433.76
724.787	3472.67
724.974	3487.01
725.161	3458.34
725.347	3607.84
725.534	3480.86
725.72	3409.19
725.907	3384.61
726.094	3321.12
726.28	3507.49
726.467	3452.19
726.653	3458.34
726.84	3482.91
727.027	3308.83
727.213	3464.48
727.4	3482.91
727.586	3357.99
727.773	3345.7
727.959	3376.42
728.145	3368.23
728.332	3351.84
728.518	3480.86
728.705	3337.51
728.891	3466.53
729.077	3548.45
729.264	3333.41
729.45	3370.27
729.636	3339.55
729.823	3413.28
730.009	3415.33
730.195	3454.24
730.382	3407.14
730.568	3323.17
730.754	3433.76
730.94	3421.47
731.126	3319.07
731.313	3308.83
731.499	3239.2
731.685	3335.46
731.871	3403.04
732.057	3405.09
732.243	3314.98
732.429	3396.9
732.615	3274.02
732.801	3349.79
732.987	3257.64
733.173	3306.79
733.359	3331.36
733.545	3290.4
733.731	3329.31
733.917	3310.88
734.103	3239.2
734.289	3325.22
734.475	3165.48
734.661	3321.12
734.847	3151.14
735.033	3263.78
735.219	3345.7
735.404	3224.87
735.59	3183.91
735.776	3282.21
735.962	3208.48
736.148	3145
736.333	3226.92
736.519	3177.76
736.705	3185.96
736.89	3200.29
737.076	3255.59
737.262	3140.9
737.447	3198.24
737.633	3206.44
737.819	3089.7
738.004	3118.37
738.19	3095.85
738.375	3138.85
738.561	3079.46
738.747	3122.47
738.932	3093.8
739.118	3292.45
739.303	3034.41
739.489	3237.16
739.674	2907.43
739.859	3042.6
740.045	3061.03
740.23	3042.6
740.416	2964.78
740.601	3013.93
740.786	2860.33
740.972	2960.68
741.157	3042.6
741.342	3038.5
741.528	3079.46
741.713	2882.86
741.898	2991.4
742.084	2925.86
742.269	2915.62
742.454	3026.22
742.639	2975.02
742.824	2833.71
743.01	2901.29
743.195	2944.3
743.38	2850.09
743.565	2903.34
743.75	2921.77
743.935	2811.18
744.12	2827.56
744.305	2858.28
744.49	2770.22
744.675	2821.42
744.86	2751.79
745.045	2790.7
745.23	2688.3
745.415	2737.45
745.6	2843.95
745.785	2637.1
745.97	2622.77
746.155	2704.68
746.34	2802.99
746.525	2518.32
746.71	2794.79
746.895	2555.18
747.079	2608.43
747.264	2432.3
747.449	2710.83
747.634	2430.26
747.819	2542.89
748.003	2473.26
748.188	2491.7
748.373	2546.99
748.557	2340.15
748.742	2383.15
748.927	2440.5
749.111	2442.54
749.296	2270.51
749.481	2344.24
749.665	2317.62
749.85	2389.3
750.034	2405.68
750.219	2227.51
750.404	2241.84
750.588	2303.28
750.773	2243.89
750.957	2215.22
751.141	2245.94
751.326	2209.08
751.51	2237.75
751.695	2094.39
751.879	2133.3
752.064	2172.21
752.248	2198.84
752.432	2073.91
752.617	2180.4
752.801	2161.97
752.985	2090.29
753.17	2028.85
753.354	2092.34
753.538	2018.61
753.722	1991.99
753.907	1953.08
754.091	1973.56
754.275	1908.02
754.459	1895.74
754.643	1971.51
754.828	1948.98
755.012	1873.21
755.196	1781.05
755.38	1803.58
755.564	1967.42
755.748	1713.47
755.932	1920.31
756.116	1750.33
756.3	1744.19
756.484	1793.34
756.668	1834.3
756.852	1733.95
757.036	1645.88
757.22	1787.19
757.404	1803.58
757.588	1682.75
757.772	1664.32
757.956	1787.19
758.14	1721.66
758.323	1733.95
758.507	1707.32
758.691	1707.32
758.875	1604.92
759.059	1768.76
759.242	1572.16
759.426	1654.08
759.61	1586.49
759.794	1537.34
759.977	1549.63
760.161	1658.17
760.345	1600.83
760.528	1602.88
760.712	1557.82
760.895	1553.73
761.079	1516.86
761.263	1516.86
761.446	1475.9
761.63	1488.19
761.813	1439.04
761.997	1469.76
762.18	1543.49
762.364	1391.94
762.547	1406.27
762.731	1461.57
762.914	1498.43
763.098	1393.98
763.281	1426.75
763.464	1371.46
763.648	1379.65
763.831	1381.7
764.015	1404.22
764.198	1371.46
764.381	1418.56
764.564	1328.45
764.748	1330.5
764.931	1346.88
765.114	1353.02
765.297	1318.21
765.481	1252.67
765.664	1385.79
765.847	1244.48
766.03	1402.18
766.213	1209.67
766.397	1330.5
766.58	1281.35
766.763	1336.64
766.946	1232.19
767.129	1320.26
767.312	1201.48
767.495	1310.02
767.678	1201.48
767.861	1291.59
768.044	1326.4
768.227	1217.86
768.41	1183.04
768.593	1254.72
768.776	1273.15
768.959	1262.91
769.142	1285.44
769.324	1303.87
769.507	1105.22
769.69	1183.04
769.873	1107.27
770.056	1162.56
770.239	1226.05
770.421	1164.61
770.604	1172.8
770.787	1127.75
770.97	1164.61
771.152	1101.12
771.335	1092.93
771.518	1076.55
771.7	1176.9
771.883	1109.32
772.066	1117.51
772.248	1172.8
772.431	1129.8
772.613	1119.56
772.796	1107.27
772.978	988.49
773.161	1105.22
773.343	1021.25
773.526	1058.12
773.708	982.34
773.891	970.05
774.073	1043.78
774.256	1017.16
774.438	1037.64
774.621	916.81
774.803	990.53
774.985	941.38
775.168	1006.92
775.35	996.68
775.532	986.44
775.715	1000.77
775.897	1004.87
776.079	841.03
776.261	949.57
776.444	894.28
776.626	908.62
776.808	980.29
776.99	867.66
777.173	914.76
777.355	904.52
777.537	867.66
777.719	968.01
777.901	851.27
778.083	845.13
778.265	884.04
778.447	806.22
778.629	906.57
778.811	779.59
778.993	849.22
779.175	818.5
779.357	757.07
779.539	748.87
779.721	857.42
779.903	783.69
780.085	814.41
780.267	771.4
780.449	732.49
780.631	750.92
780.812	777.55
780.994	742.73
781.176	726.35
781.358	755.02
781.54	740.68
781.721	818.5
781.903	744.78
782.085	681.29
782.267	816.46
782.448	650.57
782.63	648.52
782.812	763.21
782.993	644.43
783.175	699.72
783.357	648.52
783.538	679.24
783.72	619.85
783.901	574.8
784.083	656.72
784.264	666.96
784.446	580.94
784.627	605.52
784.809	601.42
784.99	664.91
785.172	642.38
785.353	552.27
785.535	611.66
785.716	507.21
785.897	523.6
786.079	646.48
786.26	640.33
786.441	697.67
786.623	582.99
786.804	572.75
786.985	597.32
787.167	578.89
787.348	544.08
787.529	554.32
787.71	632.14
787.891	501.07
788.073	496.97
788.254	513.36
788.435	529.74
788.616	542.03
788.797	542.03
788.978	550.22
789.159	419.15
789.34	587.08
789.522	443.73
789.703	509.26
789.884	451.92
790.065	488.78
790.246	464.21
790.427	451.92
790.607	511.31
790.788	447.82
790.969	460.11
791.15	480.59
791.331	472.4
791.512	404.82
791.693	460.11
791.874	398.67
792.054	517.45
792.235	427.34
792.416	419.15
792.597	472.4
792.778	437.58
792.958	410.96
793.139	517.45
793.32	365.9
793.5	423.25
793.681	380.24
793.862	474.45
794.042	431.44
794.223	388.43
794.404	410.96
794.584	302.42
794.765	394.58
794.945	437.58
795.126	374.1
795.306	474.45
795.487	324.94
795.667	413.01
795.848	404.82
796.028	372.05
796.209	345.42
796.389	410.96
796.57	326.99
796.75	382.29
796.93	353.62
797.111	322.9
797.291	339.28
797.471	394.58
797.652	345.42
797.832	396.62
798.012	382.29
798.192	329.04
798.373	396.62
798.553	370
798.733	388.43
798.913	271.7
799.093	421.2
799.274	347.47
799.454	447.82
799.634	341.33
799.814	345.42
799.994	374.1
800.174	357.71
800.354	396.62
800.534	345.42
800.714	269.65
800.894	329.04
801.074	288.08
801.254	320.85
801.434	322.9
801.614	300.37
801.794	339.28
801.974	757.07
802.154	337.23
802.334	335.18
802.514	240.98
802.693	316.75
802.873	181.59
803.053	318.8
803.233	329.04
803.413	261.46
803.592	234.83
803.772	331.09
803.952	275.79
804.131	271.7
804.311	267.6
804.491	361.81
804.67	230.74
804.85	236.88
805.03	294.22
805.209	306.51
805.389	226.64
805.568	306.51
805.748	318.8
805.928	349.52
806.107	230.74
806.287	361.81
806.466	343.38
806.646	220.5
806.825	255.31
807.004	249.17
807.184	210.26
807.363	283.99
807.543	214.35
807.722	329.04
807.901	288.08
808.081	238.93
808.26	247.12
808.439	224.59
808.619	288.08
808.798	255.31
808.977	206.16
809.156	251.22
809.336	267.6
809.515	298.32
809.694	263.51
809.873	228.69
810.052	271.7
810.231	304.46
810.411	249.17
810.59	216.4
810.769	169.3
810.948	238.93
811.127	247.12
811.306	212.31
811.485	222.55
811.664	257.36
811.843	255.31
812.022	253.27
812.201	230.74
812.38	220.5
812.559	210.26
812.737	232.79
812.916	136.53
813.095	173.39
813.274	165.2
813.453	259.41
813.632	236.88
813.811	230.74
813.989	234.83
814.168	261.46
814.347	208.21
814.526	208.21
814.704	253.27
814.883	220.5
815.062	144.72
815.24	238.93
815.419	154.96
815.598	234.83
815.776	152.92
815.955	179.54
816.133	181.59
816.312	232.79
816.49	154.96
816.669	189.78
816.847	187.73
817.026	212.31
817.204	247.12
817.383	150.87
817.561	159.06
817.74	234.83
817.918	210.26
818.097	163.15
818.275	236.88
818.453	197.97
818.632	169.3
818.81	128.34
818.988	185.68
819.167	163.15
819.345	134.48
819.523	173.39
819.701	109.91
819.879	228.69
820.058	154.96
820.236	191.83
820.414	167.25
820.592	136.53
820.77	222.55
820.948	218.45
821.127	107.86
821.305	148.82
821.483	163.15
821.661	300.37
821.839	193.87
822.017	181.59
822.195	177.49
822.373	111.96
822.551	132.44
822.729	177.49
822.907	175.44
823.085	144.72
823.262	107.86
823.44	140.63
823.618	64.85
823.796	181.59
823.974	89.43
824.152	208.21
824.329	140.63
824.507	183.63
824.685	195.92
824.863	107.86
825.04	163.15
825.218	214.35
825.396	83.28
825.574	79.19
825.751	169.3
825.929	134.48
826.107	71
826.284	157.01
826.462	118.1
826.639	103.76
826.817	81.24
826.994	167.25
827.172	140.63
827.349	222.55
827.527	140.63
827.704	132.44
827.882	171.35
828.059	171.35
828.237	120.15
828.414	138.58
828.591	114
828.769	216.4
828.946	140.63
829.124	64.85
829.301	116.05
829.478	128.34
829.655	150.87
829.833	132.44
830.01	30.04
830.187	105.81
830.364	173.39
830.542	142.68
830.719	116.05
830.896	81.24
831.073	132.44
831.25	163.15
831.427	120.15
831.604	107.86
831.782	124.24
831.959	161.11
832.136	99.67
832.313	85.33
832.49	-43.69
832.667	95.57
832.844	161.11
833.021	126.29
833.198	163.15
833.374	62.8
833.551	99.67
833.728	183.63
833.905	167.25
834.082	124.24
834.259	118.1
834.436	116.05
834.612	83.28
834.789	99.67
834.966	83.28
835.143	73.04
835.319	46.42
835.496	62.8
835.673	122.2
835.85	177.49
836.026	154.96
836.203	83.28
836.38	89.43
836.556	120.15
836.733	111.96
836.909	83.28
837.086	83.28
837.262	111.96
837.439	83.28
837.616	161.11
837.792	91.48
837.968	138.58
838.145	38.23
838.321	99.67
838.498	13.65
838.674	99.67
838.851	132.44
839.027	181.59
839.203	130.39
839.38	140.63
839.556	107.86
839.732	64.85
839.909	122.2
840.085	152.92
840.261	128.34
840.437	99.67
840.614	134.48
840.79	161.11
840.966	107.86
841.142	77.14
841.318	17.75
841.494	116.05
841.671	91.48
841.847	58.71
842.023	42.32
842.199	68.95
842.375	177.49
842.551	95.57
842.727	111.96
842.903	93.52
843.079	5.46
843.255	150.87
843.431	44.37
843.607	150.87
843.783	118.1
843.959	54.61
844.134	64.85
844.31	124.24
844.486	66.9
844.662	99.67
844.838	73.04
845.013	50.52
845.189	32.08
845.365	89.43
845.541	124.24
845.716	83.28
845.892	173.39
846.068	75.09
846.244	111.96
846.419	15.7
846.595	134.48
846.77	-0.68
846.946	83.28
847.122	75.09
847.297	34.13
847.473	179.54
847.648	-33.45
847.824	126.29
847.999	83.28
848.175	91.48
848.35	71
848.526	103.76
848.701	87.38
848.876	124.24
849.052	79.19
849.227	52.56
849.403	21.85
849.578	52.56
849.753	79.19
849.929	62.8
850.104	-0.68
850.279	44.37
850.454	89.43
850.63	56.66
850.805	64.85
850.98	50.52
851.155	91.48
851.33	93.52
851.505	19.8
851.681	83.28
851.856	48.47
852.031	101.72
852.206	81.24
852.381	44.37
852.556	40.28
852.731	75.09
852.906	13.65
853.081	36.18
853.256	75.09
853.431	60.76
853.606	-8.87
853.781	34.13
853.956	-6.83
854.131	21.85
854.305	-4.78
854.48	142.68
854.655	132.44
854.83	103.76
855.005	54.61
855.18	-15.02
855.354	21.85
855.529	3.41
855.704	83.28
855.879	95.57
856.053	71
856.228	103.76
856.403	38.23
856.577	60.76
856.752	54.61
856.926	25.94
857.101	99.67
857.276	32.08
857.45	19.8
857.625	75.09
857.799	42.32
857.974	-0.68
858.148	27.99
858.323	91.48
858.497	-12.97
858.672	19.8
858.846	64.85
859.02	34.13
859.195	83.28
859.369	101.72
859.543	130.39
859.718	34.13
859.892	87.38
860.066	66.9
860.241	75.09
860.415	83.28
860.589	-2.73
860.763	-0.68
860.938	71
861.112	30.04
861.286	87.38
861.46	27.99
861.634	81.24
861.808	75.09
861.982	38.23
862.157	-27.31
862.331	-31.4
862.505	36.18
862.679	54.61
862.853	42.32
863.027	-8.87
863.201	42.32
863.375	38.23
863.549	85.33
863.722	107.86
863.896	13.65
864.07	42.32
864.244	-53.93
864.418	66.9
864.592	19.8
864.766	-15.02
864.939	42.32
865.113	103.76
865.287	-25.26
865.461	-6.83
865.634	13.65
865.808	25.94
865.982	1.37
866.156	-21.16
866.329	58.71
866.503	21.85
866.676	36.18
866.85	42.32
867.024	50.52
867.197	-17.07
867.371	30.04
867.544	-27.31
867.718	1.37
867.891	27.99
868.065	32.08
868.238	44.37
868.412	91.48
868.585	111.96
868.759	15.7
868.932	32.08
869.105	64.85
869.279	77.14
869.452	19.8
869.625	-39.59
869.799	-2.73
869.972	17.75
870.145	-39.59
870.319	50.52
870.492	73.04
870.665	32.08
870.838	5.46
871.011	-27.31
871.185	62.8
871.358	5.46
871.531	77.14
871.704	-43.69
871.877	58.71
872.05	34.13
872.223	11.61
872.396	83.28
872.569	36.18
872.742	-17.07
872.915	50.52
873.088	-31.4
873.261	64.85
873.434	81.24
873.607	9.56
873.78	81.24
873.953	89.43
874.126	-10.92
874.299	27.99
874.471	-12.97
874.644	85.33
874.817	34.13
874.99	99.67
875.163	87.38
875.335	23.89
875.508	-4.78
875.681	40.28
875.853	83.28
876.026	-15.02
876.199	79.19
876.371	5.46
876.544	9.56
876.717	128.34
876.889	-0.68
877.062	-0.68
877.234	34.13
877.407	19.8
877.579	58.71
877.752	48.47
877.924	19.8
878.097	11.61
878.269	9.56
878.442	25.94
878.614	34.13
878.786	-6.83
878.959	-15.02
879.131	42.32
879.303	5.46
879.476	58.71
879.648	40.28
879.82	54.61
879.993	44.37
880.165	46.42
880.337	-0.68
880.509	-2.73
880.681	-12.97
880.854	-60.07
881.026	71
881.198	-23.21
881.37	9.56
881.542	-33.45
881.714	23.89
881.886	-2.73
882.058	71
882.23	-6.83
882.402	54.61
882.574	71
882.746	81.24
882.918	66.9
883.09	30.04
883.262	5.46
883.434	64.85
883.606	34.13
883.778	-35.5
883.95	-25.26
884.122	58.71
884.293	99.67
884.465	30.04
884.637	46.42
884.809	21.85
884.98	13.65
885.152	91.48
885.324	56.66
885.496	-6.83
885.667	48.47
885.839	15.7
886.011	109.91
886.182	17.75
886.354	46.42
886.525	75.09
886.697	34.13
886.869	-49.83
887.04	44.37
887.212	40.28
887.383	66.9
887.555	-35.5
887.726	5.46
887.897	50.52
888.069	42.32
888.24	-17.07
888.412	46.42
888.583	81.24
888.754	19.8
888.926	-49.83
889.097	75.09
889.268	17.75
889.44	60.76
889.611	-23.21
889.782	103.76
889.953	32.08
890.125	30.04
890.296	5.46
890.467	15.7
890.638	-25.26
890.809	52.56
890.98	5.46
891.151	3.41
891.323	44.37
891.494	66.9
891.665	75.09
891.836	46.42
892.007	-15.02
892.178	56.66
892.349	-33.45
892.52	-37.55
892.691	-43.69
892.862	42.32
893.032	-43.69
893.203	21.85
893.374	21.85
893.545	38.23
893.716	36.18
893.887	71
894.057	-33.45
894.228	-21.16
894.399	-15.02
894.57	21.85
894.74	9.56
894.911	7.51
895.082	34.13
895.253	23.89
895.423	-21.16
895.594	91.48
895.764	25.94
895.935	-47.79
896.106	13.65
896.276	-19.11
896.447	32.08
896.617	-6.83
896.788	-10.92
896.958	1.37
897.129	-10.92
897.299	64.85
897.47	40.28
897.64	95.57
897.81	-0.68
897.981	42.32
898.151	-49.83
898.322	50.52
898.492	79.19
898.662	15.7
898.832	-17.07
899.003	11.61
899.173	-12.97
899.343	44.37
899.513	-43.69
