Data from USB4F104151__230__10-30-17-371.txt Node

Date: Wed Mar 12 10:30:17 EDT 2025
User: louis
Spectrometer: USB4F10415
Trigger mode: 4
Integration Time (sec): 3.000000E-2
Scans to average: 1
Electric dark correction enabled: true
Nonlinearity correction enabled: false
Boxcar width: 0
XAxis mode: Wavelengths
Number of Pixels in Spectrum: 3648
>>>>>Begin Spectral Data<<<<<
178.204	-135.17
178.424	-135.17
178.644	-135.17
178.864	-92.16
179.084	-163.84
179.304	4.1
179.524	-38.91
179.744	51.2
179.964	28.67
180.184	32.77
180.404	-47.1
180.624	-30.72
180.844	12.29
181.064	-12.29
181.283	36.86
181.503	-16.38
181.723	-20.48
181.943	-14.34
182.163	73.73
182.383	-4.1
182.602	45.06
182.822	47.1
183.042	67.58
183.262	53.25
183.482	4.1
183.701	18.43
183.921	59.39
184.141	32.77
184.361	116.73
184.58	24.58
184.8	43.01
185.02	32.77
185.239	61.44
185.459	96.25
185.679	104.45
185.898	-34.82
186.118	47.1
186.338	-47.1
186.557	98.3
186.777	26.62
186.997	57.34
187.216	-10.24
187.436	157.69
187.655	4.1
187.875	43.01
188.095	61.44
188.314	55.3
188.534	22.53
188.753	-14.34
188.973	94.21
189.192	18.43
189.412	-0
189.631	-28.67
189.851	26.62
190.07	100.35
190.29	-6.14
190.509	51.2
190.729	-16.38
190.948	61.44
191.168	116.73
191.387	24.58
191.607	40.96
191.826	-24.58
192.045	28.67
192.265	28.67
192.484	34.82
192.704	36.86
192.923	8.19
193.142	92.16
193.362	100.35
193.581	81.92
193.8	-8.19
194.02	22.53
194.239	55.3
194.458	22.53
194.678	67.58
194.897	14.34
195.116	-34.82
195.335	32.77
195.555	69.63
195.774	-0
195.993	49.15
196.212	22.53
196.432	59.39
196.651	28.67
196.87	6.14
197.089	45.06
197.308	106.49
197.528	61.44
197.747	-0
197.966	14.34
198.185	75.77
198.404	34.82
198.623	2.05
198.842	59.39
199.062	14.34
199.281	36.86
199.5	59.39
199.719	122.88
199.938	104.45
200.157	20.48
200.376	20.48
200.595	67.58
200.814	45.06
201.033	61.44
201.252	-4.1
201.471	81.92
201.69	53.25
201.909	67.58
202.128	126.97
202.347	-8.19
202.566	24.58
202.785	18.43
203.004	24.58
203.223	106.49
203.442	53.25
203.661	49.15
203.879	16.38
204.098	98.3
204.317	86.01
204.536	49.15
204.755	77.82
204.974	40.96
205.193	10.24
205.411	38.91
205.63	61.44
205.849	51.2
206.068	-6.14
206.287	8.19
206.505	34.82
206.724	40.96
206.943	106.49
207.162	45.06
207.381	-4.1
207.599	26.62
207.818	30.72
208.037	-0
208.255	-36.86
208.474	-12.29
208.693	4.1
208.911	49.15
209.13	40.96
209.349	34.82
209.567	71.68
209.786	69.63
210.005	94.21
210.223	73.73
210.442	20.48
210.661	94.21
210.879	34.82
211.098	88.06
211.316	-57.34
211.535	92.16
211.753	-26.62
211.972	43.01
212.191	8.19
212.409	57.34
212.628	16.38
212.846	59.39
213.065	77.82
213.283	67.58
213.502	-30.72
213.72	-6.14
213.938	108.54
214.157	65.53
214.375	67.58
214.594	12.29
214.812	69.63
215.031	28.67
215.249	28.67
215.467	45.06
215.686	34.82
215.904	88.06
216.122	69.63
216.341	83.97
216.559	59.39
216.778	18.43
216.996	-4.1
217.214	-8.19
217.432	12.29
217.651	32.77
217.869	88.06
218.087	43.01
218.306	61.44
218.524	67.58
218.742	-59.39
218.96	53.25
219.179	43.01
219.397	2.05
219.615	43.01
219.833	8.19
220.051	-32.77
220.27	116.73
220.488	143.36
220.706	53.25
220.924	-24.58
221.142	-6.14
221.36	-20.48
221.578	-22.53
221.796	32.77
222.015	116.73
222.233	32.77
222.451	63.49
222.669	26.62
222.887	75.77
223.105	34.82
223.323	14.34
223.541	43.01
223.759	94.21
223.977	36.86
224.195	20.48
224.413	77.82
224.631	49.15
224.849	65.53
225.067	53.25
225.285	43.01
225.503	57.34
225.721	-12.29
225.939	8.19
226.157	-6.14
226.375	-0
226.592	4.1
226.81	36.86
227.028	65.53
227.246	122.88
227.464	108.54
227.682	67.58
227.9	-20.48
228.117	14.34
228.335	40.96
228.553	14.34
228.771	59.39
228.989	47.1
229.206	30.72
229.424	73.73
229.642	59.39
229.86	104.45
230.077	122.88
230.295	8.19
230.513	65.53
230.731	63.49
230.948	20.48
231.166	108.54
231.384	61.44
231.601	67.58
231.819	51.2
232.037	45.06
232.254	22.53
232.472	43.01
232.689	-10.24
232.907	79.87
233.125	53.25
233.342	45.06
233.56	-32.77
233.777	-28.67
233.995	34.82
234.213	4.1
234.43	43.01
234.648	49.15
234.865	20.48
235.083	77.82
235.3	83.97
235.518	30.72
235.735	77.82
235.953	75.77
236.17	69.63
236.388	81.92
236.605	51.2
236.822	75.77
237.04	69.63
237.257	28.67
237.475	53.25
237.692	65.53
237.909	53.25
238.127	-30.72
238.344	47.1
238.562	79.87
238.779	100.35
238.996	-0
239.214	38.91
239.431	61.44
239.648	34.82
239.865	14.34
240.083	81.92
240.3	53.25
240.517	18.43
240.735	55.3
240.952	61.44
241.169	16.38
241.386	92.16
241.603	10.24
241.821	-53.25
242.038	69.63
242.255	92.16
242.472	61.44
242.689	28.67
242.907	86.01
243.124	40.96
243.341	38.91
243.558	96.25
243.775	-12.29
243.992	-0
244.209	77.82
244.426	124.93
244.643	49.15
244.86	4.1
245.078	51.2
245.295	61.44
245.512	53.25
245.729	69.63
245.946	96.25
246.163	53.25
246.38	110.59
246.597	59.39
246.814	34.82
247.031	40.96
247.248	73.73
247.464	45.06
247.681	34.82
247.898	51.2
248.115	86.01
248.332	57.34
248.549	104.45
248.766	90.11
248.983	75.77
249.2	28.67
249.417	69.63
249.633	75.77
249.85	110.59
250.067	49.15
250.284	-28.67
250.501	110.59
250.717	49.15
250.934	28.67
251.151	49.15
251.368	22.53
251.585	36.86
251.801	-14.34
252.018	20.48
252.235	61.44
252.451	98.3
252.668	4.1
252.885	53.25
253.102	-10.24
253.318	38.91
253.535	40.96
253.752	94.21
253.968	45.06
254.185	-0
254.401	92.16
254.618	38.91
254.835	49.15
255.051	57.34
255.268	61.44
255.484	114.69
255.701	-0
255.917	73.73
256.134	34.82
256.351	79.87
256.567	-14.34
256.784	63.49
257	20.48
257.217	65.53
257.433	45.06
257.65	-12.29
257.866	108.54
258.082	38.91
258.299	61.44
258.515	32.77
258.732	-10.24
258.948	47.1
259.165	143.36
259.381	71.68
259.597	81.92
259.814	139.26
260.03	47.1
260.246	-12.29
260.463	14.34
260.679	24.58
260.895	6.14
261.112	45.06
261.328	47.1
261.544	49.15
261.761	38.91
261.977	2.05
262.193	24.58
262.409	94.21
262.626	43.01
262.842	28.67
263.058	20.48
263.274	110.59
263.49	10.24
263.707	45.06
263.923	-32.77
264.139	-20.48
264.355	67.58
264.571	45.06
264.787	57.34
265.004	114.69
265.22	94.21
265.436	36.86
265.652	34.82
265.868	112.64
266.084	4.1
266.3	151.55
266.516	55.3
266.732	10.24
266.948	8.19
267.164	55.3
267.38	51.2
267.596	69.63
267.812	51.2
268.028	69.63
268.244	36.86
268.46	118.78
268.676	-0
268.892	28.67
269.108	59.39
269.324	65.53
269.54	55.3
269.756	47.1
269.972	45.06
270.188	71.68
270.403	-45.06
270.619	45.06
270.835	32.77
271.051	53.25
271.267	86.01
271.483	79.87
271.698	63.49
271.914	69.63
272.13	83.97
272.346	75.77
272.562	55.3
272.777	90.11
272.993	30.72
273.209	-53.25
273.425	30.72
273.64	59.39
273.856	120.83
274.072	61.44
274.287	-16.38
274.503	34.82
274.719	79.87
274.934	43.01
275.15	18.43
275.366	40.96
275.581	-14.34
275.797	75.77
276.012	116.73
276.228	43.01
276.444	4.1
276.659	73.73
276.875	-8.19
277.09	-36.86
277.306	65.53
277.521	88.06
277.737	77.82
277.952	-6.14
278.168	24.58
278.383	108.54
278.599	18.43
278.814	153.6
279.03	-32.77
279.245	16.38
279.461	49.15
279.676	75.77
279.892	10.24
280.107	24.58
280.322	18.43
280.538	53.25
280.753	47.1
280.969	61.44
281.184	8.19
281.399	59.39
281.615	53.25
281.83	83.97
282.045	-0
282.26	6.14
282.476	40.96
282.691	-22.53
282.906	81.92
283.122	34.82
283.337	-6.14
283.552	10.24
283.767	-20.48
283.983	55.3
284.198	24.58
284.413	88.06
284.628	20.48
284.843	36.86
285.058	-18.43
285.274	100.35
285.489	57.34
285.704	133.12
285.919	45.06
286.134	98.3
286.349	-6.14
286.564	53.25
286.779	69.63
286.995	45.06
287.21	12.29
287.425	49.15
287.64	83.97
287.855	88.06
288.07	-6.14
288.285	108.54
288.5	51.2
288.715	49.15
288.93	38.91
289.145	83.97
289.36	55.3
289.575	116.73
289.79	88.06
290.004	73.73
290.219	57.34
290.434	-32.77
290.649	63.49
290.864	-0
291.079	47.1
291.294	69.63
291.509	90.11
291.724	90.11
291.938	102.4
292.153	83.97
292.368	116.73
292.583	36.86
292.798	36.86
293.012	86.01
293.227	86.01
293.442	73.73
293.657	20.48
293.871	114.69
294.086	59.39
294.301	75.77
294.516	45.06
294.73	24.58
294.945	53.25
295.16	24.58
295.374	69.63
295.589	116.73
295.804	43.01
296.018	22.53
296.233	32.77
296.447	53.25
296.662	12.29
296.877	75.77
297.091	55.3
297.306	22.53
297.52	40.96
297.735	61.44
297.949	86.01
298.164	36.86
298.378	71.68
298.593	-26.62
298.807	51.2
299.022	83.97
299.236	118.78
299.451	86.01
299.665	61.44
299.88	-26.62
300.094	57.34
300.309	61.44
300.523	81.92
300.737	65.53
300.952	81.92
301.166	77.82
301.381	61.44
301.595	32.77
301.809	149.5
302.024	28.67
302.238	24.58
302.452	108.54
302.667	22.53
302.881	141.31
303.095	61.44
303.309	8.19
303.524	20.48
303.738	38.91
303.952	16.38
304.166	61.44
304.381	47.1
304.595	120.83
304.809	38.91
305.023	65.53
305.237	18.43
305.452	30.72
305.666	36.86
305.88	16.38
306.094	167.93
306.308	90.11
306.522	45.06
306.736	49.15
306.95	92.16
307.164	92.16
307.379	-36.86
307.593	26.62
307.807	75.77
308.021	43.01
308.235	73.73
308.449	10.24
308.663	67.58
308.877	143.36
309.091	32.77
309.305	131.07
309.519	-6.14
309.733	61.44
309.947	94.21
310.161	57.34
310.374	59.39
310.588	106.49
310.802	-28.67
311.016	-16.38
311.23	45.06
311.444	40.96
311.658	69.63
311.872	86.01
312.085	57.34
312.299	73.73
312.513	92.16
312.727	98.3
312.941	45.06
313.154	47.1
313.368	86.01
313.582	55.3
313.796	88.06
314.009	45.06
314.223	55.3
314.437	118.78
314.651	94.21
314.864	6.14
315.078	57.34
315.292	-4.1
315.505	63.49
315.719	30.72
315.933	65.53
316.146	67.58
316.36	53.25
316.573	59.39
316.787	22.53
317.001	49.15
317.214	-36.86
317.428	124.93
317.641	26.62
317.855	6.14
318.068	61.44
318.282	67.58
318.495	149.5
318.709	49.15
318.922	77.82
319.136	106.49
319.349	120.83
319.563	40.96
319.776	98.3
319.99	30.72
320.203	18.43
320.417	59.39
320.63	-14.34
320.843	88.06
321.057	88.06
321.27	-0
321.483	86.01
321.697	28.67
321.91	73.73
322.124	34.82
322.337	53.25
322.55	20.48
322.763	53.25
322.977	49.15
323.19	51.2
323.403	106.49
323.617	112.64
323.83	26.62
324.043	90.11
324.256	118.78
324.469	45.06
324.683	96.25
324.896	73.73
325.109	57.34
325.322	14.34
325.535	120.83
325.748	61.44
325.962	59.39
326.175	30.72
326.388	40.96
326.601	161.79
326.814	69.63
327.027	10.24
327.24	190.46
327.453	-8.19
327.666	28.67
327.879	20.48
328.092	167.93
328.305	53.25
328.518	40.96
328.731	77.82
328.944	14.34
329.157	28.67
329.37	47.1
329.583	143.36
329.796	65.53
330.009	28.67
330.222	-2.05
330.435	57.34
330.648	57.34
330.861	24.58
331.073	69.63
331.286	43.01
331.499	65.53
331.712	53.25
331.925	55.3
332.138	61.44
332.35	110.59
332.563	-34.82
332.776	61.44
332.989	-12.29
333.202	40.96
333.414	18.43
333.627	38.91
333.84	67.58
334.053	45.06
334.265	34.82
334.478	49.15
334.691	20.48
334.903	122.88
335.116	86.01
335.329	57.34
335.541	-38.91
335.754	112.64
335.966	2.05
336.179	94.21
336.392	2.05
336.604	38.91
336.817	43.01
337.029	55.3
337.242	32.77
337.454	102.4
337.667	43.01
337.88	83.97
338.092	45.06
338.305	106.49
338.517	43.01
338.729	114.69
338.942	83.97
339.154	20.48
339.367	6.14
339.579	147.45
339.792	55.3
340.004	36.86
340.217	67.58
340.429	32.77
340.641	-14.34
340.854	59.39
341.066	49.15
341.278	77.82
341.491	65.53
341.703	92.16
341.915	53.25
342.128	131.07
342.34	-0
342.552	108.54
342.764	36.86
342.977	40.96
343.189	36.86
343.401	43.01
343.613	26.62
343.826	26.62
344.038	77.82
344.25	71.68
344.462	75.77
344.674	79.87
344.886	112.64
345.099	114.69
345.311	-16.38
345.523	-43.01
345.735	-16.38
345.947	6.14
346.159	83.97
346.371	6.14
346.583	32.77
346.795	53.25
347.007	12.29
347.219	131.07
347.431	20.48
347.643	92.16
347.855	16.38
348.067	86.01
348.279	67.58
348.491	92.16
348.703	75.77
348.915	77.82
349.127	-0
349.339	12.29
349.551	34.82
349.763	32.77
349.975	53.25
350.187	77.82
350.399	22.53
350.61	40.96
350.822	34.82
351.034	102.4
351.246	69.63
351.458	67.58
351.669	16.38
351.881	59.39
352.093	94.21
352.305	75.77
352.517	135.17
352.728	81.92
352.94	77.82
353.152	75.77
353.363	18.43
353.575	53.25
353.787	126.97
353.999	192.51
354.21	120.83
354.422	96.25
354.633	51.2
354.845	77.82
355.057	65.53
355.268	92.16
355.48	149.5
355.692	-14.34
355.903	43.01
356.115	4.1
356.326	20.48
356.538	53.25
356.749	67.58
356.961	69.63
357.172	32.77
357.384	12.29
357.595	94.21
357.807	88.06
358.018	-4.1
358.23	-14.34
358.441	172.03
358.653	133.12
358.864	51.2
359.075	77.82
359.287	57.34
359.498	40.96
359.709	-8.19
359.921	77.82
360.132	77.82
360.344	79.87
360.555	24.58
360.766	63.49
360.977	53.25
361.189	153.6
361.4	26.62
361.611	40.96
361.823	137.21
362.034	32.77
362.245	14.34
362.456	12.29
362.667	59.39
362.879	20.48
363.09	53.25
363.301	100.35
363.512	90.11
363.723	8.19
363.935	69.63
364.146	71.68
364.357	73.73
364.568	118.78
364.779	77.82
364.99	73.73
365.201	77.82
365.412	86.01
365.623	143.36
365.834	53.25
366.045	65.53
366.256	53.25
366.467	53.25
366.678	26.62
366.889	118.78
367.1	90.11
367.311	61.44
367.522	12.29
367.733	88.06
367.944	155.65
368.155	-0
368.366	131.07
368.577	81.92
368.788	67.58
368.999	67.58
369.209	126.97
369.42	112.64
369.631	180.22
369.842	20.48
370.053	51.2
370.264	108.54
370.474	32.77
370.685	2.05
370.896	77.82
371.107	104.45
371.317	75.77
371.528	65.53
371.739	67.58
371.95	94.21
372.16	106.49
372.371	12.29
372.582	83.97
372.792	53.25
373.003	6.14
373.214	69.63
373.424	90.11
373.635	53.25
373.846	79.87
374.056	30.72
374.267	81.92
374.477	77.82
374.688	77.82
374.898	32.77
375.109	71.68
375.319	57.34
375.53	100.35
375.74	92.16
375.951	43.01
376.161	79.87
376.372	67.58
376.582	32.77
376.793	110.59
377.003	-0
377.214	88.06
377.424	81.92
377.635	110.59
377.845	112.64
378.055	61.44
378.266	34.82
378.476	-8.19
378.686	88.06
378.897	34.82
379.107	122.88
379.317	176.13
379.528	-4.1
379.738	114.69
379.948	28.67
380.158	53.25
380.369	61.44
380.579	98.3
380.789	90.11
380.999	69.63
381.21	108.54
381.42	59.39
381.63	112.64
381.84	67.58
382.05	122.88
382.261	79.87
382.471	61.44
382.681	40.96
382.891	110.59
383.101	79.87
383.311	51.2
383.521	69.63
383.731	102.4
383.941	149.5
384.151	145.41
384.361	92.16
384.571	30.72
384.781	165.89
384.991	106.49
385.201	147.45
385.411	114.69
385.621	61.44
385.831	69.63
386.041	192.51
386.251	92.16
386.461	81.92
386.671	67.58
386.881	96.25
387.091	116.73
387.301	100.35
387.511	129.02
387.72	100.35
387.93	-36.86
388.14	30.72
388.35	-2.05
388.56	122.88
388.769	67.58
388.979	57.34
389.189	32.77
389.399	169.98
389.609	106.49
389.818	59.39
390.028	118.78
390.238	108.54
390.447	20.48
390.657	137.21
390.867	63.49
391.076	49.15
391.286	131.07
391.496	75.77
391.705	96.25
391.915	129.02
392.125	108.54
392.334	88.06
392.544	129.02
392.753	45.06
392.963	61.44
393.172	126.97
393.382	102.4
393.591	139.26
393.801	94.21
394.01	212.99
394.22	126.97
394.429	16.38
394.639	143.36
394.848	118.78
395.058	94.21
395.267	135.17
395.477	139.26
395.686	98.3
395.895	157.69
396.105	124.93
396.314	159.74
396.524	51.2
396.733	153.6
396.942	145.41
397.152	155.65
397.361	124.93
397.57	145.41
397.78	196.6
397.989	124.93
398.198	180.22
398.407	141.31
398.617	114.69
398.826	200.7
399.035	38.91
399.244	178.17
399.453	129.02
399.663	108.54
399.872	133.12
400.081	124.93
400.29	143.36
400.499	135.17
400.708	184.32
400.917	147.45
401.127	143.36
401.336	155.65
401.545	133.12
401.754	155.65
401.963	172.03
402.172	159.74
402.381	69.63
402.59	159.74
402.799	141.31
403.008	192.51
403.217	212.99
403.426	112.64
403.635	133.12
403.844	186.37
404.053	45.06
404.262	194.56
404.471	212.99
404.68	169.98
404.888	167.93
405.097	143.36
405.306	172.03
405.515	225.28
405.724	194.56
405.933	276.48
406.142	245.76
406.35	198.65
406.559	247.8
406.768	174.08
406.977	286.72
407.185	239.61
407.394	296.96
407.603	182.27
407.812	256
408.02	282.62
408.229	249.85
408.438	284.67
408.646	360.44
408.855	317.44
409.064	323.58
409.272	327.67
409.481	460.79
409.69	280.57
409.898	344.06
410.107	374.78
410.315	378.87
410.524	430.07
410.733	385.02
410.941	393.21
411.15	413.69
411.358	454.65
411.567	479.22
411.775	495.61
411.984	446.46
412.192	532.47
412.401	548.86
412.609	622.58
412.818	536.57
413.026	579.58
413.234	624.63
413.443	606.2
413.651	587.77
413.86	704.5
414.068	735.22
414.276	669.69
414.485	735.22
414.693	892.91
414.901	843.76
415.11	794.61
415.318	843.76
415.526	946.16
415.734	958.45
415.943	940.02
416.151	890.87
416.359	1032.18
416.567	1120.24
416.776	1058.8
416.984	1079.28
417.192	1200.11
417.4	1269.74
417.608	1185.77
417.817	1234.93
418.025	1366
418.233	1339.37
418.441	1388.52
418.649	1449.96
418.857	1492.97
419.065	1617.9
419.273	1521.64
419.481	1519.59
419.689	1675.24
419.897	1710.05
420.105	1699.81
420.313	1859.56
420.521	1894.37
420.729	1880.04
420.937	1990.63
421.145	2136.03
421.353	2156.51
421.561	2271.2
421.769	2256.86
421.977	2357.21
422.185	2392.03
422.393	2418.65
422.601	2719.7
422.809	2615.26
423.017	2744.28
423.224	2768.85
423.432	3022.8
423.64	2971.6
423.848	3375.05
424.056	2990.03
424.263	3342.28
424.471	3252.17
424.679	3540.94
424.887	3643.34
425.094	3780.55
425.302	3715.02
425.51	3975.11
425.718	4020.16
425.925	3966.92
426.133	4202.43
426.341	4476.86
426.548	4638.65
426.756	4480.96
426.964	4716.47
427.171	4945.84
427.379	5212.08
427.586	5255.09
427.794	5189.55
428.001	5449.64
428.209	5803.94
428.417	5717.93
428.624	6025.12
428.832	6180.77
429.039	6084.52
429.247	6098.85
429.454	6655.9
429.662	7264.15
429.869	6455.2
430.076	7114.64
430.284	6875.03
430.491	7120.79
430.699	7659.4
430.906	7575.44
431.114	7841.67
431.321	7999.37
431.528	8288.13
431.736	8734.59
431.943	9000.82
432.15	8914.81
432.358	8992.63
432.565	9543.53
432.772	9496.43
432.979	9924.46
433.187	10071.91
433.394	10323.81
433.601	10829.66
433.808	10987.35
434.016	10520.42
434.223	11138.9
434.43	11829.07
434.637	11603.79
434.844	12328.77
435.052	12429.12
435.259	12590.91
435.466	12689.21
435.673	12289.86
435.88	13309.75
436.087	13885.23
436.294	13801.26
436.501	13659.95
436.708	13733.68
436.915	14417.7
437.122	15060.76
437.329	14970.65
437.537	15306.52
437.743	15564.56
437.95	15439.64
438.157	16066.31
438.364	16912.13
438.571	16733.95
438.778	17045.24
438.985	18691.81
439.192	17745.65
439.399	18431.72
439.606	17872.62
439.813	18910.94
440.02	20186.83
440.227	19705.56
440.433	19408.6
440.64	20125.39
440.847	20051.66
441.054	20586.18
441.261	21933.75
441.467	21341.88
441.674	22107.82
441.881	23109.28
442.088	22607.53
442.294	22326.96
442.501	23226.01
442.708	23668.37
442.914	24700.55
443.121	25364.09
443.328	24974.98
443.534	26549.87
443.741	25687.67
443.948	25630.33
444.154	27580
444.361	27577.95
444.568	27563.61
444.774	27467.36
444.981	27674.2
445.187	28427.85
445.394	29908.54
445.6	29419.07
445.807	31735.32
446.013	30604.84
446.22	31223.33
446.426	32437.78
446.633	32300.56
446.839	33816.06
447.046	32146.97
447.252	34246.13
447.459	34190.84
447.665	33945.08
447.871	35446.24
448.078	36849.1
448.284	35087.85
448.491	36052.44
448.697	37354.95
448.903	38161.85
449.11	38008.25
449.316	37283.27
449.522	38348.21
449.728	39390.63
449.935	39556.52
450.141	39566.76
450.347	40170.91
450.553	39300.52
450.76	39550.37
450.966	40535.45
451.172	40199.58
451.378	40951.18
451.584	40277.4
451.791	41538.95
451.997	40787.35
452.203	41411.98
452.409	42075.52
452.615	41614.72
452.821	39712.16
453.027	39564.71
453.233	41465.22
453.44	39802.27
453.646	40166.81
453.852	40707.47
454.058	40885.65
454.264	39474.6
454.47	40199.58
454.676	39413.16
454.882	40873.36
455.088	37154.25
455.294	37656
455.5	38110.65
455.705	38387.13
455.911	37223.88
456.117	36462.04
456.323	35878.36
456.529	34192.89
456.735	35694.05
456.941	34700.78
457.147	33857.02
457.352	32919.05
457.558	32318.99
457.764	32654.86
457.97	32196.12
458.176	31796.76
458.381	31483.42
458.587	29945.4
458.793	29937.21
458.999	28167.76
459.204	30281.27
459.41	29500.99
459.616	27422.3
459.821	27522.65
460.027	27491.93
460.233	26916.45
460.438	25734.78
460.644	25990.77
460.85	24733.32
461.055	24106.64
461.261	24174.22
461.466	22490.79
461.672	21782.2
461.878	23223.97
462.083	21935.79
462.289	21497.53
462.494	21159.61
462.7	20510.41
462.905	19791.57
463.111	20342.47
463.316	20682.44
463.522	20373.19
463.727	20074.19
463.932	19996.37
464.138	19799.76
464.343	20242.12
464.549	19619.54
464.754	19758.8
464.959	19865.3
465.165	19678.93
465.37	18892.51
465.575	18757.35
465.781	19054.3
465.986	19412.7
466.191	18554.6
466.397	18323.18
466.602	17213.18
466.807	18056.94
467.012	18138.86
467.218	17725.17
467.423	17839.86
467.628	17897.2
467.833	18609.89
468.038	17891.06
468.244	17370.87
468.449	17934.06
468.654	17667.83
468.859	17149.69
469.064	17274.62
469.269	16449.28
469.474	16604.93
469.679	17127.16
469.885	16680.71
470.09	16670.47
470.295	16477.96
470.5	16258.82
470.705	16199.43
470.91	15824.65
471.115	15736.59
471.32	16074.51
471.525	15695.63
471.73	15539.99
471.935	15462.16
472.139	15011.61
472.344	15283.99
472.549	14948.12
472.754	14989.08
472.959	14409.51
473.164	14124.84
473.369	14112.55
473.574	14589.73
473.778	14368.55
473.983	14212.9
474.188	14303.01
474.393	13557.55
474.598	13659.95
474.802	13530.93
475.007	13432.63
475.212	13334.32
475.417	13041.47
475.621	12982.07
475.826	13121.34
476.031	12764.99
476.235	12691.26
476.44	12810.04
476.645	12334.92
476.849	12670.78
477.054	12330.82
477.259	12048.2
477.463	12285.76
477.668	11892.55
477.872	12123.98
478.077	11745.1
478.282	11528.02
478.486	11581.26
478.691	11616.08
478.895	11339.6
479.1	11335.51
479.304	11339.6
479.509	11093.85
479.713	11163.48
479.918	10917.72
480.122	10907.48
480.326	10792.8
480.531	11145.05
480.735	10887
480.94	10678.11
481.144	11079.51
481.348	10547.04
481.553	10717.02
481.757	10532.7
481.961	10585.95
482.166	10868.57
482.37	10551.14
482.574	10639.2
482.778	10483.55
482.983	10805.08
483.187	10594.14
483.391	10620.77
483.595	10516.32
483.8	10432.35
484.004	10663.77
484.208	10514.27
484.412	10475.36
484.616	10487.65
484.821	10862.43
485.025	10317.67
485.229	10663.77
485.433	10329.95
485.637	10547.04
485.841	10628.96
486.045	10354.53
486.249	10356.58
486.453	10432.35
486.657	10452.83
486.861	10694.49
487.065	10127.21
487.269	10471.26
487.473	10315.62
487.677	10592.09
487.881	10549.09
488.085	10686.3
488.289	10495.84
488.493	10463.07
488.697	10639.2
488.901	10534.75
489.105	10674.01
489.309	10620.77
489.512	10858.33
489.716	10569.57
489.92	10538.85
490.124	10385.25
490.328	10936.15
490.531	10735.45
490.735	10757.98
490.939	10874.71
491.143	10854.23
491.346	10794.84
491.55	10970.97
491.754	10952.54
491.958	10858.33
492.161	11179.86
492.365	11048.79
492.569	10905.43
492.772	11243.35
492.976	11251.54
493.18	11102.04
493.383	11622.22
493.587	11568.98
493.79	11462.48
493.994	11497.3
494.197	11556.69
494.401	11847.5
494.605	11515.73
494.808	11935.56
495.012	12072.78
495.215	11798.35
495.419	12169.03
495.622	12162.89
495.825	12193.61
496.029	12195.65
496.232	12535.62
496.436	12674.88
496.639	13002.55
496.843	12691.26
497.046	13072.18
497.249	12975.93
497.453	13049.66
497.656	13426.48
497.859	13328.18
498.063	13516.59
498.266	13936.43
498.469	13729.58
498.673	13895.47
498.876	13999.91
499.079	14264.1
499.282	14257.96
499.485	14669.6
499.689	14866.21
499.892	15058.71
500.095	14835.49
500.298	15400.72
500.501	15281.94
500.705	15523.6
500.908	15722.26
501.111	15925.01
501.314	16217.86
501.517	16267.02
501.72	16238.34
501.923	16373.51
502.126	16709.38
502.329	16770.82
502.532	17256.18
502.735	17223.42
502.938	17510.13
503.141	17430.26
503.344	18067.18
503.547	17889.01
503.75	18374.38
503.953	18560.74
504.156	18628.32
504.359	18792.16
504.562	18624.23
504.765	19183.32
504.968	19404.5
505.17	19523.29
505.373	19973.84
505.576	19918.54
505.779	20233.93
505.982	20334.28
506.185	20745.92
506.387	20911.81
506.59	21001.92
506.793	21284.54
506.996	21464.76
507.198	22023.86
507.401	21649.08
507.604	22263.47
507.807	22490.79
508.009	22816.42
508.212	22623.91
508.415	23213.73
508.617	23494.3
508.82	23815.83
509.022	23977.62
509.225	23963.28
509.428	24135.31
509.63	24223.37
509.833	24571.53
510.035	25310.85
510.238	25077.38
510.44	25394.81
510.643	25691.77
510.845	25994.87
511.048	25912.95
511.25	26533.48
511.453	26170.99
511.655	27035.24
511.858	27201.12
512.06	27377.25
512.262	27962.97
512.465	27725.4
512.667	28231.25
512.87	28683.85
513.072	28546.64
513.274	28911.17
513.477	29435.45
513.679	29773.37
513.881	29843
514.084	30131.76
514.286	30230.07
514.488	30389.81
514.69	31221.28
514.893	31444.51
515.095	31311.39
515.297	31792.67
515.499	31868.44
515.701	32437.78
515.904	32816.65
516.106	32818.7
516.308	33015.3
516.51	33443.33
516.712	33439.23
516.914	34016.76
517.116	34244.09
517.318	34946.54
517.52	34766.32
517.722	35134.95
517.925	35509.73
518.127	36165.08
518.329	36056.54
518.531	36287.96
518.733	36664.78
518.935	36814.29
519.136	37045.71
519.338	37770.69
519.54	37742.02
519.742	37944.76
519.944	37948.86
520.146	38632.88
520.348	39175.59
520.55	39138.73
520.752	39480.74
520.954	40332.7
521.155	40013.21
521.357	40443.29
521.559	40603.03
521.761	41244.04
521.963	41026.96
522.164	41778.56
522.366	41928.06
522.568	42431.86
522.77	42163.58
522.971	42931.57
523.173	42308.99
523.375	43414.89
523.576	42993.01
523.778	43474.28
523.98	43988.32
524.181	44299.61
524.383	44209.5
524.584	44897.62
524.786	44565.85
524.988	44402.01
525.189	45446.47
525.391	45669.7
525.592	45542.73
525.794	46130.5
525.995	45927.75
526.197	46155.07
526.398	45886.79
526.6	46800.18
526.801	46886.2
527.003	47029.55
527.204	46748.98
527.406	47346.99
527.607	47392.04
527.808	47717.67
528.01	47123.76
528.211	47637.8
528.412	48379.17
528.614	48182.56
528.815	48248.1
529.016	48866.58
529.218	48370.97
529.419	48723.22
529.62	48721.18
529.822	48813.34
530.023	48997.65
530.224	49241.36
530.425	49247.5
530.626	49018.13
530.828	48911.64
531.029	50160.9
531.23	49171.73
531.431	48837.91
531.632	49407.25
531.833	49921.29
532.035	49233.17
532.236	49566.99
532.437	50038.02
532.638	49808.65
532.839	50197.76
533.04	50468.09
533.241	49636.62
533.442	50826.49
533.643	50033.92
533.844	50085.12
534.045	49865.99
534.246	49536.27
534.447	50636.03
534.648	50283.78
534.849	50103.56
535.05	50234.63
535.251	50345.22
535.451	50263.3
535.652	50769.15
535.853	50042.12
536.054	50517.25
536.255	50832.63
536.456	50124.04
536.657	50859.26
536.857	50386.18
537.058	50472.19
537.259	50959.61
537.46	50877.69
537.66	50306.3
537.861	50967.8
538.062	50631.93
538.263	50693.37
538.463	50257.15
538.664	50382.08
538.865	50513.15
539.065	50937.08
539.266	50021.64
539.466	51451.12
539.667	50246.91
539.868	51086.58
540.068	50672.89
540.269	50468.09
540.469	50611.45
540.67	50494.72
540.87	50328.83
541.071	50660.6
541.271	50713.85
541.472	50709.75
541.672	50478.33
541.873	50019.59
542.073	50074.88
542.274	51102.96
542.474	51008.76
542.675	50148.61
542.875	50345.22
543.075	50517.25
543.276	49808.65
543.476	51078.39
543.676	50484.48
543.877	50525.44
544.077	50392.32
544.277	50238.72
544.478	50189.57
544.678	50584.83
544.878	50115.84
545.078	50328.83
545.279	49976.58
545.479	50066.69
545.679	50095.36
545.879	50109.7
546.079	49986.82
546.28	50443.52
546.48	49763.59
546.68	50533.63
546.88	50412.8
547.08	50681.08
547.28	50339.07
547.48	50050.31
547.68	50509.05
547.88	50013.44
548.081	50529.53
548.281	50406.65
548.481	50179.33
548.681	50527.49
548.881	50095.36
549.081	50126.08
549.28	50136.32
549.48	50697.47
549.68	49913.09
549.88	50687.23
550.08	49741.06
550.28	50572.54
550.48	49863.94
550.68	50177.28
550.88	49775.88
551.08	50355.46
551.279	50539.77
551.479	49653
551.679	49741.06
551.879	49763.59
552.079	50142.47
552.278	49665.29
552.478	50140.42
552.678	49618.19
552.878	49997.06
553.077	49700.11
553.277	49599.76
553.477	50134.28
553.676	49734.92
553.876	49808.65
554.076	49009.94
554.275	49636.62
554.475	49241.36
554.674	49812.74
554.874	50021.64
555.074	49333.52
555.273	49102.1
555.473	49562.89
555.672	49083.67
555.872	49444.11
556.071	49169.68
556.271	49435.92
556.47	49055
556.67	49081.62
556.869	49306.9
557.068	49214.74
557.268	48807.19
557.467	48981.27
557.667	49235.22
557.866	49280.27
558.065	48876.82
558.265	48362.78
558.464	48520.48
558.663	49157.39
558.863	47945
559.062	48944.41
559.261	48145.7
559.461	48862.49
559.66	48094.5
559.859	48162.08
560.058	48164.13
560.258	48475.42
560.457	47963.43
560.656	48518.43
560.855	48198.94
561.054	48215.33
561.253	47938.85
561.453	47852.84
561.652	48049.44
561.851	47885.61
562.05	47115.57
562.249	47101.23
562.448	47510.83
562.647	47224.11
562.846	47344.94
563.045	47340.85
563.244	46980.4
563.443	47080.75
563.642	46695.74
563.841	46880.05
564.04	46531.9
564.239	47150.38
564.438	46335.29
564.637	46718.26
564.836	47111.47
565.035	46110.02
565.234	46634.3
565.432	45915.46
565.631	45704.52
565.83	46089.54
566.029	45921.6
566.228	45925.7
566.427	46052.67
566.625	45333.84
566.824	44504.41
567.023	45507.91
567.222	44692.82
567.42	45600.07
567.619	44774.74
567.818	45380.94
568.016	44815.7
568.215	45235.53
568.414	44660.05
568.612	45022.54
568.811	44655.96
569.01	44610.9
569.208	44119.39
569.407	44471.64
569.605	43654.5
569.804	43980.13
570.002	43740.52
570.201	43842.92
570.4	43758.95
570.598	43308.4
570.797	43535.72
570.995	43400.55
571.193	42507.64
571.392	43605.35
571.59	43089.26
571.789	43302.25
571.987	43152.75
572.186	42954.1
572.384	42571.13
572.582	42759.54
572.781	42483.06
572.979	42235.26
573.177	42538.36
573.376	42433.91
573.574	41721.22
573.772	42079.61
573.971	42007.93
574.169	41641.35
574.367	41430.41
574.565	42122.62
574.763	41749.89
574.962	41481.61
575.16	41407.88
575.358	41452.94
575.556	40934.8
575.754	41198.99
575.952	40986
576.151	41129.36
576.349	40764.82
576.547	40588.69
576.745	40723.86
576.943	40588.69
577.141	40156.57
577.339	40383.9
577.537	40261.02
577.735	39949.73
577.933	40068.51
578.131	39890.34
578.329	39667.11
578.527	39658.91
578.725	39218.6
578.923	39464.36
579.121	38966.7
579.319	39177.64
579.516	39380.39
579.714	39470.5
579.912	38919.6
580.11	38882.73
580.308	38698.42
580.506	38342.07
580.704	38278.58
580.901	38712.75
581.099	38700.47
581.297	38477.24
581.495	38282.68
581.692	38331.83
581.89	37615.04
582.088	38297.02
582.285	37551.56
582.483	38157.75
582.681	37576.13
582.878	37436.87
583.076	36910.54
583.274	37651.91
583.471	37397.96
583.669	36920.78
583.866	36750.8
584.064	37201.35
584.262	36552.15
584.459	37023.18
584.657	36513.23
584.854	36599.25
585.052	35886.56
585.249	36668.88
585.447	36259.29
585.644	35986.91
585.841	36140.5
586.039	36333.01
586.236	35526.11
586.434	35479.01
586.631	35870.17
586.828	35796.45
587.026	35427.81
587.223	35431.91
587.42	35141.1
587.618	35444.2
587.815	34891.24
588.012	34590.19
588.21	34704.88
588.407	35509.73
588.604	34661.87
588.801	34610.67
588.999	34358.77
589.196	34633.2
589.393	34569.71
589.59	34485.75
589.787	33961.47
589.984	34067.96
590.182	33805.82
590.379	34098.68
590.576	33420.8
590.773	33486.34
590.97	33379.84
591.167	33607.17
591.364	33531.39
591.561	33240.58
591.758	33009.16
591.955	32957.96
592.152	33555.97
592.349	33093.13
592.546	33529.34
592.743	32921.1
592.94	32486.93
593.137	32728.59
593.334	32448.02
593.531	32370.19
593.727	32630.29
593.924	32300.56
594.121	31813.15
594.318	32220.69
594.515	31706.65
594.712	31927.83
594.908	31663.64
595.105	31790.62
595.302	31141.41
595.499	31813.15
595.696	31747.61
595.892	31092.26
596.089	31196.71
596.286	31249.96
596.482	31223.33
596.679	30866.99
596.876	30772.78
597.072	30557.74
597.269	30928.42
597.466	30316.08
597.662	30365.23
597.859	30914.09
598.055	30228.02
598.252	30193.2
598.448	30326.32
598.645	30012.98
598.841	29820.47
599.038	29783.61
599.234	30172.72
599.431	29734.46
599.627	29347.39
599.824	29457.98
600.02	29177.41
600.217	29308.48
600.413	29163.08
600.609	29011.53
600.806	28812.87
601.002	29001.29
601.198	28603.98
601.395	28575.31
601.591	28810.82
601.787	28821.06
601.984	28339.79
602.18	29093.44
602.376	28489.29
602.572	28325.46
602.769	28245.58
602.965	27829.85
603.161	28288.59
603.357	28278.35
603.553	27870.81
603.75	28149.33
603.946	27690.59
604.142	27919.96
604.338	27180.64
604.534	27670.11
604.73	27539.04
604.926	27305.57
605.122	27676.25
605.318	26932.84
605.514	27051.62
605.71	26672.74
605.906	26941.03
606.102	26850.92
606.298	27162.21
606.494	26740.33
606.69	26891.88
606.886	26746.47
607.082	26453.61
607.278	26717.8
607.474	26230.38
607.67	26947.17
607.866	26119.79
608.062	26709.61
608.257	26340.97
608.453	25851.51
608.649	26105.46
608.845	25826.93
609.041	25845.37
609.236	25923.19
609.432	25587.32
609.628	25865.85
609.824	25919.09
610.019	25726.58
610.215	25378.43
610.411	25898.61
610.606	25699.96
610.802	25499.26
610.998	25388.67
611.193	25194.11
611.389	25233.02
611.584	25222.78
611.78	24993.41
611.976	25093.76
612.171	25099.9
612.367	25132.67
612.562	25009.79
612.758	24868.48
612.953	24176.27
613.149	25118.34
613.344	24381.07
613.539	25099.9
613.735	24772.23
613.93	24639.11
614.126	24247.95
614.321	24678.02
614.517	24516.23
614.712	24458.89
614.907	24065.68
615.103	24319.63
615.298	24186.51
615.493	24327.82
615.688	23946.9
615.884	24452.75
616.079	24102.54
616.274	24368.78
616.47	23834.26
616.665	24262.29
616.86	23889.56
617.055	23979.67
617.25	23666.33
617.445	23594.65
617.641	23381.66
617.836	23891.6
618.031	23281.31
618.226	23430.81
618.421	23295.64
618.616	23465.63
618.811	22965.92
619.006	23463.58
619.201	22552.23
619.396	23287.45
619.591	22746.79
619.786	22636.2
619.981	22105.77
620.176	22660.77
620.371	22531.75
620.566	22648.49
620.761	22279.85
620.956	22228.65
621.151	22034.1
621.346	21935.79
621.541	21667.51
621.735	22046.38
621.93	21577.4
622.125	21681.85
622.32	21413.56
622.515	21669.56
622.709	21345.98
622.904	21171.9
623.099	21298.88
623.294	21155.52
623.488	20995.78
623.683	20659.91
623.878	20674.24
624.072	20553.41
624.267	20453.06
624.462	20131.53
624.656	20098.77
624.851	20426.44
625.046	20047.57
625.24	20164.3
625.435	19603.16
625.629	19586.77
625.824	19314.39
626.018	19551.96
626.213	19205.85
626.407	19347.16
626.602	19144.41
626.796	19101.4
626.991	19125.98
627.185	18978.53
627.38	18765.54
627.574	18763.49
627.768	18773.73
627.963	18489.06
628.157	18265.83
628.352	18487.01
628.546	18155.24
628.74	18290.41
628.935	18110.19
629.129	18151.15
629.323	17864.43
629.517	18050.8
629.712	17858.29
629.906	17676.02
630.1	17231.61
630.294	17460.98
630.489	17469.17
630.683	17350.39
630.877	16858.88
631.071	17086.2
631.265	16942.85
631.459	16817.92
631.653	16756.48
631.848	16914.17
632.042	16639.75
632.236	16795.39
632.43	16172.81
632.624	16502.53
632.818	16488.2
633.012	16183.05
633.206	15859.47
633.4	16172.81
633.594	15763.22
633.788	15703.82
633.982	16137.99
634.176	15896.33
634.369	15789.84
634.563	15615.76
634.757	15617.81
634.951	15505.17
635.145	15552.27
635.339	15542.03
635.533	15351.57
635.726	15083.29
635.92	14987.04
636.114	15228.7
636.308	14829.34
636.501	14751.52
636.695	14933.79
636.889	14581.54
637.083	14509.86
637.276	14516
637.47	14321.45
637.664	14499.62
637.857	14339.88
638.051	14286.63
638.244	14110.5
638.438	14032.68
638.632	13934.38
638.825	13860.65
639.019	13743.92
639.212	13516.59
639.406	13848.36
639.599	13582.13
639.793	13410.1
639.986	13365.04
640.18	13518.64
640.373	13256.5
640.567	12986.17
640.76	13256.5
640.954	13090.62
641.147	12898.11
641.34	12943.16
641.534	12945.21
641.727	12879.68
641.92	12767.04
642.114	13057.85
642.307	12572.48
642.5	12506.95
642.694	12304.2
642.887	12226.37
643.08	12445.51
643.273	12228.42
643.467	12183.37
643.66	12031.82
643.853	12031.82
644.046	11824.97
644.239	12080.97
644.432	11761.48
644.626	11763.53
644.819	11749.2
645.012	11763.53
645.205	11630.41
645.398	11554.64
645.591	11468.62
645.784	11532.11
645.977	11489.1
646.17	11198.29
646.363	11071.32
646.556	11136.85
646.749	11052.89
646.942	11108.18
647.135	10999.64
647.328	11056.98
647.521	10897.24
647.714	10686.3
647.907	10970.97
648.099	10680.16
648.292	10608.48
648.485	10878.81
648.678	10499.94
648.871	10700.64
649.064	10327.91
649.256	10413.92
649.449	10297.19
649.642	10317.67
649.835	10211.17
650.027	10178.4
650.22	10108.77
650.413	10176.36
650.605	10088.29
650.798	10043.24
650.991	9711.47
651.183	9736.04
651.376	9781.1
651.568	9924.46
651.761	9731.95
651.954	9654.12
652.146	9588.59
652.339	9527.15
652.531	9502.58
652.724	9232.24
652.916	9303.92
653.109	9353.07
653.301	9291.63
653.494	9357.17
653.686	9226.1
653.879	9277.3
654.071	9123.7
654.263	9004.92
654.456	8974.2
654.648	9078.65
654.84	8816.51
655.033	8875.9
655.225	9021.3
655.417	8847.23
655.61	8976.25
655.802	8791.93
655.994	8621.95
656.186	8744.83
656.379	8517.5
656.571	8427.39
656.763	8566.65
656.955	8568.7
657.148	8605.56
657.34	8206.21
657.532	8306.56
657.724	8431.49
657.916	8253.31
658.108	8177.54
658.3	8025.99
658.492	8161.16
658.684	8073.09
658.876	7933.83
659.068	7907.21
659.26	7843.72
659.452	8030.09
659.644	7843.72
659.836	7804.81
660.028	7849.86
660.22	7862.15
660.412	7700.36
660.604	7602.06
660.796	7774.09
660.988	7393.17
661.18	7573.39
661.372	7491.47
661.563	7518.09
661.755	7430.03
661.947	7266.19
662.139	7458.7
662.331	7440.27
662.522	7358.35
662.714	7370.64
662.906	7274.38
663.097	7180.18
663.289	7231.38
663.481	7188.37
663.673	7206.8
663.864	6975.38
664.056	6891.41
664.247	6934.42
664.439	6739.87
664.631	7034.77
664.822	6776.73
665.014	6696.86
665.205	6827.93
665.397	6821.78
665.588	6827.93
665.78	6676.38
665.971	6690.71
666.163	6635.42
666.354	6725.53
666.546	6588.32
666.737	6592.41
666.929	6584.22
667.12	6576.03
667.311	6449.05
667.503	6459.29
667.694	6434.72
667.885	6397.85
668.077	6428.57
668.268	6354.85
668.459	6393.76
668.651	6279.07
668.842	6209.44
669.033	6305.7
669.224	6309.79
669.416	6211.49
669.607	6004.64
669.798	5935.01
669.989	6090.66
670.18	6059.94
670.371	6061.99
670.563	6066.08
670.754	6129.57
670.945	6004.64
671.136	6158.24
671.327	6074.28
671.518	5963.68
671.709	5971.88
671.9	5988.26
672.091	5932.97
672.282	5859.24
672.473	5922.73
672.664	5894.05
672.855	5871.53
673.046	5846.95
673.237	6086.56
673.428	5666.73
673.619	5887.91
673.809	5732.26
674	5797.8
674.191	5769.13
674.382	5818.28
674.573	5799.85
674.764	5617.58
674.954	5656.49
675.145	5593
675.336	5633.96
675.527	5558.19
675.717	5396.4
675.908	5662.63
676.099	5672.87
676.289	5607.34
676.48	5500.84
676.671	5466.03
676.861	5533.61
677.052	5472.17
677.243	5294
677.433	5564.33
677.624	5373.87
677.814	5414.83
678.005	5386.16
678.195	5414.83
678.386	5486.51
678.576	5423.02
678.767	5441.45
678.957	5218.22
679.148	5279.66
679.338	5332.91
679.529	5386.16
679.719	5240.75
679.909	5455.79
680.1	5332.91
680.29	5175.22
680.481	5121.97
680.671	5339.05
680.861	5173.17
681.052	5373.87
681.242	5263.28
681.432	5375.92
681.622	5121.97
681.813	5164.98
682.003	5255.09
682.193	5074.87
682.383	5298.1
682.573	5154.74
682.764	5226.42
682.954	5296.05
683.144	5289.9
683.334	5160.88
683.524	5250.99
683.714	5031.86
683.904	5152.69
684.094	5089.2
684.284	5050.29
684.474	5033.91
684.664	5115.83
684.854	5224.37
685.044	5027.76
685.234	4966.32
685.424	5078.96
685.614	4980.66
685.804	5017.52
685.994	4921.27
686.184	5013.43
686.374	5003.19
686.564	4988.85
686.753	4845.49
686.943	4747.19
687.133	4900.79
687.323	4853.69
687.513	4964.28
687.702	4685.75
687.892	4710.33
688.082	4900.79
688.272	4870.07
688.461	4745.14
688.651	4663.22
688.841	4804.53
689.03	4796.34
689.22	4573.11
689.41	4620.22
689.599	4736.95
689.789	4618.17
689.979	4659.13
690.168	4556.73
690.358	4499.39
690.547	4444.09
690.737	4517.82
690.926	4468.67
691.116	4483
691.305	4495.29
691.495	4401.08
691.684	4517.82
691.874	4446.14
692.063	4386.75
692.252	4415.42
692.442	4214.72
692.631	4411.32
692.82	4331.45
693.01	4255.68
693.199	3983.3
693.388	4186.05
693.578	4214.72
693.767	4360.13
693.956	4341.69
694.146	4173.76
694.335	4212.67
694.524	4214.72
694.713	4194.24
694.902	4136.9
695.092	4089.79
695.281	4149.18
695.47	4179.9
695.659	4214.72
695.848	4218.82
696.037	4052.93
696.226	4145.09
696.415	4069.31
696.604	3983.3
696.793	4009.92
696.982	3948.48
697.171	4038.59
697.36	4048.83
697.549	3876.8
697.738	3973.06
697.927	3997.63
698.116	4018.11
698.305	3948.48
698.494	4114.37
698.683	3995.59
698.872	3915.72
699.061	3964.87
699.25	3960.77
699.438	3960.77
699.627	4050.88
699.816	3956.68
700.005	3885
700.193	3899.33
700.382	3997.63
700.571	3903.43
700.76	3876.8
700.948	3958.72
701.137	3936.2
701.326	3891.14
701.514	3925.96
701.703	3925.96
701.892	3917.76
702.08	3794.89
702.269	3866.56
702.457	3917.76
702.646	3940.29
702.834	3770.31
703.023	3813.32
703.212	3846.09
703.4	3807.17
703.589	3794.89
703.777	3870.66
703.965	3874.76
704.154	3917.76
704.342	3882.95
704.531	3854.28
704.719	3811.27
704.907	3811.27
705.096	3782.6
705.284	3805.13
705.472	3827.65
705.661	3753.93
705.849	3725.26
706.037	3983.3
706.226	3764.17
706.414	3880.9
706.602	3690.44
706.79	4001.73
706.979	3844.04
707.167	3755.97
707.355	3729.35
707.543	3719.11
707.731	3846.09
707.919	3860.42
708.107	3803.08
708.296	3778.5
708.484	3583.95
708.672	3776.45
708.86	3813.32
709.048	3682.25
709.236	3721.16
709.424	3772.36
709.612	3801.03
709.8	3719.11
709.988	3829.7
710.176	3739.59
710.364	3790.79
710.551	3911.62
710.739	3696.58
710.927	3848.13
711.115	3676.1
711.303	3774.41
711.491	3880.9
711.679	3772.36
711.866	3907.52
712.054	3837.89
712.242	3753.93
712.43	3852.23
712.617	3815.37
712.805	3764.17
712.993	3659.72
713.181	3719.11
713.368	3758.02
713.556	3774.41
713.744	3764.17
713.931	3772.36
714.119	3622.86
714.306	3745.73
714.494	3710.92
714.682	3813.32
714.869	3614.66
715.057	3717.06
715.244	3676.1
715.432	3727.3
715.619	3674.06
715.807	3690.44
715.994	3817.41
716.182	3749.83
716.369	3854.28
716.556	3764.17
716.744	3631.05
716.931	3696.58
717.119	3825.61
717.306	3860.42
717.493	3694.54
717.681	3629
717.868	3817.41
718.055	3655.62
718.242	3637.19
718.43	3641.29
718.617	3641.29
718.804	3829.7
718.991	3770.31
719.179	3798.98
719.366	3796.93
719.553	3803.08
719.74	3663.82
719.927	3635.14
720.114	3694.54
720.301	3741.64
720.488	3686.34
720.676	3739.59
720.863	3616.71
721.05	3665.86
721.237	3616.71
721.424	3751.88
721.611	3620.81
721.798	3665.86
721.985	3741.64
722.172	3729.35
722.358	3637.19
722.545	3819.46
722.732	3577.8
722.919	3672.01
723.106	3600.33
723.293	3712.97
723.48	3569.61
723.667	3805.13
723.853	3620.81
724.04	3739.59
724.227	3661.77
724.414	3649.48
724.6	3735.49
724.787	3680.2
724.974	3622.86
725.161	3596.23
725.347	3581.9
725.534	3600.33
725.72	3620.81
725.907	3567.56
726.094	3610.57
726.28	3602.38
726.467	3510.22
726.653	3663.82
726.84	3665.86
727.027	3610.57
727.213	3610.57
727.4	3657.67
727.586	3555.27
727.773	3669.96
727.959	3669.96
728.145	3633.1
728.332	3512.27
728.518	3551.18
728.705	3600.33
728.891	3534.79
729.077	3629
729.264	3651.53
729.45	3487.69
729.636	3583.95
729.823	3497.93
730.009	3526.6
730.195	3452.88
730.382	3565.51
730.568	3649.48
730.754	3528.65
730.94	3598.28
731.126	3381.2
731.313	3592.14
731.499	3459.02
731.685	3465.16
731.871	3571.66
732.057	3588.04
732.243	3639.24
732.429	3553.23
732.615	3604.42
732.801	3581.9
732.987	3510.22
733.173	3467.21
733.359	3518.41
733.545	3510.22
733.731	3409.87
733.917	3557.32
734.103	3393.48
734.289	3430.35
734.475	3502.03
734.661	3575.75
734.847	3403.72
735.033	3461.07
735.219	3452.88
735.404	3370.96
735.59	3346.38
735.776	3360.72
735.962	3448.78
736.148	3416.01
736.333	3366.86
736.519	3409.87
736.705	3383.24
736.89	3377.1
737.076	3362.76
737.262	3299.28
737.447	3270.61
737.633	3289.04
737.819	3446.73
738.004	3289.04
738.19	3307.47
738.375	3291.09
738.561	3223.5
738.747	3205.07
738.932	3342.28
739.118	3332.05
739.303	3327.95
739.489	3338.19
739.674	3223.5
739.859	3178.45
740.045	3194.83
740.23	3223.5
740.416	3080.14
740.601	3104.72
740.786	3145.68
740.972	3256.27
741.157	3172.3
741.342	3123.15
741.528	3184.59
741.713	3184.59
741.898	3080.14
742.084	3131.34
742.269	3024.85
742.454	3076.05
742.639	3057.62
742.824	2969.55
743.01	2965.46
743.195	3076.05
743.38	2977.75
743.565	3047.38
743.75	2985.94
743.935	2965.46
744.12	2998.23
744.305	2985.94
744.49	2944.98
744.675	2887.64
744.86	3000.27
745.045	2961.36
745.23	3006.42
745.415	2793.43
745.6	2879.44
745.785	2797.53
745.97	2826.2
746.155	2848.72
746.34	2891.73
746.525	2881.49
746.71	2803.67
746.895	2674.65
747.079	2705.37
747.264	2725.85
747.449	2723.8
747.634	2723.8
747.819	2748.37
748.003	2688.98
748.188	2537.43
748.373	2670.55
748.557	2547.67
748.742	2529.24
748.927	2611.16
749.111	2654.17
749.296	2510.81
749.481	2514.91
749.665	2506.71
749.85	2428.89
750.034	2400.22
750.219	2365.4
750.404	2320.35
750.588	2412.51
750.773	2420.7
750.957	2389.98
751.141	2371.55
751.326	2385.88
751.51	2402.27
751.695	2187.23
751.879	2314.2
752.064	2314.2
752.248	2172.89
752.432	2367.45
752.617	2283.49
752.801	2260.96
752.985	2111.46
753.17	2248.67
753.354	2076.64
753.538	2144.22
753.722	2037.73
753.907	2058.21
754.091	2070.5
754.275	2009.06
754.459	1959.91
754.643	2009.06
754.828	2088.93
755.012	1966.05
755.196	2066.4
755.38	2019.3
755.564	1869.8
755.748	1984.48
755.932	2004.96
756.116	2019.3
756.3	1988.58
756.484	1953.76
756.668	1964
756.852	1923.04
757.036	1908.71
757.22	1806.31
757.404	1933.28
757.588	1755.11
757.772	1832.93
757.956	1738.73
758.14	1759.21
758.323	1808.36
758.507	1683.43
758.691	1787.88
758.875	1695.72
759.059	1732.58
759.242	1714.15
759.426	1746.92
759.61	1708.01
759.794	1683.43
759.977	1691.62
760.161	1902.56
760.345	1699.81
760.528	1621.99
760.712	1675.24
760.895	1544.17
761.079	1634.28
761.263	1531.88
761.446	1581.03
761.63	1665
761.813	1581.03
761.997	1474.54
762.18	1464.3
762.364	1544.17
762.547	1523.69
762.731	1533.93
762.914	1552.36
763.098	1468.39
763.281	1574.89
763.464	1466.35
763.648	1583.08
763.831	1507.3
764.015	1470.44
764.198	1378.28
764.381	1449.96
764.564	1431.53
764.748	1486.83
764.931	1490.92
765.114	1507.3
765.297	1521.64
765.481	1380.33
765.664	1447.91
765.847	1386.47
766.03	1433.58
766.213	1425.39
766.397	1353.71
766.58	1363.95
766.763	1343.47
766.946	1312.75
767.129	1292.27
767.312	1359.85
767.495	1286.12
767.678	1376.23
767.861	1415.15
768.044	1241.07
768.227	1400.81
768.41	1212.4
768.593	1333.23
768.776	1347.56
768.959	1341.42
769.142	1357.8
769.324	1345.52
769.507	1251.31
769.69	1370.09
769.873	1191.92
770.056	1304.56
770.239	1249.26
770.421	1282.03
770.604	1322.99
770.787	1208.3
770.97	1159.15
771.152	1191.92
771.335	1175.53
771.518	1138.67
771.7	1159.15
771.883	1261.55
772.066	1099.76
772.248	1126.38
772.431	1216.49
772.613	1124.33
772.796	1222.64
772.978	1175.53
773.161	1273.84
773.343	1079.28
773.526	1128.43
773.708	1060.85
773.891	1079.28
774.073	1130.48
774.256	1083.38
774.438	1077.23
774.621	1026.03
774.803	948.21
774.985	1099.76
775.168	991.22
775.35	995.31
775.532	1060.85
775.715	1046.51
775.897	1052.66
776.079	1116.14
776.261	1075.18
776.444	901.11
776.626	1023.98
776.808	976.88
776.99	884.72
777.173	1013.74
777.355	927.73
777.537	864.24
777.719	913.39
777.901	917.49
778.083	837.62
778.265	839.67
778.447	876.53
778.629	950.26
778.811	899.06
778.993	870.39
779.175	858.1
779.357	862.19
779.539	817.14
779.721	872.43
779.903	827.38
780.085	747.51
780.267	774.13
780.449	872.43
780.631	776.18
780.812	825.33
780.994	888.82
781.176	841.72
781.358	772.08
781.54	755.7
781.721	837.62
781.903	755.7
782.085	733.17
782.267	763.89
782.448	702.45
782.63	733.17
782.812	800.76
782.993	747.51
783.175	755.7
783.357	749.56
783.538	778.23
783.72	671.73
783.901	698.36
784.083	733.17
784.264	706.55
784.446	657.4
784.627	675.83
784.809	692.21
784.99	622.58
785.172	739.32
785.353	587.77
785.535	645.11
785.716	626.68
785.897	591.86
786.079	663.54
786.26	653.3
786.441	598.01
786.623	645.11
786.804	630.77
786.985	681.97
787.167	632.82
787.348	638.97
787.529	552.95
787.71	628.73
787.891	643.06
788.073	530.42
788.254	569.34
788.435	602.1
788.616	550.9
788.797	565.24
788.978	548.86
789.159	534.52
789.34	497.66
789.522	577.53
789.703	569.34
789.884	503.8
790.065	536.57
790.246	569.34
790.427	440.31
790.607	503.8
790.788	550.9
790.969	520.18
791.15	538.62
791.331	479.22
791.512	552.95
791.693	419.83
791.874	514.04
792.054	473.08
792.235	499.7
792.416	452.6
792.597	458.74
792.778	438.27
792.958	528.38
793.139	511.99
793.32	440.31
793.5	495.61
793.681	503.8
793.862	428.03
794.042	460.79
794.223	462.84
794.404	489.46
794.584	393.21
794.765	432.12
794.945	438.27
795.126	378.87
795.306	462.84
795.487	382.97
795.667	442.36
795.848	403.45
796.028	403.45
796.209	430.07
796.389	421.88
796.57	454.65
796.75	395.26
796.93	411.64
797.111	432.12
797.291	393.21
797.471	362.49
797.652	401.4
797.832	376.83
798.012	368.63
798.192	364.54
798.373	376.83
798.553	331.77
798.733	401.4
798.913	436.22
799.093	348.15
799.274	382.97
799.454	372.73
799.634	417.79
799.814	421.88
799.994	372.73
800.174	401.4
800.354	382.97
800.534	294.91
800.714	395.26
800.894	368.63
801.074	331.77
801.254	360.44
801.434	339.96
801.614	296.96
801.794	299
801.974	765.94
802.154	346.11
802.334	350.2
802.514	315.39
802.693	315.39
802.873	282.62
803.053	397.31
803.233	311.29
803.413	342.01
803.592	239.61
803.772	290.81
803.952	397.31
804.131	385.02
804.311	348.15
804.491	325.63
804.67	323.58
804.85	268.28
805.03	274.43
805.209	348.15
805.389	331.77
805.568	311.29
805.748	286.72
805.928	239.61
806.107	331.77
806.287	251.9
806.466	346.11
806.646	305.15
806.825	253.95
807.004	260.09
807.184	307.2
807.363	294.91
807.543	286.72
807.722	212.99
807.901	323.58
808.081	231.42
808.26	253.95
808.439	251.9
808.619	303.1
808.798	245.76
808.977	249.85
809.156	366.59
809.336	260.09
809.515	393.21
809.694	303.1
809.873	206.84
810.052	272.38
810.231	282.62
810.411	180.22
810.59	282.62
810.769	276.48
810.948	223.23
811.127	196.6
811.306	237.56
811.485	284.67
811.664	319.48
811.843	290.81
812.022	225.28
812.201	262.14
812.38	237.56
812.559	208.89
812.737	262.14
812.916	223.23
813.095	155.65
813.274	206.84
813.453	180.22
813.632	217.08
813.811	204.8
813.989	165.89
814.168	249.85
814.347	133.12
814.526	247.8
814.704	256
814.883	210.94
815.062	233.47
815.24	270.33
815.419	212.99
815.598	212.99
815.776	249.85
815.955	225.28
816.133	229.37
816.312	184.32
816.49	143.36
816.669	247.8
816.847	215.04
817.026	225.28
817.204	323.58
817.383	217.08
817.561	200.7
817.74	157.69
817.918	221.18
818.097	147.45
818.275	198.65
818.453	172.03
818.632	229.37
818.81	253.95
818.988	192.51
819.167	200.7
819.345	196.6
819.523	145.41
819.701	180.22
819.879	249.85
820.058	190.46
820.236	163.84
820.414	192.51
820.592	200.7
820.77	118.78
820.948	161.79
821.127	147.45
821.305	241.66
821.483	188.41
821.661	188.41
821.839	176.13
822.017	122.88
822.195	167.93
822.373	233.47
822.551	174.08
822.729	200.7
822.907	215.04
823.085	272.38
823.262	157.69
823.44	165.89
823.618	161.79
823.796	221.18
823.974	163.84
824.152	204.8
824.329	159.74
824.507	194.56
824.685	151.55
824.863	159.74
825.04	88.06
825.218	196.6
825.396	157.69
825.574	126.97
825.751	126.97
825.929	276.48
826.107	110.59
826.284	139.26
826.462	184.32
826.639	143.36
826.817	182.27
826.994	143.36
827.172	133.12
827.349	233.47
827.527	135.17
827.704	69.63
827.882	190.46
828.059	167.93
828.237	165.89
828.414	137.21
828.591	124.93
828.769	133.12
828.946	133.12
829.124	126.97
829.301	198.65
829.478	126.97
829.655	122.88
829.833	108.54
830.01	38.91
830.187	98.3
830.364	163.84
830.542	180.22
830.719	159.74
830.896	53.25
831.073	167.93
831.25	151.55
831.427	110.59
831.604	137.21
831.782	133.12
831.959	118.78
832.136	143.36
832.313	129.02
832.49	149.5
832.667	104.45
832.844	32.77
833.021	147.45
833.198	81.92
833.374	131.07
833.551	165.89
833.728	176.13
833.905	126.97
834.082	94.21
834.259	137.21
834.436	188.41
834.612	73.73
834.789	45.06
834.966	202.75
835.143	122.88
835.319	49.15
835.496	169.98
835.673	135.17
835.85	104.45
836.026	108.54
836.203	120.83
836.38	141.31
836.556	45.06
836.733	73.73
836.909	135.17
837.086	155.65
837.262	51.2
837.439	73.73
837.616	77.82
837.792	122.88
837.968	118.78
838.145	32.77
838.321	102.4
838.498	98.3
838.674	151.55
838.851	110.59
839.027	65.53
839.203	69.63
839.38	182.27
839.556	47.1
839.732	63.49
839.909	131.07
840.085	112.64
840.261	77.82
840.437	79.87
840.614	65.53
840.79	116.73
840.966	118.78
841.142	94.21
841.318	96.25
841.494	96.25
841.671	81.92
841.847	92.16
842.023	163.84
842.199	59.39
842.375	90.11
842.551	40.96
842.727	98.3
842.903	194.56
843.079	126.97
843.255	98.3
843.431	30.72
843.607	61.44
843.783	73.73
843.959	75.77
844.134	86.01
844.31	126.97
844.486	63.49
844.662	110.59
844.838	16.38
845.013	106.49
845.189	112.64
845.365	86.01
845.541	98.3
845.716	153.6
845.892	92.16
846.068	40.96
846.244	67.58
846.419	77.82
846.595	65.53
846.77	75.77
846.946	61.44
847.122	126.97
847.297	47.1
847.473	116.73
847.648	-47.1
847.824	43.01
847.999	51.2
848.175	59.39
848.35	69.63
848.526	122.88
848.701	149.5
848.876	86.01
849.052	28.67
849.227	98.3
849.403	90.11
849.578	79.87
849.753	151.55
849.929	49.15
850.104	32.77
850.279	-0
850.454	77.82
850.63	67.58
850.805	24.58
850.98	22.53
851.155	49.15
851.33	86.01
851.505	16.38
851.681	122.88
851.856	69.63
852.031	106.49
852.206	24.58
852.381	4.1
852.556	102.4
852.731	92.16
852.906	47.1
853.081	61.44
853.256	75.77
853.431	40.96
853.606	61.44
853.781	114.69
853.956	8.19
854.131	114.69
854.305	79.87
854.48	55.3
854.655	92.16
854.83	16.38
855.005	45.06
855.18	75.77
855.354	96.25
855.529	75.77
855.704	86.01
855.879	55.3
856.053	83.97
856.228	47.1
856.403	20.48
856.577	86.01
856.752	4.1
856.926	71.68
857.101	40.96
857.276	43.01
857.45	-24.58
857.625	36.86
857.799	110.59
857.974	116.73
858.148	24.58
858.323	94.21
858.497	55.3
858.672	-36.86
858.846	40.96
859.02	69.63
859.195	2.05
859.369	73.73
859.543	47.1
859.718	71.68
859.892	77.82
860.066	65.53
860.241	2.05
860.415	26.62
860.589	-8.19
860.763	55.3
860.938	16.38
861.112	40.96
861.286	55.3
861.46	92.16
861.634	12.29
861.808	65.53
861.982	43.01
862.157	24.58
862.331	6.14
862.505	40.96
862.679	34.82
862.853	24.58
863.027	49.15
863.201	55.3
863.375	28.67
863.549	34.82
863.722	14.34
863.896	71.68
864.07	43.01
864.244	69.63
864.418	104.45
864.592	32.77
864.766	69.63
864.939	-2.05
865.113	6.14
865.287	69.63
865.461	-24.58
865.634	40.96
865.808	30.72
865.982	32.77
866.156	-22.53
866.329	86.01
866.503	90.11
866.676	32.77
866.85	73.73
867.024	65.53
867.197	34.82
867.371	75.77
867.544	2.05
867.718	36.86
867.891	12.29
868.065	57.34
868.238	10.24
868.412	59.39
868.585	53.25
868.759	73.73
868.932	77.82
869.105	69.63
869.279	18.43
869.452	90.11
869.625	-14.34
869.799	-4.1
869.972	24.58
870.145	40.96
870.319	59.39
870.492	40.96
870.665	-6.14
870.838	-34.82
871.011	-47.1
871.185	38.91
871.358	55.3
871.531	83.97
871.704	-14.34
871.877	4.1
872.05	55.3
872.223	-32.77
872.396	43.01
872.569	36.86
872.742	12.29
872.915	22.53
873.088	-16.38
873.261	-40.96
873.434	116.73
873.607	20.48
873.78	122.88
873.953	-36.86
874.126	43.01
874.299	49.15
874.471	22.53
874.644	40.96
874.817	30.72
874.99	-4.1
875.163	88.06
875.335	45.06
875.508	61.44
875.681	55.3
875.853	43.01
876.026	92.16
876.199	71.68
876.371	-20.48
876.544	30.72
876.717	75.77
876.889	43.01
877.062	14.34
877.234	-104.45
877.407	-22.53
877.579	47.1
877.752	-73.73
877.924	20.48
878.097	94.21
878.269	6.14
878.442	20.48
878.614	106.49
878.786	59.39
878.959	38.91
879.131	18.43
879.303	-30.72
879.476	40.96
879.648	69.63
879.82	32.77
879.993	-8.19
880.165	22.53
880.337	-22.53
880.509	20.48
880.681	-4.1
880.854	26.62
881.026	77.82
881.198	69.63
881.37	47.1
881.542	24.58
881.714	10.24
881.886	18.43
882.058	28.67
882.23	71.68
882.402	71.68
882.574	79.87
882.746	8.19
882.918	32.77
883.09	12.29
883.262	-16.38
883.434	28.67
883.606	26.62
883.778	-0
883.95	114.69
884.122	-57.34
884.293	65.53
884.465	-2.05
884.637	116.73
884.809	57.34
884.98	53.25
885.152	6.14
885.324	92.16
885.496	-4.1
885.667	83.97
885.839	2.05
886.011	28.67
886.182	30.72
886.354	36.86
886.525	4.1
886.697	14.34
886.869	51.2
887.04	-4.1
887.212	-43.01
887.383	61.44
887.555	-38.91
887.726	92.16
887.897	57.34
888.069	-6.14
888.24	63.49
888.412	-10.24
888.583	81.92
888.754	-4.1
888.926	-4.1
889.097	81.92
889.268	14.34
889.44	100.35
889.611	24.58
889.782	-0
889.953	-2.05
890.125	69.63
890.296	-71.68
890.467	-22.53
890.638	47.1
890.809	-57.34
890.98	-20.48
891.151	71.68
891.323	18.43
891.494	-20.48
891.665	38.91
891.836	20.48
892.007	43.01
892.178	65.53
892.349	53.25
892.52	34.82
892.691	-14.34
892.862	90.11
893.032	81.92
893.203	-24.58
893.374	34.82
893.545	4.1
893.716	-0
893.887	-26.62
894.057	71.68
894.228	10.24
894.399	-14.34
894.57	4.1
894.74	49.15
894.911	73.73
895.082	96.25
895.253	-6.14
895.423	-24.58
895.594	30.72
895.764	20.48
895.935	16.38
896.106	12.29
896.276	40.96
896.447	12.29
896.617	8.19
896.788	28.67
896.958	34.82
897.129	8.19
897.299	26.62
897.47	65.53
897.64	88.06
897.81	22.53
897.981	-22.53
898.151	10.24
898.322	-10.24
898.492	4.1
898.662	-34.82
898.832	-10.24
899.003	2.05
899.173	24.58
899.343	53.25
899.513	-0
