Data from USB4F104151__104__10-24-45-367.txt Node

Date: Wed Mar 12 10:24:45 EDT 2025
User: louis
Spectrometer: USB4F10415
Trigger mode: 4
Integration Time (sec): 3.000000E-2
Scans to average: 1
Electric dark correction enabled: true
Nonlinearity correction enabled: false
Boxcar width: 0
XAxis mode: Wavelengths
Number of Pixels in Spectrum: 3648
>>>>>Begin Spectral Data<<<<<
178.204	-74.75
178.424	-74.75
178.644	-74.75
178.864	-113.66
179.084	-105.47
179.304	-50.18
179.524	-70.65
179.744	31.74
179.964	9.22
180.184	-15.36
180.404	66.56
180.624	-44.03
180.844	11.26
181.064	23.55
181.283	-23.55
181.503	-15.36
181.723	76.8
181.943	-13.31
182.163	33.79
182.383	-54.27
182.602	9.22
182.822	37.89
183.042	48.13
183.262	-17.41
183.482	29.7
183.701	-7.17
183.921	-9.22
184.141	25.6
184.361	7.17
184.58	33.79
184.8	111.61
185.02	-25.6
185.239	58.37
185.459	31.74
185.679	1.02
185.898	-39.94
186.118	9.22
186.338	-31.74
186.557	-17.41
186.777	33.79
186.997	-25.6
187.216	39.94
187.436	7.17
187.655	37.89
187.875	17.41
188.095	33.79
188.314	125.95
188.534	39.94
188.753	21.5
188.973	3.07
189.192	70.65
189.412	15.36
189.631	54.27
189.851	11.26
190.07	62.46
190.29	50.18
190.509	62.46
190.729	-11.26
190.948	56.32
191.168	154.62
191.387	33.79
191.607	-23.55
191.826	3.07
192.045	13.31
192.265	-9.22
192.484	-3.07
192.704	-39.94
192.923	-19.46
193.142	58.37
193.362	66.56
193.581	78.85
193.8	-7.17
194.02	13.31
194.239	7.17
194.458	56.32
194.678	7.17
194.897	-11.26
195.116	-41.98
195.335	41.98
195.555	-5.12
195.774	17.41
195.993	64.51
196.212	-48.13
196.432	3.07
196.651	99.33
196.87	-1.02
197.089	113.66
197.308	99.33
197.528	11.26
197.747	-13.31
197.966	-3.07
198.185	68.61
198.404	19.46
198.623	29.7
198.842	37.89
199.062	58.37
199.281	17.41
199.5	25.6
199.719	15.36
199.938	-33.79
200.157	13.31
200.376	-41.98
200.595	119.81
200.814	62.46
201.033	7.17
201.252	-3.07
201.471	39.94
201.69	41.98
201.909	23.55
202.128	37.89
202.347	5.12
202.566	68.61
202.785	3.07
203.004	3.07
203.223	128
203.442	21.5
203.661	-5.12
203.879	-7.17
204.098	54.27
204.317	31.74
204.536	62.46
204.755	-3.07
204.974	-3.07
205.193	46.08
205.411	58.37
205.63	5.12
205.849	84.99
206.068	-1.02
206.287	-35.84
206.505	50.18
206.724	35.84
206.943	5.12
207.162	44.03
207.381	-9.22
207.599	-15.36
207.818	-9.22
208.037	31.74
208.255	17.41
208.474	3.07
208.693	1.02
208.911	109.57
209.13	9.22
209.349	21.5
209.567	48.13
209.786	5.12
210.005	-23.55
210.223	70.65
210.442	-68.61
210.661	19.46
210.879	-52.22
211.098	5.12
211.316	54.27
211.535	41.98
211.753	-11.26
211.972	23.55
212.191	3.07
212.409	76.8
212.628	15.36
212.846	37.89
213.065	48.13
213.283	70.65
213.502	-31.74
213.72	13.31
213.938	58.37
214.157	48.13
214.375	25.6
214.594	9.22
214.812	9.22
215.031	39.94
215.249	-1.02
215.467	15.36
215.686	58.37
215.904	74.75
216.122	17.41
216.341	134.14
216.559	50.18
216.778	54.27
216.996	37.89
217.214	62.46
217.432	46.08
217.651	-39.94
217.869	-39.94
218.087	74.75
218.306	-41.98
218.524	64.51
218.742	50.18
218.96	54.27
219.179	9.22
219.397	35.84
219.615	25.6
219.833	-27.65
220.051	-3.07
220.27	54.27
220.488	33.79
220.706	-25.6
220.924	9.22
221.142	-31.74
221.36	101.37
221.578	-3.07
221.796	41.98
222.015	48.13
222.233	29.7
222.451	70.65
222.669	-48.13
222.887	78.85
223.105	-37.89
223.323	7.17
223.541	-7.17
223.759	52.22
223.977	-3.07
224.195	136.19
224.413	54.27
224.631	37.89
224.849	-11.26
225.067	70.65
225.285	-15.36
225.503	-11.26
225.721	-50.18
225.939	-33.79
226.157	66.56
226.375	66.56
226.592	-17.41
226.81	56.32
227.028	11.26
227.246	48.13
227.464	15.36
227.682	37.89
227.9	-39.94
228.117	70.65
228.335	5.12
228.553	23.55
228.771	15.36
228.989	58.37
229.206	82.94
229.424	-46.08
229.642	3.07
229.86	31.74
230.077	-11.26
230.295	-17.41
230.513	29.7
230.731	17.41
230.948	46.08
231.166	54.27
231.384	21.5
231.601	-13.31
231.819	50.18
232.037	-9.22
232.254	23.55
232.472	41.98
232.689	50.18
232.907	48.13
233.125	64.51
233.342	35.84
233.56	-66.56
233.777	-3.07
233.995	-70.65
234.213	95.23
234.43	25.6
234.648	1.02
234.865	-56.32
235.083	60.42
235.3	31.74
235.518	15.36
235.735	74.75
235.953	72.7
236.17	-27.65
236.388	89.09
236.605	41.98
236.822	76.8
237.04	52.22
237.257	37.89
237.475	-52.22
237.692	48.13
237.909	44.03
238.127	-52.22
238.344	9.22
238.562	-19.46
238.779	9.22
238.996	1.02
239.214	82.94
239.431	-19.46
239.648	-33.79
239.865	-11.26
240.083	39.94
240.3	87.04
240.517	-44.03
240.735	13.31
240.952	68.61
241.169	66.56
241.386	1.02
241.603	62.46
241.821	9.22
242.038	41.98
242.255	-15.36
242.472	-41.98
242.689	-7.17
242.907	41.98
243.124	25.6
243.341	64.51
243.558	-25.6
243.775	-9.22
243.992	-27.65
244.209	66.56
244.426	21.5
244.643	9.22
244.86	-17.41
245.078	37.89
245.295	33.79
245.512	-27.65
245.729	-25.6
245.946	33.79
246.163	136.19
246.38	19.46
246.597	15.36
246.814	27.65
247.031	-25.6
247.248	29.7
247.464	93.18
247.681	1.02
247.898	-62.46
248.115	-9.22
248.332	-72.7
248.549	21.5
248.766	87.04
248.983	5.12
249.2	52.22
249.417	44.03
249.633	7.17
249.85	-7.17
250.067	-5.12
250.284	35.84
250.501	68.61
250.717	17.41
250.934	109.57
251.151	17.41
251.368	99.33
251.585	52.22
251.801	21.5
252.018	48.13
252.235	-23.55
252.451	-15.36
252.668	19.46
252.885	23.55
253.102	13.31
253.318	-21.5
253.535	-1.02
253.752	-27.65
253.968	-23.55
254.185	74.75
254.401	-23.55
254.618	-19.46
254.835	74.75
255.051	-17.41
255.268	5.12
255.484	11.26
255.701	17.41
255.917	64.51
256.134	-5.12
256.351	-17.41
256.567	-9.22
256.784	-15.36
257	-5.12
257.217	58.37
257.433	23.55
257.65	105.47
257.866	74.75
258.082	21.5
258.299	-56.32
258.515	15.36
258.732	44.03
258.948	31.74
259.165	50.18
259.381	-15.36
259.597	-39.94
259.814	33.79
260.03	-11.26
260.246	9.22
260.463	54.27
260.679	48.13
260.895	50.18
261.112	66.56
261.328	33.79
261.544	-21.5
261.761	111.61
261.977	39.94
262.193	-64.51
262.409	48.13
262.626	17.41
262.842	-15.36
263.058	-13.31
263.274	29.7
263.49	76.8
263.707	25.6
263.923	-41.98
264.139	91.13
264.355	13.31
264.571	-17.41
264.787	15.36
265.004	64.51
265.22	3.07
265.436	-17.41
265.652	-44.03
265.868	62.46
266.084	25.6
266.3	56.32
266.516	-11.26
266.732	56.32
266.948	54.27
267.164	-5.12
267.38	35.84
267.596	95.23
267.812	39.94
268.028	58.37
268.244	-1.02
268.46	64.51
268.676	50.18
268.892	56.32
269.108	-72.7
269.324	-11.26
269.54	31.74
269.756	78.85
269.972	56.32
270.188	-3.07
270.403	17.41
270.619	-7.17
270.835	35.84
271.051	52.22
271.267	-35.84
271.483	-39.94
271.698	44.03
271.914	-23.55
272.13	5.12
272.346	13.31
272.562	95.23
272.777	52.22
272.993	5.12
273.209	-35.84
273.425	72.7
273.64	-3.07
273.856	-11.26
274.072	-31.74
274.287	-41.98
274.503	62.46
274.719	-70.65
274.934	9.22
275.15	5.12
275.366	-23.55
275.581	39.94
275.797	7.17
276.012	-39.94
276.228	9.22
276.444	17.41
276.659	29.7
276.875	-80.89
277.09	7.17
277.306	15.36
277.521	64.51
277.737	7.17
277.952	21.5
278.168	84.99
278.383	89.09
278.599	58.37
278.814	41.98
279.03	50.18
279.245	58.37
279.461	-35.84
279.676	1.02
279.892	50.18
280.107	25.6
280.322	-3.07
280.538	66.56
280.753	46.08
280.969	-15.36
281.184	41.98
281.399	130.05
281.615	66.56
281.83	84.99
282.045	-15.36
282.26	-23.55
282.476	-60.42
282.691	48.13
282.906	41.98
283.122	130.05
283.337	-39.94
283.552	95.23
283.767	7.17
283.983	13.31
284.198	11.26
284.413	39.94
284.628	-54.27
284.843	33.79
285.058	-15.36
285.274	70.65
285.489	1.02
285.704	50.18
285.919	-7.17
286.134	15.36
286.349	33.79
286.564	-9.22
286.779	44.03
286.995	41.98
287.21	13.31
287.425	44.03
287.64	-17.41
287.855	50.18
288.07	-39.94
288.285	19.46
288.5	48.13
288.715	21.5
288.93	21.5
289.145	54.27
289.36	-31.74
289.575	58.37
289.79	60.42
290.004	84.99
290.219	29.7
290.434	58.37
290.649	9.22
290.864	39.94
291.079	27.65
291.294	21.5
291.509	25.6
291.724	21.5
291.938	-25.6
292.153	-11.26
292.368	11.26
292.583	21.5
292.798	21.5
293.012	13.31
293.227	-15.36
293.442	-27.65
293.657	-1.02
293.871	66.56
294.086	-31.74
294.301	97.28
294.516	80.89
294.73	9.22
294.945	48.13
295.16	37.89
295.374	50.18
295.589	105.47
295.804	-15.36
296.018	54.27
296.233	52.22
296.447	50.18
296.662	-13.31
296.877	87.04
297.091	76.8
297.306	39.94
297.52	50.18
297.735	41.98
297.949	-25.6
298.164	111.61
298.378	37.89
298.593	41.98
298.807	19.46
299.022	15.36
299.236	17.41
299.451	74.75
299.665	-62.46
299.88	-48.13
300.094	48.13
300.309	5.12
300.523	7.17
300.737	-3.07
300.952	46.08
301.166	-15.36
301.381	-68.61
301.595	21.5
301.809	97.28
302.024	41.98
302.238	3.07
302.452	56.32
302.667	58.37
302.881	33.79
303.095	56.32
303.309	50.18
303.524	48.13
303.738	-21.5
303.952	58.37
304.166	54.27
304.381	39.94
304.595	74.75
304.809	-74.75
305.023	13.31
305.237	80.89
305.452	27.65
305.666	13.31
305.88	11.26
306.094	13.31
306.308	21.5
306.522	19.46
306.736	35.84
306.95	91.13
307.164	-48.13
307.379	27.65
307.593	87.04
307.807	46.08
308.021	121.85
308.235	33.79
308.449	41.98
308.663	23.55
308.877	99.33
309.091	-7.17
309.305	44.03
309.519	9.22
309.733	58.37
309.947	-89.09
310.161	54.27
310.374	107.52
310.588	-60.42
310.802	52.22
311.016	31.74
311.23	68.61
311.444	19.46
311.658	39.94
311.872	95.23
312.085	95.23
312.299	62.46
312.513	9.22
312.727	41.98
312.941	-33.79
313.154	44.03
313.368	68.61
313.582	78.85
313.796	48.13
314.009	-7.17
314.223	17.41
314.437	-48.13
314.651	13.31
314.864	52.22
315.078	7.17
315.292	56.32
315.505	-15.36
315.719	54.27
315.933	72.7
316.146	9.22
316.36	5.12
316.573	82.94
316.787	87.04
317.001	56.32
317.214	-7.17
317.428	33.79
317.641	-17.41
317.855	54.27
318.068	95.23
318.282	70.65
318.495	76.8
318.709	48.13
318.922	9.22
319.136	87.04
319.349	58.37
319.563	-5.12
319.776	64.51
319.99	23.55
320.203	70.65
320.417	62.46
320.63	56.32
320.843	107.52
321.057	23.55
321.27	17.41
321.483	23.55
321.697	64.51
321.91	87.04
322.124	60.42
322.337	3.07
322.55	-7.17
322.763	17.41
322.977	-13.31
323.19	-13.31
323.403	35.84
323.617	-9.22
323.83	80.89
324.043	39.94
324.256	1.02
324.469	19.46
324.683	80.89
324.896	41.98
325.109	78.85
325.322	17.41
325.535	31.74
325.748	37.89
325.962	27.65
326.175	41.98
326.388	23.55
326.601	113.66
326.814	107.52
327.027	17.41
327.24	87.04
327.453	13.31
327.666	44.03
327.879	17.41
328.092	50.18
328.305	19.46
328.518	41.98
328.731	72.7
328.944	33.79
329.157	58.37
329.37	37.89
329.583	23.55
329.796	91.13
330.009	-7.17
330.222	-48.13
330.435	99.33
330.648	-31.74
330.861	-21.5
331.073	66.56
331.286	3.07
331.499	25.6
331.712	-31.74
331.925	-5.12
332.138	-27.65
332.35	54.27
332.563	-66.56
332.776	64.51
332.989	-29.7
333.202	64.51
333.414	72.7
333.627	58.37
333.84	25.6
334.053	37.89
334.265	-37.89
334.478	-29.7
334.691	25.6
334.903	23.55
335.116	-11.26
335.329	58.37
335.541	-1.02
335.754	89.09
335.966	5.12
336.179	-1.02
336.392	46.08
336.604	56.32
336.817	31.74
337.029	54.27
337.242	74.75
337.454	58.37
337.667	29.7
337.88	113.66
338.092	35.84
338.305	52.22
338.517	33.79
338.729	105.47
338.942	35.84
339.154	11.26
339.367	-35.84
339.579	68.61
339.792	33.79
340.004	-19.46
340.217	-17.41
340.429	25.6
340.641	-5.12
340.854	29.7
341.066	54.27
341.278	50.18
341.491	74.75
341.703	97.28
341.915	5.12
342.128	58.37
342.34	-5.12
342.552	37.89
342.764	17.41
342.977	5.12
343.189	54.27
343.401	50.18
343.613	-41.98
343.826	64.51
344.038	56.32
344.25	31.74
344.462	-11.26
344.674	37.89
344.886	48.13
345.099	115.71
345.311	78.85
345.523	89.09
345.735	48.13
345.947	78.85
346.159	84.99
346.371	-27.65
346.583	5.12
346.795	72.7
347.007	58.37
347.219	13.31
347.431	70.65
347.643	50.18
347.855	-19.46
348.067	78.85
348.279	-21.5
348.491	33.79
348.703	97.28
348.915	37.89
349.127	60.42
349.339	70.65
349.551	56.32
349.763	27.65
349.975	17.41
350.187	60.42
350.399	105.47
350.61	103.42
350.822	23.55
351.034	3.07
351.246	-7.17
351.458	37.89
351.669	76.8
351.881	25.6
352.093	37.89
352.305	109.57
352.517	80.89
352.728	82.94
352.94	48.13
353.152	62.46
353.363	31.74
353.575	56.32
353.787	25.6
353.999	48.13
354.21	103.42
354.422	84.99
354.633	25.6
354.845	29.7
355.057	72.7
355.268	84.99
355.48	105.47
355.692	-19.46
355.903	-72.7
356.115	52.22
356.326	-17.41
356.538	78.85
356.749	54.27
356.961	17.41
357.172	-13.31
357.384	17.41
357.595	64.51
357.807	54.27
358.018	1.02
358.23	-9.22
358.441	62.46
358.653	-7.17
358.864	-15.36
359.075	13.31
359.287	-72.7
359.498	31.74
359.709	17.41
359.921	52.22
360.132	1.02
360.344	64.51
360.555	78.85
360.766	19.46
360.977	-15.36
361.189	76.8
361.4	132.09
361.611	39.94
361.823	72.7
362.034	46.08
362.245	62.46
362.456	82.94
362.667	21.5
362.879	-39.94
363.09	-7.17
363.301	89.09
363.512	62.46
363.723	15.36
363.935	15.36
364.146	19.46
364.357	-15.36
364.568	74.75
364.779	3.07
364.99	52.22
365.201	21.5
365.412	17.41
365.623	33.79
365.834	107.52
366.045	46.08
366.256	80.89
366.467	-7.17
366.678	68.61
366.889	46.08
367.1	7.17
367.311	103.42
367.522	25.6
367.733	68.61
367.944	37.89
368.155	29.7
368.366	21.5
368.577	-3.07
368.788	-7.17
368.999	-15.36
369.209	70.65
369.42	56.32
369.631	123.9
369.842	58.37
370.053	39.94
370.264	50.18
370.474	74.75
370.685	25.6
370.896	25.6
371.107	50.18
371.317	-1.02
371.528	29.7
371.739	105.47
371.95	23.55
372.16	37.89
372.371	-27.65
372.582	-39.94
372.792	33.79
373.003	52.22
373.214	15.36
373.424	66.56
373.635	-5.12
373.846	56.32
374.056	31.74
374.267	35.84
374.477	64.51
374.688	-99.33
374.898	25.6
375.109	70.65
375.319	-56.32
375.53	105.47
375.74	54.27
375.951	80.89
376.161	15.36
376.372	80.89
376.582	5.12
376.793	15.36
377.003	-21.5
377.214	-29.7
377.424	-29.7
377.635	87.04
377.845	-3.07
378.055	82.94
378.266	-39.94
378.476	107.52
378.686	93.18
378.897	84.99
379.107	134.14
379.317	46.08
379.528	-31.74
379.738	60.42
379.948	-1.02
380.158	31.74
380.369	33.79
380.579	82.94
380.789	17.41
380.999	50.18
381.21	-76.8
381.42	37.89
381.63	58.37
381.84	25.6
382.05	74.75
382.261	62.46
382.471	70.65
382.681	-23.55
382.891	78.85
383.101	-7.17
383.311	107.52
383.521	89.09
383.731	46.08
383.941	82.94
384.151	91.13
384.361	-9.22
384.571	60.42
384.781	72.7
384.991	70.65
385.201	117.76
385.411	74.75
385.621	58.37
385.831	31.74
386.041	58.37
386.251	37.89
386.461	56.32
386.671	41.98
386.881	56.32
387.091	64.51
387.301	78.85
387.511	48.13
387.72	138.24
387.93	50.18
388.14	21.5
388.35	84.99
388.56	68.61
388.769	58.37
388.979	52.22
389.189	70.65
389.399	31.74
389.609	48.13
389.818	99.33
390.028	46.08
390.238	125.95
390.447	91.13
390.657	-7.17
390.867	13.31
391.076	41.98
391.286	78.85
391.496	87.04
391.705	5.12
391.915	95.23
392.125	99.33
392.334	50.18
392.544	70.65
392.753	50.18
392.963	33.79
393.172	111.61
393.382	-15.36
393.591	111.61
393.801	134.14
394.01	23.55
394.22	27.65
394.429	105.47
394.639	23.55
394.848	119.81
395.058	48.13
395.267	58.37
395.477	19.46
395.686	82.94
395.895	154.62
396.105	148.48
396.314	33.79
396.524	21.5
396.733	-7.17
396.942	99.33
397.152	152.57
397.361	23.55
397.57	64.51
397.78	46.08
397.989	80.89
398.198	58.37
398.407	41.98
398.617	140.29
398.826	91.13
399.035	136.19
399.244	72.7
399.453	78.85
399.663	74.75
399.872	99.33
400.081	13.31
400.29	134.14
400.499	103.42
400.708	130.05
400.917	66.56
401.127	84.99
401.336	115.71
401.545	148.48
401.754	160.77
401.963	117.76
402.172	111.61
402.381	144.38
402.59	66.56
402.799	13.31
403.008	134.14
403.217	97.28
403.426	189.44
403.635	95.23
403.844	93.18
404.053	97.28
404.262	68.61
404.471	195.58
404.68	193.53
404.888	97.28
405.097	164.86
405.306	144.38
405.515	173.05
405.724	103.42
405.933	128
406.142	211.96
406.35	154.62
406.559	150.53
406.768	171.01
406.977	168.96
407.185	189.44
407.394	205.82
407.603	115.71
407.812	222.2
408.02	201.72
408.229	263.16
408.438	254.97
408.646	162.81
408.855	214.01
409.064	267.26
409.272	230.4
409.481	238.59
409.69	275.45
409.898	242.68
410.107	242.68
410.315	269.31
410.524	224.25
410.733	332.79
410.941	304.12
411.15	265.21
411.358	357.37
411.567	349.18
411.775	349.18
411.984	330.75
412.192	357.37
412.401	334.84
412.609	394.23
412.818	449.53
413.026	396.28
413.234	455.67
413.443	418.81
413.651	523.26
413.86	404.47
414.068	525.3
414.276	545.78
414.485	498.68
414.693	586.74
414.901	605.17
415.11	599.03
415.318	635.89
415.526	721.91
415.734	662.52
415.943	678.9
416.151	764.92
416.359	656.37
416.567	721.91
416.776	783.35
416.984	824.31
417.192	861.17
417.4	828.4
417.608	826.36
417.817	848.88
418.025	977.91
418.233	1029.1
418.441	1000.43
418.649	1074.16
418.857	1039.34
419.065	1176.56
419.273	1168.37
419.481	1192.94
419.689	1297.39
419.897	1440.75
420.105	1303.53
420.313	1358.83
420.521	1424.36
420.729	1442.79
420.937	1555.43
421.145	1483.75
421.353	1670.12
421.561	1709.03
421.769	1709.03
421.977	1819.62
422.185	1782.76
422.393	1901.54
422.601	1942.5
422.809	1926.11
423.017	2096.1
423.224	2147.3
423.432	2270.17
423.64	2147.3
423.848	2358.24
424.056	2304.99
424.263	2466.78
424.471	2460.63
424.679	2624.47
424.887	2665.43
425.094	2761.69
425.302	2759.64
425.51	2888.66
425.718	3083.22
425.925	3056.59
426.133	3193.81
426.341	3257.29
426.548	3447.76
426.756	3400.65
426.964	3460.04
427.171	3693.51
427.379	3699.66
427.586	3888.07
427.794	4058.05
428.001	4275.13
428.209	4248.51
428.417	4277.18
428.624	4649.91
428.832	4617.15
429.039	4543.42
429.247	4588.47
429.454	4948.92
429.662	5469.1
429.869	4912.05
430.076	5325.74
430.284	5114.8
430.491	5280.69
430.699	5778.34
430.906	5817.26
431.114	5710.76
431.321	5876.65
431.528	6022.05
431.736	6562.72
431.943	6767.51
432.15	6601.63
432.358	6816.66
432.565	7127.96
432.772	6984.6
432.979	7168.91
433.187	7496.59
433.394	7459.73
433.601	7934.85
433.808	8065.92
434.016	8016.77
434.223	8274.82
434.43	8827.77
434.637	8649.6
434.844	9241.46
435.052	9329.52
435.259	9182.07
435.466	9421.68
435.673	9319.28
435.88	9925.48
436.087	10638.17
436.294	10361.7
436.501	10208.1
436.708	10390.37
436.915	10896.22
437.122	11021.14
437.329	11176.79
437.537	11557.71
437.743	11619.15
437.95	11639.63
438.157	12194.63
438.364	12780.35
438.571	12657.47
438.778	12540.74
438.985	13775.66
439.192	13148.98
439.399	13734.7
439.606	13501.23
439.813	14289.7
440.02	14904.09
440.227	14777.12
440.433	14658.34
440.64	14920.48
440.847	15016.73
441.054	15590.16
441.261	16161.55
441.467	16233.22
441.674	16476.93
441.881	17042.17
442.088	17181.43
442.294	16888.57
442.501	17310.46
442.708	17588.98
442.914	18430.69
443.121	19053.28
443.328	18928.35
443.534	20189.9
443.741	18830.05
443.948	19114.72
444.154	20576.97
444.361	20302.54
444.568	20732.61
444.774	20552.39
444.981	20912.83
445.187	21244.6
445.394	22055.6
445.6	21863.09
445.807	24119.95
446.013	22899.36
446.22	23237.28
446.426	24160.91
446.633	24742.53
446.839	25111.17
447.046	24343.18
447.252	25623.16
447.459	25780.85
447.665	25301.63
447.871	26524.27
448.078	27538.01
448.284	26268.27
448.491	27062.88
448.697	28140.11
448.903	28676.68
449.11	28633.68
449.316	27931.22
449.522	28801.61
449.728	29452.86
449.935	29788.73
450.141	29356.61
450.347	29917.75
450.553	29219.39
450.76	29516.35
450.966	30370.35
451.172	29848.12
451.378	31066.66
451.584	30292.53
451.791	30675.5
451.997	30921.26
452.203	31328.8
452.409	31076.9
452.615	31435.3
452.821	29837.88
453.027	29620.8
453.233	31504.93
453.44	29772.35
453.646	30300.72
453.852	30304.82
454.058	30845.48
454.264	29891.13
454.47	30546.48
454.676	29610.56
454.882	30761.51
455.088	28191.31
455.294	28482.13
455.5	29020.74
455.705	29151.81
455.911	27751
456.117	27318.88
456.323	26980.96
456.529	25551.48
456.735	26430.06
456.941	26049.14
457.147	25193.09
457.352	24742.53
457.558	24359.56
457.764	24173.2
457.97	24046.23
458.176	23292.57
458.381	23517.85
458.587	22448.81
458.793	22143.66
458.999	20986.56
459.204	22731.43
459.41	22031.02
459.616	20419.27
459.821	20660.93
460.027	20550.34
460.233	20011.73
460.438	18891.49
460.644	19501.78
460.85	18350.82
461.055	18238.19
461.261	18125.55
461.466	16952.06
461.672	16167.69
461.878	17255.16
462.083	16278.28
462.289	15915.79
462.494	15987.47
462.7	15207.19
462.905	14551.84
463.111	15358.74
463.316	15201.05
463.522	15258.39
463.727	14863.13
463.932	15078.17
464.138	14662.43
464.343	14945.05
464.549	14400.29
464.754	14900
464.959	14793.5
465.165	14508.83
465.37	14021.42
465.575	13636.4
465.781	14304.04
465.986	14248.74
466.191	13921.07
466.397	13577.01
466.602	12944.19
466.807	13628.21
467.012	13454.13
467.218	13196.09
467.423	13169.46
467.628	13443.89
467.833	13830.96
468.038	13437.75
468.244	12964.67
468.449	13241.14
468.654	13161.27
468.859	12809.02
469.064	12927.8
469.269	12483.39
469.474	12389.19
469.679	12487.49
469.885	12180.29
470.09	12350.28
470.295	12337.99
470.5	11991.88
470.705	11991.88
470.91	11735.88
471.115	11807.56
471.32	11877.19
471.525	11768.65
471.73	11244.37
471.935	11522.9
472.139	11287.38
472.344	11309.91
472.549	11037.53
472.754	10953.56
472.959	10867.55
473.164	10691.42
473.369	10478.43
473.574	10951.51
473.778	10697.56
473.983	10732.38
474.188	10615.65
474.393	10111.85
474.598	10304.35
474.802	10171.24
475.007	9958.25
475.212	10060.65
475.417	9552.75
475.621	9642.86
475.826	9626.48
476.031	9503.6
476.235	9251.7
476.44	9667.44
476.645	9116.53
476.849	9278.32
477.054	9132.92
477.259	8973.18
477.463	8967.03
477.668	9020.28
477.872	8846.2
478.077	8747.9
478.282	8479.61
478.486	8321.92
478.691	8436.61
478.895	8446.85
479.1	8418.18
479.304	8520.57
479.509	8285.06
479.713	8391.55
479.918	8246.15
480.122	7908.23
480.326	7936.9
480.531	7930.76
480.735	8201.09
480.94	7865.22
481.144	8225.67
481.348	7787.4
481.553	7883.66
481.757	7746.44
481.961	7961.48
482.166	8024.97
482.37	7988.1
482.574	7732.11
482.778	7910.28
482.983	7992.2
483.187	7803.78
483.391	7850.89
483.595	7775.11
483.8	7768.97
484.004	7748.49
484.208	7830.41
484.412	7887.75
484.616	7832.46
484.821	8000.39
485.025	7695.24
485.229	7910.28
485.433	7744.39
485.637	7660.43
485.841	7717.77
486.045	7865.22
486.249	7779.21
486.453	7771.02
486.657	7869.32
486.861	7678.86
487.065	7672.71
487.269	7777.16
487.473	7742.35
487.677	7736.2
487.881	7912.33
488.085	7725.96
488.289	7961.48
488.493	7754.63
488.697	8172.42
488.901	7766.92
489.105	7938.95
489.309	7752.59
489.512	7977.86
489.716	7947.14
489.92	7902.09
490.124	7926.66
490.328	8184.71
490.531	7785.35
490.735	7973.77
490.939	8106.88
491.143	7979.91
491.346	7873.42
491.55	8313.73
491.754	8139.65
491.958	8196.99
492.161	8199.04
492.365	8340.35
492.569	8258.43
492.772	8319.87
492.976	8422.27
493.18	8414.08
493.383	8399.74
493.587	8487.81
493.79	8727.42
493.994	8520.57
494.197	8807.29
494.401	8737.66
494.605	8735.61
494.808	8838.01
495.012	8874.87
495.215	8801.15
495.419	9151.35
495.622	9022.33
495.825	9141.11
496.029	9192.31
496.232	9407.34
496.436	9306.99
496.639	9532.27
496.843	9528.17
497.046	9689.96
497.249	9802.6
497.453	9843.56
497.656	10007.4
497.859	10001.26
498.063	10201.96
498.266	10279.78
498.469	10171.24
498.673	10410.85
498.876	10513.25
499.079	10699.61
499.282	10652.51
499.485	10879.83
499.689	10750.81
499.892	11113.3
500.095	11051.86
500.298	11361.11
500.501	11352.91
500.705	11586.38
500.908	11615.05
501.111	11944.78
501.314	11811.66
501.517	11922.25
501.72	12067.66
501.923	12106.57
502.126	12596.03
502.329	12780.35
502.532	12636.99
502.735	12770.11
502.938	12892.99
503.141	13208.37
503.344	13329.2
503.547	13445.94
503.75	13587.25
503.953	13808.43
504.156	13863.72
504.359	14183.21
504.562	14138.15
504.765	14318.37
504.968	14463.78
505.17	14576.42
505.373	14703.39
505.576	15088.41
505.779	15139.61
505.982	15428.37
506.185	15637.27
506.387	15639.31
506.59	15776.53
506.793	15850.25
506.996	16020.24
507.198	16440.07
507.401	16196.36
507.604	16628.48
507.807	16952.06
508.009	16984.83
508.212	17275.64
508.415	17009.4
508.617	17558.26
508.82	17605.36
509.022	17707.76
509.225	18033.39
509.428	18217.71
509.63	18225.9
509.833	18438.89
510.035	18961.12
510.238	18711.27
510.44	18989.79
510.643	19198.68
510.845	19395.29
511.048	19387.1
511.25	19784.4
511.453	20101.84
511.655	20656.84
511.858	20308.68
512.06	20435.66
512.262	20558.53
512.465	20591.3
512.667	21197.5
512.87	21299.9
513.072	21603
513.274	22059.7
513.477	22352.55
513.679	22235.82
513.881	22647.46
514.084	22672.04
514.286	22530.73
514.488	22858.4
514.69	23517.85
514.893	23345.82
515.095	23687.83
515.297	23937.68
515.499	24146.58
515.701	24629.9
515.904	24406.67
516.106	25113.22
516.308	25248.38
516.51	25531
516.712	25238.14
516.914	25770.61
517.116	26139.25
517.318	26184.3
517.52	26331.76
517.722	26376.81
517.925	27001.44
518.127	27449.95
518.329	27374.17
518.531	27247.2
518.733	27687.51
518.935	28099.16
519.136	27923.03
519.338	28285.52
519.54	28586.57
519.742	28918.34
519.944	28807.75
520.146	29749.82
520.348	29645.37
520.55	29801.02
520.752	30147.12
520.954	30607.92
521.155	30300.72
521.357	30845.48
521.559	31156.77
521.761	31486.5
521.963	31513.12
522.164	31918.62
522.366	31744.54
522.568	32012.82
522.77	32670.22
522.971	32770.57
523.173	32569.87
523.375	33100.29
523.576	33128.97
523.778	33350.15
523.98	33610.24
524.181	33829.37
524.383	33675.77
524.584	34658.8
524.786	34611.7
524.988	34540.02
525.189	35138.02
525.391	35045.87
525.592	35295.72
525.794	35832.29
525.995	35348.96
526.197	35652.06
526.398	35957.21
526.6	36112.86
526.801	36170.2
527.003	36626.9
527.204	36563.41
527.406	36860.37
527.607	36970.96
527.808	36909.52
528.01	36614.61
528.211	37073.35
528.412	37534.15
528.614	37800.38
528.815	37417.41
529.016	37994.94
529.218	37452.23
529.419	37902.78
529.62	38324.66
529.822	38117.82
530.023	38136.25
530.224	38275.51
530.425	38400.44
530.626	37738.94
530.828	37837.25
531.029	38660.53
531.23	38568.37
531.431	38384.05
531.632	38638
531.833	38967.73
532.035	38799.79
532.236	38869.42
532.437	39299.5
532.638	38494.64
532.839	39000.49
533.04	39322.02
533.241	38480.31
533.442	39514.53
533.643	39217.58
533.844	38951.34
534.045	39070.12
534.246	38885.81
534.447	39342.5
534.648	39633.32
534.849	39399.85
535.05	39315.88
535.251	39657.89
535.451	39563.68
535.652	39416.23
535.853	39236.01
536.054	39864.74
536.255	39502.25
536.456	39242.15
536.657	39958.94
536.857	39459.24
537.058	39244.2
537.259	40020.38
537.46	39958.94
537.66	39487.91
537.861	40137.12
538.062	39635.36
538.263	40167.84
538.463	39610.79
538.664	39397.8
538.865	39555.49
539.065	39780.77
539.266	39442.85
539.466	39635.36
539.667	39256.49
539.868	40073.63
540.068	39676.32
540.269	39621.03
540.469	39780.77
540.67	39334.31
540.87	39391.65
541.071	39639.46
541.271	39846.3
541.472	39782.82
541.672	39575.97
541.873	39606.69
542.073	38988.21
542.274	39915.93
542.474	39598.5
542.675	39225.77
542.875	39891.36
543.075	39514.53
543.276	39082.41
543.476	40055.2
543.676	39186.86
543.877	39578.02
544.077	39563.68
544.277	39336.36
544.478	39539.11
544.678	39805.34
544.878	39528.87
545.078	39346.6
545.279	39446.95
545.479	39219.63
545.679	39885.22
545.879	39424.42
546.079	39471.53
546.28	39082.41
546.48	39242.15
546.68	39537.06
546.88	39356.84
547.08	39565.73
547.28	39483.81
547.48	39070.12
547.68	39659.94
547.88	38980.01
548.081	39637.41
548.281	39598.5
548.481	39059.88
548.681	39891.36
548.881	39463.33
549.081	39272.87
549.28	39037.36
549.48	39211.43
549.68	39459.24
549.88	39410.09
550.08	39082.41
550.28	38943.15
550.48	38988.21
550.68	39449
550.88	39211.43
551.08	38783.41
551.279	39000.49
551.479	38848.94
551.679	39080.36
551.879	39180.71
552.079	39180.71
552.278	39250.35
552.478	39414.18
552.678	38906.29
552.878	39485.86
553.077	39102.89
553.277	38603.19
553.477	39088.56
553.676	38646.19
553.876	38844.85
554.076	38916.53
554.275	38760.88
554.475	38463.93
554.674	38824.37
554.874	38676.91
555.074	38992.3
555.273	38912.43
555.473	39106.99
555.672	38519.22
555.872	38422.97
556.071	38615.47
556.271	38734.26
556.47	38144.44
556.67	37824.96
556.869	38336.95
557.068	38218.17
557.268	37861.82
557.467	38123.96
557.667	38406.58
557.866	38482.36
558.065	37994.94
558.265	38031.8
558.464	37644.74
558.663	38162.87
558.863	37419.46
559.062	38267.32
559.261	37683.65
559.461	38148.54
559.66	36956.62
559.859	37560.77
560.058	37333.45
560.258	37489.09
560.457	37175.75
560.656	37398.98
560.855	37222.86
561.054	37038.54
561.253	36882.89
561.453	37456.32
561.652	37136.84
561.851	37024.2
562.05	36751.82
562.249	36596.18
562.448	37063.11
562.647	37079.5
562.846	36784.59
563.045	36612.56
563.244	36159.96
563.443	37028.3
563.642	35803.61
563.841	36620.75
564.04	36194.78
564.239	36510.16
564.438	36086.23
564.637	36100.57
564.836	35891.68
565.035	35486.18
565.234	35779.04
565.432	35308.01
565.631	35588.58
565.83	35602.91
566.029	35041.77
566.228	35224.04
566.427	35092.97
566.625	34941.42
566.824	34626.03
567.023	35170.79
567.222	34345.46
567.42	34914.8
567.619	34759.15
567.818	34656.75
568.016	34564.59
568.215	34273.78
568.414	34318.84
568.612	34548.21
568.811	34011.64
569.01	33954.3
569.208	33296.9
569.407	33923.58
569.605	33507.84
569.804	33888.76
570.002	33253.89
570.201	33509.89
570.4	33221.13
570.598	33092.1
570.797	32795.15
570.995	33325.57
571.193	32655.89
571.392	33565.18
571.59	32594.45
571.789	32936.46
571.987	32451.09
572.186	32702.99
572.384	32270.87
572.582	32780.81
572.781	32258.58
572.979	32123.41
573.177	32297.49
573.376	32258.58
573.574	31799.83
573.772	32225.81
573.971	31701.53
574.169	32000.54
574.367	31193.64
574.565	31627.81
574.763	31679
574.962	31156.77
575.16	30738.99
575.358	31201.83
575.556	31169.06
575.754	31181.35
575.952	31091.24
576.151	31005.22
576.349	30720.56
576.547	30861.87
576.745	30601.77
576.943	30612.01
577.141	30630.44
577.339	30339.63
577.537	30169.65
577.735	30153.27
577.933	30149.17
578.131	29770.3
578.329	29774.39
578.527	29702.71
578.725	29874.74
578.923	29827.64
579.121	29360.7
579.319	29659.71
579.516	29846.07
579.714	29354.56
579.912	29172.29
580.11	29153.86
580.308	29039.17
580.506	29422.14
580.704	29094.47
580.901	28611.15
581.099	29164.1
581.297	28529.23
581.495	28758.6
581.692	28832.33
581.89	28443.21
582.088	28562
582.285	28295.76
582.483	28791.37
582.681	28240.47
582.878	28101.2
583.076	27880.02
583.274	28105.3
583.471	27578.97
583.669	27886.17
583.866	27417.18
584.064	28015.19
584.262	27433.57
584.459	27824.73
584.657	27357.79
584.854	27642.46
585.052	26847.85
585.249	27322.98
585.447	27224.67
585.644	26847.85
585.841	27005.54
586.039	27193.95
586.236	26616.43
586.434	26526.32
586.631	26516.08
586.828	26647.15
587.026	26554.99
587.223	26454.64
587.42	26661.48
587.618	26532.46
587.815	26045.04
588.012	25825.91
588.21	26061.43
588.407	26192.5
588.604	25948.79
588.801	25873.01
588.999	25754.23
589.196	25680.5
589.393	25578.11
589.59	25657.98
589.787	25512.57
589.984	25424.51
590.182	25086.59
590.379	25604.73
590.576	25170.56
590.773	25053.83
590.97	24914.56
591.167	24756.87
591.364	24621.7
591.561	24709.77
591.758	24543.88
591.955	24670.86
592.152	24955.52
592.349	24310.41
592.546	24502.92
592.743	24408.72
592.94	23851.67
593.137	24490.63
593.334	24312.46
593.531	24160.91
593.727	24031.89
593.924	24068.75
594.121	23708.31
594.318	24068.75
594.515	23722.65
594.712	23970.45
594.908	23427.74
595.105	23556.76
595.302	23294.62
595.499	23562.9
595.696	23116.45
595.892	22897.31
596.089	23104.16
596.286	23102.11
596.482	22928.03
596.679	22885.03
596.876	23071.39
597.072	22823.59
597.269	22901.41
597.466	22768.29
597.662	22669.99
597.859	22538.92
598.055	22502.06
598.252	22356.65
598.448	22360.75
598.645	22254.25
598.841	22002.35
599.038	22133.42
599.234	22059.7
599.431	22057.65
599.627	21928.63
599.824	22137.52
600.02	21760.69
600.217	21879.47
600.413	21629.62
600.609	21516.98
600.806	21486.26
601.002	21510.84
601.198	21385.91
601.395	21226.17
601.591	21260.99
601.787	21168.83
601.984	21263.04
602.18	21250.75
602.376	21064.38
602.572	20982.46
602.769	20835.01
602.965	20722.37
603.161	20875.97
603.357	20785.86
603.553	20603.59
603.75	20718.28
603.946	20347.59
604.142	20644.55
604.338	19901.14
604.534	20646.6
604.73	19909.33
604.926	20134.6
605.122	20312.78
605.318	20044.49
605.514	20075.21
605.71	19825.36
605.906	20001.49
606.102	19890.9
606.298	19966.67
606.494	19851.99
606.69	19727.06
606.886	19618.52
607.082	19493.59
607.278	19800.79
607.474	19411.67
607.67	19747.54
607.866	19102.43
608.062	19282.65
608.257	19456.73
608.453	19131.1
608.649	19268.31
608.845	19145.44
609.041	19294.94
609.236	19049.18
609.432	19067.61
609.628	18770.66
609.824	18871.01
610.019	18985.69
610.215	18727.65
610.411	19165.92
610.606	18721.51
610.802	19012.32
610.998	18674.4
611.193	18787.04
611.389	18795.23
611.584	18670.31
611.78	18350.82
611.976	18471.65
612.171	18713.31
612.367	18449.13
612.562	18305.77
612.758	18229.99
612.953	18352.87
613.149	18402.02
613.344	18176.75
613.539	18483.94
613.735	18096.88
613.93	18078.44
614.126	17724.15
614.321	18113.26
614.517	17851.12
614.712	18045.68
614.907	18023.15
615.103	17955.57
615.298	17826.54
615.493	18023.15
615.688	17394.42
615.884	17736.43
616.079	17736.43
616.274	17695.47
616.47	17527.54
616.665	17613.56
616.86	17728.24
617.055	17527.54
617.25	17392.37
617.445	17398.52
617.641	17253.11
617.836	17255.16
618.031	16907.01
618.226	17177.34
618.421	17261.3
618.616	17066.75
618.811	16872.19
619.006	17113.85
619.201	16845.57
619.396	16808.7
619.591	16548.61
619.786	16794.37
619.981	16501.51
620.176	16544.52
620.371	16349.96
620.566	16657.15
620.761	16272.14
620.956	16306.95
621.151	16161.55
621.346	16499.46
621.541	15913.74
621.735	16190.22
621.93	15858.45
622.125	16030.48
622.32	15672.08
622.515	15696.66
622.709	15418.13
622.904	15692.56
623.099	15346.45
623.294	15321.88
623.488	15430.42
623.683	15252.25
623.878	14957.34
624.072	15135.51
624.267	15061.79
624.462	15110.94
624.656	14850.85
624.851	14744.35
625.046	14648.1
625.24	14713.63
625.435	14547.75
625.629	14504.74
625.824	14586.66
626.018	14326.57
626.213	14256.93
626.407	14209.83
626.602	14058.28
626.796	13964.07
626.991	13861.68
627.185	13773.61
627.38	13720.37
627.574	13757.23
627.768	13828.91
627.963	13755.18
628.157	13314.87
628.352	13683.5
628.546	13343.54
628.74	13468.47
628.935	13124.41
629.129	13210.42
629.323	12995.39
629.517	13042.49
629.712	12884.8
629.906	12970.81
630.1	12608.32
630.294	12821.31
630.489	12849.98
630.683	12653.37
630.877	12618.56
631.071	12471.11
631.265	12493.63
631.459	12383.04
631.653	12362.56
631.848	12317.51
632.042	11948.87
632.236	12129.09
632.43	12086.09
632.624	11944.78
632.818	11979.59
633.012	11914.06
633.206	11764.56
633.4	11684.69
633.594	11469.65
633.788	11672.4
633.982	11686.73
634.176	11547.47
634.369	11387.73
634.563	11459.41
634.757	11090.77
634.951	11154.26
635.145	11227.99
635.339	11258.71
635.533	11146.07
635.726	11094.87
635.92	10996.57
636.114	10933.08
636.308	10978.14
636.501	10845.02
636.695	10705.76
636.889	10582.88
637.083	10695.52
637.276	10486.62
637.47	10433.38
637.664	10525.54
637.857	10416.99
638.051	10298.21
638.244	10156.9
638.438	10318.69
638.632	10036.07
638.825	10009.45
639.019	9884.52
639.212	9888.62
639.406	9952.1
639.599	9892.71
639.793	9851.75
639.986	9616.24
640.18	9876.33
640.373	9851.75
640.567	9395.06
640.76	9806.7
640.954	9618.29
641.147	9452.4
641.34	9380.72
641.534	9251.7
641.727	9302.9
641.92	9200.5
642.114	9237.36
642.307	9173.88
642.5	9034.61
642.694	8971.13
642.887	8964.98
643.08	9098.1
643.273	8889.21
643.467	8698.75
643.66	8901.5
643.853	8993.65
644.046	8692.6
644.239	8643.45
644.432	8582.01
644.626	8450.94
644.819	8520.57
645.012	8409.98
645.205	8371.07
645.398	8338.3
645.591	8160.13
645.784	8291.2
645.977	8149.89
646.17	8199.04
646.363	8276.87
646.556	8078.21
646.749	8004.49
646.942	8045.45
647.135	8123.27
647.328	8010.63
647.521	7885.7
647.714	7881.61
647.907	7848.84
648.099	7844.74
648.292	7834.5
648.485	7834.5
648.678	7484.3
648.871	7742.35
649.064	7660.43
649.256	7527.31
649.449	7459.73
649.642	7373.71
649.835	7404.43
650.027	7322.51
650.22	7310.22
650.413	7322.51
650.605	7455.63
650.798	7146.39
650.991	7113.62
651.183	7099.28
651.376	7027.6
651.568	7078.8
651.761	6851.48
651.954	6988.69
652.146	6894.49
652.339	6980.5
652.531	6771.61
652.724	6912.92
652.916	6693.79
653.109	6773.66
653.301	6685.59
653.494	6742.94
653.686	6595.48
653.879	6759.32
654.071	6562.72
654.263	6609.82
654.456	6550.43
654.648	6609.82
654.84	6417.31
655.033	6540.19
655.225	6368.16
655.417	6433.69
655.61	6505.37
655.802	6370.21
655.994	6265.76
656.186	6319.01
656.379	6222.75
656.571	6218.66
656.763	6349.73
656.955	6212.51
657.148	6124.45
657.34	5993.38
657.532	5960.61
657.724	6067.11
657.916	6038.44
658.108	5995.43
658.3	5856.17
658.492	6017.96
658.684	5960.61
658.876	5817.26
659.068	5731.24
659.26	5702.57
659.452	5764.01
659.644	5774.25
659.836	5747.62
660.028	5684.14
660.22	5622.7
660.412	5573.55
660.604	5481.39
660.796	5598.12
660.988	5553.07
661.18	5342.13
661.372	5469.1
661.563	5460.91
661.755	5352.37
661.947	5526.44
662.139	5397.42
662.331	5157.81
662.522	5288.88
662.714	5252.02
662.906	5252.02
663.097	5241.78
663.289	5225.39
663.481	5118.9
663.673	5149.62
663.864	5122.99
664.056	5098.42
664.247	4965.3
664.439	4991.92
664.631	5043.12
664.822	4907.96
665.014	5084.08
665.205	5045.17
665.397	4926.39
665.588	5133.23
665.78	4871.09
665.971	4744.12
666.163	4819.89
666.354	4891.57
666.546	4864.95
666.737	4887.48
666.929	4674.49
667.12	4686.78
667.311	4711.35
667.503	4664.25
667.694	4807.61
667.885	4672.44
668.077	4772.79
668.268	4801.46
668.459	4627.39
668.651	4660.15
668.842	4682.68
669.033	4651.96
669.224	4555.71
669.416	4746.17
669.607	4504.51
669.798	4500.41
669.989	4432.83
670.18	4490.17
670.371	4629.43
670.563	4355.01
670.754	4412.35
670.945	4324.29
671.136	4287.42
671.327	4316.09
671.518	4424.64
671.709	4457.4
671.9	4404.16
672.091	4506.56
672.282	4408.25
672.473	4342.72
672.664	4322.24
672.855	4309.95
673.046	4330.43
673.237	4395.96
673.428	4305.85
673.619	4162.5
673.809	4369.34
674	4271.04
674.191	4398.01
674.382	4240.32
674.573	4348.86
674.764	4314.05
674.954	4146.11
675.145	4146.11
675.336	4096.96
675.527	4314.05
675.717	4158.4
675.908	4117.44
676.099	4170.69
676.289	4150.21
676.48	4049.86
676.671	4166.59
676.861	4080.58
677.052	4074.43
677.243	4162.5
677.433	4029.38
677.624	4174.78
677.814	4056
678.005	4266.94
678.195	4166.59
678.386	4010.95
678.576	4084.67
678.767	4062.15
678.957	4096.96
679.148	4176.83
679.338	4168.64
679.529	4082.63
679.719	4121.54
679.909	4115.39
680.1	4119.49
680.29	4072.39
680.481	4139.97
680.671	4172.74
680.861	4006.85
681.052	4115.39
681.242	4127.68
681.432	4150.21
681.622	4162.5
681.813	3996.61
682.003	4080.58
682.193	3990.47
682.383	4023.23
682.573	3939.27
682.764	3996.61
682.954	4205.5
683.144	4045.76
683.334	4072.39
683.524	4107.2
683.714	4234.18
683.904	3957.7
684.094	4029.38
684.284	4010.95
684.474	3955.65
684.664	3867.59
684.854	4004.8
685.044	3924.93
685.234	4064.19
685.424	3949.51
685.614	3908.55
685.804	3900.36
685.994	4019.14
686.184	3974.08
686.374	3904.45
686.564	3902.4
686.753	3994.56
686.943	3877.83
687.133	3902.4
687.323	3730.38
687.513	3947.46
687.702	3834.82
687.892	3584.97
688.082	3828.68
688.272	3800.01
688.461	3894.21
688.651	3707.85
688.841	3630.02
689.03	3636.17
689.22	3716.04
689.41	3642.31
689.599	3658.7
689.789	3683.27
689.979	3597.26
690.168	3623.88
690.358	3644.36
690.547	3597.26
690.737	3705.8
690.926	3537.87
691.116	3533.77
691.305	3570.63
691.495	3546.06
691.684	3417.04
691.874	3562.44
692.063	3503.05
692.252	3556.3
692.442	3476.43
692.631	3388.36
692.82	3380.17
693.01	3376.08
693.199	3333.07
693.388	3419.08
693.578	3572.68
693.767	3490.76
693.956	3318.73
694.146	3386.32
694.335	3367.88
694.524	3251.15
694.713	3322.83
694.902	3249.1
695.092	3294.16
695.281	3337.17
695.47	3253.2
695.659	3275.73
695.848	3294.16
696.037	3331.02
696.226	3185.62
696.415	3181.52
696.604	3439.56
696.793	3335.12
696.982	3189.71
697.171	3169.23
697.36	3351.5
697.549	3310.54
697.738	3144.66
697.927	3161.04
698.116	3193.81
698.305	3245.01
698.494	3376.08
698.683	3181.52
698.872	3343.31
699.061	3169.23
699.25	3316.69
699.438	3161.04
699.627	3138.51
699.816	3218.38
700.005	3165.14
700.193	3066.83
700.382	3204.05
700.571	3269.58
700.76	3132.37
700.948	3101.65
701.137	3308.49
701.326	3111.89
701.514	3066.83
701.703	3138.51
701.892	3111.89
702.08	3234.77
702.269	3302.35
702.457	3068.88
702.646	3136.46
702.834	3191.76
703.023	3126.22
703.212	3199.95
703.4	3234.77
703.589	3146.7
703.777	3154.9
703.965	3103.7
704.154	3216.33
704.342	3095.5
704.531	3140.56
704.719	3142.61
704.907	3111.89
705.096	3128.27
705.284	2933.72
705.472	3122.13
705.661	3097.55
705.849	3148.75
706.037	3161.04
706.226	3189.71
706.414	3177.42
706.602	3179.47
706.79	3025.87
706.979	3099.6
707.167	3146.7
707.355	3177.42
707.543	3171.28
707.731	3079.12
707.919	3093.46
708.107	3032.02
708.296	3101.65
708.484	3029.97
708.672	3253.2
708.86	3058.64
709.048	3070.93
709.236	3070.93
709.424	3199.95
709.612	3115.98
709.8	3152.85
709.988	3054.55
710.176	3154.9
710.364	3144.66
710.551	3148.75
710.739	3185.62
710.927	3226.57
711.115	3150.8
711.303	3150.8
711.491	3113.94
711.679	3179.47
711.866	3218.38
712.054	3169.23
712.242	3167.18
712.43	3337.17
712.617	3083.22
712.805	3066.83
712.993	3093.46
713.181	3087.31
713.368	3072.98
713.556	3105.74
713.744	3214.29
713.931	3232.72
714.119	3058.64
714.306	3380.17
714.494	3142.61
714.682	3335.12
714.869	3048.4
715.057	3300.3
715.244	3132.37
715.432	3228.62
715.619	3191.76
715.807	3257.29
715.994	3154.9
716.182	3193.81
716.369	3253.2
716.556	3294.16
716.744	3265.49
716.931	3261.39
717.119	3138.51
717.306	3206.1
717.493	3210.19
717.681	3306.45
717.868	3245.01
718.055	3310.54
718.242	3179.47
718.43	3187.66
718.617	3380.17
718.804	3177.42
718.991	3193.81
719.179	3181.52
719.366	3181.52
719.553	3189.71
719.74	3226.57
719.927	3167.18
720.114	3359.69
720.301	3212.24
720.488	3193.81
720.676	3232.72
720.863	3302.35
721.05	3228.62
721.237	3195.86
721.424	3271.63
721.611	3199.95
721.798	3128.27
721.985	3253.2
722.172	3238.86
722.358	3249.1
722.545	3326.93
722.732	3179.47
722.919	3238.86
723.106	3154.9
723.293	3204.05
723.48	3103.7
723.667	3161.04
723.853	3216.33
724.04	3263.44
724.227	3150.8
724.414	3095.5
724.6	3128.27
724.787	3271.63
724.974	3228.62
725.161	3154.9
725.347	3083.22
725.534	3310.54
725.72	3179.47
725.907	3150.8
726.094	3191.76
726.28	3154.9
726.467	2970.58
726.653	3242.96
726.84	3216.33
727.027	3308.49
727.213	3113.94
727.4	3212.24
727.586	3032.02
727.773	3113.94
727.959	3167.18
728.145	3265.49
728.332	3017.68
728.518	3146.7
728.705	3136.46
728.891	3191.76
729.077	3220.43
729.264	3111.89
729.45	3294.16
729.636	3204.05
729.823	3122.13
730.009	3072.98
730.195	3056.59
730.382	3208.14
730.568	3195.86
730.754	3101.65
730.94	3210.19
731.126	3115.98
731.313	3111.89
731.499	3138.51
731.685	3046.35
731.871	3132.37
732.057	3056.59
732.243	2923.48
732.429	3310.54
732.615	3087.31
732.801	3085.26
732.987	2984.91
733.173	3261.39
733.359	3103.7
733.545	3029.97
733.731	3036.11
733.917	3115.98
734.103	3163.09
734.289	3048.4
734.475	3099.6
734.661	3210.19
734.847	3050.45
735.033	2882.52
735.219	2974.67
735.404	3011.54
735.59	2986.96
735.776	3060.69
735.962	2845.65
736.148	3050.45
736.333	3070.93
736.519	3023.83
736.705	3032.02
736.89	2954.19
737.076	3070.93
737.262	2894.8
737.447	2978.77
737.633	3038.16
737.819	2825.17
738.004	2859.99
738.19	3032.02
738.375	2900.95
738.561	2952.15
738.747	2862.04
738.932	2907.09
739.118	2986.96
739.303	2970.58
739.489	2999.25
739.674	2892.76
739.859	2855.89
740.045	2862.04
740.23	2788.31
740.416	2880.47
740.601	2808.79
740.786	2728.92
740.972	2790.36
741.157	2835.41
741.342	2716.63
741.528	2751.45
741.713	2855.89
741.898	2786.26
742.084	2616.28
742.269	2751.45
742.454	2821.08
742.639	2859.99
742.824	2753.49
743.01	2737.11
743.195	2751.45
743.38	2608.09
743.565	2728.92
743.75	2673.62
743.935	2657.24
744.12	2667.48
744.305	2714.58
744.49	2712.53
744.675	2663.38
744.86	2569.18
745.045	2556.89
745.23	2536.41
745.415	2532.31
745.6	2509.79
745.785	2491.35
745.97	2548.7
746.155	2522.07
746.34	2474.97
746.525	2493.4
746.71	2567.13
746.895	2393.05
747.079	2434.01
747.264	2321.37
747.449	2370.52
747.634	2593.75
747.819	2403.29
748.003	2251.74
748.188	2366.43
748.373	2358.24
748.557	2255.84
748.742	2221.02
748.927	2227.17
749.111	2266.08
749.296	2157.54
749.481	2356.19
749.665	2251.74
749.85	2188.25
750.034	2192.35
750.219	2204.64
750.404	2180.06
750.588	2167.77
750.773	2108.38
750.957	2083.81
751.141	2083.81
751.326	2116.58
751.51	2094.05
751.695	2048.99
751.879	2098.14
752.064	2116.58
752.248	1924.07
752.432	2079.71
752.617	1997.79
752.801	1971.17
752.985	1997.79
753.17	2008.03
753.354	1817.57
753.538	1922.02
753.722	1971.17
753.907	1934.31
754.091	1942.5
754.275	1893.35
754.459	1932.26
754.643	1809.38
754.828	1725.41
755.012	1764.33
755.196	1823.72
755.38	1846.24
755.564	1678.31
755.748	1719.27
755.932	1786.85
756.116	1752.04
756.3	1795.04
756.484	1811.43
756.668	1672.17
756.852	1625.06
757.036	1618.92
757.22	1651.69
757.404	1571.82
757.588	1598.44
757.772	1618.92
757.956	1620.97
758.14	1489.9
758.323	1506.28
758.507	1598.44
758.691	1442.79
758.875	1590.25
759.059	1596.39
759.242	1459.18
759.426	1504.23
759.61	1508.33
759.794	1524.71
759.977	1584.1
760.161	1416.17
760.345	1459.18
760.528	1401.83
760.712	1475.56
760.895	1481.71
761.079	1446.89
761.263	1436.65
761.446	1405.93
761.63	1434.6
761.813	1479.66
761.997	1369.07
762.18	1418.22
762.364	1362.92
762.547	1389.55
762.731	1321.96
762.914	1465.32
763.098	1344.49
763.281	1317.87
763.464	1315.82
763.648	1313.77
763.831	1317.87
764.015	1176.56
764.198	1270.76
764.381	1248.24
764.564	1362.92
764.748	1301.48
764.931	1319.92
765.114	1295.34
765.297	1221.61
765.481	1209.33
765.664	1160.17
765.847	1291.24
766.03	1248.24
766.213	1244.14
766.397	1184.75
766.58	1121.26
766.763	1213.42
766.946	1244.14
767.129	1244.14
767.312	1119.21
767.495	1174.51
767.678	1070.06
767.861	1190.89
768.044	1141.74
768.227	1063.92
768.41	1131.5
768.593	1137.65
768.776	1170.41
768.959	1117.17
769.142	1113.07
769.324	1117.17
769.507	1147.89
769.69	1108.98
769.873	1090.54
770.056	1131.5
770.239	1145.84
770.421	1184.75
770.604	1092.59
770.787	1008.62
770.97	1090.54
771.152	1078.26
771.335	1143.79
771.518	963.57
771.7	1088.5
771.883	1020.91
772.066	988.14
772.248	1016.82
772.431	984.05
772.613	986.1
772.796	938.99
772.978	1045.49
773.161	1000.43
773.343	990.19
773.526	1025.01
773.708	918.51
773.891	922.61
774.073	953.33
774.256	943.09
774.438	975.86
774.621	982
774.803	879.6
774.985	889.84
775.168	873.46
775.35	830.45
775.532	936.95
775.715	910.32
775.897	869.36
776.079	869.36
776.261	904.18
776.444	830.45
776.626	850.93
776.808	918.51
776.99	807.92
777.173	773.11
777.355	787.44
777.537	795.64
777.719	805.88
777.901	750.58
778.083	807.92
778.265	758.77
778.447	758.77
778.629	875.51
778.811	746.48
778.993	787.44
779.175	875.51
779.357	703.48
779.539	687.09
779.721	760.82
779.903	717.81
780.085	664.57
780.267	822.26
780.449	672.76
780.631	676.85
780.812	717.81
780.994	746.48
781.176	760.82
781.358	658.42
781.54	642.04
781.721	709.62
781.903	730.1
782.085	601.08
782.267	656.37
782.448	572.41
782.63	588.79
782.812	646.13
782.993	562.17
783.175	621.56
783.357	556.02
783.538	676.85
783.72	635.89
783.901	635.89
784.083	607.22
784.264	613.37
784.446	574.46
784.627	533.5
784.809	609.27
784.99	596.98
785.172	562.17
785.353	533.5
785.535	519.16
785.716	500.73
785.897	527.35
786.079	564.22
786.26	609.27
786.441	523.26
786.623	541.69
786.804	443.39
786.985	599.03
787.167	533.5
787.348	459.77
787.529	513.02
787.71	498.68
787.891	480.25
788.073	459.77
788.254	447.48
788.435	510.97
788.616	435.19
788.797	443.39
788.978	443.39
789.159	484.34
789.34	537.59
789.522	484.34
789.703	457.72
789.884	433.15
790.065	510.97
790.246	443.39
790.427	406.52
790.607	459.77
790.788	513.02
790.969	453.63
791.15	406.52
791.331	304.12
791.512	443.39
791.693	408.57
791.874	386.04
792.054	427
792.235	398.33
792.416	373.75
792.597	453.63
792.778	412.67
792.958	369.66
793.139	443.39
793.32	324.6
793.5	355.32
793.681	459.77
793.862	326.65
794.042	386.04
794.223	306.17
794.404	400.38
794.584	250.88
794.765	355.32
794.945	353.27
795.126	408.57
795.306	293.88
795.487	355.32
795.667	437.24
795.848	349.18
796.028	283.64
796.209	343.03
796.389	330.75
796.57	383.99
796.75	316.41
796.93	347.13
797.111	338.94
797.291	361.47
797.471	334.84
797.652	402.43
797.832	207.87
798.012	340.99
798.192	308.22
798.373	357.37
798.553	257.02
798.733	365.56
798.913	312.32
799.093	275.45
799.274	281.6
799.454	357.37
799.634	289.79
799.814	320.51
799.994	281.6
800.174	306.17
800.354	250.88
800.534	238.59
800.714	332.79
800.894	261.12
801.074	300.03
801.254	238.59
801.434	316.41
801.614	275.45
801.794	275.45
801.974	689.14
802.154	318.46
802.334	304.12
802.514	310.27
802.693	287.74
802.873	238.59
803.053	345.08
803.233	230.4
803.413	277.5
803.592	232.44
803.772	240.64
803.952	238.59
804.131	287.74
804.311	285.69
804.491	291.84
804.67	275.45
804.85	201.72
805.03	271.36
805.209	250.88
805.389	271.36
805.568	189.44
805.748	201.72
805.928	203.77
806.107	189.44
806.287	246.78
806.466	273.4
806.646	224.25
806.825	218.11
807.004	234.49
807.184	252.92
807.363	275.45
807.543	242.68
807.722	259.07
807.901	277.5
808.081	259.07
808.26	214.01
808.439	287.74
808.619	220.16
808.798	232.44
808.977	291.84
809.156	205.82
809.336	189.44
809.515	252.92
809.694	123.9
809.873	240.64
810.052	238.59
810.231	273.4
810.411	154.62
810.59	193.53
810.769	168.96
810.948	257.02
811.127	220.16
811.306	238.59
811.485	156.67
811.664	285.69
811.843	232.44
812.022	144.38
812.201	154.62
812.38	156.67
812.559	140.29
812.737	259.07
812.916	111.61
813.095	207.87
813.274	189.44
813.453	254.97
813.632	207.87
813.811	197.63
813.989	187.39
814.168	228.35
814.347	171.01
814.526	164.86
814.704	271.36
814.883	132.09
815.062	187.39
815.24	166.91
815.419	107.52
815.598	197.63
815.776	107.52
815.955	205.82
816.133	132.09
816.312	152.57
816.49	168.96
816.669	254.97
816.847	177.15
817.026	181.25
817.204	138.24
817.383	173.05
817.561	128
817.74	119.81
817.918	119.81
818.097	107.52
818.275	211.96
818.453	156.67
818.632	199.68
818.81	162.81
818.988	101.37
819.167	191.49
819.345	132.09
819.523	162.81
819.701	140.29
819.879	205.82
820.058	183.29
820.236	203.77
820.414	117.76
820.592	162.81
820.77	66.56
820.948	166.91
821.127	107.52
821.305	171.01
821.483	134.14
821.661	132.09
821.839	84.99
822.017	113.66
822.195	113.66
822.373	152.57
822.551	158.72
822.729	205.82
822.907	185.34
823.085	99.33
823.262	111.61
823.44	84.99
823.618	91.13
823.796	58.37
823.974	101.37
824.152	136.19
824.329	121.85
824.507	91.13
824.685	121.85
824.863	150.53
825.04	64.51
825.218	132.09
825.396	80.89
825.574	121.85
825.751	111.61
825.929	148.48
826.107	80.89
826.284	117.76
826.462	140.29
826.639	99.33
826.817	144.38
826.994	160.77
827.172	87.04
827.349	99.33
827.527	125.95
827.704	123.9
827.882	21.5
828.059	130.05
828.237	115.71
828.414	189.44
828.591	66.56
828.769	91.13
828.946	109.57
829.124	183.29
829.301	179.2
829.478	72.7
829.655	195.58
829.833	107.52
830.01	62.46
830.187	117.76
830.364	97.28
830.542	119.81
830.719	144.38
830.896	140.29
831.073	132.09
831.25	166.91
831.427	117.76
831.604	160.77
831.782	119.81
831.959	91.13
832.136	121.85
832.313	78.85
832.49	72.7
832.667	91.13
832.844	87.04
833.021	37.89
833.198	150.53
833.374	160.77
833.551	101.37
833.728	119.81
833.905	107.52
834.082	99.33
834.259	87.04
834.436	152.57
834.612	54.27
834.789	68.61
834.966	46.08
835.143	72.7
835.319	62.46
835.496	121.85
835.673	87.04
835.85	121.85
836.026	107.52
836.203	140.29
836.38	64.51
836.556	78.85
836.733	117.76
836.909	128
837.086	93.18
837.262	62.46
837.439	119.81
837.616	89.09
837.792	41.98
837.968	44.03
838.145	56.32
838.321	74.75
838.498	89.09
838.674	13.31
838.851	115.71
839.027	82.94
839.203	-7.17
839.38	134.14
839.556	39.94
839.732	84.99
839.909	46.08
840.085	109.57
840.261	7.17
840.437	56.32
840.614	29.7
840.79	125.95
840.966	72.7
841.142	23.55
841.318	15.36
841.494	41.98
841.671	56.32
841.847	103.42
842.023	5.12
842.199	150.53
842.375	107.52
842.551	33.79
842.727	58.37
842.903	66.56
843.079	48.13
843.255	46.08
843.431	33.79
843.607	33.79
843.783	97.28
843.959	111.61
844.134	-44.03
844.31	89.09
844.486	9.22
844.662	58.37
844.838	-7.17
845.013	29.7
845.189	95.23
845.365	78.85
845.541	107.52
845.716	50.18
845.892	99.33
846.068	109.57
846.244	-33.79
846.419	89.09
846.595	-37.89
846.77	33.79
846.946	95.23
847.122	101.37
847.297	39.94
847.473	25.6
847.648	15.36
847.824	27.65
847.999	1.02
848.175	27.65
848.35	-33.79
848.526	37.89
848.701	74.75
848.876	46.08
849.052	50.18
849.227	78.85
849.403	76.8
849.578	56.32
849.753	58.37
849.929	105.47
850.104	25.6
850.279	93.18
850.454	-39.94
850.63	107.52
850.805	74.75
850.98	103.42
851.155	-41.98
851.33	60.42
851.505	68.61
851.681	66.56
851.856	41.98
852.031	140.29
852.206	3.07
852.381	3.07
852.556	97.28
852.731	66.56
852.906	68.61
853.081	60.42
853.256	130.05
853.431	29.7
853.606	119.81
853.781	54.27
853.956	50.18
854.131	80.89
854.305	1.02
854.48	-25.6
854.655	31.74
854.83	54.27
855.005	33.79
855.18	-15.36
855.354	-1.02
855.529	48.13
855.704	58.37
855.879	89.09
856.053	-33.79
856.228	125.95
856.403	-11.26
856.577	82.94
856.752	19.46
856.926	9.22
857.101	58.37
857.276	44.03
857.45	82.94
857.625	3.07
857.799	37.89
857.974	31.74
858.148	23.55
858.323	-35.84
858.497	50.18
858.672	52.22
858.846	-48.13
859.02	-37.89
859.195	48.13
859.369	3.07
859.543	72.7
859.718	-50.18
859.892	-11.26
860.066	9.22
860.241	13.31
860.415	5.12
860.589	3.07
860.763	60.42
860.938	19.46
861.112	25.6
861.286	21.5
861.46	15.36
861.634	-3.07
861.808	39.94
861.982	1.02
862.157	46.08
862.331	31.74
862.505	-35.84
862.679	-15.36
862.853	33.79
863.027	25.6
863.201	70.65
863.375	41.98
863.549	9.22
863.722	82.94
863.896	99.33
864.07	-37.89
864.244	5.12
864.418	33.79
864.592	-7.17
864.766	78.85
864.939	37.89
865.113	-21.5
865.287	70.65
865.461	-9.22
865.634	52.22
865.808	54.27
865.982	-29.7
866.156	-3.07
866.329	-1.02
866.503	7.17
866.676	33.79
866.85	-15.36
867.024	41.98
867.197	99.33
867.371	46.08
867.544	-99.33
867.718	27.65
867.891	70.65
868.065	33.79
868.238	1.02
868.412	97.28
868.585	-31.74
868.759	-13.31
868.932	-13.31
869.105	-5.12
869.279	103.42
869.452	9.22
869.625	-21.5
869.799	15.36
869.972	-44.03
870.145	1.02
870.319	52.22
870.492	-3.07
870.665	17.41
870.838	-21.5
871.011	-50.18
871.185	31.74
871.358	21.5
871.531	50.18
871.704	-48.13
871.877	41.98
872.05	15.36
872.223	60.42
872.396	13.31
872.569	50.18
872.742	-5.12
872.915	-31.74
873.088	35.84
873.261	52.22
873.434	33.79
873.607	9.22
873.78	41.98
873.953	41.98
874.126	3.07
874.299	3.07
874.471	-9.22
874.644	-37.89
874.817	-17.41
874.99	72.7
875.163	-5.12
875.335	78.85
875.508	58.37
875.681	-39.94
875.853	-27.65
876.026	9.22
876.199	29.7
876.371	-9.22
876.544	41.98
876.717	50.18
876.889	27.65
877.062	3.07
877.234	-17.41
877.407	-46.08
877.579	3.07
877.752	103.42
877.924	-15.36
878.097	-11.26
878.269	29.7
878.442	5.12
878.614	-27.65
878.786	29.7
878.959	-41.98
879.131	25.6
879.303	-99.33
879.476	13.31
879.648	-39.94
879.82	82.94
879.993	-44.03
880.165	-31.74
880.337	-15.36
880.509	-105.47
880.681	-37.89
880.854	27.65
881.026	50.18
881.198	21.5
881.37	41.98
881.542	70.65
881.714	-7.17
881.886	19.46
882.058	21.5
882.23	9.22
882.402	37.89
882.574	9.22
882.746	54.27
882.918	74.75
883.09	58.37
883.262	-1.02
883.434	1.02
883.606	-48.13
883.778	-31.74
883.95	84.99
884.122	-19.46
884.293	84.99
884.465	-27.65
884.637	-11.26
884.809	-25.6
884.98	-5.12
885.152	9.22
885.324	29.7
885.496	11.26
885.667	-44.03
885.839	3.07
886.011	74.75
886.182	58.37
886.354	21.5
886.525	15.36
886.697	-15.36
886.869	-11.26
887.04	-23.55
887.212	-3.07
887.383	97.28
887.555	-13.31
887.726	76.8
887.897	-21.5
888.069	-66.56
888.24	3.07
888.412	-48.13
888.583	13.31
888.754	-25.6
888.926	-56.32
889.097	33.79
889.268	-93.18
889.44	-13.31
889.611	-33.79
889.782	-41.98
889.953	-9.22
890.125	-1.02
890.296	21.5
890.467	-3.07
890.638	-19.46
890.809	74.75
890.98	-7.17
891.151	17.41
891.323	11.26
891.494	19.46
891.665	13.31
891.836	-19.46
892.007	-9.22
892.178	5.12
892.349	-11.26
892.52	-27.65
892.691	33.79
892.862	9.22
893.032	15.36
893.203	-35.84
893.374	-29.7
893.545	-15.36
893.716	-54.27
893.887	-17.41
894.057	35.84
894.228	-44.03
894.399	21.5
894.57	1.02
894.74	11.26
894.911	46.08
895.082	-9.22
895.253	-25.6
895.423	-25.6
895.594	-15.36
895.764	31.74
895.935	-52.22
896.106	23.55
896.276	-19.46
896.447	1.02
896.617	58.37
896.788	9.22
896.958	87.04
897.129	15.36
897.299	-17.41
897.47	41.98
897.64	-11.26
897.81	-1.02
897.981	17.41
898.151	-44.03
898.322	48.13
898.492	-58.37
898.662	-15.36
898.832	-41.98
899.003	-23.55
899.173	1.02
899.343	15.36
899.513	-3.07
