Data from USB4F104151__292__10-42-28-782.txt Node

Date: Wed Mar 12 10:42:28 EDT 2025
User: louis
Spectrometer: USB4F10415
Trigger mode: 4
Integration Time (sec): 3.000000E-2
Scans to average: 1
Electric dark correction enabled: true
Nonlinearity correction enabled: false
Boxcar width: 0
XAxis mode: Wavelengths
Number of Pixels in Spectrum: 3648
>>>>>Begin Spectral Data<<<<<
178.204	-125.61
178.424	-125.61
178.644	-125.61
178.864	-148.14
179.084	-98.99
179.304	-17.07
179.524	-8.87
179.744	-25.26
179.964	40.28
180.184	27.99
180.404	19.8
180.624	17.75
180.844	71
181.064	-74.41
181.283	-45.74
181.503	19.8
181.723	-25.26
181.943	-82.6
182.163	120.15
182.383	-78.51
182.602	21.84
182.822	19.8
183.042	66.9
183.262	-88.75
183.482	62.8
183.701	13.65
183.921	3.41
184.141	-37.55
184.361	9.56
184.58	9.56
184.8	-6.83
185.02	-19.11
185.239	38.23
185.459	-0.68
185.679	85.33
185.898	-23.21
186.118	34.13
186.338	27.99
186.557	27.99
186.777	-10.92
186.997	-0.68
187.216	52.56
187.436	19.8
187.655	56.66
187.875	32.08
188.095	-4.78
188.314	25.94
188.534	-49.83
188.753	-45.74
188.973	-6.83
189.192	40.28
189.412	58.71
189.631	-4.78
189.851	7.51
190.07	60.76
190.29	-23.21
190.509	36.18
190.729	30.04
190.948	-4.78
191.168	128.34
191.387	19.8
191.607	-45.74
191.826	52.56
192.045	32.08
192.265	36.18
192.484	27.99
192.704	-2.73
192.923	-17.07
193.142	58.71
193.362	36.18
193.581	46.42
193.8	-6.83
194.02	99.67
194.239	-37.55
194.458	68.95
194.678	27.99
194.897	19.8
195.116	60.76
195.335	71
195.555	19.8
195.774	46.42
195.993	75.09
196.212	-25.26
196.432	13.65
196.651	3.41
196.87	73.04
197.089	85.33
197.308	42.32
197.528	-23.21
197.747	75.09
197.966	5.46
198.185	66.9
198.404	25.94
198.623	25.94
198.842	38.23
199.062	44.37
199.281	52.56
199.5	34.13
199.719	19.8
199.938	42.32
200.157	19.8
200.376	-47.79
200.595	-6.83
200.814	15.7
201.033	32.08
201.252	79.19
201.471	54.61
201.69	89.43
201.909	27.99
202.128	-8.87
202.347	-15.02
202.566	15.7
202.785	9.56
203.004	77.14
203.223	93.52
203.442	58.71
203.661	58.71
203.879	36.18
204.098	54.61
204.317	-43.69
204.536	-21.16
204.755	13.65
204.974	52.56
205.193	56.66
205.411	99.67
205.63	46.42
205.849	11.61
206.068	-47.79
206.287	32.08
206.505	34.13
206.724	34.13
206.943	3.41
207.162	13.65
207.381	-39.59
207.599	60.76
207.818	15.7
208.037	15.7
208.255	27.99
208.474	52.56
208.693	3.41
208.911	64.85
209.13	-35.5
209.349	48.47
209.567	52.56
209.786	-39.59
210.005	91.48
210.223	34.13
210.442	-82.6
210.661	50.52
210.879	34.13
211.098	9.56
211.316	44.37
211.535	36.18
211.753	9.56
211.972	13.65
212.191	52.56
212.409	21.84
212.628	25.94
212.846	-12.97
213.065	58.71
213.283	60.76
213.502	19.8
213.72	40.28
213.938	19.8
214.157	68.95
214.375	1.37
214.594	27.99
214.812	89.43
215.031	25.94
215.249	17.75
215.467	-15.02
215.686	44.37
215.904	44.37
216.122	-4.78
216.341	-10.92
216.559	25.94
216.778	-17.07
216.996	9.56
217.214	52.56
217.432	7.51
217.651	-8.87
217.869	-21.16
218.087	11.61
218.306	-2.73
218.524	36.18
218.742	54.61
218.96	32.08
219.179	-0.68
219.397	32.08
219.615	40.28
219.833	-12.97
220.051	3.41
220.27	15.7
220.488	-33.45
220.706	19.8
220.924	-0.68
221.142	-17.07
221.36	-17.07
221.578	32.08
221.796	-27.31
222.015	-25.26
222.233	-6.83
222.451	99.67
222.669	-17.07
222.887	75.09
223.105	-31.4
223.323	9.56
223.541	58.71
223.759	27.99
223.977	66.9
224.195	52.56
224.413	71
224.631	79.19
224.849	46.42
225.067	36.18
225.285	-15.02
225.503	44.37
225.721	-21.16
225.939	-0.68
226.157	27.99
226.375	71
226.592	-25.26
226.81	58.71
227.028	77.14
227.246	42.32
227.464	11.61
227.682	71
227.9	101.72
228.117	48.47
228.335	46.42
228.553	-0.68
228.771	91.48
228.989	27.99
229.206	52.56
229.424	-92.84
229.642	-21.16
229.86	19.8
230.077	68.95
230.295	30.04
230.513	128.34
230.731	30.04
230.948	64.85
231.166	30.04
231.384	-4.78
231.601	-2.73
231.819	27.99
232.037	91.48
232.254	-8.87
232.472	-33.45
232.689	68.95
232.907	50.52
233.125	-0.68
233.342	13.65
233.56	-49.83
233.777	-29.35
233.995	27.99
234.213	71
234.43	64.85
234.648	3.41
234.865	-21.16
235.083	3.41
235.3	-41.64
235.518	27.99
235.735	-33.45
235.953	58.71
236.17	66.9
236.388	62.8
236.605	-49.83
236.822	83.28
237.04	42.32
237.257	40.28
237.475	15.7
237.692	1.37
237.909	25.94
238.127	-31.4
238.344	23.89
238.562	11.61
238.779	-37.55
238.996	40.28
239.214	15.7
239.431	62.8
239.648	-10.92
239.865	27.99
240.083	1.37
240.3	-17.07
240.517	52.56
240.735	46.42
240.952	3.41
241.169	-27.31
241.386	34.13
241.603	15.7
241.821	19.8
242.038	7.51
242.255	17.75
242.472	36.18
242.689	46.42
242.907	48.47
243.124	-4.78
243.341	-68.27
243.558	-39.59
243.775	11.61
243.992	21.84
244.209	-8.87
244.426	52.56
244.643	32.08
244.86	-98.99
245.078	-8.87
245.295	-23.21
245.512	3.41
245.729	56.66
245.946	68.95
246.163	-2.73
246.38	3.41
246.597	109.91
246.814	50.52
247.031	32.08
247.248	38.23
247.464	34.13
247.681	40.28
247.898	-0.68
248.115	48.47
248.332	66.9
248.549	126.29
248.766	87.38
248.983	122.2
249.2	48.47
249.417	97.62
249.633	13.65
249.85	42.32
250.067	3.41
250.284	54.61
250.501	60.76
250.717	114
250.934	89.43
251.151	75.09
251.368	34.13
251.585	19.8
251.801	-8.87
252.018	68.95
252.235	-19.11
252.451	101.72
252.668	-23.21
252.885	15.7
253.102	-43.69
253.318	-58.03
253.535	-4.78
253.752	-55.98
253.968	-29.35
254.185	5.46
254.401	-8.87
254.618	-23.21
254.835	19.8
255.051	130.39
255.268	17.75
255.484	17.75
255.701	-25.26
255.917	44.37
256.134	-76.46
256.351	71
256.567	-25.26
256.784	46.42
257	107.86
257.217	-55.98
257.433	42.32
257.65	85.33
257.866	95.57
258.082	-0.68
258.299	66.9
258.515	34.13
258.732	-0.68
258.948	25.94
259.165	44.37
259.381	68.95
259.597	66.9
259.814	42.32
260.03	34.13
260.246	38.23
260.463	50.52
260.679	7.51
260.895	42.32
261.112	-6.83
261.328	-12.97
261.544	36.18
261.761	64.85
261.977	1.37
262.193	11.61
262.409	13.65
262.626	-4.78
262.842	38.23
263.058	68.95
263.274	36.18
263.49	46.42
263.707	68.95
263.923	3.41
264.139	-29.35
264.355	-4.78
264.571	64.85
264.787	-17.07
265.004	-29.35
265.22	9.56
265.436	21.84
265.652	-0.68
265.868	21.84
266.084	-43.69
266.3	62.8
266.516	-47.79
266.732	68.95
266.948	34.13
267.164	40.28
267.38	9.56
267.596	60.76
267.812	89.43
268.028	42.32
268.244	50.52
268.46	15.7
268.676	15.7
268.892	-2.73
269.108	27.99
269.324	-47.79
269.54	-4.78
269.756	87.38
269.972	27.99
270.188	34.13
270.403	-23.21
270.619	64.85
270.835	-4.78
271.051	-2.73
271.267	-37.55
271.483	15.7
271.698	27.99
271.914	-0.68
272.13	-15.02
272.346	42.32
272.562	34.13
272.777	97.62
272.993	11.61
273.209	27.99
273.425	52.56
273.64	-17.07
273.856	-15.02
274.072	13.65
274.287	66.9
274.503	60.76
274.719	48.47
274.934	-10.92
275.15	-117.42
275.366	-62.12
275.581	13.65
275.797	19.8
276.012	23.89
276.228	36.18
276.444	58.71
276.659	40.28
276.875	27.99
277.09	66.9
277.306	-19.11
277.521	52.56
277.737	75.09
277.952	48.47
278.168	-2.73
278.383	21.84
278.599	1.37
278.814	3.41
279.03	81.24
279.245	23.89
279.461	-19.11
279.676	23.89
279.892	48.47
280.107	58.71
280.322	-23.21
280.538	36.18
280.753	-27.31
280.969	136.53
281.184	64.85
281.399	79.19
281.615	50.52
281.83	-41.64
282.045	54.61
282.26	-133.8
282.476	-8.87
282.691	3.41
282.906	1.37
283.122	-31.4
283.337	34.13
283.552	136.53
283.767	9.56
283.983	1.37
284.198	-8.87
284.413	118.1
284.628	15.7
284.843	-0.68
285.058	34.13
285.274	-8.87
285.489	21.84
285.704	21.84
285.919	34.13
286.134	75.09
286.349	52.56
286.564	77.14
286.779	68.95
286.995	1.37
287.21	-6.83
287.425	-19.11
287.64	19.8
287.855	3.41
288.07	19.8
288.285	27.99
288.5	54.61
288.715	19.8
288.93	27.99
289.145	40.28
289.36	62.8
289.575	1.37
289.79	9.56
290.004	-51.88
290.219	46.42
290.434	-4.78
290.649	-4.78
290.864	-2.73
291.079	85.33
291.294	105.81
291.509	30.04
291.724	75.09
291.938	-15.02
292.153	38.23
292.368	5.46
292.583	19.8
292.798	36.18
293.012	15.7
293.227	-19.11
293.442	48.47
293.657	34.13
293.871	25.94
294.086	64.85
294.301	38.23
294.516	-12.97
294.73	13.65
294.945	19.8
295.16	-35.5
295.374	95.57
295.589	85.33
295.804	3.41
296.018	60.76
296.233	89.43
296.447	11.61
296.662	-15.02
296.877	105.81
297.091	50.52
297.306	23.89
297.52	15.7
297.735	91.48
297.949	9.56
298.164	46.42
298.378	17.75
298.593	-17.07
298.807	99.67
299.022	58.71
299.236	83.28
299.451	-2.73
299.665	9.56
299.88	77.14
300.094	46.42
300.309	54.61
300.523	3.41
300.737	91.48
300.952	56.66
301.166	85.33
301.381	3.41
301.595	13.65
301.809	-23.21
302.024	85.33
302.238	-33.45
302.452	126.29
302.667	40.28
302.881	60.76
303.095	32.08
303.309	1.37
303.524	-45.74
303.738	11.61
303.952	3.41
304.166	-47.79
304.381	34.13
304.595	118.1
304.809	-10.92
305.023	66.9
305.237	60.76
305.452	-12.97
305.666	71
305.88	27.99
306.094	56.66
306.308	73.04
306.522	56.66
306.736	-0.68
306.95	97.62
307.164	58.71
307.379	34.13
307.593	56.66
307.807	52.56
308.021	64.85
308.235	101.72
308.449	21.84
308.663	13.65
308.877	68.95
309.091	40.28
309.305	58.71
309.519	11.61
309.733	62.8
309.947	-76.46
310.161	5.46
310.374	56.66
310.588	-17.07
310.802	52.56
311.016	-6.83
311.23	54.61
311.444	44.37
311.658	-2.73
311.872	71
312.085	17.75
312.299	48.47
312.513	5.46
312.727	36.18
312.941	73.04
313.154	17.75
313.368	42.32
313.582	13.65
313.796	5.46
314.009	5.46
314.223	71
314.437	-15.02
314.651	44.37
314.864	62.8
315.078	-4.78
315.292	38.23
315.505	-60.07
315.719	77.14
315.933	17.75
316.146	25.94
316.36	-4.78
316.573	46.42
316.787	73.04
317.001	81.24
317.214	56.66
317.428	52.56
317.641	34.13
317.855	44.37
318.068	-21.16
318.282	89.43
318.495	23.89
318.709	81.24
318.922	27.99
319.136	48.47
319.349	48.47
319.563	17.75
319.776	44.37
319.99	58.71
320.203	-17.07
320.417	34.13
320.63	52.56
320.843	91.48
321.057	93.52
321.27	17.75
321.483	25.94
321.697	89.43
321.91	54.61
322.124	9.56
322.337	34.13
322.55	15.7
322.763	-39.59
322.977	-27.31
323.19	-6.83
323.403	56.66
323.617	167.25
323.83	79.19
324.043	19.8
324.256	11.61
324.469	19.8
324.683	114
324.896	9.56
325.109	-4.78
325.322	42.32
325.535	81.24
325.748	40.28
325.962	-8.87
326.175	48.47
326.388	-15.02
326.601	46.42
326.814	30.04
327.027	77.14
327.24	114
327.453	89.43
327.666	142.68
327.879	-47.79
328.092	-33.45
328.305	89.43
328.518	-6.83
328.731	75.09
328.944	-19.11
329.157	17.75
329.37	48.47
329.583	50.52
329.796	87.38
330.009	5.46
330.222	81.24
330.435	15.7
330.648	44.37
330.861	60.76
331.073	32.08
331.286	60.76
331.499	52.56
331.712	5.46
331.925	1.37
332.138	13.65
332.35	15.7
332.563	21.84
332.776	75.09
332.989	-2.73
333.202	30.04
333.414	36.18
333.627	36.18
333.84	52.56
334.053	68.95
334.265	-47.79
334.478	87.38
334.691	60.76
334.903	89.43
335.116	-25.26
335.329	46.42
335.541	75.09
335.754	52.56
335.966	-0.68
336.179	42.32
336.392	-0.68
336.604	105.81
336.817	40.28
337.029	58.71
337.242	68.95
337.454	3.41
337.667	25.94
337.88	130.39
338.092	46.42
338.305	13.65
338.517	7.51
338.729	64.85
338.942	66.9
339.154	36.18
339.367	-8.87
339.579	36.18
339.792	23.89
340.004	-47.79
340.217	38.23
340.429	11.61
340.641	11.61
340.854	44.37
341.066	40.28
341.278	105.81
341.491	130.39
341.703	-10.92
341.915	19.8
342.128	107.86
342.34	21.84
342.552	15.7
342.764	36.18
342.977	32.08
343.189	30.04
343.401	38.23
343.613	32.08
343.826	36.18
344.038	-19.11
344.25	99.67
344.462	-39.59
344.674	-74.41
344.886	85.33
345.099	81.24
345.311	7.51
345.523	3.41
345.735	-41.64
345.947	54.61
346.159	134.48
346.371	54.61
346.583	9.56
346.795	71
347.007	44.37
347.219	56.66
347.431	25.94
347.643	52.56
347.855	56.66
348.067	95.57
348.279	54.61
348.491	32.08
348.703	111.96
348.915	5.46
349.127	-39.59
349.339	75.09
349.551	-39.59
349.763	40.28
349.975	7.51
350.187	46.42
350.399	103.76
350.61	-2.73
350.822	-2.73
351.034	79.19
351.246	27.99
351.458	3.41
351.669	36.18
351.881	97.62
352.093	101.72
352.305	118.1
352.517	60.76
352.728	95.57
352.94	9.56
353.152	48.47
353.363	13.65
353.575	-8.87
353.787	56.66
353.999	50.52
354.21	134.48
354.422	66.9
354.633	95.57
354.845	58.71
355.057	48.47
355.268	56.66
355.48	9.56
355.692	44.37
355.903	62.8
356.115	95.57
356.326	25.94
356.538	25.94
356.749	44.37
356.961	73.04
357.172	27.99
357.384	-25.26
357.595	73.04
357.807	25.94
358.018	-45.74
358.23	42.32
358.441	54.61
358.653	60.76
358.864	56.66
359.075	11.61
359.287	-2.73
359.498	42.32
359.709	25.94
359.921	60.76
360.132	-17.07
360.344	7.51
360.555	75.09
360.766	9.56
360.977	56.66
361.189	83.28
361.4	44.37
361.611	9.56
361.823	62.8
362.034	103.76
362.245	-39.59
362.456	56.66
362.667	48.47
362.879	54.61
363.09	11.61
363.301	30.04
363.512	85.33
363.723	44.37
363.935	77.14
364.146	11.61
364.357	-25.26
364.568	56.66
364.779	-37.55
364.99	38.23
365.201	64.85
365.412	79.19
365.623	3.41
365.834	83.28
366.045	103.76
366.256	46.42
366.467	54.61
366.678	7.51
366.889	60.76
367.1	-15.02
367.311	32.08
367.522	-8.87
367.733	32.08
367.944	68.95
368.155	79.19
368.366	99.67
368.577	27.99
368.788	101.72
368.999	114
369.209	58.71
369.42	177.49
369.631	161.11
369.842	-4.78
370.053	-55.98
370.264	68.95
370.474	-19.11
370.685	-6.83
370.896	30.04
371.107	103.76
371.317	83.28
371.528	32.08
371.739	-6.83
371.95	60.76
372.16	5.46
372.371	64.85
372.582	3.41
372.792	95.57
373.003	60.76
373.214	25.94
373.424	15.7
373.635	-27.31
373.846	83.28
374.056	-8.87
374.267	116.05
374.477	54.61
374.688	36.18
374.898	56.66
375.109	95.57
375.319	30.04
375.53	89.43
375.74	77.14
375.951	42.32
376.161	25.94
376.372	79.19
376.582	62.8
376.793	52.56
377.003	32.08
377.214	36.18
377.424	75.09
377.635	68.95
377.845	-0.68
378.055	81.24
378.266	60.76
378.476	105.81
378.686	-17.07
378.897	56.66
379.107	68.95
379.317	30.04
379.528	81.24
379.738	5.46
379.948	5.46
380.158	46.42
380.369	140.63
380.579	50.52
380.789	11.61
380.999	87.38
381.21	60.76
381.42	87.38
381.63	-4.78
381.84	46.42
382.05	71
382.261	64.85
382.471	120.15
382.681	-51.88
382.891	109.91
383.101	5.46
383.311	9.56
383.521	23.89
383.731	62.8
383.941	46.42
384.151	85.33
384.361	56.66
384.571	52.56
384.781	48.47
384.991	140.63
385.201	132.44
385.411	38.23
385.621	64.85
385.831	40.28
386.041	124.24
386.251	13.65
386.461	134.48
386.671	97.62
386.881	13.65
387.091	42.32
387.301	109.91
387.511	71
387.72	85.33
387.93	118.1
388.14	71
388.35	23.89
388.56	79.19
388.769	36.18
388.979	-17.07
389.189	83.28
389.399	83.28
389.609	116.05
389.818	50.52
390.028	93.52
390.238	44.37
390.447	38.23
390.657	64.85
390.867	11.61
391.076	77.14
391.286	32.08
391.496	107.86
391.705	40.28
391.915	122.2
392.125	138.58
392.334	52.56
392.544	109.91
392.753	85.33
392.963	34.13
393.172	64.85
393.382	83.28
393.591	118.1
393.801	5.46
394.01	146.77
394.22	97.62
394.429	32.08
394.639	-15.02
394.848	40.28
395.058	114
395.267	50.52
395.477	107.86
395.686	97.62
395.895	107.86
396.105	97.62
396.314	95.57
396.524	101.72
396.733	150.87
396.942	157.01
397.152	130.39
397.361	146.77
397.57	68.95
397.78	111.96
397.989	95.57
398.198	111.96
398.407	95.57
398.617	91.48
398.826	187.73
399.035	157.01
399.244	89.43
399.453	107.86
399.663	157.01
399.872	148.82
400.081	87.38
400.29	191.83
400.499	126.29
400.708	152.91
400.917	27.99
401.127	167.25
401.336	83.28
401.545	204.11
401.754	150.87
401.963	79.19
402.172	138.58
402.381	73.04
402.59	161.11
402.799	175.44
403.008	179.54
403.217	234.83
403.426	138.58
403.635	101.72
403.844	95.57
404.053	118.1
404.262	130.39
404.471	187.73
404.68	157.01
404.888	128.34
405.097	165.2
405.306	208.21
405.515	144.72
405.724	111.96
405.933	195.92
406.142	189.78
406.35	257.36
406.559	197.97
406.768	226.64
406.977	261.46
407.185	283.98
407.394	216.4
407.603	243.03
407.812	204.11
408.02	300.37
408.229	224.59
408.438	240.98
408.646	300.37
408.855	261.46
409.064	290.13
409.272	286.03
409.481	322.9
409.69	277.84
409.898	329.04
410.107	388.43
410.315	376.14
410.524	372.05
410.733	453.97
410.941	359.76
411.15	404.82
411.358	441.68
411.567	406.86
411.775	513.36
411.984	484.69
412.192	523.6
412.401	476.49
412.609	552.27
412.818	519.5
413.026	572.75
413.234	521.55
413.443	562.51
413.651	523.6
413.86	552.27
414.068	669
414.276	730.44
414.485	718.15
414.693	675.15
414.901	798.03
415.11	810.31
415.318	824.65
415.526	881.99
415.734	888.14
415.943	841.03
416.151	851.27
416.359	910.66
416.567	951.62
416.776	1029.45
416.984	1051.97
417.192	1154.37
417.4	986.44
417.608	1217.86
417.817	1174.85
418.025	1264.96
418.233	1295.68
418.441	1318.21
418.649	1375.55
418.857	1424.7
419.065	1490.24
419.273	1492.29
419.481	1606.97
419.689	1690.94
419.897	1649.98
420.105	1625.4
420.313	1805.63
420.521	1862.97
420.729	1809.72
420.937	1852.73
421.145	1965.37
421.353	2141.49
421.561	2245.94
421.769	2258.23
421.977	2393.39
422.185	2223.41
422.393	2477.36
422.601	2565.42
422.809	2637.1
423.017	2616.62
423.224	2602.29
423.432	2696.49
423.64	3001.64
423.848	3052.84
424.056	3040.55
424.263	3298.59
424.471	3200.29
424.679	3394.85
424.887	3321.12
425.094	3595.55
425.302	3708.19
425.51	3755.29
425.718	3886.36
425.925	3974.42
426.133	4007.19
426.341	4306.2
426.548	4402.45
426.756	4375.83
426.964	4527.38
427.171	4810
427.379	4865.29
427.586	4932.87
427.794	5270.79
428.001	5446.91
428.209	5504.26
428.417	5565.7
428.624	5874.94
428.832	5874.94
429.039	5919.99
429.247	5965.05
429.454	6319.35
429.662	7068.91
429.869	6440.18
430.076	6712.56
430.284	6464.75
430.491	7019.75
430.699	7357.67
430.906	7296.23
431.114	7505.12
431.321	7861.47
431.528	8099.03
431.736	8387.8
431.943	8729.81
432.15	8455.38
432.358	8645.84
432.565	9278.66
432.772	9004.24
432.979	9538.76
433.187	9628.87
433.394	9628.87
433.601	10423.48
433.808	10392.76
434.016	10382.52
434.223	10689.71
434.43	11359.4
434.637	11238.57
434.844	11885.73
435.052	12133.53
435.259	12111
435.466	12123.29
435.673	11881.63
435.88	13012.11
436.087	13694.08
436.294	13769.86
436.501	13122.7
436.708	13491.34
436.915	14050.43
437.122	14857.33
437.329	14517.37
437.537	14959.73
437.743	15223.92
437.95	15166.57
438.157	15795.3
438.364	16315.48
438.571	16231.52
438.778	16376.92
438.985	17990.72
439.192	17585.22
439.399	17787.97
439.606	17388.62
439.813	18691.13
440.02	19477.55
440.227	19080.24
440.433	19199.02
440.64	19985.44
440.847	19356.72
441.054	19964.96
441.261	21357.58
441.467	21222.42
441.674	21437.45
441.881	22197.25
442.088	22090.76
442.294	21951.49
442.501	22840.31
442.708	22840.31
442.914	23868.39
443.121	25338.83
443.328	24521.7
443.534	26170.31
443.741	25441.23
443.948	24759.26
444.154	26692.54
444.361	26616.77
444.568	26737.6
444.774	27139
444.981	27020.22
445.187	27386.8
445.394	28988.31
445.6	28949.4
445.807	31632.24
446.013	30096.27
446.22	30651.27
446.426	32062.32
446.633	32195.43
446.839	33405.78
447.046	31691.63
447.252	33440.6
447.459	33411.93
447.665	33401.69
447.871	34564.93
448.078	36029.23
448.284	34558.79
448.491	35556.15
448.697	36754.21
448.903	37796.63
449.11	37552.92
449.316	36662.05
449.522	37284.64
449.728	38148.88
449.935	38880
450.141	38671.11
450.347	39740.15
450.553	38040.34
450.76	38675.21
450.966	39568.12
451.172	39779.06
451.378	40157.94
451.584	40000.24
451.791	40612.59
451.997	40166.13
452.203	40884.97
452.409	41038.56
452.615	40841.96
452.821	39275.26
453.027	38843.14
453.233	40942.31
453.44	38763.27
453.646	39684.86
453.852	39727.86
454.058	40309.49
454.264	38820.61
454.47	39903.99
454.676	38531.85
454.882	40178.42
455.088	36614.95
455.294	37333.79
455.5	37767.96
455.705	38142.74
455.911	36336.43
456.117	35742.52
456.323	35214.14
456.529	33512.28
456.735	34822.98
456.941	33932.11
457.147	33469.27
457.352	32338.79
457.558	31964.01
457.764	32285.54
457.97	31603.57
458.176	30657.41
458.381	30571.39
458.587	29406.1
458.793	29139.86
458.999	27620.27
459.204	29926.28
459.41	29072.28
459.616	26907.58
459.821	26962.87
460.027	26983.35
460.233	26190.79
460.438	24820.7
460.644	25580.49
460.85	24099.81
461.055	23663.6
461.261	23682.03
461.466	22191.11
461.672	21115.92
461.878	23131.12
462.083	21359.63
462.289	21048.34
462.494	21132.31
462.7	19846.18
462.905	19227.7
463.111	19870.76
463.316	20128.8
463.522	19536.94
463.727	19567.66
463.932	19438.64
464.138	19164.21
464.343	19459.12
464.549	18934.84
464.754	19481.64
464.959	19524.65
465.165	19043.38
465.37	18426.94
465.575	18082.88
465.781	18541.63
465.986	18910.26
466.191	17996.87
466.397	17826.89
466.602	16870.48
466.807	17538.12
467.012	17445.96
467.218	17527.88
467.423	17204.3
467.628	17470.54
467.833	17992.77
468.038	17589.32
468.244	16821.33
468.449	17464.39
468.654	16925.78
468.859	16919.64
469.064	16893.01
469.269	16211.04
469.474	16082.02
469.679	16452.7
469.885	16016.48
470.09	16188.51
470.295	16395.36
470.5	15889.51
470.705	15852.64
470.91	15676.52
471.115	15592.55
471.32	15811.68
471.525	15524.97
471.73	15074.42
471.935	15084.66
472.139	14476.41
472.344	14738.55
472.549	14587
472.754	14505.08
472.959	13925.5
473.164	14003.33
473.369	13677.7
473.574	14070.91
473.778	13837.44
473.983	13696.13
474.188	13816.96
474.393	13223.05
474.598	13157.52
474.802	13216.91
475.007	12938.38
475.212	12950.67
475.417	12631.19
475.621	12422.3
475.826	12465.3
476.031	12420.25
476.235	12086.43
476.44	12360.86
476.645	12174.49
476.849	12211.35
477.054	12080.28
477.259	11492.52
477.463	11998.37
477.668	11375.78
477.872	11654.31
478.077	11476.13
478.282	11070.64
478.486	11224.23
478.691	11046.06
478.895	11023.53
479.1	11080.88
479.304	11025.58
479.509	10435.77
479.713	10759.35
479.918	10583.22
480.122	10353.85
480.326	10564.79
480.531	10538.16
480.735	10339.51
480.94	10441.91
481.144	10626.23
481.348	9968.83
481.553	10235.07
481.757	10093.76
481.961	10327.22
482.166	10446.01
482.37	10198.2
482.574	9925.82
482.778	10091.71
482.983	10501.3
483.187	10259.64
483.391	10202.3
483.595	10089.66
483.8	10126.52
484.004	10054.84
484.208	10218.68
484.412	10104
484.616	10136.76
484.821	10220.73
485.025	10069.18
485.229	10147
485.433	10011.84
485.637	10210.49
485.841	10075.32
486.045	10046.65
486.249	10222.78
486.453	10060.99
486.657	10046.65
486.861	10339.51
487.065	10032.32
487.269	10218.68
487.473	9925.82
487.677	9987.26
487.881	10206.39
488.085	10060.99
488.289	10054.84
488.493	9985.21
488.697	10210.49
488.901	10167.48
489.105	10280.12
489.309	10257.59
489.512	10208.44
489.716	10370.23
489.92	10251.45
490.124	10110.14
490.328	10284.22
490.531	10282.17
490.735	10208.44
490.939	10345.66
491.143	10319.03
491.346	10282.17
491.55	10546.36
491.754	10603.7
491.958	10654.9
492.161	10601.65
492.365	10511.54
492.569	10618.04
492.772	10626.23
492.976	10990.77
493.18	10841.26
493.383	10927.28
493.587	11019.44
493.79	10947.76
493.994	10898.61
494.197	11068.59
494.401	11398.31
494.605	11189.42
494.808	11277.48
495.012	11482.28
495.215	11533.48
495.419	11513
495.622	11250.86
495.825	11926.69
496.029	11644.07
496.232	11977.89
496.436	11920.54
496.639	12237.98
496.843	12289.18
497.046	12522.65
497.249	12182.68
497.453	12350.62
497.656	12520.6
497.859	12760.21
498.063	12965.01
498.266	13149.32
498.469	13028.49
498.673	13237.39
498.876	13192.33
499.079	13585.54
499.282	13634.69
499.485	13784.19
499.689	13954.18
499.892	14054.53
500.095	14259.32
500.298	14619.77
500.501	14470.26
500.705	14595.19
500.908	14980.21
501.111	15316.08
501.314	15035.5
501.517	15412.33
501.72	15670.37
501.923	15719.53
502.126	15920.23
502.329	16182.37
502.532	16454.75
502.735	16348.25
502.938	16450.65
503.141	16667.74
503.344	17149.01
503.547	17046.61
503.75	17212.49
503.953	17806.41
504.156	17773.64
504.359	17671.24
504.562	17941.57
504.765	18252.86
504.968	18521.15
505.17	18674.74
505.373	18582.59
505.576	18928.69
505.779	19420.2
505.982	19108.91
506.185	19723.3
506.387	19737.64
506.59	19989.54
506.793	20536.35
506.996	20503.58
507.198	21029.91
507.401	20980.76
507.604	21253.14
507.807	21261.33
508.009	21621.77
508.212	21707.79
508.415	21953.54
508.617	22283.27
508.82	22150.15
509.022	22219.78
509.225	22789.11
509.428	22883.32
509.63	23172.08
509.833	23493.61
510.035	23933.93
510.238	23757.8
510.44	24083.43
510.643	24296.42
510.845	25035.74
511.048	24488.93
511.25	25043.93
511.453	25215.96
511.655	26102.73
511.858	25748.43
512.06	26115.01
512.262	26280.9
512.465	26565.57
512.667	26999.74
512.87	27218.87
513.072	26977.21
513.274	27921.32
513.477	27814.83
513.679	28093.35
513.881	28582.82
514.084	28910.49
514.286	28810.14
514.488	29162.39
514.69	29864.85
514.893	29979.53
515.095	29899.66
515.297	30354.31
515.499	30438.28
515.701	30806.91
515.904	31249.27
516.106	31134.59
516.308	31796.08
516.51	31689.59
516.712	32088.94
516.914	32394.09
517.116	33364.82
517.318	32818.02
517.52	33252.19
517.722	33219.42
517.925	33782.61
518.127	34009.93
518.329	34380.62
518.531	34104.14
518.733	34902.85
518.935	35105.6
519.136	35199.8
519.338	35734.32
519.54	35984.18
519.742	36598.57
519.944	36092.72
520.146	37206.81
520.348	36854.56
520.55	37305.12
520.752	37616.41
520.954	38097.68
521.155	37956.37
521.357	38462.22
521.559	38642.44
521.761	39568.12
521.963	39396.09
522.164	39533.31
522.366	39586.55
522.568	40461.04
522.77	40387.31
522.971	40870.63
523.173	40573.67
523.375	41382.62
523.576	41171.68
523.778	41095.91
523.98	41464.54
524.181	42238.67
524.383	42107.6
524.584	42689.23
524.786	42504.91
524.988	42638.03
525.189	43379.39
525.391	43088.58
525.592	43586.24
525.794	43750.07
525.995	43623.1
526.197	43709.11
526.398	43741.88
526.6	44126.9
526.801	44649.13
527.003	44634.8
527.204	45011.62
527.406	45322.91
527.607	45150.88
527.808	45583.01
528.01	44763.82
528.211	45105.83
528.412	46445.2
528.614	45877.91
528.815	46037.65
529.016	46588.56
529.218	46219.92
529.419	46191.25
529.62	46432.91
529.822	46080.66
530.023	46312.08
530.224	46379.67
530.425	46740.11
530.626	46242.45
530.828	46246.55
531.029	47436.42
531.23	46981.77
531.431	46895.75
531.632	46834.31
531.833	47587.97
532.035	47327.88
532.236	47493.76
532.437	47549.06
532.638	47301.25
532.839	47899.26
533.04	47612.54
533.241	47256.2
533.442	48261.75
533.643	47686.27
533.844	47762.04
534.045	47669.89
534.246	47624.83
534.447	47786.62
534.648	47573.63
534.849	47665.79
535.05	47258.24
535.251	48239.22
535.451	47819.39
535.652	48165.49
535.853	47731.32
536.054	47936.12
536.255	47991.42
536.456	47866.49
536.657	48835.18
536.857	47835.77
537.058	48034.42
537.259	48038.52
537.46	48237.17
537.66	47561.34
537.861	48298.61
538.062	47768.19
538.263	47997.56
538.463	47667.84
538.664	47919.74
538.865	48009.85
539.065	48587.38
539.266	47403.65
539.466	48286.32
539.667	47467.14
539.868	48249.46
540.068	47868.54
540.269	47999.61
540.469	48269.94
540.67	47669.89
540.87	47825.53
541.071	47710.85
541.271	48423.54
541.472	47850.11
541.672	47608.45
541.873	47575.68
542.073	47016.58
542.274	47739.52
542.474	47946.36
542.675	47917.69
542.875	47702.65
543.075	48130.68
543.276	47350.4
543.476	48560.75
543.676	47700.61
543.877	47692.41
544.077	47809.15
544.277	47825.53
544.478	48042.62
544.678	47870.59
544.878	47686.27
545.078	48147.06
545.279	47430.27
545.479	47733.37
545.679	47491.71
545.879	47784.57
546.079	47739.52
546.28	47436.42
546.48	47157.89
546.68	47743.61
546.88	47581.82
547.08	47684.22
547.28	47450.75
547.48	47178.37
547.68	47571.58
547.88	47182.47
548.081	47499.9
548.281	47587.97
548.481	47497.86
548.681	47997.56
548.881	47723.13
549.081	47153.8
549.28	47426.18
549.48	47514.24
549.68	47440.51
549.88	47862.39
550.08	47186.57
550.28	47714.94
550.48	47616.64
550.68	47667.84
550.88	47180.42
551.08	47184.52
551.279	47299.2
551.479	47121.03
551.679	47313.54
551.879	47049.35
552.079	47342.21
552.278	46912.14
552.478	47084.17
552.678	46914.19
552.878	47489.66
553.077	47227.52
553.277	46795.4
553.477	47571.58
553.676	46903.95
553.876	46764.68
554.076	46871.18
554.275	47049.35
554.475	46158.49
554.674	46844.55
554.874	46641.81
555.074	46604.94
555.273	46733.96
555.473	46949
555.672	46342.8
555.872	46465.68
556.071	46731.92
556.271	46490.26
556.47	46215.83
556.67	46138.01
556.869	46076.57
557.068	46264.98
557.268	45683.36
557.467	46199.44
557.667	46086.81
557.866	46150.29
558.065	46013.08
558.265	45619.87
558.464	45521.57
558.663	46207.64
558.863	44862.12
559.062	46205.59
559.261	45136.55
559.461	45855.39
559.66	45216.42
559.859	45533.85
560.058	45204.13
560.258	44993.19
560.457	44845.74
560.656	45081.25
560.855	45124.26
561.054	45011.62
561.253	45036.2
561.453	44847.78
561.652	44765.87
561.851	44843.69
562.05	44634.8
562.249	44276.4
562.448	45036.2
562.647	44665.52
562.846	44411.57
563.045	44286.64
563.244	44073.65
563.443	44516.01
563.642	43461.31
563.841	44249.78
564.04	43610.81
564.239	43739.83
564.438	43635.39
564.637	43979.45
564.836	43481.79
565.035	43270.85
565.234	43471.55
565.432	43299.52
565.631	42865.35
565.83	43348.67
566.029	42545.87
566.228	43070.15
566.427	42511.05
566.625	42539.72
566.824	41992.92
567.023	42721.99
567.222	42025.68
567.42	42529.48
567.619	42189.52
567.818	42240.72
568.016	41958.1
568.215	42126.03
568.414	41767.64
568.612	42250.96
568.811	41087.71
569.01	41562.84
569.208	41255.65
569.407	41777.88
569.605	40690.41
569.804	41528.03
570.002	40811.24
570.201	40915.68
570.4	40708.84
570.598	40590.06
570.797	40252.14
570.995	40209.14
571.193	40006.39
571.392	40565.48
571.59	40266.48
571.789	40338.16
571.987	39840.5
572.186	40121.07
572.384	39985.91
572.582	39781.11
572.781	40061.68
572.979	39097.09
573.177	39365.37
573.376	39721.72
573.574	39119.62
573.772	38970.11
573.971	39045.89
574.169	38779.65
574.367	38320.91
574.565	38601.48
574.763	38382.35
574.962	38761.22
575.16	38206.22
575.358	38460.17
575.556	37552.92
575.754	38337.29
575.952	37688.09
576.151	37823.25
576.349	37487.39
576.547	37612.31
576.745	37550.87
576.943	37569.3
577.141	37276.44
577.339	37313.31
577.537	37065.5
577.735	36901.67
577.933	36535.08
578.131	36748.07
578.329	36657.96
578.527	36795.17
578.725	36328.24
578.923	36975.39
579.121	36404.01
579.319	36123.44
579.516	36395.82
579.714	36264.75
579.912	36012.85
580.11	35861.3
580.308	35924.79
580.506	36025.14
580.704	35238.72
580.901	35517.24
581.099	35910.45
581.297	35048.25
581.495	35183.42
581.692	35562.29
581.89	35222.33
582.088	35173.18
582.285	34622.28
582.483	34714.44
582.681	34528.07
582.878	34583.37
583.076	34184.01
583.274	34687.81
583.471	34091.85
583.669	34190.16
583.866	34054.99
584.064	34018.13
584.262	33407.83
584.459	34098
584.657	33749.84
584.854	33755.99
585.052	33168.22
585.249	33411.93
585.447	33272.67
585.644	32885.6
585.841	32983.9
586.039	33047.39
586.236	32684.9
586.434	32605.03
586.631	32619.36
586.828	32664.42
587.026	32258.92
587.223	32459.62
587.42	32236.39
587.618	32191.34
587.815	31736.69
588.012	32045.93
588.21	31822.7
588.407	32232.3
588.604	32033.64
588.801	31597.43
588.999	31226.74
589.196	31413.11
589.393	31161.21
589.59	31406.97
589.787	30960.51
589.984	31247.22
590.182	30798.72
590.379	31120.25
590.576	30528.39
590.773	30765.95
590.97	30311.3
591.167	30446.47
591.364	30026.64
591.561	30061.45
591.758	30327.69
591.955	29803.41
592.152	30372.74
592.349	29764.5
592.546	29991.82
592.743	29612.95
592.94	29207.45
593.137	29940.62
593.334	29422.48
593.531	29076.38
593.727	29275.03
593.924	28890.01
594.121	29328.28
594.318	29195.16
594.515	28400.55
594.712	28793.76
594.908	28662.69
595.105	28699.55
595.302	28226.47
595.499	28478.37
595.696	28257.19
595.892	28169.13
596.089	28187.56
596.286	28175.27
596.482	28300.2
596.679	27909.04
596.876	27990.95
597.072	27650.99
597.269	27823.02
597.466	27460.53
597.662	27374.52
597.859	27380.66
598.055	27272.12
598.252	27212.73
598.448	27282.36
598.645	27202.49
598.841	26858.43
599.038	27030.46
599.234	26866.62
599.431	26360.77
599.627	26520.51
599.824	26794.94
600.02	26248.13
600.217	26602.43
600.413	26280.9
600.609	26168.26
600.806	26190.79
601.002	26252.23
601.198	25818.06
601.395	25867.21
601.591	25848.78
601.787	25711.56
601.984	25496.53
602.18	25721.8
602.376	25400.27
602.572	25398.23
602.769	25392.08
602.965	24970.2
603.161	25254.87
603.357	24937.43
603.553	24808.41
603.75	24806.36
603.946	24642.53
604.142	24554.46
604.338	24490.98
604.534	24626.14
604.73	24054.76
604.926	24044.52
605.122	24581.09
605.318	24138.72
605.514	24003.56
605.71	24013.8
605.906	24024.04
606.102	24024.04
606.298	23714.8
606.494	23843.82
606.69	23720.94
606.886	23725.04
607.082	23391.22
607.278	23884.78
607.474	23274.48
607.67	23636.97
607.866	23192.56
608.062	23315.44
608.257	23317.49
608.453	23213.04
608.649	23047.16
608.845	22903.8
609.041	22811.64
609.236	22881.27
609.432	22836.22
609.628	22672.38
609.824	22815.74
610.019	22957.05
610.215	22610.94
610.411	22850.55
610.606	22537.21
610.802	22680.57
610.998	22457.34
611.193	22395.9
611.389	22387.71
611.584	22008.84
611.78	22201.35
611.976	22176.77
612.171	21937.16
612.367	21857.29
612.562	22027.27
612.758	21642.25
612.953	21613.58
613.149	21943.3
613.344	21767.18
613.539	22141.96
613.735	21953.54
613.93	21828.62
614.126	21556.24
614.321	21912.58
614.517	21781.51
614.712	21478.41
614.907	21392.4
615.103	21222.42
615.298	21447.69
615.493	21494.8
615.688	21152.79
615.884	21363.73
616.079	20972.57
616.274	21328.91
616.47	21017.62
616.665	21183.51
616.86	21238.8
617.055	20876.31
617.25	20665.37
617.445	20958.23
617.641	20526.11
617.836	21246.99
618.031	20304.93
618.226	20808.73
618.421	20638.75
618.616	20675.61
618.811	19858.47
619.006	20550.68
619.201	20141.09
619.396	20206.62
619.591	19725.35
619.786	19983.4
619.981	19944.48
620.176	19987.49
620.371	19682.34
620.566	19848.23
620.761	19579.95
620.956	19768.36
621.151	19389.49
621.346	19663.91
621.541	19133.49
621.735	19428.4
621.93	18977.84
622.125	19123.25
622.32	18590.78
622.515	18928.69
622.709	18779.19
622.904	18564.15
623.099	18248.77
623.294	18531.39
623.488	18072.64
623.683	18205.76
623.878	17857.6
624.072	18097.22
624.267	18109.5
624.462	17964.1
624.656	17605.7
624.851	17572.94
625.046	17740.87
625.24	17505.35
625.435	17167.44
625.629	17304.65
625.824	17122.38
626.018	17196.11
626.213	16776.28
626.407	16907.35
626.602	16718.93
626.796	16669.78
626.991	16589.91
627.185	16530.52
627.38	16632.92
627.574	16387.16
627.768	16045.15
627.963	16176.22
628.157	15961.19
628.352	15985.76
628.546	15737.96
628.74	16010.34
628.935	15674.47
629.129	15955.04
629.323	15613.03
629.517	15658.09
629.712	15408.23
629.906	15463.53
630.1	15246.44
630.294	14937.2
630.489	15000.69
630.683	15201.39
630.877	14824.56
631.071	14791.8
631.265	14722.16
631.459	14765.17
631.653	14560.38
631.848	14677.11
632.042	14531.7
632.236	14503.03
632.43	14247.04
632.624	14496.89
632.818	14201.98
633.012	14064.77
633.206	13796.48
633.4	13855.87
633.594	13739.14
633.788	13866.11
633.982	13757.57
634.176	13745.28
634.369	13456.52
634.563	13538.44
634.757	13415.56
634.951	13462.66
635.145	13300.87
635.339	13175.95
635.533	13124.75
635.726	13028.49
635.92	13149.32
636.114	12901.52
636.308	13008.01
636.501	12897.42
636.695	12762.26
636.889	12737.68
637.083	12684.44
637.276	12225.69
637.47	12526.74
637.664	12373.14
637.857	12477.59
638.051	12360.86
638.244	12149.92
638.438	12262.55
638.632	11951.26
638.825	12123.29
639.019	12088.48
639.212	11887.78
639.406	11949.21
639.599	11771.04
639.793	11873.44
639.986	11392.17
640.18	11879.58
640.373	11599.01
640.567	11515.05
640.76	11478.18
640.954	11297.96
641.147	11216.04
641.34	11168.94
641.534	11195.56
641.727	10970.29
641.92	10876.08
642.114	11019.44
642.307	11033.77
642.5	10865.84
642.694	10853.55
642.887	10800.3
643.08	10749.11
643.273	10583.22
643.467	10562.74
643.66	10597.56
643.853	10411.19
644.046	10605.75
644.239	10462.39
644.432	10249.4
644.626	10276.02
644.819	9915.58
645.012	10194.11
645.205	10124.47
645.398	10138.81
645.591	9936.06
645.784	9911.49
645.977	9737.41
646.17	9794.75
646.363	9895.1
646.556	9682.11
646.749	9571.52
646.942	9575.62
647.135	9514.18
647.328	9616.58
647.521	9483.46
647.714	9436.36
647.907	9497.8
648.099	9440.45
648.292	9471.17
648.485	9204.94
648.678	9206.98
648.871	9266.38
649.064	8877.26
649.256	9080.01
649.449	8916.17
649.642	8893.65
649.835	8963.28
650.027	8950.99
650.22	8678.61
650.413	8727.76
650.605	8752.34
650.798	8572.11
650.991	8586.45
651.183	8520.92
651.376	8570.07
651.568	8527.06
651.761	8441.04
651.954	8344.79
652.146	8398.04
652.339	8346.84
652.531	8142.04
652.724	8277.21
652.916	7949.53
653.109	8101.08
653.301	8015.07
653.494	8045.79
653.686	8019.16
653.879	8096.99
654.071	7894.24
654.263	8080.6
654.456	7697.63
654.648	7861.47
654.84	7671.01
655.033	7763.17
655.225	7675.1
655.417	7664.86
655.61	7701.73
655.802	7593.19
655.994	7410.92
656.186	7476.45
656.379	7404.77
656.571	7488.74
656.763	7197.93
656.955	7173.35
657.148	7324.9
657.34	7247.08
657.532	7077.1
657.724	7036.14
657.916	7032.04
658.108	7122.15
658.3	6950.12
658.492	7021.8
658.684	6991.08
658.876	6941.93
659.068	6939.88
659.26	6946.03
659.452	6866.16
659.644	6669.55
659.836	6954.22
660.028	6753.52
660.22	6581.49
660.412	6712.56
660.604	6522.1
660.796	6587.63
660.988	6825.2
661.18	6446.32
661.372	6472.95
661.563	6438.13
661.755	6425.84
661.947	6343.92
662.139	6479.09
662.331	6255.86
662.522	6403.32
662.714	6155.51
662.906	6178.04
663.097	6401.27
663.289	6089.98
663.481	6065.4
663.673	6001.91
663.864	6110.46
664.056	6116.6
664.247	6012.15
664.439	5942.52
664.631	6046.97
664.822	5915.9
665.014	5977.34
665.205	5958.91
665.397	5829.88
665.588	5879.04
665.78	5700.86
665.971	5694.72
666.163	5807.36
666.354	5565.7
666.546	5635.33
666.737	5524.74
666.929	5590.27
667.12	5666.05
667.311	5369.09
667.503	5584.13
667.694	5436.67
667.885	5344.52
668.077	5510.4
668.268	5377.28
668.459	5440.77
668.651	5418.24
668.842	5428.48
669.033	5276.93
669.224	5188.87
669.416	5356.8
669.607	5248.26
669.798	5274.88
669.989	5401.86
670.18	5297.41
670.371	5215.49
670.563	5076.23
670.754	5182.73
670.945	4943.11
671.136	5164.29
671.327	5090.57
671.518	5109
671.709	5074.18
671.9	5113.1
672.091	4977.93
672.282	5074.18
672.473	5047.56
672.664	5074.18
672.855	4834.57
673.046	5004.55
673.237	5117.19
673.428	4939.02
673.619	4887.82
673.809	4779.28
674	4877.58
674.191	4947.21
674.382	4787.47
674.573	4668.69
674.764	4728.08
674.954	4836.62
675.145	4732.17
675.336	4898.06
675.527	4680.97
675.717	4631.82
675.908	4570.38
676.099	4683.02
676.289	4654.35
676.48	4730.13
676.671	4631.82
676.861	4762.89
677.052	4543.76
677.243	4508.94
677.433	4580.62
677.624	4709.65
677.814	4603.15
678.005	4691.21
678.195	4824.33
678.386	4734.22
678.576	4594.96
678.767	4566.29
678.957	4631.82
679.148	4625.68
679.338	4570.38
679.529	4443.41
679.719	4369.68
679.909	4648.21
680.1	4459.79
680.29	4510.99
680.481	4453.65
680.671	4560.14
680.861	4400.4
681.052	4502.8
681.242	4416.79
681.432	4424.98
681.622	4330.77
681.813	4441.36
682.003	4467.99
682.193	4388.11
682.383	4429.07
682.573	4316.44
682.764	4259.09
682.954	4508.94
683.144	4386.07
683.334	4244.76
683.524	4492.56
683.714	4304.15
683.904	4373.78
684.094	4271.38
684.284	4181.27
684.474	4222.23
684.664	4295.96
684.854	4347.15
685.044	4392.21
685.234	4322.58
685.424	4349.2
685.614	4160.79
685.804	4351.25
685.994	4322.58
686.184	4177.17
686.374	4132.12
686.564	4168.98
686.753	4232.47
686.943	3960.09
687.133	4109.59
687.323	4113.69
687.513	4097.3
687.702	3900.7
687.892	4035.86
688.082	4048.15
688.272	3966.23
688.461	4068.63
688.651	3970.33
688.841	4013.34
689.03	3996.95
689.22	3953.94
689.41	3829.02
689.599	3972.38
689.789	3878.17
689.979	3876.12
690.168	3884.31
690.358	3839.26
690.547	3892.51
690.737	3829.02
690.926	3812.64
691.116	3697.95
691.305	3783.96
691.495	3849.5
691.684	3724.57
691.874	3714.33
692.063	3779.87
692.252	3712.28
692.442	3656.99
692.631	3661.09
692.82	3697.95
693.01	3710.24
693.199	3611.93
693.388	3562.78
693.578	3691.8
693.767	3683.61
693.956	3482.91
694.146	3591.45
694.335	3570.97
694.524	3513.63
694.713	3603.74
694.902	3693.85
695.092	3476.77
695.281	3439.9
695.47	3466.53
695.659	3407.14
695.848	3444
696.037	3353.89
696.226	3429.66
696.415	3521.82
696.604	3476.77
696.793	3382.56
696.982	3435.81
697.171	3364.13
697.36	3421.47
697.549	3427.62
697.738	3476.77
697.927	3368.23
698.116	3357.99
698.305	3411.23
698.494	3370.27
698.683	3339.55
698.872	3284.26
699.061	3300.64
699.25	3388.71
699.438	3231.01
699.627	3224.87
699.816	3317.03
700.005	3366.18
700.193	3388.71
700.382	3489.06
700.571	3284.26
700.76	3179.81
700.948	3290.4
701.137	3329.31
701.326	3312.93
701.514	3212.58
701.703	3368.23
701.892	3312.93
702.08	3265.83
702.269	3398.95
702.457	3188
702.646	3257.64
702.834	3284.26
703.023	3241.25
703.212	3208.48
703.4	3370.27
703.589	3249.44
703.777	3218.72
703.965	3054.89
704.154	3009.83
704.342	3167.52
704.531	3140.9
704.719	3185.96
704.907	3198.24
705.096	3198.24
705.284	3212.58
705.472	3196.2
705.661	3210.53
705.849	3042.6
706.037	3210.53
706.226	3233.06
706.414	3138.85
706.602	3087.65
706.79	3237.16
706.979	3147.05
707.167	3077.41
707.355	3190.05
707.543	3173.67
707.731	3183.91
707.919	3253.54
708.107	3079.46
708.296	3142.95
708.484	3161.38
708.672	3192.1
708.86	3120.42
709.048	3145
709.236	3140.9
709.424	3169.57
709.612	3157.29
709.8	3083.56
709.988	3163.43
710.176	3200.29
710.364	3104.04
710.551	3050.79
710.739	3134.76
710.927	3200.29
711.115	3128.61
711.303	3151.14
711.491	3138.85
711.679	3081.51
711.866	3282.21
712.054	3163.43
712.242	3124.52
712.43	3259.68
712.617	3192.1
712.805	3188
712.993	3145
713.181	3216.68
713.368	3220.77
713.556	3099.94
713.744	3048.74
713.931	3194.15
714.119	3118.37
714.306	3058.98
714.494	3155.24
714.682	3108.13
714.869	3040.55
715.057	3206.44
715.244	3028.26
715.432	3165.48
715.619	3159.33
715.807	3239.2
715.994	3124.52
716.182	3149.09
716.369	3124.52
716.556	3124.52
716.744	3116.33
716.931	3190.05
717.119	3118.37
717.306	3118.37
717.493	3128.61
717.681	3110.18
717.868	3099.94
718.055	3181.86
718.242	3124.52
718.43	3136.81
718.617	3151.14
718.804	3134.76
718.991	3214.63
719.179	2975.02
719.366	3136.81
719.553	3134.76
719.74	3138.85
719.927	3108.13
720.114	3138.85
720.301	3134.76
720.488	3099.94
720.676	3009.83
720.863	3169.57
721.05	3071.27
721.237	3101.99
721.424	3200.29
721.611	2999.59
721.798	3054.89
721.985	3069.22
722.172	3005.74
722.358	3095.85
722.545	3163.43
722.732	3110.18
722.919	3145
723.106	3063.08
723.293	3034.41
723.48	3108.13
723.667	3083.56
723.853	3095.85
724.04	3108.13
724.227	3040.55
724.414	2999.59
724.6	3089.7
724.787	3132.71
724.974	3116.33
725.161	2993.45
725.347	3005.74
725.534	3114.28
725.72	3058.98
725.907	3040.55
726.094	3034.41
726.28	3091.75
726.467	3009.83
726.653	3075.37
726.84	3216.68
727.027	3249.44
727.213	2927.91
727.4	3005.74
727.586	2932.01
727.773	2966.82
727.959	3042.6
728.145	3099.94
728.332	2925.86
728.518	3048.74
728.705	2962.73
728.891	3048.74
729.077	3013.93
729.264	3077.41
729.45	2919.72
729.636	3091.75
729.823	2919.72
730.009	3009.83
730.195	3061.03
730.382	2917.67
730.568	2841.9
730.754	2958.63
730.94	2938.15
731.126	3083.56
731.313	2899.24
731.499	3046.69
731.685	2845.99
731.871	2999.59
732.057	2981.16
732.243	2932.01
732.429	2977.06
732.615	3034.41
732.801	2936.1
732.987	2837.8
733.173	3018.02
733.359	2860.33
733.545	2942.25
733.731	3089.7
733.917	2946.34
734.103	2940.2
734.289	2845.99
734.475	2827.56
734.661	2927.91
734.847	3030.31
735.033	2833.71
735.219	2958.63
735.404	2809.13
735.59	2843.95
735.776	2938.15
735.962	2858.28
736.148	2903.34
736.333	2833.71
736.519	3024.17
736.705	2991.4
736.89	2876.71
737.076	2825.51
737.262	2889
737.447	2778.41
737.633	2852.14
737.819	2854.19
738.004	2794.79
738.19	2893.1
738.375	2796.84
738.561	2698.54
738.747	2737.45
738.932	2712.88
739.118	2780.46
739.303	2755.88
739.489	2778.41
739.674	2807.08
739.859	2712.88
740.045	2706.73
740.23	2735.4
740.416	2641.2
740.601	2739.5
740.786	2676.01
740.972	2620.72
741.157	2590
741.342	2555.18
741.528	2645.29
741.713	2612.53
741.898	2706.73
742.084	2594.09
742.269	2657.58
742.454	2536.75
742.639	2577.71
742.824	2635.05
743.01	2647.34
743.195	2542.89
743.38	2473.26
743.565	2491.7
743.75	2524.46
743.935	2534.7
744.12	2540.85
744.305	2542.89
744.49	2577.71
744.675	2569.52
744.86	2544.94
745.045	2524.46
745.23	2407.73
745.415	2475.31
745.6	2366.77
745.785	2391.34
745.97	2409.78
746.155	2522.41
746.34	2458.93
746.525	2397.49
746.71	2348.34
746.895	2247.99
747.079	2313.52
747.264	2319.67
747.449	2262.32
747.634	2311.47
747.819	2264.37
748.003	2334
748.188	2250.03
748.373	2264.37
748.557	2141.49
748.742	2100.53
748.927	2239.8
749.111	2166.07
749.296	2090.29
749.481	2221.36
749.665	2116.92
749.85	2106.68
750.034	2096.44
750.219	2098.49
750.404	2073.91
750.588	2082.1
750.773	1936.7
750.957	2020.66
751.141	2110.77
751.326	1932.6
751.51	1830.2
751.695	1975.61
751.879	2018.61
752.064	1946.94
752.248	1901.88
752.432	1955.13
752.617	1862.97
752.801	1940.79
752.985	1840.44
753.17	1908.02
753.354	1811.77
753.538	1928.5
753.722	1707.32
753.907	1713.47
754.091	1807.67
754.275	1764.67
754.459	1744.19
754.643	1721.66
754.828	1803.58
755.012	1742.14
755.196	1705.28
755.38	1656.12
755.564	1731.9
755.748	1697.08
755.932	1748.28
756.116	1645.88
756.3	1676.6
756.484	1619.26
756.668	1643.84
756.852	1518.91
757.036	1631.55
757.22	1598.78
757.404	1578.3
757.588	1451.33
757.772	1559.87
757.956	1457.47
758.14	1420.61
758.323	1551.68
758.507	1484.09
758.691	1463.62
758.875	1523.01
759.059	1551.68
759.242	1525.05
759.426	1439.04
759.61	1396.03
759.794	1400.13
759.977	1434.94
760.161	1412.42
760.345	1432.9
760.528	1447.23
760.712	1303.87
760.895	1436.99
761.079	1365.31
761.263	1373.5
761.446	1418.56
761.63	1445.18
761.813	1355.07
761.997	1332.54
762.18	1326.4
762.364	1342.78
762.547	1232.19
762.731	1281.35
762.914	1232.19
763.098	1285.44
763.281	1211.71
763.464	1342.78
763.648	1338.69
763.831	1121.6
764.015	1307.97
764.198	1275.2
764.381	1158.47
764.564	1312.07
764.748	1256.77
764.931	1158.47
765.114	1299.78
765.297	1176.9
765.481	1248.58
765.664	1107.27
765.847	1203.52
766.03	1232.19
766.213	1156.42
766.397	1226.05
766.58	1144.13
766.763	1215.81
766.946	1236.29
767.129	1191.24
767.312	1174.85
767.495	1090.88
767.678	980.29
767.861	1103.17
768.044	1203.52
768.227	1158.47
768.41	1082.69
768.593	1166.66
768.776	1019.21
768.959	1051.97
769.142	1113.41
769.324	1060.17
769.507	998.73
769.69	1025.35
769.873	1013.06
770.056	1125.7
770.239	1000.77
770.421	1051.97
770.604	1070.4
770.787	1045.83
770.97	980.29
771.152	931.14
771.335	957.77
771.518	918.86
771.7	974.15
771.883	1041.73
772.066	992.58
772.248	898.38
772.431	1015.11
772.613	939.33
772.796	986.44
772.978	1025.35
773.161	1023.3
773.343	922.95
773.526	976.2
773.708	886.09
773.891	902.47
774.073	906.57
774.256	871.75
774.438	939.33
774.621	863.56
774.803	974.15
774.985	875.85
775.168	765.26
775.35	884.04
775.532	845.13
775.715	845.13
775.897	849.22
776.079	851.27
776.261	865.61
776.444	906.57
776.626	822.6
776.808	843.08
776.99	761.16
777.173	904.52
777.355	773.45
777.537	693.58
777.719	785.74
777.901	683.34
778.083	757.07
778.265	703.82
778.447	814.41
778.629	736.59
778.811	779.59
778.993	808.26
779.175	699.72
779.357	730.44
779.539	675.15
779.721	765.26
779.903	728.39
780.085	773.45
780.267	757.07
780.449	652.62
780.631	718.15
780.812	736.59
780.994	636.24
781.176	630.09
781.358	650.57
781.54	666.96
781.721	664.91
781.903	626
782.085	638.28
782.267	626
782.448	656.72
782.63	681.29
782.812	550.22
782.993	580.94
783.175	599.37
783.357	666.96
783.538	533.84
783.72	648.52
783.901	593.23
784.083	544.08
784.264	566.6
784.446	539.98
784.627	458.06
784.809	589.13
784.99	582.99
785.172	525.65
785.353	484.69
785.535	507.21
785.716	523.6
785.897	533.84
786.079	521.55
786.26	505.17
786.441	527.69
786.623	494.93
786.804	453.97
786.985	494.93
787.167	507.21
787.348	392.53
787.529	521.55
787.71	499.02
787.891	582.99
788.073	449.87
788.254	427.34
788.435	542.03
788.616	474.45
788.797	425.29
788.978	462.16
789.159	460.11
789.34	417.1
789.522	378.19
789.703	396.62
789.884	476.49
790.065	482.64
790.246	486.73
790.427	494.93
790.607	458.06
790.788	462.16
790.969	372.05
791.15	410.96
791.331	435.53
791.512	390.48
791.693	390.48
791.874	392.53
792.054	408.91
792.235	470.35
792.416	300.37
792.597	372.05
792.778	378.19
792.958	359.76
793.139	367.95
793.32	341.33
793.5	316.75
793.681	425.29
793.862	419.15
794.042	355.66
794.223	271.7
794.404	380.24
794.584	288.08
794.765	359.76
794.945	316.75
795.126	370
795.306	322.9
795.487	310.61
795.667	347.47
795.848	382.29
796.028	298.32
796.209	329.04
796.389	365.9
796.57	326.99
796.75	347.47
796.93	367.95
797.111	249.17
797.291	318.8
797.471	316.75
797.652	279.89
797.832	343.38
798.012	306.51
798.192	255.31
798.373	271.7
798.553	275.79
798.733	308.56
798.913	288.08
799.093	318.8
799.274	224.59
799.454	281.94
799.634	271.7
799.814	281.94
799.994	335.18
800.174	257.36
800.354	286.03
800.534	279.89
800.714	269.65
800.894	224.59
801.074	247.12
801.254	204.11
801.434	214.35
801.614	222.55
801.794	283.98
801.974	773.45
802.154	238.93
802.334	290.13
802.514	275.79
802.693	294.22
802.873	329.04
803.053	322.9
803.233	288.08
803.413	228.69
803.592	240.98
803.772	253.27
803.952	318.8
804.131	247.12
804.311	247.12
804.491	300.37
804.67	255.31
804.85	228.69
805.03	275.79
805.209	236.88
805.389	187.73
805.568	243.03
805.748	292.18
805.928	206.16
806.107	240.98
806.287	279.89
806.466	249.17
806.646	283.98
806.825	159.06
807.004	257.36
807.184	197.97
807.363	212.31
807.543	195.92
807.722	259.41
807.901	148.82
808.081	210.26
808.26	193.87
808.439	226.64
808.619	251.22
808.798	210.26
808.977	236.88
809.156	208.21
809.336	152.91
809.515	261.46
809.694	175.44
809.873	222.55
810.052	189.78
810.231	234.83
810.411	193.87
810.59	218.45
810.769	218.45
810.948	138.58
811.127	118.1
811.306	228.69
811.485	161.11
811.664	220.5
811.843	173.39
812.022	193.87
812.201	130.39
812.38	226.64
812.559	191.83
812.737	138.58
812.916	73.04
813.095	185.68
813.274	220.5
813.453	296.27
813.632	191.83
813.811	230.74
813.989	107.86
814.168	247.12
814.347	163.15
814.526	224.59
814.704	236.88
814.883	236.88
815.062	144.72
815.24	195.92
815.419	142.68
815.598	111.96
815.776	122.2
815.955	122.2
816.133	157.01
816.312	163.15
816.49	163.15
816.669	79.19
816.847	173.39
817.026	171.35
817.204	132.44
817.383	146.77
817.561	97.62
817.74	136.53
817.918	177.49
818.097	177.49
818.275	134.48
818.453	157.01
818.632	159.06
818.81	152.91
818.988	179.54
819.167	101.72
819.345	163.15
819.523	167.25
819.701	124.24
819.879	138.58
820.058	99.67
820.236	165.2
820.414	165.2
820.592	103.76
820.77	120.15
820.948	50.52
821.127	140.63
821.305	99.67
821.483	107.86
821.661	232.79
821.839	85.33
822.017	120.15
822.195	56.66
822.373	85.33
822.551	75.09
822.729	185.68
822.907	91.48
823.085	109.91
823.262	140.63
823.44	111.96
823.618	191.83
823.796	91.48
823.974	107.86
824.152	62.8
824.329	30.04
824.507	159.06
824.685	148.82
824.863	126.29
825.04	77.14
825.218	206.16
825.396	165.2
825.574	128.34
825.751	60.76
825.929	68.95
826.107	154.96
826.284	97.62
826.462	75.09
826.639	128.34
826.817	91.48
826.994	109.91
827.172	83.28
827.349	126.29
827.527	46.42
827.704	71
827.882	179.54
828.059	60.76
828.237	50.52
828.414	40.28
828.591	42.32
828.769	118.1
828.946	25.94
829.124	89.43
829.301	130.39
829.478	44.37
829.655	93.52
829.833	93.52
830.01	34.13
830.187	54.61
830.364	118.1
830.542	116.05
830.719	109.91
830.896	114
831.073	34.13
831.25	101.72
831.427	150.87
831.604	105.81
831.782	126.29
831.959	132.44
832.136	126.29
832.313	157.01
832.49	73.04
832.667	105.81
832.844	124.24
833.021	130.39
833.198	40.28
833.374	73.04
833.551	81.24
833.728	99.67
833.905	93.52
834.082	60.76
834.259	150.87
834.436	161.11
834.612	62.8
834.789	52.56
834.966	79.19
835.143	118.1
835.319	75.09
835.496	56.66
835.673	140.63
835.85	85.33
836.026	124.24
836.203	120.15
836.38	93.52
836.556	52.56
836.733	48.47
836.909	146.77
837.086	38.23
837.262	122.2
837.439	46.42
837.616	85.33
837.792	62.8
837.968	5.46
838.145	25.94
838.321	118.1
838.498	56.66
838.674	114
838.851	109.91
839.027	64.85
839.203	75.09
839.38	93.52
839.556	56.66
839.732	118.1
839.909	36.18
840.085	93.52
840.261	48.47
840.437	50.52
840.614	91.48
840.79	71
840.966	111.96
841.142	144.72
841.318	44.37
841.494	144.72
841.671	87.38
841.847	-10.92
842.023	15.7
842.199	97.62
842.375	34.13
842.551	52.56
842.727	15.7
842.903	163.15
843.079	9.56
843.255	42.32
843.431	54.61
843.607	93.52
843.783	-2.73
843.959	11.61
844.134	21.84
844.31	95.57
844.486	15.7
844.662	27.99
844.838	-0.68
845.013	34.13
845.189	185.68
845.365	19.8
845.541	42.32
845.716	36.18
845.892	114
846.068	23.89
846.244	97.62
846.419	48.47
846.595	48.47
846.77	-4.78
846.946	77.14
847.122	-25.26
847.297	38.23
847.473	114
847.648	62.8
847.824	101.72
847.999	54.61
848.175	17.75
848.35	23.89
848.526	99.67
848.701	36.18
848.876	89.43
849.052	75.09
849.227	77.14
849.403	46.42
849.578	38.23
849.753	93.52
849.929	15.7
850.104	62.8
850.279	-58.03
850.454	25.94
850.63	77.14
850.805	-37.55
850.98	38.23
851.155	54.61
851.33	54.61
851.505	38.23
851.681	73.04
851.856	27.99
852.031	36.18
852.206	-27.31
852.381	36.18
852.556	3.41
852.731	79.19
852.906	15.7
853.081	97.62
853.256	44.37
853.431	17.75
853.606	32.08
853.781	-25.26
853.956	21.84
854.131	17.75
854.305	-12.97
854.48	60.76
854.655	-12.97
854.83	17.75
855.005	38.23
855.18	50.52
855.354	-6.83
855.529	-10.92
855.704	-37.55
855.879	11.61
856.053	-4.78
856.228	21.84
856.403	44.37
856.577	91.48
856.752	-15.02
856.926	81.24
857.101	34.13
857.276	5.46
857.45	-6.83
857.625	66.9
857.799	-15.02
857.974	-21.16
858.148	-23.21
858.323	19.8
858.497	-4.78
858.672	-27.31
858.846	19.8
859.02	60.76
859.195	46.42
859.369	-29.35
859.543	126.29
859.718	97.62
859.892	17.75
860.066	68.95
860.241	30.04
860.415	42.32
860.589	-29.35
860.763	-58.03
860.938	40.28
861.112	23.89
861.286	27.99
861.46	73.04
861.634	19.8
861.808	11.61
861.982	42.32
862.157	23.89
862.331	75.09
862.505	40.28
862.679	-6.83
862.853	87.38
863.027	27.99
863.201	32.08
863.375	-15.02
863.549	34.13
863.722	9.56
863.896	56.66
864.07	7.51
864.244	13.65
864.418	5.46
864.592	32.08
864.766	9.56
864.939	17.75
865.113	13.65
865.287	23.89
865.461	-84.65
865.634	-23.21
865.808	3.41
865.982	-39.59
866.156	-31.4
866.329	-41.64
866.503	17.75
866.676	9.56
866.85	-41.64
867.024	15.7
867.197	-41.64
867.371	13.65
867.544	71
867.718	44.37
867.891	95.57
868.065	30.04
868.238	23.89
868.412	17.75
868.585	9.56
868.759	7.51
868.932	9.56
869.105	-6.83
869.279	38.23
869.452	3.41
869.625	71
869.799	83.28
869.972	23.89
870.145	23.89
870.319	25.94
870.492	3.41
870.665	38.23
870.838	-21.16
871.011	-60.07
871.185	56.66
871.358	5.46
871.531	-21.16
871.704	3.41
871.877	-33.45
872.05	-29.35
872.223	23.89
872.396	44.37
872.569	48.47
872.742	-21.16
872.915	-39.59
873.088	21.84
873.261	-2.73
873.434	7.51
873.607	-45.74
873.78	7.51
873.953	-17.07
874.126	38.23
874.299	21.84
874.471	-29.35
874.644	13.65
874.817	15.7
874.99	46.42
875.163	-29.35
875.335	5.46
875.508	-33.45
875.681	50.52
875.853	7.51
876.026	-27.31
876.199	87.38
876.371	23.89
876.544	42.32
876.717	-8.87
876.889	-25.26
877.062	17.75
877.234	17.75
877.407	3.41
877.579	36.18
877.752	23.89
877.924	36.18
878.097	48.47
878.269	-66.22
878.442	91.48
878.614	-29.35
878.786	5.46
878.959	-64.17
879.131	-6.83
879.303	21.84
879.476	36.18
879.648	23.89
879.82	5.46
879.993	30.04
880.165	-70.31
880.337	-31.4
880.509	-17.07
880.681	48.47
880.854	32.08
881.026	48.47
881.198	66.9
881.37	-33.45
881.542	-15.02
881.714	-37.55
881.886	36.18
882.058	3.41
882.23	56.66
882.402	9.56
882.574	19.8
882.746	11.61
882.918	73.04
883.09	-31.4
883.262	-47.79
883.434	-2.73
883.606	-2.73
883.778	-21.16
883.95	126.29
884.122	25.94
884.293	50.52
884.465	25.94
884.637	48.47
884.809	-12.97
884.98	-12.97
885.152	-19.11
885.324	-41.64
885.496	-68.27
885.667	-0.68
885.839	7.51
886.011	62.8
886.182	85.33
886.354	134.48
886.525	15.7
886.697	-4.78
886.869	-27.31
887.04	-12.97
887.212	42.32
887.383	15.7
887.555	17.75
887.726	52.56
887.897	34.13
888.069	34.13
888.24	30.04
888.412	-2.73
888.583	-33.45
888.754	1.37
888.926	-70.31
889.097	19.8
889.268	11.61
889.44	79.19
889.611	-33.45
889.782	-39.59
889.953	-15.02
890.125	-8.87
890.296	-43.69
890.467	-31.4
890.638	15.7
890.809	-66.22
890.98	-70.31
891.151	38.23
891.323	3.41
891.494	-6.83
891.665	-4.78
891.836	-37.55
892.007	19.8
892.178	42.32
892.349	-23.21
892.52	-53.93
892.691	-49.83
892.862	-2.73
893.032	-66.22
893.203	-12.97
893.374	60.76
893.545	21.84
893.716	-29.35
893.887	38.23
894.057	-80.55
894.228	1.37
894.399	-33.45
894.57	44.37
894.74	56.66
894.911	75.09
895.082	-51.88
895.253	-84.65
895.423	-10.92
895.594	-58.03
895.764	44.37
895.935	1.37
896.106	-4.78
896.276	-4.78
896.447	-12.97
896.617	21.84
896.788	56.66
896.958	-27.31
897.129	-33.45
897.299	56.66
897.47	32.08
897.64	7.51
897.81	-41.64
897.981	-10.92
898.151	-21.16
898.322	9.56
898.492	44.37
898.662	15.7
898.832	-0.68
899.003	-0.68
899.173	15.7
899.343	3.41
899.513	13.65
