Data from USB4F104151__26__10-21-37-948.txt Node

Date: Wed Mar 12 10:21:37 EDT 2025
User: louis
Spectrometer: USB4F10415
Trigger mode: 4
Integration Time (sec): 3.000000E-2
Scans to average: 1
Electric dark correction enabled: true
Nonlinearity correction enabled: false
Boxcar width: 0
XAxis mode: Wavelengths
Number of Pixels in Spectrum: 3648
>>>>>Begin Spectral Data<<<<<
178.204	-52.39
178.424	-52.39
178.644	-52.39
178.864	-111.78
179.084	-111.78
179.304	21.33
179.524	-85.16
179.744	-42.15
179.964	101.2
180.184	-36.01
180.404	9.05
180.624	-27.82
180.844	-9.39
181.064	-19.63
181.283	80.72
181.503	9.05
181.723	-1.19
181.943	-44.2
182.163	129.88
182.383	29.52
182.602	47.96
182.822	58.2
183.042	-17.58
183.262	33.62
183.482	-11.43
183.701	33.62
183.921	43.86
184.141	-42.15
184.361	-54.44
184.58	7
184.8	-29.87
185.02	-81.07
185.239	43.86
185.459	-31.91
185.679	25.43
185.898	31.57
186.118	88.92
186.338	13.14
186.557	17.24
186.777	-27.82
186.997	23.38
187.216	-44.2
187.436	62.29
187.655	-5.29
187.875	107.35
188.095	39.76
188.314	74.58
188.534	31.57
188.753	9.05
188.973	86.87
189.192	13.14
189.412	-1.19
189.631	70.48
189.851	31.57
190.07	27.48
190.29	-83.11
190.509	7
190.729	-54.44
190.948	78.68
191.168	47.96
191.387	72.53
191.607	-15.53
191.826	25.43
192.045	7
192.265	-3.24
192.484	-72.87
192.704	-3.24
192.923	21.33
193.142	66.39
193.362	107.35
193.581	17.24
193.8	4.95
194.02	43.86
194.239	29.52
194.458	23.38
194.678	21.33
194.897	-64.68
195.116	41.81
195.335	97.11
195.555	2.9
195.774	-76.97
195.993	-40.11
196.212	13.14
196.432	-40.11
196.651	47.96
196.87	15.19
197.089	90.96
197.308	7
197.528	86.87
197.747	-19.63
197.966	9.05
198.185	47.96
198.404	-19.63
198.623	74.58
198.842	9.05
199.062	29.52
199.281	27.48
199.5	-27.82
199.719	68.44
199.938	-31.91
200.157	-19.63
200.376	47.96
200.595	127.83
200.814	-21.67
201.033	0.85
201.252	78.68
201.471	19.29
201.69	58.2
201.909	97.11
202.128	-7.34
202.347	-44.2
202.566	17.24
202.785	21.33
203.004	13.14
203.223	41.81
203.442	15.19
203.661	29.52
203.879	70.48
204.098	15.19
204.317	-23.72
204.536	4.95
204.755	25.43
204.974	21.33
205.193	-9.39
205.411	99.16
205.63	-44.2
205.849	-27.82
206.068	62.29
206.287	0.85
206.505	37.72
206.724	62.29
206.943	-17.58
207.162	-40.11
207.381	13.14
207.599	9.05
207.818	50
208.037	64.34
208.255	-54.44
208.474	27.48
208.693	-9.39
208.911	31.57
209.13	103.25
209.349	58.2
209.567	-38.06
209.786	0.85
210.005	50
210.223	21.33
210.442	-1.19
210.661	7
210.879	-11.43
211.098	21.33
211.316	27.48
211.535	15.19
211.753	-15.53
211.972	-40.11
212.191	-33.96
212.409	70.48
212.628	-13.48
212.846	17.24
213.065	-17.58
213.283	97.11
213.502	9.05
213.72	21.33
213.938	66.39
214.157	-3.24
214.375	56.15
214.594	-7.34
214.812	97.11
215.031	19.29
215.249	-15.53
215.467	-7.34
215.686	-23.72
215.904	45.91
216.122	39.76
216.341	-1.19
216.559	33.62
216.778	50
216.996	-31.91
217.214	62.29
217.432	41.81
217.651	15.19
217.869	4.95
218.087	-52.39
218.306	13.14
218.524	-15.53
218.742	62.29
218.96	64.34
219.179	-19.63
219.397	31.57
219.615	54.1
219.833	7
220.051	56.15
220.27	31.57
220.488	17.24
220.706	41.81
220.924	27.48
221.142	-21.67
221.36	47.96
221.578	-11.43
221.796	2.9
222.015	9.05
222.233	-36.01
222.451	64.34
222.669	-76.97
222.887	47.96
223.105	31.57
223.323	11.09
223.541	-1.19
223.759	13.14
223.977	11.09
224.195	-17.58
224.413	64.34
224.631	17.24
224.849	19.29
225.067	41.81
225.285	-36.01
225.503	17.24
225.721	4.95
225.939	27.48
226.157	4.95
226.375	62.29
226.592	0.85
226.81	39.76
227.028	82.77
227.246	47.96
227.464	70.48
227.682	58.2
227.9	45.91
228.117	25.43
228.335	25.43
228.553	64.34
228.771	-11.43
228.989	43.86
229.206	-7.34
229.424	-3.24
229.642	-54.44
229.86	70.48
230.077	23.38
230.295	19.29
230.513	39.76
230.731	-52.39
230.948	-48.3
231.166	37.72
231.384	31.57
231.601	82.77
231.819	13.14
232.037	90.96
232.254	50
232.472	19.29
232.689	62.29
232.907	33.62
233.125	58.2
233.342	-15.53
233.56	95.06
233.777	9.05
233.995	50
234.213	29.52
234.43	-25.77
234.648	39.76
234.865	-1.19
235.083	17.24
235.3	-1.19
235.518	35.67
235.735	109.4
235.953	111.44
236.17	9.05
236.388	-29.87
236.605	39.76
236.822	95.06
237.04	64.34
237.257	-7.34
237.475	-7.34
237.692	9.05
237.909	31.57
238.127	13.14
238.344	58.2
238.562	43.86
238.779	-44.2
238.996	66.39
239.214	56.15
239.431	43.86
239.648	-31.91
239.865	60.24
240.083	11.09
240.3	56.15
240.517	-72.87
240.735	19.29
240.952	54.1
241.169	13.14
241.386	-19.63
241.603	13.14
241.821	-1.19
242.038	74.58
242.255	39.76
242.472	-56.49
242.689	27.48
242.907	76.63
243.124	56.15
243.341	50
243.558	27.48
243.775	15.19
243.992	-36.01
244.209	25.43
244.426	117.59
244.643	52.05
244.86	-11.43
245.078	-44.2
245.295	-13.48
245.512	-7.34
245.729	-1.19
245.946	0.85
246.163	41.81
246.38	-13.48
246.597	-19.63
246.814	41.81
247.031	50
247.248	25.43
247.464	39.76
247.681	9.05
247.898	19.29
248.115	-17.58
248.332	-36.01
248.549	15.19
248.766	25.43
248.983	35.67
249.2	52.05
249.417	9.05
249.633	-33.96
249.85	58.2
250.067	0.85
250.284	47.96
250.501	17.24
250.717	7
250.934	-3.24
251.151	-1.19
251.368	-31.91
251.585	56.15
251.801	0.85
252.018	-40.11
252.235	64.34
252.451	-36.01
252.668	0.85
252.885	39.76
253.102	70.48
253.318	50
253.535	11.09
253.752	-17.58
253.968	-50.35
254.185	37.72
254.401	-29.87
254.618	54.1
254.835	21.33
255.051	-27.82
255.268	33.62
255.484	15.19
255.701	-21.67
255.917	31.57
256.134	25.43
256.351	13.14
256.567	-5.29
256.784	56.15
257	52.05
257.217	105.3
257.433	105.3
257.65	47.96
257.866	-19.63
258.082	23.38
258.299	-31.91
258.515	35.67
258.732	-31.91
258.948	17.24
259.165	131.92
259.381	66.39
259.597	29.52
259.814	33.62
260.03	-17.58
260.246	9.05
260.463	9.05
260.679	54.1
260.895	-7.34
261.112	-40.11
261.328	0.85
261.544	-11.43
261.761	117.59
261.977	25.43
262.193	41.81
262.409	58.2
262.626	58.2
262.842	99.16
263.058	13.14
263.274	41.81
263.49	78.68
263.707	35.67
263.923	-3.24
264.139	-7.34
264.355	-23.72
264.571	82.77
264.787	7
265.004	-25.77
265.22	-23.72
265.436	78.68
265.652	-44.2
265.868	-15.53
266.084	15.19
266.3	-1.19
266.516	17.24
266.732	52.05
266.948	0.85
267.164	27.48
267.38	19.29
267.596	11.09
267.812	62.29
268.028	29.52
268.244	11.09
268.46	31.57
268.676	-9.39
268.892	17.24
269.108	-58.54
269.324	47.96
269.54	-48.3
269.756	101.2
269.972	-31.91
270.188	-3.24
270.403	9.05
270.619	45.91
270.835	60.24
271.051	-36.01
271.267	9.05
271.483	43.86
271.698	-9.39
271.914	13.14
272.13	-58.54
272.346	66.39
272.562	60.24
272.777	17.24
272.993	23.38
273.209	29.52
273.425	70.48
273.64	-31.91
273.856	47.96
274.072	-9.39
274.287	-7.34
274.503	0.85
274.719	78.68
274.934	17.24
275.15	25.43
275.366	-7.34
275.581	41.81
275.797	-15.53
276.012	9.05
276.228	-9.39
276.444	9.05
276.659	99.16
276.875	-29.87
277.09	-3.24
277.306	-31.91
277.521	62.29
277.737	76.63
277.952	115.54
278.168	-7.34
278.383	39.76
278.599	47.96
278.814	125.78
279.03	80.72
279.245	86.87
279.461	23.38
279.676	13.14
279.892	-7.34
280.107	35.67
280.322	-9.39
280.538	-7.34
280.753	-36.01
280.969	2.9
281.184	52.05
281.399	103.25
281.615	39.76
281.83	45.91
282.045	-42.15
282.26	-15.53
282.476	-46.25
282.691	37.72
282.906	9.05
283.122	17.24
283.337	-13.48
283.552	97.11
283.767	-33.96
283.983	54.1
284.198	-1.19
284.413	45.91
284.628	50
284.843	11.09
285.058	72.53
285.274	-33.96
285.489	13.14
285.704	95.06
285.919	33.62
286.134	-19.63
286.349	17.24
286.564	-48.3
286.779	54.1
286.995	-5.29
287.21	-38.06
287.425	60.24
287.64	66.39
287.855	21.33
288.07	-33.96
288.285	117.59
288.5	47.96
288.715	54.1
288.93	68.44
289.145	-21.67
289.36	66.39
289.575	90.96
289.79	45.91
290.004	45.91
290.219	74.58
290.434	7
290.649	-5.29
290.864	-36.01
291.079	11.09
291.294	-29.87
291.509	0.85
291.724	66.39
291.938	39.76
292.153	47.96
292.368	13.14
292.583	-17.58
292.798	56.15
293.012	50
293.227	17.24
293.442	29.52
293.657	-25.77
293.871	4.95
294.086	64.34
294.301	66.39
294.516	23.38
294.73	66.39
294.945	33.62
295.16	43.86
295.374	-38.06
295.589	25.43
295.804	9.05
296.018	-19.63
296.233	37.72
296.447	54.1
296.662	-44.2
296.877	-64.68
297.091	15.19
297.306	58.2
297.52	-11.43
297.735	-25.77
297.949	-5.29
298.164	25.43
298.378	41.81
298.593	27.48
298.807	27.48
299.022	99.16
299.236	4.95
299.451	-21.67
299.665	47.96
299.88	17.24
300.094	-17.58
300.309	-15.53
300.523	50
300.737	-7.34
300.952	78.68
301.166	97.11
301.381	4.95
301.595	-9.39
301.809	11.09
302.024	-60.59
302.238	-11.43
302.452	25.43
302.667	17.24
302.881	45.91
303.095	-9.39
303.309	-25.77
303.524	-1.19
303.738	4.95
303.952	41.81
304.166	-15.53
304.381	-56.49
304.595	13.14
304.809	37.72
305.023	13.14
305.237	23.38
305.452	17.24
305.666	56.15
305.88	127.83
306.094	-15.53
306.308	-3.24
306.522	109.4
306.736	27.48
306.95	2.9
307.164	68.44
307.379	-36.01
307.593	123.73
307.807	37.72
308.021	101.2
308.235	-44.2
308.449	54.1
308.663	29.52
308.877	58.2
309.091	29.52
309.305	56.15
309.519	-27.82
309.733	111.44
309.947	-29.87
310.161	43.86
310.374	47.96
310.588	27.48
310.802	50
311.016	-33.96
311.23	74.58
311.444	17.24
311.658	-5.29
311.872	31.57
312.085	62.29
312.299	9.05
312.513	-7.34
312.727	64.34
312.941	50
313.154	29.52
313.368	-19.63
313.582	25.43
313.796	31.57
314.009	-17.58
314.223	54.1
314.437	64.34
314.651	64.34
314.864	4.95
315.078	13.14
315.292	-11.43
315.505	-50.35
315.719	17.24
315.933	-25.77
316.146	-15.53
316.36	0.85
316.573	23.38
316.787	99.16
317.001	50
317.214	21.33
317.428	41.81
317.641	-48.3
317.855	37.72
318.068	25.43
318.282	119.64
318.495	45.91
318.709	62.29
318.922	-42.15
319.136	45.91
319.349	123.73
319.563	-3.24
319.776	86.87
319.99	-19.63
320.203	60.24
320.417	68.44
320.63	17.24
320.843	35.67
321.057	39.76
321.27	35.67
321.483	2.9
321.697	58.2
321.91	41.81
322.124	68.44
322.337	-7.34
322.55	25.43
322.763	33.62
322.977	33.62
323.19	21.33
323.403	-44.2
323.617	37.72
323.83	2.9
324.043	50
324.256	50
324.469	-15.53
324.683	31.57
324.896	47.96
325.109	-5.29
325.322	-68.78
325.535	68.44
325.748	9.05
325.962	39.76
326.175	33.62
326.388	19.29
326.601	74.58
326.814	78.68
327.027	-60.59
327.24	39.76
327.453	-19.63
327.666	66.39
327.879	66.39
328.092	129.88
328.305	54.1
328.518	68.44
328.731	64.34
328.944	-11.43
329.157	9.05
329.37	84.82
329.583	35.67
329.796	21.33
330.009	13.14
330.222	45.91
330.435	74.58
330.648	31.57
330.861	-3.24
331.073	31.57
331.286	56.15
331.499	-40.11
331.712	-11.43
331.925	131.92
332.138	9.05
332.35	-33.96
332.563	7
332.776	62.29
332.989	-60.59
333.202	-48.3
333.414	-62.63
333.627	47.96
333.84	21.33
334.053	70.48
334.265	54.1
334.478	-31.91
334.691	19.29
334.903	50
335.116	31.57
335.329	31.57
335.541	86.87
335.754	80.72
335.966	-1.19
336.179	31.57
336.392	27.48
336.604	37.72
336.817	115.54
337.029	56.15
337.242	13.14
337.454	39.76
337.667	37.72
337.88	23.38
338.092	74.58
338.305	41.81
338.517	-42.15
338.729	80.72
338.942	45.91
339.154	0.85
339.367	-1.19
339.579	41.81
339.792	25.43
340.004	62.29
340.217	37.72
340.429	29.52
340.641	41.81
340.854	0.85
341.066	84.82
341.278	66.39
341.491	123.73
341.703	-11.43
341.915	47.96
342.128	76.63
342.34	93.01
342.552	17.24
342.764	74.58
342.977	45.91
343.189	17.24
343.401	52.05
343.613	45.91
343.826	35.67
344.038	50
344.25	66.39
344.462	-3.24
344.674	29.52
344.886	-9.39
345.099	15.19
345.311	35.67
345.523	33.62
345.735	21.33
345.947	9.05
346.159	13.14
346.371	35.67
346.583	109.4
346.795	103.25
347.007	-29.87
347.219	29.52
347.431	27.48
347.643	-19.63
347.855	19.29
348.067	-17.58
348.279	-1.19
348.491	41.81
348.703	17.24
348.915	4.95
349.127	66.39
349.339	-15.53
349.551	-97.45
349.763	62.29
349.975	-40.11
350.187	0.85
350.399	88.92
350.61	0.85
350.822	62.29
351.034	66.39
351.246	13.14
351.458	93.01
351.669	39.76
351.881	107.35
352.093	41.81
352.305	74.58
352.517	-36.01
352.728	82.77
352.94	74.58
353.152	93.01
353.363	9.05
353.575	21.33
353.787	45.91
353.999	50
354.21	54.1
354.422	50
354.633	9.05
354.845	-11.43
355.057	66.39
355.268	19.29
355.48	127.83
355.692	60.24
355.903	39.76
356.115	54.1
356.326	41.81
356.538	15.19
356.749	60.24
356.961	76.63
357.172	15.19
357.384	23.38
357.595	62.29
357.807	136.02
358.018	70.48
358.23	25.43
358.441	101.2
358.653	88.92
358.864	45.91
359.075	50
359.287	31.57
359.498	-40.11
359.709	66.39
359.921	72.53
360.132	-21.67
360.344	15.19
360.555	-11.43
360.766	37.72
360.977	25.43
361.189	47.96
361.4	25.43
361.611	72.53
361.823	33.62
362.034	19.29
362.245	-36.01
362.456	21.33
362.667	82.77
362.879	66.39
363.09	-7.34
363.301	58.2
363.512	70.48
363.723	68.44
363.935	-1.19
364.146	66.39
364.357	0.85
364.568	88.92
364.779	-1.19
364.99	-36.01
365.201	-1.19
365.412	43.86
365.623	-1.19
365.834	11.09
366.045	56.15
366.256	62.29
366.467	31.57
366.678	47.96
366.889	21.33
367.1	47.96
367.311	74.58
367.522	56.15
367.733	123.73
367.944	74.58
368.155	47.96
368.366	39.76
368.577	-17.58
368.788	50
368.999	-21.67
369.209	4.95
369.42	127.83
369.631	117.59
369.842	-42.15
370.053	0.85
370.264	25.43
370.474	70.48
370.685	68.44
370.896	33.62
371.107	90.96
371.317	23.38
371.528	17.24
371.739	56.15
371.95	19.29
372.16	-1.19
372.371	9.05
372.582	-21.67
372.792	88.92
373.003	66.39
373.214	101.2
373.424	-1.19
373.635	-17.58
373.846	80.72
374.056	99.16
374.267	2.9
374.477	70.48
374.688	39.76
374.898	45.91
375.109	29.52
375.319	90.96
375.53	13.14
375.74	76.63
375.951	58.2
376.161	17.24
376.372	66.39
376.582	17.24
376.793	43.86
377.003	66.39
377.214	25.43
377.424	72.53
377.635	-42.15
377.845	23.38
378.055	47.96
378.266	-27.82
378.476	66.39
378.686	41.81
378.897	95.06
379.107	62.29
379.317	78.68
379.528	-3.24
379.738	107.35
379.948	45.91
380.158	17.24
380.369	7
380.579	15.19
380.789	7
380.999	60.24
381.21	41.81
381.42	88.92
381.63	-5.29
381.84	58.2
382.05	15.19
382.261	33.62
382.471	70.48
382.681	37.72
382.891	82.77
383.101	123.73
383.311	-52.39
383.521	76.63
383.731	50
383.941	115.54
384.151	117.59
384.361	15.19
384.571	105.3
384.781	52.05
384.991	99.16
385.201	103.25
385.411	29.52
385.621	23.38
385.831	103.25
386.041	123.73
386.251	41.81
386.461	62.29
386.671	23.38
386.881	107.35
387.091	-38.06
387.301	86.87
387.511	66.39
387.72	90.96
387.93	41.81
388.14	45.91
388.35	103.25
388.56	129.88
388.769	2.9
388.979	58.2
389.189	70.48
389.399	-11.43
389.609	99.16
389.818	25.43
390.028	72.53
390.238	121.68
390.447	27.48
390.657	129.88
390.867	15.19
391.076	21.33
391.286	70.48
391.496	111.44
391.705	78.68
391.915	129.88
392.125	33.62
392.334	9.05
392.544	47.96
392.753	21.33
392.963	37.72
393.172	37.72
393.382	54.1
393.591	105.3
393.801	123.73
394.01	111.44
394.22	113.49
394.429	62.29
394.639	99.16
394.848	111.44
395.058	43.86
395.267	41.81
395.477	90.96
395.686	70.48
395.895	50
396.105	117.59
396.314	33.62
396.524	131.92
396.733	99.16
396.942	123.73
397.152	62.29
397.361	82.77
397.57	29.52
397.78	90.96
397.989	47.96
398.198	117.59
398.407	29.52
398.617	121.68
398.826	58.2
399.035	90.96
399.244	82.77
399.453	117.59
399.663	68.44
399.872	125.78
400.081	107.35
400.29	113.49
400.499	88.92
400.708	107.35
400.917	97.11
401.127	115.54
401.336	88.92
401.545	164.69
401.754	113.49
401.963	140.12
402.172	68.44
402.381	101.2
402.59	115.54
402.799	82.77
403.008	154.45
403.217	217.94
403.426	131.92
403.635	107.35
403.844	203.6
404.053	97.11
404.262	140.12
404.471	174.93
404.68	123.73
404.888	142.16
405.097	140.12
405.306	183.12
405.515	189.27
405.724	47.96
405.933	164.69
406.142	109.4
406.35	201.55
406.559	181.07
406.768	127.83
406.977	238.42
407.185	230.23
407.394	138.07
407.603	117.59
407.812	262.99
408.02	230.23
408.229	187.22
408.438	277.33
408.646	211.79
408.855	205.65
409.064	209.75
409.272	156.5
409.481	236.37
409.69	228.18
409.898	260.95
410.107	260.95
410.315	324.43
410.524	365.39
410.733	371.54
410.941	242.51
411.15	340.82
411.358	379.73
411.567	353.1
411.775	410.45
411.984	418.64
412.192	435.02
412.401	461.65
412.609	430.93
412.818	514.89
413.026	471.89
413.234	496.46
413.443	557.9
413.651	508.75
413.86	568.14
414.068	555.85
414.276	574.28
414.485	672.59
414.693	705.35
414.901	729.93
415.11	725.83
415.318	729.93
415.526	742.22
415.734	758.6
415.943	752.46
416.151	807.75
416.359	772.94
416.567	867.14
416.776	856.9
416.984	1016.65
417.192	1006.41
417.4	983.88
417.608	936.78
417.817	1037.13
418.025	1125.19
418.233	1133.38
418.441	1063.75
418.649	1127.24
418.857	1243.97
419.065	1235.78
419.273	1260.35
419.481	1432.38
419.689	1446.72
419.897	1577.79
420.105	1487.68
420.313	1563.45
420.521	1604.41
420.729	1721.15
420.937	1723.2
421.145	1753.91
421.353	1917.75
421.561	1868.6
421.769	1995.57
421.977	2044.73
422.185	2161.46
422.393	2130.74
422.601	2315.06
422.809	2302.77
423.017	2261.81
423.224	2499.38
423.432	2569.01
423.64	2417.46
423.848	2775.85
424.056	2634.54
424.263	2843.43
424.471	3029.8
424.679	2874.15
424.887	3144.49
425.094	3187.49
425.302	3105.57
425.51	3347.23
425.718	3361.57
425.925	3390.24
426.133	3601.18
426.341	3822.36
426.548	4006.68
426.756	4033.3
426.964	3943.19
427.171	4236.05
427.379	4313.88
427.586	4481.81
427.794	4455.19
428.001	4858.64
428.209	4872.97
428.417	4969.23
428.624	5337.86
428.832	5278.47
429.039	5169.93
429.247	5393.16
429.454	5737.21
429.662	6079.22
429.869	5827.32
430.076	6152.95
430.284	5882.62
430.491	6324.98
430.699	6423.28
430.906	6466.29
431.114	6615.79
431.321	6861.55
431.528	7144.17
431.736	7373.54
431.943	7725.79
432.15	7557.86
432.358	7660.26
432.565	7926.49
432.772	8108.76
432.979	8567.51
433.187	8571.6
433.394	8825.55
433.601	9220.81
433.808	9206.47
434.016	9325.26
434.223	9472.71
434.43	10126.01
434.637	9886.4
434.844	10736.31
435.052	10967.73
435.259	10769.07
435.466	10853.04
435.673	10642.1
435.88	11365.03
436.087	11754.15
436.294	11770.53
436.501	11725.47
436.708	11868.83
436.915	12286.62
437.122	12685.97
437.329	12718.74
437.537	13433.48
437.743	13445.77
437.95	13666.95
438.157	13931.14
438.364	14613.11
438.571	14424.7
438.778	14582.39
438.985	16015.97
439.192	15377
439.399	15962.72
439.606	15573.61
439.813	16362.08
440.02	17183.31
440.227	16810.58
440.433	16882.26
440.64	17429.07
440.847	17357.39
441.054	17338.96
441.261	18760.25
441.467	18473.53
441.674	19262
441.881	19778.09
442.088	19976.74
442.294	19421.74
442.501	20017.7
442.708	20193.83
442.914	21486.09
443.121	21953.03
443.328	21410.32
443.534	22798.84
443.741	22286.85
443.948	22209.03
444.154	23810.54
444.361	23482.86
444.568	23783.91
444.774	23777.77
444.981	24015.33
445.187	24488.42
445.394	25317.84
445.6	24981.98
445.807	27718.06
446.013	26247.62
446.22	27175.35
446.426	28010.92
446.633	28412.32
446.839	29204.89
447.046	27961.77
447.252	29295
447.459	29368.73
447.665	28989.85
447.871	30431.62
448.078	31945.07
448.284	30343.56
448.491	30957.95
448.697	32377.19
448.903	32950.62
449.11	33042.78
449.316	32393.58
449.522	32412.01
449.728	33745.23
449.935	34300.23
450.141	33984.85
450.347	34519.37
450.553	33487.19
450.76	33687.89
450.966	35055.93
451.172	34718.02
451.378	35342.65
451.584	34535.75
451.791	35561.78
451.997	35141.95
452.203	35725.62
452.409	35678.52
452.615	35443
452.821	34191.69
453.027	33827.15
453.233	35752.24
453.44	33835.35
453.646	34806.08
453.852	35064.13
454.058	35064.13
454.264	34144.59
454.47	34834.75
454.676	33601.88
454.882	34877.76
455.088	31547.76
455.294	32295.27
455.5	32829.79
455.705	33159.52
455.911	31996.27
456.117	30839.17
456.323	30294.41
456.529	28944.8
456.735	30286.22
456.941	29432.21
457.147	28930.46
457.352	27937.2
457.558	27697.58
457.764	27845.04
457.97	27146.68
458.176	26476.99
458.381	26628.54
458.587	25364.95
458.793	25410
458.999	24136.17
459.204	25682.38
459.41	24920.54
459.616	23476.72
459.821	23331.31
460.027	23605.74
460.233	23040.5
460.438	21613.07
460.644	21817.86
460.85	20722.2
461.055	20597.28
461.261	20578.84
461.466	19204.66
461.672	18629.18
461.878	19749.42
462.083	18602.55
462.289	18192.96
462.494	18080.32
462.7	17048.15
462.905	16460.38
463.111	17351.24
463.316	17285.71
463.522	16874.07
463.727	16937.55
463.932	16996.95
464.138	16820.82
464.343	16894.55
464.549	16552.54
464.754	17226.32
464.959	16955.99
465.165	16933.46
465.37	16099.94
465.575	15786.6
465.781	16011.87
465.986	16405.08
466.191	15598.18
466.397	15239.79
466.602	14877.3
466.807	15233.64
467.012	15317.61
467.218	15233.64
467.423	15028.85
467.628	15164.01
467.833	15725.16
468.038	15131.25
468.244	14905.97
468.449	15272.56
468.654	14713.46
468.859	14887.54
469.064	14707.32
469.269	14033.54
469.474	14039.68
469.679	14328.44
469.885	13980.29
470.09	14097.02
470.295	14068.35
470.5	13636.23
470.705	13763.2
470.91	13494.92
471.115	13523.59
471.32	13597.32
471.525	13281.93
471.73	13161.1
471.935	13089.42
472.139	12606.1
472.344	12827.28
472.549	12608.15
472.754	12616.34
472.959	12331.67
473.164	11965.09
473.369	11707.04
473.574	12190.36
473.778	12087.96
473.983	12104.35
474.188	11844.26
474.393	11477.67
474.598	11485.86
474.802	11510.44
475.007	11379.37
475.212	11367.08
475.417	10883.76
475.621	10943.15
475.826	10984.11
476.031	10691.25
476.235	10695.35
476.44	10875.57
476.645	10420.92
476.849	10445.49
477.054	10406.58
477.259	10382.01
477.463	10283.7
477.668	10142.39
477.872	10289.85
478.077	10101.44
478.282	9847.49
478.486	9593.54
478.691	9687.75
478.895	9644.74
479.1	9474.76
479.304	9452.23
479.509	9370.31
479.713	9622.21
479.918	9261.77
480.122	9097.93
480.326	9394.89
480.531	9259.72
480.735	9196.23
480.94	9093.83
481.144	9317.06
481.348	8866.51
481.553	9020.11
481.757	8733.39
481.961	9026.25
482.166	9099.98
482.37	8956.62
482.574	8803.02
482.778	8819.41
482.983	9208.52
483.187	8940.24
483.391	9052.88
483.595	8776.4
483.8	8776.4
484.004	8856.27
484.208	9003.72
484.412	8913.61
484.616	8950.48
484.821	8872.65
485.025	8829.65
485.229	9128.65
485.433	8860.37
485.637	8788.69
485.841	8954.57
486.045	8905.42
486.249	9038.54
486.453	8903.37
486.657	8807.12
486.861	8999.63
487.065	8542.93
487.269	8909.52
487.473	8694.48
487.677	8886.99
487.881	9007.82
488.085	8915.66
488.289	8878.8
488.493	8956.62
488.697	9065.16
488.901	8886.99
489.105	8893.13
489.309	9097.93
489.512	8923.85
489.716	9071.31
489.92	9067.21
490.124	8962.76
490.328	9171.66
490.531	9073.35
490.735	9171.66
490.939	9171.66
491.143	9130.7
491.346	9233.1
491.55	9118.41
491.754	9192.14
491.958	9480.9
492.161	9188.04
492.365	9362.12
492.569	9331.4
492.772	9566.92
492.976	9560.77
493.18	9405.13
493.383	9761.47
493.587	9958.08
493.79	9736.9
493.994	9855.68
494.197	9956.03
494.401	9990.84
494.605	10181.31
494.808	10146.49
495.012	10347.19
495.215	10146.49
495.419	10330.81
495.622	10390.2
495.825	10605.24
496.029	10439.35
496.232	10767.03
496.436	10660.53
496.639	11106.99
496.843	10781.36
497.046	11205.29
497.249	11313.83
497.453	11387.56
497.656	11459.24
497.859	11340.46
498.063	11555.49
498.266	11791.01
498.469	11580.07
498.673	11819.68
498.876	12221.08
499.079	12366.49
499.282	12196.51
499.485	12849.81
499.689	12575.38
499.892	12837.52
500.095	12939.92
500.298	13068.94
500.501	12941.97
500.705	13185.68
500.908	13539.97
501.111	13660.8
501.314	13789.83
501.517	14129.79
501.72	14078.59
501.923	14279.29
502.126	14549.62
502.329	14729.84
502.532	14815.86
502.735	14672.5
502.938	14944.88
503.141	15168.11
503.344	15434.35
503.547	15686.25
503.75	15831.65
503.953	16036.45
504.156	15835.75
504.359	16024.16
504.562	16544.34
504.765	16847.44
504.968	16716.37
505.17	16810.58
505.373	16880.21
505.576	17277.52
505.779	17412.68
505.982	17693.26
506.185	17822.28
506.387	18301.5
506.59	18444.86
506.793	18496.06
506.996	18643.51
507.198	19098.16
507.401	18971.19
507.604	19122.74
507.807	19556.91
508.009	19974.69
508.212	19855.91
508.415	20148.77
508.617	20126.24
508.82	20544.03
509.022	20435.49
509.225	20892.18
509.428	21277.2
509.63	21314.06
509.833	21488.14
510.035	21791.24
510.238	21774.86
510.44	22055.43
510.643	22548.99
510.845	22782.46
511.048	22399.49
511.25	23181.81
511.453	23110.13
511.655	24177.12
511.858	23947.75
512.06	23824.87
512.262	24269.28
512.465	24355.3
512.667	24781.28
512.87	25082.33
513.072	25305.56
513.274	25821.64
513.477	25885.13
513.679	26167.75
513.881	26292.68
514.084	26692.03
514.286	26618.3
514.488	26911.16
514.69	27474.35
514.893	27578.8
515.095	27640.24
515.297	27933.1
515.499	28084.65
515.701	28602.78
515.904	29053.34
516.106	28785.05
516.308	29213.08
516.51	29608.34
516.712	29512.08
516.914	30015.88
517.116	30708.1
517.318	30452.1
517.52	31039.87
517.722	31127.93
517.925	31414.65
518.127	32199.02
518.329	32076.14
518.531	31936.88
518.733	32702.82
518.935	32907.62
519.136	33007.97
519.338	33765.71
519.54	33849.68
519.742	33835.35
519.944	33984.85
520.146	34916.67
520.348	34814.27
520.55	35393.85
520.752	35248.44
520.954	35825.97
521.155	35283.26
521.357	36231.47
521.559	36786.47
521.761	37042.46
521.963	37036.32
522.164	37208.35
522.366	37677.33
522.568	38005.01
522.77	38099.22
522.971	38529.29
523.173	38433.03
523.375	39143.68
523.576	39016.71
523.778	38977.79
523.98	39620.86
524.181	39923.96
524.383	40138.99
524.584	40278.25
524.786	40347.89
524.988	40327.41
525.189	41330.91
525.391	41240.8
525.592	41703.64
525.794	41367.77
525.995	41537.76
526.197	41744.6
526.398	41818.33
526.6	42420.43
526.801	42733.77
527.003	42911.94
527.204	42756.3
527.406	43026.63
527.607	43223.23
527.808	43634.88
528.01	42922.18
528.211	43266.24
528.412	43821.24
528.614	43890.87
528.815	44040.37
529.016	44456.11
529.218	43980.98
529.419	44644.52
529.62	44325.04
529.822	44257.46
530.023	44615.85
530.224	44210.35
530.425	44959.91
530.626	44638.38
530.828	44363.95
531.029	45746.33
531.23	45043.88
531.431	45209.76
531.632	45234.34
531.833	45486.24
532.035	45222.05
532.236	45680.8
532.437	46086.29
532.638	45715.61
532.839	45734.04
533.04	45504.67
533.241	45729.95
533.442	46184.6
533.643	46041.24
533.844	45617.31
534.045	46416.02
534.246	46123.16
534.447	46352.53
534.648	46059.67
534.849	46352.53
535.05	46264.47
535.251	46063.77
535.451	46291.09
535.652	46471.31
535.853	46200.98
536.054	46303.38
536.255	46393.49
536.456	46127.25
536.657	46925.96
536.857	46254.23
537.058	45992.09
537.259	46655.63
537.46	46565.52
537.66	46508.18
537.861	46477.46
538.062	46200.98
538.263	46459.02
538.463	46166.16
538.664	46266.52
538.865	46516.37
539.065	46870.67
539.266	45965.46
539.466	46715.02
539.667	45844.63
539.868	47009.93
540.068	46170.26
540.269	46131.35
540.469	46782.6
540.67	45926.55
540.87	46319.76
541.071	46237.84
541.271	46971.02
541.472	45901.98
541.672	45701.28
541.873	46057.62
542.073	45707.42
542.274	46538.9
542.474	46442.64
542.675	45770.91
542.875	46485.65
543.075	46170.26
543.276	45813.91
543.476	46270.61
543.676	45770.91
543.877	46618.77
544.077	46024.86
544.277	46028.95
544.478	46000.28
544.678	46280.85
544.878	45678.75
545.078	46065.81
545.279	46084.25
545.479	46102.68
545.679	45912.22
545.879	46336.15
546.079	46131.35
546.28	45795.48
546.48	45713.56
546.68	46368.91
546.88	46174.36
547.08	46137.49
547.28	46057.62
547.48	45656.22
547.68	45916.31
547.88	45574.3
548.081	45869.21
548.281	46139.54
548.481	45719.71
548.681	46327.95
548.881	46006.42
549.081	45734.04
549.28	45705.37
549.48	46100.63
549.68	45889.69
549.88	46264.47
550.08	45164.71
550.28	45588.64
550.48	45787.29
550.68	46020.76
550.88	45238.44
551.08	45785.24
551.279	45412.51
551.479	45140.13
551.679	45662.36
551.879	45746.33
552.079	45746.33
552.278	45598.88
552.478	45746.33
552.678	45961.37
552.878	45752.48
553.077	45619.36
553.277	45011.11
553.477	45742.24
553.676	45084.84
553.876	45476
554.076	45097.13
554.275	45328.55
554.475	44865.7
554.674	45228.2
554.874	45533.34
555.074	45275.3
555.273	45283.49
555.473	45375.65
555.672	44988.58
555.872	45099.17
556.071	45054.12
556.271	45222.05
556.47	44628.14
556.67	44429.49
556.869	44910.76
557.068	44894.38
557.268	44314.8
557.467	44503.21
557.667	44755.11
557.866	44898.47
558.065	44554.41
558.265	44136.63
558.464	44167.35
558.663	44484.78
558.863	43878.58
559.062	44695.72
559.261	43999.41
559.461	44075.19
559.66	43436.22
559.859	43616.44
560.058	43788.47
560.258	43681.98
560.457	43360.45
560.656	43948.21
560.855	43358.4
561.054	43808.95
561.253	43522.24
561.453	43051.2
561.652	43583.68
561.851	43444.41
562.05	42971.33
562.249	42840.26
562.448	43331.78
562.647	42903.75
562.846	42805.45
563.045	43043.01
563.244	42440.91
563.443	43047.11
563.642	42139.86
563.841	42420.43
564.04	42062.04
564.239	42531.02
564.438	41844.95
564.637	42326.22
564.836	41662.68
565.035	41756.89
565.234	41674.97
565.432	41679.07
565.631	41298.14
565.83	41627.87
566.029	41097.44
566.228	41312.48
566.427	41072.87
566.625	40933.6
566.824	40661.22
567.023	41003.24
567.222	40483.05
567.42	41070.82
567.619	40390.89
567.818	40333.55
568.016	40472.81
568.215	40638.7
568.414	39815.41
568.612	40093.94
568.811	40130.8
569.01	39827.7
569.208	39346.43
569.407	39776.5
569.605	39500.03
569.804	39811.32
570.002	38861.06
570.201	39350.52
570.4	39348.48
570.598	38875.4
570.797	38938.88
570.995	38967.55
571.193	38500.62
571.392	39086.34
571.59	38308.11
571.789	38127.89
571.987	38275.34
572.186	38193.42
572.384	37849.36
572.582	37947.67
572.781	37832.98
572.979	37650.71
573.177	37454.11
573.376	37927.19
573.574	37060.9
573.772	37646.61
573.971	36882.72
574.169	37402.91
574.367	36837.67
574.565	37093.66
574.763	36677.93
574.962	36784.42
575.16	36165.93
575.358	36999.46
575.556	35940.66
575.754	36800.8
575.952	36180.27
576.151	36249.9
576.349	35934.51
576.547	36190.51
576.745	36047.15
576.943	35744.05
577.141	35813.68
577.339	36016.43
577.537	35524.92
577.735	35469.62
577.933	35060.03
578.131	35211.58
578.329	35055.93
578.527	34758.98
578.725	34765.12
578.923	34658.63
579.121	34949.44
579.319	34482.5
579.516	34646.34
579.714	34341.19
579.912	34085.2
580.11	34201.93
580.308	34109.77
580.506	34087.25
580.704	33466.71
580.901	33853.78
581.099	34253.13
581.297	33784.15
581.495	33622.36
581.692	33755.47
581.89	33390.94
582.088	33427.8
582.285	33067.36
582.483	33292.63
582.681	33331.54
582.878	33075.55
583.076	32729.44
583.274	32827.74
583.471	32702.82
583.669	32668
583.866	32133.48
584.064	32305.51
584.262	31971.69
584.459	32713.06
584.657	31994.22
584.854	32598.37
585.052	31439.22
585.249	31887.73
585.447	31957.36
585.644	31396.21
585.841	31553.91
586.039	31721.84
586.236	30869.89
586.434	31066.49
586.631	31158.65
586.828	31125.88
587.026	30890.37
587.223	31211.9
587.42	30642.56
587.618	30441.86
587.815	30458.24
588.012	30554.5
588.21	30345.61
588.407	30828.93
588.604	30648.71
588.801	30052.75
588.999	30200.2
589.196	29745.55
589.393	30108.04
589.59	29911.44
589.787	29755.79
589.984	29495.7
590.182	29311.38
590.379	29512.08
590.576	29073.82
590.773	29534.61
590.97	29133.21
591.167	29180.31
591.364	28826.01
591.561	29079.96
591.758	28934.56
591.955	28955.04
592.152	29006.23
592.349	28598.69
592.546	28389.8
592.743	28164.52
592.94	28250.53
593.137	28189.1
593.334	28242.34
593.531	28041.64
593.727	28121.51
593.924	28105.13
594.121	27746.73
594.318	27972.01
594.515	27175.35
594.712	27779.5
594.908	27242.93
595.105	27636.14
595.302	27126.2
595.499	27029.94
595.696	27318.71
595.892	27064.76
596.089	27044.28
596.286	27177.4
596.482	26683.84
596.679	26907.07
596.876	26749.37
597.072	26692.03
597.269	26501.57
597.466	26407.36
597.662	26325.44
597.859	26407.36
598.055	25940.43
598.252	26069.45
598.448	26155.46
598.645	25749.96
598.841	25709.01
599.038	25981.38
599.234	25924.04
599.431	25764.3
599.627	25921.99
599.824	25571.79
600.02	25657.81
600.217	25410
600.413	25158.1
600.609	25143.77
600.806	24664.54
601.002	25289.17
601.198	24945.11
601.395	24752.6
601.591	24893.91
601.787	24672.73
601.984	24515.04
602.18	24654.3
602.376	24271.33
602.572	24476.13
602.769	24701.4
602.965	24095.21
603.161	24093.16
603.357	24183.27
603.553	24011.24
603.75	23931.37
603.946	23886.31
604.142	23831.02
604.338	23468.53
604.534	23871.98
604.73	23452.14
604.926	23630.32
605.122	23112.18
605.318	23579.12
605.514	23185.91
605.71	23067.13
605.906	23259.63
606.102	23431.66
606.298	22852.09
606.494	22907.38
606.69	22776.31
606.886	23288.31
607.082	22764.03
607.278	22964.73
607.474	22440.45
607.67	22409.73
607.866	22362.62
608.062	22741.5
608.257	22581.76
608.453	22264.32
608.649	22102.53
608.845	22192.64
609.041	22256.13
609.236	22442.49
609.432	22151.68
609.628	22051.33
609.824	21989.89
610.019	21797.38
610.215	21854.73
610.411	21846.54
610.606	22014.47
610.802	21811.72
610.998	21883.4
611.193	22043.14
611.389	21525
611.584	21608.97
611.78	21422.61
611.976	21623.31
612.171	21705.23
612.367	21346.83
612.562	21137.94
612.758	21135.89
612.953	21060.12
613.149	21115.41
613.344	20634.14
613.539	21395.98
613.735	21107.22
613.93	21219.86
614.126	21056.02
614.321	21228.05
614.517	20732.44
614.712	20777.5
614.907	20795.93
615.103	20703.77
615.298	20636.19
615.493	20822.55
615.688	20470.3
615.884	20793.88
616.079	20443.68
616.274	20560.41
616.47	20240.93
616.665	20271.65
616.86	20519.45
617.055	20396.57
617.25	20224.54
617.445	20564.51
617.641	19802.66
617.836	20134.43
618.031	19980.84
618.226	20185.63
618.421	19767.85
618.616	19962.4
618.811	19597.87
619.006	19919.4
619.201	19460.65
619.396	19624.49
619.591	19270.19
619.786	19550.76
619.981	19407.41
620.176	19401.26
620.371	19008.05
620.566	19178.03
620.761	19085.87
620.956	19204.66
621.151	18772.53
621.346	18811.45
621.541	18403.9
621.735	18813.49
621.93	18518.59
622.125	18389.56
622.32	18129.47
622.515	18295.36
622.709	18065.99
622.904	18268.73
623.099	17842.76
623.294	17922.63
623.488	17498.7
623.683	17558.09
623.878	17238.61
624.072	17459.79
624.267	17345.1
624.462	17439.31
624.656	17111.63
624.851	17015.38
625.046	17003.09
625.24	16976.47
625.435	16759.38
625.629	16740.95
625.824	16661.08
626.018	16341.6
626.213	16231.01
626.407	16777.81
626.602	16097.89
626.796	16171.61
626.991	16116.32
627.185	16009.83
627.38	16245.34
627.574	15882.85
627.768	15790.69
627.963	15497.83
628.157	15626.85
628.352	15530.6
628.546	15221.36
628.74	15526.5
628.935	15227.5
629.129	15278.7
629.323	15024.75
629.517	15231.6
629.712	14930.55
629.906	15071.86
630.1	14609.01
630.294	14879.35
630.489	14490.23
630.683	14627.45
630.877	14324.35
631.071	14475.9
631.265	14414.46
631.459	14219.9
631.653	14037.63
631.848	14041.73
632.042	13873.79
632.236	13965.95
632.43	13775.49
632.624	13814.4
632.818	13787.78
633.012	13603.46
633.206	13513.35
633.4	13513.35
633.594	13363.85
633.788	13413
633.982	13271.69
634.176	13068.94
634.369	13214.35
634.563	13456.01
634.757	12733.08
634.951	13148.81
635.145	12874.38
635.339	13058.7
635.533	12606.1
635.726	12827.28
635.92	12481.17
636.114	12554.9
636.308	12524.18
636.501	12518.04
636.695	12384.92
636.889	12235.42
637.083	12313.24
637.276	12040.86
637.47	12047.01
637.664	11854.5
637.857	11836.06
638.051	11881.12
638.244	11664.04
638.438	11872.93
638.632	11819.68
638.825	11459.24
639.019	11451.05
639.212	11373.22
639.406	11563.68
639.599	11522.73
639.793	11393.7
639.986	11119.28
640.18	11256.49
640.373	11137.71
640.567	10832.56
640.76	10887.86
640.954	10963.63
641.147	10756.79
641.34	10850.99
641.534	10865.33
641.727	10619.57
641.92	10793.65
642.114	10566.32
642.307	10470.07
642.5	10529.46
642.694	10316.47
642.887	10195.64
643.08	10203.83
643.273	10175.16
643.467	10205.88
643.66	9870.01
643.853	9958.08
644.046	9947.84
644.239	9927.36
644.432	9867.97
644.626	9937.6
644.819	9640.64
645.012	9622.21
645.205	9716.42
645.398	9681.6
645.591	9542.34
645.784	9435.85
645.977	9558.72
646.17	9325.26
646.363	9214.66
646.556	9192.14
646.749	9147.08
646.942	9114.31
647.135	8977.1
647.328	9040.59
647.521	9052.88
647.714	8987.34
647.907	8876.75
648.099	8725.2
648.292	8712.91
648.485	8925.9
648.678	8735.44
648.871	8489.68
649.064	8522.45
649.256	8532.69
649.449	8520.4
649.642	8469.2
649.835	8409.81
650.027	8393.43
650.22	8395.48
650.413	8127.19
650.605	8254.17
650.798	8162.01
650.991	8075.99
651.183	8299.22
651.376	8354.52
651.568	8037.08
651.761	7877.34
651.954	7854.81
652.146	7955.16
652.339	7795.42
652.531	7891.68
652.724	7707.36
652.916	7527.14
653.109	7635.68
653.301	7490.28
653.494	7690.98
653.686	7566.05
653.879	7592.67
654.071	7449.32
654.263	7580.39
654.456	7535.33
654.648	7518.95
654.84	7273.19
655.033	7248.61
655.225	7348.97
655.417	7215.85
655.61	7289.57
655.802	7299.81
655.994	6980.33
656.186	6972.14
656.379	6849.26
656.571	7015.15
656.763	6787.82
656.955	6869.74
657.148	6920.94
657.34	7029.48
657.532	6908.65
657.724	6697.71
657.916	6742.77
658.108	6843.12
658.3	6736.62
658.492	6597.36
658.684	6638.32
658.876	6464.24
659.068	6710
659.26	6544.11
659.452	6509.3
659.644	6431.48
659.836	6324.98
660.028	6562.55
660.22	6161.14
660.412	6386.42
660.604	6269.69
660.796	6359.8
660.988	6191.86
661.18	6132.47
661.372	6159.1
661.563	6165.24
661.755	5980.92
661.947	6105.85
662.139	6155
662.331	5841.66
662.522	5905.15
662.714	6079.22
662.906	6025.98
663.097	5962.49
663.289	5806.84
663.481	5759.74
663.673	5769.98
663.864	5923.58
664.056	5743.36
664.247	5634.82
664.439	5485.31
664.631	5718.78
664.822	5769.98
665.014	5618.43
665.205	5589.76
665.397	5634.82
665.588	5602.05
665.78	5358.34
665.971	5528.32
666.163	5583.62
666.354	5505.79
666.546	5370.63
666.737	5376.77
666.929	5481.22
667.12	5497.6
667.311	5274.37
667.503	5489.41
667.694	5327.62
667.885	5344
668.077	5276.42
668.268	5188.36
668.459	5235.46
668.651	5184.26
668.842	5221.13
669.033	5153.54
669.224	5120.78
669.416	5217.03
669.607	5112.58
669.798	5042.95
669.989	5049.1
670.18	5008.14
670.371	5264.13
670.563	4922.12
670.754	5036.81
670.945	5034.76
671.136	5071.62
671.327	4965.13
671.518	5143.3
671.709	5030.66
671.9	4930.31
672.091	4901.64
672.282	4827.92
672.473	4698.89
672.664	4881.16
672.855	4827.92
673.046	4786.96
673.237	4907.79
673.428	4963.08
673.619	4682.51
673.809	4870.92
674	4793.1
674.191	4752.14
674.382	4711.18
674.573	4651.79
674.764	4879.11
674.954	4698.89
675.145	4686.61
675.336	4784.91
675.527	4719.37
675.717	4612.88
675.908	4430.61
676.099	4727.57
676.289	4700.94
676.48	4666.13
676.671	4817.68
676.861	4657.93
677.052	4629.26
677.243	4612.88
677.433	4547.34
677.624	4756.24
677.814	4635.41
678.005	4700.94
678.195	4567.82
678.386	4621.07
678.576	4702.99
678.767	4596.5
678.957	4561.68
679.148	4676.37
679.338	4746
679.529	4635.41
679.719	4535.06
679.909	4809.48
680.1	4639.5
680.29	4588.3
680.481	4576.02
680.671	4688.65
680.861	4449.04
681.052	4838.16
681.242	4449.04
681.432	4563.73
681.622	4506.38
681.813	4653.84
682.003	4637.45
682.193	4662.03
682.383	4553.49
682.573	4498.19
682.764	4498.19
682.954	4551.44
683.144	4645.65
683.334	4475.67
683.524	4410.13
683.714	4481.81
683.904	4401.94
684.094	4592.4
684.284	4539.15
684.474	4627.21
684.664	4559.63
684.854	4571.92
685.044	4543.25
685.234	4465.43
685.424	4414.23
685.614	4504.34
685.804	4516.62
685.994	4356.88
686.184	4510.48
686.374	4428.56
686.564	4389.65
686.753	4426.51
686.943	4207.38
687.133	4186.9
687.323	4285.2
687.513	4315.92
687.702	4311.83
687.892	4297.49
688.082	4094.74
688.272	4358.93
688.461	4225.81
688.651	4137.75
688.841	4115.22
689.03	4385.55
689.22	4270.87
689.41	4203.29
689.599	4047.64
689.789	4193.05
689.979	4008.73
690.168	4113.17
690.358	4156.18
690.547	4088.6
690.737	4104.98
690.926	4047.64
691.116	3961.62
691.305	4035.35
691.495	3941.15
691.684	3973.91
691.874	3928.86
692.063	4039.45
692.252	4002.58
692.442	3932.95
692.631	3836.7
692.82	3982.1
693.01	3926.81
693.199	3967.77
693.388	3789.6
693.578	3808.03
693.767	3932.95
693.956	3818.27
694.146	3834.65
694.335	3848.99
694.524	3705.63
694.713	3887.9
694.902	3773.21
695.092	3697.44
695.281	3670.81
695.47	3640.09
695.659	3707.68
695.848	3642.14
696.037	3580.7
696.226	3654.43
696.415	3777.31
696.604	3722.01
696.793	3703.58
696.982	3732.25
697.171	3744.54
697.36	3711.77
697.549	3715.87
697.738	3760.92
697.927	3670.81
698.116	3865.37
698.305	3578.65
698.494	3537.7
698.683	3611.42
698.872	3605.28
699.061	3601.18
699.25	3664.67
699.438	3552.03
699.627	3670.81
699.816	3779.36
700.005	3691.29
700.193	3740.44
700.382	3758.88
700.571	3580.7
700.76	3584.8
700.948	3656.48
701.137	3646.24
701.326	3676.96
701.514	3447.58
701.703	3580.7
701.892	3570.46
702.08	3574.56
702.269	3762.97
702.457	3638.05
702.646	3785.5
702.834	3621.66
703.023	3574.56
703.212	3674.91
703.4	3601.18
703.589	3648.29
703.777	3638.05
703.965	3470.11
704.154	3613.47
704.342	3564.32
704.531	3558.18
704.719	3492.64
704.907	3687.2
705.096	3732.25
705.284	3570.46
705.472	3638.05
705.661	3543.84
705.849	3568.41
706.037	3709.72
706.226	3654.43
706.414	3519.26
706.602	3568.41
706.79	3629.85
706.979	3527.46
707.167	3521.31
707.355	3529.5
707.543	3556.13
707.731	3568.41
707.919	3633.95
708.107	3638.05
708.296	3685.15
708.484	3572.51
708.672	3562.27
708.86	3570.46
709.048	3636
709.236	3572.51
709.424	3595.04
709.612	3498.78
709.8	3519.26
709.988	3619.61
710.176	3605.28
710.364	3666.72
710.551	3570.46
710.739	3654.43
710.927	3582.75
711.115	3586.85
711.303	3525.41
711.491	3613.47
711.679	3578.65
711.866	3654.43
712.054	3703.58
712.242	3609.37
712.43	3666.72
712.617	3564.32
712.805	3433.25
712.993	3595.04
713.181	3572.51
713.368	3590.94
713.556	3719.96
713.744	3498.78
713.931	3568.41
714.119	3523.36
714.306	3549.98
714.494	3498.78
714.682	3521.31
714.869	3492.64
715.057	3638.05
715.244	3601.18
715.432	3554.08
715.619	3476.26
715.807	3636
715.994	3613.47
716.182	3633.95
716.369	3615.52
716.556	3572.51
716.744	3517.22
716.931	3486.5
717.119	3638.05
717.306	3646.24
717.493	3605.28
717.681	3506.98
717.868	3709.72
718.055	3556.13
718.242	3547.94
718.43	3666.72
718.617	3728.16
718.804	3588.89
718.991	3679.01
719.179	3636
719.366	3687.2
719.553	3619.61
719.74	3500.83
719.927	3654.43
720.114	3617.57
720.301	3613.47
720.488	3457.82
720.676	3588.89
720.863	3461.92
721.05	3707.68
721.237	3545.89
721.424	3527.46
721.611	3466.02
721.798	3584.8
721.985	3515.17
722.172	3590.94
722.358	3707.68
722.545	3521.31
722.732	3595.04
722.919	3527.46
723.106	3470.11
723.293	3537.7
723.48	3441.44
723.667	3646.24
723.853	3511.07
724.04	3552.03
724.227	3484.45
724.414	3527.46
724.6	3433.25
724.787	3404.58
724.974	3601.18
725.161	3382.05
725.347	3445.54
725.534	3416.87
725.72	3396.39
725.907	3463.97
726.094	3513.12
726.28	3447.58
726.467	3498.78
726.653	3539.74
726.84	3533.6
727.027	3478.3
727.213	3449.63
727.4	3582.75
727.586	3482.4
727.773	3392.29
727.959	3457.82
728.145	3474.21
728.332	3431.2
728.518	3392.29
728.705	3353.38
728.891	3529.5
729.077	3377.95
729.264	3470.11
729.45	3416.87
729.636	3496.74
729.823	3302.18
730.009	3539.74
730.195	3339.04
730.382	3543.84
730.568	3414.82
730.754	3371.81
730.94	3324.71
731.126	3355.43
731.313	3480.35
731.499	3375.91
731.685	3554.08
731.871	3324.71
732.057	3449.63
732.243	3474.21
732.429	3336.99
732.615	3332.9
732.801	3388.19
732.987	3433.25
733.173	3339.04
733.359	3384.1
733.545	3300.13
733.731	3302.18
733.917	3285.8
734.103	3267.36
734.289	3334.95
734.475	3322.66
734.661	3214.12
734.847	3316.51
735.033	3343.14
735.219	3363.62
735.404	3437.34
735.59	3308.32
735.776	3253.03
735.962	3447.58
736.148	3236.64
736.333	3339.04
736.519	3380
736.705	3253.03
736.89	3179.3
737.076	3279.65
737.262	3185.44
737.447	3191.59
737.633	3150.63
737.819	3169.06
738.004	3207.97
738.19	3248.93
738.375	3238.69
738.561	3142.44
738.747	3207.97
738.932	3146.53
739.118	3138.34
739.303	3089.19
739.489	3052.33
739.674	3130.15
739.859	2976.55
740.045	3144.49
740.23	3130.15
740.416	3101.48
740.601	3083.05
740.786	3007.27
740.972	3095.33
741.157	3040.04
741.342	2976.55
741.528	3048.23
741.713	3162.92
741.898	3044.13
742.084	3011.37
742.269	3007.27
742.454	2947.88
742.639	3023.66
742.824	2886.44
743.01	2951.98
743.195	2892.59
743.38	2896.68
743.565	2861.87
743.75	2814.76
743.935	2939.69
744.12	2808.62
744.305	2751.28
744.49	2808.62
744.675	2704.17
744.86	2800.43
745.045	2839.34
745.23	2667.31
745.415	2718.51
745.6	2779.95
745.785	2732.84
745.97	2685.74
746.155	2630.45
746.34	2693.93
746.525	2669.36
746.71	2718.51
746.895	2581.29
747.079	2624.3
747.264	2509.62
747.449	2675.5
747.634	2564.91
747.819	2519.85
748.003	2569.01
748.188	2544.43
748.373	2417.46
748.557	2663.21
748.742	2439.98
748.927	2339.63
749.111	2390.83
749.296	2433.84
749.481	2437.94
749.665	2437.94
749.85	2386.74
750.034	2360.11
750.219	2435.89
750.404	2349.87
750.588	2278.19
750.773	2261.81
750.957	2224.95
751.141	2153.27
751.326	2263.86
751.51	2345.78
751.695	2239.28
751.879	2165.56
752.064	2095.93
752.248	2149.17
752.432	2247.48
752.617	2188.08
752.801	2044.73
752.985	2138.93
753.17	2126.64
753.354	2100.02
753.538	2061.11
753.722	1968.95
753.907	2102.07
754.091	1919.8
754.275	1979.19
754.459	2063.16
754.643	1995.57
754.828	1934.14
755.012	1944.38
755.196	1868.6
755.38	1884.98
755.564	1866.55
755.748	1962.81
755.932	1819.45
756.116	1819.45
756.3	1780.54
756.484	1798.97
756.668	1899.32
756.852	1684.28
757.036	1690.43
757.22	1780.54
757.404	1792.83
757.588	1729.34
757.772	1737.53
757.956	1657.66
758.14	1792.83
758.323	1624.89
758.507	1694.52
758.691	1669.95
758.875	1704.76
759.059	1514.3
759.242	1569.6
759.426	1534.78
759.61	1626.94
759.794	1559.36
759.977	1592.13
760.161	1585.98
760.345	1653.56
760.528	1659.71
760.712	1532.73
760.895	1483.58
761.079	1616.7
761.263	1422.14
761.446	1461.06
761.63	1532.73
761.813	1545.02
761.997	1508.16
762.18	1493.82
762.364	1506.11
762.547	1366.85
762.731	1530.69
762.914	1375.04
763.098	1485.63
763.281	1372.99
763.464	1434.43
763.648	1403.71
763.831	1309.51
764.015	1385.28
764.198	1350.46
764.381	1389.38
764.564	1311.55
764.748	1327.94
764.931	1370.94
765.114	1354.56
765.297	1483.58
765.481	1348.42
765.664	1385.28
765.847	1372.99
766.03	1309.51
766.213	1346.37
766.397	1383.23
766.58	1252.16
766.763	1340.22
766.946	1256.26
767.129	1323.84
767.312	1233.73
767.495	1248.07
767.678	1157.96
767.861	1172.29
768.044	1200.96
768.227	1233.73
768.41	1229.63
768.593	1274.69
768.776	1221.44
768.959	1178.44
769.142	1299.27
769.324	1284.93
769.507	1145.67
769.69	1233.73
769.873	1155.91
770.056	1192.77
770.239	1190.72
770.421	1188.68
770.604	1217.35
770.787	1121.09
770.97	1160
771.152	1020.74
771.335	1114.95
771.518	1123.14
771.7	1203.01
771.883	1190.72
772.066	1061.7
772.248	1073.99
772.431	1057.61
772.613	1180.48
772.796	1067.85
772.978	1088.32
773.161	1106.76
773.343	1061.7
773.526	1022.79
773.708	1028.93
773.891	938.82
774.073	1022.79
774.256	983.88
774.438	961.35
774.621	1080.13
774.803	1092.42
774.985	1022.79
775.168	1067.85
775.35	889.67
775.532	981.83
775.715	967.49
775.897	983.88
776.079	873.29
776.261	934.73
776.444	930.63
776.626	834.38
776.808	807.75
776.99	856.9
777.173	850.76
777.355	961.35
777.537	807.75
777.719	883.53
777.901	822.09
778.083	766.79
778.265	861
778.447	838.47
778.629	858.95
778.811	928.58
778.993	848.71
779.175	848.71
779.357	828.23
779.539	740.17
779.721	770.89
779.903	785.23
780.085	695.11
780.267	824.14
780.449	815.94
780.631	760.65
780.812	774.99
780.994	703.31
781.176	717.64
781.358	734.03
781.54	693.07
781.721	652.11
781.903	678.73
782.085	785.23
782.267	738.12
782.448	605
782.63	656.2
782.812	650.06
782.993	590.67
783.175	731.98
783.357	613.2
783.538	617.29
783.72	625.48
783.901	643.92
784.083	566.09
784.264	656.2
784.446	586.57
784.627	635.72
784.809	709.45
784.99	572.24
785.172	662.35
785.353	615.24
785.535	619.34
785.716	510.8
785.897	527.18
786.079	641.87
786.26	605
786.441	570.19
786.623	576.33
786.804	484.17
786.985	590.67
787.167	545.61
787.348	564.04
787.529	527.18
787.71	574.28
787.891	525.13
788.073	492.37
788.254	445.26
788.435	514.89
788.616	451.41
788.797	527.18
788.978	475.98
789.159	488.27
789.34	547.66
789.522	465.74
789.703	475.98
789.884	396.11
790.065	535.37
790.246	463.69
790.427	516.94
790.607	605
790.788	541.52
790.969	365.39
791.15	389.97
791.331	451.41
791.512	484.17
791.693	392.02
791.874	426.83
792.054	549.71
792.235	568.14
792.416	361.3
792.597	406.35
792.778	475.98
792.958	432.97
793.139	451.41
793.32	332.62
793.5	383.82
793.681	445.26
793.862	437.07
794.042	420.69
794.223	398.16
794.404	482.13
794.584	379.73
794.765	363.34
794.945	398.16
795.126	521.04
795.306	379.73
795.487	392.02
795.667	377.68
795.848	353.1
796.028	318.29
796.209	383.82
796.389	359.25
796.57	373.58
796.75	375.63
796.93	349.01
797.111	289.62
797.291	361.3
797.471	430.93
797.652	340.82
797.832	252.75
798.012	369.49
798.192	299.86
798.373	281.43
798.553	359.25
798.733	312.14
798.913	359.25
799.093	303.95
799.274	326.48
799.454	377.68
799.634	279.38
799.814	416.59
799.994	355.15
800.174	328.53
800.354	326.48
800.534	314.19
800.714	277.33
800.894	269.14
801.074	308.05
801.254	320.34
801.434	279.38
801.614	369.49
801.794	260.95
801.974	922.44
802.154	281.43
802.334	297.81
802.514	254.8
802.693	258.9
802.873	342.86
803.053	299.86
803.233	297.81
803.413	209.75
803.592	197.46
803.772	293.71
803.952	289.62
804.131	271.19
804.311	203.6
804.491	299.86
804.67	246.61
804.85	285.52
805.03	285.52
805.209	277.33
805.389	279.38
805.568	303.95
805.748	183.12
805.928	273.23
806.107	207.7
806.287	230.23
806.466	283.47
806.646	222.03
806.825	205.65
807.004	244.56
807.184	211.79
807.363	265.04
807.543	254.8
807.722	199.51
807.901	224.08
808.081	258.9
808.26	170.83
808.439	236.37
808.619	205.65
808.798	250.71
808.977	209.75
809.156	224.08
809.336	250.71
809.515	222.03
809.694	246.61
809.873	254.8
810.052	246.61
810.231	265.04
810.411	234.32
810.59	174.93
810.769	256.85
810.948	238.42
811.127	181.07
811.306	238.42
811.485	230.23
811.664	242.51
811.843	172.88
812.022	234.32
812.201	156.5
812.38	230.23
812.559	197.46
812.737	131.92
812.916	170.83
813.095	123.73
813.274	170.83
813.453	217.94
813.632	172.88
813.811	179.03
813.989	88.92
814.168	244.56
814.347	207.7
814.526	201.55
814.704	232.27
814.883	172.88
815.062	121.68
815.24	242.51
815.419	156.5
815.598	226.13
815.776	142.16
815.955	129.88
816.133	152.4
816.312	152.4
816.49	197.46
816.669	158.55
816.847	209.75
817.026	136.02
817.204	174.93
817.383	148.31
817.561	64.34
817.74	170.83
817.918	181.07
818.097	271.19
818.275	162.64
818.453	160.59
818.632	183.12
818.81	95.06
818.988	179.03
819.167	168.79
819.345	125.78
819.523	156.5
819.701	195.41
819.879	226.13
820.058	205.65
820.236	170.83
820.414	168.79
820.592	164.69
820.77	193.36
820.948	136.02
821.127	140.12
821.305	152.4
821.483	189.27
821.661	148.31
821.839	0.85
822.017	88.92
822.195	86.87
822.373	209.75
822.551	84.82
822.729	226.13
822.907	203.6
823.085	164.69
823.262	176.98
823.44	115.54
823.618	70.48
823.796	127.83
823.974	136.02
824.152	99.16
824.329	86.87
824.507	217.94
824.685	187.22
824.863	129.88
825.04	164.69
825.218	123.73
825.396	144.21
825.574	76.63
825.751	160.59
825.929	90.96
826.107	131.92
826.284	88.92
826.462	131.92
826.639	125.78
826.817	47.96
826.994	136.02
827.172	168.79
827.349	158.55
827.527	99.16
827.704	111.44
827.882	107.35
828.059	148.31
828.237	66.39
828.414	193.36
828.591	99.16
828.769	119.64
828.946	95.06
829.124	105.3
829.301	195.41
829.478	111.44
829.655	29.52
829.833	78.68
830.01	80.72
830.187	80.72
830.364	103.25
830.542	45.91
830.719	148.31
830.896	115.54
831.073	154.45
831.25	160.59
831.427	25.43
831.604	129.88
831.782	72.53
831.959	113.49
832.136	113.49
832.313	72.53
832.49	39.76
832.667	162.64
832.844	105.3
833.021	105.3
833.198	105.3
833.374	54.1
833.551	80.72
833.728	117.59
833.905	168.79
834.082	129.88
834.259	66.39
834.436	88.92
834.612	78.68
834.789	47.96
834.966	90.96
835.143	82.77
835.319	11.09
835.496	136.02
835.673	138.07
835.85	66.39
836.026	107.35
836.203	101.2
836.38	86.87
836.556	121.68
836.733	113.49
836.909	123.73
837.086	39.76
837.262	72.53
837.439	88.92
837.616	111.44
837.792	97.11
837.968	54.1
838.145	58.2
838.321	101.2
838.498	56.15
838.674	82.77
838.851	95.06
839.027	15.19
839.203	103.25
839.38	84.82
839.556	47.96
839.732	103.25
839.909	-9.39
840.085	105.3
840.261	-1.19
840.437	33.62
840.614	56.15
840.79	144.21
840.966	50
841.142	41.81
841.318	17.24
841.494	64.34
841.671	103.25
841.847	62.29
842.023	21.33
842.199	-5.29
842.375	148.31
842.551	60.24
842.727	74.58
842.903	76.63
843.079	58.2
843.255	70.48
843.431	76.63
843.607	103.25
843.783	-64.68
843.959	43.86
844.134	41.81
844.31	66.39
844.486	0.85
844.662	54.1
844.838	4.95
845.013	0.85
845.189	0.85
845.365	-27.82
845.541	56.15
845.716	74.58
845.892	29.52
846.068	107.35
846.244	43.86
846.419	23.38
846.595	23.38
846.77	19.29
846.946	45.91
847.122	41.81
847.297	-7.34
847.473	93.01
847.648	66.39
847.824	146.26
847.999	2.9
848.175	11.09
848.35	72.53
848.526	95.06
848.701	25.43
848.876	9.05
849.052	37.72
849.227	56.15
849.403	99.16
849.578	-31.91
849.753	58.2
849.929	78.68
850.104	-7.34
850.279	7
850.454	-31.91
850.63	60.24
850.805	25.43
850.98	29.52
851.155	-54.44
851.33	9.05
851.505	-33.96
851.681	23.38
851.856	-23.72
852.031	84.82
852.206	70.48
852.381	78.68
852.556	58.2
852.731	72.53
852.906	45.91
853.081	39.76
853.256	33.62
853.431	47.96
853.606	33.62
853.781	47.96
853.956	39.76
854.131	78.68
854.305	68.44
854.48	78.68
854.655	115.54
854.83	47.96
855.005	21.33
855.18	17.24
855.354	47.96
855.529	-36.01
855.704	31.57
855.879	-5.29
856.053	84.82
856.228	27.48
856.403	25.43
856.577	31.57
856.752	27.48
856.926	60.24
857.101	-9.39
857.276	41.81
857.45	54.1
857.625	27.48
857.799	-15.53
857.974	29.52
858.148	-21.67
858.323	37.72
858.497	50
858.672	-7.34
858.846	-1.19
859.02	66.39
859.195	-23.72
859.369	-1.19
859.543	37.72
859.718	15.19
859.892	25.43
860.066	9.05
860.241	50
860.415	9.05
860.589	7
860.763	60.24
860.938	-40.11
861.112	25.43
861.286	21.33
861.46	-17.58
861.634	80.72
861.808	-44.2
861.982	-3.24
862.157	7
862.331	21.33
862.505	7
862.679	-1.19
862.853	17.24
863.027	-7.34
863.201	103.25
863.375	15.19
863.549	-11.43
863.722	21.33
863.896	4.95
864.07	33.62
864.244	27.48
864.418	39.76
864.592	-62.63
864.766	39.76
864.939	21.33
865.113	-27.82
865.287	43.86
865.461	39.76
865.634	-3.24
865.808	-15.53
865.982	50
866.156	29.52
866.329	39.76
866.503	7
866.676	31.57
866.85	-74.92
867.024	-36.01
867.197	-1.19
867.371	50
867.544	43.86
867.718	35.67
867.891	9.05
868.065	-1.19
868.238	9.05
868.412	76.63
868.585	15.19
868.759	-50.35
868.932	66.39
869.105	-50.35
869.279	23.38
869.452	19.29
869.625	29.52
869.799	84.82
869.972	13.14
870.145	-3.24
870.319	15.19
870.492	15.19
870.665	37.72
870.838	-11.43
871.011	7
871.185	31.57
871.358	-46.25
871.531	4.95
871.704	-23.72
871.877	95.06
872.05	13.14
872.223	-60.59
872.396	62.29
872.569	17.24
872.742	-33.96
872.915	-11.43
873.088	31.57
873.261	11.09
873.434	101.2
873.607	-17.58
873.78	47.96
873.953	-44.2
874.126	-1.19
874.299	-42.15
874.471	-31.91
874.644	-7.34
874.817	-13.48
874.99	99.16
875.163	-27.82
875.335	-25.77
875.508	21.33
875.681	58.2
875.853	19.29
876.026	-11.43
876.199	62.29
876.371	29.52
876.544	-25.77
876.717	-11.43
876.889	78.68
877.062	19.29
877.234	-31.91
877.407	70.48
877.579	-40.11
877.752	9.05
877.924	-64.68
878.097	-62.63
878.269	62.29
878.442	45.91
878.614	33.62
878.786	31.57
878.959	-27.82
879.131	-19.63
879.303	11.09
879.476	39.76
879.648	62.29
879.82	-23.72
879.993	-27.82
880.165	13.14
880.337	17.24
880.509	-5.29
880.681	4.95
880.854	-17.58
881.026	66.39
881.198	43.86
881.37	-1.19
881.542	52.05
881.714	-52.39
881.886	-40.11
882.058	45.91
882.23	45.91
882.402	21.33
882.574	27.48
882.746	13.14
882.918	80.72
883.09	13.14
883.262	-31.91
883.434	-46.25
883.606	-17.58
883.778	0.85
883.95	0.85
884.122	9.05
884.293	2.9
884.465	37.72
884.637	56.15
884.809	-19.63
884.98	19.29
885.152	17.24
885.324	50
885.496	37.72
885.667	19.29
885.839	-58.54
886.011	76.63
886.182	37.72
886.354	68.44
886.525	17.24
886.697	2.9
886.869	13.14
887.04	-50.35
887.212	125.78
887.383	7
887.555	-15.53
887.726	-60.59
887.897	21.33
888.069	-31.91
888.24	41.81
888.412	50
888.583	50
888.754	-11.43
888.926	-93.35
889.097	17.24
889.268	9.05
889.44	-11.43
889.611	-11.43
889.782	-89.26
889.953	-31.91
890.125	25.43
890.296	56.15
890.467	15.19
890.638	72.53
890.809	-9.39
890.98	-27.82
891.151	37.72
891.323	74.58
891.494	13.14
891.665	-9.39
891.836	-50.35
892.007	-1.19
892.178	25.43
892.349	-5.29
892.52	-42.15
892.691	31.57
892.862	-17.58
893.032	-15.53
893.203	-44.2
893.374	-7.34
893.545	17.24
893.716	82.77
893.887	47.96
894.057	25.43
894.228	-83.11
894.399	-29.87
894.57	-9.39
894.74	-1.19
894.911	21.33
895.082	-60.59
895.253	-42.15
895.423	4.95
895.594	-33.96
895.764	17.24
895.935	-72.87
896.106	-5.29
896.276	-40.11
896.447	17.24
896.617	76.63
896.788	-56.49
896.958	25.43
897.129	-13.48
897.299	-44.2
897.47	29.52
897.64	17.24
897.81	-40.11
897.981	39.76
898.151	-27.82
898.322	11.09
898.492	-21.67
898.662	-33.96
898.832	-17.58
899.003	11.09
899.173	-11.43
899.343	9.05
899.513	2.9
