Data from USB4F104151__274__10-40-57-073.txt Node

Date: Wed Mar 12 10:40:57 EDT 2025
User: louis
Spectrometer: USB4F10415
Trigger mode: 4
Integration Time (sec): 3.000000E-2
Scans to average: 1
Electric dark correction enabled: true
Nonlinearity correction enabled: false
Boxcar width: 0
XAxis mode: Wavelengths
Number of Pixels in Spectrum: 3648
>>>>>Begin Spectral Data<<<<<
178.204	-156.67
178.424	-156.67
178.644	-156.67
178.864	-111.61
179.084	-89.09
179.304	-56.32
179.524	1.02
179.744	-54.27
179.964	37.89
180.184	25.6
180.404	70.65
180.624	-31.74
180.844	9.22
181.064	7.17
181.283	35.84
181.503	27.65
181.723	-72.7
181.943	-87.04
182.163	109.57
182.383	-21.5
182.602	31.74
182.822	29.7
183.042	103.42
183.262	11.26
183.482	11.26
183.701	-41.98
183.921	58.37
184.141	48.13
184.361	62.46
184.58	21.5
184.8	62.46
185.02	41.98
185.239	48.13
185.459	25.6
185.679	15.36
185.898	11.26
186.118	39.94
186.338	23.55
186.557	89.09
186.777	15.36
186.997	78.85
187.216	-7.17
187.436	84.99
187.655	1.02
187.875	138.24
188.095	44.03
188.314	113.66
188.534	58.37
188.753	-25.6
188.973	27.65
189.192	52.22
189.412	101.37
189.631	33.79
189.851	76.8
190.07	117.76
190.29	-23.55
190.509	9.22
190.729	60.42
190.948	105.47
191.168	146.43
191.387	41.98
191.607	3.07
191.826	50.18
192.045	17.41
192.265	44.03
192.484	50.18
192.704	15.36
192.923	33.79
193.142	130.05
193.362	46.08
193.581	19.46
193.8	107.52
194.02	72.7
194.239	25.6
194.458	-21.5
194.678	68.61
194.897	54.27
195.116	113.66
195.335	-17.41
195.555	74.75
195.774	64.51
195.993	91.13
196.212	46.08
196.432	52.22
196.651	3.07
196.87	17.41
197.089	3.07
197.308	48.13
197.528	82.94
197.747	11.26
197.966	66.56
198.185	78.85
198.404	29.7
198.623	-23.55
198.842	68.61
199.062	-5.12
199.281	72.7
199.5	19.46
199.719	13.31
199.938	1.02
200.157	138.24
200.376	27.65
200.595	99.33
200.814	52.22
201.033	25.6
201.252	125.95
201.471	93.18
201.69	7.17
201.909	50.18
202.128	97.28
202.347	52.22
202.566	41.98
202.785	93.18
203.004	25.6
203.223	154.62
203.442	72.7
203.661	27.65
203.879	101.37
204.098	115.71
204.317	93.18
204.536	74.75
204.755	33.79
204.974	58.37
205.193	41.98
205.411	152.57
205.63	52.22
205.849	35.84
206.068	48.13
206.287	-25.6
206.505	9.22
206.724	93.18
206.943	-37.89
207.162	41.98
207.381	33.79
207.599	25.6
207.818	11.26
208.037	78.85
208.255	117.76
208.474	89.09
208.693	-1.02
208.911	125.95
209.13	95.23
209.349	64.51
209.567	80.89
209.786	3.07
210.005	78.85
210.223	-7.17
210.442	31.74
210.661	46.08
210.879	19.46
211.098	-23.55
211.316	48.13
211.535	107.52
211.753	27.65
211.972	84.99
212.191	82.94
212.409	41.98
212.628	19.46
212.846	39.94
213.065	52.22
213.283	111.61
213.502	101.37
213.72	78.85
213.938	-54.27
214.157	35.84
214.375	78.85
214.594	19.46
214.812	35.84
215.031	-3.07
215.249	66.56
215.467	29.7
215.686	72.7
215.904	80.89
216.122	41.98
216.341	44.03
216.559	78.85
216.778	113.66
216.996	78.85
217.214	29.7
217.432	58.37
217.651	-3.07
217.869	31.74
218.087	33.79
218.306	25.6
218.524	41.98
218.742	82.94
218.96	64.51
219.179	117.76
219.397	19.46
219.615	93.18
219.833	-9.22
220.051	37.89
220.27	35.84
220.488	25.6
220.706	35.84
220.924	21.5
221.142	50.18
221.36	27.65
221.578	-21.5
221.796	41.98
222.015	109.57
222.233	31.74
222.451	76.8
222.669	72.7
222.887	91.13
223.105	29.7
223.323	123.9
223.541	13.31
223.759	9.22
223.977	48.13
224.195	46.08
224.413	50.18
224.631	66.56
224.849	99.33
225.067	134.14
225.285	80.89
225.503	27.65
225.721	31.74
225.939	66.56
226.157	-54.27
226.375	93.18
226.592	9.22
226.81	-41.98
227.028	31.74
227.246	84.99
227.464	33.79
227.682	60.42
227.9	44.03
228.117	91.13
228.335	66.56
228.553	41.98
228.771	-5.12
228.989	68.61
229.206	62.46
229.424	-27.65
229.642	-3.07
229.86	25.6
230.077	78.85
230.295	84.99
230.513	64.51
230.731	31.74
230.948	91.13
231.166	109.57
231.384	48.13
231.601	56.32
231.819	39.94
232.037	56.32
232.254	23.55
232.472	76.8
232.689	-5.12
232.907	46.08
233.125	-15.36
233.342	84.99
233.56	-13.31
233.777	-29.7
233.995	109.57
234.213	60.42
234.43	35.84
234.648	50.18
234.865	39.94
235.083	93.18
235.3	3.07
235.518	89.09
235.735	156.67
235.953	64.51
236.17	-1.02
236.388	46.08
236.605	-27.65
236.822	148.48
237.04	76.8
237.257	97.28
237.475	21.5
237.692	46.08
237.909	103.42
238.127	25.6
238.344	117.76
238.562	70.65
238.779	93.18
238.996	1.02
239.214	60.42
239.431	62.46
239.648	31.74
239.865	111.61
240.083	91.13
240.3	29.7
240.517	-37.89
240.735	44.03
240.952	128
241.169	89.09
241.386	87.04
241.603	11.26
241.821	76.8
242.038	76.8
242.255	80.89
242.472	62.46
242.689	80.89
242.907	62.46
243.124	78.85
243.341	50.18
243.558	50.18
243.775	9.22
243.992	9.22
244.209	-1.02
244.426	115.71
244.643	121.85
244.86	7.17
245.078	66.56
245.295	82.94
245.512	70.65
245.729	-5.12
245.946	58.37
246.163	-7.17
246.38	50.18
246.597	44.03
246.814	33.79
247.031	7.17
247.248	50.18
247.464	25.6
247.681	23.55
247.898	78.85
248.115	95.23
248.332	33.79
248.549	54.27
248.766	46.08
248.983	68.61
249.2	97.28
249.417	66.56
249.633	-13.31
249.85	23.55
250.067	15.36
250.284	15.36
250.501	68.61
250.717	44.03
250.934	-13.31
251.151	44.03
251.368	64.51
251.585	82.94
251.801	-37.89
252.018	46.08
252.235	119.81
252.451	-3.07
252.668	35.84
252.885	125.95
253.102	29.7
253.318	11.26
253.535	7.17
253.752	46.08
253.968	19.46
254.185	11.26
254.401	5.12
254.618	107.52
254.835	39.94
255.051	138.24
255.268	107.52
255.484	62.46
255.701	119.81
255.917	11.26
256.134	-35.84
256.351	103.42
256.567	35.84
256.784	66.56
257	-15.36
257.217	121.85
257.433	80.89
257.65	113.66
257.866	101.37
258.082	113.66
258.299	78.85
258.515	66.56
258.732	17.41
258.948	107.52
259.165	58.37
259.381	37.89
259.597	56.32
259.814	46.08
260.03	82.94
260.246	58.37
260.463	84.99
260.679	78.85
260.895	-25.6
261.112	33.79
261.328	37.89
261.544	113.66
261.761	199.68
261.977	48.13
262.193	1.02
262.409	66.56
262.626	74.75
262.842	89.09
263.058	-21.5
263.274	82.94
263.49	60.42
263.707	13.31
263.923	109.57
264.139	-9.22
264.355	27.65
264.571	142.33
264.787	39.94
265.004	60.42
265.22	41.98
265.436	60.42
265.652	76.8
265.868	105.47
266.084	54.27
266.3	48.13
266.516	29.7
266.732	46.08
266.948	76.8
267.164	41.98
267.38	27.65
267.596	140.29
267.812	70.65
268.028	56.32
268.244	101.37
268.46	91.13
268.676	21.5
268.892	27.65
269.108	-1.02
269.324	48.13
269.54	87.04
269.756	54.27
269.972	3.07
270.188	68.61
270.403	-11.26
270.619	84.99
270.835	66.56
271.051	37.89
271.267	15.36
271.483	56.32
271.698	-46.08
271.914	25.6
272.13	56.32
272.346	19.46
272.562	3.07
272.777	1.02
272.993	35.84
273.209	74.75
273.425	76.8
273.64	48.13
273.856	125.95
274.072	132.09
274.287	21.5
274.503	84.99
274.719	21.5
274.934	-41.98
275.15	7.17
275.366	68.61
275.581	52.22
275.797	64.51
276.012	60.42
276.228	-27.65
276.444	9.22
276.659	48.13
276.875	-39.94
277.09	3.07
277.306	76.8
277.521	82.94
277.737	84.99
277.952	87.04
278.168	54.27
278.383	17.41
278.599	84.99
278.814	158.72
279.03	117.76
279.245	99.33
279.461	41.98
279.676	76.8
279.892	-17.41
280.107	44.03
280.322	27.65
280.538	87.04
280.753	66.56
280.969	62.46
281.184	60.42
281.399	82.94
281.615	19.46
281.83	119.81
282.045	37.89
282.26	35.84
282.476	78.85
282.691	84.99
282.906	60.42
283.122	5.12
283.337	-29.7
283.552	68.61
283.767	93.18
283.983	52.22
284.198	58.37
284.413	-1.02
284.628	23.55
284.843	58.37
285.058	-5.12
285.274	39.94
285.489	74.75
285.704	93.18
285.919	25.6
286.134	62.46
286.349	39.94
286.564	-64.51
286.779	35.84
286.995	91.13
287.21	62.46
287.425	25.6
287.64	-5.12
287.855	84.99
288.07	3.07
288.285	76.8
288.5	66.56
288.715	66.56
288.93	72.7
289.145	37.89
289.36	125.95
289.575	58.37
289.79	89.09
290.004	31.74
290.219	-9.22
290.434	-7.17
290.649	37.89
290.864	74.75
291.079	44.03
291.294	70.65
291.509	33.79
291.724	95.23
291.938	93.18
292.153	74.75
292.368	39.94
292.583	19.46
292.798	15.36
293.012	154.62
293.227	87.04
293.442	44.03
293.657	115.71
293.871	148.48
294.086	44.03
294.301	103.42
294.516	84.99
294.73	91.13
294.945	23.55
295.16	25.6
295.374	111.61
295.589	101.37
295.804	134.14
296.018	11.26
296.233	23.55
296.447	113.66
296.662	-5.12
296.877	52.22
297.091	74.75
297.306	39.94
297.52	44.03
297.735	19.46
297.949	128
298.164	15.36
298.378	23.55
298.593	74.75
298.807	52.22
299.022	113.66
299.236	123.9
299.451	-21.5
299.665	35.84
299.88	105.47
300.094	93.18
300.309	58.37
300.523	109.57
300.737	41.98
300.952	89.09
301.166	54.27
301.381	35.84
301.595	84.99
301.809	89.09
302.024	60.42
302.238	-3.07
302.452	31.74
302.667	76.8
302.881	84.99
303.095	29.7
303.309	72.7
303.524	5.12
303.738	66.56
303.952	72.7
304.166	109.57
304.381	-9.22
304.595	130.05
304.809	-3.07
305.023	50.18
305.237	-5.12
305.452	11.26
305.666	9.22
305.88	107.52
306.094	56.32
306.308	62.46
306.522	-13.31
306.736	52.22
306.95	41.98
307.164	58.37
307.379	23.55
307.593	7.17
307.807	17.41
308.021	87.04
308.235	58.37
308.449	62.46
308.663	76.8
308.877	99.33
309.091	78.85
309.305	66.56
309.519	3.07
309.733	132.09
309.947	31.74
310.161	56.32
310.374	41.98
310.588	58.37
310.802	58.37
311.016	31.74
311.23	68.61
311.444	15.36
311.658	52.22
311.872	171.01
312.085	97.28
312.299	52.22
312.513	99.33
312.727	29.7
312.941	82.94
313.154	35.84
313.368	76.8
313.582	44.03
313.796	46.08
314.009	78.85
314.223	91.13
314.437	123.9
314.651	125.95
314.864	11.26
315.078	-17.41
315.292	87.04
315.505	60.42
315.719	105.47
315.933	1.02
316.146	128
316.36	41.98
316.573	150.53
316.787	123.9
317.001	68.61
317.214	68.61
317.428	80.89
317.641	97.28
317.855	56.32
318.068	109.57
318.282	21.5
318.495	103.42
318.709	54.27
318.922	31.74
319.136	89.09
319.349	17.41
319.563	17.41
319.776	87.04
319.99	58.37
320.203	91.13
320.417	17.41
320.63	130.05
320.843	87.04
321.057	50.18
321.27	9.22
321.483	19.46
321.697	134.14
321.91	56.32
322.124	11.26
322.337	-9.22
322.55	-5.12
322.763	74.75
322.977	54.27
323.19	23.55
323.403	148.48
323.617	130.05
323.83	97.28
324.043	58.37
324.256	3.07
324.469	29.7
324.683	52.22
324.896	9.22
325.109	80.89
325.322	74.75
325.535	89.09
325.748	48.13
325.962	25.6
326.175	21.5
326.388	7.17
326.601	99.33
326.814	78.85
327.027	3.07
327.24	5.12
327.453	50.18
327.666	11.26
327.879	70.65
328.092	72.7
328.305	60.42
328.518	19.46
328.731	136.19
328.944	62.46
329.157	50.18
329.37	72.7
329.583	156.67
329.796	58.37
330.009	21.5
330.222	66.56
330.435	13.31
330.648	39.94
330.861	82.94
331.073	111.61
331.286	109.57
331.499	117.76
331.712	78.85
331.925	39.94
332.138	105.47
332.35	121.85
332.563	103.42
332.776	41.98
332.989	125.95
333.202	91.13
333.414	91.13
333.627	84.99
333.84	89.09
334.053	62.46
334.265	56.32
334.478	-21.5
334.691	117.76
334.903	99.33
335.116	89.09
335.329	1.02
335.541	58.37
335.754	99.33
335.966	76.8
336.179	58.37
336.392	54.27
336.604	44.03
336.817	48.13
337.029	130.05
337.242	60.42
337.454	76.8
337.667	21.5
337.88	46.08
338.092	146.43
338.305	54.27
338.517	-1.02
338.729	41.98
338.942	91.13
339.154	5.12
339.367	74.75
339.579	74.75
339.792	19.46
340.004	146.43
340.217	66.56
340.429	21.5
340.641	39.94
340.854	56.32
341.066	7.17
341.278	76.8
341.491	101.37
341.703	121.85
341.915	23.55
342.128	9.22
342.34	-29.7
342.552	50.18
342.764	60.42
342.977	27.65
343.189	97.28
343.401	105.47
343.613	101.37
343.826	130.05
344.038	95.23
344.25	70.65
344.462	121.85
344.674	138.24
344.886	68.61
345.099	89.09
345.311	74.75
345.523	-11.26
345.735	35.84
345.947	109.57
346.159	113.66
346.371	93.18
346.583	62.46
346.795	121.85
347.007	117.76
347.219	72.7
347.431	103.42
347.643	35.84
347.855	23.55
348.067	66.56
348.279	48.13
348.491	15.36
348.703	105.47
348.915	68.61
349.127	52.22
349.339	56.32
349.551	56.32
349.763	70.65
349.975	35.84
350.187	68.61
350.399	93.18
350.61	70.65
350.822	113.66
351.034	76.8
351.246	11.26
351.458	-9.22
351.669	113.66
351.881	82.94
352.093	119.81
352.305	56.32
352.517	113.66
352.728	115.71
352.94	84.99
353.152	113.66
353.363	44.03
353.575	156.67
353.787	21.5
353.999	80.89
354.21	138.24
354.422	76.8
354.633	68.61
354.845	72.7
355.057	68.61
355.268	99.33
355.48	91.13
355.692	74.75
355.903	23.55
356.115	29.7
356.326	27.65
356.538	46.08
356.749	93.18
356.961	91.13
357.172	5.12
357.384	101.37
357.595	125.95
357.807	87.04
358.018	80.89
358.23	37.89
358.441	148.48
358.653	82.94
358.864	113.66
359.075	-7.17
359.287	44.03
359.498	162.81
359.709	97.28
359.921	103.42
360.132	23.55
360.344	121.85
360.555	121.85
360.766	115.71
360.977	33.79
361.189	44.03
361.4	35.84
361.611	76.8
361.823	68.61
362.034	15.36
362.245	27.65
362.456	44.03
362.667	95.23
362.879	27.65
363.09	72.7
363.301	76.8
363.512	113.66
363.723	52.22
363.935	50.18
364.146	99.33
364.357	50.18
364.568	35.84
364.779	60.42
364.99	103.42
365.201	66.56
365.412	128
365.623	48.13
365.834	-17.41
366.045	101.37
366.256	119.81
366.467	123.9
366.678	56.32
366.889	41.98
367.1	66.56
367.311	158.72
367.522	23.55
367.733	103.42
367.944	39.94
368.155	52.22
368.366	99.33
368.577	76.8
368.788	87.04
368.999	91.13
369.209	89.09
369.42	123.9
369.631	91.13
369.842	66.56
370.053	115.71
370.264	60.42
370.474	58.37
370.685	44.03
370.896	97.28
371.107	117.76
371.317	125.95
371.528	68.61
371.739	27.65
371.95	158.72
372.16	68.61
372.371	39.94
372.582	-5.12
372.792	56.32
373.003	115.71
373.214	89.09
373.424	95.23
373.635	9.22
373.846	93.18
374.056	95.23
374.267	113.66
374.477	80.89
374.688	-5.12
374.898	105.47
375.109	-21.5
375.319	97.28
375.53	89.09
375.74	103.42
375.951	17.41
376.161	52.22
376.372	117.76
376.582	1.02
376.793	70.65
377.003	68.61
377.214	171.01
377.424	93.18
377.635	37.89
377.845	48.13
378.055	52.22
378.266	95.23
378.476	101.37
378.686	101.37
378.897	84.99
379.107	58.37
379.317	107.52
379.528	72.7
379.738	84.99
379.948	41.98
380.158	58.37
380.369	-17.41
380.579	89.09
380.789	64.51
380.999	62.46
381.21	33.79
381.42	138.24
381.63	89.09
381.84	62.46
382.05	78.85
382.261	103.42
382.471	107.52
382.681	119.81
382.891	191.49
383.101	68.61
383.311	89.09
383.521	56.32
383.731	76.8
383.941	95.23
384.151	93.18
384.361	29.7
384.571	68.61
384.781	70.65
384.991	150.53
385.201	97.28
385.411	82.94
385.621	91.13
385.831	109.57
386.041	48.13
386.251	70.65
386.461	171.01
386.671	66.56
386.881	93.18
387.091	29.7
387.301	99.33
387.511	138.24
387.72	35.84
387.93	146.43
388.14	87.04
388.35	70.65
388.56	105.47
388.769	66.56
388.979	60.42
389.189	101.37
389.399	82.94
389.609	101.37
389.818	103.42
390.028	105.47
390.238	111.61
390.447	80.89
390.657	95.23
390.867	107.52
391.076	87.04
391.286	89.09
391.496	158.72
391.705	74.75
391.915	125.95
392.125	175.1
392.334	103.42
392.544	148.48
392.753	23.55
392.963	44.03
393.172	134.14
393.382	171.01
393.591	125.95
393.801	123.9
394.01	162.81
394.22	64.51
394.429	91.13
394.639	29.7
394.848	101.37
395.058	84.99
395.267	97.28
395.477	89.09
395.686	138.24
395.895	89.09
396.105	103.42
396.314	15.36
396.524	107.52
396.733	128
396.942	99.33
397.152	205.82
397.361	140.29
397.57	119.81
397.78	60.42
397.989	173.05
398.198	197.63
398.407	191.49
398.617	132.09
398.826	158.72
399.035	97.28
399.244	171.01
399.453	183.29
399.663	152.57
399.872	191.49
400.081	173.05
400.29	162.81
400.499	158.72
400.708	171.01
400.917	121.85
401.127	185.34
401.336	179.2
401.545	226.3
401.754	230.4
401.963	261.12
402.172	175.1
402.381	95.23
402.59	207.87
402.799	115.71
403.008	158.72
403.217	166.91
403.426	199.68
403.635	152.57
403.844	150.53
404.053	218.11
404.262	123.9
404.471	187.39
404.68	214.01
404.888	125.95
405.097	222.2
405.306	162.81
405.515	181.25
405.724	242.68
405.933	318.46
406.142	259.07
406.35	230.4
406.559	187.39
406.768	224.25
406.977	302.08
407.185	240.64
407.394	261.12
407.603	257.02
407.812	240.64
408.02	295.93
408.229	295.93
408.438	254.97
408.646	297.98
408.855	371.71
409.064	345.08
409.272	347.13
409.481	365.56
409.69	412.67
409.898	390.14
410.107	359.42
410.315	310.27
410.524	383.99
410.733	480.25
410.941	537.59
411.15	494.58
411.358	461.82
411.567	502.78
411.775	541.69
411.984	576.5
412.192	623.61
412.401	599.03
412.609	619.51
412.818	754.68
413.026	670.71
413.234	627.7
413.443	683
413.651	715.77
413.86	717.81
414.068	852.98
414.276	932.85
414.485	850.93
414.693	828.4
414.901	924.66
415.11	887.79
415.318	998.38
415.526	1045.49
415.734	1059.82
415.943	1100.78
416.151	1047.54
416.359	1113.07
416.567	1117.17
416.776	1174.51
416.984	1289.2
417.192	1213.42
417.4	1244.14
417.608	1264.62
417.817	1340.4
418.025	1481.71
418.233	1446.89
418.441	1496.04
418.649	1596.39
418.857	1637.35
419.065	1747.94
419.273	1639.4
419.481	1698.79
419.689	1854.44
419.897	1950.69
420.105	1967.07
420.313	2157.54
420.521	2104.29
420.729	2214.88
420.937	2315.23
421.145	2180.06
421.353	2276.32
421.561	2495.45
421.769	2630.62
421.977	2677.72
422.185	2644.95
422.393	2859.99
422.601	3113.94
422.809	3032.02
423.017	2962.39
423.224	3036.11
423.432	3267.53
423.64	3335.12
423.848	3433.42
424.056	3378.12
424.263	3623.88
424.471	3787.72
424.679	3816.39
424.887	4174.78
425.094	4164.54
425.302	4164.54
425.51	4365.25
425.718	4424.64
425.925	4551.61
426.133	4719.54
426.341	4981.68
426.548	5039.03
426.756	5139.38
426.964	5245.87
427.171	5653.42
427.379	5551.02
427.586	5745.58
427.794	5995.43
428.001	6253.47
428.209	6532
428.417	6314.91
428.624	6898.58
428.832	6826.9
429.039	6742.94
429.247	6798.23
429.454	7578.51
429.662	7996.29
429.869	7429.01
430.076	7992.2
430.284	7637.9
430.491	8129.41
430.699	8625.02
430.906	8577.92
431.114	8532.86
431.321	9120.63
431.528	9247.6
431.736	9737.07
431.943	10113.89
432.15	9784.17
432.358	10070.89
432.565	10609.5
432.772	10548.06
432.979	11191.13
433.187	11451.22
433.394	11336.53
433.601	12069.7
433.808	12168.01
434.016	11934.54
434.223	12501.83
434.43	13302.58
434.637	13022.01
434.844	13689.65
435.052	14267.17
435.259	14129.96
435.466	14175.02
435.673	13947.69
435.88	14938.91
436.087	15866.64
436.294	15842.06
436.501	15440.66
436.708	15674.13
436.915	16374.53
437.122	17083.13
437.329	16911.1
437.537	17158.91
437.743	17849.07
437.95	17517.3
438.157	18619.11
438.364	19163.87
438.571	19071.71
438.778	19370.71
438.985	21007.04
439.192	20380.36
439.399	20886.21
439.606	20290.25
439.813	21686.97
440.02	22678.18
440.227	22307.5
440.433	22352.55
440.64	23055.01
440.847	22659.75
441.054	23526.04
441.261	25268.86
441.467	24945.28
441.674	25350.78
441.881	26268.27
442.088	25920.12
442.294	25641.59
442.501	26530.41
442.708	27200.1
442.914	27890.26
443.121	29450.81
443.328	28703.31
443.534	30564.91
443.741	29401.66
443.948	29430.33
444.154	31349.28
444.361	31111.72
444.568	31517.22
444.774	31384.1
444.981	31875.61
445.187	32782.86
445.394	34408.95
445.6	33845.76
445.807	36964.81
446.013	35529.19
446.22	36045.27
446.426	37319.11
446.633	37908.93
446.839	38859.18
447.046	37126.6
447.252	39221.67
447.459	39389.61
447.665	39063.98
447.871	40814.99
448.078	42293.63
448.284	40358.3
448.491	41339.27
448.697	43002.22
448.903	43989.34
449.11	44245.34
449.316	43016.56
449.522	43786.6
449.728	44824.92
449.935	45070.67
450.141	45328.72
450.347	46305.6
450.553	44659.03
450.76	45404.49
450.966	46510.39
451.172	46422.33
451.378	46995.76
451.584	46451
451.791	47218.99
451.997	46840.12
452.203	48003.36
452.409	47806.76
452.615	47690.02
452.821	45650.25
453.027	45234.51
453.233	48044.32
453.44	45670.73
453.646	46379.32
453.852	46090.56
454.058	46895.41
454.264	45015.38
454.47	46061.89
454.676	45424.97
454.882	46520.63
455.088	42664.31
455.294	43266.41
455.5	43891.04
455.705	44568.92
455.911	42385.79
456.117	41597.32
456.323	41738.63
456.529	39004.59
456.735	40450.45
456.941	39442.85
457.147	38369.72
457.352	37654.98
457.558	36860.37
457.764	37220.81
457.97	36561.36
458.176	35783.13
458.381	35441.12
458.587	33778.17
458.793	33593.86
458.999	32213.52
459.204	34777.58
459.41	33303.04
459.616	31064.61
459.821	31279.65
460.027	31023.65
460.233	30380.59
460.438	28992.07
460.644	29446.72
460.85	27845.21
461.055	27714.14
461.261	27521.63
461.466	25715.32
461.672	24617.61
461.878	26215.02
462.083	24572.55
462.289	24128.14
462.494	24105.62
462.7	22880.93
462.905	22436.52
463.111	23102.11
463.316	23454.36
463.522	22520.49
463.727	22844.07
463.932	22749.86
464.138	22153.9
464.343	22710.95
464.549	22088.37
464.754	23044.77
464.959	22610.6
465.165	22530.73
465.37	21412.54
465.575	20691.65
465.781	21541.56
465.986	21815.99
466.191	21310.14
466.397	20441.8
466.602	19450.58
466.807	20419.27
467.012	20533.96
467.218	20071.12
467.423	19811.03
467.628	20032.21
467.833	20910.78
468.038	20144.84
468.244	19471.06
468.449	20079.31
468.654	19747.54
468.859	19663.57
469.064	19520.21
469.269	18961.12
469.474	18864.86
469.679	19313.37
469.885	18647.78
470.09	18946.78
470.295	18850.53
470.5	18445.03
470.705	18260.71
470.91	17908.46
471.115	17670.9
471.32	17994.48
471.525	17722.1
471.73	17402.61
471.935	17308.41
472.139	16864
472.344	17017.6
472.549	16864
472.754	16702.21
472.959	16495.36
473.164	15667.98
473.369	15733.52
473.574	16376.58
473.778	16343.81
473.983	16040.72
474.188	15995.66
474.393	15377.17
474.598	15549.2
474.802	14940.96
475.007	15250.2
475.212	15158.04
475.417	14572.32
475.621	14480.16
475.826	14428.96
476.031	14404.39
476.235	14117.67
476.44	14357.28
476.645	13906.73
476.849	13863.72
477.054	13734.7
477.259	13691.7
477.463	13675.31
477.668	13355.83
477.872	13402.93
478.077	13157.18
478.282	12802.88
478.486	12673.85
478.691	12768.06
478.895	12874.56
479.1	12731.2
479.304	12673.85
479.509	12041.03
479.713	12530.5
479.918	12149.57
480.122	12030.79
480.326	12133.19
480.531	12165.96
480.735	12337.99
480.94	11950.92
481.144	12223.3
481.348	11674.45
481.553	12028.74
481.757	11678.54
481.961	11991.88
482.166	11991.88
482.37	11875.15
482.574	11840.33
482.778	11653.97
482.983	11725.65
483.187	11676.49
483.391	11776.84
483.595	11719.5
483.8	11692.88
484.004	11690.83
484.208	12065.61
484.412	11838.28
484.616	11510.61
484.821	12026.7
485.025	11512.66
485.229	11668.3
485.433	11787.08
485.637	11641.68
485.841	11604.81
486.045	11572.05
486.249	11918.15
486.453	11549.52
486.657	11662.16
486.861	11701.07
487.065	11545.42
487.269	11604.81
487.473	11430.74
487.677	11733.84
487.881	11610.96
488.085	11793.23
488.289	11807.56
488.493	11801.42
488.697	11780.94
488.901	11893.58
489.105	11688.78
489.309	11889.48
489.512	11918.15
489.716	11635.53
489.92	11709.26
490.124	11840.33
490.328	12002.12
490.531	11944.78
490.735	11914.06
490.939	12102.47
491.143	11914.06
491.346	11961.16
491.55	12292.93
491.754	12151.62
491.958	12077.9
492.161	12348.23
492.365	12217.16
492.569	12452.67
492.772	12383.04
492.976	12520.26
493.18	12653.37
493.383	12737.34
493.587	12743.49
493.79	13054.78
493.994	12628.8
494.197	12763.97
494.401	13009.72
494.605	13052.73
494.808	13343.54
495.012	13370.16
495.215	13353.78
495.419	13351.73
495.622	13421.36
495.825	13642.54
496.029	13744.94
496.232	14115.62
496.436	14070.57
496.639	14414.63
496.843	14107.43
497.046	14474.02
497.249	14803.74
497.453	14850.85
497.656	14900
497.859	14711.58
498.063	14875.42
498.266	15371.03
498.469	15389.46
498.673	15647.51
498.876	15680.27
499.079	15903.5
499.282	15719.18
499.485	16235.27
499.689	16378.63
499.892	16784.13
500.095	16626.43
500.298	17154.81
500.501	16874.24
500.705	17416.95
500.908	17568.5
501.111	17705.71
501.314	17789.68
501.517	17933.04
501.72	18232.04
501.923	18215.66
502.126	18787.04
502.329	18957.02
502.532	19339.99
502.735	19210.97
502.938	19540.69
503.141	19495.64
503.344	19763.92
503.547	19972.82
503.75	20325.07
503.953	20589.25
504.156	20742.85
504.359	20935.36
504.562	20779.71
504.765	21469.88
504.968	21635.77
505.17	22065.84
505.373	21781.17
505.576	22477.48
505.779	22428.33
505.982	22622.89
506.185	22872.74
506.387	23059.1
506.59	23392.92
506.793	23816.85
506.996	23659.16
507.198	24466.06
507.401	24380.04
507.604	24689.29
507.807	25254.53
508.009	25449.08
508.212	25391.74
508.415	25844.34
508.617	26063.47
508.82	26399.34
509.022	26215.02
509.225	26753.64
509.428	26976.87
509.63	27439.71
509.833	27136.61
510.035	27824.73
510.238	27898.45
510.44	28228.18
510.643	28912.2
510.845	29164.1
511.048	28582.48
511.25	29246.02
511.453	29186.63
511.655	30548.53
511.858	29971
512.06	30030.39
512.262	30394.93
512.465	30685.74
512.667	31109.67
512.87	31529.5
513.072	31377.95
513.274	32262.68
513.477	32700.94
513.679	32414.23
513.881	33157.64
514.084	33659.39
514.286	33477.12
514.488	33632.77
514.69	34613.74
514.893	34736.62
515.095	34929.13
515.297	35207.65
515.499	35269.09
515.701	35803.61
515.904	36188.63
516.106	36452.82
516.308	36930
516.51	37102.03
516.712	37007.82
516.914	37806.53
517.116	38044.09
517.318	38412.73
517.52	38494.64
517.722	38631.86
517.925	39049.64
518.127	39580.07
518.329	39834.02
518.531	39627.17
518.733	40819.09
518.935	40888.72
519.136	41005.45
519.338	41685.38
519.54	41771.39
519.742	42002.82
519.944	41980.29
520.146	42615.16
520.348	42754.42
520.55	43520.36
520.752	43278.7
520.954	44237.15
521.155	43843.94
521.357	44806.48
521.559	45085.01
521.761	45355.34
521.963	45691.21
522.164	45701.45
522.366	45611.34
522.568	46166.34
522.77	46354.75
522.971	47153.46
523.173	46557.5
523.375	47849.77
523.576	47288.62
523.778	47776.04
523.98	48380.19
524.181	48374.05
524.383	48492.83
524.584	49051.92
524.786	48849.17
524.988	48898.33
525.189	49486.09
525.391	49955.08
525.592	49891.59
525.794	50393.34
525.995	50395.39
526.197	50159.87
526.398	50657.53
526.6	51034.36
526.801	51103.99
527.003	51380.46
527.204	51437.81
527.406	51894.5
527.607	51949.8
527.808	52381.92
528.01	51417.33
528.211	51876.07
528.412	52832.47
528.614	52754.65
528.815	52871.39
529.016	53313.75
529.218	52883.67
529.419	52680.92
529.62	52842.71
529.822	53135.57
530.023	53088.47
530.224	53487.82
530.425	53395.67
530.626	53342.42
530.828	52891.86
531.029	54280.39
531.23	53344.47
531.431	53442.77
531.632	53858.51
531.833	54055.11
532.035	54196.42
532.236	54137.03
532.437	54395.07
532.638	54182.09
532.839	54190.28
533.04	53969.1
533.241	53702.86
533.442	54784.19
533.643	54079.69
533.844	54354.11
534.045	54880.44
534.246	53899.47
534.447	54798.52
534.648	54732.99
534.849	55103.67
535.05	54251.72
535.251	54821.05
535.451	54683.84
535.652	54452.42
535.853	54483.14
536.054	55294.13
536.255	55054.52
536.456	54378.69
536.657	55513.26
536.857	54491.33
537.058	54485.18
537.259	54853.82
537.46	54898.87
537.66	54505.66
537.861	55150.77
538.062	54644.93
538.263	54788.28
538.463	54374.59
538.664	54821.05
538.865	54845.63
539.065	54997.18
539.266	54075.59
539.466	55165.11
539.667	54603.97
539.868	55025.85
540.068	54812.86
540.269	54757.56
540.469	55042.23
540.67	54679.74
540.87	54390.98
541.071	54505.66
541.271	54902.97
541.472	54374.59
541.672	54552.77
541.873	54384.83
542.073	53606.61
542.274	55120.05
542.474	54225.09
542.675	53864.65
542.875	54925.5
543.075	54606.01
543.276	53760.2
543.476	54853.82
543.676	54083.78
543.877	54397.12
544.077	54522.05
544.277	53889.23
544.478	54325.44
544.678	54540.48
544.878	54288.58
545.078	54132.93
545.279	54245.57
545.479	54079.69
545.679	54499.52
545.879	54655.17
546.079	54315.2
546.28	54149.32
546.48	54089.93
546.68	54255.81
546.88	54169.8
547.08	54229.19
547.28	54096.07
547.48	53776.59
547.68	53694.67
547.88	54100.17
548.081	54014.15
548.281	53997.77
548.481	53584.08
548.681	54235.33
548.881	53586.13
549.081	53649.61
549.28	53821.64
549.48	53989.58
549.68	53795.02
549.88	54309.06
550.08	53338.32
550.28	53903.56
550.48	53416.14
550.68	53874.89
550.88	53559.5
551.08	53598.41
551.279	54096.07
551.479	53072.09
551.679	53498.06
551.879	53448.91
552.079	53608.65
552.278	53260.5
552.478	53522.64
552.678	53639.37
552.878	53412.05
553.077	53217.49
553.277	53094.61
553.477	53958.86
553.676	53035.22
553.876	52828.38
554.076	52994.26
554.275	52977.88
554.475	52179.17
554.674	53129.43
554.874	52924.63
555.074	52992.22
555.273	53129.43
555.473	53240.02
555.672	52795.61
555.872	52818.14
556.071	52482.27
556.271	52949.21
556.47	52269.28
556.67	52320.48
556.869	52209.89
557.068	52613.34
557.268	51894.5
557.467	52463.84
557.667	51970.28
557.866	52371.68
558.065	52093.16
558.265	51755.24
558.464	51783.91
558.663	51894.5
558.863	51329.26
559.062	52070.63
559.261	51316.98
559.461	51890.41
559.66	51048.69
559.859	51704.04
560.058	51185.91
560.258	51296.5
560.457	50696.44
560.656	51294.45
560.855	50833.66
561.054	51435.76
561.253	50782.46
561.453	50899.19
561.652	50829.56
561.851	51114.23
562.05	50520.32
562.249	50000.13
562.448	50792.7
562.647	50925.81
562.846	50137.35
563.045	50321.66
563.244	49852.68
563.443	50602.24
563.642	49803.53
563.841	50135.3
564.04	49883.4
564.239	50012.42
564.438	49127.7
564.637	50000.13
564.836	49299.73
565.035	48994.58
565.234	49217.81
565.432	48640.28
565.631	49070.36
565.83	49000.72
566.029	48668.95
566.228	48326.94
566.427	48603.42
566.625	48238.88
566.824	47896.87
567.023	48933.14
567.222	47561
567.42	48488.73
567.619	48222.5
567.818	47730.98
568.016	47610.15
568.215	47943.97
568.414	47198.51
568.612	47673.64
568.811	47284.53
569.01	47681.83
569.208	46911.8
569.407	47141.17
569.605	46874.93
569.804	47192.37
570.002	46612.79
570.201	46965.04
570.4	46428.48
570.598	46059.84
570.797	45953.35
570.995	46426.43
571.193	45439.31
571.392	45953.35
571.59	45586.76
571.789	45662.54
571.987	45615.43
572.186	45291.85
572.384	45261.13
572.582	45273.42
572.781	45341
572.979	44872.02
573.177	45134.16
573.376	45250.89
573.574	44794.2
573.772	44917.07
573.971	44398.94
574.169	44179.81
574.367	43794.79
574.565	44503.38
574.763	44181.85
574.962	44253.53
575.16	43630.95
575.358	43958.63
575.556	42928.5
575.754	43946.34
575.952	42803.57
576.151	43536.74
576.349	43006.32
576.547	42926.45
576.745	43196.78
576.943	42887.54
577.141	42781.04
577.339	42946.93
577.537	42334.59
577.735	42670.45
577.933	41963.9
578.131	42273.15
578.329	41785.73
578.527	41619.84
578.725	41939.33
578.923	41920.9
579.121	41718.15
579.319	41595.27
579.516	41580.93
579.714	41558.41
579.912	41406.86
580.11	41533.83
580.308	40950.16
580.506	40939.92
580.704	40296.86
580.901	41034.13
581.099	40903.06
581.297	40485.27
581.495	40563.09
581.692	40651.16
581.89	39938.46
582.088	40393.11
582.285	39932.32
582.483	40067.48
582.681	39930.27
582.878	39600.55
583.076	39621.03
583.274	39762.34
583.471	39420.33
583.669	39410.09
583.866	39068.08
584.064	39287.21
584.262	38896.05
584.459	39172.52
584.657	38828.46
584.854	38924.72
585.052	38298.04
585.249	38750.64
585.447	38181.31
585.644	37781.95
585.841	37867.97
586.039	38312.38
586.236	37896.64
586.434	37683.65
586.631	37652.93
586.828	37554.63
587.026	37755.33
587.223	37538.24
587.42	37747.14
587.618	37493.19
587.815	36592.08
588.012	36905.42
588.21	36983.24
588.407	37073.35
588.604	36667.86
588.801	36377.04
588.999	36538.83
589.196	36385.24
589.393	35926.49
589.59	36000.22
589.787	35856.86
589.984	35926.49
590.182	35543.52
590.379	35539.43
590.576	35492.32
590.773	35564
590.97	35373.54
591.167	35437.03
591.364	35193.32
591.561	34994.67
591.758	34972.14
591.955	34728.43
592.152	34986.47
592.349	34499.06
592.546	34900.46
592.743	34808.3
592.94	34550.26
593.137	34587.12
593.334	34517.49
593.531	33870.33
593.727	34349.56
593.924	33952.25
594.121	33593.86
594.318	34081.27
594.515	33180.17
594.712	33780.22
594.908	33542.66
595.105	33745.41
595.302	32842.25
595.499	33427.97
595.696	32844.3
595.892	32842.25
596.089	32885.26
596.286	32725.52
596.482	32590.35
596.679	32811.53
596.876	32571.92
597.072	32494.1
597.269	32154.13
597.466	32074.26
597.662	32217.62
597.859	31879.71
598.055	31924.76
598.252	32041.5
598.448	31578.65
598.645	31703.58
598.841	31648.29
599.038	31719.96
599.234	31513.12
599.431	31275.55
599.627	31324.71
599.824	31453.73
600.02	31081
600.217	30806.57
600.413	30517.81
600.609	30831.15
600.806	30800.43
601.002	30566.96
601.198	30685.74
601.395	30159.41
601.591	30294.58
601.787	30429.74
601.984	30319.15
602.18	30323.25
602.376	29780.54
602.572	29573.69
602.769	30220.85
602.965	29753.91
603.161	29889.08
603.357	29407.81
603.553	29282.88
603.75	29200.96
603.946	29282.88
604.142	29364.8
604.338	29022.79
604.534	28883.53
604.73	28504.65
604.926	28629.58
605.122	28553.8
605.318	28430.93
605.514	28605
605.71	28000.85
605.906	28213.84
606.102	28527.18
606.298	28244.56
606.494	28084.82
606.69	28146.26
606.886	28183.12
607.082	27554.4
607.278	28193.36
607.474	27644.51
607.67	27968.09
607.866	27386.46
608.062	27830.87
608.257	27222.62
608.453	27574.88
608.649	27585.12
608.845	27208.29
609.041	27322.98
609.236	27331.17
609.432	27101.79
609.628	27425.37
609.824	26618.47
610.019	26917.48
610.215	26808.93
610.411	27050.6
610.606	26788.46
610.802	26827.37
610.998	26735.21
611.193	26761.83
611.389	26479.21
611.584	26579.56
611.78	26223.22
611.976	26243.7
612.171	26366.57
612.367	26788.46
612.562	26014.32
612.758	25987.7
612.953	25621.11
613.149	26432.11
613.344	25623.16
613.539	26511.98
613.735	26034.8
613.93	25832.05
614.126	25748.09
614.321	26319.47
614.517	25879.16
614.712	25602.68
614.907	25682.55
615.103	25864.82
615.298	25422.46
615.493	25897.59
615.688	25248.38
615.884	26051.19
616.079	25102.98
616.274	25184.9
616.47	25399.93
616.665	25440.89
616.86	24916.61
617.055	25150.08
617.25	24900.23
617.445	25320.06
617.641	24652.42
617.836	24922.76
618.031	24748.68
618.226	24924.8
618.421	24533.64
618.616	24908.42
618.811	24593.03
619.006	24734.34
619.201	24072.85
619.396	24394.38
619.591	23763.61
619.786	24187.53
619.981	23628.44
620.176	24033.94
620.371	23689.88
620.566	23917.2
620.761	23614.1
620.956	23614.1
621.151	23429.79
621.346	23515.8
621.541	22915.75
621.735	23165.6
621.93	22801.06
622.125	23276.19
622.32	22469.29
622.515	22749.86
622.709	22731.43
622.904	22362.79
623.099	22332.08
623.294	22121.13
623.488	22033.07
623.683	22194.86
623.878	21893.81
624.072	21824.18
624.267	21775.03
624.462	21693.11
624.656	21506.74
624.851	21547.7
625.046	21351.1
625.24	21140.16
625.435	20902.59
625.629	20939.46
625.824	20869.83
626.018	20888.26
626.213	20536.01
626.407	20683.46
626.602	20259.53
626.796	20306.63
626.991	20212.43
627.185	20179.66
627.38	20091.6
627.574	20009.68
627.768	19593.94
627.963	19575.51
628.157	19575.51
628.352	19454.68
628.546	19434.2
628.74	19362.52
628.935	18778.85
629.129	19151.58
629.323	18838.24
629.517	18957.02
629.712	18647.78
629.906	18760.42
630.1	18520.81
630.294	18469.61
630.489	18287.34
630.683	18342.63
630.877	18209.51
631.071	18043.63
631.265	18143.98
631.459	17875.7
631.653	17881.84
631.848	17763.06
632.042	17677.04
632.236	17693.43
632.43	17416.95
632.624	17494.77
632.818	17343.22
633.012	16968.45
633.206	17140.47
633.4	17302.26
633.594	17056.51
633.788	16728.83
633.982	16988.92
634.176	16829.18
634.369	16638.72
634.563	16360.2
634.757	16790.27
634.951	16485.12
635.145	16288.52
635.339	16282.38
635.533	16005.9
635.726	16093.96
635.92	15739.66
636.114	15762.19
636.308	15923.98
636.501	15737.62
636.695	15739.66
636.889	15452.95
637.083	15549.2
637.276	15495.96
637.47	15436.56
637.664	15309.59
637.857	15176.47
638.051	14983.96
638.244	15074.07
638.438	14885.66
638.632	14775.07
638.825	14646.05
639.019	14514.98
639.212	14533.41
639.406	14510.88
639.599	14553.89
639.793	14361.38
639.986	14056.23
640.18	14162.73
640.373	14443.3
640.567	13880.11
640.76	14056.23
640.954	13759.28
641.147	13620.02
641.34	13816.62
641.534	13945.64
641.727	13830.96
641.92	13615.92
642.114	13404.98
642.307	13458.23
642.5	13181.75
642.694	13439.79
642.887	13130.55
643.08	13306.68
643.273	13073.21
643.467	12929.85
643.66	12952.38
643.853	12763.97
644.046	12669.76
644.239	12727.1
644.432	12704.57
644.626	12540.74
644.819	12481.35
645.012	12348.23
645.205	12434.24
645.398	12245.83
645.591	12266.31
645.784	12133.19
645.977	12137.29
646.17	12315.46
646.363	11834.19
646.556	11887.43
646.749	11967.31
646.942	11664.21
647.135	11799.37
647.328	11766.6
647.521	11570
647.714	11359.06
647.907	11639.63
648.099	11447.12
648.292	11508.56
648.485	11393.87
648.678	11225.94
648.871	11107.16
649.064	11002.71
649.256	11361.11
649.449	11062.1
649.642	11123.54
649.835	10931.03
650.027	10918.75
650.22	10859.35
650.413	10685.28
650.605	10830.68
650.798	10519.39
650.991	10601.31
651.183	10494.82
651.376	10371.94
651.568	10382.18
651.761	10197.86
651.954	10214.24
652.146	10152.81
652.339	10261.35
652.531	10120.04
652.724	10089.32
652.916	9825.13
653.109	10009.45
653.301	10093.41
653.494	10058.6
653.686	9687.92
653.879	9915.24
654.071	9597.81
654.263	9722.73
654.456	9669.48
654.648	9706.35
654.84	9534.32
655.033	9470.83
655.225	9415.54
655.417	9390.96
655.61	9380.72
655.802	9251.7
655.994	9057.14
656.186	9227.12
656.379	9153.4
656.571	9030.52
656.763	8924.02
656.955	8909.69
657.148	8790.91
657.34	8831.87
657.532	8799.1
657.724	8694.65
657.916	8819.58
658.108	8651.64
658.3	8678.27
658.492	8473.47
658.684	8553.34
658.876	8606.59
659.068	8575.87
659.26	8428.42
659.452	8364.93
659.644	8340.35
659.836	8317.83
660.028	8348.54
660.22	8207.23
660.412	8174.47
660.604	8065.92
660.796	8106.88
660.988	8203.14
661.18	7990.15
661.372	7842.7
661.563	7897.99
661.755	7883.66
661.947	7957.38
662.139	7826.31
662.331	7562.12
662.522	7629.71
662.714	7490.45
662.906	7572.36
663.097	7617.42
663.289	7455.63
663.481	7445.39
663.673	7445.39
663.864	7451.53
664.056	7400.34
664.247	7283.6
664.439	7318.42
664.631	7386
664.822	7289.74
665.014	7283.6
665.205	7140.24
665.397	7152.53
665.588	7285.65
665.78	7193.49
665.971	7029.65
666.163	6962.07
666.354	7050.13
666.546	7068.56
666.737	7025.56
666.929	6990.74
667.12	6794.14
667.311	6712.22
667.503	6665.11
667.694	6759.32
667.885	6744.99
668.077	6699.93
668.268	6615.96
668.459	6509.47
668.651	6615.96
668.842	6454.17
669.033	6642.59
669.224	6458.27
669.416	6542.24
669.607	6476.7
669.798	6560.67
669.989	6407.07
670.18	6372.25
670.371	6421.41
670.563	6380.45
670.754	6241.18
670.945	6267.81
671.136	6314.91
671.327	6128.55
671.518	6138.79
671.709	6116.26
671.9	6204.32
672.091	6032.29
672.282	6079.4
672.473	6011.81
672.664	6024.1
672.855	5958.57
673.046	6146.98
673.237	6009.76
673.428	5948.33
673.619	6056.87
673.809	5946.28
674	5940.13
674.191	5931.94
674.382	5782.44
674.573	5856.17
674.764	5770.15
674.954	5872.55
675.145	5854.12
675.336	5702.57
675.527	5663.66
675.717	5710.76
675.908	5612.46
676.099	5694.38
676.289	5688.23
676.48	5581.74
676.671	5575.59
676.861	5651.37
677.052	5444.52
677.243	5630.89
677.433	5483.44
677.624	5675.95
677.814	5553.07
678.005	5594.03
678.195	5465
678.386	5522.35
678.576	5407.66
678.767	5356.46
678.957	5366.7
679.148	5458.86
679.338	5280.69
679.529	5442.48
679.719	5305.26
679.909	5475.24
680.1	5233.58
680.29	5551.02
680.481	5354.41
680.671	5290.93
680.861	5342.13
681.052	5286.83
681.242	5231.54
681.432	5219.25
681.622	5309.36
681.813	5168.05
682.003	5274.54
682.193	5219.25
682.383	5256.11
682.573	5364.65
682.764	5315.5
682.954	5329.84
683.144	5049.27
683.334	5166
683.524	5147.57
683.714	5213.1
683.904	5135.28
684.094	5153.71
684.284	5028.79
684.474	4996.02
684.664	5026.74
684.854	4897.72
685.044	4903.86
685.234	4967.35
685.424	4912.05
685.614	4899.77
685.804	4973.49
685.994	4926.39
686.184	4823.99
686.374	4879.29
686.564	4873.14
686.753	4821.94
686.943	4701.11
687.133	4813.75
687.323	4762.55
687.513	4750.26
687.702	4746.17
687.892	4717.5
688.082	4654.01
688.272	4672.44
688.461	4721.59
688.651	4705.21
688.841	4574.14
689.03	4529.08
689.22	4641.72
689.41	4465.6
689.599	4469.69
689.789	4488.12
689.979	4481.98
690.168	4545.47
690.358	4434.88
690.547	4320.19
690.737	4373.44
690.926	4393.92
691.116	4260.8
691.305	4563.9
691.495	4451.26
691.684	4174.78
691.874	4342.72
692.063	4225.98
692.252	4035.52
692.442	4228.03
692.631	4109.25
692.82	4107.2
693.01	4164.54
693.199	4207.55
693.388	4070.34
693.578	4180.93
693.767	4133.82
693.956	4240.32
694.146	4060.1
694.335	3988.42
694.524	3941.32
694.713	4094.91
694.902	3965.89
695.092	3908.55
695.281	3898.31
695.47	3978.18
695.659	3826.63
695.848	4049.86
696.037	3881.92
696.226	3988.42
696.415	3873.73
696.604	3957.7
696.793	3877.83
696.982	3826.63
697.171	3912.64
697.36	3990.47
697.549	3902.4
697.738	3892.16
697.927	3845.06
698.116	3810.25
698.305	3709.9
698.494	3703.75
698.683	3929.03
698.872	3914.69
699.061	3691.46
699.25	3765.19
699.438	3814.34
699.627	3681.22
699.816	3757
700.005	3630.02
700.193	3750.85
700.382	3687.37
700.571	3957.7
700.76	3716.04
700.948	3830.73
701.137	3840.97
701.326	3656.65
701.514	3603.4
701.703	3713.99
701.892	3738.57
702.08	3816.39
702.269	3746.76
702.457	3640.26
702.646	3722.18
702.834	3646.41
703.023	3552.2
703.212	3771.33
703.4	3605.45
703.589	3660.74
703.777	3550.15
703.965	3668.94
704.154	3609.54
704.342	3636.17
704.531	3466.19
704.719	3515.34
704.907	3556.3
705.096	3529.67
705.284	3587.02
705.472	3505.1
705.661	3664.84
705.849	3572.68
706.037	3673.03
706.226	3458
706.414	3627.98
706.602	3627.98
706.79	3664.84
706.979	3558.35
707.167	3556.3
707.355	3595.21
707.543	3709.9
707.731	3591.11
707.919	3527.63
708.107	3513.29
708.296	3572.68
708.484	3566.54
708.672	3462.09
708.86	3486.67
709.048	3363.79
709.236	3521.48
709.424	3513.29
709.612	3679.18
709.8	3537.87
709.988	3529.67
710.176	3501
710.364	3593.16
710.551	3627.98
710.739	3431.37
710.927	3470.28
711.115	3490.76
711.303	3515.34
711.491	3584.97
711.679	3417.04
711.866	3419.08
712.054	3593.16
712.242	3480.52
712.43	3607.5
712.617	3466.19
712.805	3580.87
712.993	3544.01
713.181	3496.91
713.368	3437.52
713.556	3347.4
713.744	3410.89
713.931	3582.92
714.119	3527.63
714.306	3427.28
714.494	3556.3
714.682	3478.47
714.869	3402.7
715.057	3584.97
715.244	3562.44
715.432	3568.59
715.619	3501
715.807	3589.07
715.994	3603.4
716.182	3554.25
716.369	3494.86
716.556	3492.81
716.744	3425.23
716.931	3431.37
717.119	3595.21
717.306	3605.45
717.493	3546.06
717.681	3443.66
717.868	3408.84
718.055	3607.5
718.242	3433.42
718.43	3539.91
718.617	3617.74
718.804	3560.39
718.991	3455.95
719.179	3523.53
719.366	3359.69
719.553	3525.58
719.74	3384.27
719.927	3544.01
720.114	3365.84
720.301	3464.14
720.488	3486.67
720.676	3341.26
720.863	3578.83
721.05	3523.53
721.237	3445.71
721.424	3560.39
721.611	3531.72
721.798	3458
721.985	3441.61
722.172	3410.89
722.358	3335.12
722.545	3527.63
722.732	3367.88
722.919	3400.65
723.106	3365.84
723.293	3435.47
723.48	3386.32
723.667	3423.18
723.853	3206.1
724.04	3496.91
724.227	3515.34
724.414	3318.73
724.6	3316.69
724.787	3345.36
724.974	3488.71
725.161	3400.65
725.347	3290.06
725.534	3433.42
725.72	3437.52
725.907	3275.73
726.094	3529.67
726.28	3458
726.467	3382.22
726.653	3304.4
726.84	3419.08
727.027	3400.65
727.213	3357.64
727.4	3390.41
727.586	3378.12
727.773	3290.06
727.959	3494.86
728.145	3386.32
728.332	3320.78
728.518	3324.88
728.705	3408.84
728.891	3337.17
729.077	3361.74
729.264	3394.51
729.45	3382.22
729.636	3402.7
729.823	3400.65
730.009	3367.88
730.195	3378.12
730.382	3384.27
730.568	3402.7
730.754	3400.65
730.94	3275.73
731.126	3316.69
731.313	3251.15
731.499	3269.58
731.685	3236.81
731.871	3339.21
732.057	3195.86
732.243	3232.72
732.429	3173.33
732.615	3318.73
732.801	3214.29
732.987	3304.4
733.173	3263.44
733.359	3320.78
733.545	3312.59
733.731	3132.37
733.917	3343.31
734.103	3328.97
734.289	3318.73
734.475	3222.48
734.661	3144.66
734.847	3118.03
735.033	3288.01
735.219	3214.29
735.404	3263.44
735.59	3224.53
735.776	3234.77
735.962	3288.01
736.148	3236.81
736.333	3181.52
736.519	3148.75
736.705	3288.01
736.89	3193.81
737.076	3253.2
737.262	3099.6
737.447	3136.46
737.633	3093.46
737.819	3005.39
738.004	3081.17
738.19	3113.94
738.375	3075.03
738.561	3152.85
738.747	2956.24
738.932	3007.44
739.118	3095.5
739.303	3075.03
739.489	3011.54
739.674	2923.48
739.859	3091.41
740.045	3097.55
740.23	2950.1
740.416	3019.73
740.601	3036.11
740.786	3007.44
740.972	2968.53
741.157	2859.99
741.342	2896.85
741.528	2909.14
741.713	2984.91
741.898	3056.59
742.084	2972.63
742.269	3027.92
742.454	2952.15
742.639	2896.85
742.824	2892.76
743.01	2931.67
743.195	2876.37
743.38	2952.15
743.565	2833.36
743.75	2739.16
743.935	2747.35
744.12	2864.08
744.305	2733.01
744.49	2718.68
744.675	2642.9
744.86	2800.6
745.045	2681.82
745.23	2702.29
745.415	2663.38
745.6	2728.92
745.785	2710.49
745.97	2745.3
746.155	2644.95
746.34	2673.62
746.525	2501.59
746.71	2687.96
746.895	2581.46
747.079	2634.71
747.264	2618.33
747.449	2552.79
747.634	2403.29
747.819	2622.42
748.003	2448.35
748.188	2532.31
748.373	2421.72
748.557	2558.94
748.742	2423.77
748.927	2565.08
749.111	2438.11
749.296	2403.29
749.481	2431.96
749.665	2329.56
749.85	2288.61
750.034	2341.85
750.219	2188.25
750.404	2180.06
750.588	2280.41
750.773	2075.62
750.957	2278.37
751.141	2237.41
751.326	2188.25
751.51	2218.97
751.695	2051.04
751.879	2132.96
752.064	2251.74
752.248	2126.82
752.432	2264.03
752.617	2073.57
752.801	2067.42
752.985	2010.08
753.17	2042.85
753.354	1983.46
753.538	2010.08
753.722	1962.98
753.907	1999.84
754.091	1977.31
754.275	1954.79
754.459	1891.3
754.643	1936.35
754.828	1913.83
755.012	1876.96
755.196	1960.93
755.38	1825.76
755.564	1901.54
755.748	1874.92
755.932	1858.53
756.116	1811.43
756.3	1913.83
756.484	1725.41
756.668	1713.13
756.852	1747.94
757.036	1752.04
757.22	1706.98
757.404	1762.28
757.588	1784.8
757.772	1848.29
757.956	1655.78
758.14	1692.65
758.323	1553.38
758.507	1764.33
758.691	1627.11
758.875	1631.21
759.059	1674.21
759.242	1596.39
759.426	1500.14
759.61	1571.82
759.794	1596.39
759.977	1604.58
760.161	1477.61
760.345	1596.39
760.528	1547.24
760.712	1633.26
760.895	1577.96
761.079	1596.39
761.263	1450.99
761.446	1444.84
761.63	1600.49
761.813	1485.8
761.997	1334.25
762.18	1559.53
762.364	1453.03
762.547	1407.98
762.731	1453.03
762.914	1491.95
763.098	1428.46
763.281	1369.07
763.464	1354.73
763.648	1377.26
763.831	1385.45
764.015	1360.88
764.198	1385.45
764.381	1469.42
764.564	1479.66
764.748	1432.55
764.931	1346.54
765.114	1391.59
765.297	1403.88
765.481	1375.21
765.664	1375.21
765.847	1313.77
766.03	1383.4
766.213	1356.78
766.397	1328.11
766.58	1307.63
766.763	1330.16
766.946	1344.49
767.129	1194.99
767.312	1350.64
767.495	1205.23
767.678	1295.34
767.861	1321.96
768.044	1256.43
768.227	1242.09
768.41	1244.14
768.593	1264.62
768.776	1317.87
768.959	1264.62
769.142	1278.96
769.324	1121.26
769.507	1133.55
769.69	1223.66
769.873	1250.28
770.056	1154.03
770.239	1172.46
770.421	1205.23
770.604	1147.89
770.787	1156.08
770.97	1250.28
771.152	1117.17
771.335	1219.57
771.518	1080.3
771.7	1151.98
771.883	1154.03
772.066	1149.93
772.248	1113.07
772.431	1151.98
772.613	1129.45
772.796	1072.11
772.978	1053.68
773.161	1139.69
773.343	1098.74
773.526	1111.02
773.708	1045.49
773.891	1053.68
774.073	1016.82
774.256	969.71
774.438	1094.64
774.621	1027.06
774.803	1039.34
774.985	988.14
775.168	947.19
775.35	984.05
775.532	1092.59
775.715	984.05
775.897	1008.62
776.079	967.67
776.261	918.51
776.444	834.55
776.626	1002.48
776.808	918.51
776.99	943.09
777.173	971.76
777.355	912.37
777.537	941.04
777.719	914.42
777.901	947.19
778.083	787.44
778.265	779.25
778.447	1012.72
778.629	873.46
778.811	828.4
778.993	953.33
779.175	801.78
779.357	764.92
779.539	861.17
779.721	812.02
779.903	875.51
780.085	861.17
780.267	805.88
780.449	715.77
780.631	805.88
780.812	752.63
780.994	781.3
781.176	777.2
781.358	791.54
781.54	754.68
781.721	713.72
781.903	785.4
782.085	742.39
782.267	689.14
782.448	699.38
782.63	766.96
782.812	674.81
782.993	754.68
783.175	695.29
783.357	566.26
783.538	664.57
783.72	740.34
783.901	635.89
784.083	670.71
784.264	611.32
784.446	637.94
784.627	695.29
784.809	683
784.99	617.46
785.172	705.53
785.353	678.9
785.535	666.61
785.716	584.7
785.897	541.69
786.079	596.98
786.26	570.36
786.441	625.65
786.623	572.41
786.804	535.54
786.985	562.17
787.167	625.65
787.348	527.35
787.529	580.6
787.71	582.65
787.891	584.7
788.073	521.21
788.254	517.11
788.435	619.51
788.616	613.37
788.797	576.5
788.978	570.36
789.159	519.16
789.34	558.07
789.522	525.3
789.703	527.35
789.884	480.25
790.065	498.68
790.246	474.1
790.427	547.83
790.607	486.39
790.788	486.39
790.969	484.34
791.15	465.91
791.331	482.3
791.512	453.63
791.693	459.77
791.874	418.81
792.054	498.68
792.235	590.84
792.416	445.43
792.597	472.06
792.778	451.58
792.958	478.2
793.139	388.09
793.32	455.67
793.5	441.34
793.681	494.58
793.862	476.15
794.042	500.73
794.223	404.47
794.404	375.8
794.584	379.9
794.765	340.99
794.945	383.99
795.126	478.2
795.306	416.76
795.487	394.23
795.667	373.75
795.848	439.29
796.028	310.27
796.209	424.95
796.389	347.13
796.57	379.9
796.75	343.03
796.93	443.39
797.111	373.75
797.291	332.79
797.471	326.65
797.652	340.99
797.832	414.71
798.012	396.28
798.192	377.85
798.373	314.36
798.553	369.66
798.733	379.9
798.913	359.42
799.093	340.99
799.274	410.62
799.454	396.28
799.634	324.6
799.814	379.9
799.994	386.04
800.174	381.95
800.354	281.6
800.534	388.09
800.714	361.47
800.894	347.13
801.074	300.03
801.254	355.32
801.434	302.08
801.614	353.27
801.794	250.88
801.974	732.15
802.154	322.56
802.334	273.4
802.514	259.07
802.693	297.98
802.873	281.6
803.053	357.37
803.233	336.89
803.413	283.64
803.592	295.93
803.772	281.6
803.952	330.75
804.131	300.03
804.311	324.6
804.491	357.37
804.67	261.12
804.85	295.93
805.03	261.12
805.209	336.89
805.389	250.88
805.568	263.16
805.748	314.36
805.928	316.41
806.107	250.88
806.287	214.01
806.466	273.4
806.646	236.54
806.825	306.17
807.004	283.64
807.184	277.5
807.363	279.55
807.543	295.93
807.722	273.4
807.901	224.25
808.081	257.02
808.26	228.35
808.439	252.92
808.619	283.64
808.798	232.44
808.977	287.74
809.156	261.12
809.336	254.97
809.515	275.45
809.694	244.73
809.873	246.78
810.052	281.6
810.231	314.36
810.411	216.06
810.59	289.79
810.769	199.68
810.948	226.3
811.127	158.72
811.306	214.01
811.485	240.64
811.664	320.51
811.843	152.57
812.022	226.3
812.201	230.4
812.38	254.97
812.559	195.58
812.737	275.45
812.916	205.82
813.095	236.54
813.274	183.29
813.453	228.35
813.632	181.25
813.811	220.16
813.989	158.72
814.168	248.83
814.347	220.16
814.526	160.77
814.704	254.97
814.883	285.69
815.062	115.71
815.24	263.16
815.419	269.31
815.598	181.25
815.776	162.81
815.955	232.44
816.133	144.38
816.312	123.9
816.49	138.24
816.669	211.96
816.847	148.48
817.026	207.87
817.204	152.57
817.383	203.77
817.561	162.81
817.74	197.63
817.918	166.91
818.097	123.9
818.275	130.05
818.453	140.29
818.632	230.4
818.81	230.4
818.988	142.33
819.167	207.87
819.345	142.33
819.523	148.48
819.701	91.13
819.879	150.53
820.058	138.24
820.236	189.44
820.414	164.86
820.592	150.53
820.77	244.73
820.948	99.33
821.127	121.85
821.305	238.59
821.483	166.91
821.661	195.58
821.839	181.25
822.017	64.51
822.195	187.39
822.373	185.34
822.551	113.66
822.729	209.92
822.907	132.09
823.085	201.72
823.262	205.82
823.44	191.49
823.618	76.8
823.796	195.58
823.974	140.29
824.152	128
824.329	140.29
824.507	152.57
824.685	181.25
824.863	154.62
825.04	105.47
825.218	142.33
825.396	125.95
825.574	142.33
825.751	105.47
825.929	109.57
826.107	154.62
826.284	123.9
826.462	132.09
826.639	105.47
826.817	89.09
826.994	183.29
827.172	136.19
827.349	195.58
827.527	125.95
827.704	162.81
827.882	128
828.059	117.76
828.237	78.85
828.414	97.28
828.591	132.09
828.769	181.25
828.946	134.14
829.124	93.18
829.301	162.81
829.478	142.33
829.655	164.86
829.833	154.62
830.01	15.36
830.187	166.91
830.364	119.81
830.542	128
830.719	166.91
830.896	121.85
831.073	248.83
831.25	158.72
831.427	195.58
831.604	144.38
831.782	183.29
831.959	89.09
832.136	123.9
832.313	164.86
832.49	64.51
832.667	84.99
832.844	175.1
833.021	162.81
833.198	128
833.374	113.66
833.551	179.2
833.728	109.57
833.905	148.48
834.082	39.94
834.259	117.76
834.436	134.14
834.612	130.05
834.789	168.96
834.966	109.57
835.143	150.53
835.319	78.85
835.496	160.77
835.673	87.04
835.85	175.1
836.026	56.32
836.203	78.85
836.38	89.09
836.556	148.48
836.733	109.57
836.909	89.09
837.086	93.18
837.262	136.19
837.439	95.23
837.616	197.63
837.792	74.75
837.968	109.57
838.145	27.65
838.321	148.48
838.498	84.99
838.674	154.62
838.851	113.66
839.027	150.53
839.203	41.98
839.38	56.32
839.556	84.99
839.732	154.62
839.909	105.47
840.085	138.24
840.261	56.32
840.437	140.29
840.614	76.8
840.79	105.47
840.966	207.87
841.142	103.42
841.318	95.23
841.494	76.8
841.671	195.58
841.847	76.8
842.023	136.19
842.199	93.18
842.375	9.22
842.551	125.95
842.727	46.08
842.903	130.05
843.079	11.26
843.255	142.33
843.431	97.28
843.607	179.2
843.783	101.37
843.959	128
844.134	62.46
844.31	134.14
844.486	29.7
844.662	15.36
844.838	123.9
845.013	146.43
845.189	84.99
845.365	130.05
845.541	84.99
845.716	97.28
845.892	84.99
846.068	111.61
846.244	52.22
846.419	58.37
846.595	78.85
846.77	21.5
846.946	54.27
847.122	70.65
847.297	76.8
847.473	44.03
847.648	58.37
847.824	48.13
847.999	89.09
848.175	41.98
848.35	31.74
848.526	76.8
848.701	80.89
848.876	117.76
849.052	99.33
849.227	99.33
849.403	87.04
849.578	54.27
849.753	109.57
849.929	54.27
850.104	33.79
850.279	11.26
850.454	50.18
850.63	72.7
850.805	56.32
850.98	115.71
851.155	35.84
851.33	46.08
851.505	41.98
851.681	31.74
851.856	64.51
852.031	35.84
852.206	44.03
852.381	60.42
852.556	19.46
852.731	66.56
852.906	-23.55
853.081	66.56
853.256	78.85
853.431	66.56
853.606	3.07
853.781	-13.31
853.956	17.41
854.131	52.22
854.305	50.18
854.48	89.09
854.655	-29.7
854.83	50.18
855.005	15.36
855.18	23.55
855.354	62.46
855.529	19.46
855.704	72.7
855.879	54.27
856.053	-27.65
856.228	119.81
856.403	44.03
856.577	62.46
856.752	37.89
856.926	82.94
857.101	44.03
857.276	25.6
857.45	87.04
857.625	41.98
857.799	84.99
857.974	44.03
858.148	54.27
858.323	39.94
858.497	84.99
858.672	29.7
858.846	25.6
859.02	17.41
859.195	52.22
859.369	15.36
859.543	54.27
859.718	72.7
859.892	125.95
860.066	80.89
860.241	-17.41
860.415	84.99
860.589	-1.02
860.763	46.08
860.938	33.79
861.112	97.28
861.286	52.22
861.46	58.37
861.634	37.89
861.808	15.36
861.982	27.65
862.157	87.04
862.331	52.22
862.505	23.55
862.679	7.17
862.853	121.85
863.027	95.23
863.201	60.42
863.375	39.94
863.549	50.18
863.722	-5.12
863.896	44.03
864.07	17.41
864.244	68.61
864.418	44.03
864.592	109.57
864.766	27.65
864.939	39.94
865.113	-7.17
865.287	87.04
865.461	15.36
865.634	37.89
865.808	21.5
865.982	72.7
866.156	37.89
866.329	3.07
866.503	35.84
866.676	-35.84
866.85	27.65
867.024	60.42
867.197	97.28
867.371	82.94
867.544	89.09
867.718	17.41
867.891	27.65
868.065	66.56
868.238	105.47
868.412	89.09
868.585	-13.31
868.759	84.99
868.932	52.22
869.105	11.26
869.279	82.94
869.452	97.28
869.625	25.6
869.799	33.79
869.972	-1.02
870.145	50.18
870.319	99.33
870.492	-29.7
870.665	103.42
870.838	-31.74
871.011	-13.31
871.185	39.94
871.358	-3.07
871.531	54.27
871.704	-13.31
871.877	76.8
872.05	44.03
872.223	44.03
872.396	35.84
872.569	29.7
872.742	19.46
872.915	11.26
873.088	17.41
873.261	39.94
873.434	76.8
873.607	-5.12
873.78	9.22
873.953	-35.84
874.126	-3.07
874.299	48.13
874.471	72.7
874.644	-15.36
874.817	48.13
874.99	62.46
875.163	27.65
875.335	62.46
875.508	7.17
875.681	46.08
875.853	19.46
876.026	56.32
876.199	23.55
876.371	107.52
876.544	29.7
876.717	68.61
876.889	-5.12
877.062	62.46
877.234	-39.94
877.407	-31.74
877.579	35.84
877.752	39.94
877.924	82.94
878.097	119.81
878.269	-5.12
878.442	29.7
878.614	11.26
878.786	-31.74
878.959	-13.31
879.131	58.37
879.303	37.89
879.476	37.89
879.648	13.31
879.82	-21.5
879.993	25.6
880.165	11.26
880.337	-7.17
880.509	76.8
880.681	-70.65
880.854	19.46
881.026	27.65
881.198	56.32
881.37	21.5
881.542	97.28
881.714	-5.12
881.886	27.65
882.058	11.26
882.23	39.94
882.402	54.27
882.574	66.56
882.746	56.32
882.918	35.84
883.09	13.31
883.262	46.08
883.434	-41.98
883.606	-21.5
883.778	-9.22
883.95	68.61
884.122	-7.17
884.293	72.7
884.465	48.13
884.637	39.94
884.809	60.42
884.98	87.04
885.152	80.89
885.324	-5.12
885.496	93.18
885.667	44.03
885.839	41.98
886.011	21.5
886.182	15.36
886.354	-1.02
886.525	21.5
886.697	23.55
886.869	84.99
887.04	13.31
887.212	125.95
887.383	91.13
887.555	33.79
887.726	44.03
887.897	50.18
888.069	7.17
888.24	68.61
888.412	23.55
888.583	23.55
888.754	19.46
888.926	-46.08
889.097	-41.98
889.268	23.55
889.44	27.65
889.611	-58.37
889.782	27.65
889.953	39.94
890.125	99.33
890.296	5.12
890.467	29.7
890.638	19.46
890.809	25.6
890.98	56.32
891.151	41.98
891.323	7.17
891.494	31.74
891.665	-74.75
891.836	123.9
892.007	-29.7
892.178	54.27
892.349	25.6
892.52	3.07
892.691	23.55
892.862	68.61
893.032	37.89
893.203	-25.6
893.374	19.46
893.545	27.65
893.716	39.94
893.887	39.94
894.057	52.22
894.228	1.02
894.399	-21.5
894.57	70.65
894.74	-17.41
894.911	15.36
895.082	76.8
895.253	50.18
895.423	-9.22
895.594	52.22
895.764	54.27
895.935	-27.65
896.106	97.28
896.276	39.94
896.447	62.46
896.617	44.03
896.788	1.02
896.958	31.74
897.129	-7.17
897.299	39.94
897.47	76.8
897.64	52.22
897.81	44.03
897.981	76.8
898.151	-19.46
898.322	52.22
898.492	-23.55
898.662	13.31
898.832	-37.89
899.003	-7.17
899.173	1.02
899.343	70.65
899.513	-41.98
