Data from USB4F104151__185__10-27-55-816.txt Node

Date: Wed Mar 12 10:27:55 EDT 2025
User: louis
Spectrometer: USB4F10415
Trigger mode: 4
Integration Time (sec): 3.000000E-2
Scans to average: 1
Electric dark correction enabled: true
Nonlinearity correction enabled: false
Boxcar width: 0
XAxis mode: Wavelengths
Number of Pixels in Spectrum: 3648
>>>>>Begin Spectral Data<<<<<
178.204	-75.09
178.424	-75.09
178.644	-75.09
178.864	-99.67
179.084	-120.15
179.304	55.98
179.524	29.35
179.744	-7.51
179.964	-30.04
180.184	-5.46
180.404	0.68
180.624	-46.42
180.844	53.93
181.064	-23.89
181.283	23.21
181.503	-34.13
181.723	-15.7
181.943	-64.85
182.163	82.6
182.383	-73.04
182.602	-27.99
182.822	127.66
183.042	101.03
183.262	6.83
183.482	86.7
183.701	-13.65
183.921	55.98
184.141	-1.37
184.361	6.83
184.58	35.5
184.8	12.97
185.02	62.12
185.239	55.98
185.459	98.99
185.679	109.22
185.898	-21.85
186.118	-3.41
186.338	39.59
186.557	31.4
186.777	15.02
186.997	-25.94
187.216	-17.75
187.436	123.56
187.655	43.69
187.875	72.36
188.095	12.97
188.314	68.27
188.534	101.03
188.753	51.88
188.973	23.21
189.192	129.7
189.412	66.22
189.631	29.35
189.851	82.6
190.07	133.8
190.29	27.31
190.509	53.93
190.729	-34.13
190.948	98.99
191.168	137.9
191.387	31.4
191.607	76.46
191.826	74.41
192.045	-9.56
192.265	10.92
192.484	45.74
192.704	47.79
192.923	58.03
193.142	101.03
193.362	88.75
193.581	109.22
193.8	55.98
194.02	-21.85
194.239	-75.09
194.458	-3.41
194.678	2.73
194.897	19.11
195.116	74.41
195.335	53.93
195.555	37.55
195.774	21.16
195.993	62.12
196.212	45.74
196.432	12.97
196.651	-25.94
196.87	10.92
197.089	105.13
197.308	105.13
197.528	129.7
197.747	-58.71
197.966	62.12
198.185	94.89
198.404	49.83
198.623	17.07
198.842	10.92
199.062	127.66
199.281	90.79
199.5	43.69
199.719	76.46
199.938	33.45
200.157	62.12
200.376	43.69
200.595	0.68
200.814	29.35
201.033	-9.56
201.252	123.56
201.471	8.87
201.69	74.41
201.909	27.31
202.128	55.98
202.347	121.51
202.566	92.84
202.785	-5.46
203.004	29.35
203.223	88.75
203.442	12.97
203.661	37.55
203.879	37.55
204.098	70.31
204.317	53.93
204.536	82.6
204.755	-17.75
204.974	43.69
205.193	68.27
205.411	115.37
205.63	64.17
205.849	60.07
206.068	-19.8
206.287	2.73
206.505	60.07
206.724	31.4
206.943	60.07
207.162	25.26
207.381	4.78
207.599	-1.37
207.818	15.02
208.037	35.5
208.255	21.16
208.474	19.11
208.693	-11.61
208.911	55.98
209.13	62.12
209.349	111.27
209.567	80.55
209.786	70.31
210.005	78.51
210.223	58.03
210.442	10.92
210.661	21.16
210.879	72.36
211.098	51.88
211.316	35.5
211.535	78.51
211.753	70.31
211.972	-7.51
212.191	10.92
212.409	35.5
212.628	76.46
212.846	35.5
213.065	78.51
213.283	101.03
213.502	-3.41
213.72	92.84
213.938	123.56
214.157	70.31
214.375	82.6
214.594	39.59
214.812	43.69
215.031	80.55
215.249	27.31
215.467	133.8
215.686	23.21
215.904	45.74
216.122	45.74
216.341	103.08
216.559	49.83
216.778	70.31
216.996	98.99
217.214	35.5
217.432	-23.89
217.651	72.36
217.869	39.59
218.087	45.74
218.306	19.11
218.524	15.02
218.742	58.03
218.96	45.74
219.179	6.83
219.397	37.55
219.615	53.93
219.833	37.55
220.051	41.64
220.27	68.27
220.488	45.74
220.706	80.55
220.924	53.93
221.142	72.36
221.36	96.94
221.578	53.93
221.796	19.11
222.015	92.84
222.233	62.12
222.451	64.17
222.669	-13.65
222.887	39.59
223.105	-19.8
223.323	60.07
223.541	2.73
223.759	60.07
223.977	21.16
224.195	64.17
224.413	55.98
224.631	60.07
224.849	62.12
225.067	121.51
225.285	-56.66
225.503	62.12
225.721	45.74
225.939	37.55
226.157	35.5
226.375	131.75
226.592	-34.13
226.81	33.45
227.028	64.17
227.246	72.36
227.464	39.59
227.682	47.79
227.9	90.79
228.117	-3.41
228.335	80.55
228.553	-5.46
228.771	19.11
228.989	35.5
229.206	43.69
229.424	64.17
229.642	37.55
229.86	-13.65
230.077	55.98
230.295	37.55
230.513	182.95
230.731	78.51
230.948	58.03
231.166	78.51
231.384	43.69
231.601	-9.56
231.819	64.17
232.037	39.59
232.254	41.64
232.472	-7.51
232.689	10.92
232.907	150.18
233.125	43.69
233.342	21.16
233.56	-38.23
233.777	-11.61
233.995	10.92
234.213	55.98
234.43	37.55
234.648	49.83
234.865	33.45
235.083	8.87
235.3	51.88
235.518	119.46
235.735	51.88
235.953	80.55
236.17	-13.65
236.388	31.4
236.605	17.07
236.822	111.27
237.04	37.55
237.257	72.36
237.475	19.11
237.692	33.45
237.909	15.02
238.127	84.65
238.344	-1.37
238.562	60.07
238.779	82.6
238.996	15.02
239.214	0.68
239.431	70.31
239.648	-3.41
239.865	105.13
240.083	62.12
240.3	-38.23
240.517	96.94
240.735	37.55
240.952	62.12
241.169	94.89
241.386	35.5
241.603	-1.37
241.821	41.64
242.038	121.51
242.255	37.55
242.472	39.59
242.689	103.08
242.907	29.35
243.124	31.4
243.341	15.02
243.558	70.31
243.775	-13.65
243.992	31.4
244.209	12.97
244.426	92.84
244.643	72.36
244.86	-13.65
245.078	66.22
245.295	35.5
245.512	62.12
245.729	43.69
245.946	53.93
246.163	107.18
246.38	-7.51
246.597	113.32
246.814	2.73
247.031	68.27
247.248	-15.7
247.464	37.55
247.681	23.21
247.898	68.27
248.115	19.11
248.332	0.68
248.549	41.64
248.766	105.13
248.983	53.93
249.2	-11.61
249.417	55.98
249.633	-36.18
249.85	15.02
250.067	49.83
250.284	119.46
250.501	21.16
250.717	129.7
250.934	-25.94
251.151	55.98
251.368	125.61
251.585	49.83
251.801	25.26
252.018	66.22
252.235	8.87
252.451	-21.85
252.668	35.5
252.885	41.64
253.102	27.31
253.318	31.4
253.535	29.35
253.752	35.5
253.968	-44.37
254.185	-9.56
254.401	55.98
254.618	-52.56
254.835	27.31
255.051	29.35
255.268	55.98
255.484	-32.08
255.701	58.03
255.917	33.45
256.134	55.98
256.351	74.41
256.567	33.45
256.784	64.17
257	15.02
257.217	72.36
257.433	2.73
257.65	72.36
257.866	121.51
258.082	19.11
258.299	15.02
258.515	66.22
258.732	101.03
258.948	45.74
259.165	23.21
259.381	-19.8
259.597	45.74
259.814	119.46
260.03	105.13
260.246	76.46
260.463	152.23
260.679	74.41
260.895	78.51
261.112	86.7
261.328	86.7
261.544	-19.8
261.761	29.35
261.977	60.07
262.193	39.59
262.409	98.99
262.626	45.74
262.842	68.27
263.058	74.41
263.274	37.55
263.49	74.41
263.707	25.26
263.923	119.46
264.139	21.16
264.355	39.59
264.571	43.69
264.787	6.83
265.004	113.32
265.22	68.27
265.436	-13.65
265.652	60.07
265.868	60.07
266.084	-38.23
266.3	10.92
266.516	-13.65
266.732	2.73
266.948	84.65
267.164	58.03
267.38	109.22
267.596	68.27
267.812	105.13
268.028	17.07
268.244	43.69
268.46	66.22
268.676	25.26
268.892	23.21
269.108	98.99
269.324	15.02
269.54	6.83
269.756	58.03
269.972	-17.75
270.188	86.7
270.403	47.79
270.619	66.22
270.835	55.98
271.051	78.51
271.267	-13.65
271.483	2.73
271.698	64.17
271.914	103.08
272.13	51.88
272.346	10.92
272.562	15.02
272.777	-25.94
272.993	43.69
273.209	72.36
273.425	23.21
273.64	27.31
273.856	78.51
274.072	12.97
274.287	35.5
274.503	39.59
274.719	80.55
274.934	43.69
275.15	27.31
275.366	51.88
275.581	-19.8
275.797	64.17
276.012	8.87
276.228	-19.8
276.444	15.02
276.659	113.32
276.875	29.35
277.09	86.7
277.306	23.21
277.521	72.36
277.737	90.79
277.952	41.64
278.168	78.51
278.383	76.46
278.599	12.97
278.814	98.99
279.03	55.98
279.245	141.99
279.461	58.03
279.676	45.74
279.892	-3.41
280.107	-75.09
280.322	2.73
280.538	15.02
280.753	43.69
280.969	-9.56
281.184	29.35
281.399	41.64
281.615	43.69
281.83	47.79
282.045	31.4
282.26	88.75
282.476	68.27
282.691	33.45
282.906	-17.75
283.122	72.36
283.337	27.31
283.552	-17.75
283.767	-48.47
283.983	86.7
284.198	51.88
284.413	60.07
284.628	-46.42
284.843	49.83
285.058	98.99
285.274	84.65
285.489	2.73
285.704	94.89
285.919	-7.51
286.134	90.79
286.349	-30.04
286.564	70.31
286.779	90.79
286.995	60.07
287.21	-1.37
287.425	43.69
287.64	19.11
287.855	15.02
288.07	33.45
288.285	12.97
288.5	76.46
288.715	47.79
288.93	-30.04
289.145	37.55
289.36	51.88
289.575	33.45
289.79	94.89
290.004	-11.61
290.219	19.11
290.434	62.12
290.649	0.68
290.864	43.69
291.079	51.88
291.294	2.73
291.509	33.45
291.724	31.4
291.938	43.69
292.153	84.65
292.368	45.74
292.583	23.21
292.798	21.16
293.012	19.11
293.227	-7.51
293.442	64.17
293.657	119.46
293.871	55.98
294.086	55.98
294.301	94.89
294.516	88.75
294.73	55.98
294.945	72.36
295.16	70.31
295.374	21.16
295.589	84.65
295.804	45.74
296.018	45.74
296.233	111.27
296.447	66.22
296.662	27.31
296.877	58.03
297.091	39.59
297.306	29.35
297.52	-30.04
297.735	-1.37
297.949	72.36
298.164	60.07
298.378	64.17
298.593	-9.56
298.807	-9.56
299.022	80.55
299.236	82.6
299.451	68.27
299.665	64.17
299.88	70.31
300.094	92.84
300.309	70.31
300.523	55.98
300.737	27.31
300.952	31.4
301.166	45.74
301.381	43.69
301.595	43.69
301.809	6.83
302.024	68.27
302.238	62.12
302.452	37.55
302.667	109.22
302.881	117.42
303.095	62.12
303.309	53.93
303.524	76.46
303.738	68.27
303.952	68.27
304.166	60.07
304.381	31.4
304.595	107.18
304.809	78.51
305.023	2.73
305.237	31.4
305.452	35.5
305.666	43.69
305.88	107.18
306.094	15.02
306.308	125.61
306.522	41.64
306.736	53.93
306.95	96.94
307.164	60.07
307.379	15.02
307.593	10.92
307.807	66.22
308.021	80.55
308.235	72.36
308.449	27.31
308.663	23.21
308.877	113.32
309.091	-27.99
309.305	111.27
309.519	-46.42
309.733	72.36
309.947	-25.94
310.161	111.27
310.374	86.7
310.588	70.31
310.802	37.55
311.016	55.98
311.23	-9.56
311.444	33.45
311.658	15.02
311.872	23.21
312.085	74.41
312.299	82.6
312.513	117.42
312.727	58.03
312.941	47.79
313.154	78.51
313.368	23.21
313.582	4.78
313.796	41.64
314.009	31.4
314.223	66.22
314.437	80.55
314.651	68.27
314.864	-1.37
315.078	62.12
315.292	31.4
315.505	92.84
315.719	6.83
315.933	39.59
316.146	84.65
316.36	4.78
316.573	29.35
316.787	66.22
317.001	111.27
317.214	49.83
317.428	127.66
317.641	-25.94
317.855	39.59
318.068	-19.8
318.282	55.98
318.495	105.13
318.709	74.41
318.922	19.11
319.136	193.19
319.349	119.46
319.563	15.02
319.776	64.17
319.99	-19.8
320.203	58.03
320.417	45.74
320.63	53.93
320.843	29.35
321.057	-3.41
321.27	111.27
321.483	23.21
321.697	64.17
321.91	84.65
322.124	29.35
322.337	39.59
322.55	27.31
322.763	47.79
322.977	51.88
323.19	51.88
323.403	62.12
323.617	21.16
323.83	121.51
324.043	55.98
324.256	49.83
324.469	-3.41
324.683	62.12
324.896	-56.66
325.109	70.31
325.322	-5.46
325.535	72.36
325.748	10.92
325.962	33.45
326.175	35.5
326.388	39.59
326.601	-1.37
326.814	125.61
327.027	53.93
327.24	109.22
327.453	70.31
327.666	49.83
327.879	113.32
328.092	-3.41
328.305	25.26
328.518	17.07
328.731	25.26
328.944	76.46
329.157	62.12
329.37	21.16
329.583	86.7
329.796	88.75
330.009	72.36
330.222	29.35
330.435	86.7
330.648	76.46
330.861	39.59
331.073	15.02
331.286	37.55
331.499	58.03
331.712	2.73
331.925	-27.99
332.138	96.94
332.35	111.27
332.563	137.9
332.776	25.26
332.989	62.12
333.202	62.12
333.414	-1.37
333.627	66.22
333.84	-25.94
334.053	92.84
334.265	39.59
334.478	27.31
334.691	27.31
334.903	39.59
335.116	6.83
335.329	-1.37
335.541	62.12
335.754	115.37
335.966	-9.56
336.179	49.83
336.392	33.45
336.604	115.37
336.817	103.08
337.029	27.31
337.242	121.51
337.454	-9.56
337.667	68.27
337.88	117.42
338.092	43.69
338.305	123.56
338.517	45.74
338.729	21.16
338.942	105.13
339.154	45.74
339.367	17.07
339.579	117.42
339.792	-27.99
340.004	121.51
340.217	55.98
340.429	21.16
340.641	96.94
340.854	51.88
341.066	29.35
341.278	55.98
341.491	133.8
341.703	27.31
341.915	-9.56
342.128	31.4
342.34	31.4
342.552	98.99
342.764	39.59
342.977	70.31
343.189	27.31
343.401	35.5
343.613	-42.32
343.826	80.55
344.038	37.55
344.25	72.36
344.462	23.21
344.674	25.26
344.886	90.79
345.099	111.27
345.311	68.27
345.523	35.5
345.735	-42.32
345.947	25.26
346.159	45.74
346.371	64.17
346.583	31.4
346.795	84.65
347.007	94.89
347.219	-13.65
347.431	31.4
347.643	111.27
347.855	15.02
348.067	80.55
348.279	35.5
348.491	43.69
348.703	51.88
348.915	86.7
349.127	12.97
349.339	133.8
349.551	86.7
349.763	66.22
349.975	25.26
350.187	23.21
350.399	96.94
350.61	62.12
350.822	4.78
351.034	43.69
351.246	31.4
351.458	58.03
351.669	21.16
351.881	86.7
352.093	86.7
352.305	90.79
352.517	117.42
352.728	82.6
352.94	94.89
353.152	8.87
353.363	-34.13
353.575	4.78
353.787	49.83
353.999	101.03
354.21	49.83
354.422	45.74
354.633	107.18
354.845	141.99
355.057	17.07
355.268	12.97
355.48	31.4
355.692	80.55
355.903	-23.89
356.115	68.27
356.326	55.98
356.538	37.55
356.749	39.59
356.961	121.51
357.172	131.75
357.384	27.31
357.595	137.9
357.807	88.75
358.018	45.74
358.23	66.22
358.441	105.13
358.653	47.79
358.864	88.75
359.075	131.75
359.287	17.07
359.498	113.32
359.709	47.79
359.921	62.12
360.132	33.45
360.344	39.59
360.555	-25.94
360.766	39.59
360.977	119.46
361.189	51.88
361.4	-25.94
361.611	10.92
361.823	148.14
362.034	66.22
362.245	-30.04
362.456	29.35
362.667	47.79
362.879	70.31
363.09	45.74
363.301	62.12
363.512	-25.94
363.723	12.97
363.935	29.35
364.146	90.79
364.357	90.79
364.568	146.09
364.779	-1.37
364.99	103.08
365.201	25.26
365.412	82.6
365.623	19.11
365.834	35.5
366.045	60.07
366.256	107.18
366.467	111.27
366.678	35.5
366.889	86.7
367.1	127.66
367.311	58.03
367.522	-5.46
367.733	78.51
367.944	39.59
368.155	43.69
368.366	80.55
368.577	92.84
368.788	27.31
368.999	62.12
369.209	80.55
369.42	41.64
369.631	199.34
369.842	43.69
370.053	39.59
370.264	139.94
370.474	-7.51
370.685	39.59
370.896	41.64
371.107	60.07
371.317	53.93
371.528	111.27
371.739	64.17
371.95	82.6
372.16	96.94
372.371	80.55
372.582	43.69
372.792	10.92
373.003	115.37
373.214	72.36
373.424	117.42
373.635	23.21
373.846	170.66
374.056	2.73
374.267	43.69
374.477	78.51
374.688	-17.75
374.898	78.51
375.109	60.07
375.319	92.84
375.53	25.26
375.74	33.45
375.951	19.11
376.161	-1.37
376.372	72.36
376.582	43.69
376.793	101.03
377.003	72.36
377.214	53.93
377.424	27.31
377.635	35.5
377.845	96.94
378.055	68.27
378.266	-25.94
378.476	2.73
378.686	137.9
378.897	45.74
379.107	64.17
379.317	23.21
379.528	90.79
379.738	33.45
379.948	51.88
380.158	107.18
380.369	72.36
380.579	96.94
380.789	137.9
380.999	160.42
381.21	150.18
381.42	84.65
381.63	21.16
381.84	76.46
382.05	70.31
382.261	98.99
382.471	84.65
382.681	96.94
382.891	154.28
383.101	47.79
383.311	37.55
383.521	84.65
383.731	123.56
383.941	68.27
384.151	70.31
384.361	103.08
384.571	80.55
384.781	78.51
384.991	78.51
385.201	129.7
385.411	105.13
385.621	137.9
385.831	39.59
386.041	105.13
386.251	2.73
386.461	88.75
386.671	92.84
386.881	74.41
387.091	47.79
387.301	119.46
387.511	101.03
387.72	70.31
387.93	82.6
388.14	43.69
388.35	103.08
388.56	127.66
388.769	113.32
388.979	68.27
389.189	115.37
389.399	74.41
389.609	125.61
389.818	64.17
390.028	152.23
390.238	105.13
390.447	98.99
390.657	107.18
390.867	191.14
391.076	-1.37
391.286	88.75
391.496	68.27
391.705	58.03
391.915	144.04
392.125	96.94
392.334	51.88
392.544	43.69
392.753	76.46
392.963	72.36
393.172	105.13
393.382	51.88
393.591	207.53
393.801	105.13
394.01	78.51
394.22	80.55
394.429	82.6
394.639	90.79
394.848	131.75
395.058	43.69
395.267	60.07
395.477	105.13
395.686	137.9
395.895	105.13
396.105	82.6
396.314	23.21
396.524	121.51
396.733	78.51
396.942	146.09
397.152	109.22
397.361	103.08
397.57	45.74
397.78	76.46
397.989	144.04
398.198	53.93
398.407	88.75
398.617	94.89
398.826	62.12
399.035	86.7
399.244	195.24
399.453	162.47
399.663	125.61
399.872	197.29
400.081	66.22
400.29	137.9
400.499	119.46
400.708	96.94
400.917	43.69
401.127	105.13
401.336	47.79
401.545	199.34
401.754	172.71
401.963	113.32
402.172	135.85
402.381	105.13
402.59	101.03
402.799	148.14
403.008	125.61
403.217	123.56
403.426	115.37
403.635	98.99
403.844	105.13
404.053	107.18
404.262	96.94
404.471	178.86
404.68	94.89
404.888	88.75
405.097	176.81
405.306	176.81
405.515	166.57
405.724	168.62
405.933	123.56
406.142	191.14
406.35	201.38
406.559	105.13
406.768	213.67
406.977	246.44
407.185	217.77
407.394	309.93
407.603	137.9
407.812	127.66
408.02	234.15
408.229	199.34
408.438	225.96
408.646	254.63
408.855	187.05
409.064	328.36
409.272	225.96
409.481	240.29
409.69	252.58
409.898	254.63
410.107	268.97
410.315	320.17
410.524	297.64
410.733	434.85
410.941	326.31
411.15	408.23
411.358	365.22
411.567	391.84
411.775	389.8
411.984	375.46
412.192	389.8
412.401	514.72
412.609	473.76
412.818	477.86
413.026	455.33
413.234	553.63
413.443	490.15
413.651	502.43
413.86	553.63
414.068	574.11
414.276	539.3
414.485	637.6
414.693	594.59
414.901	649.89
415.11	707.23
415.318	686.75
415.526	737.95
415.734	770.72
415.943	783.01
416.151	813.73
416.359	678.56
416.567	871.07
416.776	838.3
416.984	971.42
417.192	1004.19
417.4	993.95
417.608	975.52
417.817	961.18
418.025	924.32
418.233	1012.38
418.441	1063.58
418.649	1178.26
418.857	1174.17
419.065	1290.9
419.273	1084.06
419.481	1178.26
419.689	1448.6
419.897	1360.53
420.105	1448.6
420.313	1448.6
420.521	1571.47
420.729	1608.34
420.937	1620.63
421.145	1571.47
421.353	1821.33
421.561	1780.37
421.769	1841.81
421.977	1923.73
422.185	1847.95
422.393	2052.75
422.601	2237.06
422.809	2136.71
423.017	2292.36
423.224	2226.82
423.432	2335.37
423.64	2286.22
423.848	2685.57
424.056	2402.95
424.263	2658.95
424.471	2658.95
424.679	2693.76
424.887	2853.5
425.094	2992.76
425.302	2972.29
425.51	3007.1
425.718	3115.64
425.925	3322.49
426.133	3338.87
426.341	3469.94
426.548	3656.31
426.756	3754.61
426.964	3697.27
427.171	3895.92
427.379	4033.13
427.586	4135.53
427.794	4258.41
428.001	4412.01
428.209	4631.14
428.417	4502.12
428.624	4891.23
428.832	4782.69
429.039	4813.41
429.247	4938.34
429.454	5290.59
429.662	5806.67
429.869	5319.26
430.076	5573.21
430.284	5593.69
430.491	5823.06
430.699	5978.7
430.906	6050.38
431.114	5933.65
431.321	6113.87
431.528	6242.89
431.736	6795.84
431.943	7146.05
432.15	6949.44
432.358	7017.02
432.565	7561.78
432.772	7504.44
432.979	7752.24
433.187	7729.72
433.394	8102.45
433.601	8395.31
433.808	8454.7
434.016	8550.95
434.223	8911.39
434.43	9157.15
434.637	9177.63
434.844	9570.84
435.052	9869.84
435.259	9919
435.466	9955.86
435.673	9697.81
435.88	10494.47
436.087	11059.71
436.294	11125.25
436.501	10623.5
436.708	10973.7
436.915	11311.61
437.122	11856.37
437.329	11778.55
437.537	12067.31
437.743	12216.82
437.95	12120.56
438.157	13025.76
438.364	13339.1
438.571	13179.36
438.778	13253.09
438.985	14737.87
439.192	13943.25
439.399	14887.37
439.606	14143.95
439.813	15083.97
440.02	15923.64
440.227	15573.44
440.433	15501.76
440.64	16163.25
440.847	15923.64
441.054	16298.42
441.261	17465.76
441.467	17158.56
441.674	17232.29
441.881	18131.35
442.088	17932.7
442.294	17818.01
442.501	18256.28
442.708	18530.7
442.914	19478.91
443.121	19939.71
443.328	19509.63
443.534	21070.19
443.741	20568.43
443.948	19876.22
444.154	22028.63
444.361	21463.4
444.568	21645.66
444.774	21631.33
444.981	21887.32
445.187	22577.49
445.394	23464.26
445.6	22878.54
445.807	25444.65
446.013	24219.96
446.22	24801.58
446.426	25780.51
446.633	25891.1
446.839	26726.67
447.046	25645.35
447.252	27103.5
447.459	27226.38
447.665	26849.55
447.871	27973.89
448.078	29118.7
448.284	27957.5
448.491	28698.87
448.697	29759.72
448.903	30273.76
449.11	29991.14
449.316	29174
449.522	30470.36
449.728	30910.67
449.935	31070.42
450.141	31250.64
450.347	31779.01
450.553	30728.41
450.76	31293.65
450.966	31891.65
451.172	31887.56
451.378	32458.94
451.584	31949
451.791	32803
451.997	32567.48
452.203	33089.71
452.409	32880.82
452.615	32735.42
452.821	31676.62
453.027	31342.8
453.233	32946.36
453.44	31490.25
453.646	31848.64
453.852	32041.15
454.058	32262.33
454.264	31383.76
454.47	32139.46
454.676	31156.43
454.882	32243.9
455.088	29577.45
455.294	30243.04
455.5	30413.02
455.705	30660.82
455.911	29260.01
456.117	28958.96
456.323	28496.12
456.529	26876.18
456.735	28139.77
456.941	27277.58
457.147	26833.17
457.352	25913.63
457.558	25647.4
457.764	25649.44
457.97	25321.77
458.176	24738.1
458.381	24744.24
458.587	23238.98
458.793	23327.05
458.999	21940.57
459.204	23867.71
459.41	23120.2
459.616	21731.68
459.821	21455.2
460.027	21424.48
460.233	21059.95
460.438	19872.12
460.644	20461.94
460.85	19384.71
461.055	19231.11
461.261	19132.81
461.466	17717.66
461.672	17209.76
461.878	18680.21
462.083	17301.92
462.289	16966.06
462.494	16705.96
462.7	15858.1
462.905	15538.62
463.111	16062.9
463.316	15829.43
463.522	15839.67
463.727	15901.11
463.932	15755.71
464.138	15477.18
464.343	15649.21
464.549	15032.77
464.754	15612.35
464.959	15528.38
465.165	15665.6
465.37	14995.91
465.575	14385.62
465.781	14938.57
465.986	15040.97
466.191	14541.26
466.397	14295.5
466.602	13722.07
466.807	13994.45
467.012	14197.2
467.218	13908.44
467.423	13711.83
467.628	14041.56
467.833	14498.25
468.038	13967.83
468.244	13574.62
468.449	14143.95
468.654	13521.37
468.859	13523.42
469.064	13625.82
469.269	12937.7
469.474	13429.21
469.679	13335.01
469.885	12890.6
470.09	13111.78
470.295	13117.92
470.5	12841.45
470.705	12800.49
470.91	12567.02
471.115	12345.84
471.32	12601.83
471.525	12671.47
471.73	12253.68
471.935	12198.38
472.139	11692.54
472.344	11772.41
472.549	11917.81
472.754	11985.4
472.959	11348.48
473.164	11041.28
473.369	11135.49
473.574	11430.4
473.778	11328
473.983	11100.67
474.188	11125.25
474.393	10703.37
474.598	10633.74
474.802	10635.78
475.007	10568.2
475.212	10488.33
475.417	9984.53
475.621	10158.61
475.826	10162.7
476.031	9890.32
476.235	9798.17
476.44	9792.02
476.645	9847.32
476.849	9867.8
477.054	9849.36
477.259	9519.64
477.463	9660.95
477.668	9312.8
477.872	9343.52
478.077	9247.26
478.282	9056.8
478.486	9105.95
478.691	8983.07
478.895	8946.21
479.1	8878.63
479.304	8942.11
479.509	8675.88
479.713	9003.55
479.918	8665.64
480.122	8567.34
480.326	8782.37
480.531	8530.47
480.735	8434.22
480.94	8516.14
481.144	8673.83
481.348	8311.34
481.553	8372.78
481.757	8241.71
481.961	8225.33
482.166	8563.24
482.37	8249.9
482.574	8272.43
482.778	8526.38
482.983	8557.1
483.187	8149.55
483.391	8256.04
483.595	8378.92
483.8	8268.33
484.004	8575.53
484.208	8446.51
484.412	8342.06
484.616	8430.12
484.821	8368.68
485.025	8241.71
485.229	8370.73
485.433	8133.17
485.637	8428.07
485.841	8235.57
486.045	8294.96
486.249	8092.21
486.453	8321.58
486.657	8260.14
486.861	8387.11
487.065	8012.34
487.269	8325.68
487.473	8073.78
487.677	8297
487.881	8444.46
488.085	8313.39
488.289	8311.34
488.493	8325.68
488.697	8190.51
488.901	8245.8
489.105	8532.52
489.309	8477.23
489.512	8423.98
489.716	8450.6
489.92	8575.53
490.124	8407.59
490.328	8804.9
490.531	8288.81
490.735	8645.16
490.939	8665.64
491.143	8444.46
491.346	8477.23
491.55	8696.36
491.754	8780.32
491.958	8616.49
492.161	8960.55
492.365	8890.92
492.569	8903.2
492.772	8612.39
492.976	8981.03
493.18	8907.3
493.383	9032.22
493.587	8964.64
493.79	9214.49
493.994	8993.31
494.197	9294.36
494.401	9327.13
494.605	9288.22
494.808	9574.94
495.012	9495.07
495.215	9542.17
495.419	9601.56
495.622	9466.39
495.825	9712.15
496.029	9818.64
496.232	10074.64
496.436	9994.77
496.639	10105.36
496.843	10148.37
497.046	10383.88
497.249	10426.89
497.453	10633.74
497.656	10625.54
497.859	10574.35
498.063	10842.63
498.266	10930.69
498.469	11018.75
498.673	11176.45
498.876	11020.8
499.079	11323.9
499.282	11201.02
499.485	11495.93
499.689	11592.19
499.892	11805.17
500.095	11930.1
500.298	12089.84
500.501	12083.7
500.705	12405.23
500.908	12503.53
501.111	12753.38
501.314	12462.57
501.517	13072.87
501.72	12759.53
501.923	12964.32
502.126	13279.71
502.329	13609.43
502.532	13437.41
502.735	13562.33
502.938	13808.09
503.141	14100.95
503.344	14246.35
503.547	14363.09
503.75	14565.84
503.953	14463.44
504.156	14791.11
504.359	14997.96
504.562	14807.5
504.765	15483.33
504.968	15393.22
505.17	15616.44
505.373	15544.77
505.576	16120.24
505.779	15995.32
505.982	16159.16
506.185	16576.94
506.387	16693.68
506.59	16695.72
506.793	17035.69
506.996	17025.45
507.198	17648.03
507.401	17371.55
507.604	17688.99
507.807	17957.27
508.009	17951.13
508.212	17801.63
508.415	18358.67
508.617	18352.53
508.82	18837.9
509.022	18647.44
509.225	18917.77
509.428	19186.05
509.63	19345.8
509.833	19476.87
510.035	19978.62
510.238	19876.22
510.44	20398.45
510.643	20597.1
510.845	20853.1
511.048	20631.92
511.25	20808.05
511.453	20939.12
511.655	21602.66
511.858	21502.31
512.06	21629.28
512.262	21729.63
512.465	22137.18
512.667	22286.68
512.87	22743.38
513.072	22831.44
513.274	23441.73
513.477	23073.1
513.679	23533.89
513.881	23914.81
514.084	24189.24
514.286	23734.59
514.488	24269.11
514.69	25012.52
514.893	24889.65
515.095	24744.24
515.297	25504.04
515.499	25526.57
515.701	25600.29
515.904	25893.15
516.106	26032.41
516.308	26583.32
516.51	26468.63
516.712	26614.04
516.914	27406.6
517.116	27500.81
517.318	27480.33
517.52	27740.42
517.722	27668.74
517.925	28258.56
518.127	28735.73
518.329	28788.98
518.531	28639.48
518.733	29405.42
518.935	29604.07
519.136	30146.78
519.338	30023.9
519.54	30118.11
519.742	30406.87
519.944	30447.83
520.146	31013.07
520.348	31207.63
520.55	31078.61
520.752	31516.87
520.954	32264.38
521.155	31883.46
521.357	31916.23
521.559	32547
521.761	32841.91
521.963	33157.3
522.164	33147.06
522.366	33091.76
522.568	33652.91
522.77	34119.84
522.971	34398.37
523.173	33992.87
523.375	34269.34
523.576	34316.45
523.778	35020.95
523.98	35006.61
524.181	35385.49
524.383	35369.1
524.584	35578
524.786	36051.08
524.988	35565.71
525.189	36143.24
525.391	36325.5
525.592	36434.05
525.794	36659.32
525.995	36966.52
526.197	36974.71
526.398	37116.02
526.6	37283.95
526.801	37535.85
527.003	37806.19
527.204	37734.51
527.406	38199.4
527.607	38250.59
527.808	38326.37
528.01	37537.9
528.211	38031.46
528.412	38977.62
528.614	38623.33
528.815	38834.27
529.016	38948.95
529.218	38744.16
529.419	39268.44
529.62	39141.46
529.822	38916.18
530.023	39174.23
530.224	39538.77
530.425	39473.23
530.626	39073.88
530.828	39055.45
531.029	40259.65
531.23	39387.22
531.431	39589.97
531.632	39587.92
531.833	40290.37
532.035	39983.18
532.236	39735.37
532.437	40568.9
532.638	39583.82
532.839	40282.18
533.04	40132.68
533.241	39923.79
533.442	40716.35
533.643	40087.62
533.844	40183.88
534.045	40198.21
534.246	40360
534.447	40673.34
534.648	40372.29
534.849	40298.56
535.05	40282.18
535.251	40339.52
535.451	40439.87
535.652	41025.59
535.853	40484.93
536.054	40570.94
536.255	40607.81
536.456	40251.46
536.657	40878.14
536.857	40339.52
537.058	40495.17
537.259	40699.97
537.46	40511.55
537.66	40609.85
537.861	40439.87
538.062	40144.97
538.263	40497.22
538.463	40671.29
538.664	40730.69
538.865	40699.97
539.065	40919.1
539.266	40001.61
539.466	41082.94
539.667	40110.15
539.868	40484.93
540.068	40945.72
540.269	40687.68
540.469	40876.09
540.67	40435.78
540.87	40157.25
541.071	40398.91
541.271	40474.69
541.472	40880.19
541.672	40204.36
541.873	40587.33
542.073	39784.52
542.274	40943.67
542.474	40349.76
542.675	40468.55
542.875	41003.06
543.075	40398.91
543.276	40112.2
543.476	40915
543.676	40110.15
543.877	40321.09
544.077	40497.22
544.277	40194.12
544.478	40685.63
544.678	40245.32
544.878	40536.13
545.078	40466.5
545.279	40134.73
545.479	39950.41
545.679	40220.74
545.879	40458.31
546.079	40263.75
546.28	40282.18
546.48	39934.03
546.68	40601.66
546.88	40527.94
547.08	40198.21
547.28	40386.63
547.48	40110.15
547.68	40046.66
547.88	39817.29
548.081	40157.25
548.281	40052.81
548.481	40046.66
548.681	40542.27
548.881	40173.64
549.081	39893.07
549.28	39825.48
549.48	40439.87
549.68	40169.54
549.88	40656.96
550.08	39690.32
550.28	40034.38
550.48	39917.64
550.68	40386.63
550.88	39868.49
551.08	39997.51
551.279	39897.16
551.479	39979.08
551.679	39825.48
551.879	40370.24
552.079	40009.8
552.278	40286.28
552.478	39931.98
552.678	39786.57
552.878	40177.73
553.077	39987.27
553.277	39757.9
553.477	40011.85
553.676	39745.61
553.876	39923.79
554.076	39694.41
554.275	39985.22
554.475	39364.69
554.674	39678.03
554.874	39643.21
555.074	38991.96
555.273	39702.6
555.473	39632.97
555.672	39202.9
555.872	39510.1
556.071	39991.37
556.271	39780.43
556.47	39225.43
556.67	39315.54
556.869	38936.66
557.068	39225.43
557.268	38901.85
557.467	39276.63
557.667	39309.39
557.866	38942.81
558.065	39342.16
558.265	38740.06
558.464	38821.98
558.663	39104.6
558.863	38396
559.062	39215.19
559.261	38350.95
559.461	38975.58
559.66	38156.39
559.859	38547.55
560.058	38608.99
560.258	38637.66
560.457	37886.06
560.656	38492.26
560.855	38383.71
561.054	38623.33
561.253	37724.27
561.453	38215.78
561.652	38377.57
561.851	38379.62
562.05	37877.86
562.249	37754.99
562.448	37965.93
562.647	37744.75
562.846	37709.93
563.045	37822.57
563.244	36980.85
563.443	37644.4
563.642	37265.52
563.841	37412.98
564.04	37126.26
564.239	37568.62
564.438	37036.15
564.637	37429.36
564.836	37224.56
565.035	36909.18
565.234	36714.62
565.432	36817.02
565.631	36608.12
565.83	36821.11
566.029	36470.91
566.228	36419.71
566.427	36233.35
566.625	36405.38
566.824	35848.33
567.023	36231.3
567.222	35727.5
567.42	36370.56
567.619	36010.12
567.818	35829.9
568.016	35664.01
568.215	36083.84
568.414	35469.45
568.612	36067.46
568.811	35211.41
569.01	35848.33
569.208	35074.2
569.407	35553.42
569.605	34850.97
569.804	35256.46
570.002	34338.97
570.201	34836.63
570.4	34885.78
570.598	34543.77
570.797	34728.09
570.995	34902.17
571.193	34123.94
571.392	34719.9
571.59	34597.02
571.789	34039.97
571.987	34107.55
572.186	34146.47
572.384	34039.97
572.582	34103.46
572.781	34300.06
572.979	33054.9
573.177	33575.08
573.376	33876.13
573.574	33343.66
573.772	33423.53
573.971	33046.71
574.169	33028.27
574.367	32907.44
574.565	33577.13
574.763	32811.19
574.962	33314.99
575.16	32467.13
575.358	32704.7
575.556	32544.95
575.754	33054.9
575.952	32383.16
576.151	32987.32
576.349	32256.19
576.547	32086.21
576.745	32385.21
576.943	32118.98
577.141	32415.93
577.339	32063.68
577.537	31977.67
577.735	31862.98
577.933	31611.08
578.131	31828.16
578.329	31537.35
578.527	31443.15
578.725	31477.96
578.923	31326.41
579.121	31221.97
579.319	31191.25
579.516	31451.34
579.714	31164.62
579.912	31064.27
580.11	30730.45
580.308	31084.75
580.506	30902.48
580.704	30374.11
580.901	30470.36
581.099	31236.3
581.297	30380.25
581.495	30134.49
581.692	30574.81
581.89	29772
582.088	30290.14
582.285	30015.71
582.483	30171.36
582.681	30142.69
582.878	29833.44
583.076	29552.87
583.274	30316.76
583.471	29561.06
583.669	29696.23
583.866	29311.21
584.064	29450.47
584.262	28748.02
584.459	29389.03
584.657	29278.44
584.854	29659.37
585.052	28586.23
585.249	29274.35
585.447	29026.54
585.644	28944.62
585.841	28737.78
586.039	29200.62
586.236	28784.88
586.434	28762.36
586.631	28307.71
586.828	28565.75
587.026	28651.77
587.223	27961.6
587.42	27912.45
587.618	28170.49
587.815	27734.28
588.012	27756.8
588.21	27857.15
588.407	28033.28
588.604	27820.29
588.801	27691.27
588.999	27257.1
589.196	27439.37
589.393	27799.81
589.59	27132.17
589.787	27244.81
589.984	27205.9
590.182	26878.22
590.379	27248.91
590.576	26908.94
590.773	26837.27
590.97	26784.02
591.167	26986.77
591.364	26605.84
591.561	26812.69
591.758	26278.17
591.955	26437.91
592.152	26472.73
592.349	26061.08
592.546	26413.34
592.743	26063.13
592.94	25624.87
593.137	25938.21
593.334	26173.72
593.531	25528.61
593.727	25733.41
593.924	25639.2
594.121	25616.68
594.318	25536.81
594.515	25299.24
594.712	25323.82
594.908	25319.72
595.105	25643.3
595.302	25131.31
595.499	25377.06
595.696	24912.17
595.892	24701.23
596.089	25272.62
596.286	24930.61
596.482	24922.41
596.679	24779.06
596.876	24844.59
597.072	24484.15
597.269	24932.65
597.466	24426.81
597.662	24334.65
597.859	24504.63
598.055	24404.28
598.252	24125.75
598.448	24258.87
598.645	23984.44
598.841	23914.81
599.038	24232.25
599.234	23703.87
599.431	23736.64
599.627	23673.15
599.824	23662.91
600.02	23425.35
600.217	23613.76
600.413	23671.11
600.609	23589.19
600.806	22976.84
601.002	23433.54
601.198	23347.53
601.395	23130.44
601.591	23189.83
601.787	23234.89
601.984	22554.96
602.18	23097.67
602.376	22464.85
602.572	22690.13
602.769	22845.77
602.965	22468.95
603.161	22802.77
603.357	22448.47
603.553	22100.31
603.75	22497.62
603.946	22452.56
604.142	22278.49
604.338	22051.16
604.534	22337.88
604.73	21825.89
604.926	22106.46
605.122	22088.03
605.318	21803.36
605.514	21571.94
605.71	21856.61
605.906	21408.1
606.102	21651.81
606.298	21365.09
606.494	21610.85
606.69	21274.98
606.886	21467.49
607.082	21352.8
607.278	21418.34
607.474	21125.48
607.67	21287.27
607.866	20898.16
608.062	21201.26
608.257	21012.84
608.453	21166.44
608.649	21021.03
608.845	20658.54
609.041	20705.65
609.236	20855.15
609.432	20826.48
609.628	20773.23
609.824	20267.38
610.019	20468.08
610.215	20529.52
610.411	20644.21
610.606	20179.32
610.802	20392.31
610.998	20668.78
611.193	20447.6
611.389	20201.85
611.584	20279.67
611.78	20085.11
611.976	19870.08
612.171	20410.74
612.367	20203.89
612.562	20087.16
612.758	19939.71
612.953	19595.65
613.149	20001.15
613.344	19622.27
613.539	20068.73
613.735	19835.26
613.93	19796.35
614.126	19579.26
614.321	19829.12
614.517	19765.63
614.712	19736.96
614.907	19573.12
615.103	19675.52
615.298	19652.99
615.493	19579.26
615.688	19188.1
615.884	19835.26
616.079	19315.08
616.274	19272.07
616.47	19065.22
616.665	19253.64
616.86	19167.62
617.055	19284.36
617.25	18987.4
617.445	19011.98
617.641	18680.21
617.836	19179.91
618.031	18778.51
618.226	18999.69
618.421	18768.27
618.616	18999.69
618.811	18446.74
619.006	18649.49
619.201	18332.05
619.396	18530.7
619.591	18430.35
619.786	18162.07
619.981	18160.02
620.176	18192.79
620.371	17766.81
620.566	18149.78
620.761	17930.65
620.956	18053.53
621.151	17623.45
621.346	17602.97
621.541	17500.58
621.735	17631.65
621.93	17232.29
622.125	17428.9
622.32	17340.83
622.515	17473.95
622.709	17232.29
622.904	17148.33
623.099	17205.67
623.294	17177
623.488	16808.36
623.683	16902.57
623.878	16392.62
624.072	16447.92
624.267	16548.27
624.462	16447.92
624.656	16095.67
624.851	16441.78
625.046	15829.43
625.24	16075.19
625.435	15866.3
625.629	16042.42
625.824	16077.24
626.018	15759.8
626.213	15423.94
626.407	15602.11
626.602	15215.04
626.796	15387.07
626.991	15563.2
627.185	15483.33
627.38	15208.9
627.574	15184.32
627.768	14815.69
627.963	14965.19
628.157	14701
628.352	15081.92
628.546	14406.09
628.74	14946.76
628.935	14221.78
629.129	14473.68
629.323	14242.26
629.517	14365.14
629.712	14352.85
629.906	14299.6
630.1	13978.07
630.294	14287.31
630.489	14045.65
630.683	14023.12
630.877	13720.03
631.071	13605.34
631.265	13767.13
631.459	13396.45
631.653	13400.54
631.848	13568.48
632.042	13345.25
632.236	13568.48
632.43	13064.68
632.624	13244.9
632.818	13328.86
633.012	13025.76
633.206	13013.48
633.4	12941.8
633.594	12636.65
633.788	12599.79
633.982	12706.28
634.176	12573.16
634.369	12474.86
634.563	12509.68
634.757	12356.08
634.951	12503.53
635.145	12358.13
635.339	12329.45
635.533	12059.12
635.726	12200.43
635.92	11958.77
636.114	12030.45
636.308	11827.7
636.501	11895.29
636.695	11772.41
636.889	11614.71
637.083	11719.16
637.276	11624.95
637.47	11538.94
637.664	11389.44
637.857	11676.15
638.051	11467.26
638.244	11309.57
638.438	11250.17
638.632	11106.82
638.825	11203.07
639.019	11035.14
639.212	11182.59
639.406	10893.83
639.599	10938.88
639.793	10981.89
639.986	10791.43
640.18	10660.36
640.373	10824.2
640.567	10453.52
640.76	10455.56
640.954	10506.76
641.147	10523.15
641.34	10381.84
641.534	10445.32
641.727	10357.26
641.92	10297.87
642.114	10289.68
642.307	10021.39
642.5	9888.28
642.694	9857.56
642.887	10082.83
643.08	9910.8
643.273	9804.31
643.467	9851.41
643.66	9783.83
643.853	9576.98
644.046	9400.86
644.239	9507.35
644.432	9626.14
644.626	9388.57
644.819	9228.83
645.012	9355.8
645.205	9394.72
645.398	9253.41
645.591	9214.49
645.784	9191.97
645.977	9081.38
646.17	9185.82
646.363	8993.31
646.556	9042.46
646.749	8796.71
646.942	8915.49
647.135	8813.09
647.328	8905.25
647.521	8634.92
647.714	8641.06
647.907	8639.01
648.099	8618.54
648.292	8548.9
648.485	8383.02
648.678	8571.43
648.871	8430.12
649.064	8165.93
649.256	8276.52
649.449	8247.85
649.642	8202.8
649.835	8008.24
650.027	8051.25
650.22	8063.54
650.413	7957.04
650.605	7819.83
650.798	7957.04
650.991	7944.75
651.183	7875.12
651.376	7789.11
651.568	7752.24
651.761	7729.72
651.954	7649.85
652.146	7592.5
652.339	7498.3
652.531	7631.41
652.724	7543.35
652.916	7303.74
653.109	7397.95
653.301	7440.95
653.494	7547.45
653.686	7313.98
653.879	7369.27
654.071	7180.86
654.263	7406.14
654.456	7004.74
654.648	7211.58
654.84	7041.6
655.033	7043.65
655.225	7125.57
655.417	7012.93
655.61	6892.1
655.802	7062.08
655.994	6957.63
656.186	6969.92
656.379	6765.12
656.571	6820.42
656.763	6744.64
656.955	6453.83
657.148	6748.74
657.34	6822.47
657.532	6625.86
657.724	6517.32
657.916	6502.98
658.108	6572.61
658.3	6437.45
658.492	6361.67
658.684	6287.95
658.876	6337.1
659.068	6289.99
659.26	6265.42
659.452	6318.67
659.644	6367.82
659.836	6208.08
660.028	6357.58
660.22	6146.64
660.412	6079.05
660.604	5999.18
660.796	6146.64
660.988	6087.25
661.18	5943.89
661.372	5923.41
661.563	6052.43
661.755	5958.22
661.947	5851.73
662.139	5778
662.331	5827.15
662.522	5622.36
662.714	5904.98
662.906	5741.14
663.097	5636.69
663.289	5655.12
663.481	5399.13
663.673	5659.22
663.864	5677.65
664.056	5429.85
664.247	5624.4
664.439	5251.67
664.631	5501.53
664.822	5427.8
665.014	5270.11
665.205	5405.27
665.397	5485.14
665.588	5309.02
665.78	5198.43
665.971	5196.38
666.163	5249.63
666.354	5110.36
666.546	5132.89
666.737	5104.22
666.929	5149.28
667.12	5139.04
667.311	5212.76
667.503	5059.17
667.694	5091.93
667.885	5042.78
668.077	4915.81
668.268	4911.71
668.459	4837.98
668.651	4897.38
668.842	4913.76
669.033	4823.65
669.224	4754.02
669.416	4741.73
669.607	4844.13
669.798	4655.72
669.989	4835.94
670.18	4780.64
670.371	4883.04
670.563	4856.42
670.754	4721.25
670.945	4641.38
671.136	4688.48
671.327	4561.51
671.518	4420.2
671.709	4610.66
671.9	4489.83
672.091	4612.71
672.282	4491.88
672.473	4487.78
672.664	4510.31
672.855	4520.55
673.046	4334.18
673.237	4455.01
673.428	4428.39
673.619	4293.23
673.809	4332.14
674	4377.19
674.191	4430.44
674.382	4297.32
674.573	4258.41
674.764	4186.73
674.954	4405.86
675.145	4407.91
675.336	4225.64
675.527	4131.44
675.717	4395.62
675.908	4127.34
676.099	4088.43
676.289	4203.11
676.48	4254.31
676.671	4125.29
676.861	4178.54
677.052	4022.89
677.243	3961.45
677.433	3930.73
677.624	4131.44
677.814	4047.47
678.005	3922.54
678.195	3979.89
678.386	3992.17
678.576	3983.98
678.767	4029.04
678.957	3963.5
679.148	4049.52
679.338	3920.49
679.529	4084.33
679.719	3871.34
679.909	4051.56
680.1	3938.93
680.29	3940.97
680.481	3736.18
680.671	3762.8
680.861	3820.14
681.052	3734.13
681.242	3979.89
681.432	3869.3
681.622	3842.67
681.813	3844.72
682.003	3885.68
682.193	3795.57
682.383	3717.75
682.573	3752.56
682.764	3740.27
682.954	3762.8
683.144	3752.56
683.334	3674.74
683.524	3512.95
683.714	3754.61
683.904	3637.88
684.094	3732.08
684.284	3676.79
684.474	3674.74
684.664	3682.93
684.854	3682.93
685.044	3670.64
685.234	3621.49
685.424	3500.66
685.614	3566.2
685.804	3578.48
685.994	3408.5
686.184	3408.5
686.374	3684.98
686.564	3537.52
686.753	3445.37
686.943	3439.22
687.133	3447.41
687.323	3361.4
687.513	3512.95
687.702	3340.92
687.892	3383.93
688.082	3474.04
688.272	3447.41
688.461	3486.33
688.651	3422.84
688.841	3295.86
689.03	3297.91
689.22	3357.3
689.41	3281.53
689.599	3293.82
689.789	3361.4
689.979	3304.06
690.168	3279.48
690.358	3320.44
690.547	3273.34
690.737	3238.52
690.926	3248.76
691.116	3154.55
691.305	3248.76
691.495	3185.27
691.684	3267.19
691.874	3289.72
692.063	3213.95
692.252	3144.31
692.442	3242.62
692.631	3185.27
692.82	3271.29
693.01	3115.64
693.199	2986.62
693.388	3093.12
693.578	3201.66
693.767	2886.27
693.956	3144.31
694.146	3203.71
694.335	3107.45
694.524	2904.7
694.713	3080.83
694.902	2888.32
695.092	2964.09
695.281	2933.37
695.47	2945.66
695.659	2955.9
695.848	3076.73
696.037	2960
696.226	2953.85
696.415	2896.51
696.604	3033.72
696.793	2884.22
696.982	2882.17
697.171	2931.33
697.36	3043.96
697.549	2953.85
697.738	2802.3
697.927	2873.98
698.116	3054.2
698.305	2876.03
698.494	2947.71
698.683	2931.33
698.872	2935.42
699.061	2783.87
699.25	2896.51
699.438	2888.32
699.627	2972.29
699.816	2833.02
700.005	2906.75
700.193	2818.69
700.382	2935.42
700.571	2855.55
700.76	2880.13
700.948	2951.81
701.137	2732.67
701.326	2853.5
701.514	2830.98
701.703	2810.5
701.892	2693.76
702.08	2900.61
702.269	2808.45
702.457	2865.79
702.646	2859.65
702.834	2724.48
703.023	2986.62
703.212	2869.89
703.4	2865.79
703.589	2787.97
703.777	2785.92
703.965	2681.47
704.154	2882.17
704.342	2751.1
704.531	2732.67
704.719	2882.17
704.907	2927.23
705.096	2792.06
705.284	2896.51
705.472	2738.82
705.661	2693.76
705.849	2894.46
706.037	2794.11
706.226	2751.1
706.414	2734.72
706.602	2841.22
706.79	2908.8
706.979	2794.11
707.167	2839.17
707.355	2871.93
707.543	2695.81
707.731	2771.58
707.919	2816.64
708.107	2837.12
708.296	2685.57
708.484	2779.78
708.672	2652.8
708.86	2736.77
709.048	2824.83
709.236	2673.28
709.424	2824.83
709.612	2699.91
709.8	2845.31
709.988	2747.01
710.176	2796.16
710.364	2753.15
710.551	2777.73
710.739	2802.3
710.927	2691.71
711.115	2757.25
711.303	2722.43
711.491	2855.55
711.679	2749.06
711.866	2757.25
712.054	2693.76
712.242	2738.82
712.43	2816.64
712.617	2783.87
712.805	2738.82
712.993	2685.57
713.181	2761.34
713.368	2681.47
713.556	2751.1
713.744	2605.7
713.931	2902.65
714.119	2704
714.306	2726.53
714.494	2755.2
714.682	2652.8
714.869	2701.95
715.057	2747.01
715.244	2722.43
715.432	2763.39
715.619	2749.06
715.807	2742.91
715.994	2744.96
716.182	2656.9
716.369	2718.34
716.556	2783.87
716.744	2720.39
716.931	2732.67
717.119	2742.91
717.306	2638.47
717.493	2675.33
717.681	2726.53
717.868	2679.43
718.055	2730.62
718.242	2685.57
718.43	2716.29
718.617	2757.25
718.804	2650.75
718.991	2744.96
719.179	2693.76
719.366	2607.75
719.553	2685.57
719.74	2687.62
719.927	2736.77
720.114	2644.61
720.301	2706.05
720.488	2691.71
720.676	2632.32
720.863	2570.88
721.05	2683.52
721.237	2626.18
721.424	2615.94
721.611	2679.43
721.798	2548.36
721.985	2687.62
722.172	2687.62
722.358	2650.75
722.545	2716.29
722.732	2665.09
722.919	2704
723.106	2525.83
723.293	2585.22
723.48	2679.43
723.667	2587.27
723.853	2652.8
724.04	2540.16
724.227	2519.68
724.414	2718.34
724.6	2607.75
724.787	2554.5
724.974	2724.48
725.161	2591.36
725.347	2564.74
725.534	2503.3
725.72	2611.84
725.907	2660.99
726.094	2556.55
726.28	2546.31
726.467	2398.85
726.653	2544.26
726.84	2511.49
727.027	2587.27
727.213	2505.35
727.4	2536.07
727.586	2558.6
727.773	2564.74
727.959	2497.16
728.145	2574.98
728.332	2497.16
728.518	2574.98
728.705	2642.56
728.891	2525.83
729.077	2409.09
729.264	2511.49
729.45	2564.74
729.636	2503.3
729.823	2482.82
730.009	2445.96
730.195	2525.83
730.382	2536.07
730.568	2554.5
730.754	2546.31
730.94	2417.29
731.126	2366.09
731.313	2505.35
731.499	2443.91
731.685	2609.79
731.871	2505.35
732.057	2507.4
732.243	2402.95
732.429	2464.39
732.615	2486.92
732.801	2400.9
732.987	2323.08
733.173	2501.25
733.359	2273.93
733.545	2331.27
733.731	2351.75
733.917	2386.57
734.103	2464.39
734.289	2368.13
734.475	2372.23
734.661	2411.14
734.847	2353.8
735.033	2431.62
735.219	2392.71
735.404	2405
735.59	2230.92
735.776	2349.7
735.962	2226.82
736.148	2321.03
736.333	2421.38
736.519	2331.27
736.705	2284.17
736.89	2353.8
737.076	2388.61
737.262	2280.07
737.447	2323.08
737.633	2349.7
737.819	2343.56
738.004	2284.17
738.19	2275.98
738.375	2194.06
738.561	2323.08
738.747	2341.51
738.932	2273.93
739.118	2239.11
739.303	2204.3
739.489	2321.03
739.674	2255.5
739.859	2284.17
740.045	2321.03
740.23	2275.98
740.416	2173.58
740.601	2269.83
740.786	2255.5
740.972	2230.92
741.157	2093.71
741.342	2056.84
741.528	2153.1
741.713	2171.53
741.898	2017.93
742.084	2128.52
742.269	2103.95
742.454	2050.7
742.639	2173.58
742.824	2005.64
743.01	2015.88
743.195	2136.71
743.38	2056.84
743.565	2095.75
743.75	1972.88
743.935	1997.45
744.12	1936.01
744.305	1927.82
744.49	1907.34
744.675	1942.16
744.86	1919.63
745.045	2024.08
745.23	1929.87
745.415	2011.79
745.6	1921.68
745.785	1866.38
745.97	1929.87
746.155	1917.58
746.34	1966.73
746.525	1915.53
746.71	1927.82
746.895	1829.52
747.079	1768.08
747.264	1868.43
747.449	1829.52
747.634	1835.66
747.819	1788.56
748.003	1792.66
748.188	1723.02
748.373	1694.35
748.557	1753.74
748.742	1798.8
748.927	1749.65
749.111	1712.78
749.296	1645.2
749.481	1706.64
749.665	1653.39
749.85	1725.07
750.034	1675.92
750.219	1725.07
750.404	1622.67
750.588	1686.16
750.773	1610.39
750.957	1571.47
751.141	1651.35
751.326	1663.63
751.51	1516.18
751.695	1655.44
751.879	1571.47
752.064	1507.99
752.248	1483.41
752.432	1426.07
752.617	1565.33
752.801	1485.46
752.985	1620.63
753.17	1473.17
753.354	1571.47
753.538	1462.93
753.722	1530.52
753.907	1407.64
754.091	1454.74
754.275	1403.54
754.459	1438.36
754.643	1381.01
754.828	1434.26
755.012	1401.49
755.196	1295
755.38	1485.46
755.564	1282.71
755.748	1340.05
755.932	1340.05
756.116	1254.04
756.3	1364.63
756.484	1286.81
756.668	1352.34
756.852	1260.18
757.036	1192.6
757.22	1219.22
757.404	1260.18
757.588	1243.8
757.772	1227.42
757.956	1196.7
758.14	1149.59
758.323	1249.94
758.507	1178.26
758.691	1231.51
758.875	1192.6
759.059	1258.14
759.242	1141.4
759.426	1200.79
759.61	1096.35
759.794	1108.63
759.977	1165.98
760.161	1145.5
760.345	1088.15
760.528	1118.87
760.712	1180.31
760.895	1071.77
761.079	1108.63
761.263	1168.02
761.446	1061.53
761.63	1114.78
761.813	1168.02
761.997	1051.29
762.18	1039
762.364	1163.93
762.547	1016.48
762.731	1051.29
762.914	1059.48
763.098	1096.35
763.281	1129.11
763.464	1049.24
763.648	1041.05
763.831	1061.53
764.015	1104.54
764.198	957.08
764.381	989.85
764.564	985.76
764.748	1022.62
764.931	1053.34
765.114	1073.82
765.297	957.08
765.481	848.54
765.664	1022.62
765.847	1020.57
766.03	979.61
766.213	973.47
766.397	887.45
766.58	1020.57
766.763	895.64
766.946	924.32
767.129	891.55
767.312	774.81
767.495	899.74
767.678	952.99
767.861	1026.71
768.044	926.36
768.227	959.13
768.41	991.9
768.593	965.28
768.776	899.74
768.959	924.32
769.142	957.08
769.324	916.12
769.507	864.93
769.69	965.28
769.873	821.92
770.056	938.65
770.239	848.54
770.421	977.56
770.604	916.12
770.787	860.83
770.97	891.55
771.152	903.84
771.335	877.21
771.518	826.01
771.7	834.21
771.883	907.93
772.066	897.69
772.248	832.16
772.431	856.73
772.613	864.93
772.796	791.2
772.978	783.01
773.161	836.25
773.343	838.3
773.526	783.01
773.708	805.53
773.891	770.72
774.073	729.76
774.256	768.67
774.438	787.1
774.621	791.2
774.803	723.62
774.985	807.58
775.168	735.9
775.35	735.9
775.532	815.77
775.715	758.43
775.897	727.71
776.079	735.9
776.261	680.61
776.444	748.19
776.626	754.34
776.808	696.99
776.99	602.79
777.173	690.85
777.355	684.7
777.537	668.32
777.719	717.47
777.901	686.75
778.083	613.03
778.265	545.44
778.447	658.08
778.629	604.83
778.811	617.12
778.993	703.14
779.175	647.84
779.357	637.6
779.539	567.97
779.721	629.41
779.903	713.38
780.085	615.07
780.267	604.83
780.449	658.08
780.631	590.5
780.812	522.91
780.994	608.93
781.176	574.11
781.358	537.25
781.54	596.64
781.721	631.46
781.903	610.98
782.085	555.68
782.267	600.74
782.448	539.3
782.63	563.87
782.812	535.2
782.993	549.54
783.175	533.15
783.357	529.06
783.538	402.08
783.72	459.43
783.901	522.91
784.083	533.15
784.264	524.96
784.446	426.66
784.627	529.06
784.809	543.39
784.99	494.24
785.172	486.05
785.353	508.58
785.535	510.63
785.716	426.66
785.897	486.05
786.079	395.94
786.26	522.91
786.441	432.8
786.623	414.37
786.804	453.28
786.985	414.37
787.167	494.24
787.348	391.84
787.529	428.71
787.71	473.76
787.891	506.53
788.073	400.04
788.254	414.37
788.435	404.13
788.616	408.23
788.797	441
788.978	469.67
789.159	359.08
789.34	428.71
789.522	369.32
789.703	453.28
789.884	443.04
790.065	387.75
790.246	465.57
790.427	361.13
790.607	330.41
790.788	400.04
790.969	383.65
791.15	346.79
791.331	342.69
791.512	324.26
791.693	361.13
791.874	457.38
792.054	455.33
792.235	410.28
792.416	326.31
792.597	373.41
792.778	391.84
792.958	373.41
793.139	373.41
793.32	348.84
793.5	316.07
793.681	383.65
793.862	316.07
794.042	271.01
794.223	236.2
794.404	332.45
794.584	258.73
794.765	254.63
794.945	318.12
795.126	311.97
795.306	307.88
795.487	354.98
795.667	295.59
795.848	318.12
796.028	385.7
796.209	291.49
796.389	297.64
796.57	328.36
796.75	289.45
796.93	359.08
797.111	240.29
797.291	268.97
797.471	301.73
797.652	240.29
797.832	297.64
798.012	291.49
798.192	391.84
798.373	240.29
798.553	281.25
798.733	199.34
798.913	324.26
799.093	244.39
799.274	305.83
799.454	314.02
799.634	297.64
799.814	215.72
799.994	293.54
800.174	279.21
800.354	201.38
800.534	225.96
800.714	268.97
800.894	207.53
801.074	201.38
801.254	283.3
801.434	334.5
801.614	305.83
801.794	139.94
801.974	811.68
802.154	236.2
802.334	250.53
802.514	309.93
802.693	223.91
802.873	228.01
803.053	242.34
803.233	289.45
803.413	283.3
803.592	301.73
803.772	234.15
803.952	160.42
804.131	215.72
804.311	180.9
804.491	271.01
804.67	256.68
804.85	238.25
805.03	268.97
805.209	307.88
805.389	268.97
805.568	248.49
805.748	228.01
805.928	228.01
806.107	176.81
806.287	316.07
806.466	189.1
806.646	189.1
806.825	215.72
807.004	199.34
807.184	176.81
807.363	221.86
807.543	242.34
807.722	205.48
807.901	182.95
808.081	197.29
808.26	185
808.439	289.45
808.619	207.53
808.798	232.1
808.977	182.95
809.156	170.66
809.336	168.62
809.515	256.68
809.694	205.48
809.873	191.14
810.052	189.1
810.231	252.58
810.411	141.99
810.59	213.67
810.769	215.72
810.948	209.58
811.127	205.48
811.306	111.27
811.485	92.84
811.664	223.91
811.843	195.24
812.022	182.95
812.201	195.24
812.38	193.19
812.559	172.71
812.737	225.96
812.916	148.14
813.095	141.99
813.274	223.91
813.453	172.71
813.632	180.9
813.811	191.14
813.989	84.65
814.168	125.61
814.347	76.46
814.526	133.8
814.704	209.58
814.883	109.22
815.062	117.42
815.24	64.17
815.419	84.65
815.598	109.22
815.776	121.51
815.955	168.62
816.133	197.29
816.312	96.94
816.49	109.22
816.669	129.7
816.847	84.65
817.026	211.62
817.204	146.09
817.383	101.03
817.561	133.8
817.74	146.09
817.918	137.9
818.097	133.8
818.275	133.8
818.453	170.66
818.632	156.33
818.81	170.66
818.988	98.99
819.167	152.23
819.345	148.14
819.523	176.81
819.701	135.85
819.879	109.22
820.058	162.47
820.236	201.38
820.414	88.75
820.592	58.03
820.77	199.34
820.948	68.27
821.127	176.81
821.305	228.01
821.483	103.08
821.661	113.32
821.839	117.42
822.017	60.07
822.195	96.94
822.373	121.51
822.551	117.42
822.729	141.99
822.907	123.56
823.085	174.76
823.262	144.04
823.44	80.55
823.618	117.42
823.796	127.66
823.974	154.28
824.152	80.55
824.329	158.38
824.507	146.09
824.685	148.14
824.863	90.79
825.04	101.03
825.218	88.75
825.396	219.82
825.574	109.22
825.751	115.37
825.929	117.42
826.107	80.55
826.284	43.69
826.462	187.05
826.639	101.03
826.817	113.32
826.994	84.65
827.172	96.94
827.349	205.48
827.527	127.66
827.704	172.71
827.882	156.33
828.059	68.27
828.237	101.03
828.414	119.46
828.591	88.75
828.769	139.94
828.946	98.99
829.124	135.85
829.301	117.42
829.478	51.88
829.655	72.36
829.833	121.51
830.01	82.6
830.187	107.18
830.364	154.28
830.542	146.09
830.719	144.04
830.896	68.27
831.073	80.55
831.25	146.09
831.427	121.51
831.604	168.62
831.782	113.32
831.959	70.31
832.136	195.24
832.313	86.7
832.49	92.84
832.667	131.75
832.844	37.55
833.021	88.75
833.198	76.46
833.374	21.16
833.551	55.98
833.728	49.83
833.905	92.84
834.082	66.22
834.259	74.41
834.436	141.99
834.612	113.32
834.789	131.75
834.966	166.57
835.143	101.03
835.319	92.84
835.496	164.52
835.673	27.31
835.85	109.22
836.026	55.98
836.203	103.08
836.38	64.17
836.556	144.04
836.733	125.61
836.909	154.28
837.086	72.36
837.262	39.59
837.439	80.55
837.616	60.07
837.792	60.07
837.968	139.94
838.145	152.23
838.321	195.24
838.498	76.46
838.674	80.55
838.851	78.51
839.027	64.17
839.203	105.13
839.38	-3.41
839.556	66.22
839.732	53.93
839.909	10.92
840.085	17.07
840.261	23.21
840.437	62.12
840.614	19.11
840.79	168.62
840.966	53.93
841.142	144.04
841.318	47.79
841.494	121.51
841.671	94.89
841.847	6.83
842.023	27.31
842.199	111.27
842.375	37.55
842.551	12.97
842.727	96.94
842.903	70.31
843.079	-46.42
843.255	111.27
843.431	74.41
843.607	86.7
843.783	60.07
843.959	55.98
844.134	45.74
844.31	96.94
844.486	62.12
844.662	-17.75
844.838	62.12
845.013	160.42
845.189	88.75
845.365	29.35
845.541	-9.56
845.716	62.12
845.892	78.51
846.068	39.59
846.244	41.64
846.419	53.93
846.595	53.93
846.77	8.87
846.946	88.75
847.122	103.08
847.297	45.74
847.473	62.12
847.648	90.79
847.824	117.42
847.999	12.97
848.175	62.12
848.35	78.51
848.526	64.17
848.701	27.31
848.876	98.99
849.052	121.51
849.227	76.46
849.403	53.93
849.578	119.46
849.753	76.46
849.929	68.27
850.104	12.97
850.279	105.13
850.454	105.13
850.63	72.36
850.805	58.03
850.98	70.31
851.155	-11.61
851.33	-30.04
851.505	47.79
851.681	-5.46
851.856	35.5
852.031	47.79
852.206	80.55
852.381	-9.56
852.556	39.59
852.731	17.07
852.906	105.13
853.081	4.78
853.256	49.83
853.431	47.79
853.606	17.07
853.781	-5.46
853.956	8.87
854.131	78.51
854.305	8.87
854.48	15.02
854.655	27.31
854.83	41.64
855.005	31.4
855.18	19.11
855.354	25.26
855.529	-11.61
855.704	58.03
855.879	27.31
856.053	-71
856.228	45.74
856.403	53.93
856.577	55.98
856.752	-36.18
856.926	45.74
857.101	80.55
857.276	53.93
857.45	78.51
857.625	98.99
857.799	45.74
857.974	-9.56
858.148	29.35
858.323	76.46
858.497	64.17
858.672	21.16
858.846	-21.85
859.02	90.79
859.195	64.17
859.369	60.07
859.543	45.74
859.718	25.26
859.892	8.87
860.066	88.75
860.241	-62.8
860.415	27.31
860.589	66.22
860.763	98.99
860.938	84.65
861.112	88.75
861.286	37.55
861.46	6.83
861.634	19.11
861.808	98.99
861.982	47.79
862.157	2.73
862.331	-30.04
862.505	51.88
862.679	43.69
862.853	-34.13
863.027	-34.13
863.201	29.35
863.375	47.79
863.549	15.02
863.722	-25.94
863.896	60.07
864.07	39.59
864.244	37.55
864.418	43.69
864.592	58.03
864.766	-3.41
864.939	29.35
865.113	29.35
865.287	70.31
865.461	41.64
865.634	78.51
865.808	51.88
865.982	51.88
866.156	-3.41
866.329	45.74
866.503	35.5
866.676	119.46
866.85	55.98
867.024	68.27
867.197	84.65
867.371	53.93
867.544	55.98
867.718	-27.99
867.891	109.22
868.065	6.83
868.238	-34.13
868.412	41.64
868.585	29.35
868.759	12.97
868.932	-17.75
869.105	17.07
869.279	68.27
869.452	-42.32
869.625	10.92
869.799	62.12
869.972	-11.61
870.145	66.22
870.319	29.35
870.492	58.03
870.665	10.92
870.838	43.69
871.011	-34.13
871.185	47.79
871.358	15.02
871.531	-17.75
871.704	-1.37
871.877	53.93
872.05	53.93
872.223	68.27
872.396	84.65
872.569	15.02
872.742	-34.13
872.915	0.68
873.088	27.31
873.261	55.98
873.434	27.31
873.607	6.83
873.78	55.98
873.953	-25.94
874.126	96.94
874.299	-3.41
874.471	-21.85
874.644	76.46
874.817	21.16
874.99	68.27
875.163	-1.37
875.335	43.69
875.508	25.26
875.681	152.23
875.853	37.55
876.026	-15.7
876.199	37.55
876.371	19.11
876.544	31.4
876.717	41.64
876.889	68.27
877.062	111.27
877.234	53.93
877.407	-5.46
877.579	96.94
877.752	78.51
877.924	-15.7
878.097	10.92
878.269	64.17
878.442	66.22
878.614	-1.37
878.786	-9.56
878.959	-1.37
879.131	41.64
879.303	62.12
879.476	-19.8
879.648	86.7
879.82	94.89
879.993	15.02
880.165	31.4
880.337	-5.46
880.509	23.21
880.681	-25.94
880.854	-30.04
881.026	-34.13
881.198	98.99
881.37	78.51
881.542	51.88
881.714	17.07
881.886	84.65
882.058	-13.65
882.23	12.97
882.402	27.31
882.574	29.35
882.746	-42.32
882.918	53.93
883.09	6.83
883.262	-34.13
883.434	31.4
883.606	64.17
883.778	25.26
883.95	-19.8
884.122	-11.61
884.293	66.22
884.465	31.4
884.637	58.03
884.809	-21.85
884.98	35.5
885.152	41.64
885.324	17.07
885.496	47.79
885.667	-25.94
885.839	33.45
886.011	88.75
886.182	45.74
886.354	10.92
886.525	15.02
886.697	49.83
886.869	-36.18
887.04	27.31
887.212	66.22
887.383	37.55
887.555	39.59
887.726	19.11
887.897	25.26
888.069	10.92
888.24	68.27
888.412	10.92
888.583	41.64
888.754	58.03
888.926	-19.8
889.097	-1.37
889.268	15.02
889.44	45.74
889.611	19.11
889.782	-15.7
889.953	53.93
890.125	68.27
890.296	-52.56
890.467	27.31
890.638	15.02
890.809	37.55
890.98	21.16
891.151	-21.85
891.323	29.35
891.494	66.22
891.665	17.07
891.836	-23.89
892.007	25.26
892.178	-11.61
892.349	90.79
892.52	-27.99
892.691	27.31
892.862	47.79
893.032	-1.37
893.203	43.69
893.374	8.87
893.545	12.97
893.716	-9.56
893.887	39.59
894.057	64.17
894.228	-32.08
894.399	-9.56
894.57	10.92
894.74	-36.18
894.911	-30.04
895.082	-36.18
895.253	17.07
895.423	-30.04
895.594	70.31
895.764	-46.42
895.935	-9.56
896.106	92.84
896.276	-15.7
896.447	-3.41
896.617	8.87
896.788	64.17
896.958	-38.23
897.129	41.64
897.299	55.98
897.47	107.18
897.64	53.93
897.81	68.27
897.981	12.97
898.151	0.68
898.322	-9.56
898.492	17.07
898.662	-19.8
898.832	-83.28
899.003	31.4
899.173	-7.51
899.343	-1.37
899.513	6.83
