Data from USB4F104151__264__10-40-19-825.txt Node

Date: Wed Mar 12 10:40:19 EDT 2025
User: louis
Spectrometer: USB4F10415
Trigger mode: 4
Integration Time (sec): 3.000000E-2
Scans to average: 1
Electric dark correction enabled: true
Nonlinearity correction enabled: false
Boxcar width: 0
XAxis mode: Wavelengths
Number of Pixels in Spectrum: 3648
>>>>>Begin Spectral Data<<<<<
178.204	-81.24
178.424	-81.24
178.644	-81.24
178.864	-124.24
179.084	-150.87
179.304	-13.65
179.524	8.87
179.744	-30.04
179.964	45.74
180.184	-50.52
180.404	6.83
180.624	-46.42
180.844	43.69
181.064	-7.51
181.283	4.78
181.503	33.45
181.723	4.78
181.943	-111.96
182.163	0.68
182.383	-5.46
182.602	2.73
182.822	53.93
183.042	-62.8
183.262	-13.65
183.482	-38.23
183.701	-9.56
183.921	41.64
184.141	8.87
184.361	90.79
184.58	-40.28
184.8	-58.71
185.02	2.73
185.239	-11.61
185.459	-9.56
185.679	55.98
185.898	-58.71
186.118	51.88
186.338	43.69
186.557	39.59
186.777	43.69
186.997	35.5
187.216	31.4
187.436	111.27
187.655	25.26
187.875	6.83
188.095	33.45
188.314	33.45
188.534	31.4
188.753	-3.41
188.973	43.69
189.192	2.73
189.412	21.16
189.631	-13.65
189.851	47.79
190.07	15.02
190.29	-46.42
190.509	39.59
190.729	-15.7
190.948	8.87
191.168	135.85
191.387	72.36
191.607	39.59
191.826	-13.65
192.045	29.35
192.265	41.64
192.484	47.79
192.704	2.73
192.923	25.26
193.142	96.94
193.362	51.88
193.581	51.88
193.8	-1.37
194.02	27.31
194.239	-30.04
194.458	21.16
194.678	21.16
194.897	-83.28
195.116	-5.46
195.335	23.21
195.555	-1.37
195.774	19.11
195.993	86.7
196.212	19.11
196.432	-38.23
196.651	58.03
196.87	10.92
197.089	123.56
197.308	10.92
197.528	94.89
197.747	-34.13
197.966	-52.56
198.185	27.31
198.404	33.45
198.623	-58.71
198.842	72.36
199.062	47.79
199.281	37.55
199.5	64.17
199.719	6.83
199.938	86.7
200.157	29.35
200.376	45.74
200.595	64.17
200.814	10.92
201.033	-25.94
201.252	37.55
201.471	127.66
201.69	-9.56
201.909	39.59
202.128	-9.56
202.347	119.46
202.566	66.22
202.785	10.92
203.004	-3.41
203.223	121.51
203.442	-5.46
203.661	-25.94
203.879	-56.66
204.098	55.98
204.317	-1.37
204.536	86.7
204.755	-54.61
204.974	76.46
205.193	19.11
205.411	68.27
205.63	31.4
205.849	113.32
206.068	37.55
206.287	19.11
206.505	84.65
206.724	62.12
206.943	84.65
207.162	-1.37
207.381	-3.41
207.599	60.07
207.818	58.03
208.037	-23.89
208.255	-58.71
208.474	35.5
208.693	-11.61
208.911	4.78
209.13	6.83
209.349	35.5
209.567	31.4
209.786	35.5
210.005	-25.94
210.223	23.21
210.442	-17.75
210.661	62.12
210.879	0.68
211.098	41.64
211.316	29.35
211.535	49.83
211.753	8.87
211.972	6.83
212.191	80.55
212.409	-3.41
212.628	2.73
212.846	-19.8
213.065	68.27
213.283	31.4
213.502	10.92
213.72	-17.75
213.938	4.78
214.157	51.88
214.375	2.73
214.594	10.92
214.812	101.03
215.031	-34.13
215.249	8.87
215.467	-1.37
215.686	8.87
215.904	82.6
216.122	17.07
216.341	37.55
216.559	19.11
216.778	66.22
216.996	-3.41
217.214	70.31
217.432	35.5
217.651	51.88
217.869	33.45
218.087	41.64
218.306	29.35
218.524	101.03
218.742	-38.23
218.96	62.12
219.179	-3.41
219.397	2.73
219.615	39.59
219.833	15.02
220.051	25.26
220.27	43.69
220.488	27.31
220.706	88.75
220.924	49.83
221.142	-9.56
221.36	43.69
221.578	139.94
221.796	-11.61
222.015	-1.37
222.233	-5.46
222.451	19.11
222.669	2.73
222.887	107.18
223.105	-34.13
223.323	82.6
223.541	-11.61
223.759	101.03
223.977	19.11
224.195	29.35
224.413	23.21
224.631	6.83
224.849	-40.28
225.067	86.7
225.285	39.59
225.503	0.68
225.721	2.73
225.939	6.83
226.157	29.35
226.375	107.18
226.592	68.27
226.81	51.88
227.028	70.31
227.246	111.27
227.464	88.75
227.682	70.31
227.9	51.88
228.117	51.88
228.335	17.07
228.553	80.55
228.771	27.31
228.989	64.17
229.206	41.64
229.424	-83.28
229.642	33.45
229.86	0.68
230.077	103.08
230.295	49.83
230.513	10.92
230.731	58.03
230.948	55.98
231.166	74.41
231.384	15.02
231.601	-27.99
231.819	80.55
232.037	45.74
232.254	-19.8
232.472	70.31
232.689	8.87
232.907	58.03
233.125	17.07
233.342	-11.61
233.56	-9.56
233.777	4.78
233.995	6.83
234.213	29.35
234.43	88.75
234.648	37.55
234.865	-5.46
235.083	-32.08
235.3	90.79
235.518	25.26
235.735	111.27
235.953	74.41
236.17	-1.37
236.388	60.07
236.605	2.73
236.822	55.98
237.04	62.12
237.257	96.94
237.475	2.73
237.692	-32.08
237.909	23.21
238.127	19.11
238.344	4.78
238.562	-21.85
238.779	4.78
238.996	17.07
239.214	8.87
239.431	15.02
239.648	-42.32
239.865	84.65
240.083	47.79
240.3	31.4
240.517	12.97
240.735	-9.56
240.952	72.36
241.169	70.31
241.386	8.87
241.603	121.51
241.821	6.83
242.038	88.75
242.255	37.55
242.472	-1.37
242.689	51.88
242.907	33.45
243.124	47.79
243.341	29.35
243.558	27.31
243.775	-17.75
243.992	49.83
244.209	-42.32
244.426	4.78
244.643	51.88
244.86	-11.61
245.078	47.79
245.295	92.84
245.512	6.83
245.729	39.59
245.946	47.79
246.163	60.07
246.38	15.02
246.597	-9.56
246.814	25.26
247.031	25.26
247.248	58.03
247.464	27.31
247.681	94.89
247.898	43.69
248.115	62.12
248.332	-19.8
248.549	23.21
248.766	90.79
248.983	17.07
249.2	55.98
249.417	72.36
249.633	23.21
249.85	-13.65
250.067	4.78
250.284	66.22
250.501	-25.94
250.717	-11.61
250.934	23.21
251.151	66.22
251.368	23.21
251.585	70.31
251.801	70.31
252.018	39.59
252.235	6.83
252.451	-1.37
252.668	-23.89
252.885	-1.37
253.102	21.16
253.318	-25.94
253.535	-9.56
253.752	43.69
253.968	-5.46
254.185	31.4
254.401	-46.42
254.618	-46.42
254.835	70.31
255.051	76.46
255.268	29.35
255.484	19.11
255.701	33.45
255.917	17.07
256.134	64.17
256.351	15.02
256.567	86.7
256.784	43.69
257	15.02
257.217	58.03
257.433	41.64
257.65	70.31
257.866	49.83
258.082	15.02
258.299	-34.13
258.515	-13.65
258.732	-60.76
258.948	-44.37
259.165	51.88
259.381	-32.08
259.597	45.74
259.814	23.21
260.03	23.21
260.246	2.73
260.463	2.73
260.679	55.98
260.895	-54.61
261.112	60.07
261.328	27.31
261.544	17.07
261.761	88.75
261.977	55.98
262.193	27.31
262.409	39.59
262.626	19.11
262.842	31.4
263.058	23.21
263.274	53.93
263.49	70.31
263.707	29.35
263.923	-34.13
264.139	6.83
264.355	58.03
264.571	47.79
264.787	-19.8
265.004	117.42
265.22	8.87
265.436	-36.18
265.652	-1.37
265.868	84.65
266.084	53.93
266.3	51.88
266.516	39.59
266.732	19.11
266.948	43.69
267.164	43.69
267.38	62.12
267.596	41.64
267.812	64.17
268.028	49.83
268.244	4.78
268.46	84.65
268.676	27.31
268.892	60.07
269.108	10.92
269.324	55.98
269.54	29.35
269.756	64.17
269.972	105.13
270.188	47.79
270.403	-19.8
270.619	-13.65
270.835	-38.23
271.051	37.55
271.267	-46.42
271.483	-30.04
271.698	-32.08
271.914	64.17
272.13	-38.23
272.346	47.79
272.562	-13.65
272.777	43.69
272.993	-25.94
273.209	19.11
273.425	51.88
273.64	8.87
273.856	39.59
274.072	-7.51
274.287	12.97
274.503	25.26
274.719	47.79
274.934	8.87
275.15	-19.8
275.366	43.69
275.581	-1.37
275.797	21.16
276.012	2.73
276.228	55.98
276.444	0.68
276.659	109.22
276.875	47.79
277.09	39.59
277.306	31.4
277.521	23.21
277.737	15.02
277.952	35.5
278.168	-21.85
278.383	55.98
278.599	43.69
278.814	23.21
279.03	92.84
279.245	17.07
279.461	-34.13
279.676	35.5
279.892	6.83
280.107	43.69
280.322	-25.94
280.538	31.4
280.753	-27.99
280.969	35.5
281.184	2.73
281.399	19.11
281.615	-27.99
281.83	-19.8
282.045	64.17
282.26	19.11
282.476	125.61
282.691	101.03
282.906	107.18
283.122	33.45
283.337	17.07
283.552	31.4
283.767	6.83
283.983	19.11
284.198	64.17
284.413	-17.75
284.628	-7.51
284.843	-32.08
285.058	-11.61
285.274	43.69
285.489	12.97
285.704	137.9
285.919	47.79
286.134	60.07
286.349	45.74
286.564	-50.52
286.779	-19.8
286.995	47.79
287.21	23.21
287.425	6.83
287.64	21.16
287.855	47.79
288.07	45.74
288.285	74.41
288.5	49.83
288.715	4.78
288.93	-1.37
289.145	88.75
289.36	37.55
289.575	15.02
289.79	72.36
290.004	47.79
290.219	23.21
290.434	31.4
290.649	-3.41
290.864	51.88
291.079	41.64
291.294	-32.08
291.509	-11.61
291.724	33.45
291.938	39.59
292.153	35.5
292.368	-27.99
292.583	72.36
292.798	82.6
293.012	25.26
293.227	51.88
293.442	70.31
293.657	82.6
293.871	47.79
294.086	10.92
294.301	180.9
294.516	29.35
294.73	47.79
294.945	55.98
295.16	4.78
295.374	76.46
295.589	31.4
295.804	41.64
296.018	-1.37
296.233	45.74
296.447	27.31
296.662	45.74
296.877	109.22
297.091	70.31
297.306	8.87
297.52	29.35
297.735	39.59
297.949	27.31
298.164	39.59
298.378	72.36
298.593	60.07
298.807	-77.14
299.022	53.93
299.236	62.12
299.451	49.83
299.665	-38.23
299.88	55.98
300.094	70.31
300.309	37.55
300.523	98.99
300.737	31.4
300.952	-34.13
301.166	27.31
301.381	43.69
301.595	53.93
301.809	-5.46
302.024	94.89
302.238	23.21
302.452	21.16
302.667	72.36
302.881	35.5
303.095	76.46
303.309	45.74
303.524	53.93
303.738	8.87
303.952	23.21
304.166	31.4
304.381	-73.04
304.595	60.07
304.809	-9.56
305.023	-42.32
305.237	29.35
305.452	12.97
305.666	76.46
305.88	-9.56
306.094	60.07
306.308	55.98
306.522	82.6
306.736	45.74
306.95	111.27
307.164	74.41
307.379	21.16
307.593	88.75
307.807	53.93
308.021	29.35
308.235	62.12
308.449	2.73
308.663	45.74
308.877	94.89
309.091	19.11
309.305	121.51
309.519	-17.75
309.733	64.17
309.947	-42.32
310.161	39.59
310.374	45.74
310.588	72.36
310.802	-23.89
311.016	45.74
311.23	49.83
311.444	-1.37
311.658	37.55
311.872	53.93
312.085	8.87
312.299	58.03
312.513	66.22
312.727	-3.41
312.941	25.26
313.154	-3.41
313.368	45.74
313.582	51.88
313.796	2.73
314.009	86.7
314.223	23.21
314.437	31.4
314.651	72.36
314.864	92.84
315.078	17.07
315.292	-25.94
315.505	23.21
315.719	15.02
315.933	25.26
316.146	21.16
316.36	17.07
316.573	55.98
316.787	39.59
317.001	19.11
317.214	39.59
317.428	-32.08
317.641	25.26
317.855	98.99
318.068	47.79
318.282	-15.7
318.495	133.8
318.709	-15.7
318.922	-56.66
319.136	41.64
319.349	78.51
319.563	39.59
319.776	23.21
319.99	45.74
320.203	25.26
320.417	94.89
320.63	-34.13
320.843	58.03
321.057	80.55
321.27	92.84
321.483	96.94
321.697	76.46
321.91	47.79
322.124	72.36
322.337	-64.85
322.55	74.41
322.763	103.08
322.977	2.73
323.19	78.51
323.403	68.27
323.617	127.66
323.83	90.79
324.043	-23.89
324.256	-1.37
324.469	33.45
324.683	37.55
324.896	23.21
325.109	72.36
325.322	58.03
325.535	84.65
325.748	86.7
325.962	92.84
326.175	-9.56
326.388	107.18
326.601	86.7
326.814	10.92
327.027	62.12
327.24	41.64
327.453	17.07
327.666	15.02
327.879	10.92
328.092	17.07
328.305	74.41
328.518	66.22
328.731	31.4
328.944	80.55
329.157	41.64
329.37	19.11
329.583	37.55
329.796	74.41
330.009	17.07
330.222	45.74
330.435	82.6
330.648	2.73
330.861	60.07
331.073	31.4
331.286	-5.46
331.499	74.41
331.712	15.02
331.925	8.87
332.138	-38.23
332.35	41.64
332.563	41.64
332.776	117.42
332.989	51.88
333.202	-5.46
333.414	23.21
333.627	88.75
333.84	35.5
334.053	68.27
334.265	10.92
334.478	68.27
334.691	64.17
334.903	49.83
335.116	21.16
335.329	-5.46
335.541	137.9
335.754	72.36
335.966	31.4
336.179	39.59
336.392	60.07
336.604	55.98
336.817	96.94
337.029	-38.23
337.242	78.51
337.454	129.7
337.667	66.22
337.88	80.55
338.092	129.7
338.305	39.59
338.517	15.02
338.729	55.98
338.942	68.27
339.154	-1.37
339.367	25.26
339.579	68.27
339.792	12.97
340.004	29.35
340.217	-30.04
340.429	66.22
340.641	15.02
340.854	-1.37
341.066	-11.61
341.278	27.31
341.491	88.75
341.703	47.79
341.915	-7.51
342.128	29.35
342.34	39.59
342.552	27.31
342.764	23.21
342.977	51.88
343.189	105.13
343.401	53.93
343.613	27.31
343.826	-3.41
344.038	2.73
344.25	45.74
344.462	-5.46
344.674	146.09
344.886	72.36
345.099	90.79
345.311	76.46
345.523	27.31
345.735	-66.9
345.947	37.55
346.159	25.26
346.371	45.74
346.583	53.93
346.795	74.41
347.007	113.32
347.219	19.11
347.431	39.59
347.643	70.31
347.855	-9.56
348.067	72.36
348.279	31.4
348.491	31.4
348.703	70.31
348.915	35.5
349.127	23.21
349.339	70.31
349.551	-23.89
349.763	107.18
349.975	43.69
350.187	113.32
350.399	35.5
350.61	31.4
350.822	88.75
351.034	70.31
351.246	29.35
351.458	111.27
351.669	49.83
351.881	-5.46
352.093	35.5
352.305	-1.37
352.517	78.51
352.728	51.88
352.94	-21.85
353.152	-25.94
353.363	15.02
353.575	101.03
353.787	33.45
353.999	-21.85
354.21	70.31
354.422	51.88
354.633	88.75
354.845	72.36
355.057	49.83
355.268	86.7
355.48	51.88
355.692	47.79
355.903	25.26
356.115	80.55
356.326	-15.7
356.538	101.03
356.749	90.79
356.961	60.07
357.172	70.31
357.384	-54.61
357.595	90.79
357.807	12.97
358.018	-1.37
358.23	27.31
358.441	107.18
358.653	72.36
358.864	-7.51
359.075	8.87
359.287	25.26
359.498	62.12
359.709	96.94
359.921	70.31
360.132	53.93
360.344	101.03
360.555	43.69
360.766	105.13
360.977	15.02
361.189	29.35
361.4	101.03
361.611	37.55
361.823	154.28
362.034	55.98
362.245	49.83
362.456	-15.7
362.667	98.99
362.879	29.35
363.09	105.13
363.301	-17.75
363.512	25.26
363.723	29.35
363.935	-3.41
364.146	53.93
364.357	27.31
364.568	53.93
364.779	60.07
364.99	55.98
365.201	39.59
365.412	15.02
365.623	45.74
365.834	90.79
366.045	78.51
366.256	84.65
366.467	2.73
366.678	15.02
366.889	55.98
367.1	49.83
367.311	68.27
367.522	-17.75
367.733	96.94
367.944	82.6
368.155	88.75
368.366	160.42
368.577	105.13
368.788	88.75
368.999	-27.99
369.209	60.07
369.42	78.51
369.631	168.62
369.842	135.85
370.053	58.03
370.264	29.35
370.474	-27.99
370.685	80.55
370.896	60.07
371.107	53.93
371.317	121.51
371.528	68.27
371.739	53.93
371.95	41.64
372.16	107.18
372.371	41.64
372.582	43.69
372.792	55.98
373.003	60.07
373.214	78.51
373.424	64.17
373.635	-13.65
373.846	41.64
374.056	53.93
374.267	10.92
374.477	109.22
374.688	45.74
374.898	49.83
375.109	74.41
375.319	53.93
375.53	-13.65
375.74	33.45
375.951	64.17
376.161	47.79
376.372	121.51
376.582	29.35
376.793	60.07
377.003	2.73
377.214	111.27
377.424	-1.37
377.635	37.55
377.845	8.87
378.055	115.37
378.266	43.69
378.476	109.22
378.686	37.55
378.897	41.64
379.107	133.8
379.317	58.03
379.528	31.4
379.738	98.99
379.948	21.16
380.158	137.9
380.369	68.27
380.579	115.37
380.789	39.59
380.999	31.4
381.21	17.07
381.42	156.33
381.63	45.74
381.84	68.27
382.05	23.21
382.261	133.8
382.471	53.93
382.681	51.88
382.891	78.51
383.101	117.42
383.311	17.07
383.521	-19.8
383.731	117.42
383.941	105.13
384.151	37.55
384.361	74.41
384.571	94.89
384.781	64.17
384.991	156.33
385.201	80.55
385.411	49.83
385.621	78.51
385.831	111.27
386.041	152.23
386.251	109.22
386.461	51.88
386.671	45.74
386.881	51.88
387.091	-11.61
387.301	98.99
387.511	43.69
387.72	74.41
387.93	105.13
388.14	21.16
388.35	96.94
388.56	146.09
388.769	156.33
388.979	39.59
389.189	49.83
389.399	64.17
389.609	109.22
389.818	154.28
390.028	-9.56
390.238	98.99
390.447	49.83
390.657	60.07
390.867	23.21
391.076	41.64
391.286	76.46
391.496	35.5
391.705	86.7
391.915	41.64
392.125	55.98
392.334	103.08
392.544	117.42
392.753	51.88
392.963	60.07
393.172	43.69
393.382	88.75
393.591	160.42
393.801	12.97
394.01	74.41
394.22	78.51
394.429	45.74
394.639	127.66
394.848	127.66
395.058	139.94
395.267	68.27
395.477	113.32
395.686	178.86
395.895	107.18
396.105	84.65
396.314	51.88
396.524	174.76
396.733	94.89
396.942	146.09
397.152	107.18
397.361	152.23
397.57	68.27
397.78	129.7
397.989	137.9
398.198	148.14
398.407	121.51
398.617	113.32
398.826	74.41
399.035	158.38
399.244	107.18
399.453	113.32
399.663	103.08
399.872	133.8
400.081	51.88
400.29	176.81
400.499	144.04
400.708	127.66
400.917	164.52
401.127	111.27
401.336	123.56
401.545	146.09
401.754	129.7
401.963	98.99
402.172	137.9
402.381	141.99
402.59	199.34
402.799	152.23
403.008	180.9
403.217	158.38
403.426	170.66
403.635	152.23
403.844	168.62
404.053	162.47
404.262	201.38
404.471	51.88
404.68	158.38
404.888	141.99
405.097	117.42
405.306	135.85
405.515	242.34
405.724	166.57
405.933	223.91
406.142	240.29
406.35	185
406.559	250.53
406.768	225.96
406.977	195.24
407.185	256.68
407.394	146.09
407.603	146.09
407.812	228.01
408.02	359.08
408.229	211.62
408.438	281.25
408.646	285.35
408.855	268.97
409.064	342.69
409.272	252.58
409.481	328.36
409.69	299.69
409.898	346.79
410.107	305.83
410.315	408.23
410.524	357.03
410.733	408.23
410.941	408.23
411.15	436.9
411.358	457.38
411.567	500.39
411.775	481.96
411.984	567.97
412.192	543.39
412.401	508.58
412.609	559.78
412.818	502.43
413.026	545.44
413.234	600.74
413.443	660.13
413.651	610.98
413.86	735.9
414.068	727.71
414.276	674.46
414.485	682.66
414.693	711.33
414.901	864.93
415.11	746.14
415.318	803.49
415.526	895.64
415.734	922.27
415.943	1006.24
416.151	944.8
416.359	971.42
416.567	1086.11
416.776	1104.54
416.984	1133.21
417.192	1102.49
417.4	1225.37
417.608	1110.68
417.817	1176.22
418.025	1319.57
418.233	1356.44
418.441	1370.77
418.649	1473.17
418.857	1497.75
419.065	1596.05
419.273	1522.32
419.481	1594
419.689	1780.37
419.897	1735.31
420.105	1804.94
420.313	1825.42
420.521	1901.2
420.729	2034.32
420.937	1923.73
421.145	2069.13
421.353	2235.02
421.561	2323.08
421.769	2415.24
421.977	2376.33
422.185	2400.9
422.393	2587.27
422.601	2646.66
422.809	2617.99
423.017	2804.35
423.224	2873.98
423.432	2937.47
423.64	2968.19
423.848	3322.49
424.056	3078.78
424.263	3400.31
424.471	3510.9
424.679	3527.28
424.887	3656.31
425.094	3754.61
425.302	3838.58
425.51	3988.08
425.718	4102.76
425.925	4209.26
426.133	4260.46
426.341	4680.29
426.548	4696.67
426.756	4772.45
426.964	4620.9
427.171	5012.06
427.379	5225.05
427.586	5366.36
427.794	5476.95
428.001	5675.6
428.209	5978.7
428.417	5841.49
428.624	6378.06
428.832	6289.99
429.039	6136.4
429.247	6187.6
429.454	6761.03
429.662	7264.83
429.869	6853.19
430.076	7244.35
430.284	7158.33
430.491	7338.55
430.699	7813.68
430.906	7875.12
431.114	7838.26
431.321	8301.1
431.528	8421.93
431.736	9040.42
431.943	9314.84
432.15	9097.76
432.358	9343.52
432.565	9755.16
432.772	9654.81
432.979	10084.88
433.187	10406.41
433.394	10406.41
433.601	11127.3
433.808	11276.8
434.016	11043.33
434.223	11661.82
434.43	12120.56
434.637	11794.93
434.844	12593.64
435.052	13023.72
435.259	12833.25
435.466	13169.12
435.673	12997.09
435.88	13814.23
436.087	14576.08
436.294	14436.81
436.501	14131.67
436.708	14539.21
436.915	14848.46
437.122	15475.13
437.329	15610.3
437.537	16290.23
437.743	16499.12
437.95	16206.26
438.157	17093.03
438.364	17858.97
438.571	17727.9
438.778	17586.59
438.985	19392.9
439.192	18719.12
439.399	19278.21
439.606	18669.97
439.813	19900.79
440.02	21191.02
440.227	20662.64
440.433	20318.58
440.64	21168.49
440.847	21010.79
441.054	21557.6
441.261	23126.35
441.467	22702.42
441.674	23439.68
441.881	23925.05
442.088	24146.23
442.294	23898.43
442.501	24570.16
442.708	24893.74
442.914	26071.32
443.121	27005.2
443.328	26472.73
443.534	28031.23
443.741	27490.57
443.948	27169.04
444.154	29229.29
444.361	28864.75
444.568	29300.97
444.774	28940.53
444.981	29343.98
445.187	30447.83
445.394	31813.83
445.6	31101.14
445.807	34099.36
446.013	32487.61
446.22	33378.48
446.426	34197.66
446.633	34468
446.839	36161.67
447.046	34242.72
447.252	36401.28
447.459	36518.01
447.665	35983.49
447.871	37630.06
448.078	39176.28
448.284	37535.85
448.491	38326.37
448.697	39551.06
448.903	40714.3
449.11	40812.6
449.316	39706.7
449.522	40372.29
449.728	41322.55
449.935	42369.06
450.141	41752.62
450.347	42410.02
450.553	41549.87
450.76	41803.82
450.966	42934.3
451.172	42561.57
451.378	43780.11
451.584	42733.6
451.791	43964.43
451.997	43741.2
452.203	44564.48
452.409	44222.47
452.615	44120.07
452.821	42080.3
453.027	42231.85
453.233	44001.29
453.44	42459.17
453.646	42440.74
453.852	42381.35
454.058	43509.78
454.264	42225.7
454.47	42641.44
454.676	41746.48
454.882	43313.17
455.088	39379.03
455.294	39870.54
455.5	40587.33
455.705	41171
455.911	39104.6
456.117	38424.67
456.323	37603.44
456.529	35567.76
456.735	37447.79
456.941	36272.26
457.147	35651.72
457.352	34889.88
457.558	34099.36
457.764	34455.71
457.97	33261.74
458.176	32645.3
458.381	32641.21
458.587	31420.62
458.793	31082.7
458.999	29507.82
459.204	31637.7
459.41	30443.74
459.616	28928.24
459.821	28707.06
460.027	28530.94
460.233	27683.08
460.438	26511.64
460.644	27097.36
460.85	25753.89
461.055	25286.95
461.261	25098.54
461.466	23404.87
461.672	22759.76
461.878	24424.76
462.083	22679.89
462.289	22286.68
462.494	22085.98
462.7	20896.11
462.905	20623.73
463.111	21209.45
463.316	21438.82
463.522	20818.28
463.727	20818.28
463.932	20443.51
464.138	20515.19
464.343	20648.3
464.549	20359.54
464.754	20982.12
464.959	20765.04
465.165	20492.66
465.37	19722.62
465.575	19251.59
465.781	20111.74
465.986	19992.95
466.191	19437.95
466.397	19102.09
466.602	18104.73
466.807	18717.07
467.012	18684.3
467.218	18330
467.423	18612.62
467.628	18422.16
467.833	19310.98
468.038	18723.21
468.244	17981.85
468.449	18663.82
468.654	18010.52
468.859	17818.01
469.064	17887.64
469.269	17232.29
469.474	17123.75
469.679	17676.7
469.885	16910.76
470.09	17359.27
470.295	17324.45
470.5	16482.74
470.705	16658.86
470.91	16345.52
471.115	16284.08
471.32	16675.24
471.525	16275.89
471.73	16142.77
471.935	16073.14
472.139	15567.29
472.344	15526.33
472.549	15548.86
472.754	15520.19
472.959	14991.81
473.164	14660.04
473.369	14514.64
473.574	15071.68
473.778	14895.56
473.983	14744.01
474.188	14475.73
474.393	14049.75
474.598	14148.05
474.802	13769.18
475.007	13808.09
475.212	13791.7
475.417	13267.42
475.621	13408.73
475.826	13449.69
476.031	13074.92
476.235	12925.41
476.44	13060.58
476.645	12642.79
476.849	12794.34
477.054	12628.46
477.259	12550.64
477.463	12417.52
477.668	12155.38
477.872	12544.49
478.077	12038.64
478.282	11854.33
478.486	11661.82
478.691	11649.53
478.895	11682.3
479.1	11450.88
479.304	11559.42
479.509	11368.96
479.713	11426.3
479.918	11223.55
480.122	11041.28
480.326	11123.2
480.531	11270.65
480.735	11137.54
480.94	11043.33
481.144	11262.46
481.348	10947.08
481.553	10994.18
481.757	10766.85
481.961	10965.51
482.166	10914.31
482.37	11119.1
482.574	10494.47
482.778	10832.39
482.983	10854.92
483.187	10654.22
483.391	10838.53
483.595	10750.47
483.8	10670.6
484.004	10754.57
484.208	10674.7
484.412	10656.26
484.616	10551.82
484.821	10779.14
485.025	10609.16
485.229	10834.44
485.433	10598.92
485.637	10676.74
485.841	10662.41
486.045	10689.03
486.249	10885.64
486.453	10842.63
486.657	10992.13
486.861	10758.66
487.065	10670.6
487.269	10869.25
487.473	10494.47
487.677	10568.2
487.881	10783.24
488.085	10895.88
488.289	10742.28
488.493	10666.5
488.697	10897.92
488.901	10932.74
489.105	10646.02
489.309	10758.66
489.512	10854.92
489.716	10955.27
489.92	10850.82
490.124	10777.09
490.328	11254.27
490.531	10998.27
490.735	11053.57
490.939	11231.74
491.143	11127.3
491.346	11049.47
491.55	11186.69
491.754	11512.31
491.958	11411.96
492.161	11207.17
492.365	11293.18
492.569	11311.61
492.772	11344.38
492.976	11540.99
493.18	11794.93
493.383	11741.69
493.587	11745.78
493.79	11870.71
493.994	11667.96
494.197	12118.51
494.401	12016.12
494.605	12042.74
494.808	12378.61
495.012	12210.67
495.215	12259.82
495.419	12632.55
495.622	12466.67
495.825	12532.2
496.029	12499.44
496.232	12898.79
496.436	12741.1
496.639	13210.08
496.843	13175.27
497.046	13359.58
497.249	13343.2
497.453	13711.83
497.656	13715.93
497.859	13810.14
498.063	14090.71
498.266	14195.15
498.469	14014.93
498.673	14166.48
498.876	14440.91
499.079	14776.78
499.282	14627.28
499.485	15131.08
499.689	15159.75
499.892	15215.04
500.095	15276.48
500.298	15757.75
500.501	15407.55
500.705	16101.81
500.908	16159.16
501.111	16290.23
501.314	16691.63
501.517	16554.41
501.72	16816.55
501.923	16708.01
502.126	17281.44
502.329	17779.1
502.532	17580.45
502.735	17631.65
502.938	18090.39
503.141	17977.75
503.344	18502.03
503.547	18579.86
503.75	19038.6
503.953	18948.49
504.156	19407.23
504.359	19579.26
504.562	19495.3
504.765	19779.96
504.968	20121.98
505.17	20259.19
505.373	20283.77
505.576	20629.87
505.779	20904.3
505.982	21225.83
506.185	21514.59
506.387	21729.63
506.59	22030.68
506.793	22262.1
506.996	22212.95
507.198	22622.55
507.401	22749.52
507.604	23134.54
507.807	23505.22
508.009	23292.23
508.212	23431.49
508.415	24138.04
508.617	24412.47
508.82	24310.07
509.022	24105.27
509.225	25155.88
509.428	25051.44
509.63	25401.64
509.833	25590.05
510.035	26511.64
510.238	26030.37
510.44	26558.74
510.643	26966.29
510.845	27132.17
511.048	26747.15
511.25	27275.53
511.453	27492.62
511.655	28387.58
511.858	28113.15
512.06	28377.34
512.262	28606.71
512.465	28844.27
512.667	29122.8
512.87	29640.93
513.072	29630.69
513.274	30730.45
513.477	30580.95
513.679	30914.77
513.881	30806.23
514.084	31326.41
514.286	31506.63
514.488	31754.44
514.69	32174.27
514.893	32622.78
515.095	32565.43
515.297	33032.37
515.499	33093.81
515.701	33665.19
515.904	33863.85
516.106	34257.06
516.308	34615.45
516.51	34943.13
516.712	34824.34
516.914	35459.21
517.116	35965.06
517.318	35872.9
517.52	36079.75
517.722	36710.52
517.925	36706.43
518.127	37386.35
518.329	37464.18
518.531	37881.96
518.733	38232.16
518.935	38586.46
519.136	38383.71
519.338	38912.09
519.54	39366.74
519.742	40022.09
519.944	39977.03
520.146	40337.48
520.348	40781.88
520.55	41054.26
520.752	41226.29
520.954	41715.76
521.155	41711.66
521.357	42319.91
521.559	42633.25
521.761	43247.64
521.963	43216.92
522.164	43325.46
522.366	43417.62
522.568	43984.91
522.77	44326.92
522.971	44605.44
523.173	44214.28
523.375	45334.52
523.576	45056
523.778	45121.53
523.98	45682.67
524.181	45965.29
524.383	46014.44
524.584	46512.1
524.786	46768.1
524.988	46677.99
525.189	47122.4
525.391	47697.87
525.592	47847.38
525.794	47880.14
525.995	48134.09
526.197	48093.13
526.398	48619.46
526.6	48775.11
526.801	48877.5
527.003	49344.44
527.204	49104.83
527.406	49584.05
527.607	49627.06
527.808	49954.74
528.01	49172.41
528.211	49815.47
528.412	51046.3
528.614	50735.01
528.815	50622.37
529.016	51163.04
529.218	50749.35
529.419	50857.89
529.62	50999.2
529.822	50806.69
530.023	51048.35
530.224	51419.03
530.425	51677.08
530.626	50958.24
530.828	50993.06
531.029	52357
531.23	51523.48
531.431	51724.18
531.632	51967.89
531.833	52406.15
532.035	52133.78
532.236	52125.58
532.437	52291.47
532.638	52064.14
532.839	52531.08
533.04	52715.4
533.241	52270.99
533.442	53401.47
533.643	52387.72
533.844	52739.97
534.045	52543.37
534.246	52354.96
534.447	53043.07
534.648	52420.49
534.849	52762.5
535.05	52324.24
535.251	52871.04
535.451	53168
535.652	53206.91
535.853	52586.38
536.054	53297.02
536.255	53161.86
536.456	53161.86
536.657	53608.31
536.857	53030.79
537.058	52967.3
537.259	53516.15
537.46	53010.31
537.66	52811.65
537.861	53278.59
538.062	52776.84
538.263	53731.19
538.463	53002.11
538.664	53014.4
538.865	52881.28
539.065	53544.83
539.266	52912
539.466	53452.67
539.667	52746.12
539.868	53708.66
540.068	53124.99
540.269	52776.84
540.469	53026.69
540.67	53104.51
540.87	52641.67
541.071	52776.84
541.271	53354.36
541.472	52983.68
541.672	52766.6
541.873	52850.56
542.073	52285.32
542.274	53249.92
542.474	53188.48
542.675	52838.28
542.875	53059.46
543.075	52977.54
543.276	52279.18
543.476	53530.49
543.676	52869
543.877	53194.62
544.077	52901.76
544.277	53053.31
544.478	52512.65
544.678	53268.35
544.878	53002.11
545.078	52756.36
545.279	52825.99
545.479	52871.04
545.679	53264.25
545.879	52752.26
546.079	53108.61
546.28	52588.42
546.48	52408.2
546.68	52764.55
546.88	52643.72
547.08	52842.37
547.28	52531.08
547.48	52643.72
547.68	52359.05
547.88	52733.83
548.081	52637.58
548.281	52746.12
548.481	52625.29
548.681	52809.6
548.881	52590.47
549.081	52746.12
549.28	52481.93
549.48	52918.15
549.68	52729.73
549.88	53217.15
550.08	52526.99
550.28	52686.73
550.48	52281.23
550.68	53135.23
550.88	52543.37
551.08	52187.02
551.279	52567.94
551.479	52526.99
551.679	52344.72
551.879	52592.52
552.079	52754.31
552.278	52531.08
552.478	52590.47
552.678	52273.04
552.878	52932.48
553.077	52301.71
553.277	52053.9
553.477	52735.88
553.676	52058
553.876	52533.13
554.076	51527.58
554.275	52101.01
554.475	51683.22
554.674	52133.78
554.874	51939.22
555.074	51806.1
555.273	51677.08
555.473	52150.16
555.672	51595.16
555.872	51711.89
556.071	51560.34
556.271	52023.18
556.47	51488.67
556.67	50767.78
556.869	51462.04
557.068	51570.58
557.268	50956.19
557.467	51507.1
557.667	51290.01
557.866	51273.63
558.065	51240.86
558.265	50778.02
558.464	50900.9
558.663	51713.94
558.863	49983.41
559.062	51711.89
559.261	50565.03
559.461	51531.67
559.66	49995.7
559.859	50706.34
560.058	50102.19
560.258	50679.72
560.457	50024.37
560.656	50440.11
560.855	50212.78
561.054	50175.92
561.253	49688.5
561.453	49821.62
561.652	49864.63
561.851	50505.64
562.05	49655.73
562.249	49307.58
562.448	49424.31
562.647	49569.72
562.846	49633.21
563.045	49469.37
563.244	49201.08
563.443	49696.69
563.642	48539.59
563.841	49162.17
564.04	48601.03
564.239	49440.7
564.438	48334.79
564.637	48703.43
564.836	48877.5
565.035	48351.18
565.234	48261.07
565.432	48150.48
565.631	47697.87
565.83	48095.18
566.029	47953.87
566.228	47976.4
566.427	47726.55
566.625	47497.17
566.824	47042.52
567.023	47415.26
567.222	46954.46
567.42	47413.21
567.619	47058.91
567.818	46766.05
568.016	46624.74
568.215	47128.54
568.414	46444.52
568.612	46807.01
568.811	46321.64
569.01	46497.77
569.208	45817.84
569.407	46252.01
569.605	45391.86
569.804	46069.74
570.002	45940.72
570.201	45932.53
570.4	45375.48
570.598	45191.16
570.797	44867.58
570.995	45262.84
571.193	44566.53
571.392	45133.82
571.59	44587.01
571.789	44808.19
571.987	44904.45
572.186	44558.34
572.384	44269.58
572.582	44656.64
572.781	44533.76
572.979	43835.41
573.177	43755.54
573.376	44242.95
573.574	43323.41
573.772	43872.27
573.971	43532.31
574.169	43505.68
574.367	42827.81
574.565	43552.79
574.763	43077.66
574.962	42913.82
575.16	42526.75
575.358	43040.79
575.556	42123.3
575.754	42833.95
575.952	42307.62
576.151	42541.09
576.349	42029.1
576.547	41922.6
576.745	41893.93
576.943	42395.68
577.141	41918.51
577.339	41855.02
577.537	41162.81
577.735	41611.31
577.933	41261.11
578.131	41611.31
578.329	41041.98
578.527	41357.36
578.725	41050.17
578.923	41123.9
579.121	40544.32
579.319	40661.05
579.516	40943.67
579.714	40169.54
579.912	40497.22
580.11	40271.94
580.308	40249.41
580.506	40147.01
580.704	39258.2
580.901	39981.13
581.099	39907.4
581.297	39360.59
581.495	39465.04
581.692	39290.96
581.89	39168.08
582.088	39467.09
582.285	38871.13
582.483	39260.24
582.681	38809.69
582.878	39010.39
583.076	38533.21
583.274	38719.58
583.471	38871.13
583.669	38547.55
583.866	38260.83
584.064	38572.13
584.262	37945.45
584.459	38123.62
584.657	37824.62
584.854	38211.68
585.052	37046.39
585.249	37773.42
585.447	37812.33
585.644	37007.48
585.841	37232.75
586.039	36937.85
586.236	37091.44
586.434	37134.45
586.631	36397.18
586.828	37159.03
587.026	36479.1
587.223	36626.56
587.42	36257.92
587.618	36253.83
587.815	35879.05
588.012	35608.72
588.21	35987.59
588.407	36055.17
588.604	35840.14
588.801	35586.19
588.999	35465.36
589.196	35608.72
589.393	35623.05
589.59	35066
589.787	35281.04
589.984	35156.11
590.182	34678.94
590.379	35074.2
590.576	34810.01
590.773	34394.27
590.97	34287.78
591.167	34525.34
591.364	34306.21
591.561	34355.36
591.758	33765.54
591.955	33824.93
592.152	33935.52
592.349	33771.69
592.546	33687.72
592.743	33521.84
592.94	33192.11
593.137	33636.52
593.334	33470.64
593.531	33114.29
593.727	33269.93
593.924	33366.19
594.121	33026.23
594.318	33001.65
594.515	32442.56
594.712	32870.58
594.908	32581.82
595.105	32870.58
595.302	32180.42
595.499	32583.87
595.696	32067.78
595.892	31709.38
596.089	31918.28
596.286	32102.59
596.482	31359.18
596.679	32010.43
596.876	31936.71
597.072	31367.37
597.269	31469.77
597.466	31244.49
597.662	31281.36
597.859	31353.04
598.055	30965.97
598.252	30761.17
598.448	30849.24
598.645	30744.79
598.841	30666.97
599.038	30445.79
599.234	30435.55
599.431	30007.52
599.627	30093.54
599.824	30537.94
600.02	30257.37
600.217	30351.58
600.413	29438.19
600.609	29896.93
600.806	29794.53
601.002	30154.97
601.198	29692.13
601.395	29432.04
601.591	29528.3
601.787	29227.24
601.984	28936.43
602.18	29368.55
602.376	28903.67
602.572	28956.91
602.769	28750.07
602.965	28477.69
603.161	28635.38
603.357	28733.68
603.553	28553.46
603.75	28410.11
603.946	28217.6
604.142	28205.31
604.338	27900.16
604.534	28420.34
604.73	27816.19
604.926	27764.99
605.122	27832.58
605.318	27844.87
605.514	27590.92
605.71	27334.92
605.906	27433.22
606.102	27238.67
606.298	27437.32
606.494	27414.79
606.69	27253
606.886	27212.04
607.082	26650.9
607.278	27345.16
607.474	26648.85
607.67	26800.4
607.866	26683.67
608.062	27132.17
608.257	26620.18
608.453	26771.73
608.649	26714.39
608.845	26548.5
609.041	26587.41
609.236	26599.7
609.432	26161.44
609.628	26446.1
609.824	25997.6
610.019	25835.81
610.215	26263.83
610.411	26294.55
610.606	25911.58
610.802	25602.34
610.998	25825.57
611.193	25858.34
611.389	25747.75
611.584	25938.21
611.78	25399.59
611.976	25757.99
612.171	25891.1
612.367	25450.79
612.562	25487.65
612.758	25178.41
612.953	24899.89
613.149	25338.15
613.344	25192.75
613.539	25338.15
613.735	25319.72
613.93	25207.08
614.126	25047.34
614.321	25424.17
614.517	24846.64
614.712	24932.65
614.907	24777.01
615.103	24959.28
615.298	24803.63
615.493	24830.26
615.688	24684.85
615.884	24985.9
616.079	24381.75
616.274	24641.84
616.47	24205.63
616.665	24471.86
616.86	24154.43
617.055	24095.03
617.25	24320.31
617.445	24293.69
617.641	23861.57
617.836	24099.13
618.031	23910.72
618.226	24310.07
618.421	23902.53
618.616	23714.11
618.811	23871.81
619.006	23863.61
619.201	23279.94
619.396	23513.41
619.591	23300.42
619.786	23048.52
619.981	22966.6
620.176	23349.57
620.371	23173.45
620.566	23001.42
620.761	22733.14
620.956	23066.95
621.151	22577.49
621.346	22796.62
621.541	22356.31
621.735	22427.99
621.93	22307.16
622.125	22327.64
622.32	21737.82
622.515	22081.88
622.709	21555.55
622.904	21619.04
623.099	21539.17
623.294	21686.62
623.488	21352.8
623.683	21612.9
623.878	20808.05
624.072	21295.46
624.267	21150.06
624.462	20998.51
624.656	20849
624.851	20611.44
625.046	20531.57
625.24	20519.28
625.435	20054.39
625.629	20275.57
625.824	20072.82
626.018	19960.19
626.213	19683.71
626.407	19933.56
626.602	19583.36
626.796	19526.02
626.991	19483.01
627.185	19263.88
627.38	19241.35
627.574	19224.97
627.768	18766.22
627.963	18852.23
628.157	18682.25
628.352	18837.9
628.546	18385.3
628.74	18542.99
628.935	17932.7
629.129	18356.63
629.323	18125.21
629.517	18207.12
629.712	17992.09
629.906	17875.35
630.1	17418.66
630.294	17719.71
630.489	17410.46
630.683	17609.12
630.877	17213.86
631.071	17355.17
631.265	17258.92
631.459	17177
631.653	17062.31
631.848	16869.8
632.042	16830.89
632.236	16861.61
632.43	16587.18
632.624	16765.35
632.818	16740.78
633.012	16409.01
633.206	16345.52
633.4	16220.6
633.594	15872.44
633.788	16200.12
633.982	16171.44
634.176	16241.07
634.369	16243.12
634.563	16196.02
634.757	15620.54
634.951	15774.14
635.145	15722.94
635.339	15624.64
635.533	15323.58
635.726	15489.47
635.92	15509.95
636.114	15126.98
636.308	14965.19
636.501	15133.12
636.695	15217.09
636.889	14795.21
637.083	14731.72
637.276	14737.87
637.47	14524.88
637.664	14475.73
637.857	14440.91
638.051	14320.08
638.244	14414.29
638.438	14416.33
638.632	14393.81
638.825	14053.84
639.019	14064.08
639.212	13767.13
639.406	14068.18
639.599	13949.4
639.793	13904.34
639.986	13552.09
640.18	13484.51
640.373	13582.81
640.567	13451.74
640.76	13134.31
640.954	13181.41
641.147	13277.66
641.34	13224.42
641.534	13105.63
641.727	12927.46
641.92	13031.91
642.114	12988.9
642.307	12933.61
642.5	12601.83
642.694	12575.21
642.887	12507.63
643.08	12691.94
643.273	12468.72
643.467	12425.71
643.66	12280.3
643.853	12378.61
644.046	12265.97
644.239	11966.96
644.432	12128.75
644.626	12073.46
644.819	11966.96
645.012	12059.12
645.205	11686.39
645.398	11776.5
645.591	11942.39
645.784	11573.75
645.977	11737.59
646.17	11639.29
646.363	11549.18
646.556	11409.92
646.749	11405.82
646.942	11483.64
647.135	11348.48
647.328	11170.3
647.521	10893.83
647.714	10945.03
647.907	11141.63
648.099	10775.05
648.292	10768.9
648.485	10932.74
648.678	10686.98
648.871	10664.46
649.064	10715.66
649.256	10609.16
649.449	10471.95
649.642	10596.87
649.835	10531.34
650.027	10258.96
650.22	10291.73
650.413	10250.77
650.605	10363.4
650.798	10320.4
650.991	10074.64
651.183	10189.33
651.376	10105.36
651.568	9982.48
651.761	9939.47
651.954	9966.1
652.146	9947.67
652.339	9882.13
652.531	9843.22
652.724	9660.95
652.916	9554.46
653.109	9564.7
653.301	9603.61
653.494	9550.36
653.686	9409.05
653.879	9468.44
654.071	9542.17
654.263	9452.06
654.456	9259.55
654.648	9097.76
654.84	9056.8
655.033	9142.82
655.225	8983.07
655.417	9093.66
655.61	9071.14
655.802	9171.49
655.994	9075.23
656.186	8958.5
656.379	8792.61
656.571	8831.52
656.763	8563.24
656.955	8667.69
657.148	8761.89
657.34	8622.63
657.532	8583.72
657.724	8591.91
657.916	8530.47
658.108	8553
658.3	8274.48
658.492	8393.26
658.684	8299.05
658.876	8335.92
659.068	8223.28
659.26	8243.76
659.452	8186.41
659.644	8213.04
659.836	7922.23
660.028	8030.77
660.22	7842.35
660.412	7828.02
660.604	7832.12
660.796	7885.36
660.988	7815.73
661.18	7828.02
661.372	7920.18
661.563	7774.77
661.755	7633.46
661.947	7828.02
662.139	7610.93
662.331	7488.06
662.522	7639.61
662.714	7627.32
662.906	7490.1
663.097	7582.26
663.289	7584.31
663.481	7287.36
663.673	7371.32
663.864	7389.75
664.056	7406.14
664.247	7131.71
664.439	7225.92
664.631	7158.33
664.822	7004.74
665.014	7144
665.205	6844.99
665.397	6842.95
665.588	7025.22
665.78	6969.92
665.971	6795.84
666.163	7070.27
666.354	6957.63
666.546	6707.78
666.737	6730.31
666.929	6869.57
667.12	6896.19
667.311	6662.72
667.503	6681.16
667.694	6619.72
667.885	6568.52
668.077	6529.61
668.268	6484.55
668.459	6488.65
668.651	6533.7
668.842	6515.27
669.033	6552.13
669.224	6441.54
669.416	6568.52
669.607	6470.22
669.798	6431.3
669.989	6234.7
670.18	6365.77
670.371	6330.95
670.563	6195.79
670.754	6380.11
670.945	6171.21
671.136	6103.63
671.327	6085.2
671.518	6099.53
671.709	6072.91
671.9	6128.21
672.091	6093.39
672.282	6163.02
672.473	5980.75
672.664	6003.28
672.855	5892.69
673.046	6132.3
673.237	6150.73
673.428	5911.12
673.619	6171.21
673.809	6040.14
674	6179.4
674.191	5902.93
674.382	5849.68
674.573	5763.67
674.764	5890.64
674.954	5827.15
675.145	5847.63
675.336	5904.98
675.527	5751.38
675.717	5864.02
675.908	5833.3
676.099	5814.87
676.289	5691.99
676.48	5526.1
676.671	5728.85
676.861	5544.53
677.052	5554.77
677.243	5517.91
677.433	5618.26
677.624	5507.67
677.814	5659.22
678.005	5558.87
678.195	5468.76
678.386	5483.09
678.576	5483.09
678.767	5519.96
678.957	5546.58
679.148	5640.79
679.338	5517.91
679.529	5487.19
679.719	5556.82
679.909	5435.99
680.1	5497.43
680.29	5409.37
680.481	5556.82
680.671	5419.61
680.861	5399.13
681.052	5544.53
681.242	5403.22
681.432	5452.38
681.622	5395.03
681.813	5282.39
682.003	5458.52
682.193	5349.98
682.383	5255.77
682.573	5286.49
682.764	5190.24
682.954	5345.88
683.144	5298.78
683.334	5212.76
683.524	5225.05
683.714	5343.83
683.904	5196.38
684.094	5288.54
684.284	5046.88
684.474	5257.82
684.664	5343.83
684.854	5116.51
685.044	5253.72
685.234	5128.8
685.424	5204.57
685.614	5257.82
685.804	5093.98
685.994	5087.84
686.184	5270.11
686.374	5061.21
686.564	4989.53
686.753	4954.72
686.943	5022.3
687.133	5053.02
687.323	4893.28
687.513	5048.93
687.702	4948.58
687.892	4858.46
688.082	4868.7
688.272	4946.53
688.461	4932.19
688.651	4971.1
688.841	4764.26
689.03	4842.08
689.22	4807.27
689.41	4733.54
689.599	4813.41
689.789	4690.53
689.979	4655.72
690.168	4565.6
690.358	4676.2
690.547	4680.29
690.737	4782.69
690.926	4553.32
691.116	4516.45
691.305	4668
691.495	4694.63
691.684	4528.74
691.874	4602.47
692.063	4545.13
692.252	4379.24
692.442	4481.64
692.631	4399.72
692.82	4475.49
693.01	4414.06
693.199	4323.94
693.388	4479.59
693.578	4323.94
693.767	4463.21
693.956	4373.1
694.146	4311.66
694.335	4305.51
694.524	4352.62
694.713	4321.9
694.902	4205.16
695.092	4305.51
695.281	4299.37
695.47	4266.6
695.659	4061.8
695.848	4278.89
696.037	4354.66
696.226	4242.03
696.415	4156.01
696.604	4145.77
696.793	4174.44
696.982	4129.39
697.171	4276.84
697.36	4203.11
697.549	4072.04
697.738	4123.24
697.927	4084.33
698.116	4102.76
698.305	4145.77
698.494	4143.72
698.683	3988.08
698.872	4102.76
699.061	4125.29
699.25	4078.19
699.438	4127.34
699.627	3996.27
699.816	4067.95
700.005	4051.56
700.193	3936.88
700.382	4012.65
700.571	4000.37
700.76	4014.7
700.948	4006.51
701.137	4086.38
701.326	4016.75
701.514	4160.11
701.703	4006.51
701.892	3963.5
702.08	3967.6
702.269	4018.8
702.457	4024.94
702.646	4002.41
702.834	3875.44
703.023	3930.73
703.212	4035.18
703.4	4092.52
703.589	3850.86
703.777	4014.7
703.965	4102.76
704.154	4026.99
704.342	4026.99
704.531	3967.6
704.719	3781.23
704.907	4102.76
705.096	3975.79
705.284	4053.61
705.472	4035.18
705.661	4035.18
705.849	3963.5
706.037	4024.94
706.226	4067.95
706.414	4119.15
706.602	4059.76
706.79	3926.64
706.979	3988.08
707.167	4041.32
707.355	3828.34
707.543	3975.79
707.731	4000.37
707.919	3953.26
708.107	4082.28
708.296	3906.16
708.484	3830.38
708.672	4037.23
708.86	3840.62
709.048	4008.56
709.236	4008.56
709.424	4016.75
709.612	4026.99
709.8	3951.21
709.988	3969.65
710.176	3975.79
710.364	3891.82
710.551	3914.35
710.739	3762.8
710.927	3912.3
711.115	3889.78
711.303	3893.87
711.491	3961.45
711.679	3930.73
711.866	4092.52
712.054	4201.07
712.242	3990.13
712.43	3979.89
712.617	3916.4
712.805	3951.21
712.993	3795.57
713.181	3850.86
713.368	4057.71
713.556	4088.43
713.744	3879.54
713.931	4082.28
714.119	3955.31
714.306	3975.79
714.494	3981.93
714.682	3955.31
714.869	3893.87
715.057	4000.37
715.244	3990.13
715.432	3920.49
715.619	3891.82
715.807	3875.44
715.994	4016.75
716.182	3973.74
716.369	3967.6
716.556	4033.13
716.744	3943.02
716.931	3848.82
717.119	4160.11
717.306	3945.07
717.493	3977.84
717.681	4125.29
717.868	3928.69
718.055	3996.27
718.242	3889.78
718.43	3918.45
718.617	3893.87
718.804	4063.85
718.991	4014.7
719.179	3996.27
719.366	3928.69
719.553	4076.14
719.74	3949.17
719.927	3959.41
720.114	3902.06
720.301	4055.66
720.488	3922.54
720.676	3996.27
720.863	3914.35
721.05	3951.21
721.237	3988.08
721.424	4008.56
721.611	3863.15
721.798	3961.45
721.985	3938.93
722.172	3930.73
722.358	4004.46
722.545	4008.56
722.732	3867.25
722.919	3910.25
723.106	3922.54
723.293	3930.73
723.48	3994.22
723.667	3945.07
723.853	3793.52
724.04	3943.02
724.227	3895.92
724.414	3904.11
724.6	3922.54
724.787	3887.73
724.974	3975.79
725.161	3922.54
725.347	3824.24
725.534	3920.49
725.72	3924.59
725.907	3920.49
726.094	3867.25
726.28	3861.1
726.467	3914.35
726.653	3711.6
726.84	3883.63
727.027	3854.96
727.213	3893.87
727.4	3924.59
727.586	3787.38
727.773	3801.71
727.959	3867.25
728.145	3953.26
728.332	3908.21
728.518	3803.76
728.705	3926.64
728.891	3861.1
729.077	3979.89
729.264	3945.07
729.45	3850.86
729.636	3861.1
729.823	3695.22
730.009	3865.2
730.195	3883.63
730.382	3842.67
730.568	3818.1
730.754	3887.73
730.94	3762.8
731.126	3906.16
731.313	3830.38
731.499	3848.82
731.685	3754.61
731.871	3693.17
732.057	3775.09
732.243	3816.05
732.429	3746.42
732.615	3783.28
732.801	3787.38
732.987	3613.3
733.173	3758.71
733.359	3682.93
733.545	3783.28
733.731	3705.46
733.917	3752.56
734.103	3775.09
734.289	3783.28
734.475	3639.92
734.661	3811.95
734.847	3627.64
735.033	3768.95
735.219	3625.59
735.404	3732.08
735.59	3756.66
735.776	3607.16
735.962	3648.11
736.148	3601.01
736.333	3701.36
736.519	3650.16
736.705	3492.47
736.89	3521.14
737.076	3578.48
737.262	3703.41
737.447	3471.99
737.633	3703.41
737.819	3705.46
738.004	3586.68
738.19	3586.68
738.375	3558
738.561	3564.15
738.747	3474.04
738.932	3465.85
739.118	3560.05
739.303	3365.5
739.489	3654.26
739.674	3512.95
739.859	3426.93
740.045	3541.62
740.23	3406.45
740.416	3420.79
740.601	3381.88
740.786	3461.75
740.972	3459.7
741.157	3304.06
741.342	3381.88
741.528	3469.94
741.713	3318.39
741.898	3353.21
742.084	3433.08
742.269	3392.12
742.454	3238.52
742.639	3361.4
742.824	3230.33
743.01	3234.43
743.195	3377.78
743.38	3168.89
743.565	3152.51
743.75	3209.85
743.935	3175.03
744.12	3312.25
744.305	3140.22
744.49	3072.64
744.675	3074.68
744.86	3117.69
745.045	3129.98
745.23	3125.88
745.415	3103.36
745.6	3213.95
745.785	3134.07
745.97	2986.62
746.155	2914.94
746.34	3189.37
746.525	3086.97
746.71	2939.52
746.895	2990.72
747.079	3086.97
747.264	2955.9
747.449	3013.24
747.634	2892.41
747.819	2824.83
748.003	2804.35
748.188	2775.68
748.373	2896.51
748.557	2960
748.742	2761.34
748.927	2615.94
749.111	2648.71
749.296	2640.51
749.481	2660.99
749.665	2695.81
749.85	2660.99
750.034	2667.14
750.219	2632.32
750.404	2724.48
750.588	2620.03
750.773	2552.45
750.957	2587.27
751.141	2470.53
751.326	2525.83
751.51	2568.84
751.695	2429.57
751.879	2495.11
752.064	2499.2
752.248	2439.81
752.432	2427.53
752.617	2327.18
752.801	2353.8
752.985	2337.41
753.17	2335.37
753.354	2378.37
753.538	2353.8
753.722	2282.12
753.907	2267.78
754.091	2175.63
754.275	2273.93
754.459	2110.09
754.643	2202.25
754.828	2189.96
755.012	2187.91
755.196	2183.82
755.38	2128.52
755.564	2183.82
755.748	2056.84
755.932	2130.57
756.116	2044.56
756.3	2120.33
756.484	2067.08
756.668	2009.74
756.852	1938.06
757.036	1931.92
757.22	1944.2
757.404	1968.78
757.588	1931.92
757.772	2036.36
757.956	1976.97
758.14	2011.79
758.323	1880.72
758.507	1886.86
758.691	1870.48
758.875	1843.85
759.059	1868.43
759.242	1866.38
759.426	1880.72
759.61	1825.42
759.794	1739.41
759.977	1772.18
760.161	1768.08
760.345	1729.17
760.528	1768.08
760.712	1716.88
760.895	1741.46
761.079	1723.02
761.263	1729.17
761.446	1798.8
761.63	1702.54
761.813	1741.46
761.997	1530.52
762.18	1686.16
762.364	1682.06
762.547	1690.26
762.731	1606.29
762.914	1555.09
763.098	1581.71
763.281	1716.88
763.464	1686.16
763.648	1538.71
763.831	1579.67
764.015	1618.58
764.198	1604.24
764.381	1530.52
764.564	1598.1
764.748	1606.29
764.931	1591.95
765.114	1579.67
765.297	1565.33
765.481	1450.64
765.664	1452.69
765.847	1522.32
766.03	1442.45
766.213	1415.83
766.397	1497.75
766.58	1419.92
766.763	1485.46
766.946	1469.08
767.129	1530.52
767.312	1464.98
767.495	1497.75
767.678	1516.18
767.861	1446.55
768.044	1407.64
768.227	1432.21
768.41	1434.26
768.593	1444.5
768.776	1415.83
768.959	1389.21
769.142	1467.03
769.324	1315.48
769.507	1407.64
769.69	1280.66
769.873	1325.72
770.056	1395.35
770.239	1401.49
770.421	1350.29
770.604	1223.32
770.787	1258.14
770.97	1292.95
771.152	1272.47
771.335	1264.28
771.518	1292.95
771.7	1354.39
771.883	1311.38
772.066	1235.61
772.248	1321.62
772.431	1260.18
772.613	1219.22
772.796	1225.37
772.978	1108.63
773.161	1182.36
773.343	1206.94
773.526	1082.01
773.708	1116.83
773.891	1077.91
774.073	1163.93
774.256	1149.59
774.438	1137.31
774.621	1137.31
774.803	1079.96
774.985	1057.43
775.168	1143.45
775.35	1067.67
775.532	1172.12
775.715	1008.28
775.897	1120.92
776.079	1153.69
776.261	1034.91
776.444	1022.62
776.626	1063.58
776.808	1036.95
776.99	971.42
777.173	1016.48
777.355	1088.15
777.537	987.8
777.719	1075.87
777.901	977.56
778.083	981.66
778.265	879.26
778.447	1024.67
778.629	909.98
778.811	957.08
778.993	957.08
779.175	1034.91
779.357	856.73
779.539	834.21
779.721	909.98
779.903	899.74
780.085	858.78
780.267	899.74
780.449	754.34
780.631	907.93
780.812	838.3
780.994	809.63
781.176	897.69
781.358	866.97
781.54	858.78
781.721	860.83
781.903	914.08
782.085	830.11
782.267	766.62
782.448	778.91
782.63	785.05
782.812	780.96
782.993	733.86
783.175	785.05
783.357	742.05
783.538	752.29
783.72	787.1
783.901	703.14
784.083	729.76
784.264	776.86
784.446	598.69
784.627	754.34
784.809	731.81
784.99	672.42
785.172	627.36
785.353	709.28
785.535	715.42
785.716	662.18
785.897	631.46
786.079	645.79
786.26	643.74
786.441	645.79
786.623	645.79
786.804	590.5
786.985	656.03
787.167	641.7
787.348	643.74
787.529	602.79
787.71	664.22
787.891	588.45
788.073	610.98
788.254	561.83
788.435	635.55
788.616	592.55
788.797	535.2
788.978	572.07
789.159	619.17
789.34	516.77
789.522	547.49
789.703	529.06
789.884	551.59
790.065	522.91
790.246	637.6
790.427	518.82
790.607	580.26
790.788	578.21
790.969	477.86
791.15	547.49
791.331	516.77
791.512	449.19
791.693	539.3
791.874	527.01
792.054	531.11
792.235	580.26
792.416	486.05
792.597	522.91
792.778	498.34
792.958	473.76
793.139	572.07
793.32	490.15
793.5	383.65
793.681	510.63
793.862	441
794.042	455.33
794.223	481.96
794.404	371.36
794.584	547.49
794.765	326.31
794.945	553.63
795.126	422.56
795.306	475.81
795.487	330.41
795.667	449.19
795.848	463.52
796.028	363.17
796.209	441
796.389	486.05
796.57	457.38
796.75	389.8
796.93	410.28
797.111	430.76
797.291	461.48
797.471	408.23
797.652	451.24
797.832	441
798.012	424.61
798.192	404.13
798.373	338.6
798.553	377.51
798.733	367.27
798.913	334.5
799.093	391.84
799.274	311.97
799.454	385.7
799.634	438.95
799.814	363.17
799.994	314.02
800.174	354.98
800.354	336.55
800.534	375.46
800.714	424.61
800.894	342.69
801.074	377.51
801.254	328.36
801.434	426.66
801.614	363.17
801.794	348.84
801.974	799.39
802.154	326.31
802.334	342.69
802.514	328.36
802.693	340.65
802.873	324.26
803.053	367.27
803.233	316.07
803.413	232.1
803.592	352.93
803.772	332.45
803.952	357.03
804.131	285.35
804.311	324.26
804.491	340.65
804.67	359.08
804.85	299.69
805.03	293.54
805.209	281.25
805.389	367.27
805.568	377.51
805.748	342.69
805.928	283.3
806.107	248.49
806.287	307.88
806.466	373.41
806.646	344.74
806.825	307.88
807.004	273.06
807.184	309.93
807.363	301.73
807.543	254.63
807.722	283.3
807.901	207.53
808.081	334.5
808.26	287.4
808.439	232.1
808.619	314.02
808.798	332.45
808.977	223.91
809.156	322.21
809.336	262.82
809.515	273.06
809.694	160.42
809.873	289.45
810.052	289.45
810.231	291.49
810.411	201.38
810.59	273.06
810.769	238.25
810.948	301.73
811.127	252.58
811.306	271.01
811.485	193.19
811.664	268.97
811.843	230.06
812.022	309.93
812.201	141.99
812.38	260.77
812.559	213.67
812.737	180.9
812.916	266.92
813.095	174.76
813.274	291.49
813.453	240.29
813.632	297.64
813.811	223.91
813.989	252.58
814.168	205.48
814.347	279.21
814.526	189.1
814.704	338.6
814.883	277.16
815.062	174.76
815.24	219.82
815.419	203.43
815.598	197.29
815.776	166.57
815.955	303.78
816.133	160.42
816.312	211.62
816.49	199.34
816.669	217.77
816.847	219.82
817.026	254.63
817.204	217.77
817.383	189.1
817.561	119.46
817.74	205.48
817.918	211.62
818.097	152.23
818.275	146.09
818.453	139.94
818.632	225.96
818.81	178.86
818.988	187.05
819.167	205.48
819.345	260.77
819.523	150.18
819.701	182.95
819.879	203.43
820.058	203.43
820.236	115.37
820.414	133.8
820.592	199.34
820.77	193.19
820.948	170.66
821.127	137.9
821.305	137.9
821.483	98.99
821.661	178.86
821.839	127.66
822.017	129.7
822.195	154.28
822.373	191.14
822.551	182.95
822.729	191.14
822.907	113.32
823.085	213.67
823.262	152.23
823.44	215.72
823.618	129.7
823.796	23.21
823.974	86.7
824.152	133.8
824.329	146.09
824.507	129.7
824.685	133.8
824.863	92.84
825.04	123.56
825.218	215.72
825.396	129.7
825.574	219.82
825.751	156.33
825.929	141.99
826.107	92.84
826.284	121.51
826.462	178.86
826.639	94.89
826.817	82.6
826.994	98.99
827.172	111.27
827.349	129.7
827.527	170.66
827.704	146.09
827.882	98.99
828.059	170.66
828.237	150.18
828.414	144.04
828.591	72.36
828.769	174.76
828.946	135.85
829.124	193.19
829.301	127.66
829.478	158.38
829.655	185
829.833	70.31
830.01	29.35
830.187	137.9
830.364	170.66
830.542	146.09
830.719	131.75
830.896	113.32
831.073	68.27
831.25	109.22
831.427	76.46
831.604	105.13
831.782	60.07
831.959	103.08
832.136	193.19
832.313	107.18
832.49	47.79
832.667	248.49
832.844	68.27
833.021	66.22
833.198	111.27
833.374	60.07
833.551	70.31
833.728	144.04
833.905	182.95
834.082	144.04
834.259	123.56
834.436	123.56
834.612	82.6
834.789	133.8
834.966	187.05
835.143	90.79
835.319	111.27
835.496	37.55
835.673	160.42
835.85	84.65
836.026	111.27
836.203	68.27
836.38	148.14
836.556	29.35
836.733	101.03
836.909	193.19
837.086	105.13
837.262	84.65
837.439	66.22
837.616	129.7
837.792	-1.37
837.968	90.79
838.145	127.66
838.321	139.94
838.498	96.94
838.674	123.56
838.851	131.75
839.027	121.51
839.203	98.99
839.38	80.55
839.556	96.94
839.732	64.17
839.909	-5.46
840.085	160.42
840.261	2.73
840.437	47.79
840.614	86.7
840.79	146.09
840.966	45.74
841.142	84.65
841.318	86.7
841.494	103.08
841.671	129.7
841.847	82.6
842.023	125.61
842.199	41.64
842.375	103.08
842.551	117.42
842.727	55.98
842.903	101.03
843.079	-3.41
843.255	166.57
843.431	37.55
843.607	76.46
843.783	6.83
843.959	49.83
844.134	-17.75
844.31	133.8
844.486	-3.41
844.662	62.12
844.838	72.36
845.013	123.56
845.189	109.22
845.365	80.55
845.541	-17.75
845.716	68.27
845.892	31.4
846.068	29.35
846.244	58.03
846.419	115.37
846.595	55.98
846.77	92.84
846.946	80.55
847.122	29.35
847.297	47.79
847.473	72.36
847.648	10.92
847.824	123.56
847.999	94.89
848.175	55.98
848.35	78.51
848.526	119.46
848.701	84.65
848.876	94.89
849.052	84.65
849.227	23.21
849.403	-3.41
849.578	29.35
849.753	19.11
849.929	119.46
850.104	6.83
850.279	-19.8
850.454	43.69
850.63	121.51
850.805	103.08
850.98	58.03
851.155	80.55
851.33	47.79
851.505	45.74
851.681	76.46
851.856	-15.7
852.031	94.89
852.206	39.59
852.381	35.5
852.556	35.5
852.731	60.07
852.906	107.18
853.081	133.8
853.256	55.98
853.431	64.17
853.606	12.97
853.781	6.83
853.956	-1.37
854.131	66.22
854.305	39.59
854.48	8.87
854.655	76.46
854.83	72.36
855.005	23.21
855.18	19.11
855.354	60.07
855.529	68.27
855.704	41.64
855.879	4.78
856.053	58.03
856.228	74.41
856.403	-27.99
856.577	60.07
856.752	-1.37
856.926	55.98
857.101	55.98
857.276	47.79
857.45	64.17
857.625	47.79
857.799	68.27
857.974	-27.99
858.148	-54.61
858.323	51.88
858.497	45.74
858.672	33.45
858.846	66.22
859.02	55.98
859.195	60.07
859.369	45.74
859.543	94.89
859.718	62.12
859.892	70.31
860.066	115.37
860.241	10.92
860.415	21.16
860.589	-21.85
860.763	-13.65
860.938	25.26
861.112	74.41
861.286	80.55
861.46	25.26
861.634	8.87
861.808	53.93
861.982	-62.8
862.157	21.16
862.331	17.07
862.505	-97.62
862.679	-32.08
862.853	2.73
863.027	21.16
863.201	80.55
863.375	-25.94
863.549	37.55
863.722	-19.8
863.896	129.7
864.07	-30.04
864.244	12.97
864.418	78.51
864.592	12.97
864.766	10.92
864.939	76.46
865.113	8.87
865.287	41.64
865.461	0.68
865.634	60.07
865.808	53.93
865.982	-17.75
866.156	-32.08
866.329	17.07
866.503	-3.41
866.676	23.21
866.85	-5.46
867.024	-25.94
867.197	25.26
867.371	58.03
867.544	-3.41
867.718	8.87
867.891	90.79
868.065	37.55
868.238	-25.94
868.412	31.4
868.585	8.87
868.759	-38.23
868.932	-9.56
869.105	10.92
869.279	4.78
869.452	17.07
869.625	17.07
869.799	74.41
869.972	41.64
870.145	27.31
870.319	10.92
870.492	21.16
870.665	-60.76
870.838	4.78
871.011	-95.57
871.185	-42.32
871.358	31.4
871.531	19.11
871.704	4.78
871.877	-15.7
872.05	-25.94
872.223	-27.99
872.396	4.78
872.569	6.83
872.742	17.07
872.915	123.56
873.088	10.92
873.261	49.83
873.434	29.35
873.607	-23.89
873.78	62.12
873.953	10.92
874.126	-38.23
874.299	62.12
874.471	27.31
874.644	41.64
874.817	39.59
874.99	123.56
875.163	-54.61
875.335	2.73
875.508	25.26
875.681	8.87
875.853	0.68
876.026	45.74
876.199	41.64
876.371	23.21
876.544	6.83
876.717	37.55
876.889	-11.61
877.062	27.31
877.234	-23.89
877.407	47.79
877.579	8.87
877.752	-5.46
877.924	55.98
878.097	-21.85
878.269	2.73
878.442	43.69
878.614	70.31
878.786	-38.23
878.959	-3.41
879.131	-11.61
879.303	-25.94
879.476	21.16
879.648	43.69
879.82	17.07
879.993	-9.56
880.165	-34.13
880.337	-19.8
880.509	37.55
880.681	-27.99
880.854	-9.56
881.026	0.68
881.198	25.26
881.37	68.27
881.542	21.16
881.714	31.4
881.886	12.97
882.058	19.11
882.23	-17.75
882.402	37.55
882.574	72.36
882.746	49.83
882.918	43.69
883.09	-17.75
883.262	4.78
883.434	33.45
883.606	64.17
883.778	-1.37
883.95	15.02
884.122	19.11
884.293	23.21
884.465	-21.85
884.637	78.51
884.809	-68.95
884.98	-9.56
885.152	-30.04
885.324	51.88
885.496	-56.66
885.667	6.83
885.839	-3.41
886.011	2.73
886.182	101.03
886.354	55.98
886.525	31.4
886.697	2.73
886.869	-66.9
887.04	70.31
887.212	-9.56
887.383	53.93
887.555	49.83
887.726	43.69
887.897	-9.56
888.069	-60.76
888.24	17.07
888.412	12.97
888.583	-21.85
888.754	-13.65
888.926	-1.37
889.097	-23.89
889.268	-27.99
889.44	29.35
889.611	-21.85
889.782	-1.37
889.953	-7.51
890.125	84.65
890.296	31.4
890.467	23.21
890.638	31.4
890.809	-3.41
890.98	-17.75
891.151	78.51
891.323	-11.61
891.494	-19.8
891.665	21.16
891.836	2.73
892.007	-19.8
892.178	39.59
892.349	27.31
892.52	-50.52
892.691	47.79
892.862	35.5
893.032	23.21
893.203	19.11
893.374	17.07
893.545	4.78
893.716	-27.99
893.887	-21.85
894.057	-42.32
894.228	-5.46
894.399	-68.95
894.57	6.83
894.74	-36.18
894.911	27.31
895.082	-36.18
895.253	-25.94
895.423	31.4
895.594	15.02
895.764	41.64
895.935	-38.23
896.106	-13.65
896.276	-38.23
896.447	-11.61
896.617	-34.13
896.788	-40.28
896.958	-32.08
897.129	45.74
897.299	-62.8
897.47	45.74
897.64	39.59
897.81	43.69
897.981	17.07
898.151	-9.56
898.322	29.35
898.492	0.68
898.662	-11.61
898.832	-7.51
899.003	23.21
899.173	47.79
899.343	-23.89
899.513	25.26
