Data from USB4F104151__1__10-19-48-130.txt Node

Date: Wed Mar 12 10:19:48 EDT 2025
User: louis
Spectrometer: USB4F10415
Trigger mode: 4
Integration Time (sec): 3.000000E-2
Scans to average: 1
Electric dark correction enabled: true
Nonlinearity correction enabled: false
Boxcar width: 0
XAxis mode: Wavelengths
Number of Pixels in Spectrum: 3648
>>>>>Begin Spectral Data<<<<<
178.204	-62.46
178.424	-62.46
178.644	-62.46
178.864	-89.09
179.084	-78.85
179.304	-1.02
179.524	31.74
179.744	17.41
179.964	-7.17
180.184	-1.02
180.404	-11.26
180.624	-11.26
180.844	-21.5
181.064	-35.84
181.283	33.79
181.503	-33.79
181.723	39.94
181.943	62.46
182.163	134.14
182.383	-3.07
182.602	52.22
182.822	74.75
183.042	136.19
183.262	80.89
183.482	-7.17
183.701	13.31
183.921	48.13
184.141	11.26
184.361	107.52
184.58	82.94
184.8	15.36
185.02	5.12
185.239	113.66
185.459	103.42
185.679	144.38
185.898	-50.18
186.118	166.91
186.338	-1.02
186.557	62.46
186.777	1.02
186.997	78.85
187.216	-19.46
187.436	80.89
187.655	33.79
187.875	148.48
188.095	39.94
188.314	95.23
188.534	144.38
188.753	17.41
188.973	62.46
189.192	25.6
189.412	80.89
189.631	33.79
189.851	156.67
190.07	91.13
190.29	-31.74
190.509	58.37
190.729	25.6
190.948	93.18
191.168	68.61
191.387	64.51
191.607	44.03
191.826	87.04
192.045	52.22
192.265	66.56
192.484	1.02
192.704	33.79
192.923	7.17
193.142	91.13
193.362	11.26
193.581	107.52
193.8	70.65
194.02	-9.22
194.239	5.12
194.458	41.98
194.678	17.41
194.897	-3.07
195.116	66.56
195.335	44.03
195.555	70.65
195.774	97.28
195.993	84.99
196.212	113.66
196.432	78.85
196.651	91.13
196.87	41.98
197.089	82.94
197.308	13.31
197.528	9.22
197.747	62.46
197.966	156.67
198.185	50.18
198.404	15.36
198.623	119.81
198.842	89.09
199.062	95.23
199.281	41.98
199.5	95.23
199.719	50.18
199.938	17.41
200.157	82.94
200.376	68.61
200.595	95.23
200.814	29.7
201.033	91.13
201.252	13.31
201.471	37.89
201.69	95.23
201.909	37.89
202.128	113.66
202.347	74.75
202.566	1.02
202.785	70.65
203.004	50.18
203.223	105.47
203.442	91.13
203.661	50.18
203.879	23.55
204.098	105.47
204.317	-23.55
204.536	1.02
204.755	117.76
204.974	41.98
205.193	44.03
205.411	21.5
205.63	64.51
205.849	80.89
206.068	84.99
206.287	50.18
206.505	-13.31
206.724	27.65
206.943	-19.46
207.162	35.84
207.381	54.27
207.599	-1.02
207.818	1.02
208.037	17.41
208.255	56.32
208.474	39.94
208.693	23.55
208.911	70.65
209.13	136.19
209.349	21.5
209.567	39.94
209.786	89.09
210.005	-27.65
210.223	62.46
210.442	-7.17
210.661	29.7
210.879	-1.02
211.098	-1.02
211.316	60.42
211.535	74.75
211.753	103.42
211.972	82.94
212.191	33.79
212.409	11.26
212.628	125.95
212.846	25.6
213.065	31.74
213.283	31.74
213.502	33.79
213.72	-33.79
213.938	29.7
214.157	58.37
214.375	66.56
214.594	-17.41
214.812	56.32
215.031	-7.17
215.249	54.27
215.467	27.65
215.686	5.12
215.904	84.99
216.122	72.7
216.341	70.65
216.559	91.13
216.778	31.74
216.996	54.27
217.214	9.22
217.432	-25.6
217.651	19.46
217.869	11.26
218.087	66.56
218.306	56.32
218.524	35.84
218.742	111.61
218.96	46.08
219.179	-19.46
219.397	68.61
219.615	154.62
219.833	140.29
220.051	39.94
220.27	50.18
220.488	74.75
220.706	82.94
220.924	50.18
221.142	72.7
221.36	78.85
221.578	5.12
221.796	89.09
222.015	27.65
222.233	-19.46
222.451	115.71
222.669	21.5
222.887	48.13
223.105	-7.17
223.323	111.61
223.541	-15.36
223.759	70.65
223.977	1.02
224.195	113.66
224.413	50.18
224.631	46.08
224.849	91.13
225.067	41.98
225.285	93.18
225.503	33.79
225.721	-11.26
225.939	46.08
226.157	121.85
226.375	107.52
226.592	-5.12
226.81	72.7
227.028	70.65
227.246	72.7
227.464	80.89
227.682	87.04
227.9	31.74
228.117	80.89
228.335	33.79
228.553	121.85
228.771	15.36
228.989	46.08
229.206	15.36
229.424	21.5
229.642	15.36
229.86	39.94
230.077	74.75
230.295	58.37
230.513	15.36
230.731	54.27
230.948	105.47
231.166	78.85
231.384	33.79
231.601	54.27
231.819	84.99
232.037	62.46
232.254	48.13
232.472	15.36
232.689	82.94
232.907	7.17
233.125	29.7
233.342	91.13
233.56	60.42
233.777	50.18
233.995	87.04
234.213	74.75
234.43	111.61
234.648	48.13
234.865	19.46
235.083	52.22
235.3	62.46
235.518	46.08
235.735	3.07
235.953	39.94
236.17	35.84
236.388	138.24
236.605	33.79
236.822	97.28
237.04	78.85
237.257	-11.26
237.475	27.65
237.692	54.27
237.909	27.65
238.127	-25.6
238.344	82.94
238.562	46.08
238.779	-17.41
238.996	-27.65
239.214	25.6
239.431	152.57
239.648	39.94
239.865	72.7
240.083	74.75
240.3	103.42
240.517	17.41
240.735	93.18
240.952	123.9
241.169	70.65
241.386	130.05
241.603	-5.12
241.821	82.94
242.038	80.89
242.255	97.28
242.472	19.46
242.689	105.47
242.907	74.75
243.124	-7.17
243.341	82.94
243.558	48.13
243.775	-52.22
243.992	-23.55
244.209	72.7
244.426	58.37
244.643	62.46
244.86	54.27
245.078	74.75
245.295	-7.17
245.512	41.98
245.729	58.37
245.946	58.37
246.163	39.94
246.38	105.47
246.597	74.75
246.814	-21.5
247.031	101.37
247.248	103.42
247.464	-7.17
247.681	89.09
247.898	7.17
248.115	74.75
248.332	41.98
248.549	44.03
248.766	99.33
248.983	121.85
249.2	62.46
249.417	46.08
249.633	33.79
249.85	99.33
250.067	41.98
250.284	78.85
250.501	60.42
250.717	9.22
250.934	25.6
251.151	64.51
251.368	87.04
251.585	82.94
251.801	25.6
252.018	101.37
252.235	62.46
252.451	23.55
252.668	-9.22
252.885	125.95
253.102	66.56
253.318	105.47
253.535	11.26
253.752	82.94
253.968	44.03
254.185	35.84
254.401	70.65
254.618	-5.12
254.835	66.56
255.051	103.42
255.268	66.56
255.484	-7.17
255.701	74.75
255.917	107.52
256.134	44.03
256.351	48.13
256.567	66.56
256.784	93.18
257	-25.6
257.217	3.07
257.433	9.22
257.65	46.08
257.866	41.98
258.082	-27.65
258.299	7.17
258.515	64.51
258.732	-5.12
258.948	-54.27
259.165	117.76
259.381	91.13
259.597	48.13
259.814	162.81
260.03	91.13
260.246	41.98
260.463	66.56
260.679	60.42
260.895	39.94
261.112	99.33
261.328	125.95
261.544	48.13
261.761	58.37
261.977	62.46
262.193	82.94
262.409	17.41
262.626	89.09
262.842	64.51
263.058	23.55
263.274	84.99
263.49	54.27
263.707	64.51
263.923	87.04
264.139	5.12
264.355	17.41
264.571	74.75
264.787	-1.02
265.004	13.31
265.22	91.13
265.436	89.09
265.652	-9.22
265.868	50.18
266.084	33.79
266.3	130.05
266.516	78.85
266.732	82.94
266.948	21.5
267.164	95.23
267.38	23.55
267.596	78.85
267.812	29.7
268.028	70.65
268.244	-9.22
268.46	74.75
268.676	80.89
268.892	48.13
269.108	78.85
269.324	66.56
269.54	1.02
269.756	97.28
269.972	66.56
270.188	29.7
270.403	48.13
270.619	82.94
270.835	72.7
271.051	72.7
271.267	46.08
271.483	33.79
271.698	78.85
271.914	95.23
272.13	-9.22
272.346	91.13
272.562	19.46
272.777	95.23
272.993	70.65
273.209	-19.46
273.425	58.37
273.64	70.65
273.856	95.23
274.072	70.65
274.287	37.89
274.503	56.32
274.719	58.37
274.934	99.33
275.15	48.13
275.366	76.8
275.581	37.89
275.797	39.94
276.012	41.98
276.228	-17.41
276.444	56.32
276.659	80.89
276.875	-3.07
277.09	89.09
277.306	37.89
277.521	76.8
277.737	21.5
277.952	54.27
278.168	54.27
278.383	132.09
278.599	9.22
278.814	25.6
279.03	-11.26
279.245	144.38
279.461	62.46
279.676	15.36
279.892	80.89
280.107	54.27
280.322	15.36
280.538	125.95
280.753	11.26
280.969	37.89
281.184	91.13
281.399	70.65
281.615	39.94
281.83	-19.46
282.045	33.79
282.26	60.42
282.476	-39.94
282.691	52.22
282.906	66.56
283.122	144.38
283.337	-17.41
283.552	50.18
283.767	21.5
283.983	29.7
284.198	70.65
284.413	93.18
284.628	33.79
284.843	33.79
285.058	50.18
285.274	11.26
285.489	29.7
285.704	74.75
285.919	31.74
286.134	74.75
286.349	56.32
286.564	103.42
286.779	89.09
286.995	41.98
287.21	39.94
287.425	91.13
287.64	21.5
287.855	58.37
288.07	58.37
288.285	113.66
288.5	41.98
288.715	52.22
288.93	97.28
289.145	9.22
289.36	103.42
289.575	29.7
289.79	5.12
290.004	66.56
290.219	78.85
290.434	95.23
290.649	99.33
290.864	74.75
291.079	35.84
291.294	23.55
291.509	-17.41
291.724	101.37
291.938	19.46
292.153	62.46
292.368	76.8
292.583	-17.41
292.798	15.36
293.012	52.22
293.227	41.98
293.442	41.98
293.657	97.28
293.871	105.47
294.086	82.94
294.301	52.22
294.516	-23.55
294.73	125.95
294.945	35.84
295.16	105.47
295.374	48.13
295.589	37.89
295.804	25.6
296.018	33.79
296.233	87.04
296.447	39.94
296.662	29.7
296.877	97.28
297.091	46.08
297.306	50.18
297.52	25.6
297.735	95.23
297.949	33.79
298.164	54.27
298.378	97.28
298.593	31.74
298.807	140.29
299.022	17.41
299.236	64.51
299.451	82.94
299.665	68.61
299.88	35.84
300.094	89.09
300.309	66.56
300.523	33.79
300.737	62.46
300.952	56.32
301.166	87.04
301.381	70.65
301.595	-23.55
301.809	62.46
302.024	17.41
302.238	-1.02
302.452	17.41
302.667	33.79
302.881	121.85
303.095	111.61
303.309	111.61
303.524	13.31
303.738	95.23
303.952	21.5
304.166	132.09
304.381	27.65
304.595	144.38
304.809	97.28
305.023	29.7
305.237	-1.02
305.452	1.02
305.666	70.65
305.88	82.94
306.094	66.56
306.308	68.61
306.522	84.99
306.736	29.7
306.95	39.94
307.164	130.05
307.379	21.5
307.593	121.85
307.807	128
308.021	54.27
308.235	103.42
308.449	-5.12
308.663	56.32
308.877	78.85
309.091	17.41
309.305	91.13
309.519	58.37
309.733	68.61
309.947	95.23
310.161	17.41
310.374	66.56
310.588	35.84
310.802	80.89
311.016	17.41
311.23	54.27
311.444	23.55
311.658	1.02
311.872	82.94
312.085	56.32
312.299	117.76
312.513	41.98
312.727	74.75
312.941	66.56
313.154	60.42
313.368	58.37
313.582	84.99
313.796	64.51
314.009	74.75
314.223	111.61
314.437	70.65
314.651	158.72
314.864	9.22
315.078	109.57
315.292	-19.46
315.505	52.22
315.719	95.23
315.933	91.13
316.146	13.31
316.36	33.79
316.573	35.84
316.787	132.09
317.001	78.85
317.214	60.42
317.428	29.7
317.641	33.79
317.855	72.7
318.068	78.85
318.282	82.94
318.495	58.37
318.709	56.32
318.922	62.46
319.136	74.75
319.349	76.8
319.563	46.08
319.776	70.65
319.99	13.31
320.203	58.37
320.417	78.85
320.63	13.31
320.843	119.81
321.057	111.61
321.27	25.6
321.483	52.22
321.697	1.02
321.91	-7.17
322.124	56.32
322.337	-7.17
322.55	101.37
322.763	78.85
322.977	48.13
323.19	7.17
323.403	70.65
323.617	37.89
323.83	97.28
324.043	-31.74
324.256	44.03
324.469	31.74
324.683	80.89
324.896	87.04
325.109	64.51
325.322	111.61
325.535	44.03
325.748	80.89
325.962	70.65
326.175	41.98
326.388	46.08
326.601	74.75
326.814	27.65
327.027	89.09
327.24	132.09
327.453	74.75
327.666	115.71
327.879	103.42
328.092	111.61
328.305	62.46
328.518	-7.17
328.731	82.94
328.944	-1.02
329.157	117.76
329.37	130.05
329.583	154.62
329.796	91.13
330.009	-1.02
330.222	113.66
330.435	91.13
330.648	39.94
330.861	74.75
331.073	87.04
331.286	117.76
331.499	25.6
331.712	13.31
331.925	35.84
332.138	-3.07
332.35	50.18
332.563	33.79
332.776	150.53
332.989	80.89
333.202	91.13
333.414	58.37
333.627	95.23
333.84	50.18
334.053	74.75
334.265	54.27
334.478	52.22
334.691	62.46
334.903	54.27
335.116	78.85
335.329	21.5
335.541	23.55
335.754	33.79
335.966	89.09
336.179	74.75
336.392	19.46
336.604	66.56
336.817	99.33
337.029	70.65
337.242	50.18
337.454	68.61
337.667	21.5
337.88	76.8
338.092	23.55
338.305	80.89
338.517	-5.12
338.729	44.03
338.942	70.65
339.154	-1.02
339.367	29.7
339.579	46.08
339.792	56.32
340.004	1.02
340.217	66.56
340.429	37.89
340.641	41.98
340.854	19.46
341.066	70.65
341.278	154.62
341.491	156.67
341.703	70.65
341.915	-15.36
342.128	58.37
342.34	21.5
342.552	74.75
342.764	17.41
342.977	130.05
343.189	52.22
343.401	80.89
343.613	23.55
343.826	48.13
344.038	-15.36
344.25	160.77
344.462	64.51
344.674	87.04
344.886	-48.13
345.099	11.26
345.311	107.52
345.523	181.25
345.735	50.18
345.947	50.18
346.159	37.89
346.371	66.56
346.583	72.7
346.795	78.85
347.007	115.71
347.219	140.29
347.431	52.22
347.643	105.47
347.855	87.04
348.067	78.85
348.279	62.46
348.491	33.79
348.703	56.32
348.915	64.51
349.127	76.8
349.339	58.37
349.551	-1.02
349.763	80.89
349.975	68.61
350.187	64.51
350.399	78.85
350.61	54.27
350.822	82.94
351.034	91.13
351.246	113.66
351.458	103.42
351.669	91.13
351.881	74.75
352.093	54.27
352.305	17.41
352.517	138.24
352.728	109.57
352.94	25.6
353.152	107.52
353.363	31.74
353.575	99.33
353.787	103.42
353.999	105.47
354.21	121.85
354.422	33.79
354.633	9.22
354.845	64.51
355.057	58.37
355.268	41.98
355.48	80.89
355.692	-64.51
355.903	121.85
356.115	7.17
356.326	50.18
356.538	107.52
356.749	74.75
356.961	52.22
357.172	89.09
357.384	23.55
357.595	111.61
357.807	89.09
358.018	101.37
358.23	62.46
358.441	68.61
358.653	48.13
358.864	72.7
359.075	130.05
359.287	58.37
359.498	91.13
359.709	87.04
359.921	89.09
360.132	66.56
360.344	-3.07
360.555	52.22
360.766	152.57
360.977	41.98
361.189	50.18
361.4	11.26
361.611	31.74
361.823	87.04
362.034	58.37
362.245	37.89
362.456	117.76
362.667	121.85
362.879	33.79
363.09	101.37
363.301	29.7
363.512	39.94
363.723	87.04
363.935	113.66
364.146	146.43
364.357	68.61
364.568	105.47
364.779	93.18
364.99	103.42
365.201	29.7
365.412	70.65
365.623	-19.46
365.834	105.47
366.045	37.89
366.256	58.37
366.467	89.09
366.678	33.79
366.889	99.33
367.1	99.33
367.311	33.79
367.522	62.46
367.733	70.65
367.944	-13.31
368.155	95.23
368.366	52.22
368.577	93.18
368.788	87.04
368.999	89.09
369.209	9.22
369.42	136.19
369.631	177.15
369.842	-15.36
370.053	35.84
370.264	70.65
370.474	82.94
370.685	101.37
370.896	41.98
371.107	31.74
371.317	62.46
371.528	64.51
371.739	87.04
371.95	7.17
372.16	48.13
372.371	62.46
372.582	72.7
372.792	121.85
373.003	56.32
373.214	140.29
373.424	5.12
373.635	66.56
373.846	148.48
374.056	-9.22
374.267	50.18
374.477	78.85
374.688	119.81
374.898	-1.02
375.109	50.18
375.319	23.55
375.53	82.94
375.74	17.41
375.951	70.65
376.161	103.42
376.372	113.66
376.582	54.27
376.793	140.29
377.003	21.5
377.214	48.13
377.424	21.5
377.635	58.37
377.845	150.53
378.055	136.19
378.266	76.8
378.476	72.7
378.686	115.71
378.897	107.52
379.107	66.56
379.317	97.28
379.528	13.31
379.738	66.56
379.948	33.79
380.158	76.8
380.369	72.7
380.579	78.85
380.789	74.75
380.999	179.2
381.21	93.18
381.42	103.42
381.63	97.28
381.84	121.85
382.05	80.89
382.261	82.94
382.471	138.24
382.681	39.94
382.891	160.77
383.101	41.98
383.311	103.42
383.521	123.9
383.731	70.65
383.941	107.52
384.151	109.57
384.361	95.23
384.571	130.05
384.781	23.55
384.991	111.61
385.201	152.57
385.411	72.7
385.621	70.65
385.831	107.52
386.041	58.37
386.251	138.24
386.461	150.53
386.671	109.57
386.881	78.85
387.091	33.79
387.301	144.38
387.511	58.37
387.72	103.42
387.93	82.94
388.14	-23.55
388.35	31.74
388.56	113.66
388.769	158.72
388.979	134.14
389.189	91.13
389.399	64.51
389.609	80.89
389.818	113.66
390.028	82.94
390.238	95.23
390.447	44.03
390.657	113.66
390.867	17.41
391.076	84.99
391.286	130.05
391.496	160.77
391.705	134.14
391.915	130.05
392.125	113.66
392.334	91.13
392.544	66.56
392.753	89.09
392.963	84.99
393.172	97.28
393.382	138.24
393.591	146.43
393.801	91.13
394.01	166.91
394.22	23.55
394.429	87.04
394.639	152.57
394.848	164.86
395.058	82.94
395.267	74.75
395.477	171.01
395.686	128
395.895	189.44
396.105	105.47
396.314	123.9
396.524	99.33
396.733	99.33
396.942	152.57
397.152	91.13
397.361	152.57
397.57	91.13
397.78	46.08
397.989	136.19
398.198	171.01
398.407	78.85
398.617	62.46
398.826	91.13
399.035	103.42
399.244	140.29
399.453	179.2
399.663	140.29
399.872	156.67
400.081	99.33
400.29	125.95
400.499	72.7
400.708	125.95
400.917	66.56
401.127	185.34
401.336	113.66
401.545	205.82
401.754	97.28
401.963	74.75
402.172	89.09
402.381	168.96
402.59	171.01
402.799	171.01
403.008	148.48
403.217	218.11
403.426	164.86
403.635	119.81
403.844	56.32
404.053	136.19
404.262	125.95
404.471	144.38
404.68	197.63
404.888	125.95
405.097	164.86
405.306	191.49
405.515	228.35
405.724	175.1
405.933	228.35
406.142	312.32
406.35	257.02
406.559	158.72
406.768	158.72
406.977	193.53
407.185	226.3
407.394	216.06
407.603	197.63
407.812	246.78
408.02	289.79
408.229	304.12
408.438	271.36
408.646	183.29
408.855	302.08
409.064	359.42
409.272	300.03
409.481	367.61
409.69	390.14
409.898	304.12
410.107	304.12
410.315	381.95
410.524	269.31
410.733	363.51
410.941	353.27
411.15	427
411.358	474.1
411.567	394.23
411.775	424.95
411.984	476.15
412.192	545.78
412.401	402.43
412.609	537.59
412.818	539.64
413.026	558.07
413.234	629.75
413.443	564.22
413.651	461.82
413.86	668.66
414.068	590.84
414.276	683
414.485	603.13
414.693	709.62
414.901	777.2
415.11	822.26
415.318	730.1
415.526	750.58
415.734	846.84
415.943	797.68
416.151	949.23
416.359	883.7
416.567	955.38
416.776	1014.77
416.984	992.24
417.192	988.14
417.4	967.67
417.608	1063.92
417.817	1084.4
418.025	1172.46
418.233	1194.99
418.441	1194.99
418.649	1203.18
418.857	1346.54
419.065	1364.97
419.273	1354.73
419.481	1455.08
419.689	1481.71
419.897	1522.66
420.105	1555.43
420.313	1641.45
420.521	1684.45
420.729	1799.14
420.937	1739.75
421.145	1971.17
421.353	1973.22
421.561	2110.43
421.769	2137.06
421.977	2276.32
422.185	2223.07
422.393	2204.64
422.601	2423.77
422.809	2434.01
423.017	2358.24
423.224	2556.89
423.432	2511.83
423.64	2671.58
423.848	2927.57
424.056	2827.22
424.263	3072.98
424.471	3050.45
424.679	3158.99
424.887	3271.63
425.094	3357.64
425.302	3398.6
425.51	3449.8
425.718	3662.79
425.925	3568.59
426.133	3728.33
426.341	4060.1
426.548	4045.76
426.756	4291.52
426.964	4158.4
427.171	4570.04
427.379	4531.13
427.586	4660.15
427.794	4750.26
428.001	5053.36
428.209	5112.75
428.417	5112.75
428.624	5567.4
428.832	5544.88
429.039	5350.32
429.247	5340.08
429.454	5907.37
429.662	6245.28
429.869	5979.04
430.076	6386.59
430.284	6196.13
430.491	6488.99
430.699	6804.38
430.906	6976.41
431.114	6898.58
431.321	7183.25
431.528	7316.37
431.736	7723.91
431.943	8063.88
432.15	7865.22
432.358	8166.28
432.565	8422.27
432.772	8170.37
432.979	8838.01
433.187	9071.48
433.394	8932.22
433.601	9606
433.808	9825.13
434.016	9464.69
434.223	10001.26
434.43	10529.63
434.637	10302.31
434.844	11031.38
435.052	11207.51
435.259	11232.08
435.466	11252.56
435.673	11107.16
435.88	12145.48
436.087	12548.93
436.294	12385.09
436.501	12186.44
436.708	12448.58
436.915	12935.99
437.122	13435.7
437.329	13466.42
437.537	13935.4
437.743	13964.07
437.95	14023.47
438.157	14777.12
438.364	15086.36
438.571	15434.52
438.778	15235.86
438.985	16603.91
439.192	15940.36
439.399	16716.54
439.606	16022.28
439.813	17136.38
440.02	17902.32
440.227	17697.52
440.433	17773.3
440.64	18475.75
440.847	17941.23
441.054	18514.66
441.261	19747.54
441.467	19778.26
441.674	19870.42
441.881	20490.95
442.088	20579.01
442.294	20671.17
442.501	20624.07
442.708	21420.73
442.914	22041.26
443.121	23216.8
443.328	22577.83
443.534	24339.08
443.741	23212.7
443.948	23216.8
444.154	24611.46
444.361	24406.67
444.568	24857.22
444.774	24863.36
444.981	24855.17
445.187	25848.44
445.394	26749.54
445.6	26530.41
445.807	28856.9
446.013	27734.62
446.22	28342.86
446.426	29471.29
446.633	29686.33
446.839	30485.04
447.046	29094.47
447.252	30884.39
447.459	30751.27
447.665	30665.26
447.871	32436.75
448.078	33511.94
448.284	31506.98
448.491	32717.32
448.697	33944.06
448.903	34343.41
449.11	34302.45
449.316	33942.01
449.522	34548.21
449.728	35394.02
449.935	35793.37
450.141	35424.74
450.347	36434.39
450.553	35389.92
450.76	35527.14
450.966	36829.65
451.172	36518.35
451.378	37018.06
451.584	36690.38
451.791	36925.9
451.997	37231.05
452.203	37673.41
452.409	37566.91
452.615	37308.87
452.821	35877.34
453.027	35719.65
453.233	37546.44
453.44	35998.17
453.646	36475.35
453.852	36395.48
454.058	36858.32
454.264	35584.48
454.47	36495.83
454.676	35250.66
454.882	36995.53
455.088	33905.15
455.294	34103.8
455.5	34288.12
455.705	34886.12
455.911	33497.6
456.117	32678.41
456.323	32086.55
456.529	30503.47
456.735	31728.16
456.941	31181.35
457.147	30306.87
457.352	29561.4
457.558	29176.39
457.764	29053.51
457.97	28908.1
458.176	28279.38
458.381	28181.07
458.587	26757.74
458.793	26595.95
458.999	25434.75
459.204	27277.92
459.41	26364.53
459.616	24711.81
459.821	24820.36
460.027	24261.26
460.233	24167.06
460.438	22846.12
460.644	22772.39
460.85	22031.02
461.055	21783.22
461.261	21473.98
461.466	20202.19
461.672	19593.94
461.878	20906.69
462.083	19411.67
462.289	18948.83
462.494	19004.13
462.7	18174.7
462.905	17795.82
463.111	18301.67
463.316	18291.43
463.522	18062.06
463.727	17994.48
463.932	17840.88
464.138	17707.76
464.343	17730.29
464.549	17314.55
464.754	17894.13
464.959	17986.29
465.165	17695.47
465.37	16972.54
465.575	16444.17
465.781	16986.88
465.986	17056.51
466.191	16560.9
466.397	16231.18
466.602	15694.61
466.807	15903.5
467.012	16194.31
467.218	15815.44
467.423	15848.21
467.628	15919.89
467.833	16605.95
468.038	15926.03
468.244	15516.44
468.449	16024.33
468.654	15358.74
468.859	15688.46
469.064	15373.08
469.269	14668.58
469.474	14832.41
469.679	15188.76
469.885	14580.51
470.09	14838.56
470.295	14715.68
470.5	14310.18
470.705	14527.27
470.91	14234.41
471.115	13773.61
471.32	14252.84
471.525	14306.09
471.73	13988.65
471.935	13802.29
472.139	13235
472.344	13247.29
472.549	13450.03
472.754	13140.79
472.959	12993.34
473.164	12671.81
473.369	12569.41
473.574	12815.16
473.778	12743.49
473.983	12708.67
474.188	12550.98
474.393	12098.38
474.598	12198.73
474.802	11987.79
475.007	12125
475.212	12147.53
475.417	11531.09
475.621	11524.94
475.826	11590.48
476.031	11299.67
476.235	10920.79
476.44	11463.51
476.645	11055.96
476.849	10998.62
477.054	11035.48
477.259	10851.16
477.463	10761.05
477.668	10472.29
477.872	10535.78
478.077	10455.9
478.282	10189.67
478.486	10109.8
478.691	10064.74
478.895	10148.71
479.1	10042.21
479.304	9988.97
479.509	9714.54
479.713	9997.16
479.918	9667.44
480.122	9669.48
480.326	9675.63
480.531	9624.43
480.735	9388.91
480.94	9343.86
481.144	9653.1
481.348	9384.82
481.553	9419.63
481.757	9364.34
481.961	9401.2
482.166	9499.5
482.37	9339.76
482.574	9378.67
482.778	9208.69
482.983	9448.3
483.187	9524.08
483.391	9350
483.595	9284.47
483.8	9368.43
484.004	9282.42
484.208	9589.61
484.412	9347.95
484.616	9237.36
484.821	9415.54
485.025	9098.1
485.229	9319.28
485.433	9304.95
485.637	9288.56
485.841	9177.97
486.045	9247.6
486.249	9212.79
486.453	9241.46
486.657	9315.19
486.861	9431.92
487.065	9083.77
487.269	9257.84
487.473	9161.59
487.677	9141.11
487.881	9151.35
488.085	9266.03
488.289	9503.6
488.493	9169.78
488.697	9372.53
488.901	9296.75
489.105	9419.63
489.309	9440.11
489.512	9397.1
489.716	9376.62
489.92	9255.79
490.124	9456.5
490.328	9530.22
490.531	9407.34
490.735	9503.6
490.939	9544.56
491.143	9491.31
491.346	9487.22
491.55	9960.3
491.754	9773.93
491.958	9751.4
492.161	9640.81
492.365	9634.67
492.569	9792.36
492.772	9687.92
492.976	9943.91
493.18	9980.78
493.383	10052.45
493.587	10177.38
493.79	10134.37
493.994	10201.96
494.197	10220.39
494.401	10081.13
494.605	10486.62
494.808	10517.34
495.012	10537.82
495.215	10525.54
495.419	11043.67
495.622	10742.62
495.825	10775.39
496.029	10842.97
496.232	11074.39
496.436	10984.28
496.639	11363.15
496.843	11414.35
497.046	11570
497.249	11625.29
497.453	11600.72
497.656	11748.17
497.859	11828.04
498.063	12071.75
498.266	12088.14
498.469	12114.76
498.673	12172.1
498.876	12436.29
499.079	12667.71
499.282	12708.67
499.485	13077.3
499.689	13097.78
499.892	13278.01
500.095	13292.34
500.298	13450.03
500.501	13327.16
500.705	13681.46
500.908	13941.55
501.111	14023.47
501.314	14179.11
501.517	14125.86
501.72	14486.31
501.923	14469.92
502.126	14846.75
502.329	14996.25
502.532	14963.48
502.735	14832.41
502.938	15319.83
503.141	15498
503.344	15862.54
503.547	15618.83
503.75	16177.93
503.953	16368.39
504.156	16585.47
504.359	16732.93
504.562	16661.25
504.765	17253.11
504.968	17228.54
505.17	17394.42
505.373	17298.17
505.576	17857.26
505.779	17965.81
505.982	18076.4
506.185	18420.45
506.387	18291.43
506.59	18840.29
506.793	19032.8
506.996	18744.03
507.198	19362.52
507.401	19301.08
507.604	19540.69
507.807	20026.06
508.009	20128.46
508.212	20263.63
508.415	20574.92
508.617	20937.41
508.82	20839.11
509.022	20900.55
509.225	21312.19
509.428	21699.25
509.63	22057.65
509.833	21871.28
510.035	22401.71
510.238	22145.71
510.44	22553.26
510.643	23034.53
510.845	22880.93
511.048	23188.13
511.25	23327.39
511.453	23702.17
511.655	24232.59
511.858	24083.09
512.06	24500.87
512.262	24660.62
512.465	25039.49
512.667	25307.77
512.87	25551.48
513.072	25381.5
513.274	25817.72
513.477	26296.94
513.679	26368.62
513.881	26516.08
514.084	27261.54
514.286	27030.12
514.488	27048.55
514.69	28238.42
514.893	27941.46
515.095	28039.76
515.297	28672.59
515.499	28424.78
515.701	28906.05
515.904	29102.66
516.106	29471.29
516.308	29874.74
516.51	30208.56
516.712	30329.39
516.914	30411.31
517.116	30939.69
517.318	31091.24
517.52	30982.7
517.722	31300.13
517.925	31851.03
518.127	32111.13
518.329	32305.68
518.531	32422.42
518.733	33104.39
518.935	33100.29
519.136	33372.67
519.338	33544.7
519.54	33851.9
519.742	34636.27
519.944	34122.23
520.146	35025.39
520.348	34691.57
520.55	35246.57
520.752	35209.7
520.954	35832.29
521.155	36143.58
521.357	36641.23
521.559	36874.7
521.761	37403.08
521.963	37210.57
522.164	37450.18
522.366	37495.24
522.568	38099.39
522.77	38248.89
522.971	38930.86
523.173	38625.71
523.375	39258.54
523.576	39301.54
523.778	38951.34
523.98	40208.79
524.181	40198.55
524.383	40075.68
524.584	40333.72
524.786	40505.75
524.988	40712.59
525.189	41384.33
525.391	41380.23
525.592	41634.18
525.794	42140.03
525.995	41933.18
526.197	42109.31
526.398	42201.47
526.6	42854.77
526.801	42387.83
527.003	42936.69
527.204	43028.85
527.406	43389.29
527.607	43403.63
527.808	43739.49
528.01	42903.92
528.211	43575.66
528.412	44530.01
528.614	44411.23
528.815	44214.62
529.016	44458.33
529.218	44173.66
529.419	44116.32
529.62	44599.64
529.822	44284.25
530.023	44570.97
530.224	45107.54
530.425	44964.18
530.626	45052.24
530.828	45035.86
531.029	45928.77
531.23	45044.05
531.431	45298
531.632	45134.16
531.833	45553.99
532.035	45721.93
532.236	45771.08
532.437	46102.85
532.638	45553.99
532.839	46217.53
533.04	46031.17
533.241	45959.49
533.442	46680.38
533.643	46197.06
533.844	46117.18
534.045	46139.71
534.246	45826.37
534.447	46637.37
534.648	46442.81
534.849	46424.38
535.05	46541.11
535.251	46537.02
535.451	46360.89
535.652	46795.06
535.853	46623.03
536.054	47008.05
536.255	46455.1
536.456	46379.32
536.657	46977.33
536.857	46944.56
537.058	46399.8
537.259	46995.76
537.46	46895.41
537.66	47028.53
537.861	47067.44
538.062	46522.68
538.263	47024.43
538.463	46543.16
538.664	46928.18
538.865	46707
539.065	46915.89
539.266	46584.12
539.466	46756.15
539.667	46203.2
539.868	47001.91
540.068	47200.56
540.269	46754.1
540.469	47034.67
540.67	46590.27
540.87	46516.54
541.071	47241.52
541.271	47053.11
541.472	46737.72
541.672	47126.83
541.873	46782.77
542.073	46221.63
542.274	47192.37
542.474	46983.48
542.675	46717.24
542.875	47358.25
543.075	46762.29
543.276	46285.12
543.476	47337.77
543.676	46663.99
543.877	46754.1
544.077	47110.45
544.277	46758.2
544.478	47169.84
544.678	46840.12
544.878	47032.63
545.078	46565.69
545.279	46729.53
545.479	46395.71
545.679	46692.66
545.879	46688.57
546.079	46647.61
546.28	46426.43
546.48	46389.56
546.68	47169.84
546.88	46975.28
547.08	46657.85
547.28	47124.78
547.48	46438.72
547.68	46885.17
547.88	46778.68
548.081	46827.83
548.281	46768.44
548.481	46543.16
548.681	46688.57
548.881	47118.64
549.081	46743.86
549.28	46344.51
549.48	46938.42
549.68	46489.91
549.88	47421.74
550.08	46354.75
550.28	46557.5
550.48	46653.75
550.68	46905.65
550.88	46553.4
551.08	46663.99
551.279	46641.46
551.479	46213.44
551.679	46948.66
551.879	46362.94
552.079	46926.13
552.278	46584.12
552.478	46379.32
552.678	46410.04
552.878	47063.35
553.077	46612.79
553.277	46049.6
553.477	46938.42
553.676	46428.48
553.876	46270.78
554.076	46469.43
554.275	46272.83
554.475	45922.63
554.674	45990.21
554.874	46446.91
555.074	45934.92
555.273	46373.18
555.473	46684.47
555.672	46180.67
555.872	46178.62
556.071	46188.86
556.271	46502.2
556.47	45494.6
556.67	45353.29
556.869	45427.02
557.068	45992.26
557.268	45885.76
557.467	45621.58
557.667	46137.66
557.866	45291.85
558.065	45619.53
558.265	45713.73
558.464	45033.81
558.663	45730.12
558.863	45123.92
559.062	45214.03
559.261	45150.54
559.461	45476.17
559.66	44689.75
559.859	45254.99
560.058	44624.22
560.258	45019.47
560.457	44616.02
560.656	45005.14
560.855	44749.14
561.054	44505.43
561.253	44372.31
561.453	44509.53
561.652	44484.95
561.851	44982.61
562.05	44521.82
562.249	43913.57
562.448	44618.07
562.647	44063.07
562.846	43759.97
563.045	43993.44
563.244	43379.05
563.443	44153.18
563.642	43405.67
563.841	43387.24
564.04	43471.21
564.239	43839.84
564.438	43174.25
564.637	43360.62
564.836	43186.54
565.035	42981.74
565.234	43108.72
565.432	42977.65
565.631	42613.11
565.83	42940.78
566.029	42586.49
566.228	42375.55
566.427	42101.12
566.625	42316.15
566.824	41914.75
567.023	42377.59
567.222	41451.91
567.42	42205.56
567.619	41996.67
567.818	41929.09
568.016	41562.5
568.215	42224
568.414	41669
568.612	41830.79
568.811	41314.7
569.01	41097.61
569.208	40708.5
569.407	41240.97
569.605	40110.49
569.804	40927.63
570.002	40403.35
570.201	40774.03
570.4	40206.75
570.598	40534.42
570.797	40006.05
570.995	40272.28
571.193	39692.71
571.392	40417.69
571.59	39831.97
571.789	39932.32
571.987	39516.58
572.186	39645.6
572.384	39319.98
572.582	39430.57
572.781	39231.91
572.979	38859.18
573.177	39379.37
573.376	39291.3
573.574	38687.15
573.772	38889.9
573.971	38652.34
574.169	38599.09
574.367	38361.53
574.565	38547.89
574.763	38101.43
574.962	38095.29
575.16	37827.01
575.358	38220.22
575.556	37587.39
575.754	38169.02
575.952	37616.07
576.151	37833.15
576.349	37108.17
576.547	37257.67
576.745	37751.23
576.943	37452.23
577.141	37061.07
577.339	37079.5
577.537	36958.67
577.735	36839.89
577.933	36438.48
578.131	36923.85
578.329	36254.17
578.527	36098.52
578.725	36159.96
578.923	36205.02
579.121	36147.67
579.319	35985.88
579.516	35803.61
579.714	35889.63
579.912	35719.65
580.11	35574.24
580.308	35391.97
580.506	35469.79
580.704	34941.42
580.901	35600.86
581.099	35484.13
581.297	34816.49
581.495	34662.9
581.692	34724.33
581.89	34994.67
582.088	35107.3
582.285	34681.33
582.483	34623.98
582.681	34345.46
582.878	34167.29
583.076	34116.09
583.274	34265.59
583.471	33837.56
583.669	34150.9
583.866	33843.71
584.064	33991.16
584.262	33331.72
584.459	33722.88
584.657	33663.49
584.854	33704.45
585.052	33012.23
585.249	33319.43
585.447	33257.99
585.644	32883.21
585.841	32926.22
586.039	32930.31
586.236	32627.21
586.434	32520.72
586.631	32317.97
586.828	32430.61
587.026	32309.78
587.223	32303.64
587.42	32217.62
587.618	32188.95
587.815	32000.54
588.012	31734.3
588.21	31820.31
588.407	31926.81
588.604	31709.72
588.801	31449.63
588.999	31762.97
589.196	31226.4
589.393	31332.9
589.59	31226.4
589.787	30638.64
589.984	30935.59
590.182	30632.49
590.379	30921.26
590.576	30640.68
590.773	30575.15
590.97	30534.19
591.167	30419.5
591.364	30300.72
591.561	30607.92
591.758	29971
591.955	30095.92
592.152	30274.1
592.349	29813.31
592.546	29827.64
592.743	30097.97
592.94	29567.55
593.137	29446.72
593.334	29635.13
593.531	29405.76
593.727	29420.1
593.924	29426.24
594.121	28863.05
594.318	29065.8
594.515	29100.61
594.712	29176.39
594.908	28867.14
595.105	28762.7
595.302	28332.62
595.499	28326.48
595.696	28734.03
595.892	28164.69
596.089	28207.7
596.286	28414.54
596.482	28142.16
596.679	27656.79
596.876	28109.4
597.072	27851.35
597.269	28144.21
597.466	27462.24
597.662	27316.83
597.859	27521.63
598.055	27312.74
598.252	27699.8
598.448	27148.9
598.645	26815.08
598.841	27220.58
599.038	26774.12
599.234	27181.67
599.431	26788.46
599.627	26413.68
599.824	26856.04
600.02	26477.16
600.217	26258.03
600.413	26307.18
600.609	26227.31
600.806	26141.3
601.002	26303.09
601.198	25993.84
601.395	25973.36
601.591	25924.21
601.787	25911.92
601.984	25670.26
602.18	26008.18
602.376	25602.68
602.572	25393.79
602.769	25453.18
602.965	25266.81
603.161	25336.45
603.357	25057.92
603.553	25105.02
603.75	25385.6
603.946	24980.1
604.142	25010.82
604.338	24654.47
604.534	24877.7
604.73	24343.18
604.926	24402.57
605.122	24400.52
605.318	24187.53
605.514	24382.09
605.71	24119.95
605.906	24167.06
606.102	24111.76
606.298	24109.71
606.494	23814.8
606.69	23923.35
606.886	24093.33
607.082	23513.75
607.278	23698.07
607.474	23415.45
607.67	23849.62
607.866	23231.13
608.062	23483.03
608.257	23284.38
608.453	23317.15
608.649	23317.15
608.845	23055.01
609.041	23007.9
609.236	23132.83
609.432	23165.6
609.628	22977.19
609.824	23052.96
610.019	22760.1
610.215	22710.95
610.411	22872.74
610.606	22264.49
610.802	22702.76
610.998	22377.13
611.193	22610.6
611.389	21998.26
611.584	22399.66
611.78	22383.27
611.976	22350.51
612.171	22074.03
612.367	22463.15
612.562	22188.72
612.758	22018.74
612.953	21836.47
613.149	22117.04
613.344	21758.64
613.539	22117.04
613.735	21897.91
613.93	21885.62
614.126	21564.09
614.321	22057.65
614.517	21777.08
614.712	21836.47
614.907	21670.58
615.103	21551.8
615.298	21373.63
615.493	21705.4
615.688	21105.34
615.884	21787.32
616.079	21179.07
616.274	21400.25
616.47	21043.9
616.665	21240.51
616.86	20964.03
617.055	21093.05
617.25	21035.71
617.445	21220.03
617.641	20861.63
617.836	20859.59
618.031	20701.89
618.226	20802.24
618.421	20662.98
618.616	20728.52
618.811	20097.74
619.006	20552.39
619.201	20146.89
619.396	20370.12
619.591	19888.85
619.786	20417.22
619.981	19946.19
620.176	20161.23
620.371	19698.39
620.566	20040.4
620.761	19743.44
620.956	20181.71
621.151	19276.51
621.346	19364.57
621.541	19200.73
621.735	19509.97
621.93	19208.92
622.125	19028.7
622.32	19116.76
622.515	18959.07
622.709	18897.63
622.904	18768.61
623.099	18488.04
623.294	18641.64
623.488	18369.26
623.683	18541.29
623.878	18156.27
624.072	18189.03
624.267	18221.8
624.462	18148.08
624.656	17920.75
624.851	17941.23
625.046	17797.87
625.24	17595.12
625.435	17367.8
625.629	17642.23
625.824	17343.22
626.018	17318.65
626.213	17087.23
626.407	17183.48
626.602	16683.78
626.796	16788.22
626.991	16913.15
627.185	16745.22
627.38	16395.01
627.574	16474.88
627.768	16415.49
627.963	16329.48
628.157	16063.24
628.352	16167.69
628.546	16044.81
628.74	16057.1
628.935	15827.73
629.129	15969.04
629.323	15778.58
629.517	15721.23
629.712	15739.66
629.906	15928.08
630.1	15278.87
630.294	15502.1
630.489	15342.36
630.683	15393.56
630.877	15026.97
631.071	15061.79
631.265	15112.99
631.459	15055.64
631.653	14678.82
631.848	14828.32
632.042	14637.86
632.236	14768.93
632.43	14412.58
632.624	14457.64
632.818	14261.03
633.012	14222.12
633.206	14136.1
633.4	14402.34
633.594	13794.09
633.788	14205.74
633.982	13873.96
634.176	14164.78
634.369	13820.72
634.563	13636.4
634.757	13505.33
634.951	13892.4
635.145	13423.41
635.339	13306.68
635.533	13265.72
635.726	13351.73
635.92	13126.46
636.114	13400.88
636.308	13017.91
636.501	12890.94
636.695	13142.84
636.889	12956.47
637.083	12788.54
637.276	12456.77
637.47	12665.66
637.664	12606.27
637.857	12624.7
638.051	12557.12
638.244	12241.73
638.438	12235.59
638.632	12196.68
638.825	12002.12
639.019	11975.5
639.212	11944.78
639.406	11909.96
639.599	11903.82
639.793	11965.26
639.986	11713.36
640.18	12047.18
640.373	11778.89
640.567	11504.46
640.76	11467.6
640.954	11393.87
641.147	11330.39
641.34	11477.84
641.534	11322.2
641.727	11129.69
641.92	10908.51
642.114	11189.08
642.307	10976.09
642.5	10808.16
642.694	10734.43
642.887	11094.87
643.08	10920.79
643.273	10851.16
643.467	10789.72
643.66	10421.09
643.853	10640.22
644.046	10492.77
644.239	10632.03
644.432	10396.51
644.626	10308.45
644.819	10392.42
645.012	10318.69
645.205	10197.86
645.398	10066.79
645.591	10072.93
645.784	10222.44
645.977	9948.01
646.17	10025.83
646.363	9962.34
646.556	9751.4
646.749	9962.34
646.942	9857.9
647.135	9689.96
647.328	9560.94
647.521	9644.91
647.714	9384.82
647.907	9507.69
648.099	9462.64
648.292	9438.06
648.485	9376.62
648.678	9118.58
648.871	9323.38
649.064	9251.7
649.256	9007.99
649.449	8829.82
649.642	9003.89
649.835	8926.07
650.027	8903.54
650.22	9038.71
650.413	8831.87
650.605	8831.87
650.798	8971.13
650.991	8641.4
651.183	8582.01
651.376	8526.72
651.568	8643.45
651.761	8631.16
651.954	8473.47
652.146	8199.04
652.339	8338.3
652.531	8498.05
652.724	8225.67
652.916	8029.06
653.109	8217.47
653.301	8227.71
653.494	8049.54
653.686	8029.06
653.879	7930.76
654.071	8151.94
654.263	7883.66
654.456	7953.29
654.648	7848.84
654.84	7922.57
655.033	7754.63
655.225	7748.49
655.417	7685
655.61	7730.06
655.802	7795.59
655.994	7443.34
656.186	7650.19
656.379	7619.47
656.571	7613.32
656.763	7437.2
656.955	7500.69
657.148	7478.16
657.34	7437.2
657.532	7314.32
657.724	7242.64
657.916	7283.6
658.108	7240.59
658.3	7134.1
658.492	7383.95
658.684	7074.71
658.876	7152.53
659.068	7003.03
659.26	7033.75
659.452	6962.07
659.644	7031.7
659.836	6792.09
660.028	6951.83
660.22	6771.61
660.412	6845.34
660.604	6595.48
660.796	6683.55
660.988	6732.7
661.18	6615.96
661.372	6392.73
661.563	6386.59
661.755	6325.15
661.947	6519.71
662.139	6462.37
662.331	6468.51
662.522	6298.53
662.714	6224.8
662.906	6325.15
663.097	6239.14
663.289	6263.71
663.481	6122.4
663.673	6228.9
663.864	6067.11
664.056	6208.42
664.247	6116.26
664.439	5958.57
664.631	5983.14
664.822	6048.68
665.014	6013.86
665.205	6054.82
665.397	5882.79
665.588	5874.6
665.78	5880.74
665.971	5895.08
666.163	5774.25
666.354	5743.53
666.546	5667.75
666.737	5747.62
666.929	5694.38
667.12	5551.02
667.311	5708.71
667.503	5694.38
667.694	5612.46
667.885	5565.36
668.077	5462.96
668.268	5424.05
668.459	5415.85
668.651	5512.11
668.842	5561.26
669.033	5282.74
669.224	5325.74
669.416	5381.04
669.607	5440.43
669.798	5014.45
669.989	5432.24
670.18	5280.69
670.371	5157.81
670.563	5178.29
670.754	5118.9
670.945	5270.45
671.136	5077.94
671.327	5278.64
671.518	5063.6
671.709	5016.5
671.9	4996.02
672.091	4981.68
672.282	4809.65
672.473	4912.05
672.664	4991.92
672.855	4889.53
673.046	4953.01
673.237	4953.01
673.428	4903.86
673.619	4864.95
673.809	4809.65
674	4742.07
674.191	4608.95
674.382	4778.94
674.573	4780.98
674.764	4725.69
674.954	4664.25
675.145	4527.03
675.336	4613.05
675.527	4608.95
675.717	4633.53
675.908	4557.75
676.099	4457.4
676.289	4553.66
676.48	4395.96
676.671	4506.56
676.861	4449.21
677.052	4539.32
677.243	4359.1
677.433	4400.06
677.624	4461.5
677.814	4369.34
678.005	4344.77
678.195	4445.12
678.386	4324.29
678.576	4205.5
678.767	4090.82
678.957	4320.19
679.148	4385.73
679.338	4326.33
679.529	4195.26
679.719	4170.69
679.909	4254.66
680.1	4115.39
680.29	4121.54
680.481	4090.82
680.671	4148.16
680.861	4137.92
681.052	4162.5
681.242	4035.52
681.432	4207.55
681.622	4060.1
681.813	4062.15
682.003	4139.97
682.193	3947.46
682.383	4062.15
682.573	4039.62
682.764	4043.71
682.954	3996.61
683.144	3969.99
683.334	3941.32
683.524	3982.28
683.714	3898.31
683.904	3877.83
684.094	3988.42
684.284	3816.39
684.474	3920.84
684.664	4019.14
684.854	3931.08
685.044	3810.25
685.234	3843.01
685.424	3691.46
685.614	3660.74
685.804	3673.03
685.994	3728.33
686.184	3793.86
686.374	3613.64
686.564	3759.05
686.753	3601.35
686.943	3646.41
687.133	3652.55
687.323	3603.4
687.513	3703.75
687.702	3611.59
687.892	3597.26
688.082	3617.74
688.272	3638.22
688.461	3597.26
688.651	3449.8
688.841	3531.72
689.03	3537.87
689.22	3494.86
689.41	3433.42
689.599	3511.24
689.789	3458
689.979	3433.42
690.168	3478.47
690.358	3351.5
690.547	3376.08
690.737	3455.95
690.926	3314.64
691.116	3394.51
691.305	3384.27
691.495	3253.2
691.684	3331.02
691.874	3376.08
692.063	3292.11
692.252	3335.12
692.442	3259.34
692.631	3171.28
692.82	3382.22
693.01	3359.69
693.199	3245.01
693.388	3279.82
693.578	3161.04
693.767	3169.23
693.956	3093.46
694.146	3224.53
694.335	3115.98
694.524	3187.66
694.713	3335.12
694.902	3214.29
695.092	3369.93
695.281	3224.53
695.47	3328.97
695.659	3261.39
695.848	3187.66
696.037	3085.26
696.226	3195.86
696.415	3331.02
696.604	3158.99
696.793	3163.09
696.982	3195.86
697.171	3230.67
697.36	3101.65
697.549	3167.18
697.738	3152.85
697.927	3122.13
698.116	3120.08
698.305	3075.03
698.494	3136.46
698.683	3156.94
698.872	3081.17
699.061	2999.25
699.25	3056.59
699.438	3234.77
699.627	3036.11
699.816	3191.76
700.005	3003.35
700.193	3128.27
700.382	3169.23
700.571	3148.75
700.76	3210.19
700.948	3197.9
701.137	3185.62
701.326	3099.6
701.514	3099.6
701.703	3134.42
701.892	3034.07
702.08	3226.57
702.269	3021.78
702.457	2984.91
702.646	3075.03
702.834	3052.5
703.023	3193.81
703.212	3050.45
703.4	3021.78
703.589	3118.03
703.777	3054.55
703.965	3011.54
704.154	3095.5
704.342	3197.9
704.531	3058.64
704.719	2995.15
704.907	3161.04
705.096	2968.53
705.284	3064.79
705.472	3097.55
705.661	3040.21
705.849	3136.46
706.037	2997.2
706.226	2925.52
706.414	3212.24
706.602	2978.77
706.79	3113.94
706.979	2991.06
707.167	2999.25
707.355	3064.79
707.543	3204.05
707.731	3085.26
707.919	3122.13
708.107	3015.63
708.296	3050.45
708.484	3042.26
708.672	3044.31
708.86	3066.83
709.048	3138.51
709.236	3005.39
709.424	3058.64
709.612	2859.99
709.8	3179.47
709.988	2919.38
710.176	2954.19
710.364	3085.26
710.551	3070.93
710.739	3070.93
710.927	3017.68
711.115	2880.47
711.303	3052.5
711.491	3019.73
711.679	2855.89
711.866	2919.38
712.054	3027.92
712.242	3072.98
712.43	3060.69
712.617	2982.87
712.805	2941.91
712.993	2999.25
713.181	3089.36
713.368	3107.79
713.556	3013.59
713.744	2976.72
713.931	3099.6
714.119	3005.39
714.306	2966.48
714.494	2986.96
714.682	2962.39
714.869	2999.25
715.057	3081.17
715.244	2925.52
715.432	3066.83
715.619	2982.87
715.807	3095.5
715.994	2878.42
716.182	2872.28
716.369	2915.28
716.556	2868.18
716.744	2927.57
716.931	2898.9
717.119	2900.95
717.306	2958.29
717.493	2962.39
717.681	2948.05
717.868	3050.45
718.055	2915.28
718.242	3011.54
718.43	2962.39
718.617	2958.29
718.804	2999.25
718.991	2900.95
719.179	2833.36
719.366	2882.52
719.553	2909.14
719.74	2900.95
719.927	2972.63
720.114	2833.36
720.301	2722.77
720.488	2821.08
720.676	2806.74
720.863	2898.9
721.05	2819.03
721.237	2839.51
721.424	2937.81
721.611	2825.17
721.798	2866.13
721.985	2853.84
722.172	2808.79
722.358	2859.99
722.545	2806.74
722.732	2864.08
722.919	2847.7
723.106	2800.6
723.293	2776.02
723.48	2724.82
723.667	2634.71
723.853	2804.69
724.04	2714.58
724.227	2716.63
724.414	2669.53
724.6	2704.34
724.787	2692.05
724.974	2829.27
725.161	2675.67
725.347	2683.86
725.534	2816.98
725.72	2790.36
725.907	2798.55
726.094	2724.82
726.28	2773.97
726.467	2821.08
726.653	2757.59
726.84	2632.66
727.027	2737.11
727.213	2663.38
727.4	2683.86
727.586	2687.96
727.773	2677.72
727.959	2665.43
728.145	2765.78
728.332	2694.1
728.518	2753.49
728.705	2644.95
728.891	2675.67
729.077	2614.23
729.264	2565.08
729.45	2558.94
729.636	2665.43
729.823	2589.66
730.009	2593.75
730.195	2542.55
730.382	2585.56
730.568	2548.7
730.754	2544.6
730.94	2571.22
731.126	2556.89
731.313	2491.35
731.499	2491.35
731.685	2552.79
731.871	2550.75
732.057	2524.12
732.243	2589.66
732.429	2546.65
732.615	2567.13
732.801	2601.94
732.987	2552.79
733.173	2536.41
733.359	2612.18
733.545	2466.78
733.731	2417.63
733.917	2644.95
734.103	2497.5
734.289	2462.68
734.475	2444.25
734.661	2481.11
734.847	2286.56
735.033	2364.38
735.219	2462.68
735.404	2356.19
735.59	2538.46
735.776	2436.06
735.962	2374.62
736.148	2415.58
736.333	2534.36
736.519	2376.67
736.705	2345.95
736.89	2413.53
737.076	2278.37
737.262	2376.67
737.447	2399.2
737.633	2395.1
737.819	2470.87
738.004	2292.7
738.19	2282.46
738.375	2307.04
738.561	2362.33
738.747	2399.2
738.932	2288.61
739.118	2266.08
739.303	2227.17
739.489	2270.17
739.674	2261.98
739.859	2239.45
740.045	2245.6
740.23	2210.78
740.416	2296.8
740.601	2151.39
740.786	2259.93
740.972	2184.16
741.157	2178.01
741.342	2206.69
741.528	2173.92
741.713	2194.4
741.898	2046.94
742.084	2106.34
742.269	2124.77
742.454	2237.41
742.639	2243.55
742.824	2085.86
743.01	2012.13
743.195	2063.33
743.38	1985.51
743.565	2040.8
743.75	2137.06
743.935	2073.57
744.12	2020.32
744.305	1985.51
744.49	1934.31
744.675	1997.79
744.86	1954.79
745.045	1995.75
745.23	1932.26
745.415	1938.4
745.6	2055.14
745.785	1807.33
745.97	1786.85
746.155	1956.83
746.34	1901.54
746.525	1829.86
746.71	1891.3
746.895	1909.73
747.079	1887.2
747.264	1766.37
747.449	1823.72
747.634	1700.84
747.819	1793
748.003	1823.72
748.188	1817.57
748.373	1766.37
748.557	1774.56
748.742	1647.59
748.927	1680.36
749.111	1743.85
749.296	1684.45
749.481	1782.76
749.665	1737.7
749.85	1727.46
750.034	1704.93
750.219	1629.16
750.404	1698.79
750.588	1612.78
750.773	1577.96
750.957	1698.79
751.141	1633.26
751.326	1653.73
751.51	1682.41
751.695	1610.73
751.879	1620.97
752.064	1659.88
752.248	1577.96
752.432	1590.25
752.617	1512.42
752.801	1557.48
752.985	1453.03
753.17	1461.23
753.354	1483.75
753.538	1512.42
753.722	1516.52
753.907	1405.93
754.091	1381.35
754.275	1434.6
754.459	1440.75
754.643	1399.79
754.828	1450.99
755.012	1375.21
755.196	1285.1
755.38	1387.5
755.564	1420.27
755.748	1364.97
755.932	1369.07
756.116	1344.49
756.3	1266.67
756.484	1338.35
756.668	1352.68
756.852	1303.53
757.036	1444.84
757.22	1332.2
757.404	1246.19
757.588	1272.81
757.772	1254.38
757.956	1192.94
758.14	1235.95
758.323	1289.2
758.507	1235.95
758.691	1233.9
758.875	1289.2
759.059	1213.42
759.242	1197.04
759.426	1131.5
759.61	1131.5
759.794	1172.46
759.977	1182.7
760.161	1295.34
760.345	1147.89
760.528	1176.56
760.712	1156.08
760.895	1113.07
761.079	1151.98
761.263	1041.39
761.446	1041.39
761.63	1123.31
761.813	1121.26
761.997	1090.54
762.18	1006.58
762.364	1137.65
762.547	1016.82
762.731	1010.67
762.914	1006.58
763.098	1018.86
763.281	1057.78
763.464	1070.06
763.648	1000.43
763.831	1037.3
764.015	1111.02
764.198	1082.35
764.381	1098.74
764.564	1031.15
764.748	998.38
764.931	1031.15
765.114	1025.01
765.297	1059.82
765.481	1000.43
765.664	1010.67
765.847	1070.06
766.03	1008.62
766.213	949.23
766.397	1014.77
766.58	926.71
766.763	1076.21
766.946	1004.53
767.129	988.14
767.312	1006.58
767.495	1016.82
767.678	936.95
767.861	984.05
768.044	1000.43
768.227	947.19
768.41	920.56
768.593	1029.1
768.776	979.95
768.959	951.28
769.142	994.29
769.324	957.43
769.507	977.91
769.69	938.99
769.873	920.56
770.056	883.7
770.239	900.08
770.421	934.9
770.604	873.46
770.787	992.24
770.97	857.07
771.152	895.99
771.335	902.13
771.518	885.75
771.7	955.38
771.883	893.94
772.066	859.12
772.248	889.84
772.431	943.09
772.613	926.71
772.796	922.61
772.978	885.75
773.161	816.12
773.343	836.6
773.526	820.21
773.708	838.64
773.891	850.93
774.073	775.16
774.256	832.5
774.438	807.92
774.621	795.64
774.803	775.16
774.985	803.83
775.168	822.26
775.35	711.67
775.532	746.48
775.715	807.92
775.897	818.16
776.079	883.7
776.261	744.44
776.444	791.54
776.626	728.05
776.808	689.14
776.99	750.58
777.173	791.54
777.355	779.25
777.537	693.24
777.719	742.39
777.901	703.48
778.083	701.43
778.265	703.48
778.447	746.48
778.629	674.81
778.811	701.43
778.993	685.05
779.175	637.94
779.357	730.1
779.539	660.47
779.721	683
779.903	717.81
780.085	672.76
780.267	642.04
780.449	588.79
780.631	625.65
780.812	605.17
780.994	652.28
781.176	607.22
781.358	631.8
781.54	545.78
781.721	605.17
781.903	668.66
782.085	670.71
782.267	621.56
782.448	590.84
782.63	599.03
782.812	615.41
782.993	560.12
783.175	582.65
783.357	513.02
783.538	576.5
783.72	582.65
783.901	541.69
784.083	521.21
784.264	556.02
784.446	496.63
784.627	459.77
784.809	603.13
784.99	541.69
785.172	525.3
785.353	586.74
785.535	566.26
785.716	492.54
785.897	519.16
786.079	488.44
786.26	523.26
786.441	486.39
786.623	472.06
786.804	463.86
786.985	490.49
787.167	470.01
787.348	525.3
787.529	451.58
787.71	517.11
787.891	445.43
788.073	443.39
788.254	480.25
788.435	490.49
788.616	410.62
788.797	439.29
788.978	347.13
789.159	433.15
789.34	453.63
789.522	449.53
789.703	420.86
789.884	422.91
790.065	457.72
790.246	424.95
790.427	398.33
790.607	472.06
790.788	375.8
790.969	427
791.15	353.27
791.331	326.65
791.512	422.91
791.693	470.01
791.874	381.95
792.054	429.05
792.235	377.85
792.416	291.84
792.597	453.63
792.778	410.62
792.958	353.27
793.139	367.61
793.32	361.47
793.5	373.75
793.681	424.95
793.862	402.43
794.042	355.32
794.223	328.7
794.404	381.95
794.584	353.27
794.765	340.99
794.945	400.38
795.126	381.95
795.306	369.66
795.487	332.79
795.667	367.61
795.848	291.84
796.028	279.55
796.209	353.27
796.389	326.65
796.57	318.46
796.75	320.51
796.93	336.89
797.111	228.35
797.291	332.79
797.471	334.84
797.652	275.45
797.832	293.88
798.012	345.08
798.192	322.56
798.373	263.16
798.553	310.27
798.733	302.08
798.913	328.7
799.093	300.03
799.274	357.37
799.454	353.27
799.634	334.84
799.814	330.75
799.994	275.45
800.174	242.68
800.354	306.17
800.534	226.3
800.714	322.56
800.894	275.45
801.074	291.84
801.254	283.64
801.434	308.22
801.614	353.27
801.794	308.22
801.974	762.87
802.154	261.12
802.334	324.6
802.514	207.87
802.693	277.5
802.873	218.11
803.053	277.5
803.233	248.83
803.413	242.68
803.592	232.44
803.772	218.11
803.952	218.11
804.131	334.84
804.311	248.83
804.491	197.63
804.67	207.87
804.85	205.82
805.03	285.69
805.209	310.27
805.389	175.1
805.568	203.77
805.748	224.25
805.928	267.26
806.107	250.88
806.287	193.53
806.466	230.4
806.646	123.9
806.825	224.25
807.004	216.06
807.184	205.82
807.363	234.49
807.543	236.54
807.722	207.87
807.901	209.92
808.081	222.2
808.26	82.94
808.439	289.79
808.619	177.15
808.798	197.63
808.977	222.2
809.156	203.77
809.336	242.68
809.515	269.31
809.694	199.68
809.873	222.2
810.052	209.92
810.231	228.35
810.411	214.01
810.59	259.07
810.769	189.44
810.948	222.2
811.127	132.09
811.306	203.77
811.485	222.2
811.664	148.48
811.843	197.63
812.022	181.25
812.201	181.25
812.38	166.91
812.559	230.4
812.737	201.72
812.916	166.91
813.095	179.2
813.274	211.96
813.453	181.25
813.632	224.25
813.811	209.92
813.989	50.18
814.168	191.49
814.347	89.09
814.526	158.72
814.704	214.01
814.883	259.07
815.062	179.2
815.24	218.11
815.419	144.38
815.598	175.1
815.776	183.29
815.955	220.16
816.133	140.29
816.312	156.67
816.49	125.95
816.669	177.15
816.847	189.44
817.026	162.81
817.204	158.72
817.383	175.1
817.561	187.39
817.74	150.53
817.918	238.59
818.097	119.81
818.275	195.58
818.453	156.67
818.632	132.09
818.81	125.95
818.988	82.94
819.167	113.66
819.345	123.9
819.523	115.71
819.701	136.19
819.879	222.2
820.058	189.44
820.236	193.53
820.414	193.53
820.592	74.75
820.77	115.71
820.948	162.81
821.127	128
821.305	189.44
821.483	103.42
821.661	183.29
821.839	144.38
822.017	35.84
822.195	99.33
822.373	128
822.551	181.25
822.729	156.67
822.907	121.85
823.085	136.19
823.262	154.62
823.44	158.72
823.618	234.49
823.796	103.42
823.974	93.18
824.152	146.43
824.329	91.13
824.507	173.05
824.685	140.29
824.863	144.38
825.04	148.48
825.218	134.14
825.396	121.85
825.574	150.53
825.751	193.53
825.929	218.11
826.107	91.13
826.284	168.96
826.462	105.47
826.639	95.23
826.817	72.7
826.994	68.61
827.172	125.95
827.349	138.24
827.527	115.71
827.704	130.05
827.882	119.81
828.059	128
828.237	89.09
828.414	144.38
828.591	74.75
828.769	50.18
828.946	142.33
829.124	115.71
829.301	173.05
829.478	97.28
829.655	148.48
829.833	154.62
830.01	125.95
830.187	175.1
830.364	99.33
830.542	58.37
830.719	166.91
830.896	48.13
831.073	66.56
831.25	74.75
831.427	154.62
831.604	148.48
831.782	74.75
831.959	89.09
832.136	97.28
832.313	72.7
832.49	64.51
832.667	74.75
832.844	50.18
833.021	109.57
833.198	93.18
833.374	160.77
833.551	62.46
833.728	140.29
833.905	74.75
834.082	107.52
834.259	-1.02
834.436	89.09
834.612	48.13
834.789	87.04
834.966	78.85
835.143	74.75
835.319	48.13
835.496	142.33
835.673	115.71
835.85	164.86
836.026	97.28
836.203	160.77
836.38	107.52
836.556	50.18
836.733	95.23
836.909	144.38
837.086	37.89
837.262	70.65
837.439	136.19
837.616	80.89
837.792	41.98
837.968	74.75
838.145	64.51
838.321	35.84
838.498	82.94
838.674	-17.41
838.851	136.19
839.027	41.98
839.203	93.18
839.38	123.9
839.556	33.79
839.732	91.13
839.909	41.98
840.085	80.89
840.261	107.52
840.437	82.94
840.614	56.32
840.79	29.7
840.966	37.89
841.142	95.23
841.318	33.79
841.494	93.18
841.671	82.94
841.847	29.7
842.023	54.27
842.199	97.28
842.375	130.05
842.551	70.65
842.727	50.18
842.903	50.18
843.079	25.6
843.255	125.95
843.431	50.18
843.607	158.72
843.783	27.65
843.959	66.56
844.134	39.94
844.31	78.85
844.486	64.51
844.662	66.56
844.838	31.74
845.013	99.33
845.189	31.74
845.365	50.18
845.541	107.52
845.716	35.84
845.892	74.75
846.068	62.46
846.244	58.37
846.419	103.42
846.595	3.07
846.77	87.04
846.946	101.37
847.122	117.76
847.297	17.41
847.473	99.33
847.648	46.08
847.824	107.52
847.999	72.7
848.175	52.22
848.35	144.38
848.526	91.13
848.701	64.51
848.876	101.37
849.052	111.61
849.227	58.37
849.403	82.94
849.578	41.98
849.753	58.37
849.929	97.28
850.104	66.56
850.279	-11.26
850.454	87.04
850.63	62.46
850.805	60.42
850.98	70.65
851.155	39.94
851.33	66.56
851.505	21.5
851.681	74.75
851.856	78.85
852.031	123.9
852.206	119.81
852.381	72.7
852.556	13.31
852.731	74.75
852.906	74.75
853.081	89.09
853.256	103.42
853.431	54.27
853.606	9.22
853.781	9.22
853.956	-60.42
854.131	82.94
854.305	23.55
854.48	23.55
854.655	60.42
854.83	11.26
855.005	74.75
855.18	80.89
855.354	50.18
855.529	89.09
855.704	50.18
855.879	35.84
856.053	39.94
856.228	46.08
856.403	35.84
856.577	35.84
856.752	64.51
856.926	48.13
857.101	48.13
857.276	5.12
857.45	105.47
857.625	107.52
857.799	60.42
857.974	37.89
858.148	-3.07
858.323	58.37
858.497	-11.26
858.672	21.5
858.846	23.55
859.02	37.89
859.195	5.12
859.369	78.85
859.543	3.07
859.718	72.7
859.892	107.52
860.066	31.74
860.241	5.12
860.415	76.8
860.589	-21.5
860.763	35.84
860.938	74.75
861.112	50.18
861.286	84.99
861.46	95.23
861.634	9.22
861.808	50.18
861.982	87.04
862.157	25.6
862.331	23.55
862.505	50.18
862.679	9.22
862.853	60.42
863.027	64.51
863.201	97.28
863.375	-44.03
863.549	62.46
863.722	21.5
863.896	121.85
864.07	29.7
864.244	82.94
864.418	58.37
864.592	66.56
864.766	46.08
864.939	54.27
865.113	13.31
865.287	39.94
865.461	29.7
865.634	58.37
865.808	7.17
865.982	-29.7
866.156	46.08
866.329	-1.02
866.503	82.94
866.676	60.42
866.85	87.04
867.024	70.65
867.197	115.71
867.371	60.42
867.544	132.09
867.718	-15.36
867.891	78.85
868.065	5.12
868.238	29.7
868.412	-17.41
868.585	37.89
868.759	25.6
868.932	82.94
869.105	46.08
869.279	64.51
869.452	17.41
869.625	119.81
869.799	48.13
869.972	37.89
870.145	103.42
870.319	105.47
870.492	54.27
870.665	17.41
870.838	46.08
871.011	11.26
871.185	68.61
871.358	64.51
871.531	19.46
871.704	-35.84
871.877	74.75
872.05	23.55
872.223	-21.5
872.396	41.98
872.569	37.89
872.742	21.5
872.915	50.18
873.088	1.02
873.261	70.65
873.434	74.75
873.607	5.12
873.78	54.27
873.953	-7.17
874.126	103.42
874.299	13.31
874.471	-17.41
874.644	66.56
874.817	68.61
874.99	21.5
875.163	35.84
875.335	-5.12
875.508	17.41
875.681	31.74
875.853	1.02
876.026	62.46
876.199	19.46
876.371	41.98
876.544	70.65
876.717	41.98
876.889	-7.17
877.062	87.04
877.234	-3.07
877.407	46.08
877.579	46.08
877.752	-5.12
877.924	99.33
878.097	-48.13
878.269	105.47
878.442	50.18
878.614	13.31
878.786	15.36
878.959	89.09
879.131	50.18
879.303	-41.98
879.476	7.17
879.648	7.17
879.82	107.52
879.993	-39.94
880.165	93.18
880.337	46.08
880.509	15.36
880.681	-9.22
880.854	56.32
881.026	95.23
881.198	62.46
881.37	60.42
881.542	25.6
881.714	-11.26
881.886	89.09
882.058	9.22
882.23	70.65
882.402	-1.02
882.574	99.33
882.746	9.22
882.918	29.7
883.09	58.37
883.262	56.32
883.434	62.46
883.606	-29.7
883.778	121.85
883.95	27.65
884.122	-1.02
884.293	54.27
884.465	23.55
884.637	111.61
884.809	-58.37
884.98	13.31
885.152	15.36
885.324	95.23
885.496	9.22
885.667	41.98
885.839	74.75
886.011	13.31
886.182	80.89
886.354	117.76
886.525	-1.02
886.697	58.37
886.869	13.31
887.04	39.94
887.212	62.46
887.383	74.75
887.555	25.6
887.726	97.28
887.897	-7.17
888.069	9.22
888.24	17.41
888.412	48.13
888.583	95.23
888.754	-31.74
888.926	50.18
889.097	25.6
889.268	68.61
889.44	-31.74
889.611	17.41
889.782	25.6
889.953	41.98
890.125	70.65
890.296	35.84
890.467	-39.94
890.638	80.89
890.809	46.08
890.98	5.12
891.151	-15.36
891.323	25.6
891.494	48.13
891.665	48.13
891.836	23.55
892.007	80.89
892.178	7.17
892.349	48.13
892.52	54.27
892.691	-1.02
892.862	-1.02
893.032	17.41
893.203	17.41
893.374	76.8
893.545	58.37
893.716	35.84
893.887	68.61
894.057	58.37
894.228	19.46
894.399	17.41
894.57	74.75
894.74	82.94
894.911	23.55
895.082	41.98
895.253	68.61
895.423	-1.02
895.594	101.37
895.764	17.41
895.935	19.46
896.106	29.7
896.276	-74.75
896.447	74.75
896.617	-9.22
896.788	-1.02
896.958	80.89
897.129	27.65
897.299	-5.12
897.47	89.09
897.64	62.46
897.81	82.94
897.981	62.46
898.151	1.02
898.322	54.27
898.492	25.6
898.662	23.55
898.832	-1.02
899.003	3.07
899.173	15.36
899.343	-19.46
899.513	-13.31
