Data from USB4F104151__65__10-23-59-502.txt Node

Date: Wed Mar 12 10:23:59 EDT 2025
User: louis
Spectrometer: USB4F10415
Trigger mode: 4
Integration Time (sec): 3.000000E-2
Scans to average: 1
Electric dark correction enabled: true
Nonlinearity correction enabled: false
Boxcar width: 0
XAxis mode: Wavelengths
Number of Pixels in Spectrum: 3648
>>>>>Begin Spectral Data<<<<<
178.204	-98.64
178.424	-98.64
178.644	-98.64
178.864	-100.69
179.084	-57.68
179.304	-51.54
179.524	38.57
179.744	75.43
179.964	46.76
180.184	-35.16
180.404	30.38
180.624	1.71
180.844	-10.58
181.064	-100.69
181.283	28.33
181.503	-22.87
181.723	-0.34
181.943	-0.34
182.163	46.76
182.383	-4.44
182.602	-4.44
182.822	73.39
183.042	46.76
183.262	83.63
183.482	13.99
183.701	11.95
183.921	30.38
184.141	7.85
184.361	46.76
184.58	-61.78
184.8	71.34
185.02	132.78
185.239	30.38
185.459	32.43
185.679	-8.53
185.898	-33.11
186.118	44.71
186.338	-6.49
186.557	114.34
186.777	20.14
186.997	61.1
187.216	-12.63
187.436	67.24
187.655	77.48
187.875	9.9
188.095	38.57
188.314	-12.63
188.534	104.11
188.753	16.04
188.973	18.09
189.192	24.23
189.412	30.38
189.631	89.77
189.851	-6.49
190.07	48.81
190.29	-8.53
190.509	63.15
190.729	28.33
190.948	28.33
191.168	63.15
191.387	77.48
191.607	65.19
191.826	-31.06
192.045	38.57
192.265	-8.53
192.484	7.85
192.704	77.48
192.923	97.96
193.142	28.33
193.362	57
193.581	40.62
193.8	67.24
194.02	32.43
194.239	97.96
194.458	-8.53
194.678	57
194.897	-16.73
195.116	50.86
195.335	42.67
195.555	118.44
195.774	65.19
195.993	73.39
196.212	48.81
196.432	-20.82
196.651	-55.64
196.87	54.95
197.089	100.01
197.308	54.95
197.528	-12.63
197.747	28.33
197.966	54.95
198.185	28.33
198.404	28.33
198.623	16.04
198.842	-10.58
199.062	-10.58
199.281	32.43
199.5	-22.87
199.719	-24.92
199.938	-6.49
200.157	44.71
200.376	44.71
200.595	85.67
200.814	-20.82
201.033	24.23
201.252	32.43
201.471	5.8
201.69	42.67
201.909	52.91
202.128	-26.96
202.347	50.86
202.566	38.57
202.785	-4.44
203.004	63.15
203.223	140.97
203.442	48.81
203.661	5.8
203.879	-16.73
204.098	40.62
204.317	-65.88
204.536	91.82
204.755	73.39
204.974	104.11
205.193	-0.34
205.411	79.53
205.63	65.19
205.849	75.43
206.068	1.71
206.287	-20.82
206.505	16.04
206.724	22.19
206.943	20.14
207.162	46.76
207.381	46.76
207.599	89.77
207.818	65.19
208.037	63.15
208.255	16.04
208.474	-33.11
208.693	18.09
208.911	3.75
209.13	26.28
209.349	-24.92
209.567	100.01
209.786	44.71
210.005	75.43
210.223	16.04
210.442	5.8
210.661	20.14
210.879	-12.63
211.098	85.67
211.316	36.52
211.535	-2.39
211.753	20.14
211.972	-35.16
212.191	85.67
212.409	28.33
212.628	-33.11
212.846	26.28
213.065	71.34
213.283	77.48
213.502	16.04
213.72	89.77
213.938	52.91
214.157	57
214.375	61.1
214.594	63.15
214.812	77.48
215.031	9.9
215.249	40.62
215.467	63.15
215.686	61.1
215.904	79.53
216.122	7.85
216.341	93.87
216.559	7.85
216.778	34.47
216.996	36.52
217.214	22.19
217.432	42.67
217.651	-24.92
217.869	-37.2
218.087	97.96
218.306	28.33
218.524	71.34
218.742	-10.58
218.96	28.33
219.179	7.85
219.397	13.99
219.615	52.91
219.833	69.29
220.051	81.58
220.27	54.95
220.488	59.05
220.706	40.62
220.924	52.91
221.142	79.53
221.36	42.67
221.578	24.23
221.796	24.23
222.015	-35.16
222.233	73.39
222.451	63.15
222.669	30.38
222.887	40.62
223.105	-45.4
223.323	36.52
223.541	-61.78
223.759	57
223.977	44.71
224.195	65.19
224.413	52.91
224.631	-6.49
224.849	7.85
225.067	52.91
225.285	38.57
225.503	85.67
225.721	-106.84
225.939	140.97
226.157	69.29
226.375	120.49
226.592	-31.06
226.81	40.62
227.028	61.1
227.246	110.25
227.464	48.81
227.682	-2.39
227.9	16.04
228.117	-24.92
228.335	106.15
228.553	63.15
228.771	75.43
228.989	11.95
229.206	-41.3
229.424	69.29
229.642	50.86
229.86	38.57
230.077	81.58
230.295	42.67
230.513	77.48
230.731	22.19
230.948	79.53
231.166	116.39
231.384	-18.77
231.601	118.44
231.819	-6.49
232.037	-45.4
232.254	18.09
232.472	-0.34
232.689	-24.92
232.907	73.39
233.125	7.85
233.342	-35.16
233.56	81.58
233.777	-2.39
233.995	73.39
234.213	114.34
234.43	5.8
234.648	32.43
234.865	102.06
235.083	22.19
235.3	9.9
235.518	24.23
235.735	81.58
235.953	77.48
236.17	7.85
236.388	3.75
236.605	40.62
236.822	69.29
237.04	54.95
237.257	30.38
237.475	24.23
237.692	3.75
237.909	59.05
238.127	100.01
238.344	73.39
238.562	63.15
238.779	36.52
238.996	22.19
239.214	-29.01
239.431	36.52
239.648	91.82
239.865	32.43
240.083	91.82
240.3	81.58
240.517	-24.92
240.735	32.43
240.952	40.62
241.169	3.75
241.386	79.53
241.603	36.52
241.821	54.95
242.038	7.85
242.255	18.09
242.472	40.62
242.689	65.19
242.907	65.19
243.124	-16.73
243.341	16.04
243.558	30.38
243.775	132.78
243.992	5.8
244.209	79.53
244.426	26.28
244.643	79.53
244.86	5.8
245.078	93.87
245.295	52.91
245.512	36.52
245.729	-57.68
245.946	18.09
246.163	52.91
246.38	52.91
246.597	71.34
246.814	38.57
247.031	-24.92
247.248	61.1
247.464	30.38
247.681	67.24
247.898	52.91
248.115	69.29
248.332	48.81
248.549	65.19
248.766	134.82
248.983	77.48
249.2	50.86
249.417	24.23
249.633	-8.53
249.85	73.39
250.067	28.33
250.284	42.67
250.501	69.29
250.717	102.06
250.934	-2.39
251.151	20.14
251.368	63.15
251.585	20.14
251.801	-16.73
252.018	-29.01
252.235	100.01
252.451	100.01
252.668	26.28
252.885	52.91
253.102	24.23
253.318	16.04
253.535	24.23
253.752	9.9
253.968	42.67
254.185	30.38
254.401	-49.49
254.618	143.02
254.835	59.05
255.051	42.67
255.268	30.38
255.484	-18.77
255.701	20.14
255.917	83.63
256.134	18.09
256.351	46.76
256.567	-49.49
256.784	95.91
257	-18.77
257.217	95.91
257.433	-29.01
257.65	108.2
257.866	26.28
258.082	16.04
258.299	5.8
258.515	165.54
258.732	-10.58
258.948	50.86
259.165	3.75
259.381	65.19
259.597	65.19
259.814	-0.34
260.03	50.86
260.246	61.1
260.463	114.34
260.679	106.15
260.895	1.71
261.112	65.19
261.328	46.76
261.544	3.75
261.761	16.04
261.977	32.43
262.193	13.99
262.409	13.99
262.626	-2.39
262.842	20.14
263.058	36.52
263.274	1.71
263.49	40.62
263.707	91.82
263.923	20.14
264.139	-47.44
264.355	-8.53
264.571	81.58
264.787	7.85
265.004	16.04
265.22	40.62
265.436	3.75
265.652	-31.06
265.868	65.19
266.084	54.95
266.3	44.71
266.516	-59.73
266.732	46.76
266.948	36.52
267.164	81.58
267.38	61.1
267.596	9.9
267.812	132.78
268.028	16.04
268.244	1.71
268.46	34.47
268.676	93.87
268.892	81.58
269.108	-14.68
269.324	-14.68
269.54	48.81
269.756	81.58
269.972	20.14
270.188	-20.82
270.403	18.09
270.619	36.52
270.835	95.91
271.051	57
271.267	32.43
271.483	-35.16
271.698	40.62
271.914	87.72
272.13	69.29
272.346	73.39
272.562	52.91
272.777	61.1
272.993	-12.63
273.209	57
273.425	22.19
273.64	20.14
273.856	20.14
274.072	-41.3
274.287	73.39
274.503	-8.53
274.719	57
274.934	3.75
275.15	83.63
275.366	77.48
275.581	3.75
275.797	13.99
276.012	50.86
276.228	44.71
276.444	-31.06
276.659	108.2
276.875	26.28
277.09	114.34
277.306	59.05
277.521	116.39
277.737	67.24
277.952	46.76
278.168	93.87
278.383	42.67
278.599	95.91
278.814	24.23
279.03	-20.82
279.245	77.48
279.461	30.38
279.676	54.95
279.892	9.9
280.107	42.67
280.322	42.67
280.538	85.67
280.753	18.09
280.969	108.2
281.184	20.14
281.399	46.76
281.615	-0.34
281.83	65.19
282.045	44.71
282.26	50.86
282.476	20.14
282.691	79.53
282.906	20.14
283.122	102.06
283.337	42.67
283.552	79.53
283.767	83.63
283.983	104.11
284.198	79.53
284.413	118.44
284.628	3.75
284.843	3.75
285.058	65.19
285.274	7.85
285.489	63.15
285.704	69.29
285.919	-63.83
286.134	65.19
286.349	38.57
286.564	30.38
286.779	128.68
286.995	63.15
287.21	54.95
287.425	-8.53
287.64	-39.25
287.855	26.28
288.07	36.52
288.285	130.73
288.5	61.1
288.715	130.73
288.93	36.52
289.145	3.75
289.36	118.44
289.575	42.67
289.79	81.58
290.004	67.24
290.219	-14.68
290.434	32.43
290.649	-0.34
290.864	28.33
291.079	-31.06
291.294	-24.92
291.509	32.43
291.724	44.71
291.938	-24.92
292.153	26.28
292.368	7.85
292.583	75.43
292.798	-14.68
293.012	-47.44
293.227	128.68
293.442	40.62
293.657	61.1
293.871	73.39
294.086	30.38
294.301	122.54
294.516	40.62
294.73	30.38
294.945	40.62
295.16	57
295.374	124.58
295.589	54.95
295.804	26.28
296.018	20.14
296.233	73.39
296.447	11.95
296.662	-26.96
296.877	16.04
297.091	54.95
297.306	48.81
297.52	59.05
297.735	54.95
297.949	106.15
298.164	136.87
298.378	-6.49
298.593	-4.44
298.807	36.52
299.022	57
299.236	87.72
299.451	73.39
299.665	24.23
299.88	65.19
300.094	48.81
300.309	-8.53
300.523	48.81
300.737	7.85
300.952	-0.34
301.166	34.47
301.381	28.33
301.595	-12.63
301.809	48.81
302.024	16.04
302.238	59.05
302.452	102.06
302.667	13.99
302.881	67.24
303.095	114.34
303.309	44.71
303.524	-12.63
303.738	65.19
303.952	79.53
304.166	9.9
304.381	-14.68
304.595	32.43
304.809	20.14
305.023	13.99
305.237	44.71
305.452	38.57
305.666	77.48
305.88	52.91
306.094	71.34
306.308	-35.16
306.522	54.95
306.736	71.34
306.95	89.77
307.164	40.62
307.379	57
307.593	140.97
307.807	32.43
308.021	16.04
308.235	-43.35
308.449	48.81
308.663	112.3
308.877	73.39
309.091	67.24
309.305	7.85
309.519	-8.53
309.733	48.81
309.947	61.1
310.161	-6.49
310.374	73.39
310.588	36.52
310.802	18.09
311.016	79.53
311.23	65.19
311.444	63.15
311.658	28.33
311.872	93.87
312.085	13.99
312.299	100.01
312.513	50.86
312.727	16.04
312.941	11.95
313.154	36.52
313.368	63.15
313.582	-10.58
313.796	69.29
314.009	102.06
314.223	46.76
314.437	-24.92
314.651	48.81
314.864	71.34
315.078	-6.49
315.292	38.57
315.505	59.05
315.719	63.15
315.933	7.85
316.146	73.39
316.36	-39.25
316.573	100.01
316.787	118.44
317.001	40.62
317.214	-0.34
317.428	81.58
317.641	-8.53
317.855	132.78
318.068	30.38
318.282	59.05
318.495	81.58
318.709	46.76
318.922	71.34
319.136	114.34
319.349	40.62
319.563	30.38
319.776	42.67
319.99	3.75
320.203	26.28
320.417	34.47
320.63	24.23
320.843	75.43
321.057	75.43
321.27	-10.58
321.483	71.34
321.697	30.38
321.91	11.95
322.124	54.95
322.337	-33.11
322.55	7.85
322.763	54.95
322.977	73.39
323.19	73.39
323.403	75.43
323.617	89.77
323.83	57
324.043	114.34
324.256	59.05
324.469	-24.92
324.683	57
324.896	-51.54
325.109	95.91
325.322	-55.64
325.535	11.95
325.748	73.39
325.962	65.19
326.175	52.91
326.388	30.38
326.601	32.43
326.814	48.81
327.027	97.96
327.24	69.29
327.453	32.43
327.666	-12.63
327.879	50.86
328.092	30.38
328.305	22.19
328.518	67.24
328.731	91.82
328.944	54.95
329.157	71.34
329.37	48.81
329.583	143.02
329.796	87.72
330.009	89.77
330.222	1.71
330.435	5.8
330.648	69.29
330.861	-10.58
331.073	-12.63
331.286	32.43
331.499	63.15
331.712	36.52
331.925	91.82
332.138	28.33
332.35	100.01
332.563	54.95
332.776	34.47
332.989	11.95
333.202	97.96
333.414	59.05
333.627	30.38
333.84	42.67
334.053	106.15
334.265	-8.53
334.478	54.95
334.691	32.43
334.903	32.43
335.116	38.57
335.329	20.14
335.541	69.29
335.754	57
335.966	3.75
336.179	93.87
336.392	81.58
336.604	97.96
336.817	65.19
337.029	102.06
337.242	32.43
337.454	36.52
337.667	24.23
337.88	126.63
338.092	71.34
338.305	-10.58
338.517	36.52
338.729	100.01
338.942	63.15
339.154	130.73
339.367	-4.44
339.579	-0.34
339.792	83.63
340.004	83.63
340.217	130.73
340.429	65.19
340.641	54.95
340.854	69.29
341.066	54.95
341.278	104.11
341.491	69.29
341.703	24.23
341.915	65.19
342.128	75.43
342.34	91.82
342.552	-29.01
342.764	87.72
342.977	77.48
343.189	50.86
343.401	40.62
343.613	30.38
343.826	73.39
344.038	57
344.25	30.38
344.462	13.99
344.674	81.58
344.886	-6.49
345.099	32.43
345.311	-37.2
345.523	3.75
345.735	65.19
345.947	16.04
346.159	50.86
346.371	69.29
346.583	69.29
346.795	95.91
347.007	73.39
347.219	57
347.431	83.63
347.643	42.67
347.855	28.33
348.067	81.58
348.279	63.15
348.491	110.25
348.703	73.39
348.915	110.25
349.127	106.15
349.339	75.43
349.551	69.29
349.763	122.54
349.975	-20.82
350.187	108.2
350.399	122.54
350.61	-16.73
350.822	50.86
351.034	61.1
351.246	-8.53
351.458	52.91
351.669	38.57
351.881	79.53
352.093	57
352.305	48.81
352.517	42.67
352.728	106.15
352.94	108.2
353.152	65.19
353.363	13.99
353.575	77.48
353.787	130.73
353.999	16.04
354.21	100.01
354.422	22.19
354.633	24.23
354.845	71.34
355.057	26.28
355.268	50.86
355.48	100.01
355.692	93.87
355.903	67.24
356.115	-18.77
356.326	81.58
356.538	97.96
356.749	89.77
356.961	93.87
357.172	93.87
357.384	50.86
357.595	104.11
357.807	50.86
358.018	26.28
358.23	50.86
358.441	106.15
358.653	54.95
358.864	75.43
359.075	63.15
359.287	112.3
359.498	106.15
359.709	7.85
359.921	54.95
360.132	93.87
360.344	91.82
360.555	52.91
360.766	73.39
360.977	16.04
361.189	79.53
361.4	91.82
361.611	85.67
361.823	40.62
362.034	42.67
362.245	-37.2
362.456	79.53
362.667	13.99
362.879	122.54
363.09	81.58
363.301	65.19
363.512	48.81
363.723	16.04
363.935	104.11
364.146	122.54
364.357	50.86
364.568	85.67
364.779	20.14
364.99	138.92
365.201	57
365.412	108.2
365.623	16.04
365.834	83.63
366.045	24.23
366.256	48.81
366.467	40.62
366.678	18.09
366.889	61.1
367.1	69.29
367.311	65.19
367.522	52.91
367.733	110.25
367.944	18.09
368.155	-14.68
368.366	61.1
368.577	87.72
368.788	81.58
368.999	20.14
369.209	83.63
369.42	-0.34
369.631	159.4
369.842	97.96
370.053	71.34
370.264	-12.63
370.474	9.9
370.685	85.67
370.896	104.11
371.107	69.29
371.317	52.91
371.528	44.71
371.739	63.15
371.95	91.82
372.16	85.67
372.371	7.85
372.582	77.48
372.792	112.3
373.003	97.96
373.214	38.57
373.424	57
373.635	5.8
373.846	171.69
374.056	65.19
374.267	28.33
374.477	108.2
374.688	24.23
374.898	116.39
375.109	104.11
375.319	65.19
375.53	112.3
375.74	44.71
375.951	71.34
376.161	73.39
376.372	114.34
376.582	18.09
376.793	42.67
377.003	-69.97
377.214	-55.64
377.424	44.71
377.635	36.52
377.845	18.09
378.055	79.53
378.266	-0.34
378.476	48.81
378.686	67.24
378.897	46.76
379.107	153.26
379.317	32.43
379.528	114.34
379.738	22.19
379.948	65.19
380.158	140.97
380.369	1.71
380.579	32.43
380.789	36.52
380.999	79.53
381.21	61.1
381.42	132.78
381.63	59.05
381.84	110.25
382.05	89.77
382.261	73.39
382.471	112.3
382.681	104.11
382.891	147.11
383.101	-14.68
383.311	5.8
383.521	1.71
383.731	71.34
383.941	71.34
384.151	61.1
384.361	69.29
384.571	110.25
384.781	-8.53
384.991	63.15
385.201	57
385.411	163.5
385.621	65.19
385.831	9.9
386.041	44.71
386.251	32.43
386.461	71.34
386.671	134.82
386.881	77.48
387.091	13.99
387.301	108.2
387.511	87.72
387.72	24.23
387.93	118.44
388.14	83.63
388.35	52.91
388.56	40.62
388.769	130.73
388.979	-2.39
389.189	11.95
389.399	95.91
389.609	81.58
389.818	104.11
390.028	108.2
390.238	122.54
390.447	81.58
390.657	159.4
390.867	28.33
391.076	118.44
391.286	114.34
391.496	169.64
391.705	65.19
391.915	114.34
392.125	36.52
392.334	89.77
392.544	87.72
392.753	95.91
392.963	50.86
393.172	13.99
393.382	120.49
393.591	83.63
393.801	24.23
394.01	161.45
394.22	87.72
394.429	102.06
394.639	7.85
394.848	112.3
395.058	151.21
395.267	108.2
395.477	106.15
395.686	104.11
395.895	130.73
396.105	114.34
396.314	20.14
396.524	114.34
396.733	134.82
396.942	200.36
397.152	102.06
397.361	165.54
397.57	65.19
397.78	97.96
397.989	75.43
398.198	188.07
398.407	48.81
398.617	83.63
398.826	108.2
399.035	85.67
399.244	36.52
399.453	44.71
399.663	118.44
399.872	165.54
400.081	87.72
400.29	112.3
400.499	112.3
400.708	169.64
400.917	36.52
401.127	118.44
401.336	30.38
401.545	124.58
401.754	196.26
401.963	91.82
402.172	122.54
402.381	93.87
402.59	122.54
402.799	102.06
403.008	106.15
403.217	118.44
403.426	104.11
403.635	151.21
403.844	87.72
404.053	79.53
404.262	151.21
404.471	136.87
404.68	200.36
404.888	204.46
405.097	145.06
405.306	186.02
405.515	143.02
405.724	145.06
405.933	179.88
406.142	134.82
406.35	190.12
406.559	216.74
406.768	272.04
406.977	253.61
407.185	237.22
407.394	220.84
407.603	136.87
407.812	229.03
408.02	224.94
408.229	237.22
408.438	245.41
408.646	239.27
408.855	245.41
409.064	298.66
409.272	333.48
409.481	362.15
409.69	349.86
409.898	286.37
410.107	366.25
410.315	362.15
410.524	333.48
410.733	347.81
410.941	302.76
411.15	358.05
411.358	380.58
411.567	423.59
411.775	419.49
411.984	464.55
412.192	480.93
412.401	468.64
412.609	558.75
412.818	554.66
413.026	589.47
413.234	466.6
413.443	491.17
413.651	603.81
413.86	556.71
414.068	638.62
414.276	655.01
414.485	593.57
414.693	726.69
414.901	716.45
415.11	775.84
415.318	614.05
415.526	720.54
415.734	736.93
415.943	835.23
416.151	876.19
416.359	786.08
416.567	878.24
416.776	913.05
416.984	929.44
417.192	990.88
417.4	931.48
417.608	1070.75
417.817	1085.08
418.025	1097.37
418.233	1146.52
418.441	1167
418.649	1216.15
418.857	1353.37
419.065	1293.97
419.273	1273.5
419.481	1343.13
419.689	1463.96
419.897	1523.35
420.105	1605.27
420.313	1697.42
420.521	1646.23
420.729	1590.93
420.937	1693.33
421.145	1793.68
421.353	1877.65
421.561	1910.41
421.769	1973.9
421.977	2119.31
422.185	2014.86
422.393	2031.24
422.601	2270.86
422.809	2195.08
423.017	2330.25
423.224	2346.63
423.432	2463.37
423.64	2483.84
423.848	2731.65
424.056	2576
424.263	2838.14
424.471	2838.14
424.679	2946.69
424.887	3094.14
425.094	3198.59
425.302	3210.87
425.51	3264.12
425.718	3319.42
425.925	3530.36
426.133	3663.47
426.341	3847.79
426.548	3980.91
426.756	3937.9
426.964	3923.57
427.171	4327.02
427.379	4431.46
427.586	4503.14
427.794	4460.13
428.001	4767.33
428.209	4853.34
428.417	4890.21
428.624	5152.35
428.832	5273.18
429.039	5111.39
429.247	5242.46
429.454	5633.62
429.662	5901.9
429.869	5666.39
430.076	5879.38
430.284	5819.99
430.491	6176.33
430.699	6397.51
430.906	6436.42
431.114	6696.52
431.321	6927.94
431.528	6993.47
431.736	7380.54
431.943	7642.68
432.15	7435.83
432.358	7546.42
432.565	8095.28
432.772	7929.39
432.979	8386.09
433.187	8457.77
433.394	8500.78
433.601	9205.28
433.808	9225.76
434.016	8955.43
434.223	9520.67
434.43	9987.6
434.637	9604.63
434.844	10466.83
435.052	10743.3
435.259	10540.55
435.466	10544.65
435.673	10491.4
435.88	11259.39
436.087	11845.11
436.294	11804.15
436.501	11576.83
436.708	11738.62
436.915	12174.83
437.122	12793.32
437.329	12879.33
437.537	13254.11
437.743	13522.4
437.95	13243.87
438.157	13931.99
438.364	14419.41
438.571	14460.37
438.778	14562.76
438.985	15758.78
439.192	15261.12
439.399	15832.51
439.606	15232.45
439.813	16287.15
440.02	17077.67
440.227	16829.87
440.433	16854.44
440.64	17188.26
440.847	17126.82
441.054	17565.09
441.261	18568.59
441.467	18400.66
441.674	18793.87
441.881	19441.03
442.088	19402.11
442.294	19410.31
442.501	19660.16
442.708	20086.14
442.914	21103.98
443.121	22076.76
443.328	21122.41
443.534	22865.23
443.741	22009.18
443.948	21599.59
444.154	23201.1
444.361	23149.9
444.568	23401.8
444.774	23174.47
444.981	23371.08
445.187	24214.84
445.394	25161
445.6	24823.09
445.807	27147.53
446.013	26529.05
446.22	26400.02
446.426	27688.2
446.633	27727.11
446.839	28472.57
447.046	27317.51
447.252	28908.79
447.459	28845.3
447.665	28814.58
447.871	30293.21
448.078	31337.68
448.284	29971.68
448.491	30950.61
448.697	31767.75
448.903	32101.57
449.11	32509.11
449.316	31517.9
449.522	32304.32
449.728	33535.15
449.935	33572.01
450.141	33336.49
450.347	34137.25
450.553	32828.6
450.76	33498.28
450.966	34249.89
451.172	33760.42
451.378	34509.98
451.584	34391.2
451.791	35005.59
451.997	35052.69
452.203	35331.22
452.409	35402.89
452.615	35234.96
452.821	33848.49
453.027	33588.39
453.233	35069.08
453.44	33770.66
453.646	33981.6
453.852	34311.33
454.058	35062.93
454.264	33662.12
454.47	34458.78
454.676	33418.41
454.882	34774.17
455.088	31667.4
455.294	32189.63
455.5	32810.17
455.705	32609.47
455.911	31720.65
456.117	31130.83
456.323	30614.74
456.529	29000.94
456.735	30276.83
456.941	29177.07
457.147	28593.4
457.352	28026.11
457.558	27706.63
457.764	27374.86
457.97	27381
458.176	26723.6
458.381	26873.1
458.587	25105.71
458.793	25109.8
458.999	23598.4
459.204	25523.49
459.41	24689.97
459.616	23153.99
459.821	23289.16
460.027	23291.21
460.233	22777.17
460.438	21615.97
460.644	21566.82
460.85	20991.34
461.055	20577.65
461.261	20342.13
461.466	18826.64
461.672	18238.87
461.878	19772.8
462.083	18582.93
462.289	17776.03
462.494	17614.24
462.7	17284.51
462.905	16848.3
463.111	17431.97
463.316	17253.8
463.522	16917.93
463.727	16969.13
463.932	17001.9
464.138	16721.32
464.343	16938.41
464.549	16274.87
464.754	16899.5
464.959	16745.9
465.165	16416.18
465.37	15963.58
465.575	15574.46
465.781	16215.48
465.986	16051.64
466.191	15648.19
466.397	15422.91
466.602	14656.97
466.807	15205.83
467.012	15123.91
467.218	14859.72
467.423	14812.62
467.628	15162.82
467.833	15762.87
468.038	14960.07
468.244	14464.46
468.449	15076.8
468.654	14753.23
468.859	14439.89
469.064	14486.99
469.269	14052.82
469.474	13956.57
469.679	14413.26
469.885	13839.83
470.09	14095.83
470.295	13972.95
470.5	13469.15
470.705	13815.26
470.91	13379.04
471.115	13131.23
471.32	13413.85
471.525	13350.37
471.73	12938.73
471.935	13120.99
472.139	12439.02
472.344	12627.43
472.549	12594.67
472.754	12445.16
472.959	12228.08
473.164	11855.35
473.369	11738.62
473.574	12223.98
473.778	12068.34
473.983	11988.47
474.188	11791.86
474.393	11447.8
474.598	11423.23
474.802	11326.97
475.007	11312.64
475.212	11116.03
475.417	10882.56
475.621	10761.73
475.826	10778.12
476.031	10921.48
476.235	10767.88
476.44	10561.03
476.645	10395.15
476.849	10259.98
477.054	10370.57
477.259	10225.17
477.463	10063.38
477.668	9993.75
477.872	9827.86
478.077	9899.54
478.282	9782.81
478.486	9491.99
478.691	9524.76
478.895	9655.83
479.1	9565.72
479.304	9520.67
479.509	9102.88
479.713	9246.24
479.918	9084.45
480.122	8863.27
480.326	9184.8
480.531	9190.94
480.735	9145.89
480.94	9068.06
481.144	8959.52
481.348	8629.8
481.553	8853.03
481.757	8572.46
481.961	8699.43
482.166	9070.11
482.37	8980
482.574	8736.29
482.778	8701.48
482.983	8816.16
483.187	8736.29
483.391	8941.09
483.595	8787.49
483.8	8629.8
484.004	8824.36
484.208	8861.22
484.412	8594.98
484.616	8744.49
484.821	9002.53
485.025	8617.51
485.229	8879.65
485.433	8435.24
485.637	8631.85
485.841	8625.7
486.045	8629.8
486.249	8865.32
486.453	8724.01
486.657	8699.43
486.861	8832.55
487.065	8605.22
487.269	8656.42
487.473	8691.24
487.677	8830.5
487.881	8826.4
488.085	8713.77
488.289	8902.18
488.493	8701.48
488.697	8793.64
488.901	8791.59
489.105	8959.52
489.309	8691.24
489.512	8896.03
489.716	8734.25
489.92	8834.6
490.124	8883.75
490.328	8994.34
490.531	8760.87
490.735	9115.17
490.939	8982.05
491.143	8803.88
491.346	8838.69
491.55	9211.42
491.754	9033.25
491.958	9217.57
492.161	9246.24
492.365	9254.43
492.569	9231.9
492.772	9227.81
492.976	9379.36
493.18	9307.68
493.383	9502.23
493.587	9422.36
493.79	9567.77
493.994	9393.69
494.197	9670.17
494.401	9659.93
494.605	9770.52
494.808	9813.52
495.012	9946.64
495.215	9979.41
495.419	9905.68
495.622	10042.9
495.825	10249.74
496.029	10163.73
496.232	10528.27
496.436	10356.24
496.639	10747.4
496.843	10714.63
497.046	10716.68
497.249	10714.63
497.453	10868.23
497.656	11111.94
497.859	11197.95
498.063	11271.68
498.266	11470.33
498.469	11361.79
498.673	11482.62
498.876	11619.83
499.079	11802.1
499.282	11687.42
499.485	11804.15
499.689	12291.57
499.892	12195.31
500.095	12180.98
500.298	12869.09
500.501	12258.8
500.705	13010.4
500.908	13043.17
501.111	13161.95
501.314	13272.54
501.517	13391.33
501.72	13540.83
501.923	13491.68
502.126	13821.4
502.329	14009.81
502.532	14382.54
502.735	14398.93
502.938	14339.54
503.141	14368.21
503.344	14583.24
503.547	14687.69
503.75	15162.82
503.953	15316.42
504.156	15195.59
504.359	15392.19
504.562	15513.02
504.765	15820.22
504.968	15988.15
505.17	16199.09
505.373	16367.02
505.576	16610.73
505.779	16942.5
505.982	16944.55
506.185	17489.31
506.387	16909.74
506.59	17358.24
506.793	17722.78
506.996	17751.45
507.198	18109.85
507.401	17767.84
507.604	18134.42
507.807	18617.74
508.009	18668.94
508.212	18644.37
508.415	19002.76
508.617	19273.09
508.82	19502.47
509.022	19516.8
509.225	19903.87
509.428	20104.57
509.63	19834.24
509.833	20225.4
510.035	20813.17
510.238	20716.91
510.44	20964.71
510.643	21073.26
510.845	21253.48
511.048	21497.19
511.25	21456.23
511.453	21482.85
511.655	22422.87
511.858	22195.54
512.06	22732.11
512.262	22672.72
512.465	22957.39
512.667	23604.55
512.87	23358.79
513.072	23430.47
513.274	24094.01
513.477	24120.63
513.679	24507.7
513.881	24407.35
514.084	25025.84
514.286	25015.6
514.488	25070.89
514.69	25986.33
514.893	26166.56
515.095	25947.42
515.297	26176.8
515.499	26479.89
515.701	26338.58
515.904	26795.28
516.106	27051.28
516.308	27346.19
516.51	28065.02
516.712	27809.03
516.914	27907.33
517.116	28667.13
517.318	28445.94
517.52	28710.13
517.722	29226.22
517.925	29451.5
518.127	29676.77
518.329	29988.07
518.531	29693.16
518.733	30477.53
518.935	30364.89
519.136	30895.32
519.338	31182.03
519.54	31358.16
519.742	31771.85
519.944	31798.47
520.146	32283.84
520.348	32281.79
520.55	32687.29
520.752	32728.25
520.954	33498.28
521.155	33160.37
521.357	33522.86
521.559	33682.6
521.761	34333.85
521.963	34464.92
522.164	34512.03
522.366	34991.25
522.568	35181.71
522.77	34999.44
522.971	35755.15
523.173	35470.48
523.375	35925.13
523.576	36041.86
523.778	36289.66
523.98	36600.96
524.181	36553.85
524.383	37076.08
524.584	37033.08
524.786	37459.06
524.988	36988.02
525.189	37698.67
525.391	38001.77
525.592	37897.32
525.794	38143.08
525.995	38427.74
526.197	38474.85
526.398	38689.88
526.6	38806.62
526.801	38921.3
527.003	39072.85
527.204	39597.13
527.406	39828.55
527.607	39564.37
527.808	40086.6
528.01	39400.53
528.211	40002.63
528.412	40535.1
528.614	40434.75
528.815	40506.43
529.016	40782.91
529.218	40371.27
529.419	40895.55
529.62	41247.8
529.822	40920.12
530.023	40727.61
530.224	41139.25
530.425	41063.48
530.626	40965.18
530.828	40983.61
531.029	41913.39
531.23	41565.23
531.431	41354.29
531.632	41647.15
531.833	41788.46
532.035	41718.83
532.236	41847.85
532.437	41968.68
532.638	41677.87
532.839	42148.9
533.04	42333.22
533.241	41524.27
533.442	42873.88
533.643	42533.92
533.844	41976.87
534.045	42359.84
534.246	42388.52
534.447	42314.79
534.648	42325.03
534.849	42384.42
535.05	41976.87
535.251	42664.99
535.451	42288.17
535.652	43219.99
535.853	42437.67
536.054	42650.66
536.255	42914.84
536.456	42312.74
536.657	42742.81
536.857	42718.24
537.058	42341.41
537.259	42798.11
537.46	42877.98
537.66	42628.13
537.861	42214.44
538.062	42101.8
538.263	43242.52
538.463	42507.3
538.664	42208.29
538.865	42419.24
539.065	42705.95
539.266	42253.35
539.466	42914.84
539.667	42128.42
539.868	43013.15
540.068	42816.54
540.269	42701.86
540.469	42658.85
540.67	42765.34
540.87	42673.18
541.071	42468.39
541.271	42533.92
541.472	42593.31
541.672	42230.82
541.873	42472.48
542.073	41821.23
542.274	43185.18
542.474	42583.07
542.675	42228.77
542.875	42863.64
543.075	42462.24
543.276	41772.08
543.476	42865.69
543.676	42218.53
543.877	42740.77
544.077	42656.8
544.277	42435.62
544.478	41972.78
544.678	42779.68
544.878	42296.36
545.078	42667.04
545.279	42112.04
545.479	42566.69
545.679	42558.5
545.879	42230.82
546.079	42662.94
546.28	42447.91
546.48	42163.24
546.68	42208.29
546.88	42562.59
547.08	42638.37
547.28	42484.77
547.48	42161.19
547.68	42544.16
547.88	42306.6
548.081	42431.52
548.281	42361.89
548.481	42460.19
548.681	42699.81
548.881	42056.74
549.081	42404.9
549.28	41950.25
549.48	42710.05
549.68	41987.11
549.88	42789.92
550.08	41950.25
550.28	42771.49
550.48	42230.82
550.68	42320.93
550.88	41632.82
551.08	42290.21
551.279	42294.31
551.479	42279.97
551.679	41890.86
551.879	42314.79
552.079	42333.22
552.278	42171.43
552.478	42071.08
552.678	42157.1
552.878	42241.06
553.077	41950.25
553.277	41659.44
553.477	42345.51
553.676	41571.38
553.876	41876.52
554.076	42142.76
554.275	41589.81
554.475	41149.49
554.674	41804.84
554.874	41882.67
555.074	41573.42
555.273	41813.04
555.473	41788.46
555.672	41342
555.872	41636.91
556.071	41737.26
556.271	41772.08
556.47	41362.48
556.67	41382.96
556.869	41100.34
557.068	41077.82
557.268	40956.99
557.467	41346.1
557.667	41231.41
557.866	41186.36
558.065	41047.1
558.265	40590.4
558.464	40844.35
558.663	40895.55
558.863	40488
559.062	41266.23
559.261	40279.11
559.461	40799.29
559.66	40510.53
559.859	41018.42
560.058	40191.05
560.258	40588.35
560.457	39953.48
560.656	40358.98
560.855	39949.39
561.054	40404.03
561.253	39838.79
561.453	39963.72
561.652	40057.93
561.851	40133.7
562.05	39556.18
562.249	39601.23
562.448	39826.51
562.647	39234.64
562.846	39570.51
563.045	39406.67
563.244	39109.72
563.443	39687.25
563.642	38763.61
563.841	39150.68
564.04	39068.76
564.239	39079
564.438	38462.56
564.637	38755.42
564.836	38882.39
565.035	38456.42
565.234	38552.67
565.432	38337.63
565.631	38544.48
565.83	38538.33
566.029	38009.96
566.228	38319.2
566.427	37813.35
566.625	37958.76
566.824	37297.27
567.023	38065.25
567.222	37504.11
567.42	37923.94
567.619	37874.79
567.818	37319.79
568.016	37336.18
568.215	37395.57
568.414	36936.82
568.612	37346.42
568.811	36869.24
569.01	36881.53
569.208	36385.92
569.407	36560
569.605	36058.24
569.804	36779.13
570.002	36168.83
570.201	36492.41
570.4	36140.16
570.598	36191.36
570.797	35824.78
570.995	36031.62
571.193	35427.47
571.392	36152.45
571.59	35746.95
571.789	35239.06
571.987	35572.88
572.186	35124.37
572.384	35294.35
572.582	35581.07
572.781	35189.91
572.979	34684.06
573.177	35083.41
573.376	35148.95
573.574	34704.54
573.772	34944.15
573.971	34876.57
574.169	33864.87
574.367	34274.46
574.565	34399.39
574.763	34016.42
574.962	33854.63
575.16	33588.39
575.358	34161.83
575.556	33596.59
575.754	33985.7
575.952	33469.61
576.151	33918.12
576.349	33375.41
576.547	33096.88
576.745	33285.29
576.943	33260.72
577.141	32963.76
577.339	33137.84
577.537	33076.4
577.735	32765.11
577.933	32769.21
578.131	32357.56
578.329	32699.58
578.527	32154.82
578.725	32414.91
578.923	32171.2
579.121	32036.03
579.319	32130.24
579.516	32201.92
579.714	32120
579.912	31771.85
580.11	31714.5
580.308	31536.33
580.506	31825.09
580.704	31048.91
580.901	31241.42
581.099	31499.47
581.297	31089.87
581.495	31067.34
581.692	31499.47
581.89	31042.77
582.088	30942.42
582.285	30950.61
582.483	31118.54
582.681	30803.16
582.878	30350.56
583.076	30522.58
583.274	30651.61
583.471	30481.63
583.669	30401.75
583.866	29895.91
584.064	30665.94
584.262	29883.62
584.459	30258.4
584.657	29922.53
584.854	30127.33
585.052	29396.2
585.249	29865.19
585.447	29568.23
585.644	29355.24
585.841	29312.24
586.039	29629.67
586.236	28931.31
586.434	29299.95
586.631	29209.84
586.828	29025.52
587.026	29089.01
587.223	28841.2
587.42	28626.17
587.618	28916.98
587.815	28237.05
588.012	28333.31
588.21	28484.86
588.407	28740.85
588.604	28361.98
588.801	27919.62
588.999	27772.16
589.196	28034.3
589.393	28011.78
589.59	27886.85
589.787	27450.63
589.984	27720.96
590.182	27323.66
590.379	27534.6
590.576	27329.8
590.773	27409.67
590.97	26973.46
591.167	26957.07
591.364	26948.88
591.561	27141.39
591.758	26860.82
591.955	26862.86
592.152	26940.69
592.349	26742.03
592.546	26762.51
592.743	26531.09
592.94	26408.22
593.137	26178.84
593.334	26615.06
593.531	26062.11
593.727	26348.82
593.924	26295.58
594.121	25865.5
594.318	26205.47
594.515	25404.71
594.712	26010.91
594.908	25586.98
595.105	25625.89
595.302	25376.04
595.499	25537.83
595.696	25132.33
595.892	25273.64
596.089	25402.66
596.286	25105.71
596.482	25142.57
596.679	25404.71
596.876	25025.84
597.072	24790.32
597.269	24964.4
597.466	24476.98
597.662	24751.41
597.859	24542.52
598.055	24642.87
598.252	24194.36
598.448	24300.86
598.645	24603.96
598.841	24032.57
599.038	24411.45
599.234	24030.52
599.431	24114.49
599.627	23921.98
599.824	23600.45
600.02	24020.28
600.217	23756.1
600.413	23360.84
600.609	23471.43
600.806	23444.8
601.002	23424.33
601.198	23016.78
601.395	23264.58
601.591	23172.43
601.787	23166.28
601.984	22744.4
602.18	23467.33
602.376	23059.79
602.572	22758.74
602.769	23076.17
602.965	22721.87
603.161	22867.28
603.357	22484.31
603.553	22555.99
603.75	22271.32
603.946	22488.4
604.142	22517.08
604.338	21802.33
604.534	22318.42
604.73	21882.2
604.926	21644.64
605.122	22168.92
605.318	21751.13
605.514	21949.79
605.71	21886.3
605.906	21497.19
606.102	21740.89
606.298	21845.34
606.494	21495.14
606.69	21415.27
606.886	21292.39
607.082	21077.35
607.278	21380.45
607.474	21140.84
607.67	21101.93
607.866	21063.02
608.062	21325.16
608.257	20981.1
608.453	21020.01
608.649	21151.08
608.845	21009.77
609.041	21167.46
609.236	21122.41
609.432	20743.53
609.628	20522.35
609.824	20485.49
610.019	20370.8
610.215	20430.19
610.411	20641.14
610.606	20247.93
610.802	20622.7
610.998	20249.97
611.193	20405.62
611.389	20032.89
611.584	20051.32
611.78	19938.68
611.976	20239.73
612.171	20374.9
612.367	20133.24
612.562	19885.44
612.758	19817.85
612.953	19703.17
613.149	19963.26
613.344	19750.27
613.539	19932.54
613.735	19735.93
613.93	19944.83
614.126	19594.62
614.321	19733.89
614.517	19602.82
614.712	19828.09
614.907	19651.97
615.103	19418.5
615.298	19355.01
615.493	19506.56
615.688	18982.28
615.884	19615.1
616.079	19129.73
616.274	19326.34
616.47	18863.5
616.665	19053.96
616.86	18894.22
617.055	19082.63
617.25	19031.43
617.445	19162.5
617.641	18498.96
617.836	18771.34
618.031	18736.52
618.226	18832.78
618.421	18425.23
618.616	19023.24
618.811	18437.52
619.006	18412.95
619.201	18126.23
619.396	18357.65
619.591	17966.49
619.786	18300.31
619.981	17900.95
620.176	18036.12
620.371	18109.85
620.566	17675.68
620.761	17579.42
620.956	17610.14
621.151	17454.5
621.346	17733.02
621.541	17266.08
621.735	17468.83
621.93	17257.89
622.125	17118.63
622.32	16793
622.515	17231.27
622.709	17132.97
622.904	16727.47
623.099	16997.8
623.294	17106.34
623.488	16477.62
623.683	16442.8
623.878	16235.95
624.072	16276.91
624.267	16479.66
624.462	16203.19
624.656	16070.07
624.851	16080.31
625.046	16043.45
625.24	15973.81
625.435	15705.53
625.629	15895.99
625.824	15613.37
626.018	15588.8
626.213	15097.28
626.407	15570.37
626.602	15158.72
626.796	15297.99
626.991	15254.98
627.185	15181.25
627.38	15181.25
627.574	14745.03
627.768	15103.43
627.963	14849.48
628.157	14581.2
628.352	14663.11
628.546	14398.93
628.74	14593.48
628.935	14306.77
629.129	14306.77
629.323	14202.32
629.517	14114.26
629.712	13819.35
629.906	14130.64
630.1	13727.19
630.294	13917.65
630.489	13540.83
630.683	13938.13
630.877	13585.88
631.071	13147.62
631.265	13678.04
631.459	13383.13
631.653	13297.12
631.848	13047.27
632.042	13299.17
632.236	13372.89
632.43	12951.01
632.624	12910.05
632.818	12957.16
633.012	13063.65
633.206	12711.4
633.4	12875.24
633.594	12918.25
633.788	12424.69
633.982	12674.54
634.176	12535.28
634.369	12246.51
634.563	12467.69
634.757	12340.72
634.951	12217.84
635.145	12269.04
635.339	12146.16
635.533	11976.18
635.726	11922.93
635.92	11759.1
636.114	11853.3
636.308	11666.94
636.501	11607.55
636.695	11746.81
636.889	11513.34
637.083	11320.83
637.276	11496.96
637.47	11523.58
637.664	11298.3
637.857	11404.8
638.051	11183.62
638.244	11142.66
638.438	10870.28
638.632	10884.61
638.825	10814.98
639.019	10704.39
639.212	10751.49
639.406	10823.17
639.599	10677.77
639.793	10718.73
639.986	10628.62
640.18	10731.01
640.373	10536.46
640.567	10470.92
640.76	10292.75
640.954	10309.13
641.147	10307.09
641.34	10163.73
641.534	10128.91
641.727	10003.99
641.92	10014.23
642.114	10161.68
642.307	9989.65
642.5	9985.55
642.694	9700.89
642.887	9582.1
643.08	9741.85
643.273	9565.72
643.467	9764.37
643.66	9598.49
643.853	9498.14
644.046	9303.58
644.239	9489.95
644.432	9276.96
644.626	9268.77
644.819	9131.55
645.012	9336.35
645.205	9309.72
645.398	9182.75
645.591	8986.15
645.784	9133.6
645.977	8869.41
646.17	9057.82
646.363	8816.16
646.556	8740.39
646.749	8730.15
646.942	8830.5
647.135	8597.03
647.328	8625.7
647.521	8683.05
647.714	8570.41
647.907	8582.7
648.099	8414.76
648.292	8445.48
648.485	8363.56
648.678	8261.16
648.871	8130.09
649.064	7966.26
649.256	8330.8
649.449	8146.48
649.642	8082.99
649.835	8003.12
650.027	7976.5
650.22	7894.58
650.413	7892.53
650.605	7978.54
650.798	7722.55
650.991	7675.45
651.183	7720.5
651.376	7773.75
651.568	7730.74
651.761	7659.06
651.954	7511.61
652.146	7548.47
652.339	7470.65
652.531	7464.5
652.724	7462.46
652.916	7171.65
653.109	7272
653.301	7308.86
653.494	7444.03
653.686	7177.79
653.879	7398.97
654.071	6981.18
654.263	7018.05
654.456	7034.43
654.648	7179.84
654.84	6999.62
655.033	6946.37
655.225	7011.9
655.417	6880.83
655.61	7085.63
655.802	6876.74
655.994	6772.29
656.186	6929.98
656.379	6743.62
656.571	6569.54
656.763	6766.15
656.955	6690.37
657.148	6608.45
657.34	6594.12
657.532	6649.41
657.724	6358.6
657.916	6581.83
658.108	6624.84
658.3	6317.64
658.492	6440.52
658.684	6450.76
658.876	6188.62
659.068	6278.73
659.26	6182.48
659.452	6254.16
659.644	6293.07
659.836	6145.61
660.028	6274.63
660.22	6000.21
660.412	6098.51
660.604	6004.3
660.796	5996.11
660.988	6073.93
661.18	5938.77
661.372	5779.03
661.563	5869.14
661.755	5869.14
661.947	5889.62
662.139	5842.51
662.331	5795.41
662.522	5723.73
662.714	5754.45
662.906	5643.86
663.097	5520.98
663.289	5523.03
663.481	5670.48
663.673	5455.45
663.864	5539.41
664.056	5539.41
664.247	5594.71
664.439	5330.52
664.631	5496.41
664.822	5443.16
665.014	5398.1
665.205	5277.27
665.397	5230.17
665.588	5385.82
665.78	5398.1
665.971	5209.69
666.163	5209.69
666.354	5275.23
666.546	5271.13
666.737	5172.83
666.929	5316.19
667.12	5305.95
667.311	5215.84
667.503	5066.33
667.694	5054.05
667.885	5058.14
668.077	5029.47
668.268	4974.17
668.459	5037.66
668.651	5000.8
668.842	4951.65
669.033	4945.5
669.224	4857.44
669.416	4888.16
669.607	4922.98
669.798	4914.78
669.989	4802.15
670.18	4849.25
670.371	4742.75
670.563	4683.36
670.754	4853.34
670.945	4746.85
671.136	4695.65
671.327	4763.23
671.518	4675.17
671.709	4755.04
671.9	4617.83
672.091	4632.16
672.282	4552.29
672.473	4542.05
672.664	4619.88
672.855	4572.77
673.046	4574.82
673.237	4521.57
673.428	4681.32
673.619	4587.11
673.809	4394.6
674	4529.77
674.191	4531.81
674.382	4406.89
674.573	4310.63
674.764	4284.01
674.954	4456.04
675.145	4347.5
675.336	4271.72
675.527	4402.79
675.717	4470.37
675.908	4275.82
676.099	4322.92
676.289	4374.12
676.48	4263.53
676.671	4351.59
676.861	4429.42
677.052	4310.63
677.243	4279.91
677.433	4243.05
677.624	4302.44
677.814	4232.81
678.005	4126.32
678.195	4230.76
678.386	4234.86
678.576	4208.23
678.767	4183.66
678.957	4138.6
679.148	4234.86
679.338	4173.42
679.529	4284.01
679.719	4208.23
679.909	4177.51
680.1	4177.51
680.29	4114.03
680.481	4152.94
680.671	4179.56
680.861	4066.92
681.052	4167.28
681.242	4226.67
681.432	4210.28
681.622	4134.51
681.813	4068.97
682.003	4163.18
682.193	3989.1
682.383	4093.55
682.573	4193.9
682.764	4058.73
682.954	4197.99
683.144	4030.06
683.334	4013.68
683.524	4066.92
683.714	4103.79
683.904	4001.39
684.094	4179.56
684.284	4085.36
684.474	4107.88
684.664	4144.75
684.854	4062.83
685.044	3913.33
685.234	3819.12
685.424	3989.1
685.614	4017.77
685.804	4107.88
685.994	4085.36
686.184	3880.56
686.374	4193.9
686.564	3868.27
686.753	3970.67
686.943	3915.37
687.133	3855.98
687.323	3898.99
687.513	3716.72
687.702	3823.22
687.892	3864.18
688.082	3782.26
688.272	3755.63
688.461	3841.65
688.651	3864.18
688.841	3804.78
689.03	3905.14
689.22	3751.54
689.41	3741.3
689.599	3661.43
689.789	3659.38
689.979	3667.57
690.168	3599.99
690.358	3743.35
690.547	3638.9
690.737	3599.99
690.926	3573.36
691.116	3462.77
691.305	3509.88
691.495	3587.7
691.684	3630.71
691.874	3548.79
692.063	3503.73
692.252	3454.58
692.442	3460.73
692.631	3468.92
692.82	3401.33
693.01	3403.38
693.199	3468.92
693.388	3405.43
693.578	3382.9
693.767	3378.81
693.956	3360.38
694.146	3534.45
694.335	3262.07
694.524	3509.88
694.713	3501.69
694.902	3305.08
695.092	3376.76
695.281	3419.77
695.47	3239.55
695.659	3485.3
695.848	3325.56
696.037	3335.8
696.226	3397.24
696.415	3382.9
696.604	3276.41
696.793	3202.68
696.982	3192.44
697.171	3315.32
697.36	3157.63
697.549	3280.5
697.738	3194.49
697.927	3163.77
698.116	3227.26
698.305	3311.22
698.494	3255.93
698.683	3245.69
698.872	3300.98
699.061	3294.84
699.25	3219.07
699.438	3333.75
699.627	3217.02
699.816	3292.79
700.005	3202.68
700.193	3167.87
700.382	3294.84
700.571	3202.68
700.76	3257.98
700.948	3112.57
701.137	3108.48
701.326	3262.07
701.514	3186.3
701.703	3300.98
701.892	3282.55
702.08	3067.52
702.269	3167.87
702.457	3104.38
702.646	3219.07
702.834	3102.33
703.023	3309.18
703.212	3223.16
703.4	3300.98
703.589	3112.57
703.777	3192.44
703.965	3202.68
704.154	3202.68
704.342	3194.49
704.531	3155.58
704.719	3139.19
704.907	3257.98
705.096	3239.55
705.284	3180.15
705.472	3270.26
705.661	3208.83
705.849	3251.83
706.037	3104.38
706.226	3253.88
706.414	3180.15
706.602	3081.85
706.79	3214.97
706.979	3174.01
707.167	3157.63
707.355	3098.24
707.543	3102.33
707.731	3243.64
707.919	3159.67
708.107	3245.69
708.296	3276.41
708.484	3292.79
708.672	3217.02
708.86	3149.43
709.048	3241.59
709.236	3169.91
709.424	3227.26
709.612	3186.3
709.8	3276.41
709.988	3169.91
710.176	3198.59
710.364	3124.86
710.551	3174.01
710.739	3251.83
710.927	3100.28
711.115	3237.5
711.303	3233.4
711.491	3274.36
711.679	3241.59
711.866	3131
712.054	3341.94
712.242	3100.28
712.43	3376.76
712.617	3253.88
712.805	3315.32
712.993	3243.64
713.181	3178.11
713.368	3257.98
713.556	3204.73
713.744	3186.3
713.931	3364.47
714.119	3272.31
714.306	3112.57
714.494	3260.02
714.682	3288.7
714.869	3260.02
715.057	3268.22
715.244	3235.45
715.432	3307.13
715.619	3296.89
715.807	3137.15
715.994	3182.2
716.182	3298.94
716.369	3245.69
716.556	3292.79
716.744	3126.91
716.931	3192.44
717.119	3348.09
717.306	3225.21
717.493	3260.02
717.681	3319.42
717.868	3202.68
718.055	3268.22
718.242	3194.49
718.43	3333.75
718.617	3235.45
718.804	3266.17
718.991	3331.7
719.179	3243.64
719.366	3317.37
719.553	3290.74
719.74	3280.5
719.927	3190.39
720.114	3214.97
720.301	3260.02
720.488	3178.11
720.676	3366.52
720.863	3116.67
721.05	3292.79
721.237	3264.12
721.424	3223.16
721.611	3186.3
721.798	3264.12
721.985	3403.38
722.172	3276.41
722.358	3298.94
722.545	3219.07
722.732	3217.02
722.919	3393.14
723.106	3159.67
723.293	3268.22
723.48	3200.63
723.667	3221.11
723.853	3298.94
724.04	3354.23
724.227	3354.23
724.414	3290.74
724.6	3292.79
724.787	3229.31
724.974	3370.62
725.161	3358.33
725.347	3227.26
725.534	3313.27
725.72	3161.72
725.907	3364.47
726.094	3309.18
726.28	3251.83
726.467	3217.02
726.653	3225.21
726.84	3305.08
727.027	3231.35
727.213	3198.59
727.4	3370.62
727.586	3104.38
727.773	3141.24
727.959	3131
728.145	3174.01
728.332	3194.49
728.518	3190.39
728.705	3202.68
728.891	3161.72
729.077	3208.83
729.264	3315.32
729.45	3235.45
729.636	3288.7
729.823	3118.72
730.009	3157.63
730.195	3217.02
730.382	3223.16
730.568	3255.93
730.754	3169.91
730.94	3260.02
731.126	3186.3
731.313	3348.09
731.499	3188.35
731.685	3243.64
731.871	3161.72
732.057	2952.83
732.243	3104.38
732.429	3071.61
732.615	3317.37
732.801	3110.52
732.987	3010.17
733.173	3094.14
733.359	3161.72
733.545	3219.07
733.731	3063.42
733.917	3124.86
734.103	3059.32
734.289	3188.35
734.475	3151.48
734.661	3155.58
734.847	3210.87
735.033	3118.72
735.219	3239.55
735.404	3147.39
735.59	3112.57
735.776	3088
735.962	3188.35
736.148	3100.28
736.333	3096.19
736.519	3178.11
736.705	3010.17
736.89	3090.04
737.076	3149.43
737.262	2963.07
737.447	3040.89
737.633	2938.49
737.819	2999.93
738.004	2934.4
738.19	2903.68
738.375	3079.8
738.561	2975.36
738.747	2987.65
738.932	2942.59
739.118	3022.46
739.303	2987.65
739.489	2946.69
739.674	2932.35
739.859	2858.62
740.045	2920.06
740.23	2870.91
740.416	2883.2
740.601	3006.08
740.786	2997.88
740.972	2778.75
741.157	2809.47
741.342	2832
741.528	2834.05
741.713	2993.79
741.898	2846.34
742.084	2854.53
742.269	2782.85
742.454	2907.77
742.639	2971.26
742.824	2764.42
743.01	2772.61
743.195	2786.94
743.38	2674.31
743.565	2670.21
743.75	2766.46
743.935	2700.93
744.12	2756.22
744.305	2633.35
744.49	2508.42
744.675	2614.91
744.86	2647.68
745.045	2604.67
745.23	2590.34
745.415	2635.39
745.6	2678.4
745.785	2592.39
745.97	2664.07
746.155	2596.48
746.34	2637.44
746.525	2616.96
746.71	2633.35
746.895	2418.31
747.079	2465.41
747.264	2444.93
747.449	2438.79
747.634	2518.66
747.819	2418.31
748.003	2393.73
748.188	2440.84
748.373	2467.46
748.557	2397.83
748.742	2379.4
748.927	2383.49
749.111	2295.43
749.296	2299.53
749.481	2412.17
749.665	2432.65
749.85	2166.41
750.034	2229.9
750.219	2162.31
750.404	2184.84
750.588	2109.07
750.773	2074.25
750.957	2227.85
751.141	2076.3
751.326	2147.98
751.51	2078.35
751.695	2084.49
751.879	2137.74
752.064	2109.07
752.248	1957.52
752.432	2088.59
752.617	2035.34
752.801	1971.85
752.985	2055.82
753.17	1963.66
753.354	1914.51
753.538	2043.53
753.722	1957.52
753.907	2002.57
754.091	2031.24
754.275	1832.59
754.459	1834.64
754.643	1924.75
754.828	1916.56
755.012	1834.64
755.196	1814.16
755.38	1834.64
755.564	1769.1
755.748	1801.87
755.932	1867.41
756.116	1668.75
756.3	1791.63
756.484	1670.8
756.668	1719.95
756.852	1658.51
757.036	1793.68
757.22	1762.96
757.404	1783.44
757.588	1603.22
757.772	1717.9
757.956	1611.41
758.14	1611.41
758.323	1595.03
758.507	1615.51
758.691	1592.98
758.875	1595.03
759.059	1588.88
759.242	1527.44
759.426	1580.69
759.61	1605.27
759.794	1496.72
759.977	1496.72
760.161	1627.79
760.345	1523.35
760.528	1461.91
760.712	1490.58
760.895	1478.29
761.079	1455.76
761.263	1384.09
761.446	1390.23
761.63	1509.01
761.813	1396.37
761.997	1455.76
762.18	1427.09
762.364	1390.23
762.547	1377.94
762.731	1437.33
762.914	1459.86
763.098	1431.19
763.281	1306.26
763.464	1296.02
763.648	1339.03
763.831	1375.89
764.015	1416.85
764.198	1334.93
764.381	1357.46
764.564	1336.98
764.748	1279.64
764.931	1375.89
765.114	1332.89
765.297	1425.04
765.481	1283.74
765.664	1461.91
765.847	1310.36
766.03	1250.97
766.213	1220.25
766.397	1216.15
766.58	1222.3
766.763	1261.21
766.946	1265.3
767.129	1255.06
767.312	1197.72
767.495	1146.52
767.678	1230.49
767.861	1185.43
768.044	1203.86
768.227	1312.41
768.41	1148.57
768.593	1248.92
768.776	1232.54
768.959	1171.1
769.142	1095.32
769.324	1123.99
769.507	1126.04
769.69	1191.58
769.873	1085.08
770.056	1228.44
770.239	1103.51
770.421	1144.47
770.604	1115.8
770.787	1083.03
770.97	1101.47
771.152	1078.94
771.335	1093.27
771.518	1113.75
771.7	964.25
771.883	1117.85
772.066	1121.95
772.248	1107.61
772.431	980.64
772.613	1154.71
772.796	1019.55
772.978	1134.23
773.161	1044.12
773.343	1050.27
773.526	1029.79
773.708	1023.64
773.891	976.54
774.073	1060.51
774.256	911
774.438	1072.79
774.621	917.15
774.803	949.92
774.985	898.72
775.168	941.72
775.35	974.49
775.532	1062.55
775.715	886.43
775.897	951.96
776.079	849.57
776.261	982.68
776.444	911
776.626	882.33
776.808	843.42
776.99	853.66
777.173	880.29
777.355	892.57
777.537	794.27
777.719	833.18
777.901	861.85
778.083	900.76
778.265	849.57
778.447	751.26
778.629	751.26
778.811	847.52
778.993	777.89
779.175	769.69
779.357	829.09
779.539	710.3
779.721	677.54
779.903	794.27
780.085	675.49
780.267	736.93
780.449	728.74
780.631	769.69
780.812	775.84
780.994	743.07
781.176	675.49
781.358	755.36
781.54	650.91
781.721	718.5
781.903	779.93
782.085	681.63
782.267	708.26
782.448	673.44
782.63	626.34
782.812	626.34
782.993	720.54
783.175	669.34
783.357	587.43
783.538	693.92
783.72	704.16
783.901	618.15
784.083	675.49
784.264	632.48
784.446	636.58
784.627	669.34
784.809	679.58
784.99	564.9
785.172	587.43
785.353	622.24
785.535	614.05
785.716	577.19
785.897	544.42
786.079	630.43
786.26	622.24
786.441	583.33
786.623	601.76
786.804	485.03
786.985	552.61
787.167	618.15
787.348	523.94
787.529	454.31
787.71	554.66
787.891	589.47
788.073	413.35
788.254	446.12
788.435	536.23
788.616	515.75
788.797	454.31
788.978	474.79
789.159	437.92
789.34	507.55
789.522	530.08
789.703	421.54
789.884	499.36
790.065	542.37
790.246	456.36
790.427	538.27
790.607	485.03
790.788	474.79
790.969	478.88
791.15	464.55
791.331	448.16
791.512	478.88
791.693	444.07
791.874	489.12
792.054	427.68
792.235	437.92
792.416	345.77
792.597	454.31
792.778	450.21
792.958	460.45
793.139	444.07
793.32	392.87
793.5	458.4
793.681	464.55
793.862	347.81
794.042	284.33
794.223	401.06
794.404	360.1
794.584	356.01
794.765	405.16
794.945	450.21
795.126	382.63
795.306	351.91
795.487	444.07
795.667	341.67
795.848	386.72
796.028	396.96
796.209	446.12
796.389	399.01
796.57	401.06
796.75	294.57
796.93	415.4
797.111	337.57
797.291	401.06
797.471	319.14
797.652	370.34
797.832	392.87
798.012	331.43
798.192	269.99
798.373	304.81
798.553	327.33
798.733	288.42
798.913	267.94
799.093	376.48
799.274	358.05
799.454	321.19
799.634	259.75
799.814	343.72
799.994	349.86
800.174	304.81
800.354	345.77
800.534	374.44
800.714	259.75
800.894	335.53
801.074	253.61
801.254	339.62
801.434	401.06
801.614	306.85
801.794	269.99
801.974	841.37
802.154	353.96
802.334	282.28
802.514	276.13
802.693	274.09
802.873	269.99
803.053	345.77
803.233	313
803.413	317.09
803.592	226.98
803.772	204.46
803.952	296.61
804.131	310.95
804.311	284.33
804.491	335.53
804.67	265.89
804.85	253.61
805.03	233.13
805.209	298.66
805.389	253.61
805.568	294.57
805.748	294.57
805.928	315.05
806.107	210.6
806.287	255.65
806.466	251.56
806.646	229.03
806.825	261.8
807.004	226.98
807.184	239.27
807.363	267.94
807.543	233.13
807.722	212.65
807.901	341.67
808.081	204.46
808.26	222.89
808.439	249.51
808.619	194.22
808.798	214.7
808.977	245.41
809.156	325.29
809.336	302.76
809.515	319.14
809.694	294.57
809.873	249.51
810.052	280.23
810.231	155.3
810.411	249.51
810.59	243.37
810.769	214.7
810.948	229.03
811.127	179.88
811.306	269.99
811.485	216.74
811.664	218.79
811.843	212.65
812.022	216.74
812.201	218.79
812.38	177.83
812.559	206.5
812.737	259.75
812.916	183.98
813.095	220.84
813.274	218.79
813.453	233.13
813.632	186.02
813.811	231.08
813.989	249.51
814.168	188.07
814.347	220.84
814.526	163.5
814.704	241.32
814.883	204.46
815.062	165.54
815.24	161.45
815.419	243.37
815.598	173.74
815.776	173.74
815.955	202.41
816.133	110.25
816.312	241.32
816.49	118.44
816.669	130.73
816.847	196.26
817.026	169.64
817.204	179.88
817.383	198.31
817.561	218.79
817.74	241.32
817.918	104.11
818.097	196.26
818.275	186.02
818.453	114.34
818.632	241.32
818.81	196.26
818.988	186.02
819.167	177.83
819.345	153.26
819.523	231.08
819.701	120.49
819.879	200.36
820.058	222.89
820.236	138.92
820.414	89.77
820.592	165.54
820.77	183.98
820.948	75.43
821.127	106.15
821.305	155.3
821.483	145.06
821.661	212.65
821.839	171.69
822.017	114.34
822.195	169.64
822.373	145.06
822.551	155.3
822.729	143.02
822.907	128.68
823.085	149.16
823.262	126.63
823.44	169.64
823.618	89.77
823.796	165.54
823.974	136.87
824.152	175.78
824.329	143.02
824.507	161.45
824.685	132.78
824.863	28.33
825.04	128.68
825.218	186.02
825.396	145.06
825.574	114.34
825.751	138.92
825.929	102.06
826.107	151.21
826.284	175.78
826.462	124.58
826.639	130.73
826.817	120.49
826.994	104.11
827.172	126.63
827.349	153.26
827.527	102.06
827.704	104.11
827.882	130.73
828.059	102.06
828.237	151.21
828.414	140.97
828.591	48.81
828.769	83.63
828.946	161.45
829.124	145.06
829.301	97.96
829.478	3.75
829.655	108.2
829.833	128.68
830.01	126.63
830.187	169.64
830.364	112.3
830.542	202.41
830.719	179.88
830.896	81.58
831.073	38.57
831.25	110.25
831.427	151.21
831.604	106.15
831.782	175.78
831.959	106.15
832.136	83.63
832.313	79.53
832.49	122.54
832.667	120.49
832.844	46.76
833.021	130.73
833.198	138.92
833.374	108.2
833.551	83.63
833.728	81.58
833.905	155.3
834.082	171.69
834.259	85.67
834.436	89.77
834.612	126.63
834.789	75.43
834.966	155.3
835.143	104.11
835.319	106.15
835.496	130.73
835.673	114.34
835.85	87.72
836.026	106.15
836.203	136.87
836.38	108.2
836.556	89.77
836.733	57
836.909	85.67
837.086	122.54
837.262	63.15
837.439	126.63
837.616	77.48
837.792	52.91
837.968	126.63
838.145	20.14
838.321	112.3
838.498	93.87
838.674	114.34
838.851	32.43
839.027	71.34
839.203	110.25
839.38	44.71
839.556	44.71
839.732	65.19
839.909	138.92
840.085	89.77
840.261	171.69
840.437	40.62
840.614	26.28
840.79	79.53
840.966	122.54
841.142	155.3
841.318	42.67
841.494	122.54
841.671	97.96
841.847	61.1
842.023	75.43
842.199	102.06
842.375	97.96
842.551	52.91
842.727	163.5
842.903	48.81
843.079	34.47
843.255	40.62
843.431	93.87
843.607	114.34
843.783	34.47
843.959	89.77
844.134	9.9
844.31	38.57
844.486	69.29
844.662	13.99
844.838	130.73
845.013	54.95
845.189	71.34
845.365	77.48
845.541	112.3
845.716	40.62
845.892	22.19
846.068	42.67
846.244	81.58
846.419	61.1
846.595	18.09
846.77	122.54
846.946	128.68
847.122	-2.39
847.297	59.05
847.473	122.54
847.648	24.23
847.824	48.81
847.999	61.1
848.175	106.15
848.35	30.38
848.526	50.86
848.701	147.11
848.876	73.39
849.052	102.06
849.227	67.24
849.403	20.14
849.578	106.15
849.753	46.76
849.929	114.34
850.104	50.86
850.279	79.53
850.454	81.58
850.63	153.26
850.805	63.15
850.98	32.43
851.155	11.95
851.33	36.52
851.505	77.48
851.681	89.77
851.856	81.58
852.031	61.1
852.206	11.95
852.381	42.67
852.556	36.52
852.731	40.62
852.906	50.86
853.081	85.67
853.256	40.62
853.431	44.71
853.606	24.23
853.781	42.67
853.956	3.75
854.131	46.76
854.305	75.43
854.48	132.78
854.655	-10.58
854.83	57
855.005	-39.25
855.18	77.48
855.354	77.48
855.529	44.71
855.704	57
855.879	63.15
856.053	-10.58
856.228	159.4
856.403	7.85
856.577	65.19
856.752	-35.16
856.926	-6.49
857.101	50.86
857.276	18.09
857.45	85.67
857.625	-0.34
857.799	63.15
857.974	36.52
858.148	-22.87
858.323	67.24
858.497	38.57
858.672	75.43
858.846	42.67
859.02	122.54
859.195	-41.3
859.369	38.57
859.543	75.43
859.718	69.29
859.892	79.53
860.066	-10.58
860.241	44.71
860.415	54.95
860.589	67.24
860.763	13.99
860.938	-8.53
861.112	93.87
861.286	-12.63
861.46	36.52
861.634	-35.16
861.808	18.09
861.982	30.38
862.157	18.09
862.331	59.05
862.505	-6.49
862.679	1.71
862.853	24.23
863.027	57
863.201	91.82
863.375	48.81
863.549	-4.44
863.722	24.23
863.896	7.85
864.07	-29.01
864.244	42.67
864.418	59.05
864.592	26.28
864.766	22.19
864.939	-16.73
865.113	3.75
865.287	-18.77
865.461	-0.34
865.634	36.52
865.808	28.33
865.982	13.99
866.156	104.11
866.329	85.67
866.503	24.23
866.676	24.23
866.85	75.43
867.024	40.62
867.197	-82.26
867.371	26.28
867.544	36.52
867.718	-76.12
867.891	61.1
868.065	132.78
868.238	9.9
868.412	89.77
868.585	57
868.759	-10.58
868.932	-18.77
869.105	-29.01
869.279	13.99
869.452	26.28
869.625	54.95
869.799	42.67
869.972	26.28
870.145	34.47
870.319	36.52
870.492	-14.68
870.665	44.71
870.838	16.04
871.011	-16.73
871.185	24.23
871.358	-8.53
871.531	143.02
871.704	-2.39
871.877	16.04
872.05	-61.78
872.223	-37.2
872.396	30.38
872.569	75.43
872.742	22.19
872.915	52.91
873.088	57
873.261	-2.39
873.434	63.15
873.607	50.86
873.78	-0.34
873.953	-2.39
874.126	-8.53
874.299	40.62
874.471	18.09
874.644	-16.73
874.817	40.62
874.99	83.63
875.163	46.76
875.335	106.15
875.508	28.33
875.681	85.67
875.853	28.33
876.026	-43.35
876.199	54.95
876.371	52.91
876.544	69.29
876.717	61.1
876.889	40.62
877.062	36.52
877.234	36.52
877.407	5.8
877.579	13.99
877.752	81.58
877.924	81.58
878.097	48.81
878.269	40.62
878.442	-20.82
878.614	57
878.786	71.34
878.959	-10.58
879.131	81.58
879.303	57
879.476	24.23
879.648	57
879.82	36.52
879.993	71.34
880.165	26.28
880.337	-41.3
880.509	22.19
880.681	-51.54
880.854	20.14
881.026	65.19
881.198	128.68
881.37	16.04
881.542	95.91
881.714	-4.44
881.886	-2.39
882.058	22.19
882.23	-12.63
882.402	65.19
882.574	-16.73
882.746	61.1
882.918	63.15
883.09	134.82
883.262	3.75
883.434	-16.73
883.606	5.8
883.778	-16.73
883.95	81.58
884.122	73.39
884.293	59.05
884.465	79.53
884.637	73.39
884.809	-35.16
884.98	63.15
885.152	-10.58
885.324	-4.44
885.496	9.9
885.667	-45.4
885.839	-10.58
886.011	91.82
886.182	7.85
886.354	59.05
886.525	22.19
886.697	50.86
886.869	20.14
887.04	9.9
887.212	40.62
887.383	1.71
887.555	-39.25
887.726	-20.82
887.897	-2.39
888.069	-10.58
888.24	-49.49
888.412	57
888.583	-2.39
888.754	97.96
888.926	-14.68
889.097	-35.16
889.268	-4.44
889.44	57
889.611	-8.53
889.782	-8.53
889.953	-0.34
890.125	63.15
890.296	32.43
890.467	36.52
890.638	-6.49
890.809	57
890.98	3.75
891.151	32.43
891.323	28.33
891.494	34.47
891.665	30.38
891.836	54.95
892.007	77.48
892.178	5.8
892.349	-47.44
892.52	57
892.691	22.19
892.862	-2.39
893.032	48.81
893.203	-37.2
893.374	48.81
893.545	32.43
893.716	-2.39
893.887	-2.39
894.057	16.04
894.228	44.71
894.399	16.04
894.57	89.77
894.74	48.81
894.911	145.06
895.082	46.76
895.253	77.48
895.423	38.57
895.594	-117.08
895.764	-2.39
895.935	22.19
896.106	34.47
896.276	22.19
896.447	-0.34
896.617	-2.39
896.788	40.62
896.958	-2.39
897.129	-43.35
897.299	11.95
897.47	-2.39
897.64	52.91
897.81	30.38
897.981	36.52
898.151	-51.54
898.322	22.19
898.492	-12.63
898.662	38.57
898.832	-16.73
899.003	22.19
899.173	34.47
899.343	77.48
899.513	-8.53
