Data from USB4F104151__58__10-23-53-047.txt Node

Date: Wed Mar 12 10:23:53 EDT 2025
User: louis
Spectrometer: USB4F10415
Trigger mode: 4
Integration Time (sec): 3.000000E-2
Scans to average: 1
Electric dark correction enabled: true
Nonlinearity correction enabled: false
Boxcar width: 0
XAxis mode: Wavelengths
Number of Pixels in Spectrum: 3648
>>>>>Begin Spectral Data<<<<<
178.204	-87.55
178.424	-87.55
178.644	-87.55
178.864	-116.22
179.084	-67.07
179.304	-17.92
179.524	-73.21
179.744	37.38
179.964	59.9
180.184	-46.59
180.404	25.09
180.624	-40.45
180.844	-22.02
181.064	-5.63
181.283	8.7
181.503	31.23
181.723	43.52
181.943	66.05
182.163	57.86
182.383	27.14
182.602	51.71
182.822	43.52
183.042	27.14
183.262	39.42
183.482	6.66
183.701	10.75
183.921	131.58
184.141	2.56
184.361	27.14
184.58	-26.11
184.8	-3.58
185.02	64
185.239	66.05
185.459	-3.58
185.679	92.67
185.898	35.33
186.118	-22.02
186.338	33.28
186.557	90.62
186.777	47.62
186.997	-40.45
187.216	39.42
187.436	72.19
187.655	-22.02
187.875	68.09
188.095	-13.82
188.314	90.62
188.534	59.9
188.753	45.57
188.973	61.95
189.192	35.33
189.412	41.47
189.631	76.29
189.851	23.04
190.07	35.33
190.29	16.9
190.509	10.75
190.729	49.66
190.948	49.66
191.168	109.05
191.387	-5.63
191.607	45.57
191.826	135.68
192.045	27.14
192.265	57.86
192.484	25.09
192.704	43.52
192.923	-46.59
193.142	158.21
193.362	43.52
193.581	68.09
193.8	12.8
194.02	66.05
194.239	23.04
194.458	66.05
194.678	6.66
194.897	84.48
195.116	10.75
195.335	76.29
195.555	41.47
195.774	16.9
195.993	10.75
196.212	10.75
196.432	64
196.651	47.62
196.87	-5.63
197.089	125.44
197.308	98.81
197.528	92.67
197.747	72.19
197.966	61.95
198.185	76.29
198.404	18.94
198.623	20.99
198.842	111.1
199.062	135.68
199.281	70.14
199.5	43.52
199.719	47.62
199.938	53.76
200.157	90.62
200.376	16.9
200.595	4.61
200.814	29.18
201.033	70.14
201.252	20.99
201.471	31.23
201.69	84.48
201.909	51.71
202.128	39.42
202.347	74.24
202.566	98.81
202.785	102.91
203.004	14.85
203.223	64
203.442	49.66
203.661	-15.87
203.879	51.71
204.098	76.29
204.317	45.57
204.536	109.05
204.755	25.09
204.974	23.04
205.193	16.9
205.411	121.34
205.63	-17.92
205.849	74.24
206.068	4.61
206.287	72.19
206.505	74.24
206.724	6.66
206.943	66.05
207.162	10.75
207.381	90.62
207.599	61.95
207.818	43.52
208.037	-11.78
208.255	86.53
208.474	82.43
208.693	8.7
208.911	117.25
209.13	20.99
209.349	53.76
209.567	0.51
209.786	74.24
210.005	20.99
210.223	35.33
210.442	-11.78
210.661	59.9
210.879	-9.73
211.098	35.33
211.316	-5.63
211.535	51.71
211.753	-11.78
211.972	53.76
212.191	57.86
212.409	8.7
212.628	27.14
212.846	68.09
213.065	82.43
213.283	109.05
213.502	64
213.72	82.43
213.938	47.62
214.157	-38.4
214.375	10.75
214.594	45.57
214.812	113.15
215.031	6.66
215.249	23.04
215.467	16.9
215.686	94.72
215.904	-7.68
216.122	35.33
216.341	-11.78
216.559	41.47
216.778	6.66
216.996	57.86
217.214	68.09
217.432	-30.21
217.651	61.95
217.869	55.81
218.087	31.23
218.306	23.04
218.524	70.14
218.742	84.48
218.96	68.09
219.179	27.14
219.397	90.62
219.615	166.4
219.833	35.33
220.051	2.56
220.27	51.71
220.488	72.19
220.706	68.09
220.924	20.99
221.142	74.24
221.36	-17.92
221.578	53.76
221.796	-1.54
222.015	16.9
222.233	68.09
222.451	90.62
222.669	41.47
222.887	53.76
223.105	57.86
223.323	53.76
223.541	-36.35
223.759	23.04
223.977	37.38
224.195	166.4
224.413	27.14
224.631	57.86
224.849	45.57
225.067	80.38
225.285	102.91
225.503	18.94
225.721	47.62
225.939	0.51
226.157	66.05
226.375	133.63
226.592	27.14
226.81	82.43
227.028	35.33
227.246	29.18
227.464	10.75
227.682	25.09
227.9	29.18
228.117	137.73
228.335	-1.54
228.553	-9.73
228.771	-13.82
228.989	-7.68
229.206	84.48
229.424	68.09
229.642	72.19
229.86	-79.36
230.077	76.29
230.295	35.33
230.513	96.77
230.731	84.48
230.948	76.29
231.166	-17.92
231.384	23.04
231.601	-26.11
231.819	88.57
232.037	29.18
232.254	74.24
232.472	76.29
232.689	-42.5
232.907	88.57
233.125	41.47
233.342	86.53
233.56	10.75
233.777	47.62
233.995	35.33
234.213	152.06
234.43	92.67
234.648	70.14
234.865	35.33
235.083	47.62
235.3	64
235.518	66.05
235.735	2.56
235.953	84.48
236.17	45.57
236.388	68.09
236.605	-5.63
236.822	43.52
237.04	43.52
237.257	49.66
237.475	59.9
237.692	66.05
237.909	-15.87
238.127	68.09
238.344	45.57
238.562	10.75
238.779	-5.63
238.996	8.7
239.214	31.23
239.431	-13.82
239.648	43.52
239.865	88.57
240.083	25.09
240.3	27.14
240.517	18.94
240.735	74.24
240.952	2.56
241.169	86.53
241.386	25.09
241.603	88.57
241.821	-19.97
242.038	14.85
242.255	-7.68
242.472	29.18
242.689	84.48
242.907	33.28
243.124	78.33
243.341	82.43
243.558	33.28
243.775	-9.73
243.992	4.61
244.209	100.86
244.426	72.19
244.643	20.99
244.86	61.95
245.078	23.04
245.295	51.71
245.512	27.14
245.729	12.8
245.946	80.38
246.163	92.67
246.38	111.1
246.597	43.52
246.814	27.14
247.031	-1.54
247.248	43.52
247.464	92.67
247.681	64
247.898	74.24
248.115	84.48
248.332	68.09
248.549	68.09
248.766	57.86
248.983	53.76
249.2	-13.82
249.417	49.66
249.633	68.09
249.85	2.56
250.067	2.56
250.284	0.51
250.501	20.99
250.717	117.25
250.934	23.04
251.151	43.52
251.368	84.48
251.585	2.56
251.801	45.57
252.018	72.19
252.235	37.38
252.451	59.9
252.668	-28.16
252.885	64
253.102	100.86
253.318	64
253.535	16.9
253.752	25.09
253.968	-1.54
254.185	51.71
254.401	-13.82
254.618	59.9
254.835	80.38
255.051	61.95
255.268	66.05
255.484	31.23
255.701	68.09
255.917	47.62
256.134	-3.58
256.351	16.9
256.567	41.47
256.784	59.9
257	31.23
257.217	53.76
257.433	61.95
257.65	31.23
257.866	68.09
258.082	41.47
258.299	-11.78
258.515	-26.11
258.732	29.18
258.948	4.61
259.165	12.8
259.381	-50.69
259.597	72.19
259.814	23.04
260.03	27.14
260.246	41.47
260.463	33.28
260.679	96.77
260.895	70.14
261.112	107.01
261.328	33.28
261.544	53.76
261.761	-11.78
261.977	49.66
262.193	76.29
262.409	64
262.626	2.56
262.842	39.42
263.058	8.7
263.274	104.96
263.49	18.94
263.707	27.14
263.923	43.52
264.139	27.14
264.355	43.52
264.571	109.05
264.787	20.99
265.004	2.56
265.22	-26.11
265.436	78.33
265.652	100.86
265.868	43.52
266.084	18.94
266.3	82.43
266.516	12.8
266.732	27.14
266.948	84.48
267.164	20.99
267.38	51.71
267.596	94.72
267.812	31.23
268.028	31.23
268.244	4.61
268.46	94.72
268.676	51.71
268.892	10.75
269.108	53.76
269.324	-54.78
269.54	-22.02
269.756	129.53
269.972	2.56
270.188	66.05
270.403	43.52
270.619	35.33
270.835	31.23
271.051	8.7
271.267	23.04
271.483	59.9
271.698	109.05
271.914	64
272.13	68.09
272.346	61.95
272.562	98.81
272.777	14.85
272.993	61.95
273.209	39.42
273.425	100.86
273.64	115.2
273.856	66.05
274.072	0.51
274.287	84.48
274.503	104.96
274.719	47.62
274.934	80.38
275.15	-9.73
275.366	35.33
275.581	6.66
275.797	64
276.012	102.91
276.228	-9.73
276.444	57.86
276.659	39.42
276.875	10.75
277.09	94.72
277.306	-3.58
277.521	51.71
277.737	72.19
277.952	100.86
278.168	23.04
278.383	86.53
278.599	41.47
278.814	61.95
279.03	41.47
279.245	37.38
279.461	51.71
279.676	123.39
279.892	-13.82
280.107	14.85
280.322	14.85
280.538	145.92
280.753	53.76
280.969	90.62
281.184	31.23
281.399	94.72
281.615	35.33
281.83	80.38
282.045	72.19
282.26	-13.82
282.476	123.39
282.691	14.85
282.906	43.52
283.122	59.9
283.337	47.62
283.552	141.82
283.767	35.33
283.983	-13.82
284.198	-28.16
284.413	74.24
284.628	-26.11
284.843	72.19
285.058	27.14
285.274	47.62
285.489	-13.82
285.704	61.95
285.919	35.33
286.134	66.05
286.349	104.96
286.564	49.66
286.779	115.2
286.995	-7.68
287.21	14.85
287.425	115.2
287.64	35.33
287.855	25.09
288.07	27.14
288.285	143.87
288.5	59.9
288.715	27.14
288.93	14.85
289.145	-24.06
289.36	66.05
289.575	2.56
289.79	82.43
290.004	43.52
290.219	53.76
290.434	20.99
290.649	23.04
290.864	49.66
291.079	10.75
291.294	80.38
291.509	51.71
291.724	72.19
291.938	25.09
292.153	66.05
292.368	72.19
292.583	154.11
292.798	61.95
293.012	88.57
293.227	27.14
293.442	72.19
293.657	82.43
293.871	88.57
294.086	76.29
294.301	113.15
294.516	16.9
294.73	57.86
294.945	16.9
295.16	76.29
295.374	84.48
295.589	66.05
295.804	16.9
296.018	84.48
296.233	18.94
296.447	82.43
296.662	53.76
296.877	57.86
297.091	84.48
297.306	49.66
297.52	37.38
297.735	145.92
297.949	39.42
298.164	102.91
298.378	49.66
298.593	64
298.807	20.99
299.022	131.58
299.236	47.62
299.451	35.33
299.665	84.48
299.88	131.58
300.094	37.38
300.309	2.56
300.523	49.66
300.737	123.39
300.952	82.43
301.166	84.48
301.381	25.09
301.595	10.75
301.809	18.94
302.024	53.76
302.238	8.7
302.452	170.49
302.667	29.18
302.881	68.09
303.095	59.9
303.309	37.38
303.524	96.77
303.738	90.62
303.952	14.85
304.166	135.68
304.381	25.09
304.595	92.67
304.809	66.05
305.023	84.48
305.237	18.94
305.452	18.94
305.666	23.04
305.88	68.09
306.094	57.86
306.308	94.72
306.522	45.57
306.736	117.25
306.95	84.48
307.164	14.85
307.379	14.85
307.593	66.05
307.807	125.44
308.021	111.1
308.235	55.81
308.449	18.94
308.663	57.86
308.877	64
309.091	14.85
309.305	45.57
309.519	25.09
309.733	39.42
309.947	37.38
310.161	39.42
310.374	59.9
310.588	23.04
310.802	-5.63
311.016	18.94
311.23	115.2
311.444	8.7
311.658	43.52
311.872	61.95
312.085	14.85
312.299	10.75
312.513	68.09
312.727	18.94
312.941	-17.92
313.154	59.9
313.368	64
313.582	-3.58
313.796	-17.92
314.009	113.15
314.223	10.75
314.437	57.86
314.651	76.29
314.864	76.29
315.078	90.62
315.292	72.19
315.505	23.04
315.719	-5.63
315.933	76.29
316.146	98.81
316.36	18.94
316.573	64
316.787	68.09
317.001	70.14
317.214	31.23
317.428	59.9
317.641	39.42
317.855	27.14
318.068	88.57
318.282	68.09
318.495	129.53
318.709	80.38
318.922	66.05
319.136	61.95
319.349	113.15
319.563	-9.73
319.776	51.71
319.99	49.66
320.203	35.33
320.417	104.96
320.63	117.25
320.843	98.81
321.057	23.04
321.27	29.18
321.483	59.9
321.697	55.81
321.91	51.71
322.124	39.42
322.337	82.43
322.55	49.66
322.763	104.96
322.977	100.86
323.19	92.67
323.403	98.81
323.617	78.33
323.83	111.1
324.043	59.9
324.256	-9.73
324.469	37.38
324.683	59.9
324.896	14.85
325.109	86.53
325.322	18.94
325.535	35.33
325.748	76.29
325.962	64
326.175	6.66
326.388	104.96
326.601	18.94
326.814	80.38
327.027	115.2
327.24	117.25
327.453	35.33
327.666	39.42
327.879	33.28
328.092	68.09
328.305	23.04
328.518	123.39
328.731	-1.54
328.944	23.04
329.157	59.9
329.37	119.29
329.583	80.38
329.796	20.99
330.009	12.8
330.222	-5.63
330.435	84.48
330.648	27.14
330.861	0.51
331.073	72.19
331.286	76.29
331.499	53.76
331.712	59.9
331.925	68.09
332.138	113.15
332.35	61.95
332.563	88.57
332.776	104.96
332.989	88.57
333.202	2.56
333.414	0.51
333.627	84.48
333.84	18.94
334.053	68.09
334.265	41.47
334.478	61.95
334.691	88.57
334.903	111.1
335.116	78.33
335.329	59.9
335.541	123.39
335.754	51.71
335.966	68.09
336.179	10.75
336.392	100.86
336.604	-81.41
336.817	84.48
337.029	10.75
337.242	4.61
337.454	-11.78
337.667	57.86
337.88	84.48
338.092	86.53
338.305	147.97
338.517	45.57
338.729	-1.54
338.942	98.81
339.154	41.47
339.367	90.62
339.579	129.53
339.792	43.52
340.004	90.62
340.217	12.8
340.429	39.42
340.641	10.75
340.854	31.23
341.066	33.28
341.278	111.1
341.491	143.87
341.703	31.23
341.915	-5.63
342.128	92.67
342.34	39.42
342.552	109.05
342.764	123.39
342.977	96.77
343.189	90.62
343.401	70.14
343.613	12.8
343.826	35.33
344.038	0.51
344.25	57.86
344.462	80.38
344.674	39.42
344.886	51.71
345.099	31.23
345.311	82.43
345.523	66.05
345.735	8.7
345.947	43.52
346.159	53.76
346.371	129.53
346.583	-15.87
346.795	135.68
347.007	47.62
347.219	96.77
347.431	20.99
347.643	94.72
347.855	59.9
348.067	68.09
348.279	41.47
348.491	2.56
348.703	61.95
348.915	35.33
349.127	45.57
349.339	111.1
349.551	31.23
349.763	117.25
349.975	-38.4
350.187	76.29
350.399	92.67
350.61	92.67
350.822	2.56
351.034	61.95
351.246	86.53
351.458	64
351.669	47.62
351.881	82.43
352.093	100.86
352.305	68.09
352.517	84.48
352.728	68.09
352.94	84.48
353.152	-5.63
353.363	-38.4
353.575	86.53
353.787	119.29
353.999	133.63
354.21	123.39
354.422	88.57
354.633	6.66
354.845	139.77
355.057	-7.68
355.268	96.77
355.48	51.71
355.692	39.42
355.903	96.77
356.115	111.1
356.326	25.09
356.538	94.72
356.749	80.38
356.961	119.29
357.172	55.81
357.384	74.24
357.595	176.64
357.807	139.77
358.018	35.33
358.23	70.14
358.441	53.76
358.653	39.42
358.864	115.2
359.075	20.99
359.287	35.33
359.498	80.38
359.709	31.23
359.921	88.57
360.132	41.47
360.344	92.67
360.555	35.33
360.766	121.34
360.977	64
361.189	68.09
361.4	127.49
361.611	90.62
361.823	31.23
362.034	78.33
362.245	147.97
362.456	6.66
362.667	25.09
362.879	109.05
363.09	45.57
363.301	98.81
363.512	57.86
363.723	66.05
363.935	-7.68
364.146	109.05
364.357	88.57
364.568	59.9
364.779	4.61
364.99	76.29
365.201	107.01
365.412	88.57
365.623	61.95
365.834	47.62
366.045	10.75
366.256	78.33
366.467	129.53
366.678	66.05
366.889	98.81
367.1	51.71
367.311	158.21
367.522	104.96
367.733	68.09
367.944	86.53
368.155	94.72
368.366	72.19
368.577	125.44
368.788	84.48
368.999	23.04
369.209	43.52
369.42	51.71
369.631	104.96
369.842	76.29
370.053	109.05
370.264	23.04
370.474	66.05
370.685	64
370.896	76.29
371.107	113.15
371.317	80.38
371.528	27.14
371.739	104.96
371.95	-30.21
372.16	90.62
372.371	31.23
372.582	31.23
372.792	119.29
373.003	27.14
373.214	49.66
373.424	84.48
373.635	-38.4
373.846	80.38
374.056	86.53
374.267	113.15
374.477	35.33
374.688	59.9
374.898	96.77
375.109	64
375.319	59.9
375.53	66.05
375.74	152.06
375.951	102.91
376.161	125.44
376.372	41.47
376.582	18.94
376.793	109.05
377.003	16.9
377.214	59.9
377.424	55.81
377.635	94.72
377.845	64
378.055	59.9
378.266	18.94
378.476	51.71
378.686	47.62
378.897	18.94
379.107	90.62
379.317	80.38
379.528	55.81
379.738	147.97
379.948	-22.02
380.158	49.66
380.369	84.48
380.579	23.04
380.789	104.96
380.999	70.14
381.21	78.33
381.42	102.91
381.63	6.66
381.84	78.33
382.05	47.62
382.261	86.53
382.471	49.66
382.681	59.9
382.891	129.53
383.101	86.53
383.311	57.86
383.521	104.96
383.731	78.33
383.941	94.72
384.151	88.57
384.361	61.95
384.571	61.95
384.781	170.49
384.991	59.9
385.201	145.92
385.411	92.67
385.621	66.05
385.831	88.57
386.041	115.2
386.251	27.14
386.461	84.48
386.671	86.53
386.881	88.57
387.091	115.2
387.301	133.63
387.511	90.62
387.72	45.57
387.93	76.29
388.14	8.7
388.35	47.62
388.56	147.97
388.769	131.58
388.979	117.25
389.189	102.91
389.399	115.2
389.609	76.29
389.818	18.94
390.028	61.95
390.238	98.81
390.447	53.76
390.657	-11.78
390.867	14.85
391.076	29.18
391.286	113.15
391.496	117.25
391.705	47.62
391.915	47.62
392.125	115.2
392.334	84.48
392.544	76.29
392.753	119.29
392.963	76.29
393.172	84.48
393.382	49.66
393.591	184.83
393.801	113.15
394.01	188.93
394.22	70.14
394.429	109.05
394.639	64
394.848	104.96
395.058	135.68
395.267	109.05
395.477	195.07
395.686	143.87
395.895	117.25
396.105	131.58
396.314	51.71
396.524	133.63
396.733	76.29
396.942	145.92
397.152	166.4
397.361	131.58
397.57	121.34
397.78	211.45
397.989	94.72
398.198	139.77
398.407	86.53
398.617	143.87
398.826	78.33
399.035	197.12
399.244	135.68
399.453	166.4
399.663	88.57
399.872	190.97
400.081	84.48
400.29	137.73
400.499	74.24
400.708	139.77
400.917	219.64
401.127	133.63
401.336	141.82
401.545	145.92
401.754	109.05
401.963	188.93
402.172	190.97
402.381	117.25
402.59	113.15
402.799	145.92
403.008	156.16
403.217	188.93
403.426	143.87
403.635	74.24
403.844	156.16
404.053	121.34
404.262	176.64
404.471	211.45
404.68	186.88
404.888	190.97
405.097	121.34
405.306	131.58
405.515	182.78
405.724	174.59
405.933	201.21
406.142	221.69
406.35	219.64
406.559	215.55
406.768	207.36
406.977	229.88
407.185	295.42
407.394	256.51
407.603	311.8
407.812	297.47
408.02	289.28
408.229	305.66
408.438	307.71
408.646	270.84
408.855	193.02
409.064	340.47
409.272	397.82
409.481	416.25
409.69	358.91
409.898	328.19
410.107	354.81
410.315	352.76
410.524	387.58
410.733	377.34
410.941	379.39
411.15	432.63
411.358	479.74
411.567	524.79
411.775	475.64
411.984	580.09
412.192	475.64
412.401	526.84
412.609	551.42
412.818	653.81
413.026	600.57
413.234	627.19
413.443	602.61
413.651	651.77
413.86	674.29
414.068	715.25
414.276	795.12
414.485	727.54
414.693	752.12
414.901	776.69
415.11	940.53
415.318	836.08
415.526	893.43
415.734	922.1
415.943	944.63
416.151	967.15
416.359	942.58
416.567	946.67
416.776	1143.28
416.984	1006.06
417.192	1206.77
417.4	1157.61
417.608	1178.09
417.817	1210.86
418.025	1294.83
418.233	1348.08
418.441	1337.84
418.649	1436.14
418.857	1444.33
419.065	1530.34
419.273	1493.48
419.481	1610.22
419.689	1741.29
419.897	1845.73
420.105	1743.33
420.313	1849.83
420.521	1874.4
420.729	1919.46
420.937	2142.69
421.145	2066.91
421.353	2245.09
421.561	2302.43
421.769	2353.63
421.977	2433.5
422.185	2281.95
422.393	2472.41
422.601	2695.64
422.809	2673.11
423.017	2750.93
423.224	2953.68
423.432	2963.92
423.64	2972.11
423.848	3152.34
424.056	3097.04
424.263	3252.69
424.471	3387.85
424.679	3434.96
424.887	3615.18
425.094	3721.67
425.302	3836.36
425.51	3842.5
425.718	3955.14
425.925	3953.09
426.133	4143.55
426.341	4456.89
426.548	4610.49
426.756	4573.63
426.964	4622.78
427.171	4917.68
427.379	4878.77
427.586	5052.85
427.794	5237.17
428.001	5589.42
428.209	5644.71
428.417	5663.15
428.624	6039.97
428.832	6160.8
429.039	5933.48
429.247	6138.27
429.454	6719.9
429.662	6951.32
429.869	6535.58
430.076	7088.53
430.284	6908.31
430.491	7113.11
430.699	7692.68
430.906	7653.77
431.114	7657.87
431.321	8016.26
431.528	8171.91
431.736	8556.93
431.943	8776.06
432.15	8862.07
432.358	8698.24
432.565	9398.64
432.772	9400.69
432.979	9898.34
433.187	9931.11
433.394	10154.34
433.601	10721.63
433.808	10695
434.016	10608.99
434.223	11002.2
434.43	11518.29
434.637	11413.84
434.844	11981.13
435.052	12392.77
435.259	12183.88
435.466	12491.07
435.673	12429.63
435.88	13168.95
436.087	13984.04
436.294	13746.48
436.501	13609.26
436.708	13719.85
436.915	13994.28
437.122	14975.26
437.329	14840.09
437.537	15464.72
437.743	15538.45
437.95	15528.21
438.157	16075.02
438.364	16670.98
438.571	16541.96
438.778	16926.97
438.985	18485.48
439.192	17625.33
439.399	18239.72
439.606	17912.05
439.813	18780.39
440.02	19765.46
440.227	19681.49
440.433	19536.09
440.64	20400.33
440.847	19747.03
441.054	20492.49
441.261	21721.27
441.467	21579.96
441.674	21874.87
441.881	22743.2
442.088	22677.67
442.294	22454.44
442.501	22962.34
442.708	23494.81
442.914	24227.98
443.121	25671.8
443.328	24699.02
443.534	26691.69
443.741	25518.2
443.948	25315.45
444.154	27115.62
444.361	27007.08
444.568	27076.71
444.774	26955.88
444.981	27482.2
445.187	28155.99
445.394	29589.56
445.6	28725.32
445.807	32225.3
446.013	30480.43
446.22	31457.31
446.426	32053.27
446.633	32649.23
446.839	33378.31
447.046	32004.12
447.252	34027.51
447.459	33994.75
447.665	33515.52
447.871	35254.25
448.078	36700.11
448.284	35074.02
448.491	35962.84
448.697	36870.09
448.903	38019
449.11	38111.16
449.316	37089.23
449.522	38170.55
449.728	38707.12
449.935	39083.95
450.141	39122.86
450.347	40130.46
450.553	38467.51
450.76	39026.6
450.966	40406.94
451.172	39968.67
451.378	40615.83
451.584	40114.08
451.791	41154.44
451.997	40415.13
452.203	41303.95
452.409	41277.32
452.615	41238.41
452.821	39473.06
453.027	39227.31
453.233	41166.73
453.44	39518.12
453.646	40114.08
453.852	39835.55
454.058	40826.77
454.264	39032.75
454.47	40169.37
454.676	39024.56
454.882	40331.16
455.088	37320.65
455.294	37390.28
455.5	37736.38
455.705	38283.19
455.911	36820.94
456.117	36175.83
456.323	35895.26
456.529	33548.29
456.735	35082.22
456.941	34154.49
457.147	33822.72
457.352	32972.81
457.558	32086.04
457.764	32573.45
457.97	31883.29
458.176	31019.05
458.381	31197.22
458.587	29489.21
458.793	29210.69
458.999	28098.64
459.204	30072.89
459.41	29116.48
459.616	27285.6
459.821	27721.82
460.027	26972.26
460.233	26607.72
460.438	25288.83
460.644	25882.74
460.85	24438.92
461.055	24107.15
461.261	23994.51
461.466	22268.08
461.672	21438.65
461.878	23079.07
462.083	21309.63
462.289	21108.93
462.494	21018.82
462.7	20027.6
462.905	19554.52
463.111	20183.24
463.316	20291.79
463.522	20078.8
463.727	19851.47
463.932	19757.27
464.138	19794.13
464.343	19695.83
464.549	19204.31
464.754	19843.28
464.959	19704.02
465.165	19704.02
465.37	18718.95
465.575	18075.88
465.781	18919.65
465.986	19040.48
466.191	18323.69
466.397	17920.24
466.602	17142.01
466.807	17733.87
467.012	17619.19
467.218	17692.91
467.423	17535.22
467.628	17760.5
467.833	18172.14
468.038	17729.78
468.244	17066.24
468.449	17623.28
468.654	17240.31
468.859	16924.93
469.064	17101.05
469.269	16451.84
469.474	16228.62
469.679	16638.21
469.885	16351.49
470.09	16531.72
470.295	16267.53
470.5	15905.04
470.705	16091.4
470.91	15759.63
471.115	15589.65
471.32	15837.45
471.525	15612.18
471.73	15145.24
471.935	15374.61
472.139	15065.37
472.344	15022.36
472.549	15038.75
472.754	14772.51
472.959	14590.24
473.164	14131.5
473.369	13838.64
473.574	14344.49
473.778	14229.8
473.983	14010.67
474.188	13904.17
474.393	13527.35
474.598	13353.27
474.802	13347.12
475.007	13406.52
475.212	13445.43
475.417	12812.6
475.621	12824.89
475.826	12894.52
476.031	12581.18
476.235	12597.57
476.44	12556.61
476.645	12403.01
476.849	12546.37
477.054	12036.42
477.259	12028.23
477.463	12142.92
477.668	11661.65
477.872	11784.52
478.077	11649.36
478.282	11385.17
478.486	11368.79
478.691	11379.03
478.895	11133.27
479.1	11102.55
479.304	11051.35
479.509	10666.33
479.713	11082.07
479.918	10594.65
480.122	10494.3
480.326	10705.24
480.531	10781.02
480.735	10586.46
480.94	10588.51
481.144	11012.44
481.348	10223.97
481.553	10649.95
481.757	10363.23
481.961	10580.32
482.166	10729.82
482.37	10475.87
482.574	10432.86
482.778	10250.6
482.983	10746.2
483.187	10451.3
483.391	10561.89
483.595	10312.03
483.8	10250.6
484.004	10402.15
484.208	10492.26
484.412	10467.68
484.616	10262.88
484.821	10420.58
485.025	10434.91
485.229	10342.75
485.433	10398.05
485.637	10590.56
485.841	10301.79
486.045	10324.32
486.249	10430.82
486.453	10338.66
486.657	10328.42
486.861	10412.39
487.065	10326.37
487.269	10367.33
487.473	10174.82
487.677	10584.41
487.881	10424.67
488.085	10441.06
488.289	10320.23
488.493	10486.11
488.697	10447.2
488.901	10494.3
489.105	10537.31
489.309	10469.73
489.512	10664.29
489.716	10402.15
489.92	10531.17
490.124	10535.26
490.328	10385.76
490.531	10580.32
490.735	10594.65
490.939	10789.21
491.143	10580.32
491.346	10731.87
491.55	10948.95
491.754	11104.6
491.958	11129.17
492.161	11034.97
492.365	11135.32
492.569	11030.87
492.772	11127.13
492.976	11184.47
493.18	11163.99
493.383	11307.35
493.587	11133.27
493.79	11485.52
493.994	11499.86
494.197	11501.9
494.401	11762
494.605	11612.49
494.808	11950.41
495.012	11886.92
495.215	11827.53
495.419	12138.82
495.622	12095.82
495.825	12165.45
496.029	12169.54
496.232	12472.64
496.436	12374.34
496.639	12775.74
496.843	12552.51
497.046	13035.83
497.249	13048.12
497.453	13089.08
497.656	13111.61
497.859	13216.05
498.063	13633.84
498.266	13566.26
498.469	13654.32
498.673	13797.68
498.876	14094.63
499.079	14223.65
499.282	14182.7
499.485	14629.15
499.689	14565.67
499.892	14651.68
500.095	14709.02
500.298	15104.28
500.501	15065.37
500.705	15442.2
500.908	15597.84
501.111	15700.24
501.314	15814.93
501.517	16154.89
501.72	16410.89
501.923	16201.99
502.126	16767.23
502.329	17090.81
502.532	16722.18
502.735	17168.63
502.938	17518.84
503.141	17484.02
503.344	17905.9
503.547	17803.5
503.75	18262.25
503.953	18442.47
504.156	18528.49
504.359	18690.27
504.562	18833.63
504.765	19210.46
504.968	19466.45
505.17	19742.93
505.373	19585.24
505.576	20025.55
505.779	20013.26
505.982	20304.07
506.185	20795.59
506.387	20850.88
506.59	21037.25
506.793	21651.64
506.996	21231.8
507.198	21801.14
507.401	21917.87
507.604	22180.01
507.807	22288.56
508.009	22968.48
508.212	22536.36
508.415	23351.45
508.617	23339.16
508.82	23439.51
509.022	23752.85
509.225	24098.96
509.428	24187.02
509.63	24672.39
509.833	24989.83
510.035	25307.26
510.238	25018.5
510.44	25534.59
510.643	26101.87
510.845	26163.31
511.048	25919.6
511.25	26490.99
511.453	26806.37
511.655	27691.1
511.858	27349.09
512.06	27347.04
512.262	28143.7
512.465	28088.4
512.667	28477.52
512.87	28584.01
513.072	28573.77
513.274	29347.9
513.477	29397.06
513.679	29753.4
513.881	30193.72
514.084	30531.63
514.286	30062.65
514.488	30756.91
514.69	31590.43
514.893	31393.82
515.095	31836.19
515.297	32073.75
515.499	32137.24
515.701	32544.78
515.904	32960.52
516.106	33306.63
516.308	33466.37
516.51	33832.96
516.712	34285.56
516.914	34148.34
517.116	34584.56
517.318	34666.48
517.52	35114.98
517.722	35340.26
517.925	35758.05
518.127	36394.96
518.329	36628.43
518.531	36278.23
518.733	36956.11
518.935	37443.52
519.136	37298.12
519.338	38219.7
519.54	38170.55
519.742	38494.13
519.944	38541.24
520.146	39006.12
520.348	39501.73
520.55	39776.16
520.752	40023.97
520.954	40456.09
521.155	40433.56
521.357	40800.15
521.559	41021.33
521.761	42241.92
521.963	41629.57
522.164	42051.45
522.366	42246.01
522.568	42512.25
522.77	42909.55
522.971	43507.56
523.173	43003.76
523.375	43624.29
523.576	43554.66
523.778	43978.59
523.98	44580.7
524.181	44511.06
524.383	44812.12
524.584	45037.39
524.786	44957.52
524.988	45291.34
525.189	45729.61
525.391	46198.59
525.592	46468.92
525.794	46423.87
525.995	46630.71
526.197	46126.91
526.398	47075.12
526.6	46968.63
526.801	47288.11
527.003	47857.45
527.204	47607.59
527.406	48172.83
527.607	47959.84
527.808	48639.77
528.01	48000.8
528.211	48600.86
528.412	49354.51
528.614	48819.99
528.815	48967.44
529.016	49217.3
529.218	49020.69
529.419	49350.41
529.62	49200.91
529.822	49338.13
530.023	49624.84
530.224	49723.15
530.425	49823.5
530.626	49868.55
530.828	49547.02
531.029	50405.12
531.23	50067.2
531.431	50308.86
531.632	50374.4
531.833	50798.33
532.035	50288.38
532.236	50607.87
532.437	50964.21
532.638	50319.1
532.839	51101.43
533.04	51019.51
533.241	50765.56
533.442	51582.7
533.643	51263.22
533.844	50740.99
534.045	50929.4
534.246	50685.69
534.447	51330.8
534.648	51322.61
534.849	51382
535.05	51228.4
535.251	51056.37
535.451	51072.76
535.652	51269.36
535.853	51308.27
536.054	51318.51
536.255	51433.2
536.456	50763.51
536.657	51896.04
536.857	50835.19
537.058	51080.95
537.259	51547.89
537.46	51652.33
537.66	51429.1
537.861	51488.49
538.062	51087.09
538.263	51721.96
538.463	51525.36
538.664	51480.3
538.865	51681
539.065	51957.48
539.266	51033.85
539.466	51789.55
539.667	50863.86
539.868	51875.56
540.068	51472.11
540.269	51379.95
540.469	51883.75
540.67	50990.84
540.87	51693.29
541.071	51613.42
541.271	51760.87
541.472	51396.34
541.672	51425.01
541.873	51199.73
542.073	51025.65
542.274	51638
542.474	51195.63
542.675	51095.28
542.875	51719.91
543.075	51175.16
543.276	50468.61
543.476	52006.63
543.676	50839.29
543.877	50996.98
544.077	51162.87
544.277	51236.59
544.478	50851.58
544.678	51871.46
544.878	51095.28
545.078	51123.96
545.279	51203.83
545.479	51132.15
545.679	51468.01
545.879	50503.42
546.079	50783.99
546.28	51013.37
546.48	50810.62
546.68	51560.17
546.88	51287.79
547.08	51345.14
547.28	50810.62
547.48	50450.17
547.68	50958.07
547.88	50796.28
548.081	51017.46
548.281	51072.76
548.481	50749.18
548.681	51048.18
548.881	50929.4
549.081	50878.2
549.28	50917.11
549.48	50921.21
549.68	50806.52
549.88	51269.36
550.08	50458.37
550.28	51015.41
550.48	50679.55
550.68	51355.38
550.88	50134.79
551.08	50310.91
551.279	50417.41
551.479	50116.36
551.679	50630.4
551.879	50513.66
552.079	51101.43
552.278	50626.3
552.478	50841.34
552.678	50538.24
552.878	50837.24
553.077	50331.39
553.277	49932.04
553.477	50937.59
553.676	50237.19
553.876	50298.62
554.076	50304.77
554.275	50243.33
554.475	50077.44
554.674	50429.69
554.874	50020.1
555.074	50253.57
555.273	50376.45
555.473	50700.03
555.672	49639.18
555.872	50319.1
556.071	50417.41
556.271	50167.55
556.47	49823.5
556.67	49522.44
556.869	49669.9
557.068	49665.8
557.268	49385.23
557.467	49856.26
557.667	49780.49
557.866	49692.43
558.065	49649.42
558.265	49456.91
558.464	49262.35
558.663	49495.82
558.863	48795.42
559.062	49717
559.261	48967.44
559.461	49903.37
559.66	48455.45
559.859	48928.53
560.058	48387.87
560.258	48803.61
560.457	48533.28
560.656	48963.35
560.855	48434.97
561.054	48566.04
561.253	48076.58
561.453	48412.45
561.652	48490.27
561.851	48420.64
562.05	48035.62
562.249	47765.29
562.448	48258.85
562.647	48029.48
562.846	47734.57
563.045	47603.5
563.244	47327.02
563.443	47996.71
563.642	46788.41
563.841	47314.73
564.04	47181.62
564.239	47947.56
564.438	47048.5
564.637	47130.42
564.836	47068.98
565.035	46780.21
565.234	46913.33
565.432	46401.34
565.631	46260.03
565.83	46344
566.029	46374.72
566.228	46262.08
566.427	45963.07
566.625	45940.55
566.824	45678.41
567.023	46180.16
567.222	45223.76
567.42	45678.41
567.619	45750.09
567.818	45477.71
568.016	45254.48
568.215	46006.08
568.414	45238.09
568.612	45920.07
568.811	44650.33
569.01	44826.45
569.208	44083.04
569.407	45041.49
569.605	44238.68
569.804	44732.25
570.002	44138.33
570.201	44748.63
570.4	44248.92
570.598	44099.42
570.797	43968.35
570.995	43700.07
571.193	43728.74
571.392	43732.84
571.59	43485.03
571.789	43235.18
571.987	43433.83
572.186	43153.26
572.384	43071.34
572.582	42979.18
572.781	42977.14
572.979	42444.66
573.177	42827.63
573.376	43194.22
573.574	42250.11
573.772	42723.19
573.971	42266.49
574.169	42147.71
574.367	41863.04
574.565	42334.07
574.763	41871.23
574.962	41535.37
575.16	41637.76
575.358	41709.44
575.556	41349
575.754	41308.04
575.952	40703.89
576.151	40849.3
576.349	40853.39
576.547	41019.28
576.745	40814.48
576.943	40894.35
577.141	40824.72
577.339	40857.49
577.537	40710.03
577.735	40349.59
577.933	40118.17
578.131	40341.4
578.329	40114.08
578.527	39677.86
578.725	39952.29
578.923	39849.89
579.121	39833.5
579.319	39784.35
579.516	39874.46
579.714	39290.79
579.912	39337.9
580.11	39227.31
580.308	39280.55
580.506	39086
580.704	38391.73
580.901	39442.34
581.099	38899.63
581.297	37916.61
581.495	38148.03
581.692	38625.2
581.89	38053.82
582.088	38596.53
582.285	37961.66
582.483	38205.37
582.681	37775.3
582.878	37943.23
583.076	37375.94
583.274	37842.88
583.471	37691.33
583.669	37822.4
583.866	37224.39
584.064	37648.32
584.262	37009.36
584.459	37021.64
584.657	37015.5
584.854	36845.52
585.052	36091.87
585.249	37115.85
585.447	36880.33
585.644	36444.12
585.841	36655.06
586.039	36665.3
586.236	36151.26
586.434	36313.05
586.631	36145.11
586.828	36014.04
587.026	36306.9
587.223	35651.55
587.42	35672.03
587.618	35418.08
587.815	35540.96
588.012	35229.67
588.21	35059.69
588.407	35409.89
588.604	35370.98
588.801	34611.18
588.999	34623.47
589.196	34813.93
589.393	34840.56
589.59	34654.19
589.787	34586.61
589.984	34459.63
590.182	34177.01
590.379	34217.97
590.576	33914.87
590.773	34394.1
590.97	33751.04
591.167	34162.68
591.364	33306.63
591.561	34160.63
591.758	33486.85
591.955	33406.98
592.152	33609.73
592.349	33495.04
592.546	33763.32
592.743	33269.76
592.94	33048.58
593.137	32948.23
593.334	32845.83
593.531	32559.12
593.727	32522.26
593.924	32825.36
594.121	32364.56
594.318	32743.44
594.515	32497.68
594.712	32800.78
594.908	32083.99
595.105	32245.78
595.302	31690.78
595.499	31883.29
595.696	31688.73
595.892	31369.25
596.089	32210.96
596.286	32030.74
596.482	31475.74
596.679	31295.52
596.876	31602.72
597.072	31283.23
597.269	31152.16
597.466	30732.33
597.662	31029.29
597.859	31279.14
598.055	31193.12
598.252	30765.1
598.448	30879.78
598.645	30730.28
598.841	30021.69
599.038	30541.87
599.234	30175.28
599.431	30115.89
599.627	30253.11
599.824	30408.75
600.02	29564.99
600.217	30324.79
600.413	30040.12
600.609	29751.35
600.806	29538.37
601.002	29345.86
601.198	29515.84
601.395	29151.3
601.591	29290.56
601.787	29169.73
601.984	28991.56
602.18	29397.06
602.376	29188.16
602.572	28713.03
602.769	28897.35
602.965	28360.78
603.161	28864.58
603.357	28295.25
603.553	28702.79
603.75	28428.37
603.946	28104.79
604.142	28426.32
604.338	27691.1
604.534	28076.12
604.73	27854.93
604.926	27865.17
605.122	27484.25
605.318	27695.19
605.514	27308.13
605.71	27463.77
605.906	27494.49
606.102	27332.7
606.298	27721.82
606.494	27451.49
606.69	27365.47
606.886	27381.85
607.082	26943.59
607.278	27189.35
607.474	26683.5
607.67	27203.68
607.866	26515.56
608.062	26804.33
608.257	26413.16
608.453	26564.71
608.649	26759.27
608.845	26333.29
609.041	26548.33
609.236	26257.52
609.432	26110.07
609.628	26321.01
609.824	26278
610.019	26224.75
610.215	26087.54
610.411	26275.95
610.606	25882.74
610.802	25925.75
610.998	25735.29
611.193	25696.38
611.389	25860.21
611.584	25616.51
611.78	25249.92
611.976	25524.35
612.171	25507.96
612.367	25448.57
612.562	25405.56
612.758	25053.31
612.953	25151.62
613.149	25553.02
613.344	24825.99
613.539	25649.27
613.735	25258.11
613.93	25139.33
614.126	24864.9
614.321	25391.23
614.517	24860.8
614.712	25229.44
614.907	24666.25
615.103	25124.99
615.298	24451.21
615.493	24901.76
615.688	24291.47
615.884	24871.04
616.079	24238.22
616.274	24662.15
616.47	24385.68
616.665	24467.59
616.86	24344.72
617.055	23998.61
617.25	24277.13
617.445	24414.35
617.641	23619.74
617.836	24094.86
618.031	23713.94
618.226	23830.68
618.421	23802
618.616	23971.99
618.811	23285.92
619.006	23603.35
619.201	23163.04
619.396	23478.43
619.591	22976.67
619.786	23097.5
619.981	22894.75
620.176	23298.2
620.371	22782.12
620.566	23009.44
620.761	22706.34
620.956	22884.51
621.151	22112.43
621.346	22319.28
621.541	22089.9
621.735	22446.25
621.93	22032.56
622.125	22128.81
622.32	21635.25
622.515	21758.13
622.709	21592.25
622.904	21792.95
623.099	21485.75
623.294	21719.22
623.488	21354.68
623.683	21465.27
623.878	21053.63
624.072	20842.69
624.267	21125.31
624.462	20910.27
624.656	20472.01
624.851	20865.22
625.046	20232.4
625.24	20218.06
625.435	20265.16
625.629	19867.86
625.824	19900.62
626.018	20054.22
626.213	19257.56
626.407	19890.38
626.602	19835.09
626.796	19665.11
626.991	19519.7
627.185	19296.47
627.38	19120.35
627.574	19103.96
627.768	18913.5
627.963	19169.5
628.157	18401.51
628.352	18944.22
628.546	18426.09
628.74	18761.95
628.935	18229.48
629.129	18809.06
629.323	17758.45
629.517	18032.88
629.712	18016.49
629.906	17905.9
630.1	17692.91
630.294	18024.68
630.489	17623.28
630.683	17844.46
630.877	17502.45
631.071	17547.51
631.265	17348.86
631.459	17182.97
631.653	16896.25
631.848	16967.93
632.042	16890.11
632.236	16879.87
632.43	16871.68
632.624	16732.42
632.818	16601.35
633.012	16529.67
633.206	16605.44
633.4	16505.09
633.594	16009.48
633.788	16206.09
633.982	16183.56
634.176	15902.99
634.369	15753.49
634.563	15849.74
634.757	15638.8
634.951	15919.37
635.145	15544.59
635.339	15986.96
635.533	15202.58
635.726	15444.24
635.92	15161.62
636.114	15321.37
636.308	15137.05
636.501	15192.34
636.695	14981.4
636.889	14813.47
637.083	14784.8
637.276	14588.19
637.47	14743.84
637.664	14731.55
637.857	14444.84
638.051	14407.97
638.244	14459.17
638.438	14360.87
638.632	14074.15
638.825	14147.88
639.019	13791.53
639.212	14098.73
639.406	13920.56
639.599	13818.16
639.793	13746.48
639.986	13631.79
640.18	13599.02
640.373	13402.42
640.567	13478.19
640.76	13470
640.954	13162.81
641.147	13064.5
641.34	13072.7
641.534	13242.68
641.727	13093.18
641.92	12982.59
642.114	12810.56
642.307	12683.58
642.5	12890.43
642.694	12421.44
642.887	12534.08
643.08	12517.7
643.273	12429.63
643.467	12321.09
643.66	12147.01
643.853	12075.34
644.046	12067.14
644.239	12351.81
644.432	12153.16
644.626	11934.03
644.819	11972.94
645.012	12052.81
645.205	11997.51
645.398	11778.38
645.591	11645.26
645.784	11811.15
645.977	11213.14
646.17	11450.71
646.363	11553.1
646.556	11348.31
646.749	11209.04
646.942	11419.99
647.135	11071.83
647.328	10932.57
647.521	11123.03
647.714	10914.14
647.907	10979.67
648.099	10903.9
648.292	10918.23
648.485	10637.66
648.678	10670.43
648.871	10670.43
649.064	10527.07
649.256	10627.42
649.449	10459.49
649.642	10426.72
649.835	10258.79
650.027	10320.23
650.22	10283.36
650.413	10109.29
650.605	10178.92
650.798	9931.11
650.991	9812.33
651.183	10076.52
651.376	9748.84
651.568	10043.75
651.761	9656.68
651.954	9791.85
652.146	9615.73
652.339	9800.04
652.531	9492.85
652.724	9351.54
652.916	9376.11
653.109	9421.17
653.301	9521.52
653.494	9470.32
653.686	9421.17
653.879	9169.27
654.071	9103.73
654.263	9079.16
654.456	9062.77
654.648	9181.56
654.84	8857.98
655.033	9177.46
655.225	8776.06
655.417	8999.29
655.61	8829.31
655.802	8814.97
655.994	8642.94
656.186	8509.82
656.379	8550.78
656.571	8489.34
656.763	8405.38
656.955	8614.27
657.148	8501.63
657.34	8561.02
657.532	8434.05
657.724	8243.59
657.916	8190.34
658.108	8155.52
658.3	8282.5
658.492	8083.84
658.684	8042.89
658.876	8049.03
659.068	8133
659.26	8014.21
659.452	7934.34
659.644	7936.39
659.836	7864.71
660.028	7915.91
660.22	7627.15
660.412	7920.01
660.604	7479.69
660.796	7883.14
660.988	7575.95
661.18	7522.7
661.372	7479.69
661.563	7539.08
661.755	7319.95
661.947	7539.08
662.139	7317.9
662.331	7553.42
662.522	7129.49
662.714	7201.17
662.906	7199.12
663.097	7158.16
663.289	7223.7
663.481	7160.21
663.673	7055.76
663.864	7072.15
664.056	7094.68
664.247	7033.24
664.439	6775.19
664.631	7047.57
664.822	7016.85
665.014	6793.62
665.205	6994.33
665.397	6934.93
665.588	6703.51
665.78	6900.12
665.971	6670.75
666.163	6803.86
666.354	6822.3
666.546	6578.59
666.737	6611.36
666.929	6416.8
667.12	6629.79
667.311	6584.73
667.503	6578.59
667.694	6336.93
667.885	6543.77
668.077	6392.22
668.268	6183.33
668.459	6314.4
668.651	6261.15
668.842	6289.82
669.033	6230.43
669.224	6166.95
669.416	6189.47
669.607	6193.57
669.798	6064.55
669.989	6091.17
670.18	5984.68
670.371	6056.36
670.563	5978.53
670.754	6021.54
670.945	5915.05
671.136	6033.83
671.327	5960.1
671.518	5847.46
671.709	5765.54
671.9	5865.89
672.091	5745.06
672.282	5728.68
672.473	5716.39
672.664	5792.17
672.855	5591.47
673.046	5833.13
673.237	5644.71
673.428	5716.39
673.619	5525.93
673.809	5548.46
674	5534.12
674.191	5564.84
674.382	5495.21
674.573	5589.42
674.764	5456.3
674.954	5804.46
675.145	5556.65
675.336	5388.72
675.527	5489.07
675.717	5525.93
675.908	5310.89
676.099	5601.71
676.289	5452.2
676.48	5417.39
676.671	5212.59
676.861	5407.15
677.052	5261.74
677.243	5396.91
677.433	5179.82
677.624	5245.36
677.814	5345.71
678.005	5407.15
678.195	5351.85
678.386	5239.22
678.576	5245.36
678.767	5188.02
678.957	5134.77
679.148	5235.12
679.338	5153.2
679.529	5015.99
679.719	5271.98
679.909	5196.21
680.1	5065.14
680.29	5145.01
680.481	5228.98
680.671	5087.67
680.861	4972.98
681.052	5130.67
681.242	5159.35
681.432	5304.75
681.622	5118.39
681.813	5147.06
682.003	5032.37
682.193	5015.99
682.383	5122.48
682.573	5106.1
682.764	5042.61
682.954	4909.49
683.144	5067.19
683.334	5112.24
683.524	4979.12
683.714	4981.17
683.904	4960.69
684.094	4921.78
684.284	4940.21
684.474	5011.89
684.664	4911.54
684.854	4968.88
685.044	4979.12
685.234	4735.42
685.424	4850.1
685.614	4866.49
685.804	4954.55
685.994	4876.73
686.184	4673.98
686.374	4897.21
686.564	4751.8
686.753	4796.85
686.943	4727.22
687.133	4733.37
687.323	4721.08
687.513	4649.4
687.702	4770.23
687.892	4673.98
688.082	4637.11
688.272	4684.22
688.461	4549.05
688.651	4678.07
688.841	4592.06
689.03	4397.5
689.22	4704.7
689.41	4579.77
689.599	4583.87
689.789	4493.76
689.979	4573.63
690.168	4413.88
690.358	4315.58
690.547	4407.74
690.737	4389.31
690.926	4450.75
691.116	4358.59
691.305	4391.36
691.495	4278.72
691.684	4407.74
691.874	4329.92
692.063	4327.87
692.252	4280.77
692.442	4127.17
692.631	4147.65
692.82	4204.99
693.01	4293.05
693.199	4151.74
693.388	4104.64
693.578	4159.94
693.767	4194.75
693.956	4161.98
694.146	4078.02
694.335	4039.11
694.524	4129.22
694.713	4112.83
694.902	4112.83
695.092	3930.56
695.281	3844.55
695.47	4116.93
695.659	4157.89
695.848	4090.31
696.037	4075.97
696.226	4131.26
696.415	4073.92
696.604	4168.13
696.793	3981.76
696.982	3836.36
697.171	3983.81
697.36	4082.11
697.549	3838.41
697.738	3811.78
697.927	3828.17
698.116	4067.78
698.305	3842.5
698.494	3934.66
698.683	3930.56
698.872	3953.09
699.061	4004.29
699.25	3969.48
699.438	3860.93
699.627	4010.43
699.816	3979.72
700.005	3883.46
700.193	3846.6
700.382	3846.6
700.571	3867.08
700.76	3885.51
700.948	3881.41
701.137	3936.71
701.326	3836.36
701.514	3758.53
701.703	3725.77
701.892	3781.06
702.08	3992
702.269	3717.58
702.457	3826.12
702.646	3842.5
702.834	3760.58
703.023	3717.58
703.212	3754.44
703.4	3793.35
703.589	3699.14
703.777	3697.1
703.965	3719.62
704.154	3654.09
704.342	3887.56
704.531	3828.17
704.719	3725.77
704.907	3776.97
705.096	3621.32
705.284	3738.05
705.472	3848.65
705.661	3856.84
705.849	3787.21
706.037	3844.55
706.226	3695.05
706.414	3768.77
706.602	3627.46
706.79	3752.39
706.979	3819.97
707.167	3688.9
707.355	3727.82
707.543	3809.73
707.731	3670.47
707.919	3895.75
708.107	3672.52
708.296	3774.92
708.484	3750.34
708.672	3781.06
708.86	3725.77
709.048	3686.86
709.236	3666.38
709.424	3768.77
709.612	3574.22
709.8	3670.47
709.988	3623.37
710.176	3719.62
710.364	3748.29
710.551	3664.33
710.739	3656.14
710.927	3783.11
711.115	3766.73
711.303	3742.15
711.491	3619.27
711.679	3606.98
711.866	3744.2
712.054	3654.09
712.242	3721.67
712.43	3770.82
712.617	3512.78
712.805	3705.29
712.993	3727.82
713.181	3471.82
713.368	3523.02
713.556	3641.8
713.744	3514.83
713.931	3783.11
714.119	3723.72
714.306	3807.69
714.494	3680.71
714.682	3811.78
714.869	3553.74
715.057	3658.18
715.244	3549.64
715.432	3752.39
715.619	3690.95
715.807	3725.77
715.994	3819.97
716.182	3674.57
716.369	3668.42
716.556	3574.22
716.744	3549.64
716.931	3701.19
717.119	3713.48
717.306	3658.18
717.493	3693
717.681	3598.79
717.868	3586.51
718.055	3551.69
718.242	3549.64
718.43	3715.53
718.617	3529.16
718.804	3582.41
718.991	3539.4
719.179	3678.66
719.366	3623.37
719.553	3721.67
719.74	3449.29
719.927	3588.55
720.114	3586.51
720.301	3664.33
720.488	3574.22
720.676	3539.4
720.863	3584.46
721.05	3486.15
721.237	3563.98
721.424	3635.66
721.611	3627.46
721.798	3529.16
721.985	3504.59
722.172	3555.79
722.358	3553.74
722.545	3533.26
722.732	3619.27
722.919	3643.85
723.106	3504.59
723.293	3543.5
723.48	3555.79
723.667	3566.03
723.853	3410.38
724.04	3619.27
724.227	3549.64
724.414	3404.24
724.6	3418.57
724.787	3516.87
724.974	3316.17
725.161	3545.55
725.347	3422.67
725.534	3660.23
725.72	3410.38
725.907	3404.24
726.094	3459.53
726.28	3441.1
726.467	3355.08
726.653	3400.14
726.84	3455.44
727.027	3510.73
727.213	3410.38
727.4	3582.41
727.586	3350.99
727.773	3398.09
727.959	3449.29
728.145	3394
728.332	3455.44
728.518	3426.76
728.705	3471.82
728.891	3408.33
729.077	3416.52
729.264	3447.24
729.45	3371.47
729.636	3527.11
729.823	3338.7
730.009	3477.96
730.195	3332.56
730.382	3342.8
730.568	3217.87
730.754	3394
730.94	3213.77
731.126	3406.28
731.313	3465.68
731.499	3381.71
731.685	3371.47
731.871	3275.21
732.057	3369.42
732.243	3518.92
732.429	3277.26
732.615	3447.24
732.801	3451.34
732.987	3328.46
733.173	3299.79
733.359	3449.29
733.545	3316.17
733.731	3267.02
733.917	3289.55
734.103	3340.75
734.289	3410.38
734.475	3361.23
734.661	3385.8
734.847	3287.5
735.033	3244.49
735.219	3334.61
735.404	3328.46
735.59	3201.49
735.776	3219.92
735.962	3297.74
736.148	3279.31
736.333	3219.92
736.519	3234.25
736.705	3221.97
736.89	3193.3
737.076	2951.63
737.262	3217.87
737.447	3246.54
737.633	3131.86
737.819	3189.2
738.004	3099.09
738.19	3164.62
738.375	3142.1
738.561	3187.15
738.747	3054.03
738.932	3021.27
739.118	3221.97
739.303	3101.14
739.489	3205.58
739.674	3224.01
739.859	3041.75
740.045	3115.47
740.23	3049.94
740.416	2922.96
740.601	3121.62
740.786	3121.62
740.972	2943.44
741.157	3031.51
741.342	2929.11
741.528	2988.5
741.713	3033.55
741.898	2927.06
742.084	2857.43
742.269	2935.25
742.454	2941.4
742.639	2875.86
742.824	2898.39
743.01	2916.82
743.195	2994.64
743.38	2851.28
743.565	2697.69
743.75	2832.85
743.935	2771.41
744.12	2906.58
744.305	2673.11
744.49	2798.04
744.675	2777.56
744.86	2714.07
745.045	2750.93
745.23	2791.89
745.415	2851.28
745.6	2726.36
745.785	2669.02
745.97	2720.21
746.155	2679.26
746.34	2687.45
746.525	2640.34
746.71	2521.56
746.895	2621.91
747.079	2648.54
747.264	2599.38
747.449	2492.89
747.634	2519.51
747.819	2566.62
748.003	2527.71
748.188	2517.47
748.373	2468.31
748.557	2468.31
748.742	2453.98
748.927	2566.62
749.111	2372.06
749.296	2353.63
749.481	2433.5
749.665	2408.92
749.85	2288.09
750.034	2314.72
750.219	2312.67
750.404	2378.2
750.588	2187.74
750.773	2189.79
750.957	2183.65
751.141	2292.19
751.326	2224.61
751.51	2288.09
751.695	2163.17
751.879	2165.21
752.064	2253.28
752.248	2148.83
752.432	2105.82
752.617	2132.45
752.801	2116.06
752.985	2087.39
753.17	2077.15
753.354	2097.63
753.538	2073.06
753.722	2085.34
753.907	1999.33
754.091	2032.1
754.275	2044.38
754.459	1874.4
754.643	1907.17
754.828	1980.9
755.012	2023.91
755.196	1901.03
755.38	1915.36
755.564	1825.25
755.748	1872.36
755.932	1874.4
756.116	1868.26
756.3	1802.72
756.484	1763.81
756.668	1772
756.852	1681.89
757.036	1741.29
757.22	1847.78
757.404	1786.34
757.588	1657.32
757.772	1671.65
757.956	1737.19
758.14	1737.19
758.323	1628.65
758.507	1716.71
758.691	1645.03
758.875	1685.99
759.059	1741.29
759.242	1821.16
759.426	1612.26
759.61	1651.17
759.794	1583.59
759.977	1561.06
760.161	1712.61
760.345	1655.27
760.528	1522.15
760.712	1432.04
760.895	1567.21
761.079	1524.2
761.263	1559.02
761.446	1542.63
761.63	1526.25
761.813	1520.1
761.997	1507.82
762.18	1378.79
762.364	1485.29
762.547	1528.3
762.731	1495.53
762.914	1456.62
763.098	1407.47
763.281	1448.43
763.464	1370.6
763.648	1378.79
763.831	1370.6
764.015	1352.17
764.198	1440.23
764.381	1386.99
764.564	1407.47
764.748	1372.65
764.931	1401.32
765.114	1395.18
765.297	1329.64
765.481	1440.23
765.664	1294.83
765.847	1360.36
766.03	1315.31
766.213	1229.29
766.397	1227.25
766.58	1272.3
766.763	1417.71
766.946	1237.49
767.129	1317.36
767.312	1192.43
767.495	1350.12
767.678	1255.92
767.861	1356.27
768.044	1219.05
768.227	1169.9
768.41	1153.52
768.593	1341.93
768.776	1296.88
768.959	1227.25
769.142	1260.01
769.324	1141.23
769.507	1251.82
769.69	1182.19
769.873	1214.96
770.056	1194.48
770.239	1237.49
770.421	1163.76
770.604	1194.48
770.787	1114.61
770.97	1165.81
771.152	1133.04
771.335	1087.98
771.518	1079.79
771.7	1098.22
771.883	1233.39
772.066	1051.12
772.248	1171.95
772.431	1114.61
772.613	1114.61
772.796	1120.75
772.978	1133.04
773.161	1065.46
773.343	1106.42
773.526	1083.89
773.708	977.39
773.891	1034.74
774.073	969.2
774.256	1081.84
774.438	1067.5
774.621	985.58
774.803	995.82
774.985	1042.93
775.168	1042.93
775.35	997.87
775.532	1036.78
775.715	1012.21
775.897	977.39
776.079	926.19
776.261	977.39
776.444	915.95
776.626	940.53
776.808	901.62
776.99	942.58
777.173	920.05
777.355	883.19
777.537	940.53
777.719	958.96
777.901	942.58
778.083	881.14
778.265	844.28
778.447	961.01
778.629	862.71
778.811	862.71
778.993	887.28
779.175	799.22
779.357	903.67
779.539	754.16
779.721	811.51
779.903	780.79
780.085	852.47
780.267	762.36
780.449	723.44
780.631	891.38
780.812	846.32
780.994	764.4
781.176	690.68
781.358	807.41
781.54	827.89
781.721	682.49
781.903	719.35
782.085	760.31
782.267	797.17
782.448	639.48
782.63	735.73
782.812	727.54
782.993	805.36
783.175	684.53
783.357	645.62
783.538	719.35
783.72	678.39
783.901	682.49
784.083	627.19
784.264	727.54
784.446	653.81
784.627	653.81
784.809	606.71
784.99	567.8
785.172	616.95
785.353	641.53
785.535	672.25
785.716	592.37
785.897	551.42
786.079	696.82
786.26	557.56
786.441	666.1
786.623	616.95
786.804	543.22
786.985	639.48
787.167	717.3
787.348	553.46
787.529	674.29
787.71	594.42
787.891	563.7
788.073	586.23
788.254	502.26
788.435	557.56
788.616	588.28
788.797	494.07
788.978	522.74
789.159	510.46
789.34	539.13
789.522	539.13
789.703	426.49
789.884	575.99
790.065	442.87
790.246	592.37
790.427	500.22
790.607	500.22
790.788	551.42
790.969	416.25
791.15	496.12
791.331	494.07
791.512	518.65
791.693	408.06
791.874	520.7
792.054	510.46
792.235	432.63
792.416	453.11
792.597	469.5
792.778	455.16
792.958	467.45
793.139	498.17
793.32	401.91
793.5	401.91
793.681	473.59
793.862	416.25
794.042	403.96
794.223	422.39
794.404	481.78
794.584	438.78
794.765	350.71
794.945	393.72
795.126	481.78
795.306	389.63
795.487	375.29
795.667	371.19
795.848	496.12
796.028	379.39
796.209	446.97
796.389	260.6
796.57	432.63
796.75	332.28
796.93	391.67
797.111	387.58
797.291	416.25
797.471	324.09
797.652	334.33
797.832	356.86
798.012	340.47
798.192	401.91
798.373	328.19
798.553	383.48
798.733	326.14
798.913	379.39
799.093	403.96
799.274	442.87
799.454	309.76
799.634	254.46
799.814	330.23
799.994	356.86
800.174	287.23
800.354	346.62
800.534	317.95
800.714	322.04
800.894	313.85
801.074	229.88
801.254	260.6
801.434	358.91
801.614	301.56
801.794	328.19
801.974	885.23
802.154	256.51
802.334	326.14
802.514	260.6
802.693	297.47
802.873	320
803.053	373.24
803.233	379.39
803.413	238.08
803.592	311.8
803.772	340.47
803.952	311.8
804.131	344.57
804.311	305.66
804.491	244.22
804.67	229.88
804.85	262.65
805.03	356.86
805.209	342.52
805.389	215.55
805.568	268.8
805.748	258.56
805.928	346.62
806.107	285.18
806.287	281.08
806.466	293.37
806.646	227.84
806.825	283.13
807.004	242.17
807.184	227.84
807.363	289.28
807.543	268.8
807.722	236.03
807.901	317.95
808.081	270.84
808.26	309.76
808.439	289.28
808.619	295.42
808.798	236.03
808.977	344.57
809.156	154.11
809.336	248.32
809.515	287.23
809.694	260.6
809.873	246.27
810.052	244.22
810.231	293.37
810.411	213.5
810.59	305.66
810.769	240.12
810.948	270.84
811.127	293.37
811.306	260.6
811.485	223.74
811.664	279.04
811.843	195.07
812.022	236.03
812.201	213.5
812.38	195.07
812.559	176.64
812.737	270.84
812.916	184.83
813.095	209.4
813.274	293.37
813.453	193.02
813.632	238.08
813.811	231.93
813.989	207.36
814.168	283.13
814.347	195.07
814.526	266.75
814.704	182.78
814.883	276.99
815.062	190.97
815.24	193.02
815.419	190.97
815.598	211.45
815.776	182.78
815.955	197.12
816.133	84.48
816.312	131.58
816.49	158.21
816.669	252.41
816.847	190.97
817.026	223.74
817.204	176.64
817.383	145.92
817.561	176.64
817.74	256.51
817.918	209.4
818.097	213.5
818.275	176.64
818.453	166.4
818.632	213.5
818.81	229.88
818.988	211.45
819.167	170.49
819.345	254.46
819.523	180.73
819.701	205.31
819.879	268.8
820.058	160.25
820.236	221.69
820.414	160.25
820.592	281.08
820.77	197.12
820.948	113.15
821.127	150.01
821.305	150.01
821.483	152.06
821.661	172.54
821.839	227.84
822.017	186.88
822.195	92.67
822.373	195.07
822.551	213.5
822.729	219.64
822.907	158.21
823.085	166.4
823.262	147.97
823.44	158.21
823.618	186.88
823.796	145.92
823.974	76.29
824.152	201.21
824.329	186.88
824.507	145.92
824.685	186.88
824.863	178.69
825.04	150.01
825.218	123.39
825.396	166.4
825.574	125.44
825.751	164.35
825.929	123.39
826.107	94.72
826.284	82.43
826.462	107.01
826.639	107.01
826.817	84.48
826.994	150.01
827.172	68.09
827.349	221.69
827.527	96.77
827.704	74.24
827.882	137.73
828.059	74.24
828.237	137.73
828.414	190.97
828.591	68.09
828.769	64
828.946	154.11
829.124	98.81
829.301	225.79
829.478	158.21
829.655	100.86
829.833	180.73
830.01	68.09
830.187	154.11
830.364	76.29
830.542	156.16
830.719	174.59
830.896	35.33
831.073	113.15
831.25	135.68
831.427	125.44
831.604	100.86
831.782	113.15
831.959	100.86
832.136	107.01
832.313	100.86
832.49	141.82
832.667	98.81
832.844	176.64
833.021	119.29
833.198	109.05
833.374	64
833.551	88.57
833.728	119.29
833.905	74.24
834.082	47.62
834.259	170.49
834.436	170.49
834.612	104.96
834.789	115.2
834.966	182.78
835.143	127.49
835.319	78.33
835.496	152.06
835.673	152.06
835.85	90.62
836.026	147.97
836.203	143.87
836.38	180.73
836.556	84.48
836.733	-5.63
836.909	76.29
837.086	72.19
837.262	27.14
837.439	80.38
837.616	92.67
837.792	174.59
837.968	154.11
838.145	109.05
838.321	129.53
838.498	55.81
838.674	137.73
838.851	88.57
839.027	147.97
839.203	39.42
839.38	125.44
839.556	31.23
839.732	98.81
839.909	49.66
840.085	64
840.261	68.09
840.437	47.62
840.614	137.73
840.79	215.55
840.966	80.38
841.142	178.69
841.318	80.38
841.494	33.28
841.671	49.66
841.847	4.61
842.023	16.9
842.199	51.71
842.375	76.29
842.551	84.48
842.727	66.05
842.903	193.02
843.079	96.77
843.255	104.96
843.431	107.01
843.607	66.05
843.783	29.18
843.959	137.73
844.134	61.95
844.31	104.96
844.486	76.29
844.662	123.39
844.838	100.86
845.013	18.94
845.189	70.14
845.365	82.43
845.541	111.1
845.716	100.86
845.892	72.19
846.068	66.05
846.244	96.77
846.419	61.95
846.595	59.9
846.77	14.85
846.946	64
847.122	0.51
847.297	2.56
847.473	104.96
847.648	84.48
847.824	23.04
847.999	-13.82
848.175	8.7
848.35	141.82
848.526	119.29
848.701	41.47
848.876	94.72
849.052	125.44
849.227	90.62
849.403	2.56
849.578	23.04
849.753	78.33
849.929	84.48
850.104	61.95
850.279	35.33
850.454	88.57
850.63	64
850.805	16.9
850.98	84.48
851.155	10.75
851.33	31.23
851.505	4.61
851.681	104.96
851.856	51.71
852.031	123.39
852.206	88.57
852.381	29.18
852.556	8.7
852.731	55.81
852.906	143.87
853.081	76.29
853.256	39.42
853.431	47.62
853.606	-46.59
853.781	49.66
853.956	51.71
854.131	66.05
854.305	39.42
854.48	57.86
854.655	127.49
854.83	90.62
855.005	70.14
855.18	113.15
855.354	78.33
855.529	12.8
855.704	39.42
855.879	64
856.053	102.91
856.228	104.96
856.403	80.38
856.577	102.91
856.752	2.56
856.926	39.42
857.101	70.14
857.276	25.09
857.45	37.38
857.625	-32.26
857.799	14.85
857.974	31.23
858.148	31.23
858.323	57.86
858.497	35.33
858.672	82.43
858.846	51.71
859.02	127.49
859.195	39.42
859.369	-9.73
859.543	86.53
859.718	27.14
859.892	6.66
860.066	107.01
860.241	47.62
860.415	6.66
860.589	51.71
860.763	43.52
860.938	35.33
861.112	12.8
861.286	10.75
861.46	39.42
861.634	78.33
861.808	92.67
861.982	29.18
862.157	4.61
862.331	2.56
862.505	61.95
862.679	-5.63
862.853	4.61
863.027	-85.5
863.201	102.91
863.375	16.9
863.549	43.52
863.722	51.71
863.896	68.09
864.07	25.09
864.244	-3.58
864.418	49.66
864.592	10.75
864.766	64
864.939	10.75
865.113	66.05
865.287	-9.73
865.461	12.8
865.634	18.94
865.808	4.61
865.982	10.75
866.156	35.33
866.329	74.24
866.503	-30.21
866.676	64
866.85	80.38
867.024	-17.92
867.197	41.47
867.371	23.04
867.544	102.91
867.718	47.62
867.891	57.86
868.065	39.42
868.238	74.24
868.412	111.1
868.585	-13.82
868.759	0.51
868.932	-26.11
869.105	27.14
869.279	8.7
869.452	82.43
869.625	35.33
869.799	39.42
869.972	25.09
870.145	23.04
870.319	64
870.492	31.23
870.665	-38.4
870.838	25.09
871.011	-36.35
871.185	-34.3
871.358	2.56
871.531	-15.87
871.704	43.52
871.877	12.8
872.05	47.62
872.223	29.18
872.396	43.52
872.569	41.47
872.742	43.52
872.915	8.7
873.088	68.09
873.261	14.85
873.434	111.1
873.607	14.85
873.78	61.95
873.953	-32.26
874.126	88.57
874.299	4.61
874.471	39.42
874.644	53.76
874.817	39.42
874.99	51.71
875.163	-30.21
875.335	27.14
875.508	8.7
875.681	27.14
875.853	-9.73
876.026	0.51
876.199	100.86
876.371	18.94
876.544	31.23
876.717	12.8
876.889	121.34
877.062	88.57
877.234	27.14
877.407	59.9
877.579	59.9
877.752	78.33
877.924	10.75
878.097	68.09
878.269	100.86
878.442	-7.68
878.614	41.47
878.786	-28.16
878.959	-9.73
879.131	49.66
879.303	-34.3
879.476	-58.88
879.648	37.38
879.82	68.09
879.993	-48.64
880.165	27.14
880.337	-50.69
880.509	-54.78
880.681	-38.4
880.854	27.14
881.026	61.95
881.198	94.72
881.37	-30.21
881.542	-3.58
881.714	64
881.886	-40.45
882.058	82.43
882.23	0.51
882.402	18.94
882.574	16.9
882.746	23.04
882.918	27.14
883.09	25.09
883.262	72.19
883.434	39.42
883.606	-3.58
883.778	-32.26
883.95	23.04
884.122	25.09
884.293	55.81
884.465	90.62
884.637	74.24
884.809	2.56
884.98	45.57
885.152	45.57
885.324	53.76
885.496	-38.4
885.667	61.95
885.839	-13.82
886.011	35.33
886.182	35.33
886.354	59.9
886.525	-42.5
886.697	-1.54
886.869	18.94
887.04	6.66
887.212	100.86
887.383	35.33
887.555	39.42
887.726	8.7
887.897	66.05
888.069	66.05
888.24	64
888.412	6.66
888.583	-15.87
888.754	6.66
888.926	10.75
889.097	53.76
889.268	2.56
889.44	33.28
889.611	-3.58
889.782	39.42
889.953	27.14
890.125	135.68
890.296	-28.16
890.467	23.04
890.638	23.04
890.809	29.18
890.98	10.75
891.151	37.38
891.323	98.81
891.494	47.62
891.665	14.85
891.836	45.57
892.007	33.28
892.178	14.85
892.349	-1.54
892.52	-9.73
892.691	-40.45
892.862	-67.07
893.032	20.99
893.203	35.33
893.374	43.52
893.545	-17.92
893.716	49.66
893.887	18.94
894.057	33.28
894.228	59.9
894.399	4.61
894.57	18.94
894.74	76.29
894.911	-7.68
895.082	-5.63
895.253	-13.82
895.423	-40.45
895.594	98.81
895.764	23.04
895.935	-7.68
896.106	16.9
896.276	31.23
896.447	96.77
896.617	64
896.788	16.9
896.958	20.99
897.129	31.23
897.299	-75.26
897.47	4.61
897.64	57.86
897.81	-42.5
897.981	-15.87
898.151	-103.93
898.322	41.47
898.492	-13.82
898.662	37.38
898.832	16.9
899.003	37.38
899.173	27.14
899.343	-15.87
899.513	-24.06
