Data from USB4F104151__179__10-27-50-537.txt Node

Date: Wed Mar 12 10:27:50 EDT 2025
User: louis
Spectrometer: USB4F10415
Trigger mode: 4
Integration Time (sec): 3.000000E-2
Scans to average: 1
Electric dark correction enabled: true
Nonlinearity correction enabled: false
Boxcar width: 0
XAxis mode: Wavelengths
Number of Pixels in Spectrum: 3648
>>>>>Begin Spectral Data<<<<<
178.204	-121.17
178.424	-121.17
178.644	-121.17
178.864	-141.65
179.084	-88.4
179.304	11.95
179.524	-18.77
179.744	24.23
179.964	59.05
180.184	30.38
180.404	26.28
180.624	-2.39
180.844	-47.44
181.064	-14.68
181.283	-61.78
181.503	-41.3
181.723	34.47
181.943	-63.83
182.163	32.43
182.383	61.1
182.602	52.91
182.822	-12.63
183.042	34.47
183.262	-51.54
183.482	50.86
183.701	-18.77
183.921	-2.39
184.141	-72.02
184.361	52.91
184.58	30.38
184.8	-41.3
185.02	-51.54
185.239	-55.64
185.459	-35.16
185.679	44.71
185.898	-98.64
186.118	54.95
186.338	38.57
186.557	54.95
186.777	-14.68
186.997	-4.44
187.216	-47.44
187.436	-14.68
187.655	13.99
187.875	-20.82
188.095	26.28
188.314	32.43
188.534	7.85
188.753	-35.16
188.973	-0.34
189.192	9.9
189.412	26.28
189.631	-29.01
189.851	18.09
190.07	67.24
190.29	-55.64
190.509	-43.35
190.729	-72.02
190.948	57
191.168	95.91
191.387	138.92
191.607	57
191.826	-22.87
192.045	-26.96
192.265	-18.77
192.484	-4.44
192.704	16.04
192.923	-26.96
193.142	59.05
193.362	9.9
193.581	32.43
193.8	18.09
194.02	59.05
194.239	1.71
194.458	1.71
194.678	67.24
194.897	63.15
195.116	32.43
195.335	-0.34
195.555	18.09
195.774	-33.11
195.993	-10.58
196.212	16.04
196.432	-14.68
196.651	-26.96
196.87	1.71
197.089	97.96
197.308	106.15
197.528	13.99
197.747	-2.39
197.966	7.85
198.185	83.63
198.404	77.48
198.623	-20.82
198.842	9.9
199.062	40.62
199.281	52.91
199.5	30.38
199.719	85.67
199.938	-49.49
200.157	48.81
200.376	9.9
200.595	7.85
200.814	-2.39
201.033	63.15
201.252	-53.59
201.471	38.57
201.69	81.58
201.909	-10.58
202.128	-31.06
202.347	52.91
202.566	20.14
202.785	-80.21
203.004	-8.53
203.223	145.06
203.442	-53.59
203.661	34.47
203.879	110.25
204.098	46.76
204.317	3.75
204.536	61.1
204.755	1.71
204.974	61.1
205.193	-10.58
205.411	63.15
205.63	-26.96
205.849	7.85
206.068	-0.34
206.287	-22.87
206.505	-53.59
206.724	-2.39
206.943	46.76
207.162	-6.49
207.381	28.33
207.599	1.71
207.818	63.15
208.037	-24.92
208.255	24.23
208.474	-2.39
208.693	18.09
208.911	-96.6
209.13	-4.44
209.349	-43.35
209.567	18.09
209.786	75.43
210.005	30.38
210.223	52.91
210.442	-72.02
210.661	18.09
210.879	44.71
211.098	13.99
211.316	30.38
211.535	1.71
211.753	54.95
211.972	54.95
212.191	-41.3
212.409	-16.73
212.628	38.57
212.846	-43.35
213.065	44.71
213.283	46.76
213.502	-29.01
213.72	-39.25
213.938	-69.97
214.157	59.05
214.375	11.95
214.594	13.99
214.812	-43.35
215.031	57
215.249	-84.31
215.467	20.14
215.686	100.01
215.904	-29.01
216.122	71.34
216.341	-18.77
216.559	46.76
216.778	7.85
216.996	26.28
217.214	34.47
217.432	9.9
217.651	52.91
217.869	-0.34
218.087	-2.39
218.306	7.85
218.524	13.99
218.742	20.14
218.96	112.3
219.179	38.57
219.397	36.52
219.615	59.05
219.833	26.28
220.051	52.91
220.27	-14.68
220.488	-16.73
220.706	18.09
220.924	1.71
221.142	1.71
221.36	13.99
221.578	28.33
221.796	-2.39
222.015	-6.49
222.233	18.09
222.451	75.43
222.669	-39.25
222.887	71.34
223.105	83.63
223.323	-14.68
223.541	-78.16
223.759	63.15
223.977	-14.68
224.195	77.48
224.413	24.23
224.631	16.04
224.849	54.95
225.067	93.87
225.285	-18.77
225.503	13.99
225.721	-67.92
225.939	-41.3
226.157	69.29
226.375	124.58
226.592	38.57
226.81	32.43
227.028	32.43
227.246	122.54
227.464	22.19
227.682	13.99
227.9	18.09
228.117	59.05
228.335	28.33
228.553	7.85
228.771	5.8
228.989	-16.73
229.206	122.54
229.424	18.09
229.642	71.34
229.86	-8.53
230.077	-20.82
230.295	3.75
230.513	-6.49
230.731	5.8
230.948	5.8
231.166	30.38
231.384	67.24
231.601	7.85
231.819	5.8
232.037	3.75
232.254	-2.39
232.472	-65.88
232.689	32.43
232.907	38.57
233.125	11.95
233.342	9.9
233.56	-45.4
233.777	40.62
233.995	28.33
234.213	-14.68
234.43	75.43
234.648	-6.49
234.865	61.1
235.083	1.71
235.3	13.99
235.518	-22.87
235.735	44.71
235.953	24.23
236.17	18.09
236.388	-24.92
236.605	20.14
236.822	7.85
237.04	20.14
237.257	-22.87
237.475	32.43
237.692	-14.68
237.909	-24.92
238.127	-39.25
238.344	77.48
238.562	32.43
238.779	-61.78
238.996	18.09
239.214	1.71
239.431	30.38
239.648	57
239.865	18.09
240.083	1.71
240.3	-55.64
240.517	-55.64
240.735	-8.53
240.952	44.71
241.169	-29.01
241.386	65.19
241.603	24.23
241.821	26.28
242.038	9.9
242.255	-20.82
242.472	-43.35
242.689	-31.06
242.907	22.19
243.124	-10.58
243.341	-20.82
243.558	26.28
243.775	46.76
243.992	-51.54
244.209	-0.34
244.426	100.01
244.643	3.75
244.86	9.9
245.078	52.91
245.295	-18.77
245.512	24.23
245.729	11.95
245.946	83.63
246.163	97.96
246.38	3.75
246.597	-0.34
246.814	73.39
247.031	-14.68
247.248	67.24
247.464	106.15
247.681	24.23
247.898	48.81
248.115	59.05
248.332	28.33
248.549	83.63
248.766	11.95
248.983	-8.53
249.2	-24.92
249.417	50.86
249.633	-31.06
249.85	3.75
250.067	-6.49
250.284	-14.68
250.501	32.43
250.717	50.86
250.934	-35.16
251.151	38.57
251.368	-24.92
251.585	-0.34
251.801	-2.39
252.018	-22.87
252.235	34.47
252.451	-43.35
252.668	-29.01
252.885	97.96
253.102	26.28
253.318	-33.11
253.535	-33.11
253.752	-20.82
253.968	20.14
254.185	-10.58
254.401	-2.39
254.618	54.95
254.835	-29.01
255.051	75.43
255.268	-26.96
255.484	-43.35
255.701	57
255.917	100.01
256.134	-51.54
256.351	26.28
256.567	38.57
256.784	24.23
257	-6.49
257.217	18.09
257.433	59.05
257.65	13.99
257.866	18.09
258.082	13.99
258.299	40.62
258.515	71.34
258.732	48.81
258.948	-22.87
259.165	34.47
259.381	20.14
259.597	5.8
259.814	30.38
260.03	48.81
260.246	40.62
260.463	9.9
260.679	26.28
260.895	-33.11
261.112	28.33
261.328	-41.3
261.544	-29.01
261.761	1.71
261.977	-20.82
262.193	-29.01
262.409	57
262.626	-16.73
262.842	-0.34
263.058	26.28
263.274	85.67
263.49	26.28
263.707	28.33
263.923	69.29
264.139	-16.73
264.355	77.48
264.571	54.95
264.787	22.19
265.004	128.68
265.22	124.58
265.436	1.71
265.652	-41.3
265.868	32.43
266.084	-51.54
266.3	71.34
266.516	-2.39
266.732	-45.4
266.948	-39.25
267.164	9.9
267.38	32.43
267.596	-31.06
267.812	95.91
268.028	48.81
268.244	-33.11
268.46	32.43
268.676	42.67
268.892	-14.68
269.108	-37.2
269.324	85.67
269.54	24.23
269.756	61.1
269.972	-22.87
270.188	22.19
270.403	-14.68
270.619	-35.16
270.835	5.8
271.051	20.14
271.267	-6.49
271.483	1.71
271.698	-8.53
271.914	-49.49
272.13	50.86
272.346	13.99
272.562	34.47
272.777	91.82
272.993	-18.77
273.209	-43.35
273.425	48.81
273.64	28.33
273.856	26.28
274.072	-4.44
274.287	-39.25
274.503	28.33
274.719	128.68
274.934	-90.45
275.15	-16.73
275.366	-6.49
275.581	-72.02
275.797	42.67
276.012	-14.68
276.228	9.9
276.444	22.19
276.659	50.86
276.875	16.04
277.09	-14.68
277.306	24.23
277.521	16.04
277.737	9.9
277.952	81.58
278.168	48.81
278.383	50.86
278.599	42.67
278.814	36.52
279.03	18.09
279.245	57
279.461	40.62
279.676	59.05
279.892	75.43
280.107	-18.77
280.322	-16.73
280.538	79.53
280.753	28.33
280.969	-0.34
281.184	38.57
281.399	30.38
281.615	-16.73
281.83	-0.34
282.045	20.14
282.26	44.71
282.476	13.99
282.691	54.95
282.906	-2.39
283.122	1.71
283.337	-43.35
283.552	28.33
283.767	-0.34
283.983	34.47
284.198	11.95
284.413	54.95
284.628	52.91
284.843	13.99
285.058	38.57
285.274	-55.64
285.489	67.24
285.704	28.33
285.919	3.75
286.134	20.14
286.349	11.95
286.564	79.53
286.779	9.9
286.995	-63.83
287.21	-45.4
287.425	40.62
287.64	3.75
287.855	73.39
288.07	-37.2
288.285	85.67
288.5	26.28
288.715	114.34
288.93	122.54
289.145	-10.58
289.36	73.39
289.575	-16.73
289.79	30.38
290.004	-20.82
290.219	95.91
290.434	42.67
290.649	48.81
290.864	40.62
291.079	-24.92
291.294	106.15
291.509	-31.06
291.724	5.8
291.938	34.47
292.153	63.15
292.368	-35.16
292.583	59.05
292.798	1.71
293.012	-4.44
293.227	-4.44
293.442	36.52
293.657	83.63
293.871	65.19
294.086	-18.77
294.301	57
294.516	24.23
294.73	54.95
294.945	-63.83
295.16	1.71
295.374	57
295.589	42.67
295.804	30.38
296.018	46.76
296.233	83.63
296.447	26.28
296.662	-33.11
296.877	52.91
297.091	75.43
297.306	79.53
297.52	24.23
297.735	22.19
297.949	9.9
298.164	59.05
298.378	28.33
298.593	-69.97
298.807	-63.83
299.022	-16.73
299.236	63.15
299.451	-57.68
299.665	-0.34
299.88	9.9
300.094	3.75
300.309	-2.39
300.523	-2.39
300.737	5.8
300.952	16.04
301.166	65.19
301.381	95.91
301.595	-6.49
301.809	5.8
302.024	22.19
302.238	-33.11
302.452	73.39
302.667	-37.2
302.881	75.43
303.095	28.33
303.309	-0.34
303.524	-20.82
303.738	42.67
303.952	-39.25
304.166	63.15
304.381	-88.4
304.595	61.1
304.809	7.85
305.023	134.82
305.237	5.8
305.452	34.47
305.666	67.24
305.88	71.34
306.094	16.04
306.308	59.05
306.522	54.95
306.736	67.24
306.95	63.15
307.164	3.75
307.379	11.95
307.593	83.63
307.807	46.76
308.021	-16.73
308.235	-6.49
308.449	20.14
308.663	5.8
308.877	153.26
309.091	30.38
309.305	48.81
309.519	-47.44
309.733	34.47
309.947	44.71
310.161	50.86
310.374	9.9
310.588	40.62
310.802	-6.49
311.016	3.75
311.23	71.34
311.444	13.99
311.658	30.38
311.872	30.38
312.085	42.67
312.299	81.58
312.513	36.52
312.727	30.38
312.941	11.95
313.154	-22.87
313.368	-29.01
313.582	22.19
313.796	-39.25
314.009	42.67
314.223	89.77
314.437	11.95
314.651	-20.82
314.864	36.52
315.078	54.95
315.292	36.52
315.505	-0.34
315.719	-16.73
315.933	-8.53
316.146	63.15
316.36	-24.92
316.573	16.04
316.787	16.04
317.001	65.19
317.214	-22.87
317.428	-2.39
317.641	63.15
317.855	30.38
318.068	57
318.282	50.86
318.495	79.53
318.709	48.81
318.922	7.85
319.136	7.85
319.349	11.95
319.563	30.38
319.776	28.33
319.99	-10.58
320.203	46.76
320.417	26.28
320.63	65.19
320.843	28.33
321.057	20.14
321.27	65.19
321.483	-8.53
321.697	26.28
321.91	54.95
322.124	71.34
322.337	-6.49
322.55	20.14
322.763	81.58
322.977	-16.73
323.19	57
323.403	63.15
323.617	-39.25
323.83	36.52
324.043	24.23
324.256	59.05
324.469	48.81
324.683	38.57
324.896	9.9
325.109	71.34
325.322	-29.01
325.535	28.33
325.748	38.57
325.962	13.99
326.175	9.9
326.388	38.57
326.601	-12.63
326.814	-2.39
327.027	32.43
327.24	48.81
327.453	9.9
327.666	18.09
327.879	100.01
328.092	30.38
328.305	-31.06
328.518	5.8
328.731	-10.58
328.944	5.8
329.157	-26.96
329.37	18.09
329.583	89.77
329.796	28.33
330.009	46.76
330.222	32.43
330.435	22.19
330.648	24.23
330.861	26.28
331.073	-31.06
331.286	108.2
331.499	61.1
331.712	52.91
331.925	-10.58
332.138	-33.11
332.35	65.19
332.563	38.57
332.776	50.86
332.989	-115.03
333.202	-2.39
333.414	-12.63
333.627	30.38
333.84	34.47
334.053	3.75
334.265	-2.39
334.478	22.19
334.691	24.23
334.903	26.28
335.116	-0.34
335.329	7.85
335.541	-0.34
335.754	65.19
335.966	3.75
336.179	9.9
336.392	-2.39
336.604	32.43
336.817	52.91
337.029	24.23
337.242	3.75
337.454	63.15
337.667	22.19
337.88	50.86
338.092	-0.34
338.305	26.28
338.517	-57.68
338.729	11.95
338.942	40.62
339.154	100.01
339.367	7.85
339.579	71.34
339.792	38.57
340.004	-16.73
340.217	85.67
340.429	-67.92
340.641	-63.83
340.854	3.75
341.066	40.62
341.278	46.76
341.491	73.39
341.703	63.15
341.915	24.23
342.128	44.71
342.34	13.99
342.552	67.24
342.764	48.81
342.977	32.43
343.189	46.76
343.401	16.04
343.613	24.23
343.826	13.99
344.038	-12.63
344.25	-18.77
344.462	34.47
344.674	-12.63
344.886	-26.96
345.099	50.86
345.311	24.23
345.523	18.09
345.735	-35.16
345.947	83.63
346.159	32.43
346.371	54.95
346.583	-12.63
346.795	57
347.007	-22.87
347.219	42.67
347.431	1.71
347.643	18.09
347.855	-31.06
348.067	26.28
348.279	-24.92
348.491	61.1
348.703	36.52
348.915	1.71
349.127	24.23
349.339	59.05
349.551	-41.3
349.763	28.33
349.975	42.67
350.187	16.04
350.399	40.62
350.61	11.95
350.822	-0.34
351.034	18.09
351.246	46.76
351.458	46.76
351.669	5.8
351.881	97.96
352.093	75.43
352.305	69.29
352.517	-31.06
352.728	61.1
352.94	28.33
353.152	-0.34
353.363	-22.87
353.575	52.91
353.787	77.48
353.999	83.63
354.21	97.96
354.422	-2.39
354.633	22.19
354.845	1.71
355.057	5.8
355.268	26.28
355.48	44.71
355.692	63.15
355.903	34.47
356.115	28.33
356.326	-43.35
356.538	108.2
356.749	40.62
356.961	32.43
357.172	38.57
357.384	24.23
357.595	59.05
357.807	87.72
358.018	-86.36
358.23	57
358.441	42.67
358.653	-4.44
358.864	42.67
359.075	59.05
359.287	40.62
359.498	104.11
359.709	24.23
359.921	-65.88
360.132	-6.49
360.344	1.71
360.555	81.58
360.766	20.14
360.977	40.62
361.189	83.63
361.4	-49.49
361.611	36.52
361.823	28.33
362.034	81.58
362.245	-57.68
362.456	32.43
362.667	30.38
362.879	61.1
363.09	104.11
363.301	89.77
363.512	-2.39
363.723	1.71
363.935	20.14
364.146	46.76
364.357	91.82
364.568	5.8
364.779	48.81
364.99	38.57
365.201	71.34
365.412	9.9
365.623	-65.88
365.834	-4.44
366.045	-4.44
366.256	30.38
366.467	-14.68
366.678	40.62
366.889	34.47
367.1	79.53
367.311	22.19
367.522	18.09
367.733	38.57
367.944	93.87
368.155	73.39
368.366	28.33
368.577	40.62
368.788	40.62
368.999	13.99
369.209	63.15
369.42	106.15
369.631	59.05
369.842	32.43
370.053	-8.53
370.264	18.09
370.474	128.68
370.685	40.62
370.896	38.57
371.107	91.82
371.317	73.39
371.528	20.14
371.739	42.67
371.95	42.67
372.16	30.38
372.371	9.9
372.582	40.62
372.792	48.81
373.003	38.57
373.214	32.43
373.424	34.47
373.635	63.15
373.846	26.28
374.056	40.62
374.267	-20.82
374.477	52.91
374.688	13.99
374.898	-6.49
375.109	48.81
375.319	22.19
375.53	63.15
375.74	1.71
375.951	5.8
376.161	46.76
376.372	46.76
376.582	1.71
376.793	32.43
377.003	95.91
377.214	20.14
377.424	40.62
377.635	-0.34
377.845	42.67
378.055	108.2
378.266	-47.44
378.476	63.15
378.686	20.14
378.897	91.82
379.107	-31.06
379.317	89.77
379.528	-0.34
379.738	89.77
379.948	24.23
380.158	69.29
380.369	46.76
380.579	38.57
380.789	30.38
380.999	42.67
381.21	30.38
381.42	177.83
381.63	-6.49
381.84	-10.58
382.05	79.53
382.261	77.48
382.471	79.53
382.681	50.86
382.891	38.57
383.101	13.99
383.311	28.33
383.521	32.43
383.731	26.28
383.941	63.15
384.151	48.81
384.361	30.38
384.571	75.43
384.781	140.97
384.991	95.91
385.201	38.57
385.411	26.28
385.621	93.87
385.831	54.95
386.041	59.05
386.251	28.33
386.461	3.75
386.671	32.43
386.881	1.71
387.091	1.71
387.301	97.96
387.511	13.99
387.72	3.75
387.93	50.86
388.14	20.14
388.35	7.85
388.56	73.39
388.769	106.15
388.979	106.15
389.189	71.34
389.399	26.28
389.609	63.15
389.818	16.04
390.028	83.63
390.238	38.57
390.447	54.95
390.657	95.91
390.867	69.29
391.076	9.9
391.286	3.75
391.496	79.53
391.705	48.81
391.915	18.09
392.125	89.77
392.334	3.75
392.544	59.05
392.753	71.34
392.963	34.47
393.172	-4.44
393.382	38.57
393.591	118.44
393.801	24.23
394.01	95.91
394.22	46.76
394.429	22.19
394.639	52.91
394.848	38.57
395.058	85.67
395.267	20.14
395.477	38.57
395.686	50.86
395.895	93.87
396.105	114.34
396.314	102.06
396.524	112.3
396.733	83.63
396.942	149.16
397.152	87.72
397.361	52.91
397.57	134.82
397.78	16.04
397.989	71.34
398.198	179.88
398.407	75.43
398.617	106.15
398.826	59.05
399.035	65.19
399.244	128.68
399.453	134.82
399.663	13.99
399.872	124.58
400.081	28.33
400.29	89.77
400.499	57
400.708	83.63
400.917	34.47
401.127	34.47
401.336	69.29
401.545	145.06
401.754	81.58
401.963	165.54
402.172	130.73
402.381	63.15
402.59	54.95
402.799	61.1
403.008	157.35
403.217	124.58
403.426	108.2
403.635	124.58
403.844	48.81
404.053	153.26
404.262	83.63
404.471	159.4
404.68	157.35
404.888	65.19
405.097	194.22
405.306	104.11
405.515	83.63
405.724	7.85
405.933	149.16
406.142	95.91
406.35	71.34
406.559	167.59
406.768	208.55
406.977	165.54
407.185	89.77
407.394	222.89
407.603	95.91
407.812	153.26
408.02	173.74
408.229	200.36
408.438	149.16
408.646	177.83
408.855	138.92
409.064	255.65
409.272	179.88
409.481	231.08
409.69	241.32
409.898	206.5
410.107	239.27
410.315	313
410.524	186.02
410.733	265.89
410.941	222.89
411.15	231.08
411.358	306.85
411.567	306.85
411.775	302.76
411.984	329.38
412.192	358.05
412.401	356.01
412.609	321.19
412.818	382.63
413.026	376.48
413.234	399.01
413.443	417.44
413.651	439.97
413.86	411.3
414.068	415.4
414.276	532.13
414.485	456.36
414.693	474.79
414.901	421.54
415.11	534.18
415.318	542.37
415.526	521.89
415.734	669.34
415.943	546.47
416.151	599.71
416.359	614.05
416.567	689.82
416.776	708.26
416.984	812.7
417.192	751.26
417.4	669.34
417.608	777.89
417.817	833.18
418.025	855.71
418.233	927.39
418.441	841.37
418.649	931.48
418.857	1001.12
419.065	968.35
419.273	958.11
419.481	1107.61
419.689	1064.6
419.897	1144.47
420.105	1183.38
420.313	1232.54
420.521	1287.83
420.729	1291.93
420.937	1269.4
421.145	1341.08
421.353	1427.09
421.561	1537.68
421.769	1484.44
421.977	1558.16
422.185	1523.35
422.393	1631.89
422.601	1715.86
422.809	1703.57
423.017	1844.88
423.224	1824.4
423.432	1990.28
423.64	1873.55
423.848	2029.2
424.056	1943.18
424.263	2197.13
424.471	2162.31
424.679	2254.47
424.887	2264.71
425.094	2446.98
425.302	2418.31
425.51	2580.1
425.718	2625.15
425.925	2530.95
426.133	2770.56
426.341	2909.82
426.548	2999.93
426.756	2946.69
426.964	2989.69
427.171	3184.25
427.379	3335.8
427.586	3331.7
427.794	3448.44
428.001	3688.05
428.209	3696.24
428.417	3847.79
428.624	4032.11
428.832	4038.25
429.039	3956.33
429.247	4157.04
429.454	4359.78
429.662	4732.51
429.869	4357.74
430.076	4517.48
430.284	4482.66
430.491	4783.71
430.699	5033.57
430.906	4945.5
431.114	5002.85
431.321	5211.74
431.528	5404.25
431.736	5781.07
431.943	6014.54
432.15	5779.03
432.358	5768.79
432.565	6129.23
432.772	6067.79
432.979	6399.56
433.187	6731.33
433.394	6596.17
433.601	7171.65
433.808	7020.1
434.016	6981.18
434.223	7196.22
434.43	7775.8
434.637	7527.99
434.844	7898.67
435.052	8138.29
435.259	8191.53
435.466	8156.72
435.673	7861.81
435.88	8787.49
436.087	9006.63
436.294	9084.45
436.501	8640.04
436.708	9059.87
436.915	9451.03
437.122	9840.15
437.329	9711.13
437.537	10116.62
437.743	10268.17
437.95	10065.43
438.157	10712.58
438.364	11003.39
438.571	10954.24
438.778	10812.93
438.985	12021.24
439.192	11691.51
439.399	12092.91
439.606	11589.11
439.813	12391.92
440.02	13092.32
440.227	12991.97
440.433	12729.83
440.64	13260.26
440.847	12955.11
441.054	13616.6
441.261	14360.02
441.467	14204.37
441.674	14415.31
441.881	14665.16
442.088	14716.36
442.294	14648.78
442.501	15128
442.708	15244.74
442.914	16039.35
443.121	16903.59
443.328	16313.78
443.534	17429.92
443.741	16833.96
443.948	16653.74
444.154	17980.82
444.361	17665.44
444.568	18001.3
444.774	18048.41
444.981	18029.98
445.187	18670.99
445.394	19559.81
445.6	19094.92
445.807	21046.63
446.013	20180.34
446.22	20290.93
446.426	21427.56
446.633	21304.68
446.839	22023.51
447.046	21429.6
447.252	22261.08
447.459	22566.23
447.665	22402.39
447.871	23127.37
448.078	23907.65
448.284	22979.92
448.491	23479.62
448.697	24730.93
448.903	25242.92
449.11	24862
449.316	24692.02
449.522	25384.23
449.728	25634.08
449.935	25380.14
450.141	25720.1
450.347	26236.19
450.553	25511.21
450.76	25799.97
450.966	26744.08
451.172	26232.09
451.378	26701.08
451.584	26021.15
451.791	27014.41
451.997	26936.59
452.203	27376.9
452.409	27516.17
452.615	27297.03
452.821	26064.16
453.027	25988.38
453.233	27202.83
453.44	25998.62
453.646	26393.88
453.852	26357.02
454.058	26780.95
454.264	25842.98
454.47	26191.13
454.676	25847.07
454.882	26850.58
455.088	24278.33
455.294	24786.22
455.5	24775.98
455.705	25161
455.911	24390.97
456.117	23708.99
456.323	23344.45
456.529	22134.1
456.735	22965.58
456.941	22293.85
457.147	22351.19
457.352	21546.34
457.558	21370.21
457.764	21212.52
457.97	20950.38
458.176	20434.29
458.381	20163.96
458.587	19344.77
458.793	19533.18
458.999	18300.31
459.204	19617.15
459.41	19215.75
459.616	17884.57
459.821	17931.67
460.027	17827.23
460.233	17403.3
460.438	16764.33
460.644	16635.31
460.85	15965.62
461.055	15846.84
461.261	15744.44
461.466	14464.46
461.672	14128.6
461.878	15285.7
462.083	14390.74
462.289	13800.92
462.494	13436.38
462.7	13041.12
462.905	12727.78
463.111	13219.3
463.316	13202.91
463.522	13106.66
463.727	13329.89
463.932	13178.34
464.138	12596.71
464.343	13116.9
464.549	12719.59
464.754	12957.16
464.959	13075.94
465.165	12908.01
465.37	12113.39
465.575	11804.15
465.781	12418.54
465.986	12588.52
466.191	11988.47
466.397	11742.71
466.602	11302.4
466.807	11550.2
467.012	11873.78
467.218	11591.16
467.423	11335.17
467.628	11623.93
467.833	11974.13
468.038	11412.99
468.244	11245.06
468.449	11785.72
468.654	11433.47
468.859	11185.66
469.064	11267.58
469.269	10651.14
469.474	10948.1
469.679	11034.11
469.885	10636.81
470.09	10993.15
470.295	10509.83
470.5	10419.72
470.705	10413.58
470.91	10268.17
471.115	10237.45
471.32	10307.09
471.525	10268.17
471.73	10046.99
471.935	9897.49
472.139	9860.63
472.344	9946.64
472.549	9520.67
472.754	9870.87
472.959	9223.71
473.164	9213.47
473.369	9207.33
473.574	9424.41
473.778	9256.48
473.983	9207.33
474.188	9063.97
474.393	8898.08
474.598	8762.92
474.802	8726.05
475.007	8807.97
475.212	8594.98
475.417	8316.46
475.621	8386.09
475.826	8410.67
476.031	8181.29
476.235	8177.2
476.44	8386.09
476.645	7986.74
476.849	8115.76
477.054	7931.44
477.259	7845.43
477.463	7890.48
477.668	7829.04
477.872	7722.55
478.077	7601.72
478.282	7527.99
478.486	7552.57
478.691	7396.92
478.895	7382.59
479.1	7323.19
479.304	7177.79
479.509	7171.65
479.713	7353.91
479.918	7142.97
480.122	7009.86
480.326	7149.12
480.531	7155.26
480.735	6954.56
480.94	6843.97
481.144	7089.73
481.348	6827.59
481.553	6891.07
481.757	6819.39
481.961	6805.06
482.166	7001.66
482.37	6942.27
482.574	6798.91
482.778	6641.22
482.983	6962.75
483.187	6884.93
483.391	6985.28
483.595	6866.5
483.8	6843.97
484.004	6872.64
484.208	6966.85
484.412	6811.2
484.616	6858.31
484.821	6862.4
485.025	6811.2
485.229	6936.13
485.433	6757.96
485.637	6669.89
485.841	6725.19
486.045	6786.63
486.249	6895.17
486.453	6852.16
486.657	6979.14
486.861	6921.79
487.065	6719.04
487.269	6739.52
487.473	6594.12
487.677	6889.03
487.881	6927.94
488.085	6782.53
488.289	6815.3
488.493	6819.39
488.697	6897.22
488.901	6972.99
489.105	6841.92
489.309	6907.46
489.512	6946.37
489.716	6946.37
489.92	6850.11
490.124	6893.12
490.328	6958.66
490.531	6839.87
490.735	7177.79
490.939	6901.31
491.143	7013.95
491.346	7007.81
491.55	7059.01
491.754	7175.74
491.958	7261.76
492.161	7020.1
492.365	7452.22
492.569	7202.36
492.772	7321.15
492.976	7480.89
493.18	7333.43
493.383	7482.94
493.587	7466.55
493.79	7591.48
493.994	7456.31
494.197	7564.86
494.401	7759.41
494.605	7587.38
494.808	7710.26
495.012	7810.61
495.215	7931.44
495.419	7980.59
495.622	7827
495.825	8062.51
496.029	8013.36
496.232	8119.85
496.436	8312.36
496.639	8574.5
496.843	8388.14
497.046	8623.66
497.249	8726.05
497.453	8721.96
497.656	8791.59
497.859	8588.84
498.063	8803.88
498.266	8996.39
498.469	8812.07
498.673	9168.41
498.876	9145.89
499.079	9426.46
499.282	9244.19
499.485	9762.33
499.689	9561.62
499.892	9625.11
500.095	9868.82
500.298	10012.18
500.501	9752.09
500.705	10139.15
500.908	10290.7
501.111	10346
501.314	10493.45
501.517	10667.53
501.72	10731.01
501.923	10814.98
502.126	11017.73
502.329	11279.87
502.532	11148.8
502.735	11337.21
502.938	11294.21
503.141	11546.11
503.344	11783.67
503.547	11732.47
503.75	11843.06
503.953	11912.69
504.156	12092.91
504.359	12187.12
504.562	12514.8
504.765	12830.18
504.968	12641.77
505.17	13018.6
505.373	12965.35
505.576	13125.09
505.779	13329.89
505.982	13120.99
506.185	13637.08
506.387	13626.84
506.59	13968.85
506.793	14314.96
506.996	14020.05
507.198	14362.06
507.401	14106.07
507.604	14478.8
507.807	14941.64
508.009	14829
508.212	14859.72
508.415	15048.13
508.617	15459.77
508.82	15359.42
509.022	15457.73
509.225	16123.32
509.428	15850.94
509.63	15902.14
509.833	16166.32
510.035	16770.47
510.238	16457.14
510.44	16635.31
510.643	16901.54
510.845	17204.64
511.048	16942.5
511.25	17321.38
511.453	17470.88
511.655	18230.68
511.858	17687.96
512.06	18134.42
512.262	18064.79
512.465	18193.81
512.667	18517.39
512.87	18949.51
513.072	18906.51
513.274	19250.56
513.477	19434.88
513.679	19481.99
513.881	19627.39
514.084	19756.41
514.286	19971.45
514.488	20215.16
514.69	20632.94
514.893	20579.7
515.095	20741.49
515.297	21038.44
515.499	21079.4
515.701	21462.37
515.904	21615.97
516.106	21960.03
516.308	22072.67
516.51	22220.12
516.712	22074.71
516.914	22527.31
517.116	23104.84
517.318	22795.6
517.52	23053.64
517.722	23285.06
517.925	23299.4
518.127	23852.35
518.329	23768.38
518.531	23741.76
518.733	24382.77
518.935	24526.13
519.136	24497.46
519.338	24794.42
519.54	24948.01
519.742	25417
519.944	25380.14
520.146	25892.13
520.348	25955.61
520.55	26017.05
520.752	26141.98
520.954	26604.82
521.155	26389.78
521.357	27127.05
521.559	27227.4
521.761	27548.93
521.963	27817.22
522.164	27829.51
522.366	27806.98
522.568	28366.07
522.77	28249.34
522.971	28605.69
523.173	28452.09
523.375	28878.07
523.576	28845.3
523.778	28585.21
523.98	29175.02
524.181	29420.78
524.383	29828.32
524.584	29766.88
524.786	29707.49
524.988	29785.32
525.189	30196.96
525.391	30170.33
525.592	30508.25
525.794	30534.87
525.995	30733.53
526.197	30528.73
526.398	31016.15
526.6	31116.5
526.801	31253.71
527.003	31333.58
527.204	31268.05
527.406	31790.28
527.607	31870.15
527.808	31907.01
528.01	31309
528.211	31821
528.412	32533.69
528.614	32101.57
528.815	32560.31
529.016	32486.59
529.218	32216.26
529.419	32771.25
529.62	32341.18
529.822	32656.57
530.023	32963.76
530.224	32949.43
530.425	32771.25
530.626	32933.04
530.828	32679.1
531.029	33785
531.23	32918.71
531.431	33176.75
531.632	33524.91
531.833	33541.29
532.035	33045.68
532.236	33410.22
532.437	33709.22
532.638	33311.92
532.839	33903.78
533.04	33610.92
533.241	33410.22
533.442	33989.8
533.643	33643.69
533.844	33862.82
534.045	33744.04
534.246	33486
534.447	33938.6
534.648	33674.41
534.849	33889.45
535.05	33574.06
535.251	33924.26
535.451	33709.22
535.652	34114.72
535.853	33764.52
536.054	34065.57
536.255	33981.6
536.456	33666.22
536.657	34004.13
536.857	33815.72
537.058	33832.1
537.259	34450.59
537.46	34251.94
537.66	34024.61
537.861	34012.32
538.062	34282.66
538.263	33971.36
538.463	34032.8
538.664	34090.15
538.865	33658.03
539.065	33830.05
539.266	33875.11
539.466	34102.43
539.667	33787.05
539.868	34198.69
540.068	33977.51
540.269	33799.33
540.469	34049.19
540.67	33942.69
540.87	34122.91
541.071	34264.22
541.271	34192.54
541.472	33629.35
541.672	33975.46
541.873	33952.93
542.073	33682.6
542.274	34141.35
542.474	33684.65
542.675	33524.91
542.875	33981.6
543.075	34079.91
543.276	33152.18
543.476	34049.19
543.676	33615.02
543.877	33938.6
544.077	34086.05
544.277	34045.09
544.478	33983.65
544.678	33916.07
544.878	33930.4
545.078	34055.33
545.279	33397.93
545.479	33752.23
545.679	33754.28
545.879	33959.08
546.079	33791.14
546.28	33881.25
546.48	33141.94
546.68	34057.38
546.88	33787.05
547.08	34004.13
547.28	33647.79
547.48	33567.91
547.68	33825.96
547.88	33578.15
548.081	33821.86
548.281	33322.16
548.481	33580.2
548.681	34000.04
548.881	33348.78
549.081	33778.86
549.28	33287.34
549.48	33832.1
549.68	33498.28
549.88	33623.21
550.08	33572.01
550.28	33416.36
550.48	33649.83
550.68	33737.9
550.88	33336.49
551.08	33363.12
551.279	33701.03
551.479	33277.1
551.679	33451.18
551.879	33633.45
552.079	33565.87
552.278	33324.21
552.478	33080.5
552.678	33612.97
552.878	33328.3
553.077	33623.21
553.277	32943.28
553.477	33801.38
553.676	33115.31
553.876	33238.19
554.076	33328.3
554.275	33129.65
554.475	32840.89
554.674	33246.38
554.874	33266.86
555.074	33230
555.273	32941.24
555.473	33307.82
555.672	32994.48
555.872	33051.83
556.071	33252.53
556.271	33103.03
556.47	32959.67
556.67	32490.68
556.869	32887.99
557.068	32816.31
557.268	32496.83
557.467	32572.6
557.667	32818.36
557.866	32713.91
558.065	32359.61
558.265	32394.43
558.464	32064.71
558.663	32695.48
558.863	32279.74
559.062	32664.76
559.261	32107.71
559.461	32472.25
559.66	32060.61
559.859	32328.89
560.058	32287.93
560.258	32072.9
560.457	32011.46
560.656	32021.7
560.855	31933.64
561.054	32488.63
561.253	32013.51
561.453	31849.67
561.652	31775.94
561.851	32181.44
562.05	31847.62
562.249	31579.34
562.448	31683.78
562.647	31524.04
562.846	31476.94
563.045	31349.96
563.244	31050.96
563.443	31478.99
563.642	31040.72
563.841	31208.65
564.04	31042.77
564.239	31411.4
564.438	30981.33
564.637	31397.07
564.836	30764.25
565.035	30717.14
565.234	31065.3
565.432	30704.85
565.631	30414.04
565.83	30797.01
566.029	30450.91
566.228	30280.92
566.427	30291.16
566.625	30289.12
566.824	29848.8
567.023	30053.6
567.222	29736.16
567.42	29924.58
567.619	29852.9
567.818	30037.22
568.016	29854.95
568.215	30014.69
568.414	29725.93
568.612	29615.33
568.811	29482.22
569.01	29727.97
569.208	29355.24
569.407	29482.22
569.605	28693.75
569.804	29404.39
570.002	29074.67
570.201	29043.95
570.4	28949.74
570.598	28888.31
570.797	28833.01
570.995	29033.71
571.193	28458.23
571.392	28833.01
571.59	28597.49
571.789	28427.51
571.987	28527.86
572.186	28761.33
572.384	28323.07
572.582	28081.41
572.781	28181.76
572.979	28110.08
573.177	28077.31
573.376	28030.21
573.574	27956.48
573.772	28067.07
573.971	27538.69
574.169	27755.78
574.367	27401.48
574.565	27673.86
574.763	27618.57
574.962	27507.97
575.16	27178.25
575.358	27428.1
575.556	26705.17
575.754	27297.03
575.952	26938.64
576.151	27417.86
576.349	26791.19
576.547	26817.81
576.745	26869.01
576.943	27000.08
577.141	26479.89
577.339	26631.44
577.537	26811.67
577.735	26656.02
577.933	26338.58
578.131	26361.11
578.329	26242.33
578.527	26023.2
578.725	26144.03
578.923	26158.36
579.121	25777.44
579.319	25877.79
579.516	25967.9
579.714	25881.89
579.912	25902.37
580.11	25759.01
580.308	25597.22
580.506	25570.6
580.704	25040.17
580.901	25361.7
581.099	25431.33
581.297	25300.26
581.495	25083.18
581.692	25097.52
581.89	25208.11
582.088	25304.36
582.285	24640.82
582.483	25259.31
582.681	24804.66
582.878	24722.74
583.076	24872.24
583.274	24917.29
583.471	24237.37
583.669	24773.94
583.866	24653.11
584.064	24538.42
584.262	24442.17
584.459	24556.85
584.657	24212.79
584.854	24307
585.052	23971.13
585.249	24147.26
585.447	24259.9
585.644	24067.39
585.841	24132.92
586.039	24005.95
586.236	23594.31
586.434	23586.11
586.631	23846.21
586.828	23586.11
587.026	23483.72
587.223	23610.69
587.42	23125.32
587.618	23457.09
587.815	23213.38
588.012	23264.58
588.21	23121.23
588.407	23448.9
588.604	22971.72
588.801	22785.36
588.999	22930.76
589.196	22951.24
589.393	22687.06
589.59	22674.77
589.787	22629.71
589.984	22734.16
590.182	22078.81
590.379	22461.78
590.576	22179.16
590.773	22140.25
590.97	22201.69
591.167	22375.77
591.364	21929.31
591.561	21978.46
591.758	21781.85
591.955	21935.45
592.152	21933.4
592.349	21601.63
592.546	21796.19
592.743	21497.19
592.94	21488.99
593.137	21585.25
593.334	21671.26
593.531	21276.01
593.727	21519.71
593.924	21460.32
594.121	21437.8
594.318	21388.64
594.515	21001.58
594.712	21419.36
594.908	21075.31
595.105	21093.74
595.302	21015.91
595.499	20956.52
595.696	20796.78
595.892	20823.4
596.089	20735.34
596.286	20837.74
596.482	20465.01
596.679	20387.19
596.876	20290.93
597.072	20364.66
597.269	20395.38
597.466	20299.12
597.662	20163.96
597.859	20235.64
598.055	20102.52
598.252	20155.77
598.448	20012.41
598.645	19789.18
598.841	19725.69
599.038	20086.14
599.234	19832.19
599.431	19619.2
599.627	19780.99
599.824	20000.12
600.02	19500.42
600.217	19553.66
600.413	19518.85
600.609	19182.98
600.806	19225.99
601.002	19307.91
601.198	19090.82
601.395	19092.87
601.591	19154.31
601.787	19191.17
601.984	19084.68
602.18	19236.23
602.376	18957.71
602.572	18730.38
602.769	18888.07
602.965	18652.56
603.161	18843.02
603.357	18697.61
603.553	18255.25
603.75	18498.96
603.946	18273.68
604.142	18664.85
604.338	18036.12
604.534	18171.29
604.73	18310.55
604.926	18107.8
605.122	18079.13
605.318	18144.66
605.514	17814.94
605.71	18034.07
605.906	17720.73
606.102	17841.56
606.298	17917.34
606.494	17632.67
606.69	17831.32
606.886	17542.56
607.082	17716.64
607.278	17909.15
607.474	17362.34
607.67	17649.05
607.866	17274.28
608.062	17485.22
608.257	17446.3
608.453	17593.76
608.649	17444.26
608.845	17114.53
609.041	17356.19
609.236	17325.47
609.432	17190.31
609.628	17405.35
609.824	17225.12
610.019	16883.11
610.215	17046.95
610.411	17071.53
610.606	16766.38
610.802	16965.03
610.998	16883.11
611.193	16903.59
611.389	16850.35
611.584	16860.59
611.78	16549.29
611.976	16584.11
612.171	16571.82
612.367	16844.2
612.562	16633.26
612.758	16352.69
612.953	16580.01
613.149	16459.18
613.344	16450.99
613.539	16577.97
613.735	16391.6
613.93	16498.09
614.126	16195
614.321	16676.27
614.517	16131.51
614.712	16119.22
614.907	16223.67
615.103	16135.6
615.298	16131.51
615.493	16195
615.688	16053.69
615.884	16317.87
616.079	15883.7
616.274	16029.11
616.47	15703.48
616.665	15955.38
616.86	15707.58
617.055	15984.05
617.25	15599.04
617.445	15717.82
617.641	15869.37
617.836	15627.71
618.031	15482.3
618.226	15728.06
618.421	15369.66
618.616	15502.78
618.811	15349.18
619.006	15762.87
619.201	15320.51
619.396	15381.95
619.591	15117.76
619.786	15236.55
619.981	15009.22
620.176	15263.17
620.371	14816.71
620.566	14996.93
620.761	14906.82
620.956	14982.6
621.151	14546.38
621.346	14845.38
621.541	14341.58
621.735	14624.2
621.93	14155.22
622.125	14693.83
622.32	14116.31
622.515	14317.01
622.709	14050.77
622.904	13964.76
623.099	14147.03
623.294	13960.66
623.488	13868.5
623.683	13854.17
623.878	13800.92
624.072	13782.49
624.267	13880.79
624.462	13542.88
624.656	13501.92
624.851	13497.82
625.046	13247.97
625.24	13571.55
625.435	13317.6
625.629	13233.63
625.824	12965.35
626.018	13180.39
626.213	12930.53
626.407	12957.16
626.602	12709.35
626.796	12735.98
626.991	12668.39
627.185	12668.39
627.38	12594.67
627.574	12506.6
627.768	12316.14
627.963	12266.99
628.157	12199.41
628.352	12387.82
628.546	11894.26
628.74	12191.22
628.935	11994.61
629.129	11961.84
629.323	11777.53
629.517	11666.94
629.712	11748.86
629.906	11752.95
630.1	11652.6
630.294	11580.92
630.489	11402.75
630.683	11453.95
630.877	11349.5
631.071	11386.36
631.265	11501.05
631.459	11124.22
631.653	11333.12
631.848	11238.91
632.042	11165.18
632.236	11150.85
632.43	10755.59
632.624	11036.16
632.818	10798.6
633.012	10610.18
633.206	10505.74
633.4	10860.04
633.594	10573.32
633.788	10677.77
633.982	10593.8
634.176	10653.19
634.369	10292.75
634.563	10343.95
634.757	10259.98
634.951	10266.13
635.145	10323.47
635.339	10333.71
635.533	10139.15
635.726	10223.12
635.92	9928.21
636.114	10020.37
636.308	9872.92
636.501	9725.46
636.695	9797.14
636.889	9866.77
637.083	9668.12
637.276	9614.87
637.47	9481.75
637.664	9403.93
637.857	9459.23
638.051	9627.16
638.244	9162.27
638.438	9311.77
638.632	9219.61
638.825	9143.84
639.019	8869.41
639.212	9027.1
639.406	8924.71
639.599	9088.54
639.793	9154.08
639.986	8963.62
640.18	8820.26
640.373	8977.95
640.567	8775.2
640.76	8658.47
640.954	8701.48
641.147	8500.78
641.34	8386.09
641.534	8740.39
641.727	8576.55
641.92	8363.56
642.114	8451.63
642.307	8414.76
642.5	8242.73
642.694	8189.49
642.887	8261.16
643.08	8152.62
643.273	7996.98
643.467	8009.26
643.66	7972.4
643.853	7986.74
644.046	8072.75
644.239	7849.52
644.432	7847.47
644.626	7816.76
644.819	7648.82
645.012	7779.89
645.205	7634.49
645.398	7628.34
645.591	7544.38
645.784	7679.54
645.977	7472.7
646.17	7308.86
646.363	7534.14
646.556	7294.52
646.749	7349.82
646.942	7546.42
647.135	7261.76
647.328	7153.21
647.521	7171.65
647.714	7124.54
647.907	7122.49
648.099	7212.6
648.292	7128.64
648.485	7147.07
648.678	6895.17
648.871	7106.11
649.064	6886.98
649.256	6839.87
649.449	6749.76
649.642	6932.03
649.835	6839.87
650.027	6669.89
650.22	6649.41
650.413	6518.34
650.605	6544.97
650.798	6575.69
650.991	6532.68
651.183	6587.97
651.376	6364.75
651.568	6487.62
651.761	6477.38
651.954	6467.14
652.146	6344.27
652.339	6233.68
652.531	6196.81
652.724	6295.11
652.916	6211.15
653.109	6262.35
653.301	6112.85
653.494	6231.63
653.686	6018.64
653.879	6145.61
654.071	5992.02
654.263	5998.16
654.456	6045.26
654.648	6088.27
654.84	5781.07
655.033	5801.55
655.225	5998.16
655.417	5676.63
655.61	5750.35
655.802	5791.31
655.994	5676.63
656.186	5719.64
656.379	5658.2
656.571	5639.76
656.763	5523.03
656.955	5600.85
657.148	5568.09
657.34	5496.41
657.532	5412.44
657.724	5135.96
657.916	5424.73
658.108	5422.68
658.3	5277.27
658.492	5437.02
658.684	5230.17
658.876	5238.36
659.068	5295.71
659.26	5207.64
659.452	5148.25
659.644	5228.12
659.836	5056.09
660.028	5148.25
660.22	5023.33
660.412	5049.95
660.604	4974.17
660.796	4939.36
660.988	4988.51
661.18	5066.33
661.372	4841.06
661.563	4898.4
661.755	4900.45
661.947	4920.93
662.139	4740.71
662.331	4841.06
662.522	4712.03
662.714	4597.35
662.906	4736.61
663.097	4677.22
663.289	4677.22
663.481	4769.38
663.673	4513.38
663.864	4540.01
664.056	4456.04
664.247	4550.25
664.439	4443.75
664.631	4476.52
664.822	4642.4
665.014	4550.25
665.205	4523.62
665.397	4333.16
665.588	4337.26
665.78	4322.92
665.971	4419.18
666.163	4380.26
666.354	4580.96
666.546	4212.33
666.737	4271.72
666.929	4154.99
667.12	4320.87
667.311	4292.2
667.503	4216.43
667.694	4302.44
667.885	4169.32
668.077	4032.11
668.268	4054.64
668.459	4183.66
668.651	4193.9
668.842	4073.07
669.033	4111.98
669.224	4034.16
669.416	4132.46
669.607	3933.81
669.798	3954.29
669.989	4052.59
670.18	3894.9
670.371	3987.05
670.563	4150.89
670.754	3970.67
670.945	3929.71
671.136	3874.42
671.327	3855.98
671.518	3819.12
671.709	3776.11
671.9	3812.98
672.091	3825.26
672.282	3823.22
672.473	3829.36
672.664	3708.53
672.855	3714.67
673.046	3739.25
673.237	3853.94
673.428	3749.49
673.619	3788.4
673.809	3677.81
674	3679.86
674.191	3661.43
674.382	3628.66
674.573	3575.41
674.764	3620.47
674.954	3561.08
675.145	3542.64
675.336	3657.33
675.527	3491.45
675.717	3651.19
675.908	3544.69
676.099	3524.21
676.289	3466.87
676.48	3593.84
676.671	3554.93
676.861	3516.02
677.052	3485.3
677.243	3542.64
677.433	3464.82
677.624	3536.5
677.814	3559.03
678.005	3364.47
678.195	3405.43
678.386	3530.36
678.576	3397.24
678.767	3454.58
678.957	3413.62
679.148	3522.16
679.338	3460.73
679.529	3438.2
679.719	3384.95
679.909	3317.37
680.1	3329.66
680.29	3276.41
680.481	3346.04
680.671	3313.27
680.861	3319.42
681.052	3415.67
681.242	3389.05
681.432	3456.63
681.622	3231.35
681.813	3350.14
682.003	3323.51
682.193	3370.62
682.383	3272.31
682.573	3282.55
682.764	3393.14
682.954	3378.81
683.144	3204.73
683.334	3307.13
683.524	3321.46
683.714	3212.92
683.904	3192.44
684.094	3288.7
684.284	3245.69
684.474	3212.92
684.664	3245.69
684.854	3257.98
685.044	3143.29
685.234	3245.69
685.424	3016.32
685.614	3186.3
685.804	3098.24
685.994	3141.24
686.184	3079.8
686.374	3085.95
686.564	3208.83
686.753	3065.47
686.943	2954.88
687.133	2989.69
687.323	2991.74
687.513	3024.51
687.702	3155.58
687.892	3075.71
688.082	2901.63
688.272	3006.08
688.461	3020.41
688.651	3065.47
688.841	2942.59
689.03	2887.29
689.22	2889.34
689.41	2825.86
689.599	2872.96
689.789	2897.53
689.979	2860.67
690.168	2889.34
690.358	2922.11
690.547	2922.11
690.737	2870.91
690.926	2971.26
691.116	2872.96
691.305	2971.26
691.495	2860.67
691.684	2684.55
691.874	2791.04
692.063	2731.65
692.252	2848.38
692.442	2809.47
692.631	2705.03
692.82	2713.22
693.01	2801.28
693.199	2657.92
693.388	2672.26
693.578	2598.53
693.767	2762.37
693.956	2623.11
694.146	2647.68
694.335	2713.22
694.524	2565.76
694.713	2733.7
694.902	2578.05
695.092	2666.11
695.281	2582.15
695.47	2576
695.659	2631.3
695.848	2705.03
696.037	2563.72
696.226	2559.62
696.415	2649.73
696.604	2496.13
696.793	2518.66
696.982	2637.44
697.171	2653.83
697.36	2627.2
697.549	2535.04
697.738	2571.91
697.927	2567.81
698.116	2586.24
698.305	2522.76
698.494	2479.75
698.683	2485.89
698.872	2594.44
699.061	2485.89
699.25	2477.7
699.438	2549.38
699.627	2580.1
699.816	2461.32
700.005	2586.24
700.193	2432.65
700.382	2604.67
700.571	2512.52
700.76	2485.89
700.948	2516.61
701.137	2446.98
701.326	2569.86
701.514	2524.8
701.703	2449.03
701.892	2500.23
702.08	2641.54
702.269	2524.8
702.457	2569.86
702.646	2481.8
702.834	2504.32
703.023	2397.83
703.212	2463.37
703.4	2391.69
703.589	2533
703.777	2553.48
703.965	2455.17
704.154	2500.23
704.342	2412.17
704.531	2348.68
704.719	2592.39
704.907	2586.24
705.096	2430.6
705.284	2424.45
705.472	2479.75
705.661	2467.46
705.849	2379.4
706.037	2430.6
706.226	2483.84
706.414	2342.53
706.602	2279.05
706.79	2430.6
706.979	2317.96
707.167	2444.93
707.355	2401.93
707.543	2512.52
707.731	2533
707.919	2492.04
708.107	2446.98
708.296	2377.35
708.484	2360.97
708.672	2424.45
708.86	2432.65
709.048	2371.21
709.236	2420.36
709.424	2539.14
709.612	2424.45
709.8	2385.54
709.988	2354.82
710.176	2487.94
710.364	2481.8
710.551	2356.87
710.739	2416.26
710.927	2473.6
711.115	2414.21
711.303	2428.55
711.491	2426.5
711.679	2481.8
711.866	2414.21
712.054	2424.45
712.242	2344.58
712.43	2363.01
712.617	2487.94
712.805	2516.61
712.993	2426.5
713.181	2342.53
713.368	2477.7
713.556	2444.93
713.744	2428.55
713.931	2483.84
714.119	2369.16
714.306	2393.73
714.494	2354.82
714.682	2285.19
714.869	2416.26
715.057	2381.45
715.244	2350.73
715.432	2457.22
715.619	2352.77
715.807	2432.65
715.994	2348.68
716.182	2385.54
716.369	2434.69
716.556	2352.77
716.744	2371.21
716.931	2334.34
717.119	2582.15
717.306	2371.21
717.493	2446.98
717.681	2418.31
717.868	2481.8
718.055	2422.41
718.242	2444.93
718.43	2492.04
718.617	2401.93
718.804	2541.19
718.991	2311.82
719.179	2578.05
719.366	2403.97
719.553	2424.45
719.74	2487.94
719.927	2457.22
720.114	2369.16
720.301	2369.16
720.488	2455.17
720.676	2285.19
720.863	2424.45
721.05	2391.69
721.237	2350.73
721.424	2219.66
721.611	2356.87
721.798	2266.76
721.985	2426.5
722.172	2309.77
722.358	2471.56
722.545	2406.02
722.732	2410.12
722.919	2410.12
723.106	2303.62
723.293	2383.49
723.48	2420.36
723.667	2338.44
723.853	2408.07
724.04	2299.53
724.227	2309.77
724.414	2340.49
724.6	2344.58
724.787	2438.79
724.974	2356.87
725.161	2469.51
725.347	2309.77
725.534	2363.01
725.72	2295.43
725.907	2260.62
726.094	2326.15
726.28	2383.49
726.467	2299.53
726.653	2281.1
726.84	2326.15
727.027	2303.62
727.213	2444.93
727.4	2182.79
727.586	2397.83
727.773	2340.49
727.959	2451.08
728.145	2350.73
728.332	2320.01
728.518	2313.86
728.705	2315.91
728.891	2277
729.077	2305.67
729.264	2307.72
729.45	2305.67
729.636	2285.19
729.823	2264.71
730.009	2330.25
730.195	2295.43
730.382	2297.48
730.568	2213.51
730.754	2254.47
730.94	2281.1
731.126	2320.01
731.313	2418.31
731.499	2258.57
731.685	2336.39
731.871	2332.3
732.057	2309.77
732.243	2233.99
732.429	2320.01
732.615	2277
732.801	2305.67
732.987	2252.42
733.173	2203.27
733.359	2246.28
733.545	2285.19
733.731	2246.28
733.917	2182.79
734.103	2227.85
734.289	2190.99
734.475	2285.19
734.661	2166.41
734.847	2254.47
735.033	2256.52
735.219	2295.43
735.404	2299.53
735.59	2195.08
735.776	2197.13
735.962	2262.66
736.148	2270.86
736.333	2154.12
736.519	2102.92
736.705	2164.36
736.89	2211.46
737.076	2109.07
737.262	2174.6
737.447	2098.83
737.633	2111.11
737.819	2156.17
738.004	2080.39
738.19	2064.01
738.375	2078.35
738.561	2025.1
738.747	2182.79
738.932	2156.17
739.118	2070.16
739.303	2135.69
739.489	2051.72
739.674	2008.72
739.859	2088.59
740.045	2023.05
740.23	2117.26
740.416	2016.91
740.601	2041.48
740.786	2115.21
740.972	2074.25
741.157	2053.77
741.342	2025.1
741.528	1969.8
741.713	2041.48
741.898	2014.86
742.084	1955.47
742.269	1984.14
742.454	1924.75
742.639	2047.63
742.824	1896.08
743.01	1930.89
743.195	1869.45
743.38	1918.61
743.565	1994.38
743.75	1937.04
743.935	1918.61
744.12	1949.32
744.305	1769.1
744.49	1885.84
744.675	1812.11
744.86	1840.78
745.045	1908.37
745.23	1846.93
745.415	1777.3
745.6	1865.36
745.785	1699.47
745.97	1873.55
746.155	1805.97
746.34	1918.61
746.525	1871.5
746.71	1805.97
746.895	1699.47
747.079	1736.34
747.264	1732.24
747.449	1689.23
747.634	1722
747.819	1771.15
748.003	1685.14
748.188	1689.23
748.373	1785.49
748.557	1578.64
748.742	1713.81
748.927	1658.51
749.111	1668.75
749.296	1635.99
749.481	1635.99
749.665	1685.14
749.85	1468.05
750.034	1672.85
750.219	1685.14
750.404	1549.97
750.588	1564.31
750.773	1459.86
750.957	1529.49
751.141	1455.76
751.326	1482.39
751.51	1490.58
751.695	1486.48
751.879	1494.68
752.064	1498.77
752.248	1470.1
752.432	1476.24
752.617	1431.19
752.801	1320.6
752.985	1445.52
753.17	1369.75
753.354	1449.62
753.538	1425.04
753.722	1324.69
753.907	1418.9
754.091	1269.4
754.275	1324.69
754.459	1287.83
754.643	1320.6
754.828	1332.89
755.012	1279.64
755.196	1230.49
755.38	1355.41
755.564	1263.26
755.748	1136.28
755.932	1175.19
756.116	1279.64
756.3	1304.21
756.484	1113.75
756.668	1273.5
756.852	1222.3
757.036	1150.62
757.22	1203.86
757.404	1169.05
757.588	1107.61
757.772	1164.95
757.956	1189.53
758.14	1105.56
758.323	1130.14
758.507	1083.03
758.691	1130.14
758.875	1087.13
759.059	1144.47
759.242	1064.6
759.426	1066.65
759.61	1080.99
759.794	1042.07
759.977	1007.26
760.161	1103.51
760.345	1216.15
760.528	1027.74
760.712	1160.86
760.895	1103.51
761.079	939.68
761.263	1044.12
761.446	1046.17
761.63	1040.03
761.813	999.07
761.997	984.73
762.18	915.1
762.364	1085.08
762.547	978.59
762.731	968.35
762.914	872.09
763.098	929.44
763.281	956.06
763.464	951.96
763.648	997.02
763.831	980.64
764.015	943.77
764.198	976.54
764.381	908.96
764.564	951.96
764.748	968.35
764.931	923.29
765.114	992.92
765.297	886.43
765.481	911
765.664	831.13
765.847	923.29
766.03	886.43
766.213	861.85
766.397	884.38
766.58	876.19
766.763	878.24
766.946	861.85
767.129	941.72
767.312	806.56
767.495	859.81
767.678	833.18
767.861	870.05
768.044	855.71
768.227	868
768.41	872.09
768.593	861.85
768.776	837.28
768.959	841.37
769.142	788.13
769.324	851.61
769.507	732.83
769.69	829.09
769.873	796.32
770.056	827.04
770.239	831.13
770.421	919.2
770.604	794.27
770.787	843.42
770.97	765.6
771.152	736.93
771.335	810.65
771.518	708.26
771.7	806.56
771.883	786.08
772.066	695.97
772.248	673.44
772.431	792.22
772.613	800.41
772.796	706.21
772.978	747.17
773.161	775.84
773.343	753.31
773.526	579.23
773.708	642.72
773.891	726.69
774.073	669.34
774.256	747.17
774.438	751.26
774.621	720.54
774.803	636.58
774.985	691.87
775.168	650.91
775.35	648.86
775.532	593.57
775.715	624.29
775.897	691.87
776.079	652.96
776.261	612
776.444	640.67
776.626	661.15
776.808	644.77
776.99	566.95
777.173	673.44
777.355	452.26
777.537	607.91
777.719	591.52
777.901	521.89
778.083	566.95
778.265	550.56
778.447	609.95
778.629	534.18
778.811	556.71
778.993	540.32
779.175	646.82
779.357	460.45
779.539	452.26
779.721	595.62
779.903	515.75
780.085	554.66
780.267	523.94
780.449	460.45
780.631	603.81
780.812	464.55
780.994	493.22
781.176	501.41
781.358	599.71
781.54	407.2
781.721	485.03
781.903	587.43
782.085	444.07
782.267	499.36
782.448	474.79
782.63	571.04
782.812	429.73
782.993	439.97
783.175	493.22
783.357	427.68
783.538	427.68
783.72	472.74
783.901	435.88
784.083	534.18
784.264	411.3
784.446	442.02
784.627	360.1
784.809	419.49
784.99	405.16
785.172	437.92
785.353	482.98
785.535	386.72
785.716	386.72
785.897	515.75
786.079	472.74
786.26	345.77
786.441	460.45
786.623	376.48
786.804	366.25
786.985	370.34
787.167	353.96
787.348	284.33
787.529	394.92
787.71	460.45
787.891	339.62
788.073	403.11
788.254	401.06
788.435	407.2
788.616	351.91
788.797	374.44
788.978	358.05
789.159	333.48
789.34	319.14
789.522	370.34
789.703	331.43
789.884	300.71
790.065	351.91
790.246	310.95
790.427	405.16
790.607	319.14
790.788	366.25
790.969	296.61
791.15	329.38
791.331	276.13
791.512	327.33
791.693	237.22
791.874	351.91
792.054	360.1
792.235	411.3
792.416	325.29
792.597	296.61
792.778	337.57
792.958	345.77
793.139	308.9
793.32	372.39
793.5	282.28
793.681	315.05
793.862	253.61
794.042	286.37
794.223	251.56
794.404	251.56
794.584	276.13
794.765	317.09
794.945	229.03
795.126	345.77
795.306	294.57
795.487	200.36
795.667	237.22
795.848	253.61
796.028	247.46
796.209	278.18
796.389	237.22
796.57	171.69
796.75	253.61
796.93	288.42
797.111	231.08
797.291	206.5
797.471	147.11
797.652	278.18
797.832	202.41
798.012	278.18
798.192	204.46
798.373	143.02
798.553	243.37
798.733	251.56
798.913	183.98
799.093	272.04
799.274	208.55
799.454	233.13
799.634	233.13
799.814	247.46
799.994	220.84
800.174	265.89
800.354	222.89
800.534	196.26
800.714	249.51
800.894	140.97
801.074	159.4
801.254	235.18
801.434	241.32
801.614	220.84
801.794	222.89
801.974	794.27
802.154	157.35
802.334	243.37
802.514	124.58
802.693	181.93
802.873	253.61
803.053	272.04
803.233	159.4
803.413	239.27
803.592	212.65
803.772	134.82
803.952	222.89
804.131	116.39
804.311	173.74
804.491	181.93
804.67	181.93
804.85	122.54
805.03	200.36
805.209	222.89
805.389	165.54
805.568	163.5
805.748	204.46
805.928	173.74
806.107	243.37
806.287	198.31
806.466	163.5
806.646	200.36
806.825	196.26
807.004	183.98
807.184	194.22
807.363	214.7
807.543	169.64
807.722	134.82
807.901	181.93
808.081	161.45
808.26	126.63
808.439	161.45
808.619	165.54
808.798	188.07
808.977	167.59
809.156	231.08
809.336	163.5
809.515	124.58
809.694	114.34
809.873	163.5
810.052	147.11
810.231	186.02
810.411	173.74
810.59	112.3
810.769	128.68
810.948	212.65
811.127	165.54
811.306	147.11
811.485	75.43
811.664	218.79
811.843	149.16
812.022	104.11
812.201	114.34
812.38	145.06
812.559	85.67
812.737	106.15
812.916	147.11
813.095	126.63
813.274	112.3
813.453	112.3
813.632	165.54
813.811	159.4
813.989	104.11
814.168	120.49
814.347	100.01
814.526	153.26
814.704	145.06
814.883	161.45
815.062	50.86
815.24	100.01
815.419	42.67
815.598	108.2
815.776	104.11
815.955	214.7
816.133	65.19
816.312	124.58
816.49	161.45
816.669	40.62
816.847	130.73
817.026	102.06
817.204	104.11
817.383	175.78
817.561	106.15
817.74	83.63
817.918	161.45
818.097	77.48
818.275	77.48
818.453	196.26
818.632	155.3
818.81	104.11
818.988	9.9
819.167	89.77
819.345	132.78
819.523	38.57
819.701	110.25
819.879	124.58
820.058	83.63
820.236	179.88
820.414	153.26
820.592	143.02
820.77	124.58
820.948	124.58
821.127	165.54
821.305	116.39
821.483	30.38
821.661	93.87
821.839	100.01
822.017	67.24
822.195	122.54
822.373	138.92
822.551	140.97
822.729	153.26
822.907	106.15
823.085	93.87
823.262	83.63
823.44	132.78
823.618	116.39
823.796	118.44
823.974	57
824.152	40.62
824.329	34.47
824.507	59.05
824.685	75.43
824.863	73.39
825.04	153.26
825.218	95.91
825.396	22.19
825.574	173.74
825.751	65.19
825.929	22.19
826.107	100.01
826.284	118.44
826.462	157.35
826.639	54.95
826.817	24.23
826.994	147.11
827.172	22.19
827.349	26.28
827.527	91.82
827.704	57
827.882	130.73
828.059	87.72
828.237	46.76
828.414	91.82
828.591	26.28
828.769	54.95
828.946	13.99
829.124	116.39
829.301	28.33
829.478	83.63
829.655	52.91
829.833	100.01
830.01	40.62
830.187	57
830.364	54.95
830.542	95.91
830.719	-16.73
830.896	112.3
831.073	11.95
831.25	136.87
831.427	75.43
831.604	190.12
831.782	75.43
831.959	132.78
832.136	77.48
832.313	11.95
832.49	106.15
832.667	63.15
832.844	118.44
833.021	77.48
833.198	63.15
833.374	108.2
833.551	67.24
833.728	16.04
833.905	73.39
834.082	38.57
834.259	128.68
834.436	171.69
834.612	106.15
834.789	-26.96
834.966	48.81
835.143	75.43
835.319	59.05
835.496	116.39
835.673	52.91
835.85	40.62
836.026	122.54
836.203	52.91
836.38	-14.68
836.556	3.75
836.733	-26.96
836.909	13.99
837.086	40.62
837.262	67.24
837.439	59.05
837.616	59.05
837.792	71.34
837.968	136.87
838.145	26.28
838.321	30.38
838.498	108.2
838.674	65.19
838.851	81.58
839.027	59.05
839.203	-31.06
839.38	73.39
839.556	40.62
839.732	34.47
839.909	-67.92
840.085	44.71
840.261	59.05
840.437	71.34
840.614	5.8
840.79	34.47
840.966	79.53
841.142	13.99
841.318	18.09
841.494	114.34
841.671	97.96
841.847	108.2
842.023	79.53
842.199	59.05
842.375	5.8
842.551	30.38
842.727	28.33
842.903	36.52
843.079	-18.77
843.255	42.67
843.431	34.47
843.607	20.14
843.783	-2.39
843.959	83.63
844.134	-4.44
844.31	36.52
844.486	136.87
844.662	-45.4
844.838	102.06
845.013	34.47
845.189	5.8
845.365	71.34
845.541	48.81
845.716	28.33
845.892	83.63
846.068	9.9
846.244	-8.53
846.419	42.67
846.595	-10.58
846.77	65.19
846.946	67.24
847.122	-35.16
847.297	54.95
847.473	50.86
847.648	-31.06
847.824	85.67
847.999	16.04
848.175	46.76
848.35	18.09
848.526	63.15
848.701	40.62
848.876	13.99
849.052	59.05
849.227	9.9
849.403	-2.39
849.578	-16.73
849.753	20.14
849.929	59.05
850.104	-78.16
850.279	-12.63
850.454	-0.34
850.63	71.34
850.805	79.53
850.98	54.95
851.155	89.77
851.33	13.99
851.505	1.71
851.681	59.05
851.856	-8.53
852.031	108.2
852.206	85.67
852.381	24.23
852.556	89.77
852.731	1.71
852.906	13.99
853.081	28.33
853.256	44.71
853.431	9.9
853.606	5.8
853.781	7.85
853.956	-43.35
854.131	-33.11
854.305	44.71
854.48	-29.01
854.655	-18.77
854.83	26.28
855.005	16.04
855.18	26.28
855.354	-6.49
855.529	30.38
855.704	-10.58
855.879	44.71
856.053	7.85
856.228	46.76
856.403	34.47
856.577	-2.39
856.752	-33.11
856.926	36.52
857.101	-14.68
857.276	-51.54
857.45	-45.4
857.625	13.99
857.799	46.76
857.974	65.19
858.148	-33.11
858.323	54.95
858.497	-8.53
858.672	28.33
858.846	9.9
859.02	114.34
859.195	1.71
859.369	32.43
859.543	89.77
859.718	-24.92
859.892	5.8
860.066	7.85
860.241	-0.34
860.415	24.23
860.589	-59.73
860.763	-12.63
860.938	26.28
861.112	24.23
861.286	48.81
861.46	-55.64
861.634	13.99
861.808	-2.39
861.982	-63.83
862.157	-31.06
862.331	42.67
862.505	-6.49
862.679	-41.3
862.853	57
863.027	75.43
863.201	32.43
863.375	13.99
863.549	52.91
863.722	-0.34
863.896	71.34
864.07	-4.44
864.244	-49.49
864.418	-10.58
864.592	-39.25
864.766	1.71
864.939	38.57
865.113	-35.16
865.287	46.76
865.461	-6.49
865.634	-59.73
865.808	26.28
865.982	-22.87
866.156	22.19
866.329	-39.25
866.503	-8.53
866.676	9.9
866.85	89.77
867.024	-2.39
867.197	-22.87
867.371	-12.63
867.544	24.23
867.718	-41.3
867.891	32.43
868.065	-37.2
868.238	18.09
868.412	54.95
868.585	-6.49
868.759	-24.92
868.932	-29.01
869.105	-12.63
869.279	54.95
869.452	5.8
869.625	30.38
869.799	34.47
869.972	38.57
870.145	-31.06
870.319	30.38
870.492	57
870.665	5.8
870.838	-39.25
871.011	-10.58
871.185	-39.25
871.358	34.47
871.531	11.95
871.704	-45.4
871.877	-76.12
872.05	3.75
872.223	-16.73
872.396	44.71
872.569	36.52
872.742	-45.4
872.915	-0.34
873.088	50.86
873.261	-72.02
873.434	54.95
873.607	38.57
873.78	89.77
873.953	-51.54
874.126	20.14
874.299	44.71
874.471	5.8
874.644	13.99
874.817	1.71
874.99	61.1
875.163	-26.96
875.335	81.58
875.508	-39.25
875.681	11.95
875.853	-22.87
876.026	-6.49
876.199	-4.44
876.371	-31.06
876.544	-39.25
876.717	85.67
876.889	-76.12
877.062	7.85
877.234	-33.11
877.407	-37.2
877.579	26.28
877.752	5.8
877.924	13.99
878.097	11.95
878.269	-47.44
878.442	87.72
878.614	59.05
878.786	-90.45
878.959	44.71
879.131	-2.39
879.303	-14.68
879.476	-2.39
879.648	3.75
879.82	-51.54
879.993	7.85
880.165	1.71
880.337	1.71
880.509	-31.06
880.681	-33.11
880.854	-24.92
881.026	3.75
881.198	42.67
881.37	-31.06
881.542	-53.59
881.714	50.86
881.886	-67.92
882.058	28.33
882.23	-47.44
882.402	16.04
882.574	-24.92
882.746	-10.58
882.918	11.95
883.09	7.85
883.262	26.28
883.434	20.14
883.606	-39.25
883.778	-14.68
883.95	34.47
884.122	38.57
884.293	1.71
884.465	-33.11
884.637	18.09
884.809	-26.96
884.98	52.91
885.152	3.75
885.324	48.81
885.496	26.28
885.667	-41.3
885.839	67.24
886.011	30.38
886.182	42.67
886.354	28.33
886.525	16.04
886.697	20.14
886.869	-20.82
887.04	-39.25
887.212	-63.83
887.383	42.67
887.555	22.19
887.726	-2.39
887.897	-51.54
888.069	-90.45
888.24	-29.01
888.412	26.28
888.583	-37.2
888.754	32.43
888.926	-41.3
889.097	-33.11
889.268	-59.73
889.44	-18.77
889.611	9.9
889.782	11.95
889.953	-57.68
890.125	40.62
890.296	20.14
890.467	28.33
890.638	16.04
890.809	16.04
890.98	42.67
891.151	-22.87
891.323	91.82
891.494	44.71
891.665	-0.34
891.836	63.15
892.007	44.71
892.178	-10.58
892.349	18.09
892.52	-35.16
892.691	9.9
892.862	-4.44
893.032	18.09
893.203	-47.44
893.374	26.28
893.545	-22.87
893.716	-78.16
893.887	24.23
894.057	-39.25
894.228	38.57
894.399	9.9
894.57	1.71
894.74	-65.88
894.911	9.9
895.082	-24.92
895.253	-22.87
895.423	5.8
895.594	13.99
895.764	-51.54
895.935	-26.96
896.106	-0.34
896.276	-45.4
896.447	65.19
896.617	-20.82
896.788	-0.34
896.958	16.04
897.129	57
897.299	-31.06
897.47	-41.3
897.64	-24.92
897.81	-47.44
897.981	-18.77
898.151	-49.49
898.322	26.28
898.492	-18.77
898.662	-26.96
898.832	-49.49
899.003	30.38
899.173	-16.73
899.343	38.57
899.513	-35.16
