Data from USB4F104151__237__10-30-35-459.txt Node

Date: Wed Mar 12 10:30:35 EDT 2025
User: louis
Spectrometer: USB4F10415
Trigger mode: 4
Integration Time (sec): 3.000000E-2
Scans to average: 1
Electric dark correction enabled: true
Nonlinearity correction enabled: false
Boxcar width: 0
XAxis mode: Wavelengths
Number of Pixels in Spectrum: 3648
>>>>>Begin Spectral Data<<<<<
178.204	-47.1
178.424	-47.1
178.644	-47.1
178.864	-81.92
179.084	-114.69
179.304	6.14
179.524	-8.19
179.744	-36.86
179.964	57.34
180.184	-30.72
180.404	-22.53
180.624	47.1
180.844	47.1
181.064	-43.01
181.283	18.43
181.503	-59.39
181.723	24.58
181.943	40.96
182.163	67.58
182.383	38.91
182.602	20.48
182.822	110.59
183.042	45.06
183.262	14.34
183.482	45.06
183.701	-10.24
183.921	69.63
184.141	-16.38
184.361	30.72
184.58	20.48
184.8	38.91
185.02	43.01
185.239	90.11
185.459	18.43
185.679	38.91
185.898	-2.05
186.118	69.63
186.338	73.73
186.557	32.77
186.777	28.67
186.997	49.15
187.216	79.87
187.436	8.19
187.655	73.73
187.875	81.92
188.095	43.01
188.314	16.38
188.534	124.93
188.753	47.1
188.973	45.06
189.192	43.01
189.412	135.17
189.631	-8.19
189.851	147.45
190.07	-8.19
190.29	-2.05
190.509	73.73
190.729	57.34
190.948	20.48
191.168	169.98
191.387	51.2
191.607	40.96
191.826	16.38
192.045	22.53
192.265	69.63
192.484	57.34
192.704	20.48
192.923	34.82
193.142	126.97
193.362	-12.29
193.581	96.25
193.8	53.25
194.02	104.45
194.239	57.34
194.458	-43.01
194.678	-28.67
194.897	75.77
195.116	-8.19
195.335	-24.58
195.555	63.49
195.774	-10.24
195.993	61.44
196.212	34.82
196.432	-4.1
196.651	77.82
196.87	12.29
197.089	98.3
197.308	67.58
197.528	20.48
197.747	14.34
197.966	28.67
198.185	22.53
198.404	4.1
198.623	26.62
198.842	75.77
199.062	47.1
199.281	0
199.5	12.29
199.719	49.15
199.938	24.58
200.157	38.91
200.376	12.29
200.595	65.54
200.814	30.72
201.033	40.96
201.252	61.44
201.471	53.25
201.69	30.72
201.909	104.45
202.128	10.24
202.347	28.67
202.566	-77.82
202.785	-43.01
203.004	-69.63
203.223	126.97
203.442	4.1
203.661	57.34
203.879	73.73
204.098	32.77
204.317	-14.34
204.536	2.05
204.755	14.34
204.974	43.01
205.193	63.49
205.411	174.08
205.63	40.96
205.849	16.38
206.068	16.38
206.287	34.82
206.505	104.45
206.724	22.53
206.943	59.39
207.162	73.73
207.381	32.77
207.599	67.58
207.818	88.06
208.037	36.86
208.255	73.73
208.474	77.82
208.693	24.58
208.911	69.63
209.13	16.38
209.349	-12.29
209.567	49.15
209.786	18.43
210.005	104.45
210.223	34.82
210.442	-32.77
210.661	88.06
210.879	98.3
211.098	69.63
211.316	40.96
211.535	79.87
211.753	61.44
211.972	14.34
212.191	-24.58
212.409	16.38
212.628	14.34
212.846	61.44
213.065	98.3
213.283	49.15
213.502	40.96
213.72	73.73
213.938	38.91
214.157	10.24
214.375	55.3
214.594	10.24
214.812	36.86
215.031	24.58
215.249	63.49
215.467	40.96
215.686	90.11
215.904	24.58
216.122	14.34
216.341	18.43
216.559	40.96
216.778	114.69
216.996	110.59
217.214	32.77
217.432	57.34
217.651	-18.43
217.869	16.38
218.087	32.77
218.306	32.77
218.524	102.4
218.742	0
218.96	61.44
219.179	32.77
219.397	73.73
219.615	108.54
219.833	-28.67
220.051	-4.1
220.27	88.06
220.488	28.67
220.706	20.48
220.924	71.68
221.142	69.63
221.36	-18.43
221.578	104.45
221.796	2.05
222.015	106.49
222.233	79.87
222.451	122.88
222.669	-55.3
222.887	22.53
223.105	36.86
223.323	129.02
223.541	116.73
223.759	73.73
223.977	-30.72
224.195	8.19
224.413	108.54
224.631	43.01
224.849	16.38
225.067	129.02
225.285	-12.29
225.503	43.01
225.721	16.38
225.939	43.01
226.157	45.06
226.375	190.46
226.592	-53.25
226.81	-59.39
227.028	20.48
227.246	139.26
227.464	79.87
227.682	32.77
227.9	63.49
228.117	104.45
228.335	86.01
228.553	92.16
228.771	14.34
228.989	61.44
229.206	96.25
229.424	40.96
229.642	12.29
229.86	-2.05
230.077	94.21
230.295	16.38
230.513	59.39
230.731	34.82
230.948	53.25
231.166	106.49
231.384	88.06
231.601	24.58
231.819	-16.38
232.037	69.63
232.254	-18.43
232.472	96.25
232.689	-75.77
232.907	61.44
233.125	2.05
233.342	34.82
233.56	-28.67
233.777	43.01
233.995	53.25
234.213	79.87
234.43	53.25
234.648	49.15
234.865	0
235.083	49.15
235.3	-28.67
235.518	32.77
235.735	57.34
235.953	98.3
236.17	-53.25
236.388	77.82
236.605	4.1
236.822	88.06
237.04	-26.62
237.257	16.38
237.475	24.58
237.692	43.01
237.909	12.29
238.127	69.63
238.344	71.68
238.562	36.86
238.779	-24.58
238.996	2.05
239.214	-26.62
239.431	69.63
239.648	92.16
239.865	61.44
240.083	81.92
240.3	24.58
240.517	40.96
240.735	20.48
240.952	30.72
241.169	104.45
241.386	145.41
241.603	55.3
241.821	47.1
242.038	16.38
242.255	22.53
242.472	-14.34
242.689	49.15
242.907	2.05
243.124	69.63
243.341	59.39
243.558	61.44
243.775	43.01
243.992	-36.86
244.209	0
244.426	-28.67
244.643	77.82
244.86	32.77
245.078	20.48
245.295	16.38
245.512	-4.1
245.729	43.01
245.946	88.06
246.163	100.35
246.38	28.67
246.597	81.92
246.814	88.06
247.031	24.58
247.248	28.67
247.464	32.77
247.681	57.34
247.898	77.82
248.115	34.82
248.332	32.77
248.549	34.82
248.766	102.4
248.983	104.45
249.2	59.39
249.417	61.44
249.633	53.25
249.85	57.34
250.067	12.29
250.284	22.53
250.501	90.11
250.717	61.44
250.934	-4.1
251.151	55.3
251.368	86.01
251.585	69.63
251.801	100.35
252.018	32.77
252.235	57.34
252.451	26.62
252.668	51.2
252.885	98.3
253.102	40.96
253.318	-49.15
253.535	69.63
253.752	6.14
253.968	16.38
254.185	36.86
254.401	-10.24
254.618	79.87
254.835	40.96
255.051	12.29
255.268	104.45
255.484	40.96
255.701	40.96
255.917	38.91
256.134	-8.19
256.351	12.29
256.567	-18.43
256.784	43.01
257	0
257.217	61.44
257.433	-12.29
257.65	77.82
257.866	88.06
258.082	47.1
258.299	16.38
258.515	4.1
258.732	63.49
258.948	59.39
259.165	8.19
259.381	40.96
259.597	-12.29
259.814	36.86
260.03	20.48
260.246	77.82
260.463	4.1
260.679	67.58
260.895	49.15
261.112	10.24
261.328	59.39
261.544	40.96
261.761	106.49
261.977	88.06
262.193	4.1
262.409	81.92
262.626	57.34
262.842	69.63
263.058	-59.39
263.274	-16.38
263.49	112.64
263.707	43.01
263.923	20.48
264.139	-40.96
264.355	49.15
264.571	47.1
264.787	16.38
265.004	90.11
265.22	28.67
265.436	2.05
265.652	14.34
265.868	108.54
266.084	20.48
266.3	-6.14
266.516	-2.05
266.732	28.67
266.948	8.19
267.164	-4.1
267.38	57.34
267.596	83.97
267.812	38.91
268.028	53.25
268.244	-20.48
268.46	-38.91
268.676	34.82
268.892	55.3
269.108	18.43
269.324	26.62
269.54	-18.43
269.756	40.96
269.972	-16.38
270.188	73.73
270.403	22.53
270.619	92.16
270.835	65.54
271.051	14.34
271.267	16.38
271.483	26.62
271.698	77.82
271.914	2.05
272.13	67.58
272.346	14.34
272.562	2.05
272.777	131.07
272.993	86.01
273.209	47.1
273.425	14.34
273.64	0
273.856	38.91
274.072	43.01
274.287	34.82
274.503	61.44
274.719	61.44
274.934	36.86
275.15	-34.82
275.366	28.67
275.581	-36.86
275.797	4.1
276.012	10.24
276.228	69.63
276.444	71.68
276.659	65.54
276.875	53.25
277.09	77.82
277.306	49.15
277.521	67.58
277.737	20.48
277.952	14.34
278.168	-83.97
278.383	53.25
278.599	45.06
278.814	40.96
279.03	51.2
279.245	98.3
279.461	49.15
279.676	32.77
279.892	55.3
280.107	-4.1
280.322	71.68
280.538	69.63
280.753	55.3
280.969	43.01
281.184	69.63
281.399	133.12
281.615	-32.77
281.83	51.2
282.045	-22.53
282.26	20.48
282.476	-6.14
282.691	45.06
282.906	43.01
283.122	-10.24
283.337	65.54
283.552	51.2
283.767	51.2
283.983	49.15
284.198	26.62
284.413	57.34
284.628	40.96
284.843	40.96
285.058	53.25
285.274	96.25
285.489	32.77
285.704	65.54
285.919	22.53
286.134	28.67
286.349	20.48
286.564	6.14
286.779	79.87
286.995	94.21
287.21	-12.29
287.425	61.44
287.64	36.86
287.855	40.96
288.07	-4.1
288.285	59.39
288.5	102.4
288.715	86.01
288.93	40.96
289.145	81.92
289.36	28.67
289.575	40.96
289.79	98.3
290.004	28.67
290.219	122.88
290.434	34.82
290.649	61.44
290.864	45.06
291.079	24.58
291.294	69.63
291.509	69.63
291.724	24.58
291.938	32.77
292.153	61.44
292.368	28.67
292.583	114.69
292.798	106.49
293.012	6.14
293.227	36.86
293.442	34.82
293.657	28.67
293.871	61.44
294.086	-18.43
294.301	100.35
294.516	81.92
294.73	75.77
294.945	-28.67
295.16	47.1
295.374	28.67
295.589	98.3
295.804	38.91
296.018	77.82
296.233	30.72
296.447	8.19
296.662	-4.1
296.877	79.87
297.091	63.49
297.306	53.25
297.52	12.29
297.735	147.45
297.949	34.82
298.164	98.3
298.378	47.1
298.593	79.87
298.807	96.25
299.022	98.3
299.236	34.82
299.451	81.92
299.665	38.91
299.88	12.29
300.094	88.06
300.309	114.69
300.523	71.68
300.737	71.68
300.952	57.34
301.166	67.58
301.381	69.63
301.595	-28.67
301.809	28.67
302.024	36.86
302.238	0
302.452	47.1
302.667	38.91
302.881	135.17
303.095	47.1
303.309	30.72
303.524	-45.06
303.738	43.01
303.952	20.48
304.166	8.19
304.381	-47.1
304.595	102.4
304.809	45.06
305.023	106.49
305.237	26.62
305.452	30.72
305.666	22.53
305.88	112.64
306.094	79.87
306.308	47.1
306.522	32.77
306.736	59.39
306.95	83.97
307.164	18.43
307.379	-28.67
307.593	133.12
307.807	79.87
308.021	106.49
308.235	167.93
308.449	30.72
308.663	28.67
308.877	73.73
309.091	40.96
309.305	-8.19
309.519	-26.62
309.733	67.58
309.947	32.77
310.161	61.44
310.374	77.82
310.588	36.86
310.802	10.24
311.016	92.16
311.23	12.29
311.444	32.77
311.658	16.38
311.872	55.3
312.085	94.21
312.299	81.92
312.513	94.21
312.727	90.11
312.941	22.53
313.154	51.2
313.368	69.63
313.582	73.73
313.796	55.3
314.009	81.92
314.223	32.77
314.437	86.01
314.651	43.01
314.864	20.48
315.078	-32.77
315.292	65.54
315.505	43.01
315.719	77.82
315.933	88.06
316.146	30.72
316.36	2.05
316.573	94.21
316.787	18.43
317.001	63.49
317.214	40.96
317.428	16.38
317.641	38.91
317.855	34.82
318.068	79.87
318.282	90.11
318.495	83.97
318.709	90.11
318.922	36.86
319.136	135.17
319.349	88.06
319.563	49.15
319.776	49.15
319.99	12.29
320.203	71.68
320.417	57.34
320.63	30.72
320.843	61.44
321.057	71.68
321.27	75.77
321.483	104.45
321.697	110.59
321.91	139.26
322.124	30.72
322.337	47.1
322.55	0
322.763	81.92
322.977	71.68
323.19	45.06
323.403	108.54
323.617	40.96
323.83	96.25
324.043	77.82
324.256	57.34
324.469	38.91
324.683	28.67
324.896	51.2
325.109	45.06
325.322	12.29
325.535	79.87
325.748	55.3
325.962	65.54
326.175	32.77
326.388	49.15
326.601	45.06
326.814	-26.62
327.027	24.58
327.24	57.34
327.453	-32.77
327.666	73.73
327.879	65.54
328.092	106.49
328.305	36.86
328.518	-10.24
328.731	32.77
328.944	30.72
329.157	106.49
329.37	47.1
329.583	92.16
329.796	104.45
330.009	0
330.222	34.82
330.435	30.72
330.648	81.92
330.861	122.88
331.073	110.59
331.286	88.06
331.499	-4.1
331.712	12.29
331.925	94.21
332.138	61.44
332.35	104.45
332.563	77.82
332.776	129.02
332.989	40.96
333.202	45.06
333.414	28.67
333.627	30.72
333.84	22.53
334.053	57.34
334.265	65.54
334.478	8.19
334.691	20.48
334.903	77.82
335.116	49.15
335.329	6.14
335.541	61.44
335.754	61.44
335.966	106.49
336.179	71.68
336.392	73.73
336.604	26.62
336.817	57.34
337.029	90.11
337.242	-49.15
337.454	24.58
337.667	53.25
337.88	114.69
338.092	55.3
338.305	106.49
338.517	-12.29
338.729	143.36
338.942	153.6
339.154	-4.1
339.367	45.06
339.579	45.06
339.792	118.78
340.004	90.11
340.217	120.83
340.429	100.35
340.641	55.3
340.854	4.1
341.066	61.44
341.278	69.63
341.491	131.07
341.703	-10.24
341.915	83.97
342.128	104.45
342.34	51.2
342.552	22.53
342.764	57.34
342.977	38.91
343.189	124.93
343.401	77.82
343.613	-40.96
343.826	34.82
344.038	32.77
344.25	24.58
344.462	63.49
344.674	53.25
344.886	55.3
345.099	81.92
345.311	61.44
345.523	90.11
345.735	69.63
345.947	47.1
346.159	49.15
346.371	40.96
346.583	98.3
346.795	77.82
347.007	22.53
347.219	114.69
347.431	65.54
347.643	53.25
347.855	61.44
348.067	81.92
348.279	-24.58
348.491	69.63
348.703	57.34
348.915	0
349.127	79.87
349.339	20.48
349.551	-6.14
349.763	61.44
349.975	143.36
350.187	32.77
350.399	83.97
350.61	77.82
350.822	106.49
351.034	34.82
351.246	47.1
351.458	94.21
351.669	65.54
351.881	94.21
352.093	61.44
352.305	73.73
352.517	43.01
352.728	88.06
352.94	94.21
353.152	88.06
353.363	102.4
353.575	88.06
353.787	96.25
353.999	20.48
354.21	57.34
354.422	26.62
354.633	110.59
354.845	71.68
355.057	79.87
355.268	112.64
355.48	73.73
355.692	-49.15
355.903	69.63
356.115	69.63
356.326	120.83
356.538	49.15
356.749	110.59
356.961	94.21
357.172	51.2
357.384	-4.1
357.595	116.73
357.807	114.69
358.018	-14.34
358.23	61.44
358.441	102.4
358.653	90.11
358.864	100.35
359.075	24.58
359.287	79.87
359.498	49.15
359.709	18.43
359.921	40.96
360.132	79.87
360.344	43.01
360.555	73.73
360.766	40.96
360.977	18.43
361.189	49.15
361.4	63.49
361.611	79.87
361.823	53.25
362.034	81.92
362.245	43.01
362.456	63.49
362.667	77.82
362.879	24.58
363.09	98.3
363.301	59.39
363.512	55.3
363.723	51.2
363.935	18.43
364.146	4.1
364.357	12.29
364.568	135.17
364.779	8.19
364.99	75.77
365.201	81.92
365.412	83.97
365.623	137.21
365.834	90.11
366.045	-4.1
366.256	43.01
366.467	81.92
366.678	53.25
366.889	114.69
367.1	55.3
367.311	67.58
367.522	12.29
367.733	88.06
367.944	53.25
368.155	26.62
368.366	61.44
368.577	53.25
368.788	43.01
368.999	71.68
369.209	55.3
369.42	98.3
369.631	53.25
369.842	65.54
370.053	65.54
370.264	104.45
370.474	45.06
370.685	28.67
370.896	69.63
371.107	131.07
371.317	83.97
371.528	71.68
371.739	139.26
371.95	61.44
372.16	8.19
372.371	53.25
372.582	65.54
372.792	131.07
373.003	96.25
373.214	32.77
373.424	73.73
373.635	38.91
373.846	102.4
374.056	-14.34
374.267	10.24
374.477	51.2
374.688	0
374.898	26.62
375.109	32.77
375.319	77.82
375.53	67.58
375.74	14.34
375.951	36.86
376.161	40.96
376.372	75.77
376.582	53.25
376.793	114.69
377.003	75.77
377.214	49.15
377.424	92.16
377.635	12.29
377.845	-24.58
378.055	122.88
378.266	114.69
378.476	4.1
378.686	94.21
378.897	24.58
379.107	38.91
379.317	108.54
379.528	10.24
379.738	20.48
379.948	114.69
380.158	81.92
380.369	104.45
380.579	8.19
380.789	77.82
380.999	83.97
381.21	104.45
381.42	77.82
381.63	88.06
381.84	77.82
382.05	61.44
382.261	143.36
382.471	92.16
382.681	110.59
382.891	77.82
383.101	143.36
383.311	73.73
383.521	53.25
383.731	172.03
383.941	79.87
384.151	16.38
384.361	94.21
384.571	81.92
384.781	36.86
384.991	116.73
385.201	167.93
385.411	147.45
385.621	106.49
385.831	38.91
386.041	98.3
386.251	4.1
386.461	96.25
386.671	90.11
386.881	45.06
387.091	61.44
387.301	40.96
387.511	83.97
387.72	143.36
387.93	71.68
388.14	22.53
388.35	131.07
388.56	49.15
388.769	47.1
388.979	45.06
389.189	10.24
389.399	65.54
389.609	53.25
389.818	18.43
390.028	81.92
390.238	55.3
390.447	55.3
390.657	98.3
390.867	79.87
391.076	102.4
391.286	116.73
391.496	120.83
391.705	83.97
391.915	155.65
392.125	98.3
392.334	90.11
392.544	96.25
392.753	10.24
392.963	114.69
393.172	118.78
393.382	73.73
393.591	77.82
393.801	104.45
394.01	118.78
394.22	59.39
394.429	108.54
394.639	131.07
394.848	32.77
395.058	79.87
395.267	55.3
395.477	90.11
395.686	176.13
395.895	129.02
396.105	182.27
396.314	100.35
396.524	90.11
396.733	49.15
396.942	67.58
397.152	182.27
397.361	151.55
397.57	108.54
397.78	61.44
397.989	135.17
398.198	147.45
398.407	114.69
398.617	129.02
398.826	135.17
399.035	110.59
399.244	100.35
399.453	126.97
399.663	157.69
399.872	149.5
400.081	67.58
400.29	147.45
400.499	141.31
400.708	110.59
400.917	110.59
401.127	114.69
401.336	135.17
401.545	188.41
401.754	139.26
401.963	112.64
402.172	120.83
402.381	100.35
402.59	53.25
402.799	122.88
403.008	151.55
403.217	172.03
403.426	147.45
403.635	157.69
403.844	110.59
404.053	137.21
404.262	219.13
404.471	196.61
404.68	204.8
404.888	61.44
405.097	114.69
405.306	247.8
405.515	233.47
405.724	172.03
405.933	264.19
406.142	210.94
406.35	266.24
406.559	270.33
406.768	266.24
406.977	294.91
407.185	286.72
407.394	176.13
407.603	231.42
407.812	274.43
408.02	274.43
408.229	288.76
408.438	241.66
408.646	264.19
408.855	323.58
409.064	323.58
409.272	282.62
409.481	348.15
409.69	309.24
409.898	331.77
410.107	317.44
410.315	450.55
410.524	366.59
410.733	401.4
410.941	385.02
411.15	421.88
411.358	434.17
411.567	542.71
411.775	475.13
411.984	446.46
412.192	487.42
412.401	509.94
412.609	499.7
412.818	495.61
413.026	622.58
413.234	559.1
413.443	538.62
413.651	575.48
413.86	641.01
414.068	636.92
414.276	724.98
414.485	716.79
414.693	690.17
414.901	778.23
415.11	866.29
415.318	759.8
415.526	804.85
415.734	958.45
415.943	872.43
416.151	901.11
416.359	985.07
416.567	962.55
416.776	1013.74
416.984	1159.15
417.192	1212.4
417.4	1050.61
417.608	1105.9
417.817	1126.38
418.025	1191.92
418.233	1261.55
418.441	1255.4
418.649	1333.23
418.857	1478.63
419.065	1501.16
419.273	1519.59
419.481	1556.46
419.689	1570.79
419.897	1652.71
420.105	1714.15
420.313	1787.88
420.521	1863.65
420.729	1896.42
420.937	1892.32
421.145	2015.2
421.353	2109.41
421.561	2174.94
421.769	2299.87
421.977	2222.05
422.185	2375.64
422.393	2471.9
422.601	2578.39
422.809	2637.78
423.017	2594.78
423.224	2648.02
423.432	2842.58
423.64	2852.82
423.848	3039.19
424.056	2930.64
424.263	3229.65
424.471	3256.27
424.679	3366.86
424.887	3477.45
425.094	3504.07
425.302	3461.07
425.51	3710.92
425.718	3768.26
425.925	3928
426.133	3903.43
426.341	4353.98
426.548	4513.72
426.756	4415.42
426.964	4403.13
427.171	4730.81
427.379	4911.03
427.586	4851.64
427.794	4921.27
428.001	5304.24
428.209	5547.95
428.417	5470.12
428.624	5836.71
428.832	5787.56
429.039	5748.65
429.247	5914.53
429.454	6465.44
429.662	6778.78
429.869	6420.38
430.076	6905.75
430.284	6705.05
430.491	6870.94
430.699	7290.77
430.906	7362.45
431.114	7434.13
431.321	7600.01
431.528	7735.18
431.736	8243.07
431.943	8773.5
432.15	8404.86
432.358	8449.92
432.565	9125.75
432.772	9006.97
432.979	9269.11
433.187	9375.6
433.394	9615.21
433.601	10266.47
433.808	10164.07
434.016	10000.23
434.223	10676.06
434.43	11124.57
434.637	10923.87
434.844	11790.16
435.052	12126.02
435.259	11829.07
435.466	12148.55
435.673	12201.8
435.88	12789.56
436.087	13256.5
436.294	13350.71
436.501	13195.06
436.708	13184.82
436.915	13680.43
437.122	14186.28
437.329	14178.09
437.537	14679.84
437.743	14909.21
437.95	14958.36
438.157	15746.83
438.364	16162.57
438.571	16117.51
438.778	16215.82
438.985	17870.58
439.192	16901.89
439.399	17985.26
439.606	17309.43
439.813	17690.35
440.02	19113.69
440.227	18642.66
440.433	18650.85
440.64	19420.89
440.847	19089.12
441.054	19513.05
441.261	20922.05
441.467	20510.41
441.674	21266.11
441.881	21819.06
442.088	21606.07
442.294	21532.34
442.501	21608.12
442.708	22464.17
442.914	23340.7
443.121	24333.96
443.328	23627.42
443.534	25548.41
443.741	24553.1
443.948	24405.64
444.154	26119.79
444.361	25671.29
444.568	26031.73
444.774	25953.91
444.981	26424.94
445.187	27215.46
445.394	28583.5
445.6	28104.28
445.807	30758.44
446.013	29331.01
446.22	29853.24
446.426	30965.29
446.633	31409.7
446.839	32163.35
447.046	30725.68
447.252	32513.55
447.459	32794.12
447.665	32517.65
447.871	33592.83
448.078	35519.97
448.284	33707.52
448.491	34362.87
448.697	35761.63
448.903	36654.54
449.11	36285.91
449.316	35839.45
449.522	36308.44
449.728	37156.3
449.935	37598.66
450.141	37379.53
450.347	38628.79
450.553	37184.97
450.76	37940.67
450.966	38448.57
451.172	38372.79
451.378	38995.37
451.584	38817.2
451.791	39382.44
451.997	39366.06
452.203	39744.93
452.409	39622.05
452.615	39513.51
452.821	38456.76
453.027	37901.76
453.233	39511.46
453.44	37981.63
453.646	38598.07
453.852	38811.06
454.058	39333.29
454.264	37901.76
454.47	38688.18
454.676	38184.38
454.882	39241.13
455.088	35806.69
455.294	36242.9
455.5	36627.92
455.705	36898.25
455.911	35857.88
456.117	34686.45
456.323	34547.18
456.529	32605.71
456.735	33945.08
456.941	33179.14
457.147	32609.81
457.352	31688.22
457.558	31098.41
457.764	31458.85
457.97	31041.06
458.176	30078.52
458.381	30195.25
458.587	28427.85
458.793	28501.58
458.999	26857.06
459.204	28948.04
459.41	28233.3
459.616	26318.45
459.821	26304.11
460.027	26494.57
460.233	25992.82
460.438	24161.94
460.644	24751.75
460.85	23750.29
461.055	23340.7
461.261	23115.42
461.466	21366.46
461.672	20899.52
461.878	22433.45
462.083	20774.6
462.289	20438.73
462.494	20375.24
462.7	19375.83
462.905	18968.29
463.111	19365.59
463.316	19590.87
463.522	19455.7
463.727	19592.92
463.932	18962.14
464.138	18974.43
464.343	19248.86
464.549	18556.64
464.754	19162.84
464.959	19185.37
465.165	18853.6
465.37	18026.22
465.575	17487.61
465.781	18335.46
465.986	18521.83
466.191	17639.15
466.397	17188.6
466.602	16592.64
466.807	17063.68
467.012	17262.33
467.218	17108.73
467.423	16912.13
467.628	16967.42
467.833	17526.52
468.038	16850.69
468.244	16545.54
468.449	17254.14
468.654	16535.3
468.859	16688.9
469.064	16613.12
469.269	15898.38
469.474	15933.2
469.679	16494.34
469.885	15812.37
470.09	15916.81
470.295	15896.33
470.5	15318.81
470.705	15410.96
470.91	15267.61
471.115	14923.55
471.32	15433.49
471.525	15206.17
471.73	14647.07
471.935	14642.98
472.139	14307.11
472.344	14685.98
472.549	14399.27
472.754	14307.11
472.959	13952.81
473.164	13588.27
473.369	13420.34
473.574	13848.36
473.778	13616.94
473.983	13440.82
474.188	13489.97
474.393	12797.76
474.598	13217.59
474.802	12789.56
475.007	12810.04
475.212	13143.86
475.417	12222.28
475.621	12287.81
475.826	12334.92
476.031	12259.14
476.235	11935.56
476.44	12087.11
476.645	11951.95
476.849	12023.62
477.054	11816.78
477.259	11509.58
477.463	11523.92
477.668	11218.77
477.872	11382.61
478.077	11435.86
478.282	10862.43
478.486	11065.18
478.691	10856.28
478.895	10805.08
479.1	10872.67
479.304	10809.18
479.509	10458.98
479.713	10612.57
479.918	10614.62
480.122	10438.5
480.326	10702.68
480.531	10372.96
480.735	10424.16
480.94	10227.56
481.144	10688.35
481.348	10053.48
481.553	10323.81
481.757	9946.98
481.961	10301.28
482.166	10190.69
482.37	10252.13
482.574	10024.81
482.778	9944.94
482.983	10252.13
483.187	10041.19
483.391	10014.57
483.595	10043.24
483.8	9992.04
484.004	9971.56
484.208	10235.75
484.412	9987.94
484.616	9955.18
484.821	10262.37
485.025	9713.52
485.229	10266.47
485.433	9883.5
485.637	10080.1
485.841	9891.69
486.045	9938.79
486.249	10182.5
486.453	9944.94
486.657	10080.1
486.861	9922.41
487.065	9797.48
487.269	10024.81
487.473	10104.68
487.677	10133.35
487.881	10202.98
488.085	10065.77
488.289	9975.66
488.493	9965.42
488.697	10262.37
488.901	10104.68
489.105	9854.83
489.309	10155.88
489.512	10272.61
489.716	10217.32
489.92	10260.32
490.124	10180.45
490.328	10674.01
490.531	10256.23
490.735	10551.14
490.939	10565.47
491.143	10264.42
491.346	10579.81
491.55	10514.27
491.754	10616.67
491.958	10604.38
492.161	10483.55
492.365	10497.89
492.569	10465.12
492.772	10698.59
492.976	10813.27
493.18	10831.71
493.383	10823.51
493.587	10985.3
493.79	10876.76
493.994	10860.38
494.197	11358.03
494.401	11126.61
494.605	11272.02
494.808	11491.15
495.012	11401.04
495.215	11513.68
495.419	11796.3
495.622	11460.43
495.825	11638.61
496.029	11802.44
496.232	12181.32
496.436	12070.73
496.639	12304.2
496.843	12160.84
497.046	12648.25
497.249	12451.65
497.453	12656.45
497.656	12851
497.859	12793.66
498.063	13092.66
498.266	13344.56
498.469	13023.03
498.673	13477.68
498.876	13604.66
499.079	13819.69
499.282	13614.9
499.485	14034.73
499.689	14272.29
499.892	14169.9
500.095	14184.23
500.298	14708.51
500.501	14468.9
500.705	15169.3
500.908	15163.16
501.111	15079.19
501.314	15453.97
501.517	15838.99
501.72	15677.2
501.923	15793.93
502.126	16176.91
502.329	16486.15
502.532	16680.71
502.735	16584.45
502.938	16783.1
503.141	17078.01
503.344	17360.63
503.547	17299.19
503.75	17479.41
503.953	17895.15
504.156	17995.5
504.359	17970.93
504.562	18247.4
504.765	18812.64
504.968	18728.67
505.17	19177.18
505.373	19195.61
505.576	19478.23
505.779	19592.92
505.982	19597.01
506.185	20084.43
506.387	20127.44
506.59	20414.15
506.793	21227.2
506.996	20780.74
507.198	21216.96
507.401	21102.27
507.604	21571.25
507.807	21900.98
508.009	21917.36
508.212	22073.01
508.415	22591.14
508.617	22501.03
508.82	22697.64
509.022	23062.18
509.225	23504.54
509.428	23670.42
509.63	23764.63
509.833	23826.07
510.035	24667.78
510.238	24333.96
510.44	24770.18
510.643	25208.45
510.845	25331.33
511.048	25517.69
511.25	25403
511.453	25935.48
511.655	26818.15
511.858	26328.69
512.06	26678.89
512.262	27162.21
512.465	27139.68
512.667	27426.4
512.87	27979.35
513.072	27899.48
513.274	28706.38
513.477	28862.02
513.679	28884.55
513.881	29316.67
514.084	29656.64
514.286	29822.52
514.488	30164.53
514.69	30547.5
514.893	30504.49
515.095	30996.01
515.297	31260.19
515.499	31260.19
515.701	31880.73
515.904	32312.85
516.106	32499.22
516.308	32892.43
516.51	33414.66
516.712	33242.63
516.914	33412.61
517.116	34446.83
517.318	34196.98
517.52	34493.94
517.722	34588.14
517.925	35190.25
518.127	35698.14
518.329	36038.11
518.531	35790.3
518.733	36597.2
518.935	36965.84
519.136	36896.2
519.338	37359.05
519.54	37268.94
519.742	37791.17
519.944	38127.03
520.146	38677.94
520.348	38952.37
520.55	38958.51
520.752	39118.25
520.954	40144.28
521.155	39620
521.357	40582.55
521.559	40431
521.761	41502.09
521.963	41454.98
522.164	41530.76
522.366	41887.1
522.568	42386.81
522.77	42177.92
522.971	42730.87
523.173	42542.45
523.375	43232.62
523.576	43341.16
523.778	43478.38
523.98	43898.21
524.181	44348.76
524.383	44406.11
524.584	44498.26
524.786	44750.17
524.988	44918.1
525.189	45595.98
525.391	45753.67
525.592	45475.15
525.794	46118.21
525.995	46484.79
526.197	46277.95
526.398	46302.53
526.6	46665.02
526.801	46984.5
527.003	47150.38
527.204	47625.51
527.406	47858.98
527.607	47543.59
527.808	48178.46
528.01	47750.44
528.211	48268.58
528.412	49186.07
528.614	48604.44
528.815	48899.35
529.016	49399.05
529.218	48768.28
529.419	49384.72
529.62	49319.18
529.822	49153.3
530.023	49128.72
530.224	49632.52
530.425	49874.18
530.626	49257.74
530.828	49308.94
531.029	50394.37
531.23	49689.87
531.431	49720.59
531.632	50382.08
531.833	50343.17
532.035	50040.07
532.236	50648.32
532.437	50566.4
532.638	50353.41
532.839	50726.14
533.04	50717.95
533.241	50443.52
533.442	50971.89
533.643	50527.48
533.844	50707.71
534.045	50605.31
534.246	50447.61
534.447	50980.09
534.648	50973.94
534.849	51217.65
535.05	50912.5
535.251	51176.69
535.451	50742.52
535.652	51080.44
535.853	51119.35
536.054	51047.67
536.255	51246.32
536.456	50734.33
536.657	51737.83
536.857	50918.65
537.058	50994.42
537.259	51354.86
537.46	51576.04
537.66	51221.75
537.861	51313.9
538.062	51279.09
538.263	51066.1
538.463	51414.26
538.664	50994.42
538.865	51258.61
539.065	51559.66
539.266	50443.52
539.466	51582.19
539.667	50756.86
539.868	51483.89
540.068	51180.79
540.269	51412.21
540.469	51250.42
540.67	51260.66
540.87	51463.41
541.071	51404.02
541.271	51260.66
541.472	51170.55
541.672	50900.22
541.873	50717.95
542.073	50613.5
542.274	51307.76
542.474	51170.55
542.675	50529.53
542.875	51377.39
543.075	50967.8
543.276	50513.15
543.476	51274.99
543.676	50859.26
543.877	51162.36
544.077	51277.04
544.277	51004.66
544.478	50707.71
544.678	50859.26
544.878	50791.67
545.078	51191.03
545.279	50869.5
545.479	50885.88
545.679	51172.6
545.879	50676.99
546.079	51098.87
546.28	50875.64
546.48	50554.11
546.68	50818.3
546.88	51184.88
547.08	50541.82
547.28	50472.19
547.48	50394.37
547.68	50556.16
547.88	50228.48
548.081	50855.16
548.281	50611.45
548.481	50859.26
548.681	50799.86
548.881	50601.21
549.081	50599.16
549.28	50218.24
549.48	51115.25
549.68	50500.86
549.88	51270.9
550.08	50394.37
550.28	50343.17
550.48	50513.15
550.68	50834.68
550.88	50261.25
551.08	50160.9
551.279	50816.25
551.479	50261.25
551.679	50148.61
551.879	50060.55
552.079	50900.22
552.278	50078.98
552.478	50447.61
552.678	50492.67
552.878	50785.53
553.077	50068.74
553.277	49702.15
553.477	50429.18
553.676	49839.37
553.876	50035.97
554.076	50050.31
554.275	50181.38
554.475	49528.08
554.674	49919.24
554.874	50179.33
555.074	49638.67
555.273	50390.27
555.473	50111.75
555.672	49597.71
555.872	49554.7
556.071	49964.29
556.271	49966.34
556.47	49138.96
556.67	49259.79
556.869	49384.72
557.068	49489.16
557.268	48887.06
557.467	48928.02
557.667	48997.65
557.866	49446.16
558.065	49042.71
558.265	49403.15
558.464	48440.6
558.663	49227.02
558.863	48452.89
559.062	49235.22
559.261	48674.07
559.461	49466.64
559.66	48465.18
559.859	48862.49
560.058	48315.68
560.258	48788.76
560.457	47918.37
560.656	48948.5
560.855	48022.82
561.054	48364.83
561.253	47922.47
561.453	47770.92
561.652	47822.12
561.851	48100.64
562.05	47525.16
562.249	47578.41
562.448	47609.13
562.647	47822.12
562.846	47181.1
563.045	47240.5
563.244	46888.24
563.443	47738.15
563.642	46685.5
563.841	47273.26
564.04	46675.26
564.239	47310.13
564.438	46519.61
564.637	46562.62
564.836	46492.99
565.035	45995.33
565.234	46249.28
565.432	46038.34
565.631	45897.03
565.83	45983.04
566.029	45868.36
566.228	45495.63
566.427	45591.88
566.625	45239.63
566.824	44674.39
567.023	45213.01
567.222	44461.4
567.42	45491.53
567.619	44764.5
567.818	44887.38
568.016	44672.34
568.215	44967.25
568.414	44385.63
568.612	44854.61
568.811	44123.49
569.01	44590.42
569.208	43918.69
569.407	44287.32
569.605	43492.71
569.804	44199.26
570.002	43511.14
570.201	43933.03
570.4	43580.77
570.598	43380.07
570.797	43085.17
570.995	43140.46
571.193	42511.74
571.392	43292.01
571.59	42550.65
571.789	42843.51
571.987	42427.77
572.186	42409.34
572.384	41870.72
572.582	42700.15
572.781	42288.51
572.979	41612.68
573.177	41987.46
573.376	42315.13
573.574	41727.36
573.772	41624.96
573.971	41526.66
574.169	41266.57
574.367	41164.17
574.565	41280.91
574.763	40955.28
574.962	41133.45
575.16	39978.4
575.358	40859.02
575.556	40283.55
575.754	41043.34
575.952	40132
576.151	40248.73
576.349	39658.91
576.547	39957.92
576.745	40064.41
576.943	39916.96
577.141	39650.72
577.339	39863.71
577.537	39314.86
577.735	39531.94
577.933	39282.09
578.131	39056.81
578.329	38874.54
578.527	38710.71
578.725	38778.29
578.923	38876.59
579.121	38577.59
579.319	38559.16
579.516	38790.58
579.714	38307.26
579.912	38323.64
580.11	38528.44
580.308	38176.19
580.506	38008.25
580.704	37584.32
580.901	38241.72
581.099	37967.29
581.297	37498.31
581.495	37742.02
581.692	37469.64
581.89	37230.02
582.088	37623.23
582.285	37160.39
582.483	37295.56
582.681	37094.86
582.878	36918.73
583.076	36816.33
583.274	36629.97
583.471	36679.12
583.669	36771.28
583.866	36267.48
584.064	36365.78
584.262	35812.83
584.459	36709.84
584.657	36156.89
584.854	36427.22
585.052	35360.23
585.249	35601.89
585.447	35782.11
585.644	35319.27
585.841	35522.02
586.039	35745.25
586.236	35114.47
586.434	35190.25
586.631	34418.16
586.828	34944.49
587.026	35100.14
587.223	34735.6
587.42	34745.84
587.618	34762.22
587.815	34323.96
588.012	34295.28
588.21	34471.41
588.407	34379.25
588.604	33701.37
588.801	33981.95
588.999	33830.4
589.196	33930.75
589.393	33805.82
589.59	33510.91
589.787	33875.45
589.984	33392.13
590.182	33134.09
590.379	33156.61
590.576	33125.89
590.773	32845.32
590.97	32830.99
591.167	32792.08
591.364	32640.53
591.561	32822.8
591.758	32298.52
591.955	32613.9
592.152	32101.91
592.349	32362
592.546	32173.59
592.743	32118.29
592.94	31878.68
593.137	31745.56
593.334	31919.64
593.531	31108.65
593.727	31815.19
593.924	31821.34
594.121	31413.79
594.318	31551.01
594.515	31069.73
594.712	31491.62
594.908	31045.16
595.105	31051.3
595.302	30764.59
595.499	30746.15
595.696	31106.6
595.892	30690.86
596.089	30783.02
596.286	30432.82
596.482	30537.26
596.679	30484.01
596.876	30473.78
597.072	30172.72
597.269	29818.42
597.466	30035.51
597.662	29959.73
597.859	29967.93
598.055	30033.46
598.252	29619.77
598.448	29572.67
598.645	29435.45
598.841	29091.4
599.038	29615.68
599.234	29312.58
599.431	29091.4
599.627	29066.82
599.824	29431.36
600.02	28835.4
600.217	29099.59
600.413	28579.4
600.609	28509.77
600.806	28460.62
601.002	28550.73
601.198	28405.33
601.395	28505.68
601.591	27999.83
601.787	28327.5
601.984	27854.42
602.18	27854.42
602.376	28046.93
602.572	27950.68
602.769	27555.42
602.965	27713.11
603.161	27813.46
603.357	27627.1
603.553	27455.07
603.75	27592.28
603.946	27291.23
604.142	27405.92
604.338	27149.92
604.534	27076.19
604.73	27133.54
604.926	26717.8
605.122	26799.72
605.318	26736.23
605.514	26955.36
605.71	26627.69
605.906	26484.33
606.102	26273.39
606.298	26363.5
606.494	26639.98
606.69	26273.39
606.886	26414.7
607.082	26005.11
607.278	26148.46
607.474	25685.62
607.67	26132.08
607.866	25613.95
608.062	26179.18
608.257	25847.41
608.453	25841.27
608.649	25745.02
608.845	25497.21
609.041	25642.62
609.236	25685.62
609.432	25374.33
609.628	25398.91
609.824	25396.86
610.019	25118.34
610.215	25380.48
610.411	25407.1
610.606	24878.72
610.802	25282.17
610.998	24907.4
611.193	24835.72
611.389	24663.69
611.584	24753.8
611.78	24845.96
611.976	25003.65
612.171	24839.81
612.367	24655.5
612.562	24761.99
612.758	24424.08
612.953	24159.89
613.149	24696.46
613.344	24178.32
613.539	24563.34
613.735	24721.03
613.93	24397.45
614.126	24102.54
614.321	24589.96
614.517	24250
614.712	24047.25
614.907	23916.18
615.103	23848.6
615.298	24071.82
615.493	24202.89
615.688	23858.84
615.884	24315.53
616.079	23701.14
616.274	23881.36
616.47	23467.67
616.665	23840.4
616.86	23613.08
617.055	23670.42
617.25	23340.7
617.445	23738.01
617.641	23109.28
617.836	23461.53
618.031	22957.73
618.226	23398.04
618.421	23160.48
618.616	23361.18
618.811	22748.84
619.006	23350.94
619.201	22757.03
619.396	22967.97
619.591	22458.03
619.786	22525.61
619.981	22116.01
620.176	22759.08
620.371	22052.53
620.566	22095.53
620.761	22349.48
620.956	22163.12
621.151	21667.51
621.346	21696.18
621.541	21497.53
621.735	21671.61
621.93	21612.21
622.125	21536.44
622.32	21278.4
622.515	21241.53
622.709	21036.74
622.904	21038.78
623.099	20778.69
623.294	20815.55
623.488	20618.95
623.683	20973.25
623.878	20127.44
624.072	20199.12
624.267	20358.86
624.462	20352.71
624.656	19939.02
624.851	20104.91
625.046	19773.14
625.24	19783.38
625.435	19539.67
625.629	19613.4
625.824	19414.74
626.018	19513.05
626.213	19023.58
626.407	19328.73
626.602	18497.25
626.796	18937.57
626.991	18743.01
627.185	18433.77
627.38	18624.23
627.574	18294.5
627.768	18507.49
627.963	18355.94
628.157	17977.07
628.352	18263.79
628.546	17819.38
628.74	18022.12
628.935	18034.41
629.129	17802.99
629.323	17501.94
629.517	17657.59
629.712	17454.84
629.906	17467.13
630.1	16965.37
630.294	17256.18
630.489	16979.71
630.683	17444.6
630.877	17006.33
631.071	16975.61
631.265	16840.45
631.459	16697.09
631.653	16684.8
631.848	16580.35
632.042	16361.22
632.236	16418.57
632.43	16092.94
632.624	16455.43
632.818	15998.73
633.012	16203.53
633.206	15699.73
633.4	15855.37
633.594	15603.47
633.788	15666.96
633.982	15765.26
634.176	15519.51
634.369	15271.7
634.563	15329.05
634.757	15259.42
634.951	15367.96
635.145	15378.2
635.339	15091.48
635.533	14948.12
635.726	15118.11
635.92	14929.69
636.114	14720.8
636.308	14702.37
636.501	14577.44
636.695	14473
636.889	14409.51
637.083	14171.94
637.276	14225.19
637.47	14341.93
637.664	13938.48
637.857	14069.55
638.051	13854.51
638.244	13795.12
638.438	13672.24
638.632	13750.06
638.825	13414.2
639.019	13655.86
639.212	13428.53
639.406	13391.67
639.599	13164.34
639.793	13268.79
639.986	13104.95
640.18	13207.35
640.373	13141.82
640.567	12812.09
640.76	12957.5
640.954	12922.68
641.147	12721.98
641.34	12820.28
641.534	12574.53
641.727	12414.79
641.92	12713.79
642.114	12492.61
642.307	12425.03
642.5	12334.92
642.694	11943.75
642.887	11925.32
643.08	12087.11
643.273	11892.55
643.467	12031.82
643.66	11745.1
643.853	11867.98
644.046	11464.53
644.239	11816.78
644.432	11650.89
644.626	11468.62
644.819	11773.77
645.012	11296.6
645.205	11386.71
645.398	11124.57
645.591	11298.64
645.784	11190.1
645.977	11083.61
646.17	11018.07
646.363	10979.16
646.556	10809.18
646.749	11054.94
646.942	10876.76
647.135	10809.18
647.328	10882.91
647.521	10432.35
647.714	10526.56
647.907	10485.6
648.099	10573.66
648.292	10530.66
648.485	10501.98
648.678	10358.63
648.871	10094.44
649.064	10346.34
649.256	10082.15
649.449	9924.46
649.642	10166.12
649.835	9803.63
650.027	9860.97
650.22	9889.64
650.413	9922.41
650.605	9744.24
650.798	9570.16
650.991	9627.5
651.183	9631.6
651.376	9437.04
651.568	9582.45
651.761	9371.5
651.954	9389.94
652.146	9371.5
652.339	9391.98
652.531	9222
652.724	9105.27
652.916	9060.21
653.109	9027.45
653.301	9015.16
653.494	9244.53
653.686	8998.77
653.879	9179
654.071	8798.07
654.263	8849.27
654.456	8857.46
654.648	8947.58
654.84	8609.66
655.033	8865.66
655.225	8683.39
655.417	8669.05
655.61	8585.08
655.802	8703.87
655.994	8499.07
656.186	8513.41
656.379	8462.21
656.571	8296.32
656.763	8167.3
656.955	8185.73
657.148	8136.58
657.34	8128.39
657.532	8060.81
657.724	8144.77
657.916	7919.5
658.108	8003.46
658.3	7630.73
658.492	7845.77
658.684	7796.62
658.876	7774.09
659.068	7700.36
659.26	7671.69
659.452	7864.2
659.644	7874.44
659.836	7683.98
660.028	7737.23
660.22	7401.36
660.412	7378.83
660.604	7624.59
660.796	7516.05
660.988	7470.99
661.18	7268.24
661.372	7335.82
661.563	7464.85
661.755	7085.97
661.947	7219.09
662.139	7313.3
662.331	7223.19
662.522	7116.69
662.714	7032.72
662.906	6981.53
663.097	7004.05
663.289	7042.96
663.481	7051.16
663.673	6815.64
663.864	6846.36
664.056	6778.78
664.247	6889.37
664.439	6684.57
664.631	6692.76
664.822	6801.3
665.014	6692.76
665.205	6594.46
665.397	6541.21
665.588	6631.32
665.78	6565.79
665.971	6487.97
666.163	6610.84
666.354	6563.74
666.546	6502.3
666.737	6385.57
666.929	6522.78
667.12	6381.47
667.311	6258.59
667.503	6252.45
667.694	6340.51
667.885	6299.55
668.077	6299.55
668.268	6133.67
668.459	6229.92
668.651	6139.81
668.842	5881.77
669.033	6066.08
669.224	6156.19
669.416	6444.96
669.607	6184.87
669.798	5998.5
669.989	6141.86
670.18	5849
670.371	6021.03
670.563	5853.09
670.754	6002.6
670.945	5789.61
671.136	5932.97
671.327	5961.64
671.518	5785.51
671.709	5822.38
671.9	5924.77
672.091	5777.32
672.282	5820.33
672.473	5689.26
672.664	5894.05
672.855	5873.57
673.046	5582.76
673.237	5707.69
673.428	5660.59
673.619	5597.1
673.809	5750.7
674	5787.56
674.191	5504.94
674.382	5652.39
674.573	5562.28
674.764	5519.28
674.954	5523.37
675.145	5613.48
675.336	5554.09
675.527	5588.91
675.717	5646.25
675.908	5539.76
676.099	5615.53
676.289	5693.35
676.48	5488.56
676.671	5369.77
676.861	5541.8
677.052	5584.81
677.243	5466.03
677.433	5488.56
677.624	5562.28
677.814	5347.25
678.005	5447.6
678.195	5582.76
678.386	5521.32
678.576	5408.69
678.767	5435.31
678.957	5463.98
679.148	5466.03
679.338	5433.26
679.529	5480.36
679.719	5488.56
679.909	5472.17
680.1	5552.04
680.29	5457.84
680.481	5484.46
680.671	5427.12
680.861	5445.55
681.052	5533.61
681.242	5341.1
681.432	5500.84
681.622	5349.29
681.813	5552.04
682.003	5300.14
682.193	5318.57
682.383	5402.54
682.573	5511.08
682.764	5361.58
682.954	5337.01
683.144	5388.21
683.334	5390.25
683.524	5244.85
683.714	5468.08
683.904	5330.86
684.094	5500.84
684.284	5394.35
684.474	5519.28
684.664	5427.12
684.854	5363.63
685.044	5437.36
685.234	5308.34
685.424	5304.24
685.614	5140.4
685.804	5207.98
685.994	5363.63
686.184	5218.22
686.374	5232.56
686.564	5212.08
686.753	5298.1
686.943	5040.05
687.133	5236.66
687.323	5136.31
687.513	5093.3
687.702	5001.14
687.892	5058.48
688.082	5117.87
688.272	4997.04
688.461	4951.99
688.651	5099.44
688.841	4900.79
689.03	4894.65
689.22	5042.1
689.41	4878.26
689.599	4865.97
689.789	4861.88
689.979	4751.29
690.168	4855.73
690.358	4874.17
690.547	4792.25
690.737	4841.4
690.926	4777.91
691.116	4478.91
691.305	4882.36
691.495	4765.62
691.684	4880.31
691.874	4571.07
692.063	4734.9
692.252	4519.87
692.442	4657.08
692.631	4581.31
692.82	4595.64
693.01	4403.13
693.199	4597.69
693.388	4597.69
693.578	4612.03
693.767	4646.84
693.956	4503.48
694.146	4313.02
694.335	4456.38
694.524	4321.21
694.713	4528.06
694.902	4505.53
695.092	4431.8
695.281	4382.65
695.47	4364.22
695.659	4306.88
695.848	4413.37
696.037	4200.38
696.226	4478.91
696.415	4292.54
696.604	4349.89
696.793	4325.31
696.982	4249.54
697.171	4534.2
697.36	4280.25
697.549	4337.6
697.738	4218.82
697.927	4259.77
698.116	4298.69
698.305	4233.15
698.494	4216.77
698.683	4257.73
698.872	4415.42
699.061	4259.77
699.25	4292.54
699.438	4198.34
699.627	4251.58
699.816	4116.42
700.005	4280.25
700.193	4294.59
700.382	4257.73
700.571	4143.04
700.76	4253.63
700.948	4198.34
701.137	4347.84
701.326	4177.86
701.514	4167.62
701.703	4181.95
701.892	4290.49
702.08	4249.54
702.269	4235.2
702.457	4026.31
702.646	4192.19
702.834	4001.73
703.023	4120.51
703.212	4257.73
703.4	4270.01
703.589	4214.72
703.777	4153.28
703.965	4169.66
704.154	4173.76
704.342	4308.93
704.531	4169.66
704.719	4143.04
704.907	4274.11
705.096	4179.9
705.284	4114.37
705.472	4087.75
705.661	4345.79
705.849	4206.53
706.037	4087.75
706.226	4145.09
706.414	4304.83
706.602	4028.35
706.79	4126.66
706.979	4095.94
707.167	4063.17
707.355	4192.19
707.543	4036.55
707.731	4147.14
707.919	4097.99
708.107	4317.12
708.296	3841.99
708.484	4091.84
708.672	4229.06
708.86	4239.3
709.048	4095.94
709.236	4044.74
709.424	4208.58
709.612	4052.93
709.8	4069.31
709.988	4255.68
710.176	4120.51
710.364	4108.23
710.551	4020.16
710.739	4091.84
710.927	4138.94
711.115	4155.33
711.303	4095.94
711.491	4186.05
711.679	4046.79
711.866	4020.16
712.054	4181.95
712.242	4052.93
712.43	4079.55
712.617	4022.21
712.805	4040.64
712.993	4087.75
713.181	4075.46
713.368	4177.86
713.556	4245.44
713.744	4003.78
713.931	4323.26
714.119	4214.72
714.306	4079.55
714.494	4065.22
714.682	4067.27
714.869	4114.37
715.057	4071.36
715.244	4108.23
715.432	4087.75
715.619	4177.86
715.807	4030.4
715.994	4128.7
716.182	4048.83
716.369	4126.66
716.556	4153.28
716.744	4077.51
716.931	4136.9
717.119	4165.57
717.306	4054.98
717.493	4024.26
717.681	4097.99
717.868	3928
718.055	4048.83
718.242	4091.84
718.43	3964.87
718.617	4116.42
718.804	4054.98
718.991	4132.8
719.179	4108.23
719.366	4032.45
719.553	4095.94
719.74	4030.4
719.927	4083.65
720.114	3923.91
720.301	4077.51
720.488	3966.92
720.676	4036.55
720.863	4028.35
721.05	4079.55
721.237	3975.11
721.424	3999.68
721.611	3864.52
721.798	4050.88
721.985	4022.21
722.172	4054.98
722.358	3944.39
722.545	3981.25
722.732	3993.54
722.919	3973.06
723.106	4061.12
723.293	3870.66
723.48	3960.77
723.667	3911.62
723.853	3942.34
724.04	4024.26
724.227	3866.57
724.414	3913.67
724.6	4184
724.787	4083.65
724.974	3995.59
725.161	4009.92
725.347	3891.14
725.534	3973.06
725.72	3940.29
725.907	4007.87
726.094	3919.81
726.28	3885
726.467	3880.9
726.653	3741.64
726.84	3809.22
727.027	4093.89
727.213	3778.5
727.4	3887.04
727.586	3878.85
727.773	3737.54
727.959	3848.13
728.145	4009.92
728.332	3973.06
728.518	3946.44
728.705	3780.55
728.891	3907.52
729.077	3846.09
729.264	3878.85
729.45	3854.28
729.636	3934.15
729.823	3805.13
730.009	3940.29
730.195	3968.96
730.382	3885
730.568	3805.13
730.754	3874.76
730.94	3858.37
731.126	3893.19
731.313	3891.14
731.499	3880.9
731.685	3780.55
731.871	3995.59
732.057	3680.2
732.243	3913.67
732.429	3737.54
732.615	3956.68
732.801	3747.78
732.987	3948.48
733.173	3737.54
733.359	3669.96
733.545	3702.73
733.731	3723.21
733.917	3749.83
734.103	3811.27
734.289	3755.97
734.475	3626.95
734.661	3913.67
734.847	3841.99
735.033	3747.78
735.219	3915.72
735.404	3758.02
735.59	3833.8
735.776	3706.82
735.962	3776.45
736.148	3805.13
736.333	3678.15
736.519	3743.69
736.705	3686.34
736.89	3620.81
737.076	3682.25
737.262	3575.75
737.447	3493.83
737.633	3635.14
737.819	3635.14
738.004	3620.81
738.19	3608.52
738.375	3512.27
738.561	3637.19
738.747	3637.19
738.932	3549.13
739.118	3608.52
739.303	3702.73
739.489	3608.52
739.674	3497.93
739.859	3413.96
740.045	3489.74
740.23	3467.21
740.416	3528.65
740.601	3440.59
740.786	3366.86
740.972	3448.78
741.157	3397.58
741.342	3469.26
741.528	3383.24
741.713	3250.13
741.898	3354.57
742.084	3377.1
742.269	3291.09
742.454	3348.43
742.639	3428.3
742.824	3243.98
743.01	3209.17
743.195	3383.24
743.38	3389.39
743.565	3366.86
743.75	3264.46
743.935	3145.68
744.12	3252.17
744.305	3227.6
744.49	3184.59
744.675	3231.69
744.86	3074
745.045	3186.64
745.23	3010.51
745.415	3172.3
745.6	3127.25
745.785	3108.82
745.97	3076.05
746.155	3162.06
746.34	3071.95
746.525	3106.77
746.71	2967.51
746.895	3022.8
747.079	3004.37
747.264	2951.12
747.449	2949.07
747.634	2961.36
747.819	2867.16
748.003	2910.16
748.188	2807.77
748.373	2815.96
748.557	2820.05
748.742	2719.7
748.927	2844.63
749.111	2764.76
749.296	2848.72
749.481	2691.03
749.665	2621.4
749.85	2637.78
750.034	2623.45
750.219	2650.07
750.404	2648.02
750.588	2631.64
750.773	2492.38
750.957	2506.71
751.141	2521.05
751.326	2420.7
751.51	2506.71
751.695	2506.71
751.879	2412.51
752.064	2406.36
752.248	2353.12
752.432	2504.67
752.617	2422.75
752.801	2336.73
752.985	2316.25
753.17	2381.79
753.354	2285.53
753.538	2258.91
753.722	2252.77
753.907	2172.89
754.091	2260.96
754.275	2228.19
754.459	2248.67
754.643	2080.74
754.828	2174.94
755.012	2152.42
755.196	2125.79
755.38	2076.64
755.564	2099.17
755.748	2211.81
755.932	2101.22
756.116	2074.59
756.3	2078.69
756.484	2080.74
756.668	2068.45
756.852	1964
757.036	2004.96
757.22	2060.26
757.404	1990.63
757.588	1964
757.772	2052.06
757.956	1984.48
758.14	2004.96
758.323	1869.8
758.507	1964
758.691	1861.6
758.875	1865.7
759.059	1931.23
759.242	1832.93
759.426	1806.31
759.61	1818.6
759.794	1906.66
759.977	1892.32
760.161	1826.79
760.345	1808.36
760.528	1830.88
760.712	1802.21
760.895	1660.9
761.079	1738.73
761.263	1699.81
761.446	1703.91
761.63	1759.21
761.813	1785.83
761.997	1796.07
762.18	1689.57
762.364	1681.38
762.547	1683.43
762.731	1660.9
762.914	1677.29
763.098	1699.81
763.281	1503.21
763.464	1615.85
763.648	1593.32
763.831	1535.98
764.015	1605.61
764.198	1628.14
764.381	1611.75
764.564	1548.26
764.748	1523.69
764.931	1576.94
765.114	1546.22
765.297	1628.14
765.481	1503.21
765.664	1578.98
765.847	1462.25
766.03	1501.16
766.213	1415.15
766.397	1574.89
766.58	1406.95
766.763	1464.3
766.946	1441.77
767.129	1429.48
767.312	1394.67
767.495	1421.29
767.678	1474.54
767.861	1499.11
768.044	1411.05
768.227	1378.28
768.41	1476.59
768.593	1417.19
768.776	1431.53
768.959	1333.23
769.142	1421.29
769.324	1343.47
769.507	1351.66
769.69	1296.36
769.873	1456.11
770.056	1294.32
770.239	1409
770.421	1404.91
770.604	1337.32
770.787	1243.12
770.97	1269.74
771.152	1353.71
771.335	1292.27
771.518	1243.12
771.7	1236.97
771.883	1241.07
772.066	1302.51
772.248	1204.21
772.431	1286.12
772.613	1185.77
772.796	1304.56
772.978	1150.96
773.161	1306.6
773.343	1159.15
773.526	1130.48
773.708	1146.86
773.891	1193.97
774.073	1132.53
774.256	1087.47
774.438	1202.16
774.621	1116.14
774.803	1126.38
774.985	1122.29
775.168	1085.42
775.35	1056.75
775.532	1071.09
775.715	1140.72
775.897	1103.86
776.079	1087.47
776.261	1075.18
776.444	1023.98
776.626	991.22
776.808	1003.5
776.99	1023.98
777.173	1009.65
777.355	1075.18
777.537	1001.46
777.719	1003.5
777.901	1042.42
778.083	1064.94
778.265	999.41
778.447	942.07
778.629	933.87
778.811	968.69
778.993	966.64
779.175	925.68
779.357	983.03
779.539	849.91
779.721	929.78
779.903	923.63
780.085	856.05
780.267	874.48
780.449	1001.46
780.631	784.37
780.812	974.83
780.994	823.28
781.176	790.52
781.358	804.85
781.54	899.06
781.721	925.68
781.903	843.76
782.085	784.37
782.267	808.95
782.448	794.61
782.63	694.26
782.812	829.43
782.993	843.76
783.175	739.32
783.357	774.13
783.538	761.84
783.72	700.41
783.901	671.73
784.083	735.22
784.264	681.97
784.446	606.2
784.627	663.54
784.809	735.22
784.99	800.76
785.172	712.69
785.353	684.02
785.535	772.08
785.716	737.27
785.897	661.49
786.079	708.6
786.26	770.04
786.441	651.25
786.623	585.72
786.804	645.11
786.985	643.06
787.167	608.25
787.348	638.97
787.529	636.92
787.71	606.2
787.891	612.34
788.073	591.86
788.254	636.92
788.435	634.87
788.616	669.69
788.797	544.76
788.978	557.05
789.159	604.15
789.34	557.05
789.522	610.29
789.703	581.62
789.884	514.04
790.065	585.72
790.246	550.9
790.427	591.86
790.607	548.86
790.788	573.43
790.969	540.66
791.15	489.46
791.331	573.43
791.512	567.29
791.693	571.38
791.874	481.27
792.054	555
792.235	530.42
792.416	503.8
792.597	522.23
792.778	468.98
792.958	503.8
793.139	415.74
793.32	430.07
793.5	454.65
793.681	552.95
793.862	542.71
794.042	462.84
794.223	372.73
794.404	471.03
794.584	446.46
794.765	460.79
794.945	471.03
795.126	450.55
795.306	419.83
795.487	378.87
795.667	419.83
795.848	399.35
796.028	475.13
796.209	483.32
796.389	415.74
796.57	411.64
796.75	393.21
796.93	432.12
797.111	360.44
797.291	413.69
797.471	391.16
797.652	323.58
797.832	407.55
798.012	485.37
798.192	393.21
798.373	372.73
798.553	395.26
798.733	368.63
798.913	382.97
799.093	368.63
799.274	421.88
799.454	352.25
799.634	393.21
799.814	405.5
799.994	405.5
800.174	362.49
800.354	393.21
800.534	323.58
800.714	450.55
800.894	360.44
801.074	325.63
801.254	276.48
801.434	311.29
801.614	350.2
801.794	280.57
801.974	843.76
802.154	364.54
802.334	391.16
802.514	327.68
802.693	364.54
802.873	348.15
803.053	419.83
803.233	354.3
803.413	303.1
803.592	342.01
803.772	272.38
803.952	366.59
804.131	358.39
804.311	288.76
804.491	456.7
804.67	323.58
804.85	258.04
805.03	342.01
805.209	319.48
805.389	356.35
805.568	370.68
805.748	284.67
805.928	344.06
806.107	278.52
806.287	292.86
806.466	331.77
806.646	382.97
806.825	313.34
807.004	270.33
807.184	260.09
807.363	354.3
807.543	292.86
807.722	282.62
807.901	301.05
808.081	274.43
808.26	169.98
808.439	237.56
808.619	286.72
808.798	280.57
808.977	342.01
809.156	380.92
809.336	374.78
809.515	278.52
809.694	266.24
809.873	229.37
810.052	276.48
810.231	262.14
810.411	284.67
810.59	303.1
810.769	258.04
810.948	270.33
811.127	208.89
811.306	245.76
811.485	301.05
811.664	321.53
811.843	260.09
812.022	223.23
812.201	276.48
812.38	278.52
812.559	278.52
812.737	284.67
812.916	251.9
813.095	313.34
813.274	204.8
813.453	225.28
813.632	325.63
813.811	256
813.989	239.61
814.168	253.95
814.347	253.95
814.526	225.28
814.704	227.32
814.883	217.08
815.062	241.66
815.24	200.7
815.419	176.13
815.598	219.13
815.776	239.61
815.955	225.28
816.133	229.37
816.312	180.22
816.49	186.37
816.669	172.03
816.847	215.04
817.026	276.48
817.204	217.08
817.383	151.55
817.561	169.98
817.74	219.13
817.918	251.9
818.097	251.9
818.275	139.26
818.453	249.85
818.632	215.04
818.81	227.32
818.988	188.41
819.167	202.75
819.345	215.04
819.523	137.21
819.701	200.7
819.879	169.98
820.058	245.76
820.236	212.99
820.414	276.48
820.592	243.71
820.77	159.74
820.948	110.59
821.127	215.04
821.305	247.8
821.483	176.13
821.661	233.47
821.839	229.37
822.017	184.32
822.195	165.89
822.373	212.99
822.551	143.36
822.729	182.27
822.907	131.07
823.085	217.08
823.262	225.28
823.44	178.17
823.618	182.27
823.796	124.93
823.974	180.22
824.152	163.84
824.329	153.6
824.507	139.26
824.685	178.17
824.863	159.74
825.04	176.13
825.218	233.47
825.396	178.17
825.574	219.13
825.751	163.84
825.929	151.55
826.107	88.06
826.284	196.61
826.462	182.27
826.639	186.37
826.817	86.01
826.994	135.17
827.172	135.17
827.349	131.07
827.527	122.88
827.704	161.79
827.882	114.69
828.059	161.79
828.237	153.6
828.414	147.45
828.591	102.4
828.769	235.52
828.946	202.75
829.124	116.73
829.301	129.02
829.478	149.5
829.655	131.07
829.833	169.98
830.01	51.2
830.187	210.94
830.364	122.88
830.542	178.17
830.719	229.37
830.896	96.25
831.073	143.36
831.25	122.88
831.427	147.45
831.604	71.68
831.782	149.5
831.959	98.3
832.136	122.88
832.313	196.61
832.49	102.4
832.667	120.83
832.844	157.69
833.021	280.57
833.198	71.68
833.374	86.01
833.551	73.73
833.728	153.6
833.905	157.69
834.082	182.27
834.259	122.88
834.436	163.84
834.612	120.83
834.789	108.54
834.966	122.88
835.143	139.26
835.319	77.82
835.496	92.16
835.673	77.82
835.85	163.84
836.026	120.83
836.203	137.21
836.38	53.25
836.556	141.31
836.733	139.26
836.909	147.45
837.086	51.2
837.262	59.39
837.439	40.96
837.616	143.36
837.792	110.59
837.968	49.15
838.145	49.15
838.321	83.97
838.498	92.16
838.674	159.74
838.851	88.06
839.027	118.78
839.203	40.96
839.38	92.16
839.556	157.69
839.732	96.25
839.909	129.02
840.085	147.45
840.261	36.86
840.437	100.35
840.614	79.87
840.79	126.97
840.966	63.49
841.142	110.59
841.318	98.3
841.494	135.17
841.671	108.54
841.847	118.78
842.023	10.24
842.199	51.2
842.375	94.21
842.551	24.58
842.727	61.44
842.903	73.73
843.079	110.59
843.255	141.31
843.431	57.34
843.607	79.87
843.783	106.49
843.959	75.77
844.134	174.08
844.31	104.45
844.486	86.01
844.662	63.49
844.838	108.54
845.013	86.01
845.189	65.54
845.365	90.11
845.541	69.63
845.716	174.08
845.892	139.26
846.068	57.34
846.244	67.58
846.419	45.06
846.595	14.34
846.77	145.41
846.946	106.49
847.122	102.4
847.297	40.96
847.473	77.82
847.648	77.82
847.824	77.82
847.999	51.2
848.175	38.91
848.35	45.06
848.526	77.82
848.701	98.3
848.876	118.78
849.052	163.84
849.227	69.63
849.403	73.73
849.578	-2.05
849.753	94.21
849.929	112.64
850.104	38.91
850.279	30.72
850.454	94.21
850.63	90.11
850.805	98.3
850.98	22.53
851.155	55.3
851.33	65.54
851.505	-45.06
851.681	92.16
851.856	53.25
852.031	65.54
852.206	43.01
852.381	94.21
852.556	26.62
852.731	102.4
852.906	100.35
853.081	36.86
853.256	118.78
853.431	28.67
853.606	6.14
853.781	51.2
853.956	43.01
854.131	45.06
854.305	26.62
854.48	73.73
854.655	20.48
854.83	61.44
855.005	8.19
855.18	116.73
855.354	40.96
855.529	90.11
855.704	104.45
855.879	28.67
856.053	92.16
856.228	90.11
856.403	106.49
856.577	98.3
856.752	16.38
856.926	71.68
857.101	57.34
857.276	28.67
857.45	47.1
857.625	34.82
857.799	45.06
857.974	86.01
858.148	26.62
858.323	36.86
858.497	38.91
858.672	63.49
858.846	32.77
859.02	79.87
859.195	16.38
859.369	8.19
859.543	98.3
859.718	94.21
859.892	83.97
860.066	145.41
860.241	51.2
860.415	57.34
860.589	40.96
860.763	73.73
860.938	49.15
861.112	-4.1
861.286	63.49
861.46	22.53
861.634	12.29
861.808	114.69
861.982	65.54
862.157	4.1
862.331	55.3
862.505	8.19
862.679	6.14
862.853	88.06
863.027	24.58
863.201	129.02
863.375	49.15
863.549	122.88
863.722	65.54
863.896	81.92
864.07	14.34
864.244	-4.1
864.418	24.58
864.592	57.34
864.766	-36.86
864.939	12.29
865.113	53.25
865.287	81.92
865.461	2.05
865.634	96.25
865.808	40.96
865.982	28.67
866.156	8.19
866.329	47.1
866.503	65.54
866.676	104.45
866.85	8.19
867.024	-8.19
867.197	-45.06
867.371	38.91
867.544	16.38
867.718	14.34
867.891	40.96
868.065	22.53
868.238	-32.77
868.412	90.11
868.585	112.64
868.759	102.4
868.932	2.05
869.105	-20.48
869.279	63.49
869.452	-2.05
869.625	32.77
869.799	0
869.972	30.72
870.145	2.05
870.319	45.06
870.492	114.69
870.665	6.14
870.838	-20.48
871.011	-8.19
871.185	-8.19
871.358	65.54
871.531	59.39
871.704	30.72
871.877	38.91
872.05	-10.24
872.223	28.67
872.396	59.39
872.569	16.38
872.742	24.58
872.915	32.77
873.088	-18.43
873.261	-16.38
873.434	73.73
873.607	32.77
873.78	112.64
873.953	16.38
874.126	51.2
874.299	69.63
874.471	81.92
874.644	28.67
874.817	83.97
874.99	92.16
875.163	22.53
875.335	4.1
875.508	4.1
875.681	86.01
875.853	43.01
876.026	40.96
876.199	-53.25
876.371	71.68
876.544	67.58
876.717	47.1
876.889	-18.43
877.062	83.97
877.234	-30.72
877.407	28.67
877.579	-8.19
877.752	-8.19
877.924	28.67
878.097	0
878.269	-69.63
878.442	77.82
878.614	63.49
878.786	6.14
878.959	79.87
879.131	8.19
879.303	-4.1
879.476	61.44
879.648	6.14
879.82	-24.58
879.993	92.16
880.165	55.3
880.337	-40.96
880.509	71.68
880.681	-4.1
880.854	26.62
881.026	75.77
881.198	65.54
881.37	10.24
881.542	57.34
881.714	-59.39
881.886	59.39
882.058	-20.48
882.23	-38.91
882.402	63.49
882.574	4.1
882.746	86.01
882.918	12.29
883.09	32.77
883.262	53.25
883.434	-4.1
883.606	22.53
883.778	-12.29
883.95	65.54
884.122	36.86
884.293	57.34
884.465	2.05
884.637	2.05
884.809	-30.72
884.98	36.86
885.152	-34.82
885.324	-16.38
885.496	16.38
885.667	2.05
885.839	-20.48
886.011	20.48
886.182	61.44
886.354	2.05
886.525	94.21
886.697	32.77
886.869	-10.24
887.04	-61.44
887.212	83.97
887.383	86.01
887.555	51.2
887.726	4.1
887.897	14.34
888.069	51.2
888.24	-49.15
888.412	-10.24
888.583	-55.3
888.754	75.77
888.926	-14.34
889.097	38.91
889.268	-24.58
889.44	-2.05
889.611	22.53
889.782	16.38
889.953	-30.72
890.125	77.82
890.296	2.05
890.467	-28.67
890.638	-40.96
890.809	86.01
890.98	16.38
891.151	8.19
891.323	51.2
891.494	-45.06
891.665	-43.01
891.836	-16.38
892.007	-20.48
892.178	18.43
892.349	102.4
892.52	8.19
892.691	32.77
892.862	-22.53
893.032	-30.72
893.203	-20.48
893.374	24.58
893.545	63.49
893.716	26.62
893.887	110.59
894.057	-53.25
894.228	-16.38
894.399	-20.48
894.57	2.05
894.74	-49.15
894.911	0
895.082	-90.11
895.253	45.06
895.423	-26.62
895.594	49.15
895.764	18.43
895.935	4.1
896.106	-30.72
896.276	-34.82
896.447	14.34
896.617	16.38
896.788	-38.91
896.958	-20.48
897.129	45.06
897.299	43.01
897.47	-2.05
897.64	40.96
897.81	28.67
897.981	-40.96
898.151	71.68
898.322	24.58
898.492	53.25
898.662	-38.91
898.832	-20.48
899.003	-34.82
899.173	28.67
899.343	-26.62
899.513	16.38
