Data from USB4F104151__100__10-24-41-101.txt Node

Date: Wed Mar 12 10:24:41 EDT 2025
User: louis
Spectrometer: USB4F10415
Trigger mode: 4
Integration Time (sec): 3.000000E-2
Scans to average: 1
Electric dark correction enabled: true
Nonlinearity correction enabled: false
Boxcar width: 0
XAxis mode: Wavelengths
Number of Pixels in Spectrum: 3648
>>>>>Begin Spectral Data<<<<<
178.204	-54.61
178.424	-54.61
178.644	-54.61
178.864	-134.48
179.084	-122.2
179.304	35.5
179.524	-50.52
179.744	41.64
179.964	-3.41
180.184	4.78
180.404	27.31
180.624	-46.42
180.844	17.07
181.064	4.78
181.283	-38.23
181.503	17.07
181.723	-9.56
181.943	-60.76
182.163	49.83
182.383	33.45
182.602	137.9
182.822	78.51
183.042	39.59
183.262	53.93
183.482	96.94
183.701	-21.84
183.921	-3.41
184.141	2.73
184.361	15.02
184.58	23.21
184.8	33.45
185.02	-44.37
185.239	70.31
185.459	-52.56
185.679	12.97
185.898	41.64
186.118	101.03
186.338	-11.61
186.557	74.41
186.777	8.87
186.997	0.68
187.216	6.83
187.436	66.22
187.655	29.35
187.875	35.5
188.095	49.83
188.314	41.64
188.534	70.31
188.753	10.92
188.973	12.97
189.192	68.27
189.412	10.92
189.631	-30.04
189.851	39.59
190.07	25.26
190.29	-30.04
190.509	94.89
190.729	25.26
190.948	8.87
191.168	121.51
191.387	70.31
191.607	37.55
191.826	51.88
192.045	4.78
192.265	33.45
192.484	29.35
192.704	-19.8
192.923	-75.09
193.142	68.27
193.362	117.42
193.581	55.98
193.8	60.07
194.02	29.35
194.239	53.93
194.458	0.68
194.678	-66.9
194.897	4.78
195.116	45.74
195.335	-13.65
195.555	21.16
195.774	0.68
195.993	62.12
196.212	-38.23
196.432	-25.94
196.651	10.92
196.87	55.98
197.089	64.17
197.308	-3.41
197.528	12.97
197.747	-30.04
197.966	6.83
198.185	37.55
198.404	10.92
198.623	121.51
198.842	-15.7
199.062	62.12
199.281	94.89
199.5	-19.8
199.719	66.22
199.938	8.87
200.157	60.07
200.376	45.74
200.595	84.65
200.814	33.45
201.033	37.55
201.252	49.83
201.471	6.83
201.69	-5.46
201.909	-5.46
202.128	45.74
202.347	31.4
202.566	51.88
202.785	-17.75
203.004	21.16
203.223	90.79
203.442	33.45
203.661	68.27
203.879	35.5
204.098	39.59
204.317	-21.84
204.536	8.87
204.755	12.97
204.974	27.31
205.193	-27.99
205.411	60.07
205.63	4.78
205.849	10.92
206.068	-13.65
206.287	-101.72
206.505	0.68
206.724	35.5
206.943	4.78
207.162	-5.46
207.381	45.74
207.599	-21.84
207.818	12.97
208.037	-7.51
208.255	21.16
208.474	90.79
208.693	70.31
208.911	-36.18
209.13	60.07
209.349	39.59
209.567	35.5
209.786	78.51
210.005	10.92
210.223	21.16
210.442	-15.7
210.661	47.79
210.879	-30.04
211.098	41.64
211.316	58.03
211.535	29.35
211.753	21.16
211.972	111.27
212.191	8.87
212.409	49.83
212.628	51.88
212.846	-19.8
213.065	51.88
213.283	49.83
213.502	8.87
213.72	53.93
213.938	-23.89
214.157	8.87
214.375	35.5
214.594	-21.84
214.812	37.55
215.031	23.21
215.249	55.98
215.467	17.07
215.686	86.7
215.904	-30.04
216.122	29.35
216.341	-11.61
216.559	49.83
216.778	23.21
216.996	-3.41
217.214	-44.37
217.432	64.17
217.651	-13.65
217.869	-3.41
218.087	29.35
218.306	62.12
218.524	-27.99
218.742	4.78
218.96	70.31
219.179	49.83
219.397	25.26
219.615	111.27
219.833	-5.46
220.051	60.07
220.27	109.23
220.488	29.35
220.706	53.93
220.924	21.16
221.142	21.16
221.36	25.26
221.578	21.16
221.796	-27.99
222.015	58.03
222.233	-7.51
222.451	88.75
222.669	-13.65
222.887	55.98
223.105	45.74
223.323	-21.84
223.541	39.59
223.759	80.55
223.977	37.55
224.195	76.46
224.413	-13.65
224.631	4.78
224.849	45.74
225.067	62.12
225.285	0.68
225.503	21.16
225.721	15.02
225.939	-19.8
226.157	43.69
226.375	31.4
226.592	2.73
226.81	2.73
227.028	70.31
227.246	74.41
227.464	-11.61
227.682	98.99
227.9	103.08
228.117	-13.65
228.335	70.31
228.553	-30.04
228.771	21.16
228.989	12.97
229.206	-48.47
229.424	60.07
229.642	4.78
229.86	-11.61
230.077	51.88
230.295	84.65
230.513	74.41
230.731	33.45
230.948	98.99
231.166	70.31
231.384	60.07
231.601	8.87
231.819	58.03
232.037	17.07
232.254	76.46
232.472	-19.8
232.689	35.5
232.907	70.31
233.125	17.07
233.342	4.78
233.56	15.02
233.777	4.78
233.995	78.51
234.213	35.5
234.43	119.46
234.648	33.45
234.865	49.83
235.083	78.51
235.3	68.27
235.518	41.64
235.735	21.16
235.953	80.55
236.17	66.22
236.388	-54.61
236.605	15.02
236.822	96.94
237.04	58.03
237.257	94.89
237.475	2.73
237.692	21.16
237.909	-19.8
238.127	49.83
238.344	12.97
238.562	23.21
238.779	27.31
238.996	-40.28
239.214	94.89
239.431	47.79
239.648	68.27
239.865	4.78
240.083	-7.51
240.3	23.21
240.517	31.4
240.735	33.45
240.952	27.31
241.169	53.93
241.386	-34.13
241.603	-1.37
241.821	8.87
242.038	39.59
242.255	64.17
242.472	15.02
242.689	107.18
242.907	-3.41
243.124	8.87
243.341	84.65
243.558	-9.56
243.775	-3.41
243.992	35.5
244.209	25.26
244.426	51.88
244.643	-15.7
244.86	12.97
245.078	19.11
245.295	51.88
245.512	47.79
245.729	-40.28
245.946	111.27
246.163	-17.75
246.38	35.5
246.597	-3.41
246.814	62.12
247.031	-7.51
247.248	37.55
247.464	-15.7
247.681	47.79
247.898	78.51
248.115	119.46
248.332	0.68
248.549	25.26
248.766	19.11
248.983	80.55
249.2	-32.08
249.417	4.78
249.633	66.22
249.85	31.4
250.067	-36.18
250.284	96.94
250.501	35.5
250.717	101.03
250.934	17.07
251.151	80.55
251.368	10.92
251.585	66.22
251.801	53.93
252.018	41.64
252.235	12.97
252.451	41.64
252.668	80.55
252.885	23.21
253.102	37.55
253.318	-5.46
253.535	4.78
253.752	41.64
253.968	10.92
254.185	17.07
254.401	21.16
254.618	62.12
254.835	2.73
255.051	98.99
255.268	55.98
255.484	4.78
255.701	49.83
255.917	27.31
256.134	21.16
256.351	55.98
256.567	25.26
256.784	86.7
257	53.93
257.217	74.41
257.433	107.18
257.65	29.35
257.866	-7.51
258.082	21.16
258.299	33.45
258.515	-11.61
258.732	55.98
258.948	12.97
259.165	-11.61
259.381	-52.56
259.597	60.07
259.814	53.93
260.03	4.78
260.246	-21.84
260.463	78.51
260.679	39.59
260.895	127.66
261.112	-30.04
261.328	94.89
261.544	-3.41
261.761	113.32
261.977	74.41
262.193	8.87
262.409	64.17
262.626	58.03
262.842	37.55
263.058	-19.8
263.274	-3.41
263.49	-15.7
263.707	45.74
263.923	-5.46
264.139	19.11
264.355	47.79
264.571	58.03
264.787	-15.7
265.004	29.35
265.22	0.68
265.436	-46.42
265.652	-32.08
265.868	45.74
266.084	-11.61
266.3	62.12
266.516	31.4
266.732	55.98
266.948	35.5
267.164	45.74
267.38	33.45
267.596	12.97
267.812	33.45
268.028	37.55
268.244	78.51
268.46	21.16
268.676	17.07
268.892	2.73
269.108	94.89
269.324	21.16
269.54	-116.05
269.756	76.46
269.972	-23.89
270.188	-5.46
270.403	-42.32
270.619	10.92
270.835	23.21
271.051	-23.89
271.267	-44.37
271.483	33.45
271.698	51.88
271.914	41.64
272.13	-3.41
272.346	0.68
272.562	78.51
272.777	12.97
272.993	82.6
273.209	2.73
273.425	-21.84
273.64	-27.99
273.856	-25.94
274.072	43.69
274.287	-17.75
274.503	94.89
274.719	4.78
274.934	33.45
275.15	-5.46
275.366	21.16
275.581	23.21
275.797	31.4
276.012	37.55
276.228	43.69
276.444	35.5
276.659	2.73
276.875	15.02
277.09	84.65
277.306	12.97
277.521	70.31
277.737	4.78
277.952	-40.28
278.168	-5.46
278.383	39.59
278.599	12.97
278.814	72.36
279.03	2.73
279.245	137.9
279.461	-13.65
279.676	45.74
279.892	4.78
280.107	4.78
280.322	-9.56
280.538	-23.89
280.753	-17.75
280.969	23.21
281.184	62.12
281.399	23.21
281.615	23.21
281.83	92.84
282.045	41.64
282.26	-17.75
282.476	15.02
282.691	58.03
282.906	19.11
283.122	51.88
283.337	68.27
283.552	27.31
283.767	-13.65
283.983	2.73
284.198	49.83
284.413	-9.56
284.628	6.83
284.843	2.73
285.058	70.31
285.274	29.35
285.489	-19.8
285.704	21.16
285.919	31.4
286.134	-21.84
286.349	86.7
286.564	90.79
286.779	31.4
286.995	35.5
287.21	-103.76
287.425	64.17
287.64	58.03
287.855	62.12
288.07	-11.61
288.285	8.87
288.5	-17.75
288.715	74.41
288.93	43.69
289.145	12.97
289.36	31.4
289.575	92.84
289.79	17.07
290.004	6.83
290.219	86.7
290.434	-11.61
290.649	19.11
290.864	74.41
291.079	-7.51
291.294	23.21
291.509	62.12
291.724	-25.94
291.938	15.02
292.153	31.4
292.368	29.35
292.583	17.07
292.798	117.42
293.012	47.79
293.227	-85.33
293.442	-19.8
293.657	41.64
293.871	133.8
294.086	49.83
294.301	168.62
294.516	68.27
294.73	58.03
294.945	2.73
295.16	35.5
295.374	35.5
295.589	62.12
295.804	76.46
296.018	-79.19
296.233	58.03
296.447	66.22
296.662	62.12
296.877	-9.56
297.091	66.22
297.306	31.4
297.52	41.64
297.735	123.56
297.949	-19.8
298.164	129.7
298.378	47.79
298.593	-15.7
298.807	45.74
299.022	-13.65
299.236	74.41
299.451	113.32
299.665	98.99
299.88	17.07
300.094	92.84
300.309	37.55
300.523	92.84
300.737	-13.65
300.952	45.74
301.166	82.6
301.381	58.03
301.595	29.35
301.809	10.92
302.024	76.46
302.238	47.79
302.452	72.36
302.667	-5.46
302.881	2.73
303.095	88.75
303.309	47.79
303.524	41.64
303.738	49.83
303.952	-5.46
304.166	-3.41
304.381	29.35
304.595	53.93
304.809	-19.8
305.023	43.69
305.237	45.74
305.452	58.03
305.666	12.97
305.88	76.46
306.094	-19.8
306.308	113.32
306.522	62.12
306.736	82.6
306.95	101.03
307.164	51.88
307.379	-11.61
307.593	10.92
307.807	76.46
308.021	96.94
308.235	37.55
308.449	0.68
308.663	8.87
308.877	115.37
309.091	45.74
309.305	45.74
309.519	-3.41
309.733	12.97
309.947	-1.37
310.161	10.92
310.374	76.46
310.588	70.31
310.802	23.21
311.016	39.59
311.23	60.07
311.444	15.02
311.658	70.31
311.872	86.7
312.085	41.64
312.299	125.61
312.513	53.93
312.727	0.68
312.941	41.64
313.154	-3.41
313.368	-19.8
313.582	41.64
313.796	23.21
314.009	53.93
314.223	74.41
314.437	103.08
314.651	150.18
314.864	-30.04
315.078	43.69
315.292	4.78
315.505	41.64
315.719	2.73
315.933	84.65
316.146	31.4
316.36	-48.47
316.573	27.31
316.787	21.16
317.001	90.79
317.214	49.83
317.428	41.64
317.641	10.92
317.855	101.03
318.068	60.07
318.282	4.78
318.495	35.5
318.709	23.21
318.922	21.16
319.136	88.75
319.349	92.84
319.563	-27.99
319.776	88.75
319.99	45.74
320.203	45.74
320.417	17.07
320.63	62.12
320.843	111.27
321.057	80.55
321.27	82.6
321.483	25.26
321.697	117.42
321.91	-32.08
322.124	74.41
322.337	4.78
322.55	10.92
322.763	-3.41
322.977	80.55
323.19	62.12
323.403	-9.56
323.617	12.97
323.83	160.42
324.043	62.12
324.256	58.03
324.469	-19.8
324.683	90.79
324.896	19.11
325.109	23.21
325.322	-19.8
325.535	98.99
325.748	53.93
325.962	-27.99
326.175	8.87
326.388	-11.61
326.601	37.55
326.814	45.74
327.027	21.16
327.24	29.35
327.453	25.26
327.666	33.45
327.879	62.12
328.092	51.88
328.305	19.11
328.518	12.97
328.731	12.97
328.944	39.59
329.157	-1.37
329.37	66.22
329.583	101.03
329.796	43.69
330.009	-13.65
330.222	-11.61
330.435	51.88
330.648	0.68
330.861	74.41
331.073	37.55
331.286	74.41
331.499	33.45
331.712	25.26
331.925	33.45
332.138	47.79
332.35	19.11
332.563	17.07
332.776	53.93
332.989	2.73
333.202	8.87
333.414	-13.65
333.627	15.02
333.84	-13.65
334.053	58.03
334.265	4.78
334.478	45.74
334.691	21.16
334.903	60.07
335.116	12.97
335.329	39.59
335.541	17.07
335.754	119.46
335.966	21.16
336.179	55.98
336.392	41.64
336.604	-5.46
336.817	94.89
337.029	72.36
337.242	51.88
337.454	74.41
337.667	47.79
337.88	-9.56
338.092	51.88
338.305	62.12
338.517	-50.52
338.729	-27.99
338.942	33.45
339.154	25.26
339.367	-32.08
339.579	19.11
339.792	8.87
340.004	82.6
340.217	53.93
340.429	37.55
340.641	-27.99
340.854	45.74
341.066	96.94
341.278	66.22
341.491	37.55
341.703	51.88
341.915	41.64
342.128	-3.41
342.34	10.92
342.552	68.27
342.764	-23.89
342.977	70.31
343.189	70.31
343.401	88.75
343.613	23.21
343.826	49.83
344.038	-23.89
344.25	68.27
344.462	-1.37
344.674	19.11
344.886	43.69
345.099	-25.94
345.311	33.45
345.523	82.6
345.735	17.07
345.947	31.4
346.159	49.83
346.371	21.16
346.583	41.64
346.795	158.38
347.007	58.03
347.219	-9.56
347.431	49.83
347.643	29.35
347.855	51.88
348.067	72.36
348.279	-13.65
348.491	31.4
348.703	-21.84
348.915	43.69
349.127	-23.89
349.339	45.74
349.551	27.31
349.763	45.74
349.975	29.35
350.187	33.45
350.399	19.11
350.61	58.03
350.822	10.92
351.034	-3.41
351.246	-7.51
351.458	58.03
351.669	29.35
351.881	92.84
352.093	58.03
352.305	86.7
352.517	86.7
352.728	105.13
352.94	123.56
353.152	80.55
353.363	29.35
353.575	78.51
353.787	35.5
353.999	10.92
354.21	70.31
354.422	-11.61
354.633	86.7
354.845	66.22
355.057	101.03
355.268	41.64
355.48	4.78
355.692	-15.7
355.903	58.03
356.115	70.31
356.326	2.73
356.538	68.27
356.749	55.98
356.961	92.84
357.172	-15.7
357.384	-3.41
357.595	135.85
357.807	6.83
358.018	17.07
358.23	4.78
358.441	62.12
358.653	78.51
358.864	29.35
359.075	-27.99
359.287	37.55
359.498	37.55
359.709	-5.46
359.921	72.36
360.132	76.46
360.344	10.92
360.555	17.07
360.766	-9.56
360.977	35.5
361.189	37.55
361.4	17.07
361.611	101.03
361.823	115.37
362.034	-13.65
362.245	-7.51
362.456	41.64
362.667	51.88
362.879	-30.04
363.09	62.12
363.301	-7.51
363.512	70.31
363.723	35.5
363.935	86.7
364.146	12.97
364.357	17.07
364.568	47.79
364.779	-25.94
364.99	94.89
365.201	-5.46
365.412	19.11
365.623	-44.37
365.834	144.04
366.045	43.69
366.256	105.13
366.467	55.98
366.678	117.42
366.889	23.21
367.1	41.64
367.311	74.41
367.522	41.64
367.733	103.08
367.944	90.79
368.155	29.35
368.366	90.79
368.577	152.23
368.788	45.74
368.999	-3.41
369.209	37.55
369.42	82.6
369.631	92.84
369.842	17.07
370.053	45.74
370.264	-13.65
370.474	62.12
370.685	88.75
370.896	-13.65
371.107	82.6
371.317	84.65
371.528	31.4
371.739	17.07
371.95	29.35
372.16	119.46
372.371	12.97
372.582	47.79
372.792	-5.46
373.003	60.07
373.214	-17.75
373.424	74.41
373.635	68.27
373.846	76.46
374.056	4.78
374.267	21.16
374.477	70.31
374.688	35.5
374.898	72.36
375.109	92.84
375.319	55.98
375.53	164.52
375.74	84.65
375.951	33.45
376.161	-3.41
376.372	144.04
376.582	58.03
376.793	-19.8
377.003	58.03
377.214	82.6
377.424	80.55
377.635	21.16
377.845	86.7
378.055	144.04
378.266	45.74
378.476	68.27
378.686	25.26
378.897	51.88
379.107	82.6
379.317	135.85
379.528	27.31
379.738	27.31
379.948	-30.04
380.158	137.9
380.369	25.26
380.579	101.03
380.789	33.45
380.999	31.4
381.21	15.02
381.42	58.03
381.63	23.21
381.84	62.12
382.05	2.73
382.261	84.65
382.471	76.46
382.681	78.51
382.891	8.87
383.101	74.41
383.311	-21.84
383.521	101.03
383.731	137.9
383.941	39.59
384.151	78.51
384.361	76.46
384.571	80.55
384.781	70.31
384.991	86.7
385.201	105.13
385.411	0.68
385.621	2.73
385.831	66.22
386.041	35.5
386.251	45.74
386.461	23.21
386.671	41.64
386.881	51.88
387.091	41.64
387.301	19.11
387.511	45.74
387.72	88.75
387.93	86.7
388.14	68.27
388.35	68.27
388.56	37.55
388.769	-15.7
388.979	64.17
389.189	64.17
389.399	84.65
389.609	74.41
389.818	-19.8
390.028	66.22
390.238	94.89
390.447	86.7
390.657	113.32
390.867	78.51
391.076	4.78
391.286	92.84
391.496	70.31
391.705	29.35
391.915	78.51
392.125	45.74
392.334	58.03
392.544	115.37
392.753	31.4
392.963	119.46
393.172	66.22
393.382	25.26
393.591	62.12
393.801	27.31
394.01	39.59
394.22	66.22
394.429	135.85
394.639	74.41
394.848	84.65
395.058	133.8
395.267	29.35
395.477	127.66
395.686	4.78
395.895	64.17
396.105	117.42
396.314	119.46
396.524	117.42
396.733	45.74
396.942	135.85
397.152	82.6
397.361	193.19
397.57	86.7
397.78	127.66
397.989	103.08
398.198	154.28
398.407	60.07
398.617	41.64
398.826	96.94
399.035	47.79
399.244	94.89
399.453	37.55
399.663	133.8
399.872	105.13
400.081	133.8
400.29	121.51
400.499	133.8
400.708	205.48
400.917	109.23
401.127	90.79
401.336	86.7
401.545	133.8
401.754	158.38
401.963	123.56
402.172	139.94
402.381	96.94
402.59	141.99
402.799	107.18
403.008	72.36
403.217	129.7
403.426	60.07
403.635	94.89
403.844	86.7
404.053	135.85
404.262	144.04
404.471	191.14
404.68	94.89
404.888	135.85
405.097	170.66
405.306	139.94
405.515	162.47
405.724	141.99
405.933	209.58
406.142	139.94
406.35	170.66
406.559	139.94
406.768	189.1
406.977	209.58
407.185	205.48
407.394	215.72
407.603	215.72
407.812	195.24
408.02	275.11
408.229	244.39
408.438	211.62
408.646	277.16
408.855	291.49
409.064	234.15
409.272	285.35
409.481	303.78
409.69	213.67
409.898	277.16
410.107	338.6
410.315	342.69
410.524	301.73
410.733	369.32
410.941	324.26
411.15	430.76
411.358	397.99
411.567	424.61
411.775	361.13
411.984	473.76
412.192	420.52
412.401	512.67
412.609	516.77
412.818	512.67
413.026	502.44
413.234	459.43
413.443	516.77
413.651	510.63
413.86	578.21
414.068	602.79
414.276	699.04
414.485	649.89
414.693	613.03
414.901	674.46
415.11	742.05
415.318	686.75
415.526	737.95
415.734	811.68
415.943	764.58
416.151	848.54
416.359	881.31
416.567	942.75
416.776	1002.14
416.984	940.7
417.192	1030.81
417.4	1110.68
417.608	1004.19
417.817	1047.19
418.025	1086.11
418.233	1190.55
418.441	1280.66
418.649	1223.32
418.857	1381.01
419.065	1327.77
419.273	1381.01
419.481	1385.11
419.689	1413.78
419.897	1532.56
420.105	1561.23
420.313	1587.86
420.521	1712.78
420.729	1727.12
420.937	1694.35
421.145	1798.8
421.353	1872.53
421.561	2005.64
421.769	1950.35
421.977	2005.64
422.185	2185.87
422.393	2212.49
422.601	2341.51
422.809	2237.06
423.017	2347.65
423.224	2460.29
423.432	2556.55
423.64	2460.29
423.848	2732.67
424.056	2589.32
424.263	2953.85
424.471	2892.41
424.679	2888.32
424.887	3211.9
425.094	3240.57
425.302	3285.62
425.51	3342.97
425.718	3463.8
425.925	3533.43
426.133	3646.07
426.341	3764.85
426.548	3930.73
426.756	3906.16
426.964	4070
427.171	4213.35
427.379	4459.11
427.586	4358.76
427.794	4567.65
428.001	4825.7
428.209	5126.75
428.417	4921.95
428.624	5276.25
428.832	5304.92
429.039	5280.35
429.247	5177.95
429.454	5708.37
429.662	6132.3
429.869	5714.52
430.076	6277.71
430.284	6009.42
430.491	6306.38
430.699	6562.37
430.906	6601.29
431.114	6730.31
431.321	6885.95
431.528	7154.24
431.736	7483.96
431.943	7932.47
432.15	7506.49
432.358	7684.66
432.565	8176.17
432.772	8342.06
432.979	8528.42
433.187	8696.36
433.394	8759.85
433.601	9513.5
433.808	9128.48
434.016	9202.21
434.223	9605.66
434.43	10134.03
434.637	10095.12
434.844	10549.77
435.052	10816.01
435.259	10846.73
435.466	10879.49
435.673	10707.46
435.88	11502.08
436.087	11942.39
436.294	12104.18
436.501	11715.06
436.708	11995.64
436.915	12282.35
437.122	12890.6
437.329	12831.21
437.537	13300.19
437.743	13527.52
437.95	13498.84
438.157	13949.4
438.364	14733.77
438.571	14531.02
438.778	14793.16
438.985	16126.39
439.192	15403.46
439.399	15786.43
439.606	15440.32
439.813	16157.11
440.02	16945.58
440.227	16933.29
440.433	16732.59
440.64	17228.2
440.847	17308.07
441.054	17770.91
441.261	18729.36
441.467	18760.08
441.674	19052.94
441.881	19683.71
442.088	19663.23
442.294	19376.51
442.501	20042.1
442.708	20214.13
442.914	21295.46
443.121	22065.5
443.328	21627.23
443.534	22913.36
443.741	22569.3
443.948	21864.8
444.154	23656.77
444.361	23376.2
444.568	23501.12
444.774	23810.37
444.981	23931.2
445.187	24760.62
445.394	25616.68
445.6	25176.36
445.807	27926.78
446.013	26560.79
446.22	26994.96
446.426	28072.19
446.633	28279.04
446.839	29167.85
447.046	27857.15
447.252	29405.42
447.459	29417.71
447.665	28961.01
447.871	30603.48
448.078	31701.19
448.284	30128.35
448.491	31103.18
448.697	32059.59
448.903	32686.26
449.11	33071.28
449.316	32667.83
449.522	33063.09
449.728	33839.27
449.935	33935.52
450.141	33714.34
450.347	34967.7
450.553	33472.68
450.76	33693.86
450.966	34914.45
451.172	34597.02
451.378	35551.37
451.584	34910.36
451.791	35829.9
451.997	35678.35
452.203	36321.41
452.409	35874.95
452.615	35461.26
452.821	34412.7
453.027	34320.54
453.233	35811.46
453.44	34392.22
453.646	34525.34
453.852	35086.48
454.058	35066
454.264	34420.89
454.47	34822.3
454.676	33568.94
454.882	35240.08
455.088	32170.18
455.294	32692.41
455.5	33163.44
455.705	33673.38
455.911	31895.75
456.117	31502.54
456.323	31226.06
456.529	29360.36
456.735	30505.18
456.941	29505.77
457.147	29655.27
457.352	28430.58
457.558	27859.2
457.764	27801.86
457.97	27513.09
458.176	26806.55
458.381	26757.39
458.587	25352.49
458.793	25583.91
458.999	24185.15
459.204	25819.42
459.41	25041.2
459.616	23822.66
459.821	23718.21
460.027	23509.32
460.233	22968.65
460.438	21877.08
460.644	21926.24
460.85	21143.91
461.055	20867.44
461.261	20701.55
461.466	19040.65
461.672	18719.12
461.878	19964.28
462.083	18708.88
462.289	18487.7
462.494	18356.63
462.7	17467.81
462.905	17050.02
463.111	17666.46
463.316	17557.92
463.522	17170.85
463.727	17277.35
463.932	17090.98
464.138	17138.09
464.343	17138.09
464.549	16574.89
464.754	17271.2
464.959	17189.28
465.165	16765.35
465.37	16208.31
465.575	15641.02
465.781	16427.44
465.986	16447.92
466.191	15759.8
466.397	15686.08
466.602	15040.97
466.807	15567.29
467.012	15417.79
467.218	15268.29
467.423	15172.04
467.628	15391.17
467.833	15770.04
468.038	15202.75
468.244	14842.31
468.449	15653.31
468.654	14965.19
468.859	14961.09
469.064	14756.3
469.269	14035.41
469.474	14315.98
469.679	14533.07
469.885	13871.58
470.09	14037.46
470.295	14119.38
470.5	13511.13
470.705	13816.28
470.91	13492.7
471.115	13623.77
471.32	13922.77
471.525	13605.34
471.73	13197.79
471.935	13152.74
472.139	12896.74
472.344	12890.6
472.549	12952.04
472.754	12642.79
472.959	12478.96
473.164	12165.62
473.369	12067.31
473.574	12341.74
473.778	12507.63
473.983	12110.32
474.188	12093.94
474.393	11411.96
474.598	11737.59
474.802	11647.48
475.007	11336.19
475.212	11590.14
475.417	11151.87
475.621	11006.47
475.826	10977.8
476.031	10873.35
476.235	10721.8
476.44	10945.03
476.645	10670.6
476.849	10541.58
477.054	10390.03
477.259	10355.21
477.463	10297.87
477.668	10189.33
477.872	10144.27
478.077	9781.78
478.282	9746.97
478.486	9624.09
478.691	9628.18
478.895	9607.7
479.1	9523.74
479.304	9638.42
479.509	9431.58
479.713	9699.86
479.918	9216.54
480.122	8956.45
480.326	9566.74
480.531	9447.96
480.735	9073.18
480.94	9067.04
481.144	9433.63
481.348	8923.68
481.553	8989.22
481.757	8890.92
481.961	8897.06
482.166	9032.22
482.37	8972.83
482.574	8798.76
482.778	9204.25
482.983	9032.22
483.187	8886.82
483.391	8927.78
483.595	8933.92
483.8	8872.48
484.004	8929.83
484.208	8991.27
484.412	9028.13
484.616	8923.68
484.821	8868.39
485.025	8790.56
485.229	8720.93
485.433	8931.87
485.637	8925.73
485.841	8849.96
486.045	8790.56
486.249	8892.96
486.453	8903.2
486.657	8823.33
486.861	8892.96
487.065	8770.08
487.269	9026.08
487.473	8786.47
487.677	8925.73
487.881	9056.8
488.085	8942.11
488.289	9073.18
488.493	8847.91
488.697	9130.53
488.901	8948.26
489.105	8831.52
489.309	8950.31
489.512	8952.35
489.716	9073.18
489.92	9069.09
490.124	8993.31
490.328	9343.52
490.531	9167.39
490.735	9118.24
490.939	9218.59
491.143	9175.58
491.346	9300.51
491.55	9366.04
491.754	9151.01
491.958	9460.25
492.161	9277.98
492.365	9368.09
492.569	9454.11
492.772	9394.72
492.976	9470.49
493.18	9681.43
493.383	9919
493.587	9835.03
493.79	9767.45
493.994	9521.69
494.197	9923.09
494.401	9984.53
494.605	9910.8
494.808	10045.97
495.012	9951.76
495.215	10101.26
495.419	10213.9
495.622	10146.32
495.825	10433.04
496.029	10449.42
496.232	10641.93
496.436	10603.02
496.639	10799.62
496.843	10721.8
497.046	11098.63
497.249	11104.77
497.453	11172.35
497.656	11266.56
497.859	11147.78
498.063	11457.02
498.266	11690.49
498.469	11635.19
498.673	11801.08
498.876	11872.76
499.079	12110.32
499.282	12294.64
499.485	12327.41
499.689	12417.52
499.892	12681.71
500.095	12515.82
500.298	13036
500.501	12745.19
500.705	13179.36
500.908	13341.15
501.111	13461.98
501.314	13591
501.517	13617.63
501.72	14004.69
501.923	13746.65
502.126	14146
502.329	14557.64
502.532	14418.38
502.735	14387.66
502.938	14733.77
503.141	14770.63
503.344	15092.16
503.547	15098.31
503.75	15354.3
503.953	15702.46
504.156	15681.98
504.359	15876.54
504.562	16226.74
504.765	16120.24
504.968	16155.06
505.17	16757.16
505.373	16587.18
505.576	17039.78
505.779	17154.47
505.982	17228.2
506.185	17635.74
506.387	17858.97
506.59	17658.27
506.793	18057.62
506.996	18231.7
507.198	18606.48
507.401	18579.86
507.604	18694.54
507.807	19300.74
508.009	19214.73
508.212	19343.75
508.415	19712.38
508.617	19665.28
508.82	20054.39
509.022	19857.79
509.225	20355.44
509.428	20726.13
509.63	20715.89
509.833	20625.78
510.035	21598.56
510.238	21311.85
510.44	21694.82
510.643	22079.83
510.845	22245.72
511.048	21789.02
511.25	22421.84
511.453	22409.56
511.655	23281.99
511.858	23384.39
512.06	23464.26
512.262	23566.66
512.465	23302.47
512.667	23892.29
512.87	24383.8
513.072	24045.88
513.274	24924.46
513.477	25119.02
513.679	25188.65
513.881	25370.92
514.084	25669.92
514.286	25661.73
514.488	25895.2
514.69	26939.66
514.893	26540.31
515.095	26468.63
515.297	27160.84
515.499	27181.32
515.701	27719.94
515.904	27625.73
516.106	27834.63
516.308	28244.22
516.51	28651.77
516.712	28729.59
516.914	28995.82
517.116	29561.06
517.318	29317.36
517.52	29737.19
517.722	29786.34
517.925	30441.69
518.127	30583
518.329	31221.97
518.531	30867.67
518.733	31187.15
518.935	31801.54
519.136	31789.25
519.338	31791.3
519.54	32118.98
519.742	32667.83
519.944	32669.88
520.146	32946.36
520.348	33120.43
520.55	33939.62
520.752	33343.66
520.954	34175.14
521.155	34420.89
521.357	34226.34
521.559	34887.83
521.761	35070.1
521.963	35584.14
522.164	35629.19
522.366	35534.99
522.568	36190.34
522.77	36118.66
522.971	36810.87
523.173	36552.83
523.375	36931.7
523.576	36980.85
523.778	36819.06
523.98	37824.62
524.181	37691.5
524.383	37814.38
524.584	38326.37
524.786	38221.92
524.988	38303.84
525.189	38862.94
525.391	38785.11
525.592	39293.01
525.794	39331.92
525.995	39526.48
526.197	39671.89
526.398	39409.75
526.6	39958.6
526.801	39929.93
527.003	40142.92
527.204	40446.02
527.406	40435.78
527.607	40726.59
527.808	41203.77
528.01	40421.44
528.211	40941.63
528.412	41959.47
528.614	41490.48
528.815	41367.6
529.016	42190.89
529.218	41084.98
529.419	41818.16
529.62	41914.41
529.822	42051.62
530.023	42203.17
530.224	42246.18
530.425	42358.82
530.626	42084.39
530.828	42020.91
531.029	43051.03
531.23	42799.13
531.431	42575.9
531.632	43032.6
531.833	42520.61
532.035	42541.09
532.236	43032.6
532.437	43202.58
532.638	42473.51
532.839	43221.02
533.04	43198.49
533.241	42721.31
533.442	43401.24
533.643	43307.03
533.844	43014.17
534.045	43397.14
534.246	42815.52
534.447	43391
534.648	43118.62
534.849	43530.26
535.05	43053.08
535.251	43622.42
535.451	43358.23
535.652	43452.44
535.853	43431.96
536.054	43452.44
536.255	43411.48
536.456	42942.49
536.657	44042.25
536.857	43245.59
537.058	43091.99
537.259	43847.69
537.46	43298.84
537.66	43913.23
537.861	43520.02
538.062	43935.76
538.263	43614.23
538.463	43259.93
538.664	43374.61
538.865	43778.06
539.065	43771.92
539.266	43337.75
539.466	43622.42
539.667	43368.47
539.868	44042.25
540.068	43454.48
540.269	43569.17
540.469	43235.35
540.67	43737.1
540.87	43307.03
541.071	43515.92
541.271	43716.62
541.472	43526.16
541.672	43522.07
541.873	43575.31
542.073	42487.84
542.274	43597.84
542.474	43218.97
542.675	43079.71
542.875	43628.56
543.075	43231.25
543.276	42907.68
543.476	43882.51
543.676	43327.51
543.877	43964.43
544.077	43067.42
544.277	43399.19
544.478	43601.94
544.678	43448.34
544.878	43063.32
545.078	43391
545.279	43085.85
545.479	42940.44
545.679	43489.3
545.879	43456.53
546.079	43028.51
546.28	43319.32
546.48	43126.81
546.68	42965.02
546.88	43059.23
547.08	43149.34
547.28	42512.42
547.48	42749.98
547.68	43116.57
547.88	42580
548.081	42907.68
548.281	43010.07
548.481	43055.13
548.681	43065.37
548.881	42786.85
549.081	42919.96
549.28	42541.09
549.48	43126.81
549.68	42608.67
549.88	43427.86
550.08	42524.71
550.28	43190.3
550.48	42534.95
550.68	43335.7
550.88	42616.86
551.08	42676.26
551.279	42956.83
551.479	42514.47
551.679	42713.12
551.879	42555.43
552.079	43360.28
552.278	42526.75
552.478	42760.22
552.678	42428.45
552.878	42391.59
553.077	42473.51
553.277	42139.69
553.477	42903.58
553.676	42446.88
553.876	42244.13
554.076	42342.44
554.275	42268.71
554.475	42039.34
554.674	42768.41
554.874	42668.06
555.074	42119.21
555.273	42084.39
555.473	42246.18
555.672	41873.45
555.872	41885.74
556.071	42518.56
556.271	42276.9
556.47	42039.34
556.67	41730.09
556.869	42041.39
557.068	41918.51
557.268	41402.42
557.467	41902.12
557.667	41635.89
557.866	41584.69
558.065	41349.17
558.265	41547.82
558.464	41347.12
558.663	41605.17
558.863	41082.94
559.062	41682.99
559.261	40585.28
559.461	41809.96
559.66	40699.97
559.859	41359.41
560.058	40939.58
560.258	41084.98
560.457	40503.36
560.656	41113.66
560.855	40493.12
561.054	40894.52
561.253	40302.66
561.453	40769.6
561.652	40403.01
561.851	40970.3
562.05	40138.82
562.249	40099.91
562.448	40196.17
562.647	40278.08
562.846	39819.34
563.045	39962.7
563.244	39506
563.443	40245.32
563.642	39430.22
563.841	39762
564.04	39262.29
564.239	40058.95
564.438	39131.22
564.637	39764.04
564.836	39393.36
565.035	39204.95
565.234	39125.08
565.432	39198.8
565.631	39057.49
565.83	38926.42
566.029	38733.92
566.228	38787.16
566.427	38672.48
566.625	38365.28
566.824	37648.49
567.023	38434.91
567.222	37847.15
567.42	38606.94
567.619	37965.93
567.818	37761.13
568.016	37900.39
568.215	38070.37
568.414	37742.7
568.612	38283.36
568.811	37259.38
569.01	37552.24
569.208	37085.3
569.407	37496.94
569.605	36845.69
569.804	37306.48
570.002	36712.57
570.201	36618.36
570.4	36636.8
570.598	36493.44
570.797	36528.25
570.995	36587.64
571.193	36063.36
571.392	36694.14
571.59	35872.9
571.789	36030.6
571.987	36425.85
572.186	35610.76
572.384	35588.24
572.582	35821.7
572.781	35920.01
572.979	35319.95
573.177	35317.9
573.376	35917.96
573.574	35094.68
573.772	35545.23
573.971	35207.31
574.169	34781.34
574.367	34703.51
574.565	35088.53
574.763	34916.5
574.962	34805.91
575.16	34760.86
575.358	34607.26
575.556	34298.02
575.754	34812.06
575.952	34244.77
576.151	34404.51
576.349	34072.74
576.547	34085.03
576.745	33824.93
576.943	33833.13
577.141	33681.58
577.339	33777.83
577.537	33458.35
577.735	33480.88
577.933	33202.35
578.131	33458.35
578.329	33138.86
578.527	32856.25
578.725	32678.07
578.923	32889.01
579.121	33044.66
579.319	32532.67
579.516	32864.44
579.714	33011.89
579.912	32395.45
580.11	32430.27
580.308	32258.24
580.506	32297.15
580.704	31613.13
580.901	32174.27
581.099	32192.7
581.297	31733.96
581.495	31865.03
581.692	31553.74
581.89	31527.11
582.088	31568.07
582.285	31426.76
582.483	31549.64
582.681	31396.04
582.878	31187.15
583.076	30927.06
583.274	31170.77
583.471	30812.37
583.669	30988.5
583.866	30419.16
584.064	30666.97
584.262	30408.92
584.459	30484.7
584.657	30587.1
584.854	30476.51
585.052	29870.31
585.249	30519.51
585.447	30365.92
585.644	30083.3
585.841	30042.34
586.039	30390.49
586.236	29544.68
586.434	29685.99
586.631	29352.17
586.828	29360.36
587.026	29364.46
587.223	29317.36
587.42	29116.65
587.618	29458.67
587.815	28702.96
588.012	29112.56
588.21	28981.49
588.407	29116.65
588.604	28715.25
588.801	28492.02
588.999	28616.95
589.196	28487.93
589.393	28678.39
589.59	28170.49
589.787	28066.05
589.984	28049.66
590.182	27861.25
590.379	27943.17
590.576	28203.26
590.773	27797.76
590.97	27832.58
591.167	27947.26
591.364	27203.85
591.561	27750.66
591.758	27384.07
591.955	27228.43
592.152	27308.3
592.349	27156.75
592.546	27154.7
592.743	26972.43
592.94	26630.42
593.137	26874.13
593.334	26878.22
593.531	26661.14
593.727	27181.32
593.924	26693.91
594.121	26489.11
594.318	26960.14
594.515	25932.06
594.712	26532.12
594.908	26079.52
595.105	26239.26
595.302	25899.3
595.499	26022.17
595.696	25987.36
595.892	25841.95
596.089	26044.7
596.286	25796.9
596.482	25514.28
596.679	25747.75
596.876	25510.18
597.072	25557.28
597.269	25381.16
597.466	25004.33
597.662	24766.77
597.859	25266.47
598.055	25256.23
598.252	24955.18
598.448	24863.02
598.645	24863.02
598.841	24396.09
599.038	24607.03
599.234	24709.43
599.431	24279.35
599.627	24189.24
599.824	24588.6
600.02	23750.98
600.217	24447.29
600.413	23769.41
600.609	24054.08
600.806	24078.65
601.002	23861.57
601.198	23572.8
601.395	23607.62
601.591	23677.25
601.787	23558.47
601.984	23398.73
602.18	23583.04
602.376	23275.85
602.572	23198.02
602.769	23277.9
602.965	22909.26
603.161	23138.63
603.357	22919.5
603.553	22933.84
603.75	23161.16
603.946	22907.21
604.142	22544.72
604.338	22636.88
604.534	22454.61
604.73	22571.35
604.926	22636.88
605.122	22358.36
605.318	22358.36
605.514	22210.9
605.71	22456.66
605.906	21885.28
606.102	22022.49
606.298	22120.79
606.494	22088.03
606.69	22022.49
606.886	22094.17
607.082	21721.44
607.278	21768.54
607.474	21696.86
607.67	21590.37
607.866	21422.44
608.062	21786.97
608.257	21502.31
608.453	21483.87
608.649	21406.05
608.845	21408.1
609.041	21281.13
609.236	21127.53
609.432	21158.25
609.628	21193.06
609.824	20951.4
610.019	20951.4
610.215	21176.68
610.411	20988.27
610.606	21070.19
610.802	21176.68
610.998	20853.1
611.193	20914.54
611.389	20447.6
611.584	20855.15
611.78	20511.09
611.976	20584.82
612.171	20519.28
612.367	20623.73
612.562	20470.13
612.758	20259.19
612.953	20158.84
613.149	20572.53
613.344	20132.22
613.539	19882.36
613.735	20285.81
613.93	20357.49
614.126	20109.69
614.321	20416.88
614.517	20121.98
614.712	19990.91
614.907	19642.75
615.103	19997.05
615.298	19820.92
615.493	20046.2
615.688	19435.91
615.884	19947.9
616.079	19310.98
616.274	19765.63
616.47	19372.42
616.665	19757.44
616.86	19579.26
617.055	19595.65
617.25	19429.76
617.445	19466.63
617.641	19163.53
617.836	19425.67
618.031	19208.58
618.226	19272.07
618.421	19046.79
618.616	19288.45
618.811	19028.36
619.006	18792.84
619.201	18551.18
619.396	18930.06
619.591	18657.68
619.786	18416.02
619.981	18438.55
620.176	18805.13
620.371	18409.87
620.566	18299.28
620.761	18108.82
620.956	18442.64
621.151	18053.53
621.346	18395.54
621.541	17803.67
621.735	17996.18
621.93	17465.76
622.125	17764.76
622.32	17420.7
622.515	17506.72
622.709	17611.17
622.904	17355.17
623.099	17029.54
623.294	17013.16
623.488	17078.69
623.683	17164.71
623.878	16671.15
624.072	17025.45
624.267	16550.32
624.462	16531.89
624.656	16310.71
624.851	16425.39
625.046	16343.47
625.24	16226.74
625.435	16093.62
625.629	16179.64
625.824	15755.71
626.018	15866.3
626.213	15520.19
626.407	15921.59
626.602	15598.01
626.796	15557.05
626.991	15471.04
627.185	15260.1
627.38	15380.93
627.574	15313.34
627.768	15110.6
627.963	15022.53
628.157	14842.31
628.352	15237.57
628.546	14823.88
628.74	15045.06
628.935	14651.85
629.129	14940.61
629.323	14463.44
629.517	14438.86
629.712	14330.32
629.906	14488.01
630.1	14121.43
630.294	14012.88
630.489	14006.74
630.683	14070.23
630.877	13928.92
631.071	13775.32
631.265	13844.95
631.459	13998.55
631.653	13668.83
631.848	13367.77
632.042	13496.8
632.236	13660.63
632.43	13214.18
632.624	13548
632.818	13191.65
633.012	13091.3
633.206	13046.24
633.4	13150.69
633.594	12755.43
633.788	12966.37
633.982	12794.34
634.176	12763.62
634.369	12646.89
634.563	12524.01
634.757	12470.76
634.951	12419.57
635.145	12495.34
635.339	12501.48
635.533	12345.84
635.726	12368.37
635.92	12241.39
636.114	12177.9
636.308	11938.29
636.501	12229.1
636.695	12052.98
636.889	11854.33
637.083	11698.68
637.276	11592.19
637.47	11801.08
637.664	11667.96
637.857	11358.72
638.051	11493.88
638.244	11350.53
638.438	11325.95
638.632	11231.74
638.825	11137.54
639.019	11145.73
639.212	10981.89
639.406	11035.14
639.599	10932.74
639.793	10852.87
639.986	10762.76
640.18	10977.8
640.373	10891.78
640.567	10627.59
640.76	10727.94
640.954	10447.37
641.147	10619.4
641.34	10261.01
641.534	10406.41
641.727	10228.24
641.92	10177.04
642.114	10211.85
642.307	10291.73
642.5	10088.98
642.694	10105.36
642.887	9933.33
643.08	10080.78
643.273	9914.9
643.467	9800.21
643.66	9683.48
643.853	9669.14
644.046	9658.9
644.239	9560.6
644.432	9407
644.626	9351.71
644.819	9343.52
645.012	9411.1
645.205	9361.95
645.398	9308.7
645.591	9249.31
645.784	9171.49
645.977	9011.75
646.17	9234.97
646.363	8974.88
646.556	8970.79
646.749	8847.91
646.942	9028.13
647.135	8827.43
647.328	8682.02
647.521	8522.28
647.714	8661.54
647.907	8823.33
648.099	8628.78
648.292	8786.47
648.485	8602.15
648.678	8471.08
648.871	8589.86
649.064	8389.16
649.256	8499.75
649.449	8204.85
649.642	8436.27
649.835	8233.52
650.027	8348.2
650.22	8174.13
650.413	8210.99
650.605	8034.86
650.798	8067.63
650.991	7977.52
651.183	7901.75
651.376	7684.66
651.568	7883.31
651.761	7944.75
651.954	7787.06
652.146	7637.56
652.339	7723.57
652.531	7760.44
652.724	7729.72
652.916	7492.15
653.109	7440.95
653.301	7557.69
653.494	7547.45
653.686	7404.09
653.879	7434.81
654.071	7336.51
654.263	7334.46
654.456	7080.51
654.648	7279.16
654.84	7123.52
655.033	7113.28
655.225	7133.76
655.417	7004.74
655.61	7031.36
655.802	7230.01
655.994	7082.56
656.186	7156.29
656.379	6965.82
656.571	6967.87
656.763	6795.84
656.955	6705.73
657.148	6783.56
657.34	6906.43
657.532	6523.46
657.724	6523.46
657.916	6543.94
658.108	6539.85
658.3	6560.33
658.492	6502.98
658.684	6474.31
658.876	6367.82
659.068	6459.98
659.26	6441.54
659.452	6646.34
659.644	6365.77
659.836	6232.65
660.028	6318.67
660.22	6224.46
660.412	6345.29
660.604	6134.35
660.796	6222.41
660.988	6105.68
661.18	6101.58
661.372	6226.51
661.563	6074.96
661.755	6048.33
661.947	5913.17
662.139	5968.46
662.331	5941.84
662.522	5679.7
662.714	5691.99
662.906	5728.85
663.097	5749.33
663.289	5790.29
663.481	5624.4
663.673	5884.5
663.864	5636.69
664.056	5608.02
664.247	5526.1
664.439	5470.81
664.631	5673.56
664.822	5517.91
665.014	5403.22
665.205	5565.01
665.397	5466.71
665.588	5505.62
665.78	5470.81
665.971	5462.62
666.163	5509.72
666.354	5255.77
666.546	5319.26
666.737	5272.15
666.929	5296.73
667.12	5366.36
667.311	5229.15
667.503	5110.36
667.694	5134.94
667.885	5325.4
668.077	5266.01
668.268	4981.34
668.459	5083.74
668.651	4993.63
668.842	4956.77
669.033	5059.17
669.224	5069.41
669.416	5059.17
669.607	4936.29
669.798	4880.99
669.989	4983.39
670.18	4999.77
670.371	4938.34
670.563	4858.46
670.754	4936.29
670.945	4952.67
671.136	4975.2
671.327	4788.83
671.518	4954.72
671.709	4883.04
671.9	4897.38
672.091	4837.98
672.282	4764.26
672.473	4682.34
672.664	4854.37
672.855	4782.69
673.046	4745.83
673.237	4790.88
673.428	4751.97
673.619	4797.03
673.809	4754.02
674	4672.1
674.191	4645.48
674.382	4631.14
674.573	4633.19
674.764	4655.72
674.954	4557.41
675.145	4704.87
675.336	4717.15
675.527	4690.53
675.717	4641.38
675.908	4551.27
676.099	4581.99
676.289	4616.8
676.48	4485.73
676.671	4598.37
676.861	4506.21
677.052	4426.34
677.243	4393.58
677.433	4387.43
677.624	4469.35
677.814	4567.65
678.005	4543.08
678.195	4545.13
678.386	4596.32
678.576	4498.02
678.767	4495.97
678.957	4473.45
679.148	4516.45
679.338	4387.43
679.529	4371.05
679.719	4575.84
679.909	4444.77
680.1	4393.58
680.29	4524.65
680.481	4473.45
680.671	4412.01
680.861	4387.43
681.052	4487.78
681.242	4407.91
681.432	4461.16
681.622	4475.49
681.813	4403.82
682.003	4356.71
682.193	4426.34
682.383	4455.01
682.573	4541.03
682.764	4450.92
682.954	4424.3
683.144	4409.96
683.334	4520.55
683.524	4371.05
683.714	4362.86
683.904	4407.91
684.094	4455.01
684.284	4303.47
684.474	4371.05
684.664	4346.47
684.854	4225.64
685.044	4360.81
685.234	4305.51
685.424	4317.8
685.614	4346.47
685.804	4260.46
685.994	4280.94
686.184	4229.74
686.374	4268.65
686.564	4180.59
686.753	4328.04
686.943	4186.73
687.133	4246.12
687.323	4164.2
687.513	4215.4
687.702	4141.68
687.892	4147.82
688.082	4133.48
688.272	4162.16
688.461	4072.04
688.651	4074.09
688.841	3986.03
689.03	4026.99
689.22	4082.28
689.41	4092.52
689.599	3955.31
689.789	4035.18
689.979	4076.14
690.168	3930.73
690.358	3895.92
690.547	3981.93
690.737	3947.12
690.926	4010.61
691.116	3773.04
691.305	3785.33
691.495	3770.99
691.684	3820.14
691.874	3865.2
692.063	3943.02
692.252	3793.52
692.442	3854.96
692.631	3807.86
692.82	3740.27
693.01	3603.06
693.199	3949.17
693.388	3668.59
693.578	3660.4
693.767	3707.51
693.956	3668.59
694.146	3598.96
694.335	3695.22
694.524	3758.71
694.713	3648.11
694.902	3601.01
695.092	3580.53
695.281	3500.66
695.47	3560.05
695.659	3469.94
695.848	3621.49
696.037	3469.94
696.226	3527.28
696.415	3510.9
696.604	3375.74
696.793	3572.34
696.982	3541.62
697.171	3494.52
697.36	3443.32
697.549	3445.37
697.738	3515
697.927	3543.67
698.116	3416.69
698.305	3385.98
698.494	3494.52
698.683	3502.71
698.872	3527.28
699.061	3306.1
699.25	3394.17
699.438	3324.54
699.627	3342.97
699.816	3359.35
700.005	3404.41
700.193	3375.74
700.382	3474.04
700.571	3367.54
700.76	3400.31
700.948	3379.83
701.137	3416.69
701.326	3326.58
701.514	3351.16
701.703	3490.42
701.892	3326.58
702.08	3369.59
702.269	3324.54
702.457	3412.6
702.646	3351.16
702.834	3355.26
703.023	3379.83
703.212	3428.98
703.4	3437.17
703.589	3297.91
703.777	3377.78
703.965	3404.41
704.154	3402.36
704.342	3277.43
704.531	3412.6
704.719	3183.23
704.907	3435.13
705.096	3373.69
705.284	3324.54
705.472	3332.73
705.661	3373.69
705.849	3412.6
706.037	3381.88
706.226	3457.65
706.414	3443.32
706.602	3330.68
706.79	3209.85
706.979	3318.39
707.167	3340.92
707.355	3394.17
707.543	3334.78
707.731	3418.74
707.919	3363.45
708.107	3316.34
708.296	3365.5
708.484	3238.52
708.672	3295.86
708.86	3437.17
709.048	3332.73
709.236	3320.44
709.424	3326.58
709.612	3408.5
709.8	3330.68
709.988	3445.37
710.176	3281.53
710.364	3185.27
710.551	3392.12
710.739	3279.48
710.927	3326.58
711.115	3345.02
711.303	3459.7
711.491	3207.8
711.679	3283.58
711.866	3320.44
712.054	3283.58
712.242	3338.87
712.43	3287.67
712.617	3308.15
712.805	3474.04
712.993	3414.65
713.181	3361.4
713.368	3310.2
713.556	3269.24
713.744	3158.65
713.931	3428.98
714.119	3345.02
714.306	3297.91
714.494	3342.97
714.682	3351.16
714.869	3211.9
715.057	3318.39
715.244	3246.71
715.432	3394.17
715.619	3361.4
715.807	3322.49
715.994	3326.58
716.182	3400.31
716.369	3467.89
716.556	3316.34
716.744	3334.78
716.931	3293.82
717.119	3410.55
717.306	3304.06
717.493	3322.49
717.681	3369.59
717.868	3334.78
718.055	3244.67
718.242	3299.96
718.43	3371.64
718.617	3261.05
718.804	3302.01
718.991	3338.87
719.179	3304.06
719.366	3308.15
719.553	3420.79
719.74	3437.17
719.927	3371.64
720.114	3431.03
720.301	3347.06
720.488	3353.21
720.676	3234.43
720.863	3332.73
721.05	3431.03
721.237	3279.48
721.424	3441.27
721.611	3338.87
721.798	3285.62
721.985	3398.26
722.172	3279.48
722.358	3244.67
722.545	3367.54
722.732	3304.06
722.919	3338.87
723.106	3191.42
723.293	3314.3
723.48	3289.72
723.667	3379.83
723.853	3314.3
724.04	3336.82
724.227	3302.01
724.414	3318.39
724.6	3265.14
724.787	3388.02
724.974	3308.15
725.161	3197.56
725.347	3330.68
725.534	3353.21
725.72	3379.83
725.907	3320.44
726.094	3246.71
726.28	3246.71
726.467	3322.49
726.653	3426.93
726.84	3244.67
727.027	3259
727.213	3121.79
727.4	3181.18
727.586	3383.93
727.773	3310.2
727.959	3199.61
728.145	3295.86
728.332	3148.41
728.518	3281.53
728.705	3234.43
728.891	3199.61
729.077	3281.53
729.264	3244.67
729.45	3334.78
729.636	3379.83
729.823	3218.04
730.009	3242.62
730.195	3197.56
730.382	3228.28
730.568	3236.47
730.754	3259
730.94	3183.23
731.126	3289.72
731.313	3177.08
731.499	3254.9
731.685	3207.8
731.871	3156.6
732.057	3160.7
732.243	3207.8
732.429	3148.41
732.615	3207.8
732.801	3132.03
732.987	3132.03
733.173	3183.23
733.359	3203.71
733.545	3179.13
733.731	3117.69
733.917	3142.27
734.103	3201.66
734.289	3234.43
734.475	3150.46
734.661	3275.38
734.847	3248.76
735.033	3123.84
735.219	3193.47
735.404	3150.46
735.59	3287.67
735.776	3023.48
735.962	2984.57
736.148	3181.18
736.333	3064.44
736.519	3066.49
736.705	3181.18
736.89	3105.4
737.076	3097.21
737.262	2994.81
737.447	3134.07
737.633	2994.81
737.819	3050.11
738.004	3148.41
738.19	2992.77
738.375	3056.25
738.561	3064.44
738.747	3113.6
738.932	2974.33
739.118	3060.35
739.303	2964.09
739.489	2978.43
739.674	2992.77
739.859	2863.74
740.045	3007.1
740.23	2988.67
740.416	2949.76
740.601	2951.81
740.786	2949.76
740.972	2867.84
741.157	2994.81
741.342	2869.89
741.528	2839.17
741.713	2843.26
741.898	2865.79
742.084	2906.75
742.269	2953.85
742.454	2865.79
742.639	2937.47
742.824	2871.93
743.01	2751.1
743.195	2839.17
743.38	2816.64
743.565	2830.98
743.75	2773.63
743.935	2699.91
744.12	2808.45
744.305	2785.92
744.49	2765.44
744.675	2697.86
744.86	2642.56
745.045	2654.85
745.23	2574.98
745.415	2564.74
745.6	2632.32
745.785	2574.98
745.97	2693.76
746.155	2583.17
746.34	2603.65
746.525	2495.11
746.71	2462.34
746.895	2427.53
747.079	2450.05
747.264	2443.91
747.449	2597.51
747.634	2372.23
747.819	2484.87
748.003	2361.99
748.188	2536.07
748.373	2372.23
748.557	2339.46
748.742	2290.31
748.927	2386.57
749.111	2296.46
749.296	2302.6
749.481	2345.61
749.665	2370.18
749.85	2290.31
750.034	2335.37
750.219	2179.72
750.404	2163.34
750.588	2194.06
750.773	2136.71
750.957	2095.75
751.141	2208.39
751.326	2099.85
751.51	2151.05
751.695	2046.6
751.879	2175.63
752.064	2110.09
752.248	2050.7
752.432	2062.99
752.617	2007.69
752.801	2052.75
752.985	2069.13
753.17	1950.35
753.354	1991.31
753.538	1991.31
753.722	1915.53
753.907	1897.1
754.091	1905.29
754.275	1866.38
754.459	1911.44
754.643	1837.71
754.828	1905.29
755.012	1958.54
755.196	1921.68
755.38	1827.47
755.564	1766.03
755.748	1796.75
755.932	1882.77
756.116	1792.66
756.3	1745.55
756.484	1806.99
756.668	1688.21
756.852	1604.24
757.036	1677.97
757.22	1655.44
757.404	1643.15
757.588	1712.78
757.772	1725.07
757.956	1653.39
758.14	1690.26
758.323	1596.05
758.507	1620.63
758.691	1581.71
758.875	1585.81
759.059	1614.48
759.242	1632.91
759.426	1594
759.61	1553.04
759.794	1542.8
759.977	1495.7
760.161	1518.23
760.345	1559.19
760.528	1534.61
760.712	1407.64
760.895	1360.53
761.079	1424.02
761.263	1387.16
761.446	1376.92
761.63	1399.45
761.813	1303.19
761.997	1464.98
762.18	1405.59
762.364	1424.02
762.547	1446.55
762.731	1403.54
762.914	1481.36
763.098	1362.58
763.281	1385.11
763.464	1313.43
763.648	1258.14
763.831	1247.9
764.015	1313.43
764.198	1284.76
764.381	1313.43
764.564	1374.87
764.748	1348.25
764.931	1270.42
765.114	1290.9
765.297	1391.25
765.481	1362.58
765.664	1378.97
765.847	1233.56
766.03	1225.37
766.213	1297.05
766.397	1270.42
766.58	1221.27
766.763	1313.43
766.946	1221.27
767.129	1190.55
767.312	1161.88
767.495	1178.26
767.678	1290.9
767.861	1241.75
768.044	1147.55
768.227	1178.26
768.41	1235.61
768.593	1268.38
768.776	1110.68
768.959	1125.02
769.142	1133.21
769.324	1112.73
769.507	1145.5
769.69	1110.68
769.873	1172.12
770.056	1102.49
770.239	1184.41
770.421	1147.55
770.604	1139.35
770.787	1004.19
770.97	1057.43
771.152	1043.1
771.335	1102.49
771.518	1016.48
771.7	1034.91
771.883	1073.82
772.066	1086.11
772.248	1024.67
772.431	1102.49
772.613	1061.53
772.796	1063.58
772.978	975.52
773.161	977.56
773.343	1008.28
773.526	926.36
773.708	940.7
773.891	905.88
774.073	996
774.256	955.04
774.438	1010.33
774.621	991.9
774.803	903.84
774.985	879.26
775.168	975.52
775.35	881.31
775.532	975.52
775.715	959.13
775.897	909.98
776.079	856.73
776.261	852.64
776.444	860.83
776.626	889.5
776.808	842.4
776.99	756.38
777.173	848.54
777.355	819.87
777.537	815.77
777.719	836.25
777.901	834.21
778.083	768.67
778.265	742.05
778.447	955.04
778.629	791.2
778.811	801.44
778.993	778.91
779.175	817.82
779.357	758.43
779.539	766.62
779.721	754.34
779.903	772.77
780.085	768.67
780.267	750.24
780.449	774.81
780.631	692.9
780.812	725.66
780.994	672.42
781.176	731.81
781.358	740
781.54	647.84
781.721	707.23
781.903	666.27
782.085	709.28
782.267	643.74
782.448	610.98
782.63	672.42
782.812	645.79
782.993	711.33
783.175	625.31
783.357	606.88
783.538	594.59
783.72	551.59
783.901	617.12
784.083	537.25
784.264	615.07
784.446	549.54
784.627	553.63
784.809	547.49
784.99	606.88
785.172	565.92
785.353	588.45
785.535	656.03
785.716	561.83
785.897	598.69
786.079	588.45
786.26	545.44
786.441	518.82
786.623	529.06
786.804	475.81
786.985	512.67
787.167	576.16
787.348	541.35
787.529	488.1
787.71	529.06
787.891	535.2
788.073	537.25
788.254	381.6
788.435	500.39
788.616	574.11
788.797	531.11
788.978	490.15
789.159	451.24
789.34	471.72
789.522	455.33
789.703	391.84
789.884	412.32
790.065	430.76
790.246	422.56
790.427	467.62
790.607	488.1
790.788	488.1
790.969	414.37
791.15	496.29
791.331	410.28
791.512	428.71
791.693	381.6
791.874	389.8
792.054	502.44
792.235	471.72
792.416	426.66
792.597	422.56
792.778	539.3
792.958	402.08
793.139	344.74
793.32	354.98
793.5	338.6
793.681	342.69
793.862	453.28
794.042	365.22
794.223	322.21
794.404	373.41
794.584	311.97
794.765	352.93
794.945	350.89
795.126	393.89
795.306	422.56
795.487	377.51
795.667	377.51
795.848	307.88
796.028	346.79
796.209	357.03
796.389	322.21
796.57	400.04
796.75	389.8
796.93	354.98
797.111	322.21
797.291	387.75
797.471	377.51
797.652	367.27
797.832	311.97
798.012	379.56
798.192	373.41
798.373	424.61
798.553	352.93
798.733	348.84
798.913	264.87
799.093	404.13
799.274	363.17
799.454	352.93
799.634	266.92
799.814	281.25
799.994	361.13
800.174	320.17
800.354	314.02
800.534	303.78
800.714	301.73
800.894	344.74
801.074	314.02
801.254	252.58
801.434	303.78
801.614	287.4
801.794	271.01
801.974	750.24
802.154	234.15
802.334	318.12
802.514	316.07
802.693	334.5
802.873	240.3
803.053	264.87
803.233	225.96
803.413	373.41
803.592	277.16
803.772	195.24
803.952	336.55
804.131	316.07
804.311	271.01
804.491	314.02
804.67	223.91
804.85	289.45
805.03	342.69
805.209	262.82
805.389	307.88
805.568	250.53
805.748	185
805.928	234.15
806.107	287.4
806.287	299.69
806.466	273.06
806.646	199.34
806.825	256.68
807.004	234.15
807.184	262.82
807.363	248.49
807.543	215.72
807.722	205.48
807.901	211.62
808.081	332.45
808.26	178.86
808.439	256.68
808.619	195.24
808.798	266.92
808.977	250.53
809.156	238.25
809.336	197.29
809.515	144.04
809.694	242.34
809.873	211.62
810.052	217.77
810.231	217.77
810.411	225.96
810.59	248.49
810.769	275.11
810.948	193.19
811.127	262.82
811.306	197.29
811.485	205.48
811.664	283.3
811.843	299.69
812.022	258.73
812.201	228.01
812.38	230.06
812.559	137.9
812.737	205.48
812.916	232.1
813.095	121.51
813.274	215.72
813.453	221.86
813.632	150.18
813.811	199.34
813.989	98.99
814.168	172.71
814.347	174.76
814.526	170.66
814.704	193.19
814.883	213.67
815.062	185
815.24	152.23
815.419	152.23
815.598	201.38
815.776	109.23
815.955	135.85
816.133	154.28
816.312	234.15
816.49	158.38
816.669	154.28
816.847	205.48
817.026	162.47
817.204	78.51
817.383	160.42
817.561	123.56
817.74	139.94
817.918	144.04
818.097	168.62
818.275	158.38
818.453	203.43
818.632	185
818.81	176.81
818.988	160.42
819.167	156.33
819.345	111.27
819.523	178.86
819.701	174.76
819.879	154.28
820.058	168.62
820.236	121.51
820.414	129.7
820.592	191.14
820.77	152.23
820.948	168.62
821.127	74.41
821.305	234.15
821.483	150.18
821.661	117.42
821.839	144.04
822.017	209.58
822.195	158.38
822.373	187.05
822.551	86.7
822.729	160.42
822.907	141.99
823.085	117.42
823.262	111.27
823.44	154.28
823.618	111.27
823.796	203.43
823.974	160.42
824.152	156.33
824.329	156.33
824.507	162.47
824.685	148.14
824.863	103.08
825.04	144.04
825.218	137.9
825.396	113.32
825.574	156.33
825.751	174.76
825.929	180.9
826.107	131.75
826.284	133.8
826.462	113.32
826.639	185
826.817	144.04
826.994	117.42
827.172	47.79
827.349	168.62
827.527	115.37
827.704	72.36
827.882	115.37
828.059	86.7
828.237	62.12
828.414	107.18
828.591	37.55
828.769	115.37
828.946	53.93
829.124	148.14
829.301	189.1
829.478	49.83
829.655	158.38
829.833	160.42
830.01	86.7
830.187	160.42
830.364	170.66
830.542	152.23
830.719	123.56
830.896	180.9
831.073	117.42
831.25	62.12
831.427	127.66
831.604	94.89
831.782	125.61
831.959	131.75
832.136	109.23
832.313	84.65
832.49	-3.41
832.667	62.12
832.844	23.21
833.021	37.55
833.198	107.18
833.374	152.23
833.551	129.7
833.728	84.65
833.905	74.41
834.082	33.45
834.259	164.52
834.436	146.09
834.612	101.03
834.789	92.84
834.966	58.03
835.143	86.7
835.319	82.6
835.496	131.75
835.673	94.89
835.85	111.27
836.026	123.56
836.203	53.93
836.38	62.12
836.556	119.46
836.733	60.07
836.909	133.8
837.086	-3.41
837.262	125.61
837.439	45.74
837.616	92.84
837.792	31.4
837.968	21.16
838.145	78.51
838.321	43.69
838.498	33.45
838.674	27.31
838.851	21.16
839.027	98.99
839.203	109.23
839.38	68.27
839.556	21.16
839.732	139.94
839.909	78.51
840.085	21.16
840.261	55.98
840.437	109.23
840.614	45.74
840.79	107.18
840.966	152.23
841.142	76.46
841.318	103.08
841.494	64.17
841.671	111.27
841.847	92.84
842.023	53.93
842.199	103.08
842.375	107.18
842.551	25.26
842.727	-1.37
842.903	139.94
843.079	80.55
843.255	107.18
843.431	68.27
843.607	70.31
843.783	4.78
843.959	60.07
844.134	12.97
844.31	23.21
844.486	8.87
844.662	88.75
844.838	39.59
845.013	43.69
845.189	37.55
845.365	39.59
845.541	66.22
845.716	90.79
845.892	70.31
846.068	31.4
846.244	68.27
846.419	80.55
846.595	-30.04
846.77	25.26
846.946	43.69
847.122	10.92
847.297	-46.42
847.473	58.03
847.648	25.26
847.824	15.02
847.999	66.22
848.175	64.17
848.35	55.98
848.526	29.35
848.701	88.75
848.876	62.12
849.052	78.51
849.227	70.31
849.403	84.65
849.578	29.35
849.753	49.83
849.929	84.65
850.104	17.07
850.279	74.41
850.454	76.46
850.63	15.02
850.805	94.89
850.98	10.92
851.155	121.51
851.33	119.46
851.505	-9.56
851.681	76.46
851.856	115.37
852.031	45.74
852.206	-40.28
852.381	19.11
852.556	39.59
852.731	4.78
852.906	62.12
853.081	39.59
853.256	51.88
853.431	80.55
853.606	74.41
853.781	25.26
853.956	45.74
854.131	45.74
854.305	76.46
854.48	12.97
854.655	49.83
854.83	25.26
855.005	6.83
855.18	70.31
855.354	-56.66
855.529	6.83
855.704	62.12
855.879	4.78
856.053	-36.18
856.228	-15.7
856.403	-19.8
856.577	-15.7
856.752	27.31
856.926	21.16
857.101	15.02
857.276	47.79
857.45	37.55
857.625	66.22
857.799	74.41
857.974	45.74
858.148	-34.13
858.323	19.11
858.497	58.03
858.672	88.75
858.846	10.92
859.02	55.98
859.195	-23.89
859.369	35.5
859.543	6.83
859.718	27.31
859.892	-7.51
860.066	8.87
860.241	-36.18
860.415	-5.46
860.589	74.41
860.763	35.5
860.938	-13.65
861.112	35.5
861.286	-17.75
861.46	37.55
861.634	19.11
861.808	45.74
861.982	-15.7
862.157	23.21
862.331	2.73
862.505	-11.61
862.679	-42.32
862.853	31.4
863.027	-5.46
863.201	62.12
863.375	29.35
863.549	47.79
863.722	74.41
863.896	6.83
864.07	94.89
864.244	82.6
864.418	25.26
864.592	94.89
864.766	4.78
864.939	8.87
865.113	25.26
865.287	-7.51
865.461	-3.41
865.634	47.79
865.808	4.78
865.982	-9.56
866.156	-40.28
866.329	6.83
866.503	43.69
866.676	82.6
866.85	41.64
867.024	0.68
867.197	125.61
867.371	70.31
867.544	33.45
867.718	2.73
867.891	74.41
868.065	-32.08
868.238	60.07
868.412	6.83
868.585	41.64
868.759	-7.51
868.932	37.55
869.105	101.03
869.279	31.4
869.452	17.07
869.625	17.07
869.799	17.07
869.972	2.73
870.145	-27.99
870.319	72.36
870.492	4.78
870.665	-15.7
870.838	-21.84
871.011	8.87
871.185	66.22
871.358	39.59
871.531	47.79
871.704	45.74
871.877	-7.51
872.05	-23.89
872.223	-50.52
872.396	41.64
872.569	33.45
872.742	6.83
872.915	23.21
873.088	-7.51
873.261	-34.13
873.434	-42.32
873.607	25.26
873.78	-3.41
873.953	49.83
874.126	-21.84
874.299	10.92
874.471	-21.84
874.644	-7.51
874.817	98.99
874.99	84.65
875.163	-32.08
875.335	8.87
875.508	51.88
875.681	-13.65
875.853	19.11
876.026	84.65
876.199	43.69
876.371	49.83
876.544	27.31
876.717	33.45
876.889	45.74
877.062	-13.65
877.234	25.26
877.407	33.45
877.579	0.68
877.752	62.12
877.924	-21.84
878.097	53.93
878.269	62.12
878.442	84.65
878.614	-27.99
878.786	43.69
878.959	31.4
879.131	84.65
879.303	6.83
879.476	74.41
879.648	49.83
879.82	78.51
879.993	12.97
880.165	-7.51
880.337	4.78
880.509	33.45
880.681	10.92
880.854	-62.8
881.026	23.21
881.198	78.51
881.37	-25.94
881.542	10.92
881.714	-50.52
881.886	66.22
882.058	19.11
882.23	-3.41
882.402	19.11
882.574	-36.18
882.746	51.88
882.918	35.5
883.09	12.97
883.262	-38.23
883.434	6.83
883.606	39.59
883.778	-66.9
883.95	15.02
884.122	27.31
884.293	15.02
884.465	-71
884.637	-42.32
884.809	-73.04
884.98	37.55
885.152	41.64
885.324	0.68
885.496	-40.28
885.667	-54.61
885.839	-25.94
886.011	103.08
886.182	60.07
886.354	43.69
886.525	-3.41
886.697	-64.85
886.869	-21.84
887.04	33.45
887.212	-1.37
887.383	19.11
887.555	0.68
887.726	23.21
887.897	27.31
888.069	129.7
888.24	-73.04
888.412	55.98
888.583	-19.8
888.754	-15.7
888.926	-75.09
889.097	-15.7
889.268	-5.46
889.44	8.87
889.611	29.35
889.782	-32.08
889.953	-62.8
890.125	-25.94
890.296	19.11
890.467	2.73
890.638	-64.85
890.809	35.5
890.98	-52.56
891.151	-36.18
891.323	33.45
891.494	-27.99
891.665	53.93
891.836	19.11
892.007	10.92
892.178	25.26
892.349	-11.61
892.52	-32.08
892.691	8.87
892.862	4.78
893.032	-40.28
893.203	29.35
893.374	17.07
893.545	49.83
893.716	45.74
893.887	-13.65
894.057	-40.28
894.228	23.21
894.399	33.45
894.57	2.73
894.74	62.12
894.911	-77.14
895.082	37.55
895.253	-64.85
895.423	15.02
895.594	39.59
895.764	-17.75
895.935	-13.65
896.106	27.31
896.276	-17.75
896.447	8.87
896.617	-40.28
896.788	2.73
896.958	37.55
897.129	-1.37
897.299	-3.41
897.47	58.03
897.64	27.31
897.81	35.5
897.981	25.26
898.151	21.16
898.322	-7.51
898.492	10.92
898.662	-23.89
898.832	-36.18
899.003	-9.56
899.173	17.07
899.343	41.64
899.513	-62.8
