Data from USB4F104151__261__10-39-54-147.txt Node

Date: Wed Mar 12 10:39:54 EDT 2025
User: louis
Spectrometer: USB4F10415
Trigger mode: 4
Integration Time (sec): 3.000000E-2
Scans to average: 1
Electric dark correction enabled: true
Nonlinearity correction enabled: false
Boxcar width: 0
XAxis mode: Wavelengths
Number of Pixels in Spectrum: 3648
>>>>>Begin Spectral Data<<<<<
178.204	-175.44
178.424	-175.44
178.644	-175.44
178.864	-206.16
179.084	-130.39
179.304	31.4
179.524	-25.94
179.744	-19.8
179.964	0.68
180.184	-5.46
180.404	27.31
180.624	10.92
180.844	41.64
181.064	-60.76
181.283	15.02
181.503	-15.7
181.723	0.68
181.943	2.73
182.163	37.55
182.383	-66.9
182.602	45.74
182.822	-27.99
183.042	25.26
183.262	25.26
183.482	23.21
183.701	74.41
183.921	21.16
184.141	4.78
184.361	66.22
184.58	45.74
184.8	49.83
185.02	19.11
185.239	62.12
185.459	78.51
185.679	12.97
185.898	25.26
186.118	68.27
186.338	23.21
186.557	78.51
186.777	41.64
186.997	21.16
187.216	15.02
187.436	35.5
187.655	60.07
187.875	90.79
188.095	70.31
188.314	72.36
188.534	74.41
188.753	90.79
188.973	92.84
189.192	98.99
189.412	-11.61
189.631	25.26
189.851	25.26
190.07	37.55
190.29	39.59
190.509	-32.08
190.729	0.68
190.948	72.36
191.168	131.75
191.387	45.74
191.607	-21.84
191.826	105.13
192.045	60.07
192.265	78.51
192.484	60.07
192.704	21.16
192.923	23.21
193.142	41.64
193.362	105.13
193.581	41.64
193.8	45.74
194.02	64.17
194.239	49.83
194.458	8.87
194.678	19.11
194.897	45.74
195.116	-3.41
195.335	88.75
195.555	125.61
195.774	21.16
195.993	111.27
196.212	-5.46
196.432	62.12
196.651	21.16
196.87	10.92
197.089	150.18
197.308	49.83
197.528	82.6
197.747	25.26
197.966	19.11
198.185	133.8
198.404	-15.7
198.623	-9.56
198.842	25.26
199.062	45.74
199.281	88.75
199.5	60.07
199.719	58.03
199.938	74.41
200.157	115.37
200.376	6.83
200.595	37.55
200.814	-15.7
201.033	-7.51
201.252	113.32
201.471	37.55
201.69	62.12
201.909	82.6
202.128	121.51
202.347	66.22
202.566	51.88
202.785	12.97
203.004	-36.18
203.223	125.61
203.442	53.93
203.661	-34.13
203.879	68.27
204.098	58.03
204.317	74.41
204.536	84.65
204.755	37.55
204.974	15.02
205.193	41.64
205.411	101.03
205.63	72.36
205.849	39.59
206.068	4.78
206.287	33.45
206.505	88.75
206.724	129.7
206.943	-11.61
207.162	12.97
207.381	90.79
207.599	19.11
207.818	29.35
208.037	78.51
208.255	49.83
208.474	17.07
208.693	23.21
208.911	55.98
209.13	43.69
209.349	49.83
209.567	58.03
209.786	53.93
210.005	43.69
210.223	37.55
210.442	21.16
210.661	-23.89
210.879	12.97
211.098	33.45
211.316	111.27
211.535	66.22
211.753	33.45
211.972	15.02
212.191	25.26
212.409	17.07
212.628	76.46
212.846	6.83
213.065	0.68
213.283	113.32
213.502	8.87
213.72	45.74
213.938	-15.7
214.157	29.35
214.375	47.79
214.594	45.74
214.812	4.78
215.031	8.87
215.249	-15.7
215.467	15.02
215.686	68.27
215.904	51.88
216.122	4.78
216.341	25.26
216.559	45.74
216.778	80.55
216.996	25.26
217.214	-3.41
217.432	86.7
217.651	4.78
217.869	17.07
218.087	90.79
218.306	25.26
218.524	45.74
218.742	-23.89
218.96	25.26
219.179	6.83
219.397	62.12
219.615	25.26
219.833	82.6
220.051	55.98
220.27	109.23
220.488	-7.51
220.706	-44.37
220.924	10.92
221.142	-48.47
221.36	19.11
221.578	58.03
221.796	8.87
222.015	21.16
222.233	84.65
222.451	154.28
222.669	62.12
222.887	6.83
223.105	-11.61
223.323	33.45
223.541	12.97
223.759	31.4
223.977	4.78
224.195	96.94
224.413	113.32
224.631	17.07
224.849	72.36
225.067	107.18
225.285	8.87
225.503	-19.8
225.721	0.68
225.939	72.36
226.157	70.31
226.375	144.04
226.592	12.97
226.81	-50.52
227.028	21.16
227.246	60.07
227.464	60.07
227.682	82.6
227.9	17.07
228.117	47.79
228.335	64.17
228.553	29.35
228.771	4.78
228.989	10.92
229.206	35.5
229.424	66.22
229.642	49.83
229.86	-64.85
230.077	127.66
230.295	66.22
230.513	58.03
230.731	41.64
230.948	84.65
231.166	105.13
231.384	47.79
231.601	-48.47
231.819	37.55
232.037	-15.7
232.254	-48.47
232.472	74.41
232.689	-3.41
232.907	68.27
233.125	51.88
233.342	45.74
233.56	12.97
233.777	4.78
233.995	58.03
234.213	27.31
234.43	2.73
234.648	76.46
234.865	21.16
235.083	123.56
235.3	62.12
235.518	2.73
235.735	41.64
235.953	137.9
236.17	8.87
236.388	4.78
236.605	66.22
236.822	39.59
237.04	115.37
237.257	-1.37
237.475	-15.7
237.692	64.17
237.909	88.75
238.127	-15.7
238.344	47.79
238.562	90.79
238.779	33.45
238.996	51.88
239.214	-62.8
239.431	43.69
239.648	-7.51
239.865	66.22
240.083	17.07
240.3	103.08
240.517	-3.41
240.735	66.22
240.952	70.31
241.169	62.12
241.386	58.03
241.603	8.87
241.821	64.17
242.038	98.99
242.255	94.89
242.472	37.55
242.689	58.03
242.907	25.26
243.124	0.68
243.341	37.55
243.558	23.21
243.775	76.46
243.992	-3.41
244.209	33.45
244.426	62.12
244.643	66.22
244.86	17.07
245.078	51.88
245.295	21.16
245.512	12.97
245.729	107.18
245.946	-13.65
246.163	39.59
246.38	29.35
246.597	66.22
246.814	17.07
247.031	-5.46
247.248	49.83
247.464	27.31
247.681	10.92
247.898	25.26
248.115	119.46
248.332	-34.13
248.549	96.94
248.766	17.07
248.983	0.68
249.2	27.31
249.417	19.11
249.633	12.97
249.85	23.21
250.067	76.46
250.284	4.78
250.501	80.55
250.717	107.18
250.934	37.55
251.151	86.7
251.368	55.98
251.585	64.17
251.801	119.46
252.018	-34.13
252.235	31.4
252.451	35.5
252.668	101.03
252.885	70.31
253.102	25.26
253.318	64.17
253.535	66.22
253.752	-23.89
253.968	29.35
254.185	19.11
254.401	55.98
254.618	-32.08
254.835	8.87
255.051	0.68
255.268	2.73
255.484	43.69
255.701	41.64
255.917	51.88
256.134	-27.99
256.351	55.98
256.567	49.83
256.784	31.4
257	31.4
257.217	64.17
257.433	51.88
257.65	-27.99
257.866	60.07
258.082	35.5
258.299	21.16
258.515	107.18
258.732	-85.33
258.948	-27.99
259.165	80.55
259.381	-7.51
259.597	41.64
259.814	6.83
260.03	62.12
260.246	0.68
260.463	107.18
260.679	70.31
260.895	6.83
261.112	113.32
261.328	25.26
261.544	8.87
261.761	111.27
261.977	78.51
262.193	-36.18
262.409	55.98
262.626	64.17
262.842	29.35
263.058	55.98
263.274	25.26
263.49	80.55
263.707	62.12
263.923	76.46
264.139	31.4
264.355	-3.41
264.571	43.69
264.787	45.74
265.004	8.87
265.22	27.31
265.436	35.5
265.652	47.79
265.868	76.46
266.084	60.07
266.3	84.65
266.516	-15.7
266.732	-30.04
266.948	60.07
267.164	70.31
267.38	105.13
267.596	55.98
267.812	66.22
268.028	21.16
268.244	82.6
268.46	49.83
268.676	39.59
268.892	70.31
269.108	-9.56
269.324	60.07
269.54	-15.7
269.756	72.36
269.972	-11.61
270.188	37.55
270.403	-48.47
270.619	121.51
270.835	-5.46
271.051	78.51
271.267	31.4
271.483	74.41
271.698	31.4
271.914	-15.7
272.13	49.83
272.346	0.68
272.562	23.21
272.777	70.31
272.993	-23.89
273.209	6.83
273.425	64.17
273.64	12.97
273.856	49.83
274.072	74.41
274.287	17.07
274.503	72.36
274.719	76.46
274.934	117.42
275.15	35.5
275.366	113.32
275.581	25.26
275.797	41.64
276.012	62.12
276.228	10.92
276.444	58.03
276.659	178.86
276.875	70.31
277.09	66.22
277.306	41.64
277.521	117.42
277.737	60.07
277.952	29.35
278.168	113.32
278.383	49.83
278.599	33.45
278.814	86.7
279.03	37.55
279.245	37.55
279.461	17.07
279.676	80.55
279.892	-5.46
280.107	25.26
280.322	35.5
280.538	123.56
280.753	-1.37
280.969	72.36
281.184	6.83
281.399	137.9
281.615	98.99
281.83	105.13
282.045	92.84
282.26	74.41
282.476	39.59
282.691	43.69
282.906	90.79
283.122	105.13
283.337	60.07
283.552	23.21
283.767	58.03
283.983	88.75
284.198	25.26
284.413	82.6
284.628	-34.13
284.843	64.17
285.058	-3.41
285.274	-9.56
285.489	10.92
285.704	125.61
285.919	94.89
286.134	37.55
286.349	78.51
286.564	31.4
286.779	82.6
286.995	53.93
287.21	-52.56
287.425	58.03
287.64	45.74
287.855	64.17
288.07	4.78
288.285	92.84
288.5	98.99
288.715	35.5
288.93	117.42
289.145	-19.8
289.36	105.13
289.575	43.69
289.79	72.36
290.004	33.45
290.219	96.94
290.434	58.03
290.649	78.51
290.864	58.03
291.079	47.79
291.294	12.97
291.509	0.68
291.724	70.31
291.938	43.69
292.153	49.83
292.368	0.68
292.583	64.17
292.798	166.57
293.012	39.59
293.227	29.35
293.442	88.75
293.657	6.83
293.871	82.6
294.086	-15.7
294.301	66.22
294.516	117.42
294.73	17.07
294.945	55.98
295.16	49.83
295.374	6.83
295.589	78.51
295.804	94.89
296.018	49.83
296.233	68.27
296.447	101.03
296.662	-15.7
296.877	25.26
297.091	-40.28
297.306	60.07
297.52	49.83
297.735	103.08
297.949	41.64
298.164	-3.41
298.378	17.07
298.593	39.59
298.807	66.22
299.022	41.64
299.236	86.7
299.451	66.22
299.665	98.99
299.88	58.03
300.094	41.64
300.309	-17.75
300.523	58.03
300.737	-5.46
300.952	2.73
301.166	133.8
301.381	49.83
301.595	58.03
301.809	37.55
302.024	37.55
302.238	98.99
302.452	70.31
302.667	47.79
302.881	74.41
303.095	76.46
303.309	17.07
303.524	88.75
303.738	103.08
303.952	49.83
304.166	98.99
304.381	53.93
304.595	119.46
304.809	4.78
305.023	-32.08
305.237	0.68
305.452	76.46
305.666	53.93
305.88	51.88
306.094	12.97
306.308	15.02
306.522	76.46
306.736	80.55
306.95	103.08
307.164	78.51
307.379	53.93
307.593	133.8
307.807	17.07
308.021	131.75
308.235	94.89
308.449	70.31
308.663	29.35
308.877	78.51
309.091	111.27
309.305	66.22
309.519	8.87
309.733	76.46
309.947	10.92
310.161	103.08
310.374	0.68
310.588	90.79
310.802	82.6
311.016	10.92
311.23	23.21
311.444	6.83
311.658	49.83
311.872	96.94
312.085	105.13
312.299	74.41
312.513	137.9
312.727	70.31
312.941	55.98
313.154	66.22
313.368	115.37
313.582	4.78
313.796	17.07
314.009	74.41
314.223	115.37
314.437	60.07
314.651	64.17
314.864	51.88
315.078	62.12
315.292	53.93
315.505	31.4
315.719	43.69
315.933	2.73
316.146	8.87
316.36	-23.89
316.573	53.93
316.787	88.75
317.001	72.36
317.214	37.55
317.428	107.18
317.641	-19.8
317.855	17.07
318.068	82.6
318.282	109.23
318.495	123.56
318.709	127.66
318.922	45.74
319.136	64.17
319.349	84.65
319.563	31.4
319.776	76.46
319.99	35.5
320.203	51.88
320.417	84.65
320.63	74.41
320.843	68.27
321.057	74.41
321.27	27.31
321.483	117.42
321.697	19.11
321.91	127.66
322.124	144.04
322.337	74.41
322.55	70.31
322.763	39.59
322.977	39.59
323.19	58.03
323.403	66.22
323.617	64.17
323.83	92.84
324.043	78.51
324.256	60.07
324.469	105.13
324.683	82.6
324.896	41.64
325.109	0.68
325.322	39.59
325.535	39.59
325.748	74.41
325.962	49.83
326.175	66.22
326.388	27.31
326.601	62.12
326.814	47.79
327.027	-17.75
327.24	103.08
327.453	62.12
327.666	103.08
327.879	47.79
328.092	139.94
328.305	33.45
328.518	92.84
328.731	84.65
328.944	45.74
329.157	78.51
329.37	47.79
329.583	135.85
329.796	47.79
330.009	-21.84
330.222	139.94
330.435	178.86
330.648	90.79
330.861	58.03
331.073	29.35
331.286	66.22
331.499	53.93
331.712	4.78
331.925	55.98
332.138	41.64
332.35	98.99
332.563	-40.28
332.776	111.27
332.989	27.31
333.202	27.31
333.414	80.55
333.627	4.78
333.84	10.92
334.053	37.55
334.265	37.55
334.478	6.83
334.691	113.32
334.903	68.27
335.116	101.03
335.329	74.41
335.541	76.46
335.754	84.65
335.966	66.22
336.179	72.36
336.392	15.02
336.604	101.03
336.817	74.41
337.029	115.37
337.242	19.11
337.454	39.59
337.667	64.17
337.88	90.79
338.092	37.55
338.305	123.56
338.517	35.5
338.729	150.18
338.942	129.7
339.154	98.99
339.367	12.97
339.579	127.66
339.792	86.7
340.004	92.84
340.217	23.21
340.429	78.51
340.641	35.5
340.854	29.35
341.066	45.74
341.278	41.64
341.491	92.84
341.703	58.03
341.915	35.5
342.128	62.12
342.34	98.99
342.552	70.31
342.764	53.93
342.977	70.31
343.189	45.74
343.401	86.7
343.613	17.07
343.826	-1.37
344.038	74.41
344.25	94.89
344.462	115.37
344.674	68.27
344.886	19.11
345.099	41.64
345.311	23.21
345.523	19.11
345.735	17.07
345.947	80.55
346.159	15.02
346.371	158.38
346.583	62.12
346.795	103.08
347.007	53.93
347.219	78.51
347.431	27.31
347.643	127.66
347.855	51.88
348.067	135.85
348.279	-3.41
348.491	41.64
348.703	23.21
348.915	82.6
349.127	72.36
349.339	76.46
349.551	55.98
349.763	55.98
349.975	101.03
350.187	96.94
350.399	72.36
350.61	-25.94
350.822	64.17
351.034	51.88
351.246	76.46
351.458	66.22
351.669	115.37
351.881	119.46
352.093	98.99
352.305	125.61
352.517	53.93
352.728	70.31
352.94	94.89
353.152	96.94
353.363	21.16
353.575	90.79
353.787	113.32
353.999	107.18
354.21	166.57
354.422	96.94
354.633	51.88
354.845	53.93
355.057	6.83
355.268	78.51
355.48	47.79
355.692	31.4
355.903	168.62
356.115	25.26
356.326	45.74
356.538	96.94
356.749	39.59
356.961	49.83
357.172	127.66
357.384	74.41
357.595	94.89
357.807	64.17
358.018	33.45
358.23	53.93
358.441	78.51
358.653	10.92
358.864	41.64
359.075	12.97
359.287	51.88
359.498	117.42
359.709	51.88
359.921	17.07
360.132	84.65
360.344	31.4
360.555	62.12
360.766	-11.61
360.977	115.37
361.189	139.94
361.4	23.21
361.611	125.61
361.823	137.9
362.034	70.31
362.245	82.6
362.456	8.87
362.667	101.03
362.879	72.36
363.09	19.11
363.301	17.07
363.512	33.45
363.723	45.74
363.935	84.65
364.146	162.47
364.357	55.98
364.568	58.03
364.779	35.5
364.99	23.21
365.201	101.03
365.412	127.66
365.623	33.45
365.834	45.74
366.045	12.97
366.256	64.17
366.467	92.84
366.678	68.27
366.889	78.51
367.1	109.23
367.311	84.65
367.522	96.94
367.733	47.79
367.944	19.11
368.155	74.41
368.366	92.84
368.577	98.99
368.788	68.27
368.999	47.79
369.209	68.27
369.42	82.6
369.631	178.86
369.842	123.56
370.053	76.46
370.264	139.94
370.474	82.6
370.685	62.12
370.896	78.51
371.107	121.51
371.317	115.37
371.528	66.22
371.739	105.13
371.95	51.88
372.16	76.46
372.371	86.7
372.582	133.8
372.792	94.89
373.003	12.97
373.214	-9.56
373.424	135.85
373.635	53.93
373.846	131.75
374.056	80.55
374.267	47.79
374.477	144.04
374.688	90.79
374.898	139.94
375.109	86.7
375.319	127.66
375.53	123.56
375.74	96.94
375.951	139.94
376.161	51.88
376.372	109.23
376.582	23.21
376.793	119.46
377.003	-9.56
377.214	58.03
377.424	115.37
377.635	144.04
377.845	53.93
378.055	70.31
378.266	105.13
378.476	19.11
378.686	94.89
378.897	70.31
379.107	86.7
379.317	139.94
379.528	115.37
379.738	129.7
379.948	58.03
380.158	35.5
380.369	90.79
380.579	25.26
380.789	39.59
380.999	129.7
381.21	19.11
381.42	117.42
381.63	78.51
381.84	113.32
382.05	92.84
382.261	164.52
382.471	58.03
382.681	86.7
382.891	62.12
383.101	66.22
383.311	21.16
383.521	51.88
383.731	107.18
383.941	58.03
384.151	103.08
384.361	137.9
384.571	15.02
384.781	82.6
384.991	80.55
385.201	119.46
385.411	35.5
385.621	131.75
385.831	39.59
386.041	74.41
386.251	98.99
386.461	131.75
386.671	82.6
386.881	127.66
387.091	62.12
387.301	121.51
387.511	148.14
387.72	92.84
387.93	80.55
388.14	58.03
388.35	127.66
388.56	121.51
388.769	103.08
388.979	158.38
389.189	88.75
389.399	74.41
389.609	164.52
389.818	103.08
390.028	109.23
390.238	53.93
390.447	21.16
390.657	152.23
390.867	86.7
391.076	45.74
391.286	88.75
391.496	98.99
391.705	94.89
391.915	166.57
392.125	64.17
392.334	107.18
392.544	152.23
392.753	111.27
392.963	139.94
393.172	119.46
393.382	55.98
393.591	168.62
393.801	101.03
394.01	209.58
394.22	125.61
394.429	146.09
394.639	78.51
394.848	156.33
395.058	107.18
395.267	123.56
395.477	92.84
395.686	164.52
395.895	164.52
396.105	123.56
396.314	74.41
396.524	86.7
396.733	156.33
396.942	160.42
397.152	154.28
397.361	180.9
397.57	68.27
397.78	35.5
397.989	62.12
398.198	166.57
398.407	172.71
398.617	160.42
398.826	170.66
399.035	76.46
399.244	111.27
399.453	123.56
399.663	211.62
399.872	170.66
400.081	123.56
400.29	119.46
400.499	205.48
400.708	168.62
400.917	148.14
401.127	176.81
401.336	117.42
401.545	195.24
401.754	189.1
401.963	215.72
402.172	176.81
402.381	176.81
402.59	146.09
402.799	164.52
403.008	193.19
403.217	203.43
403.426	281.25
403.635	146.09
403.844	197.29
404.053	182.95
404.262	84.65
404.471	252.58
404.68	246.44
404.888	201.38
405.097	232.1
405.306	211.62
405.515	238.25
405.724	195.24
405.933	242.34
406.142	232.1
406.35	258.73
406.559	193.19
406.768	217.77
406.977	318.12
407.185	336.55
407.394	303.78
407.603	228.01
407.812	318.12
408.02	336.55
408.229	381.6
408.438	326.31
408.646	201.38
408.855	285.35
409.064	365.22
409.272	361.13
409.481	477.86
409.69	361.13
409.898	377.51
410.107	443.04
410.315	477.86
410.524	414.37
410.733	459.43
410.941	365.22
411.15	506.53
411.358	506.53
411.567	533.15
411.775	512.67
411.984	613.03
412.192	625.31
412.401	649.89
412.609	694.94
412.818	557.73
413.026	744.1
413.234	684.7
413.443	672.42
413.651	686.75
413.86	879.26
414.068	811.68
414.276	871.07
414.485	901.79
414.693	803.49
414.901	909.98
415.11	940.7
415.318	1041.05
415.526	1032.86
415.734	1073.82
415.943	1077.91
416.151	1102.49
416.359	1143.45
416.567	1280.66
416.776	1254.04
416.984	1319.57
417.192	1358.49
417.4	1354.39
417.608	1323.67
417.817	1424.02
418.025	1518.23
418.233	1557.14
418.441	1583.76
418.649	1606.29
418.857	1727.12
419.065	1792.66
419.273	1796.75
419.481	1958.54
419.689	2093.71
419.897	2042.51
420.105	2159.24
420.313	2210.44
420.521	2335.37
420.729	2450.05
420.937	2378.37
421.145	2384.52
421.353	2613.89
421.561	2704
421.769	2720.39
421.977	2992.77
422.185	2714.24
422.393	3058.3
422.601	3269.24
422.809	3175.03
423.017	3369.59
423.224	3302.01
423.432	3566.2
423.64	3437.17
423.848	3721.84
424.056	3803.76
424.263	4045.42
424.471	4076.14
424.679	4115.05
424.887	4442.73
425.094	4405.86
425.302	4563.56
425.51	4596.32
425.718	4817.51
425.925	4805.22
426.133	5050.97
426.341	5425.75
426.548	5651.03
426.756	5694.04
426.964	5577.3
427.171	6036.05
427.379	6079.05
427.586	6240.84
427.794	6509.13
428.001	6797.89
428.209	6984.26
428.417	6920.77
428.624	7406.14
428.832	7479.86
429.039	7524.92
429.247	7395.9
429.454	8100.4
429.662	8544.81
429.869	8196.65
430.076	8675.88
430.284	8430.12
430.491	8788.52
430.699	9409.05
430.906	9525.79
431.114	9333.28
431.321	9701.91
431.528	9892.37
431.736	10699.27
431.943	11004.42
432.15	10885.64
432.358	10732.04
432.565	11547.13
432.772	11534.84
432.979	12153.33
433.187	12378.61
433.394	12306.93
433.601	13185.51
433.808	13009.38
434.016	12968.42
434.223	13611.48
434.43	14416.33
434.637	14176.72
434.844	15067.59
435.052	15499.71
435.259	15172.04
435.466	15677.88
435.673	15243.71
435.88	16458.16
436.087	17095.08
436.294	17463.71
436.501	16912.81
436.708	17140.13
436.915	17549.73
437.122	18796.94
437.329	18485.65
437.537	19130.76
437.743	19376.51
437.95	19151.24
438.157	20216.18
438.364	20836.72
438.571	20799.85
438.778	21004.65
438.985	23028.04
439.192	22026.59
439.399	22780.24
439.606	22307.16
439.813	23177.54
440.02	25022.76
440.227	24529.2
440.433	24293.69
440.64	25059.63
440.847	25014.57
441.054	25448.74
441.261	27343.11
441.467	27029.77
441.674	27429.13
441.881	28360.95
442.088	28461.3
442.294	28072.19
442.501	28690.68
442.708	29231.34
442.914	30394.59
443.121	31856.84
443.328	31080.66
443.534	33441.96
443.741	32172.22
443.948	31475.91
444.154	34056.35
444.361	33910.95
444.568	34074.79
444.774	34244.77
444.981	34560.16
445.187	35901.57
445.394	37025.91
445.6	36284.54
445.807	40317
446.013	38373.47
446.22	39057.49
446.426	40228.93
446.633	40626.24
446.839	42055.72
447.046	40169.54
447.252	42543.14
447.459	42559.52
447.665	42180.65
447.871	44066.83
448.078	45918.19
448.284	43515.92
448.491	45408.25
448.697	46491.62
448.903	47228.89
449.11	47706.07
449.316	46749.67
449.522	47335.38
449.728	48586.69
449.935	49201.08
450.141	48844.74
450.347	49835.95
450.553	48429
450.76	48687.04
450.966	50282.41
451.172	49942.45
451.378	50608.04
451.584	49565.62
451.791	50866.08
451.997	50444.2
452.203	51527.58
452.409	51197.85
452.615	51169.18
452.821	49215.42
453.027	48699.33
453.233	51292.06
453.44	48611.27
453.646	49375.16
453.852	49362.87
454.058	50153.39
454.264	48433.1
454.47	49543.09
454.676	48199.63
454.882	50399.15
455.088	45420.53
455.294	45914.09
455.5	46421.99
455.705	47312.86
455.911	45563.89
456.117	44398.6
456.323	43407.38
456.529	41207.86
456.735	43085.85
456.941	41795.63
457.147	40937.53
457.352	39913.55
457.558	39280.72
457.764	39075.93
457.97	38631.52
458.176	37986.41
458.381	37644.4
458.587	35801.22
458.793	35786.89
458.999	34087.07
459.204	36606.08
459.41	35156.11
459.616	32919.73
459.821	32893.11
460.027	32995.51
460.233	32239.81
460.438	30580.95
460.644	31062.22
460.85	29571.3
461.055	29098.22
461.261	29081.84
461.466	27115.79
461.672	25809.18
461.878	28260.6
462.083	26368.28
462.289	25743.65
462.494	25303.34
462.7	24361.27
462.905	23660.87
463.111	24475.96
463.316	24670.51
463.522	24115.51
463.727	24334.65
463.932	23900.48
464.138	23914.81
464.343	23912.77
464.549	23343.43
464.754	23959.87
464.959	24084.8
465.165	23394.63
465.37	22866.25
465.575	22188.38
465.781	23114.06
465.986	23048.52
466.191	22163.8
466.397	21803.36
466.602	20869.48
466.807	21397.86
467.012	21608.8
467.218	21479.78
467.423	21156.2
467.628	21393.76
467.833	22196.57
468.038	21377.38
468.244	20732.27
468.449	21756.25
468.654	21064.04
468.859	20935.02
469.064	20801.9
469.269	20001.15
469.474	20085.11
469.679	20371.83
469.885	19839.36
470.09	20220.28
470.295	20078.97
470.5	19376.51
470.705	19630.46
470.91	19116.42
471.115	19030.41
471.32	19081.61
471.525	18692.49
471.73	18483.6
471.935	18547.09
472.139	17746.33
472.344	18035.1
472.549	18166.17
472.754	17693.08
472.959	17289.63
473.164	16834.99
473.369	17203.62
473.574	17209.76
473.778	17238.44
473.983	17017.26
474.188	16929.19
474.393	16273.84
474.598	16138.68
474.802	15997.37
475.007	15856.06
475.212	15960.5
475.417	15296.96
475.621	15569.34
475.826	15512
476.031	14973.38
476.235	15169.99
476.44	15256
476.645	14885.32
476.849	14995.91
477.054	14787.02
477.259	14455.25
477.463	14406.09
477.668	13951.45
477.872	14139.86
478.077	14031.32
478.282	13797.85
478.486	13588.96
478.691	13738.46
478.895	13717.98
479.1	13533.66
479.304	13390.3
479.509	13277.66
479.713	13122.02
479.918	13017.57
480.122	12755.43
480.326	13087.2
480.531	13281.76
480.735	12792.3
480.94	12718.57
481.144	13267.42
481.348	12530.16
481.553	12775.91
481.757	12399.09
481.961	12720.62
482.166	13015.52
482.37	12896.74
482.574	12472.81
482.778	12642.79
482.983	12761.58
483.187	12622.31
483.391	12575.21
483.595	12497.39
483.8	12413.42
484.004	12526.06
484.208	12847.59
484.412	12710.38
484.616	12798.44
484.821	12859.88
485.025	12521.96
485.229	12743.14
485.433	12446.19
485.637	12732.9
485.841	12532.2
486.045	12710.38
486.249	12777.96
486.453	12392.94
486.657	12698.09
486.861	12653.03
487.065	12380.65
487.269	12704.23
487.473	12364.27
487.677	12743.14
487.881	12612.07
488.085	12802.54
488.289	12884.45
488.493	12605.93
488.697	12866.02
488.901	12886.5
489.105	12689.9
489.309	12761.58
489.512	12986.85
489.716	12747.24
489.92	12771.82
490.124	12845.54
490.328	13199.84
490.531	12814.82
490.735	13117.92
490.939	13228.51
491.143	12949.99
491.346	13261.28
491.55	13304.29
491.754	13306.34
491.958	13308.38
492.161	13259.23
492.365	13619.67
492.569	13574.62
492.772	13582.81
492.976	13490.65
493.18	13771.22
493.383	13832.66
493.587	13748.7
493.79	14242.26
493.994	13994.45
494.197	14307.79
494.401	14459.34
494.605	14281.17
494.808	14551.5
495.012	14631.37
495.215	14383.57
495.419	14875.08
495.622	14889.42
495.825	14827.98
496.029	15110.6
496.232	15401.41
496.436	15540.67
496.639	15296.96
496.843	15483.33
497.046	15913.4
497.249	15901.11
497.453	16079.29
497.656	16247.22
497.859	16234.93
498.063	16591.28
498.266	16882.09
498.469	16857.51
498.673	17097.13
498.876	17453.47
499.079	17643.93
499.282	17381.79
499.485	17813.91
499.689	17918.36
499.892	18364.82
500.095	18188.69
500.298	18624.91
500.501	18512.27
500.705	18823.56
500.908	19077.51
501.111	19513.73
501.314	19679.61
501.517	19743.1
501.72	19831.16
501.923	20171.13
502.126	20349.3
502.329	20973.93
502.532	21076.33
502.735	21098.86
502.938	21563.75
503.141	21584.23
503.344	21932.38
503.547	22036.83
503.75	22374.74
503.953	22645.07
504.156	23030.09
504.359	23134.54
504.562	23206.22
504.765	23814.46
504.968	23769.41
505.17	24355.13
505.373	24035.64
505.576	24817.97
505.779	24885.55
505.982	24713.52
506.185	25790.75
506.387	25647.4
506.59	25833.76
506.793	26310.94
506.996	26192.15
507.198	26863.89
507.401	26855.7
507.604	27248.91
507.807	27509
508.009	27851.01
508.212	28266.75
508.415	28395.77
508.617	28596.47
508.82	28938.48
509.022	28942.58
509.225	29806.82
509.428	29612.26
509.63	30165.21
509.833	30263.52
510.035	30757.08
510.238	30830.8
510.44	30959.83
510.643	31822.02
510.845	31996.1
511.048	31555.79
511.25	32379.07
511.453	32331.97
511.655	33675.43
511.858	33247.41
512.06	33618.09
512.262	34064.55
512.465	34068.64
512.667	34705.56
512.87	35031.19
513.072	35045.52
513.274	35551.37
513.477	36046.98
513.679	36671.61
513.881	36907.13
514.084	37255.28
514.286	36690.04
514.488	37709.93
514.69	38277.22
514.893	38369.38
515.095	38602.85
515.297	38979.67
515.499	38893.66
515.701	39905.35
515.904	39811.15
516.106	40128.58
516.308	40429.63
516.51	40941.63
516.712	41177.14
516.914	41517.11
517.116	42188.84
517.318	41934.89
517.52	42455.07
517.722	42635.3
517.925	43212.82
518.127	43937.8
518.329	43968.52
518.531	44003.34
518.733	44939.26
518.935	45367.29
519.136	45211.64
519.338	45971.44
519.54	46266.34
519.742	46409.7
519.944	46481.38
520.146	47435.73
520.348	47665.11
520.55	47706.07
520.752	47986.64
520.954	48605.12
521.155	48342.98
521.357	49516.47
521.559	49676.21
521.761	50188.2
521.963	49969.07
522.164	50202.54
522.366	50540.46
522.568	50851.75
522.77	51177.37
522.971	52027.28
523.173	51552.15
523.375	52270.99
523.576	52217.74
523.778	52082.58
523.98	53315.45
524.181	53413.76
524.383	53706.62
524.584	54118.26
524.786	53933.94
524.988	53829.49
525.189	54519.66
525.391	55361.37
525.592	55162.72
525.794	55465.82
525.995	55514.97
526.197	55379.81
526.398	55613.27
526.6	56448.85
526.801	56371.02
527.003	56831.82
527.204	56383.31
527.406	56735.56
527.607	56608.59
527.808	57493.31
528.01	56463.18
528.211	57323.33
528.412	58566.44
528.614	58033.97
528.815	58119.99
529.016	58795.82
529.218	58232.63
529.419	58898.22
529.62	58816.3
529.822	58730.28
530.023	58214.19
530.224	58554.16
530.425	58959.65
530.626	58515.25
530.828	58427.18
531.029	59864.86
531.23	58808.11
531.431	59131.68
531.632	59746.07
531.833	60016.41
532.035	59377.44
532.236	59557.66
532.437	60006.17
532.638	59485.98
532.839	60200.72
533.04	59920.15
533.241	59469.6
533.442	60262.16
533.643	59959.06
533.844	60077.85
534.045	59918.1
534.246	59713.31
534.447	60094.23
534.648	59963.16
534.849	60163.86
535.05	59811.61
535.251	60208.92
535.451	59543.33
535.652	60303.12
535.853	59916.06
536.054	60372.75
536.255	60245.78
536.456	59434.78
536.657	60813.07
536.857	59694.88
537.058	60002.07
537.259	60202.77
537.46	60167.96
537.66	60067.61
537.861	60286.74
538.062	59905.82
538.263	60256.02
538.463	59864.86
538.664	60112.66
538.865	60094.23
539.065	60294.93
539.266	59965.21
539.466	60469.01
539.667	59696.92
539.868	60581.65
540.068	60053.27
540.269	59950.87
540.469	60688.14
540.67	59340.58
540.87	59889.43
541.071	59707.16
541.271	59897.62
541.472	59729.69
541.672	59696.92
541.873	59459.36
542.073	59111.2
542.274	59979.54
542.474	59739.93
542.675	59500.32
542.875	60030.74
543.075	59518.75
543.276	58918.7
543.476	60251.92
543.676	59275.04
543.877	60223.25
544.077	59377.44
544.277	59217.7
544.478	59143.97
544.678	60038.93
544.878	59467.55
545.078	59934.49
545.279	58984.23
545.479	58980.13
545.679	59477.79
545.879	59068.2
546.079	59172.64
546.28	59410.21
546.48	58517.29
546.68	59381.54
546.88	59420.45
547.08	59303.71
547.28	59170.6
547.48	58656.56
547.68	58953.51
547.88	58603.31
548.081	59295.52
548.281	59031.33
548.481	59070.25
548.681	59428.64
548.881	59062.05
549.081	58713.9
549.28	58533.68
549.48	59123.49
549.68	58787.63
549.88	59461.41
550.08	58597.16
550.28	58908.46
550.48	59027.24
550.68	59049.77
550.88	58834.73
551.08	58349.36
551.279	58683.18
551.479	58279.73
551.679	58609.45
551.879	58560.3
552.079	59156.26
552.278	58574.64
552.478	58717.99
552.678	58697.51
552.878	59039.53
553.077	58511.15
553.277	58341.17
553.477	59004.71
553.676	58046.26
553.876	58058.55
554.076	58175.28
554.275	58046.26
554.475	57853.75
554.674	58324.78
554.874	57943.86
555.074	57714.49
555.273	58095.41
555.473	57775.93
555.672	58009.4
555.872	57976.63
556.071	58025.78
556.271	58152.76
556.47	57833.27
556.67	57067.33
556.869	57274.18
557.068	57929.53
557.268	56952.65
557.467	57388.86
557.667	57370.43
557.866	57440.06
558.065	56981.32
558.265	57190.21
558.464	56747.85
558.663	57823.03
558.863	56473.42
559.062	57481.02
559.261	56756.04
559.461	57317.18
559.66	56033.11
559.859	56414.03
560.058	56016.72
560.258	56403.79
560.457	56268.62
560.656	56766.28
560.855	55588.7
561.054	56203.09
561.253	55953.24
561.453	56219.47
561.652	56252.24
561.851	56168.27
562.05	55617.37
562.249	55547.74
562.448	55457.63
562.647	55459.68
562.846	55203.68
563.045	55578.46
563.244	54527.85
563.443	55398.24
563.642	54458.22
563.841	54746.98
564.04	54634.34
564.239	55019.36
564.438	54439.79
564.637	54515.56
564.836	54847.33
565.035	53852.02
565.234	54259.57
565.432	53774.2
565.631	53579.64
565.83	54142.83
566.029	53768.05
566.228	53565.31
566.427	53536.63
566.625	53237.63
566.824	52658.06
567.023	53620.6
567.222	52668.29
567.42	53360.51
567.619	52815.75
567.818	52922.24
568.016	52461.45
568.215	53020.55
568.414	52080.53
568.612	53208.96
568.811	52119.44
569.01	52270.99
569.208	51357.59
569.407	52549.51
569.605	51597.21
569.804	51926.93
570.002	51419.03
570.201	51730.33
570.4	51472.28
570.598	51402.65
570.797	50759.59
570.995	51052.45
571.193	50249.64
571.392	51296.16
571.59	50689.96
571.789	50503.59
571.987	50415.53
572.186	50493.35
572.384	50073.52
572.582	50456.49
572.781	50300.84
572.979	49178.56
573.177	49819.57
573.376	50036.66
573.574	49405.88
573.772	49747.89
573.971	49256.38
574.169	48846.79
574.367	48601.03
574.565	49070.01
574.763	48809.92
574.962	49022.91
575.16	48068.56
575.358	48709.57
575.556	47886.29
575.754	48840.64
575.952	47876.05
576.151	48263.11
576.349	47658.96
576.547	47484.89
576.745	47957.97
576.943	48064.46
577.141	47409.11
577.339	47482.84
577.537	47189.98
577.735	47146.97
577.933	46798.82
578.131	47048.67
578.329	46622.69
578.527	46555.11
578.725	46729.19
578.923	46675.94
579.121	46704.61
579.319	46366.7
579.516	46465
579.714	46249.96
579.912	45852.65
580.11	45901.81
580.308	45475.83
580.506	45535.22
580.704	44865.53
580.901	45410.29
581.099	45961.2
581.297	45168.63
581.495	45232.12
581.692	45174.78
581.89	44787.71
582.088	45121.53
582.285	44648.45
582.483	44716.03
582.681	44476.42
582.878	44288.01
583.076	44044.3
583.274	44449.8
583.471	43638.8
583.669	44267.53
583.866	43485.2
584.064	44216.33
584.262	43122.71
584.459	43933.71
584.657	43526.16
584.854	43044.89
585.052	42829.85
585.249	43216.92
585.447	43202.58
585.644	42659.87
585.841	42700.83
586.039	42612.77
586.236	42217.51
586.434	42297.38
586.631	42076.2
586.828	42203.17
587.026	42184.74
587.223	41955.37
587.42	42106.92
587.618	42469.41
587.815	41326.64
588.012	41584.69
588.21	41539.63
588.407	41642.03
588.604	41373.75
588.801	40722.49
588.999	40945.72
589.196	40742.97
589.393	40810.56
589.59	40673.34
589.787	40845.37
589.984	40220.74
590.182	40325.19
590.379	40747.07
590.576	39708.75
590.773	40177.73
590.97	39860.3
591.167	40167.49
591.364	39692.36
591.561	39770.19
591.758	39518.29
591.955	39141.46
592.152	39786.57
592.349	39153.75
592.546	39145.56
592.743	39077.97
592.94	38563.93
593.137	39063.64
593.334	38864.99
593.531	38449.25
593.727	38934.62
593.924	38479.97
594.121	38062.18
594.318	38309.99
594.515	37947.5
594.712	38168.68
594.908	37699.69
595.105	38594.65
595.302	37298.29
595.499	37419.12
595.696	37308.53
595.892	37202.03
596.089	37548.14
596.286	37544.05
596.482	37093.49
596.679	37140.6
596.876	37105.78
597.072	36597.88
597.269	36763.77
597.466	36284.54
597.662	36489.34
597.859	36487.29
598.055	36675.71
598.252	36194.43
598.448	36053.12
598.645	35989.64
598.841	35530.89
599.038	35977.35
599.234	35948.68
599.431	35453.07
599.627	35235.98
599.824	35504.27
600.02	35422.35
600.217	35381.39
600.413	35156.11
600.609	35039.38
600.806	34664.6
601.002	34826.39
601.198	34562.2
601.395	34338.97
601.591	34144.42
601.787	34267.3
601.984	34089.12
602.18	34640.03
602.376	34121.89
602.572	33929.38
602.769	33562.79
602.965	33474.73
603.161	33585.32
603.357	33433.77
603.553	33317.04
603.75	33517.74
603.946	33112.24
604.142	33071.28
604.338	32874.68
604.534	32927.92
604.73	32753.85
604.926	32831.67
605.122	32606.39
605.318	32673.98
605.514	32311.49
605.71	32473.28
605.906	32458.94
606.102	32215.23
606.298	32440.51
606.494	31883.46
606.69	32151.74
606.886	32020.67
607.082	32016.58
607.278	31865.03
607.474	31649.99
607.67	31998.15
607.866	31135.95
608.062	31865.03
608.257	31520.97
608.453	31652.04
608.649	31678.66
608.845	30992.59
609.041	31164.62
609.236	31031.51
609.432	31084.75
609.628	31199.44
609.824	30879.96
610.019	30617.82
610.215	30984.4
610.411	31101.14
610.606	30554.33
610.802	30820.56
610.998	30425.31
611.193	30904.53
611.389	30542.04
611.584	29769.96
611.78	30365.92
611.976	30269.66
612.171	30118.11
612.367	30017.76
612.562	29806.82
612.758	29980.9
612.953	29706.47
613.149	29937.89
613.344	29489.38
613.539	30286.04
613.735	29747.43
613.93	29825.25
614.126	29561.06
614.321	29690.09
614.517	29685.99
614.712	29022.45
614.907	29503.72
615.103	29329.64
615.298	29071.6
615.493	29685.99
615.688	28772.6
615.884	29673.7
616.079	29053.17
616.274	29085.93
616.47	29026.54
616.665	28950.77
616.86	29087.98
617.055	28582.13
617.25	28336.38
617.445	28659.96
617.641	27994.37
617.836	28612.85
618.031	28102.91
618.226	28367.1
618.421	28000.51
618.616	28449.02
618.811	28002.56
619.006	28023.04
619.201	27357.45
619.396	28008.7
619.591	27492.62
619.786	27717.89
619.981	27146.51
620.176	27570.44
620.371	26933.52
620.566	27072.78
620.761	26935.57
620.956	27207.95
621.151	26419.48
621.346	26708.24
621.541	26331.42
621.735	26706.2
621.93	25979.17
622.125	26444.06
622.32	25508.13
622.515	26100
622.709	25610.53
622.904	25770.27
623.099	25479.46
623.294	25448.74
623.488	24838.45
623.683	25278.76
623.878	24742.19
624.072	25037.1
624.267	24828.21
624.462	24535.35
624.656	24602.93
624.851	24457.53
625.046	24275.26
625.24	23873.85
625.435	23859.52
625.629	23761.22
625.824	23523.65
626.018	23871.81
626.213	23226.7
626.407	23372.1
626.602	22753.62
626.796	23318.85
626.991	22729.04
627.185	22667.6
627.38	22305.11
627.574	22358.36
627.768	22231.38
627.963	22255.96
628.157	21735.77
628.352	21932.38
628.546	21750.11
628.74	21760.35
628.935	21375.33
629.129	21664.1
629.323	21317.99
629.517	21346.66
629.712	21174.63
629.906	20984.17
630.1	20697.45
630.294	20906.35
630.489	20636.02
630.683	20685.17
630.877	20445.55
631.071	20607.34
631.265	20330.87
631.459	20169.08
631.653	20089.21
631.848	19884.41
632.042	19700.09
632.236	19874.17
632.43	19579.26
632.624	19663.23
632.818	19265.92
633.012	19128.71
633.206	19106.18
633.4	19110.28
633.594	19241.35
633.788	18897.29
633.982	18727.31
634.176	18874.76
634.369	18504.08
634.563	18473.36
634.757	18477.46
634.951	18467.22
635.145	17977.75
635.339	18086.29
635.533	17805.72
635.726	17955.22
635.92	17785.24
636.114	17850.78
636.308	17527.2
636.501	17506.72
636.695	17625.5
636.889	16972.2
637.083	16966.06
637.276	17068.45
637.47	16853.42
637.664	17125.8
637.857	16968.1
638.051	16832.94
638.244	16640.43
638.438	16411.06
638.632	16581.04
638.825	16415.15
639.019	16128.44
639.212	16091.57
639.406	16081.33
639.599	15923.64
639.793	15798.71
639.986	15602.11
640.18	15481.28
640.373	15757.75
640.567	15430.08
640.76	15464.89
640.954	15139.27
641.147	14975.43
641.34	15321.54
641.534	15188.42
641.727	15114.69
641.92	14817.74
642.114	14797.26
642.307	14461.39
642.5	14594.51
642.694	14481.87
642.887	14387.66
643.08	14705.1
643.273	14240.21
643.467	14326.22
643.66	14135.76
643.853	14213.59
644.046	13961.69
644.239	14232.02
644.432	13808.09
644.626	13545.95
644.819	13689.31
645.012	13494.75
645.205	13847
645.398	13380.06
645.591	13220.32
645.784	13300.19
645.977	12984.8
646.17	13302.24
646.363	13052.39
646.556	13083.11
646.749	12952.04
646.942	13015.52
647.135	12712.42
647.328	12845.54
647.521	12878.31
647.714	12227.06
647.907	12597.74
648.099	12517.87
648.292	12476.91
648.485	12481
648.678	12261.87
648.871	11995.64
649.064	12059.12
649.256	12061.17
649.449	11981.3
649.642	11825.65
649.835	11989.49
650.027	11952.63
650.22	11717.11
650.413	11710.97
650.605	11487.74
650.798	11555.32
650.991	11676.15
651.183	11598.33
651.376	11362.81
651.568	11201.02
651.761	11348.48
651.954	11080.19
652.146	11119.1
652.339	11141.63
652.531	10990.08
652.724	10926.6
652.916	10652.17
653.109	11006.47
653.301	10748.42
653.494	10656.26
653.686	10613.26
653.879	10824.2
654.071	10562.06
654.263	10285.58
654.456	10592.78
654.648	10465.8
654.84	10410.51
655.033	10289.68
655.225	10209.81
655.417	10101.26
655.61	10015.25
655.802	10342.92
655.994	10138.13
656.186	10078.74
656.379	9775.64
656.571	9837.08
656.763	9679.38
656.955	9622.04
657.148	9562.65
657.34	9495.07
657.532	9511.45
657.724	9466.39
657.916	9323.04
658.108	9374.24
658.3	9323.04
658.492	9306.65
658.684	9163.29
658.876	9331.23
659.068	9105.95
659.26	9120.29
659.452	9026.08
659.644	8919.59
659.836	9054.75
660.028	8872.48
660.22	8768.04
660.412	8991.27
660.604	8886.82
660.796	8718.89
660.988	8684.07
661.18	8677.93
661.372	8534.57
661.563	8503.85
661.755	8372.78
661.947	8446.51
662.139	8593.96
662.331	8319.53
662.522	8383.02
662.714	8448.55
662.906	8155.69
663.097	8172.08
663.289	8157.74
663.481	7973.42
663.673	8030.77
663.864	8049.2
664.056	8038.96
664.247	8014.38
664.439	7825.97
664.631	8053.3
664.822	7883.31
665.014	7836.21
665.205	7684.66
665.397	7682.61
665.588	7617.08
665.78	7463.48
665.971	7619.13
666.163	7594.55
666.354	7606.84
666.546	7316.03
666.737	7463.48
666.929	7477.82
667.12	7408.19
667.311	7256.64
667.503	7262.78
667.694	7344.7
667.885	7305.79
668.077	7330.36
668.268	7299.64
668.459	6959.68
668.651	7137.85
668.842	7055.93
669.033	6994.5
669.224	6994.5
669.416	7057.98
669.607	6996.54
669.798	7006.78
669.989	7066.17
670.18	6959.68
670.371	6863.43
670.563	6914.63
670.754	6697.54
670.945	6681.16
671.136	6767.17
671.327	6660.68
671.518	6525.51
671.709	6545.99
671.9	6554.18
672.091	6595.14
672.282	6619.72
672.473	6574.66
672.664	6601.29
672.855	6533.7
673.046	6447.69
673.237	6541.89
673.428	6400.59
673.619	6466.12
673.809	6300.23
674	6298.19
674.191	6353.48
674.382	6300.23
674.573	6261.32
674.764	6206.03
674.954	6203.98
675.145	6320.71
675.336	6404.68
675.527	6277.71
675.717	6279.75
675.908	6138.44
676.099	6328.91
676.289	6048.33
676.48	6060.62
676.671	6130.25
676.861	6093.39
677.052	6107.73
677.243	6025.81
677.433	5896.78
677.624	5970.51
677.814	6005.33
678.005	6183.5
678.195	6011.47
678.386	6013.52
678.576	5941.84
678.767	5962.32
678.957	5999.18
679.148	5976.66
679.338	5849.68
679.529	5890.64
679.719	5843.54
679.909	5866.07
680.1	5831.25
680.29	5833.3
680.481	5800.53
680.671	5618.26
680.861	5939.79
681.052	5878.35
681.242	5800.53
681.432	5759.57
681.622	5808.72
681.813	5622.36
682.003	5603.93
682.193	5694.04
682.383	5839.44
682.573	5706.32
682.764	5659.22
682.954	5702.23
683.144	5608.02
683.334	5669.46
683.524	5685.84
683.714	5763.67
683.904	5683.8
684.094	5698.13
684.284	5528.15
684.474	5685.84
684.664	5569.11
684.854	5538.39
685.044	5483.1
685.234	5495.38
685.424	5507.67
685.614	5499.48
685.804	5487.19
685.994	5466.71
686.184	5419.61
686.374	5360.22
686.564	5513.81
686.753	5468.76
686.943	5261.91
687.133	5384.79
687.323	5157.47
687.513	5317.21
687.702	5243.48
687.892	5225.05
688.082	5116.51
688.272	5145.18
688.461	5128.8
688.651	5186.14
688.841	5143.13
689.03	5024.35
689.22	5190.24
689.41	5132.89
689.599	4880.99
689.789	4946.53
689.979	5091.93
690.168	4977.25
690.358	4831.84
690.547	4891.23
690.737	4973.15
690.926	4878.94
691.116	4903.52
691.305	4954.72
691.495	4893.28
691.684	4676.2
691.874	4854.37
692.063	4864.61
692.252	4778.59
692.442	4778.59
692.631	4698.72
692.82	4751.97
693.01	4817.51
693.199	4674.15
693.388	4631.14
693.578	4745.83
693.767	4637.28
693.956	4625
694.146	4598.37
694.335	4553.32
694.524	4420.2
694.713	4551.27
694.902	4588.13
695.092	4565.61
695.281	4461.16
695.47	4442.73
695.659	4256.36
695.848	4495.97
696.037	4530.79
696.226	4512.36
696.415	4465.25
696.604	4545.13
696.793	4452.97
696.982	4581.99
697.171	4469.35
697.36	4412.01
697.549	4477.54
697.738	4313.7
697.927	4278.89
698.116	4362.86
698.305	4344.42
698.494	4377.19
698.683	4233.83
698.872	4366.95
699.061	4270.7
699.25	4340.33
699.438	4350.57
699.627	4348.52
699.816	4319.85
700.005	4252.27
700.193	4375.14
700.382	4356.71
700.571	4393.58
700.76	4297.32
700.948	4336.23
701.137	4346.47
701.326	4207.21
701.514	4299.37
701.703	4328.04
701.892	4323.94
702.08	4289.13
702.269	4303.47
702.457	4270.7
702.646	4307.56
702.834	4244.07
703.023	4235.88
703.212	4266.6
703.4	4373.1
703.589	4194.92
703.777	4332.14
703.965	4164.2
704.154	4153.96
704.342	4201.07
704.531	4158.06
704.719	4162.16
704.907	4229.74
705.096	4215.4
705.284	4295.27
705.472	4293.23
705.661	4266.6
705.849	4295.27
706.037	4334.18
706.226	4364.9
706.414	4250.22
706.602	4194.92
706.79	4168.3
706.979	4307.56
707.167	4311.66
707.355	4258.41
707.543	4239.98
707.731	4317.8
707.919	4223.59
708.107	4246.12
708.296	4184.68
708.484	4274.79
708.672	4268.65
708.86	4328.04
709.048	4231.79
709.236	4192.87
709.424	4213.35
709.612	4188.78
709.8	4217.45
709.988	4162.16
710.176	4305.51
710.364	4182.63
710.551	4323.94
710.739	4319.85
710.927	4086.38
711.115	4307.56
711.303	4432.49
711.491	4272.75
711.679	4387.43
711.866	4301.42
712.054	4348.52
712.242	4086.38
712.43	4266.6
712.617	4260.46
712.805	4201.07
712.993	4203.11
713.181	4248.17
713.368	4295.27
713.556	4282.99
713.744	4180.59
713.931	4391.53
714.119	4270.7
714.306	4295.27
714.494	4268.65
714.682	4260.46
714.869	4080.24
715.057	4334.18
715.244	4317.8
715.432	4416.1
715.619	4196.97
715.807	4235.88
715.994	4272.75
716.182	4215.4
716.369	4276.84
716.556	4235.88
716.744	4305.51
716.931	4172.4
717.119	4403.82
717.306	4354.66
717.493	4239.98
717.681	4317.8
717.868	4135.53
718.055	4227.69
718.242	4258.41
718.43	4254.31
718.617	4309.61
718.804	4330.09
718.991	4190.83
719.179	4274.79
719.366	4192.87
719.553	4317.8
719.74	4121.2
719.927	4094.57
720.114	4227.69
720.301	4354.66
720.488	4088.43
720.676	4219.5
720.863	4078.19
721.05	4254.31
721.237	4141.68
721.424	4145.77
721.611	4186.73
721.798	4178.54
721.985	4076.14
722.172	4125.29
722.358	4158.06
722.545	4293.23
722.732	4244.07
722.919	4192.87
723.106	4227.69
723.293	4160.11
723.48	4094.57
723.667	4151.92
723.853	4242.03
724.04	4061.8
724.227	4205.16
724.414	4145.77
724.6	4049.52
724.787	4053.61
724.974	4153.96
725.161	4094.57
725.347	4031.09
725.534	4053.61
725.72	4057.71
725.907	4156.01
726.094	4020.85
726.28	4070
726.467	4135.53
726.653	4037.23
726.84	4096.62
727.027	4201.07
727.213	4063.85
727.4	4018.8
727.586	4131.44
727.773	4123.24
727.959	4055.66
728.145	4149.87
728.332	3971.69
728.518	4074.09
728.705	4113
728.891	3967.6
729.077	4135.53
729.264	4090.48
729.45	4039.28
729.636	4100.72
729.823	3945.07
730.009	4072.04
730.195	4026.99
730.382	4108.91
730.568	3959.41
730.754	4145.77
730.94	3900.02
731.126	3959.41
731.313	3930.73
731.499	4055.66
731.685	3990.13
731.871	3797.62
732.057	4045.42
732.243	3932.78
732.429	4026.99
732.615	3973.74
732.801	3887.73
732.987	4029.04
733.173	3928.69
733.359	3945.07
733.545	3932.78
733.731	3828.34
733.917	3908.21
734.103	4006.51
734.289	3809.9
734.475	3873.39
734.661	3947.12
734.847	3828.34
735.033	3852.91
735.219	3750.51
735.404	3834.48
735.59	3748.47
735.776	3760.75
735.962	3916.4
736.148	3945.07
736.333	3734.13
736.519	3895.92
736.705	3959.41
736.89	3760.75
737.076	3789.42
737.262	3748.47
737.447	3742.32
737.633	3762.8
737.819	3848.82
738.004	3615.35
738.19	3877.49
738.375	3732.08
738.561	3764.85
738.747	3717.75
738.932	3756.66
739.118	3770.99
739.303	3568.24
739.489	3783.28
739.674	3553.91
739.859	3639.92
740.045	3744.37
740.23	3564.15
740.416	3549.81
740.601	3766.9
740.786	3695.22
740.972	3617.4
741.157	3619.44
741.342	3480.18
741.528	3629.68
741.713	3576.44
741.898	3543.67
742.084	3412.6
742.269	3527.28
742.454	3498.61
742.639	3646.07
742.824	3377.78
743.01	3500.66
743.195	3676.79
743.38	3435.13
743.565	3402.36
743.75	3441.27
743.935	3377.78
744.12	3310.2
744.305	3375.74
744.49	3381.88
744.675	3357.3
744.86	3316.34
745.045	3203.71
745.23	3334.78
745.415	3160.7
745.6	3177.08
745.785	3154.55
745.97	3265.14
746.155	3129.98
746.34	3320.44
746.525	2990.72
746.71	3146.36
746.895	3046.01
747.079	3011.2
747.264	3062.4
747.449	3056.25
747.634	2949.76
747.819	3027.58
748.003	3109.5
748.188	2824.83
748.373	3011.2
748.557	2857.6
748.742	2722.43
748.927	2957.95
749.111	2923.13
749.296	2818.69
749.481	2777.73
749.665	2732.67
749.85	2871.93
750.034	2796.16
750.219	2751.1
750.404	2687.62
750.588	2665.09
750.773	2673.28
750.957	2650.75
751.141	2593.41
751.326	2562.69
751.51	2595.46
751.695	2689.67
751.879	2609.79
752.064	2654.85
752.248	2617.99
752.432	2673.28
752.617	2601.6
752.801	2536.07
752.985	2390.66
753.17	2486.92
753.354	2433.67
753.538	2445.96
753.722	2421.38
753.907	2409.09
754.091	2347.65
754.275	2345.61
754.459	2280.07
754.643	2298.5
754.828	2474.63
755.012	2253.45
755.196	2261.64
755.38	2296.46
755.564	2177.67
755.748	2089.61
755.932	2165.39
756.116	2144.91
756.3	2251.4
756.484	2134.67
756.668	2210.44
756.852	2060.94
757.036	2044.56
757.22	2017.93
757.404	2159.24
757.588	2087.56
757.772	2077.32
757.956	2067.08
758.14	2108.04
758.323	1931.92
758.507	2015.88
758.691	1913.49
758.875	1954.44
759.059	1897.1
759.242	1989.26
759.426	1858.19
759.61	1899.15
759.794	1911.44
759.977	1890.96
760.161	1876.62
760.345	1888.91
760.528	1880.72
760.712	1884.81
760.895	1860.24
761.079	1866.38
761.263	1850
761.446	1921.68
761.63	1784.46
761.813	1772.18
761.997	1819.28
762.18	1800.85
762.364	1780.37
762.547	1673.87
762.731	1749.65
762.914	1727.12
763.098	1774.22
763.281	1708.69
763.464	1714.83
763.648	1694.35
763.831	1786.51
764.015	1690.26
764.198	1729.17
764.381	1598.1
764.564	1589.91
764.748	1680.02
764.931	1671.83
765.114	1624.72
765.297	1575.57
765.481	1753.74
765.664	1573.52
765.847	1714.83
766.03	1622.67
766.213	1632.91
766.397	1577.62
766.58	1575.57
766.763	1540.76
766.946	1516.18
767.129	1551
767.312	1499.8
767.495	1575.57
767.678	1512.08
767.861	1432.21
768.044	1634.96
768.227	1462.93
768.41	1507.99
768.593	1516.18
768.776	1411.73
768.959	1497.75
769.142	1493.65
769.324	1485.46
769.507	1344.15
769.69	1503.89
769.873	1438.36
770.056	1495.7
770.239	1491.6
770.421	1514.13
770.604	1421.97
770.787	1407.64
770.97	1397.4
771.152	1340.05
771.335	1362.58
771.518	1276.57
771.7	1381.01
771.883	1344.15
772.066	1313.43
772.248	1307.29
772.431	1340.05
772.613	1325.72
772.796	1221.27
772.978	1260.18
773.161	1338.01
773.343	1299.09
773.526	1153.69
773.708	1237.66
773.891	1235.61
774.073	1251.99
774.256	1270.42
774.438	1323.67
774.621	1155.74
774.803	1192.6
774.985	1182.36
775.168	1141.4
775.35	1088.15
775.532	1196.7
775.715	1192.6
775.897	1106.59
776.079	1170.07
776.261	1213.08
776.444	1215.13
776.626	1073.82
776.808	1092.25
776.99	1065.63
777.173	1069.72
777.355	1004.19
777.537	1051.29
777.719	1069.72
777.901	1018.52
778.083	991.9
778.265	952.99
778.447	1059.48
778.629	1032.86
778.811	944.8
778.993	1084.06
779.175	1088.15
779.357	1000.09
779.539	975.52
779.721	1092.25
779.903	1016.48
780.085	924.32
780.267	918.17
780.449	983.71
780.631	903.84
780.812	959.13
780.994	873.12
781.176	983.71
781.358	813.73
781.54	950.94
781.721	883.36
781.903	879.26
782.085	848.54
782.267	897.69
782.448	826.01
782.63	774.81
782.812	836.25
782.993	975.52
783.175	756.38
783.357	797.34
783.538	834.21
783.72	799.39
783.901	799.39
784.083	729.76
784.264	750.24
784.446	684.7
784.627	684.7
784.809	744.1
784.99	807.58
785.172	733.86
785.353	737.95
785.535	744.1
785.716	750.24
785.897	666.27
786.079	660.13
786.26	645.79
786.441	701.09
786.623	668.32
786.804	709.28
786.985	719.52
787.167	639.65
787.348	623.27
787.529	686.75
787.71	694.94
787.891	746.14
788.073	664.22
788.254	580.26
788.435	633.5
788.616	676.51
788.797	586.4
788.978	606.88
789.159	576.16
789.34	662.18
789.522	551.59
789.703	594.59
789.884	594.59
790.065	563.87
790.246	647.84
790.427	586.4
790.607	615.07
790.788	645.79
790.969	600.74
791.15	631.46
791.331	561.83
791.512	610.98
791.693	496.29
791.874	602.79
792.054	613.03
792.235	631.46
792.416	582.31
792.597	565.92
792.778	490.15
792.958	484
793.139	486.05
793.32	529.06
793.5	506.53
793.681	555.68
793.862	527.01
794.042	473.76
794.223	484
794.404	471.72
794.584	428.71
794.765	578.21
794.945	395.94
795.126	518.82
795.306	430.76
795.487	463.52
795.667	455.33
795.848	533.15
796.028	445.09
796.209	387.75
796.389	424.61
796.57	395.94
796.75	385.7
796.93	414.37
797.111	486.05
797.291	490.15
797.471	400.04
797.652	434.85
797.832	391.84
798.012	375.46
798.192	406.18
798.373	436.9
798.553	443.04
798.733	441
798.913	326.31
799.093	408.23
799.274	400.04
799.454	438.95
799.634	461.48
799.814	348.84
799.994	373.41
800.174	428.71
800.354	404.13
800.534	471.72
800.714	426.66
800.894	309.93
801.074	389.8
801.254	338.6
801.434	391.84
801.614	389.8
801.794	348.84
801.974	862.88
802.154	363.17
802.334	424.61
802.514	328.36
802.693	404.13
802.873	389.8
803.053	387.75
803.233	342.69
803.413	332.45
803.592	336.55
803.772	348.84
803.952	289.45
804.131	336.55
804.311	340.65
804.491	357.03
804.67	348.84
804.85	334.5
805.03	330.41
805.209	359.08
805.389	322.21
805.568	397.99
805.748	320.17
805.928	363.17
806.107	314.02
806.287	309.93
806.466	346.79
806.646	324.26
806.825	357.03
807.004	285.35
807.184	361.13
807.363	303.78
807.543	299.69
807.722	340.65
807.901	397.99
808.081	332.45
808.26	258.73
808.439	367.27
808.619	232.1
808.798	244.39
808.977	291.49
809.156	330.41
809.336	328.36
809.515	318.12
809.694	318.12
809.873	275.11
810.052	318.12
810.231	330.41
810.411	268.97
810.59	326.31
810.769	293.54
810.948	254.63
811.127	213.67
811.306	307.88
811.485	240.3
811.664	262.82
811.843	228.01
812.022	320.17
812.201	201.38
812.38	309.93
812.559	228.01
812.737	266.92
812.916	215.72
813.095	201.38
813.274	230.06
813.453	191.14
813.632	311.97
813.811	287.4
813.989	250.53
814.168	201.38
814.347	246.44
814.526	234.15
814.704	350.89
814.883	305.83
815.062	213.67
815.24	293.54
815.419	178.86
815.598	254.63
815.776	211.62
815.955	193.19
816.133	146.09
816.312	264.87
816.49	213.67
816.669	193.19
816.847	236.2
817.026	223.91
817.204	221.86
817.383	164.52
817.561	156.33
817.74	252.58
817.918	225.96
818.097	236.2
818.275	252.58
818.453	211.62
818.632	217.77
818.81	242.34
818.988	182.95
819.167	189.1
819.345	209.58
819.523	203.43
819.701	178.86
819.879	250.53
820.058	187.05
820.236	195.24
820.414	180.9
820.592	209.58
820.77	189.1
820.948	225.96
821.127	103.08
821.305	228.01
821.483	221.86
821.661	236.2
821.839	172.71
822.017	213.67
822.195	203.43
822.373	178.86
822.551	213.67
822.729	197.29
822.907	154.28
823.085	266.92
823.262	137.9
823.44	185
823.618	125.61
823.796	162.47
823.974	111.27
824.152	189.1
824.329	152.23
824.507	174.76
824.685	164.52
824.863	176.81
825.04	238.25
825.218	133.8
825.396	156.33
825.574	197.29
825.751	160.42
825.929	82.6
826.107	185
826.284	195.24
826.462	185
826.639	121.51
826.817	109.23
826.994	209.58
827.172	115.37
827.349	205.48
827.527	154.28
827.704	162.47
827.882	230.06
828.059	232.1
828.237	82.6
828.414	211.62
828.591	115.37
828.769	96.94
828.946	127.66
829.124	154.28
829.301	129.7
829.478	205.48
829.655	115.37
829.833	141.99
830.01	172.71
830.187	209.58
830.364	115.37
830.542	193.19
830.719	223.91
830.896	250.53
831.073	78.51
831.25	139.94
831.427	103.08
831.604	141.99
831.782	115.37
831.959	121.51
832.136	117.42
832.313	144.04
832.49	31.4
832.667	172.71
832.844	70.31
833.021	156.33
833.198	88.75
833.374	92.84
833.551	127.66
833.728	174.76
833.905	139.94
834.082	80.55
834.259	107.18
834.436	199.34
834.612	41.64
834.789	189.1
834.966	121.51
835.143	144.04
835.319	82.6
835.496	203.43
835.673	195.24
835.85	135.85
836.026	109.23
836.203	55.98
836.38	123.56
836.556	105.13
836.733	74.41
836.909	162.47
837.086	98.99
837.262	45.74
837.439	107.18
837.616	39.59
837.792	123.56
837.968	78.51
838.145	105.13
838.321	62.12
838.498	164.52
838.674	92.84
838.851	96.94
839.027	58.03
839.203	178.86
839.38	131.75
839.556	74.41
839.732	98.99
839.909	117.42
840.085	41.64
840.261	76.46
840.437	86.7
840.614	60.07
840.79	96.94
840.966	39.59
841.142	92.84
841.318	43.69
841.494	86.7
841.671	115.37
841.847	82.6
842.023	51.88
842.199	156.33
842.375	43.69
842.551	33.45
842.727	62.12
842.903	158.38
843.079	105.13
843.255	137.9
843.431	74.41
843.607	176.81
843.783	123.56
843.959	49.83
844.134	72.36
844.31	174.76
844.486	70.31
844.662	45.74
844.838	129.7
845.013	62.12
845.189	66.22
845.365	113.32
845.541	51.88
845.716	96.94
845.892	103.08
846.068	37.55
846.244	111.27
846.419	39.59
846.595	41.64
846.77	-40.28
846.946	94.89
847.122	70.31
847.297	8.87
847.473	70.31
847.648	47.79
847.824	84.65
847.999	47.79
848.175	109.23
848.35	98.99
848.526	109.23
848.701	31.4
848.876	39.59
849.052	55.98
849.227	70.31
849.403	27.31
849.578	12.97
849.753	55.98
849.929	123.56
850.104	-7.51
850.279	84.65
850.454	47.79
850.63	64.17
850.805	109.23
850.98	98.99
851.155	43.69
851.33	10.92
851.505	29.35
851.681	115.37
851.856	72.36
852.031	98.99
852.206	115.37
852.381	55.98
852.556	101.03
852.731	101.03
852.906	-7.51
853.081	123.56
853.256	19.11
853.431	19.11
853.606	8.87
853.781	58.03
853.956	58.03
854.131	98.99
854.305	-1.37
854.48	25.26
854.655	47.79
854.83	8.87
855.005	-9.56
855.18	72.36
855.354	90.79
855.529	66.22
855.704	15.02
855.879	0.68
856.053	45.74
856.228	86.7
856.403	12.97
856.577	105.13
856.752	45.74
856.926	29.35
857.101	96.94
857.276	78.51
857.45	80.55
857.625	111.27
857.799	72.36
857.974	47.79
858.148	74.41
858.323	45.74
858.497	45.74
858.672	68.27
858.846	21.16
859.02	82.6
859.195	47.79
859.369	45.74
859.543	58.03
859.718	8.87
859.892	62.12
860.066	74.41
860.241	6.83
860.415	78.51
860.589	33.45
860.763	60.07
860.938	62.12
861.112	41.64
861.286	62.12
861.46	35.5
861.634	53.93
861.808	82.6
861.982	-50.52
862.157	62.12
862.331	-36.18
862.505	-25.94
862.679	23.21
862.853	-15.7
863.027	82.6
863.201	17.07
863.375	-21.84
863.549	92.84
863.722	53.93
863.896	76.46
864.07	10.92
864.244	10.92
864.418	62.12
864.592	4.78
864.766	70.31
864.939	4.78
865.113	6.83
865.287	55.98
865.461	-5.46
865.634	15.02
865.808	58.03
865.982	60.07
866.156	29.35
866.329	55.98
866.503	37.55
866.676	66.22
866.85	94.89
867.024	33.45
867.197	58.03
867.371	109.23
867.544	53.93
867.718	35.5
867.891	17.07
868.065	29.35
868.238	27.31
868.412	41.64
868.585	2.73
868.759	29.35
868.932	-36.18
869.105	-23.89
869.279	-13.65
869.452	-17.75
869.625	19.11
869.799	19.11
869.972	-36.18
870.145	2.73
870.319	47.79
870.492	12.97
870.665	-3.41
870.838	-19.8
871.011	-34.13
871.185	-36.18
871.358	4.78
871.531	60.07
871.704	94.89
871.877	41.64
872.05	-73.04
872.223	-1.37
872.396	6.83
872.569	41.64
872.742	-21.84
872.915	96.94
873.088	-5.46
873.261	45.74
873.434	-9.56
873.607	53.93
873.78	33.45
873.953	-36.18
874.126	33.45
874.299	53.93
874.471	-11.61
874.644	94.89
874.817	113.32
874.99	60.07
875.163	17.07
875.335	51.88
875.508	90.79
875.681	15.02
875.853	15.02
876.026	-15.7
876.199	-1.37
876.371	12.97
876.544	25.26
876.717	78.51
876.889	-15.7
877.062	41.64
877.234	88.75
877.407	-32.08
877.579	-15.7
877.752	-7.51
877.924	70.31
878.097	17.07
878.269	4.78
878.442	96.94
878.614	78.51
878.786	27.31
878.959	35.5
879.131	10.92
879.303	25.26
879.476	47.79
879.648	43.69
879.82	43.69
879.993	-38.23
880.165	82.6
880.337	-21.84
880.509	23.21
880.681	6.83
880.854	-40.28
881.026	39.59
881.198	74.41
881.37	92.84
881.542	-1.37
881.714	-25.94
881.886	90.79
882.058	68.27
882.23	53.93
882.402	72.36
882.574	37.55
882.746	-3.41
882.918	90.79
883.09	8.87
883.262	111.27
883.434	-38.23
883.606	-13.65
883.778	-1.37
883.95	-3.41
884.122	51.88
884.293	29.35
884.465	-3.41
884.637	58.03
884.809	-50.52
884.98	72.36
885.152	-1.37
885.324	31.4
885.496	70.31
885.667	-9.56
885.839	39.59
886.011	66.22
886.182	-23.89
886.354	72.36
886.525	33.45
886.697	-13.65
886.869	-9.56
887.04	25.26
887.212	6.83
887.383	43.69
887.555	19.11
887.726	23.21
887.897	33.45
888.069	45.74
888.24	23.21
888.412	51.88
888.583	4.78
888.754	66.22
888.926	-42.32
889.097	-56.66
889.268	-1.37
889.44	45.74
889.611	-21.84
889.782	4.78
889.953	-85.33
890.125	12.97
890.296	8.87
890.467	-32.08
890.638	-23.89
890.809	-7.51
890.98	29.35
891.151	-23.89
891.323	17.07
891.494	43.69
891.665	-3.41
891.836	6.83
892.007	-42.32
892.178	4.78
892.349	0.68
892.52	41.64
892.691	37.55
892.862	-58.71
893.032	-25.94
893.203	-7.51
893.374	-99.67
893.545	66.22
893.716	-56.66
893.887	15.02
894.057	76.46
894.228	-9.56
894.399	29.35
894.57	-38.23
894.74	-40.28
894.911	-7.51
895.082	45.74
895.253	84.65
895.423	45.74
895.594	60.07
895.764	-25.94
895.935	-19.8
896.106	33.45
896.276	2.73
896.447	41.64
896.617	-44.37
896.788	-7.51
896.958	12.97
897.129	-38.23
897.299	-1.37
897.47	35.5
897.64	31.4
897.81	51.88
897.981	43.69
898.151	10.92
898.322	0.68
898.492	84.65
898.662	-34.13
898.832	82.6
899.003	-46.42
899.173	-7.51
899.343	29.35
899.513	21.16
