Data from USB4F104151__47__10-23-27-375.txt Node

Date: Wed Mar 12 10:23:27 EDT 2025
User: louis
Spectrometer: USB4F10415
Trigger mode: 4
Integration Time (sec): 3.000000E-2
Scans to average: 1
Electric dark correction enabled: true
Nonlinearity correction enabled: false
Boxcar width: 0
XAxis mode: Wavelengths
Number of Pixels in Spectrum: 3648
>>>>>Begin Spectral Data<<<<<
178.204	-110.42
178.424	-110.42
178.644	-110.42
178.864	-114.52
179.084	-63.32
179.304	-48.98
179.524	-26.45
179.744	-28.5
179.964	55.47
180.184	-10.07
180.404	75.95
180.624	16.55
180.844	-42.84
181.064	39.08
181.283	30.89
181.503	-69.46
181.723	8.36
181.943	16.55
182.163	61.61
182.383	16.55
182.602	30.89
182.822	-24.4
183.042	-18.26
183.262	32.94
183.482	-55.12
183.701	-24.4
183.921	-8.02
184.141	-12.12
184.361	10.41
184.58	8.36
184.8	2.22
185.02	-3.93
185.239	-16.21
185.459	6.31
185.679	12.46
185.898	22.7
186.118	45.23
186.338	69.8
186.557	0.17
186.777	-44.88
186.997	-3.93
187.216	30.89
187.436	82.09
187.655	49.32
187.875	53.42
188.095	-8.02
188.314	-34.64
188.534	-16.21
188.753	-1.88
188.973	4.27
189.192	49.32
189.412	34.99
189.631	22.7
189.851	82.09
190.07	104.62
190.29	-16.21
190.509	-48.98
190.729	24.75
190.948	12.46
191.168	90.28
191.387	92.33
191.607	-32.6
191.826	67.75
192.045	-36.69
192.265	4.27
192.484	8.36
192.704	0.17
192.923	22.7
193.142	75.95
193.362	65.71
193.581	22.7
193.8	-20.31
194.02	34.99
194.239	16.55
194.458	34.99
194.678	61.61
194.897	-18.26
195.116	22.7
195.335	26.79
195.555	24.75
195.774	10.41
195.993	-46.93
196.212	16.55
196.432	-8.02
196.651	55.47
196.87	22.7
197.089	53.42
197.308	-14.17
197.528	147.62
197.747	32.94
197.966	-12.12
198.185	51.37
198.404	28.84
198.623	2.22
198.842	-28.5
199.062	37.03
199.281	20.65
199.5	-16.21
199.719	-3.93
199.938	92.33
200.157	98.47
200.376	-81.75
200.595	0.17
200.814	-32.6
201.033	8.36
201.252	69.8
201.471	55.47
201.69	18.6
201.909	57.51
202.128	57.51
202.347	2.22
202.566	47.27
202.785	39.08
203.004	-22.36
203.223	-1.88
203.442	-24.4
203.661	32.94
203.879	47.27
204.098	41.13
204.317	41.13
204.536	32.94
204.755	16.55
204.974	34.99
205.193	-51.03
205.411	104.62
205.63	82.09
205.849	-53.08
206.068	24.75
206.287	4.27
206.505	55.47
206.724	75.95
206.943	8.36
207.162	55.47
207.381	-38.74
207.599	10.41
207.818	-75.6
208.037	57.51
208.255	-16.21
208.474	43.18
208.693	-12.12
208.911	57.51
209.13	-8.02
209.349	49.32
209.567	18.6
209.786	8.36
210.005	8.36
210.223	6.31
210.442	20.65
210.661	6.31
210.879	16.55
211.098	-30.55
211.316	43.18
211.535	43.18
211.753	16.55
211.972	57.51
212.191	16.55
212.409	2.22
212.628	-26.45
212.846	32.94
213.065	96.43
213.283	-18.26
213.502	14.51
213.72	-16.21
213.938	4.27
214.157	30.89
214.375	-24.4
214.594	32.94
214.812	69.8
215.031	37.03
215.249	0.17
215.467	28.84
215.686	22.7
215.904	26.79
216.122	30.89
216.341	104.62
216.559	-3.93
216.778	55.47
216.996	86.19
217.214	-30.55
217.432	-10.07
217.651	127.14
217.869	6.31
218.087	30.89
218.306	-34.64
218.524	-24.4
218.742	-65.36
218.96	82.09
219.179	-22.36
219.397	-55.12
219.615	-20.31
219.833	65.71
220.051	-28.5
220.27	94.38
220.488	14.51
220.706	37.03
220.924	-34.64
221.142	12.46
221.36	-44.88
221.578	30.89
221.796	0.17
222.015	67.75
222.233	39.08
222.451	59.56
222.669	-100.18
222.887	24.75
223.105	-1.88
223.323	43.18
223.541	-63.32
223.759	51.37
223.977	-36.69
224.195	73.9
224.413	55.47
224.631	67.75
224.849	0.17
225.067	57.51
225.285	-53.08
225.503	45.23
225.721	71.85
225.939	-5.97
226.157	-8.02
226.375	30.89
226.592	6.31
226.81	32.94
227.028	77.99
227.246	51.37
227.464	121
227.682	53.42
227.9	96.43
228.117	37.03
228.335	55.47
228.553	12.46
228.771	32.94
228.989	26.79
229.206	16.55
229.424	-3.93
229.642	6.31
229.86	26.79
230.077	8.36
230.295	51.37
230.513	32.94
230.731	0.17
230.948	82.09
231.166	16.55
231.384	8.36
231.601	0.17
231.819	20.65
232.037	-36.69
232.254	-102.23
232.472	32.94
232.689	-1.88
232.907	-8.02
233.125	-26.45
233.342	67.75
233.56	37.03
233.777	-3.93
233.995	-16.21
234.213	28.84
234.43	-3.93
234.648	-20.31
234.865	4.27
235.083	65.71
235.3	-26.45
235.518	12.46
235.735	24.75
235.953	22.7
236.17	22.7
236.388	28.84
236.605	-5.97
236.822	53.42
237.04	16.55
237.257	18.6
237.475	84.14
237.692	104.62
237.909	45.23
238.127	-1.88
238.344	51.37
238.562	104.62
238.779	-67.41
238.996	-55.12
239.214	-48.98
239.431	8.36
239.648	12.46
239.865	55.47
240.083	53.42
240.3	32.94
240.517	-42.84
240.735	-28.5
240.952	57.51
241.169	80.04
241.386	41.13
241.603	59.56
241.821	4.27
242.038	39.08
242.255	8.36
242.472	0.17
242.689	90.28
242.907	16.55
243.124	24.75
243.341	88.23
243.558	10.41
243.775	12.46
243.992	26.79
244.209	22.7
244.426	28.84
244.643	77.99
244.86	-10.07
245.078	-34.64
245.295	73.9
245.512	2.22
245.729	41.13
245.946	77.99
246.163	-26.45
246.38	-57.17
246.597	65.71
246.814	49.32
247.031	-30.55
247.248	94.38
247.464	116.9
247.681	14.51
247.898	30.89
248.115	67.75
248.332	67.75
248.549	80.04
248.766	82.09
248.983	98.47
249.2	-36.69
249.417	71.85
249.633	32.94
249.85	6.31
250.067	28.84
250.284	71.85
250.501	104.62
250.717	26.79
250.934	-40.79
251.151	59.56
251.368	65.71
251.585	96.43
251.801	-32.6
252.018	4.27
252.235	80.04
252.451	41.13
252.668	-42.84
252.885	73.9
253.102	-57.17
253.318	-12.12
253.535	57.51
253.752	-75.6
253.968	0.17
254.185	69.8
254.401	22.7
254.618	22.7
254.835	-8.02
255.051	96.43
255.268	57.51
255.484	14.51
255.701	-14.17
255.917	88.23
256.134	-14.17
256.351	49.32
256.567	80.04
256.784	-24.4
257	71.85
257.217	98.47
257.433	-10.07
257.65	-14.17
257.866	43.18
258.082	65.71
258.299	-34.64
258.515	57.51
258.732	73.9
258.948	-10.07
259.165	43.18
259.381	73.9
259.597	-10.07
259.814	28.84
260.03	26.79
260.246	0.17
260.463	73.9
260.679	92.33
260.895	49.32
261.112	34.99
261.328	37.03
261.544	73.9
261.761	108.71
261.977	-26.45
262.193	24.75
262.409	82.09
262.626	-26.45
262.842	57.51
263.058	-28.5
263.274	-3.93
263.49	-1.88
263.707	14.51
263.923	8.36
264.139	-8.02
264.355	-44.88
264.571	30.89
264.787	43.18
265.004	73.9
265.22	65.71
265.436	-40.79
265.652	-8.02
265.868	32.94
266.084	12.46
266.3	0.17
266.516	61.61
266.732	67.75
266.948	18.6
267.164	6.31
267.38	4.27
267.596	63.66
267.812	24.75
268.028	110.76
268.244	-36.69
268.46	4.27
268.676	49.32
268.892	-10.07
269.108	24.75
269.324	-28.5
269.54	-20.31
269.756	65.71
269.972	-3.93
270.188	84.14
270.403	28.84
270.619	53.42
270.835	84.14
271.051	49.32
271.267	57.51
271.483	49.32
271.698	22.7
271.914	59.56
272.13	16.55
272.346	-20.31
272.562	-14.17
272.777	67.75
272.993	-5.97
273.209	-10.07
273.425	49.32
273.64	0.17
273.856	34.99
274.072	37.03
274.287	24.75
274.503	39.08
274.719	49.32
274.934	65.71
275.15	-20.31
275.366	24.75
275.581	10.41
275.797	43.18
276.012	49.32
276.228	18.6
276.444	28.84
276.659	57.51
276.875	12.46
277.09	28.84
277.306	-24.4
277.521	80.04
277.737	41.13
277.952	6.31
278.168	16.55
278.383	41.13
278.599	18.6
278.814	-59.22
279.03	53.42
279.245	100.52
279.461	39.08
279.676	-24.4
279.892	-69.46
280.107	69.8
280.322	65.71
280.538	123.05
280.753	30.89
280.969	-32.6
281.184	8.36
281.399	0.17
281.615	8.36
281.83	59.56
282.045	-18.26
282.26	-8.02
282.476	24.75
282.691	69.8
282.906	2.22
283.122	22.7
283.337	6.31
283.552	41.13
283.767	90.28
283.983	45.23
284.198	-1.88
284.413	57.51
284.628	-26.45
284.843	10.41
285.058	16.55
285.274	39.08
285.489	24.75
285.704	39.08
285.919	4.27
286.134	2.22
286.349	12.46
286.564	22.7
286.779	32.94
286.995	57.51
287.21	16.55
287.425	-22.36
287.64	18.6
287.855	86.19
288.07	16.55
288.285	69.8
288.5	57.51
288.715	6.31
288.93	-12.12
289.145	-24.4
289.36	-30.55
289.575	26.79
289.79	49.32
290.004	18.6
290.219	30.89
290.434	34.99
290.649	63.66
290.864	67.75
291.079	-18.26
291.294	65.71
291.509	-67.41
291.724	24.75
291.938	4.27
292.153	77.99
292.368	84.14
292.583	37.03
292.798	0.17
293.012	-8.02
293.227	-26.45
293.442	39.08
293.657	71.85
293.871	34.99
294.086	39.08
294.301	47.27
294.516	37.03
294.73	47.27
294.945	6.31
295.16	6.31
295.374	41.13
295.589	6.31
295.804	57.51
296.018	43.18
296.233	16.55
296.447	86.19
296.662	6.31
296.877	55.47
297.091	63.66
297.306	8.36
297.52	73.9
297.735	-8.02
297.949	18.6
298.164	100.52
298.378	41.13
298.593	47.27
298.807	-24.4
299.022	45.23
299.236	98.47
299.451	39.08
299.665	63.66
299.88	51.37
300.094	39.08
300.309	20.65
300.523	65.71
300.737	-8.02
300.952	65.71
301.166	10.41
301.381	-24.4
301.595	10.41
301.809	-5.97
302.024	80.04
302.238	-30.55
302.452	86.19
302.667	65.71
302.881	39.08
303.095	28.84
303.309	32.94
303.524	39.08
303.738	37.03
303.952	-24.4
304.166	123.05
304.381	-53.08
304.595	53.42
304.809	-16.21
305.023	57.51
305.237	43.18
305.452	32.94
305.666	69.8
305.88	-18.26
306.094	18.6
306.308	47.27
306.522	98.47
306.736	71.85
306.95	45.23
307.164	49.32
307.379	47.27
307.593	114.86
307.807	49.32
308.021	-1.88
308.235	131.24
308.449	18.6
308.663	20.65
308.877	71.85
309.091	24.75
309.305	84.14
309.519	2.22
309.733	22.7
309.947	30.89
310.161	98.47
310.374	18.6
310.588	73.9
310.802	2.22
311.016	6.31
311.23	45.23
311.444	10.41
311.658	65.71
311.872	37.03
312.085	82.09
312.299	69.8
312.513	22.7
312.727	10.41
312.941	-20.31
313.154	20.65
313.368	0.17
313.582	49.32
313.796	51.37
314.009	12.46
314.223	6.31
314.437	53.42
314.651	45.23
314.864	63.66
315.078	77.99
315.292	-20.31
315.505	16.55
315.719	12.46
315.933	69.8
316.146	-24.4
316.36	-8.02
316.573	0.17
316.787	28.84
317.001	49.32
317.214	6.31
317.428	37.03
317.641	-8.02
317.855	39.08
318.068	37.03
318.282	14.51
318.495	8.36
318.709	67.75
318.922	-26.45
319.136	32.94
319.349	49.32
319.563	43.18
319.776	16.55
319.99	20.65
320.203	-8.02
320.417	-10.07
320.63	90.28
320.843	55.47
321.057	39.08
321.27	24.75
321.483	18.6
321.697	86.19
321.91	6.31
322.124	28.84
322.337	-12.12
322.55	-18.26
322.763	-12.12
322.977	10.41
323.19	-20.31
323.403	-36.69
323.617	61.61
323.83	43.18
324.043	0.17
324.256	55.47
324.469	-1.88
324.683	28.84
324.896	-1.88
325.109	-5.97
325.322	-3.93
325.535	30.89
325.748	8.36
325.962	20.65
326.175	67.75
326.388	-1.88
326.601	106.67
326.814	10.41
327.027	53.42
327.24	114.86
327.453	-32.6
327.666	26.79
327.879	102.57
328.092	59.56
328.305	77.99
328.518	4.27
328.731	0.17
328.944	24.75
329.157	84.14
329.37	20.65
329.583	63.66
329.796	96.43
330.009	-30.55
330.222	65.71
330.435	108.71
330.648	32.94
330.861	77.99
331.073	59.56
331.286	82.09
331.499	32.94
331.712	32.94
331.925	-26.45
332.138	6.31
332.35	39.08
332.563	-36.69
332.776	20.65
332.989	-14.17
333.202	20.65
333.414	80.04
333.627	6.31
333.84	-8.02
334.053	14.51
334.265	121
334.478	43.18
334.691	-34.64
334.903	-16.21
335.116	8.36
335.329	41.13
335.541	98.47
335.754	121
335.966	69.8
336.179	28.84
336.392	12.46
336.604	32.94
336.817	98.47
337.029	41.13
337.242	37.03
337.454	20.65
337.667	69.8
337.88	69.8
338.092	-1.88
338.305	28.84
338.517	-3.93
338.729	-20.31
338.942	43.18
339.154	28.84
339.367	53.42
339.579	37.03
339.792	37.03
340.004	-1.88
340.217	-18.26
340.429	102.57
340.641	8.36
340.854	-36.69
341.066	94.38
341.278	65.71
341.491	84.14
341.703	61.61
341.915	24.75
342.128	96.43
342.34	10.41
342.552	57.51
342.764	28.84
342.977	71.85
343.189	24.75
343.401	135.34
343.613	-24.4
343.826	47.27
344.038	88.23
344.25	-8.02
344.462	57.51
344.674	24.75
344.886	8.36
345.099	26.79
345.311	123.05
345.523	39.08
345.735	12.46
345.947	41.13
346.159	-14.17
346.371	-10.07
346.583	8.36
346.795	41.13
347.007	84.14
347.219	92.33
347.431	34.99
347.643	10.41
347.855	49.32
348.067	82.09
348.279	-42.84
348.491	-8.02
348.703	71.85
348.915	2.22
349.127	55.47
349.339	65.71
349.551	28.84
349.763	102.57
349.975	86.19
350.187	41.13
350.399	123.05
350.61	65.71
350.822	-20.31
351.034	77.99
351.246	106.67
351.458	34.99
351.669	12.46
351.881	75.95
352.093	125.1
352.305	84.14
352.517	39.08
352.728	-22.36
352.94	16.55
353.152	30.89
353.363	12.46
353.575	47.27
353.787	84.14
353.999	41.13
354.21	41.13
354.422	37.03
354.633	53.42
354.845	75.95
355.057	-20.31
355.268	73.9
355.48	28.84
355.692	0.17
355.903	-3.93
356.115	14.51
356.326	-20.31
356.538	30.89
356.749	86.19
356.961	30.89
357.172	8.36
357.384	45.23
357.595	90.28
357.807	30.89
358.018	18.6
358.23	114.86
358.441	84.14
358.653	84.14
358.864	104.62
359.075	24.75
359.287	49.32
359.498	77.99
359.709	47.27
359.921	-5.97
360.132	49.32
360.344	24.75
360.555	12.46
360.766	39.08
360.977	59.56
361.189	57.51
361.4	98.47
361.611	22.7
361.823	100.52
362.034	129.19
362.245	0.17
362.456	0.17
362.667	20.65
362.879	39.08
363.09	8.36
363.301	41.13
363.512	57.51
363.723	-5.97
363.935	61.61
364.146	92.33
364.357	-10.07
364.568	90.28
364.779	57.51
364.99	77.99
365.201	49.32
365.412	77.99
365.623	12.46
365.834	86.19
366.045	-3.93
366.256	63.66
366.467	75.95
366.678	57.51
366.889	12.46
367.1	34.99
367.311	18.6
367.522	77.99
367.733	-1.88
367.944	28.84
368.155	-14.17
368.366	59.56
368.577	30.89
368.788	82.09
368.999	49.32
369.209	57.51
369.42	43.18
369.631	159.91
369.842	8.36
370.053	-5.97
370.264	34.99
370.474	14.51
370.685	20.65
370.896	96.43
371.107	80.04
371.317	30.89
371.528	8.36
371.739	43.18
371.95	39.08
372.16	53.42
372.371	-12.12
372.582	47.27
372.792	47.27
373.003	92.33
373.214	30.89
373.424	53.42
373.635	39.08
373.846	57.51
374.056	24.75
374.267	86.19
374.477	112.81
374.688	28.84
374.898	-8.02
375.109	37.03
375.319	24.75
375.53	108.71
375.74	98.47
375.951	16.55
376.161	8.36
376.372	53.42
376.582	39.08
376.793	84.14
377.003	57.51
377.214	61.61
377.424	28.84
377.635	61.61
377.845	14.51
378.055	123.05
378.266	45.23
378.476	32.94
378.686	14.51
378.897	75.95
379.107	61.61
379.317	41.13
379.528	57.51
379.738	100.52
379.948	12.46
380.158	94.38
380.369	6.31
380.579	18.6
380.789	-20.31
380.999	67.75
381.21	30.89
381.42	151.72
381.63	41.13
381.84	88.23
382.05	69.8
382.261	16.55
382.471	69.8
382.681	86.19
382.891	77.99
383.101	57.51
383.311	-32.6
383.521	30.89
383.731	84.14
383.941	98.47
384.151	-1.88
384.361	49.32
384.571	147.62
384.781	84.14
384.991	77.99
385.201	116.9
385.411	65.71
385.621	92.33
385.831	-1.88
386.041	32.94
386.251	-22.36
386.461	92.33
386.671	121
386.881	43.18
387.091	49.32
387.301	53.42
387.511	59.56
387.72	43.18
387.93	75.95
388.14	12.46
388.35	20.65
388.56	104.62
388.769	63.66
388.979	135.34
389.189	45.23
389.399	127.14
389.609	75.95
389.818	63.66
390.028	102.57
390.238	59.56
390.447	61.61
390.657	71.85
390.867	49.32
391.076	39.08
391.286	92.33
391.496	65.71
391.705	123.05
391.915	129.19
392.125	43.18
392.334	166.06
392.544	75.95
392.753	39.08
392.963	69.8
393.172	90.28
393.382	22.7
393.591	180.39
393.801	45.23
394.01	123.05
394.22	73.9
394.429	96.43
394.639	82.09
394.848	75.95
395.058	57.51
395.267	82.09
395.477	49.32
395.686	67.75
395.895	147.62
396.105	159.91
396.314	100.52
396.524	118.95
396.733	18.6
396.942	157.86
397.152	22.7
397.361	96.43
397.57	106.67
397.78	41.13
397.989	77.99
398.198	207.02
398.407	112.81
398.617	98.47
398.826	65.71
399.035	94.38
399.244	145.58
399.453	114.86
399.663	166.06
399.872	164.01
400.081	149.67
400.29	116.9
400.499	151.72
400.708	145.58
400.917	170.15
401.127	41.13
401.336	61.61
401.545	145.58
401.754	153.77
401.963	96.43
402.172	143.53
402.381	161.96
402.59	145.58
402.799	98.47
403.008	166.06
403.217	92.33
403.426	139.43
403.635	100.52
403.844	141.48
404.053	32.94
404.262	147.62
404.471	159.91
404.68	129.19
404.888	168.1
405.097	164.01
405.306	137.38
405.515	174.25
405.724	200.87
405.933	114.86
406.142	196.78
406.35	188.58
406.559	194.73
406.768	198.82
406.977	213.16
407.185	223.4
407.394	166.06
407.603	178.34
407.812	284.84
408.02	280.74
408.229	211.11
408.438	215.21
408.646	200.87
408.855	280.74
409.064	262.31
409.272	258.21
409.481	389.28
409.69	342.18
409.898	317.61
410.107	311.46
410.315	368.81
410.524	344.23
410.733	364.71
410.941	336.04
411.15	366.76
411.358	377
411.567	458.92
411.775	397.48
411.984	430.24
412.192	479.4
412.401	467.11
412.609	540.83
412.818	614.56
413.026	497.83
413.234	622.75
413.443	563.36
413.651	585.89
413.86	614.56
414.068	655.52
414.276	614.56
414.485	794.78
414.693	725.15
414.901	796.83
415.11	794.78
415.318	829.6
415.526	792.73
415.734	802.97
415.943	891.04
416.151	921.76
416.359	944.28
416.567	932
416.776	1034.39
416.984	1038.49
417.192	1175.7
417.4	1030.3
417.608	1058.97
417.817	1194.14
418.025	1185.94
418.233	1321.11
418.441	1200.28
418.649	1341.59
418.857	1429.65
419.065	1446.04
419.273	1396.89
419.481	1495.19
419.689	1712.27
419.897	1585.3
420.105	1663.12
420.313	1874.06
420.521	1792.14
420.729	1847.44
420.937	1855.63
421.145	1923.21
421.353	2033.8
421.561	2187.4
421.769	2203.79
421.977	2265.22
422.185	2148.49
422.393	2492.55
422.601	2611.33
422.809	2553.99
423.017	2500.74
423.224	2693.25
423.432	2855.04
423.64	2799.74
423.848	2924.67
424.056	2934.91
424.263	3225.72
424.471	3123.32
424.679	3276.92
424.887	3420.28
425.094	3571.83
425.302	3541.11
425.51	3780.72
425.718	3885.17
425.925	3885.17
426.133	3973.23
426.341	4075.63
426.548	4395.11
426.756	4509.8
426.964	4583.52
427.171	4761.7
427.379	4890.72
427.586	4833.38
427.794	4976.73
428.001	5324.89
428.209	5501.01
428.417	5349.47
428.624	5863.51
428.832	5847.12
429.039	5654.61
429.247	5906.51
429.454	6375.5
429.662	6770.76
429.869	6197.32
430.076	6840.39
430.284	6512.71
430.491	6948.93
430.699	7366.71
430.906	7178.3
431.114	7354.43
431.321	7635
431.528	7741.49
431.736	8144.94
431.943	8831.01
432.15	8306.73
432.358	8454.19
432.565	9015.33
432.772	8957.99
432.979	9322.52
433.187	9482.27
433.394	9568.28
433.601	10227.73
433.808	10414.09
434.016	10205.2
434.223	10614.79
434.43	11231.23
434.637	10973.19
434.844	11581.43
435.052	12070.9
435.259	11763.7
435.466	11917.3
435.673	11745.27
435.88	12650.47
436.087	13242.34
436.294	13332.45
436.501	12804.07
436.708	13373.41
436.915	13586.4
437.122	14505.93
437.329	14311.38
437.537	14794.7
437.743	14766.03
437.95	14921.67
438.157	15740.86
438.364	15986.61
438.571	16201.65
438.778	16342.96
438.985	17958.81
439.192	16934.82
439.399	17620.89
439.606	17203.11
439.813	17846.17
440.02	19107.72
440.227	18722.7
440.433	18466.7
440.64	19287.94
440.847	19142.53
441.054	19476.35
441.261	20952.94
441.467	20471.67
441.674	21182.31
441.881	21794.65
442.088	21729.12
442.294	21413.73
442.501	21972.83
442.708	22409.04
442.914	23281.48
443.121	24397.62
443.328	24000.32
443.534	25595.68
443.741	24889.13
443.948	24295.22
444.154	26111.77
444.361	25751.33
444.568	26023.71
444.774	26343.19
444.981	26109.72
445.187	27184.91
445.394	28413.69
445.6	27739.91
445.807	30688.98
446.013	29261.55
446.22	30131.93
446.426	30885.59
446.633	31190.73
446.839	32233.15
447.046	30701.27
447.252	32411.32
447.459	32532.15
447.665	32155.33
447.871	34109.09
448.078	35075.73
448.284	33369.77
448.491	34436.77
448.697	35606.16
448.903	36243.07
449.11	36161.15
449.316	35759.75
449.522	36327.04
449.728	37369.46
449.935	37555.82
450.141	37365.36
450.347	38495.84
450.553	37119.6
450.76	37379.7
450.966	38524.51
451.172	38358.63
451.378	39306.83
451.584	38635.1
451.791	38893.15
451.997	39089.75
452.203	39929.42
452.409	39589.45
452.615	39571.02
452.821	38606.43
453.027	37588.59
453.233	39155.29
453.44	37809.77
453.646	38266.47
453.852	38641.25
454.058	39071.32
454.264	37791.34
454.47	38430.3
454.676	37682.8
454.882	38815.32
455.088	35583.63
455.294	36025.99
455.5	36413.06
455.705	36734.59
455.911	35192.47
456.117	34238.11
456.323	34172.58
456.529	32495.29
456.735	33568.43
456.941	32818.87
457.147	32067.27
457.352	31153.87
457.558	30944.98
457.764	30803.67
457.97	30258.91
458.176	29695.72
458.381	29652.71
458.587	28094.21
458.793	27832.07
458.999	26541.85
459.204	28786.42
459.41	27873.03
459.616	26261.27
459.821	26210.07
460.027	25855.78
460.233	25339.69
460.438	24162.11
460.644	24489.78
460.85	23328.58
461.055	23035.72
461.261	22884.17
461.466	21266.28
461.672	20612.98
461.878	21946.2
462.083	20670.32
462.289	20473.71
462.494	20012.92
462.7	19140.49
462.905	18853.77
463.111	19636.1
463.316	19529.6
463.522	18794.38
463.727	18986.89
463.932	19044.23
464.138	18745.23
464.343	18866.06
464.549	18519.95
464.754	18988.94
464.959	19144.58
465.165	18562.96
465.37	18007.96
465.575	17285.03
465.781	17995.67
465.986	18550.67
466.191	17592.22
466.397	17268.64
466.602	16258.99
466.807	17041.32
467.012	17186.72
467.218	16773.03
467.423	16746.41
467.628	16801.71
467.833	17577.89
468.038	16951.21
468.244	16504.75
468.449	17059.75
468.654	16641.96
468.859	16521.13
469.064	16261.04
469.269	15624.12
469.474	15859.64
469.679	15919.03
469.885	15577.02
470.09	15796.15
470.295	15724.47
470.5	15214.53
470.705	15402.94
470.91	15204.29
471.115	14895.05
471.32	14966.73
471.525	15048.65
471.73	14766.03
471.935	14639.05
472.139	14139.35
472.344	14172.11
472.549	14254.03
472.754	13823.96
472.959	13832.15
473.164	13586.4
473.369	13348.83
473.574	14018.52
473.778	13520.86
473.983	13490.14
474.188	13408.22
474.393	12910.57
474.598	12943.33
474.802	12816.36
475.007	12793.83
475.212	12797.93
475.417	12417.01
475.621	12464.11
475.826	12296.18
476.031	12118
476.235	11902.97
476.44	12107.76
476.645	11624.44
476.849	11757.56
477.054	11755.51
477.259	11548.67
477.463	11468.8
477.668	11519.99
477.872	11411.45
478.077	11395.07
478.282	10819.59
478.486	10688.52
478.691	10706.95
478.895	10663.94
479.1	10786.82
479.304	10747.91
479.509	10424.33
479.713	10670.09
479.918	10430.48
480.122	10231.82
480.326	10594.31
480.531	10412.04
480.735	10348.56
480.94	10057.75
481.144	10344.46
481.348	10010.64
481.553	10194.96
481.757	9992.21
481.961	10088.46
482.166	10252.3
482.37	10352.65
482.574	9904.15
482.778	9908.24
482.983	10078.22
483.187	10149.9
483.391	10149.9
483.595	9922.58
483.8	10070.03
484.004	9959.44
484.208	10020.88
484.412	10020.88
484.616	9988.11
484.821	9994.26
485.025	9850.9
485.229	10192.91
485.433	10102.8
485.637	10108.94
485.841	9871.38
486.045	9895.96
486.249	9889.81
486.453	9850.9
486.657	9957.39
486.861	10172.43
487.065	9695.25
487.269	10184.72
487.473	9664.54
487.677	10082.32
487.881	10110.99
488.085	10072.08
488.289	9947.15
488.493	9928.72
488.697	10072.08
488.901	10123.28
489.105	9986.07
489.309	10174.48
489.512	10133.52
489.716	10221.58
489.92	10205.2
490.124	10158.1
490.328	10354.7
490.531	10123.28
490.735	10250.25
490.939	10184.72
491.143	10225.68
491.346	10289.17
491.55	10377.23
491.754	10420.24
491.958	10522.63
492.161	10450.96
492.365	10598.41
492.569	10641.42
492.772	10530.83
492.976	10663.94
493.18	10938.37
493.383	10891.27
493.587	11032.58
493.79	11094.02
493.994	10858.5
494.197	10909.7
494.401	11253.76
494.605	11458.56
494.808	11642.87
495.012	11407.36
495.215	11644.92
495.419	11554.81
495.622	11638.78
495.825	11542.52
496.029	11751.42
496.232	12115.95
496.436	11937.78
496.639	12122.1
496.843	12269.55
497.046	12662.76
497.249	12658.67
497.453	12888.04
497.656	12834.79
497.859	12832.74
498.063	13232.1
498.266	13371.36
498.469	13017.06
498.673	13539.29
498.876	13449.18
499.079	13887.45
499.282	13721.56
499.485	14184.4
499.689	14135.25
499.892	14268.37
500.095	14075.86
500.298	14567.37
500.501	14505.93
500.705	15019.97
500.908	14936.01
501.111	15253.44
501.314	15361.98
501.517	15386.56
501.72	15931.32
501.923	15648.7
502.126	16050.1
502.329	16269.23
502.532	16293.81
502.735	16539.57
502.938	16840.62
503.141	16963.5
503.344	17225.64
503.547	17135.53
503.75	17516.45
503.953	18018.2
504.156	18065.3
504.359	18306.96
504.562	18053.02
504.765	18591.63
504.968	18636.69
505.17	18808.72
505.373	19111.82
505.576	19529.6
505.779	19476.35
505.982	19545.98
506.185	20162.42
506.387	20156.28
506.59	20361.08
506.793	20723.57
506.996	20549.49
507.198	21204.84
507.401	21018.47
507.604	21350.24
507.807	21686.11
508.009	21704.54
508.212	22200.15
508.415	22273.88
508.617	22835.02
508.82	22837.07
509.022	22411.09
509.225	23195.46
509.428	23338.82
509.63	23732.03
509.833	24026.94
510.035	24565.56
510.238	24160.06
510.44	24483.64
510.643	24862.51
510.845	25106.22
511.048	25284.39
511.25	25431.85
511.453	25667.36
511.655	26558.23
511.858	26285.85
512.06	26347.29
512.262	26728.21
512.465	26722.07
512.667	27393.8
512.87	27811.59
513.072	27879.17
513.274	28364.54
513.477	28446.46
513.679	28647.16
513.881	29089.52
514.084	29292.27
514.286	29630.18
514.488	29560.55
514.69	30439.13
514.893	30287.58
515.095	30478.04
515.297	30979.79
515.499	30955.22
515.701	31424.2
515.904	31473.35
516.106	31925.96
516.308	32194.24
516.51	32577.21
516.712	32646.84
516.914	33078.96
517.116	33607.34
517.318	33490.6
517.52	33711.78
517.722	34229.92
517.925	34518.68
518.127	35182.23
518.329	35083.92
518.531	35143.31
518.733	35432.08
518.935	36126.34
519.136	35919.49
519.338	36890.23
519.54	36767.35
519.742	37095.03
519.944	37174.9
520.146	37949.03
520.348	38065.77
520.55	38424.16
520.752	38710.88
520.954	39274.07
521.155	38880.86
521.357	39781.96
521.559	40054.34
521.761	40298.05
521.963	40429.12
522.164	40390.21
522.366	41080.38
522.568	41276.98
522.77	41076.28
522.971	42214.95
523.173	41621.04
523.375	42092.07
523.576	42124.84
523.778	42327.59
523.98	42862.11
524.181	43157.02
524.383	43075.1
524.584	43304.47
524.786	43746.83
524.988	43564.56
525.189	44033.55
525.391	44541.44
525.592	44639.75
525.794	45008.38
525.995	45000.19
526.197	45041.15
526.398	45116.92
526.6	45848.05
526.801	45680.11
527.003	45661.68
527.204	45698.55
527.406	46288.36
527.607	46394.85
527.808	46761.44
528.01	46204.39
528.211	46679.52
528.412	47498.71
528.614	47408.6
528.815	47009.25
529.016	47689.17
529.218	47140.32
529.419	47287.77
529.62	47869.39
529.822	47617.49
530.023	47754.71
530.224	47830.48
530.425	47949.26
530.626	47777.23
530.828	47756.75
531.029	49059.26
531.23	48178.64
531.431	47984.08
531.632	48528.84
531.833	48471.5
532.035	48469.45
532.236	48985.54
532.437	48461.26
532.638	48666.05
532.839	48819.65
533.04	49092.03
533.241	48643.52
533.442	49534.39
533.643	49292.73
533.844	48932.29
534.045	49061.31
534.246	48805.31
534.447	49415.61
534.648	49403.32
534.849	49145.28
535.05	49184.19
535.251	49589.69
535.451	49307.07
535.652	49620.41
535.853	49259.96
536.054	49698.23
536.255	49343.93
536.456	49141.18
536.657	50050.48
536.857	49278.39
537.058	48997.82
537.259	49604.02
537.46	49421.75
537.66	49137.08
537.861	49227.2
538.062	49300.92
538.263	49632.69
538.463	49382.84
538.664	49618.36
538.865	49468.86
539.065	49780.15
539.266	48920
539.466	50105.77
539.667	48797.12
539.868	50103.73
540.068	49219
540.269	49309.11
540.469	49718.71
540.67	49202.62
540.87	49182.14
541.071	49276.35
541.271	49618.36
541.472	49165.76
541.672	49153.47
541.873	49333.69
542.073	48561.61
542.274	49604.02
542.474	48893.38
542.675	48844.23
542.875	49358.27
543.075	49409.46
543.276	48362.95
543.476	49728.95
543.676	48891.33
543.877	49259.96
544.077	49243.58
544.277	48842.18
544.478	48678.34
544.678	48965.06
544.878	48854.47
545.078	48805.31
545.279	49051.07
545.479	48610.76
545.679	49176
545.879	49116.61
546.079	48737.73
546.28	48993.73
546.48	48195.02
546.68	49051.07
546.88	49204.67
547.08	48911.81
547.28	48987.58
547.48	48543.17
547.68	48534.98
547.88	48811.46
548.081	48893.38
548.281	48473.54
548.481	48504.26
548.681	49167.8
548.881	48416.2
549.081	48999.87
549.28	48621
549.48	48860.61
549.68	48317.9
549.88	49264.06
550.08	48371.14
550.28	48430.54
550.48	48139.72
550.68	49096.13
550.88	48307.66
551.08	48063.95
551.279	48715.2
551.479	48131.53
551.679	48446.92
551.879	48010.7
552.079	48838.08
552.278	48203.21
552.478	48338.38
552.678	47715.79
552.878	48625.09
553.077	48197.07
553.277	47492.57
553.477	48666.05
553.676	48297.42
553.876	48539.08
554.076	48047.57
554.275	48342.47
554.475	47613.4
554.674	48287.18
554.874	47732.18
555.074	48121.29
555.273	48162.25
555.473	48272.84
555.672	47621.59
555.872	47637.97
556.071	47949.26
556.271	48211.4
556.47	47879.63
556.67	47179.23
556.869	47310.3
557.068	47449.56
557.268	47132.12
557.467	47195.61
557.667	47449.56
557.866	47052.25
558.065	47500.76
558.265	46999.01
558.464	46740.96
558.663	47594.96
558.863	46906.85
559.062	47574.48
559.261	46450.15
559.461	47363.54
559.66	46497.25
559.859	46556.64
560.058	46540.26
560.258	46556.64
560.457	46007.79
560.656	46777.82
560.855	46587.36
561.054	46368.23
561.253	46173.67
561.453	46200.3
561.652	46480.87
561.851	46290.41
562.05	46120.43
562.249	45696.5
562.448	46073.32
562.647	45688.31
562.846	45678.07
563.045	45749.74
563.244	45557.24
563.443	46130.67
563.642	44750.34
563.841	45284.86
564.04	45035
564.239	45348.34
564.438	45020.67
564.637	45323.77
564.836	44754.43
565.035	44586.5
565.234	44533.25
565.432	44649.99
565.631	44451.33
565.83	44424.71
566.029	44469.76
566.228	44213.77
566.427	44267.02
566.625	43828.75
566.824	43804.17
567.023	44035.59
567.222	42907.16
567.42	43882
567.619	43480.6
567.818	43370
568.016	42909.21
568.215	43638.29
568.414	43128.34
568.612	43136.54
568.811	42440.23
569.01	43013.66
569.208	42466.85
569.407	42950.17
569.605	42071.59
569.804	42608.16
570.002	42466.85
570.201	42245.67
570.4	42087.98
570.598	42116.65
570.797	41551.41
570.995	41649.71
571.193	41326.13
571.392	41981.48
571.59	41209.4
571.789	41518.64
571.987	40805.95
572.186	41344.56
572.384	40611.39
572.582	41221.69
572.781	40920.63
572.979	40785.47
573.177	40920.63
573.376	41068.09
573.574	40404.55
573.772	40859.2
573.971	40269.38
574.169	40175.17
574.367	40037.96
574.565	40203.85
574.763	40037.96
574.962	39953.99
575.16	39411.28
575.358	39732.81
575.556	39153.24
575.754	40074.82
575.952	38893.15
576.151	39777.87
576.349	38766.17
576.547	38839.9
576.745	39079.51
576.943	38733.4
577.141	38256.23
577.339	38983.26
577.537	38202.98
577.735	38291.04
577.933	38100.58
578.131	38467.17
578.329	37791.34
578.527	37967.46
578.725	37633.64
578.923	38131.3
579.121	37746.28
579.319	37594.73
579.516	37709.42
579.714	37584.49
579.912	37348.98
580.11	37166.71
580.308	37754.47
580.506	37064.31
580.704	36507.26
580.901	37023.35
581.099	37135.99
581.297	36677.24
581.495	36607.61
581.692	37287.54
581.89	36028.04
582.088	36402.82
582.285	36494.97
582.483	36550.27
582.681	36136.58
582.878	35939.97
583.076	35665.55
583.274	35980.93
583.471	35321.49
583.669	35796.62
583.866	35186.32
584.064	35851.91
584.262	34918.04
584.459	35618.44
584.657	35329.68
584.854	35456.65
585.052	34295.46
585.249	34965.14
585.447	34596.51
585.644	34748.06
585.841	34371.23
586.039	35026.58
586.236	34152.1
586.434	34514.59
586.631	34283.17
586.828	34455.2
587.026	34254.5
587.223	33789.61
587.42	33746.6
587.618	33902.25
587.815	33779.37
588.012	33267.38
588.21	33275.57
588.407	33793.7
588.604	33230.51
588.801	33017.52
588.999	33316.53
589.196	33019.57
589.393	33003.19
589.59	32900.79
589.787	32644.79
589.984	32620.22
590.182	32259.77
590.379	32695.99
590.576	32270.01
590.773	32253.63
590.97	32087.75
591.167	32462.52
591.364	32069.31
591.561	31964.87
591.758	31739.59
591.955	31510.22
592.152	31968.96
592.349	31604.42
592.546	31747.78
592.743	31712.97
592.94	30942.93
593.137	31456.97
593.334	31157.97
593.531	31051.47
593.727	31268.56
593.924	30899.92
594.121	30742.23
594.318	30920.4
594.515	30658.26
594.712	30555.86
594.908	30408.41
595.105	30740.18
595.302	30250.72
595.499	29849.32
595.696	30127.84
595.892	30115.55
596.089	30076.64
596.286	29581.03
596.482	29882.08
596.679	29800.16
596.876	29701.86
597.072	29796.07
597.269	29521.64
597.466	29390.57
597.662	29019.89
597.859	29130.48
598.055	29314.8
598.252	28487.42
598.448	29083.37
598.645	28915.44
598.841	29087.47
599.038	28641.01
599.234	28774.13
599.431	28411.64
599.627	28458.74
599.824	28520.18
600.02	28172.03
600.217	28249.85
600.413	28149.5
600.609	28247.8
600.806	27924.22
601.002	27668.23
601.198	27891.46
601.395	27614.98
601.591	27381.51
601.787	27645.7
601.984	27473.67
602.18	27711.24
602.376	27399.94
602.572	27119.37
602.769	26992.4
602.965	27102.99
603.161	27170.57
603.357	26914.58
603.553	26851.09
603.75	26916.62
603.946	26574.61
604.142	26599.19
604.338	26431.26
604.534	26486.55
604.73	26355.48
604.926	26054.43
605.122	26205.98
605.318	26205.98
605.514	25540.39
605.71	25888.54
605.906	26060.57
606.102	26003.23
606.298	25653.03
606.494	25583.4
606.69	25700.13
606.886	25374.5
607.082	24923.95
607.278	25591.59
607.474	24911.66
607.67	25702.18
607.866	25118.51
608.062	25392.94
608.257	25071.4
608.453	25171.75
608.649	25009.97
608.845	24710.96
609.041	24897.33
609.236	24629.04
609.432	24661.81
609.628	24799.02
609.824	24624.95
610.019	24493.88
610.215	24670
610.411	24450.87
610.606	24665.91
610.802	24473.4
610.998	24147.77
611.193	24481.59
611.389	23979.84
611.584	24354.62
611.78	23852.86
611.976	24143.67
612.171	23965.5
612.367	23736.13
612.562	23961.41
612.758	23666.5
612.953	23605.06
613.149	23795.52
613.344	23396.17
613.539	23979.84
613.735	23668.55
613.93	23349.06
614.126	23471.94
614.321	23385.93
614.517	23564.1
614.712	23365.45
614.907	23195.46
615.103	23105.35
615.298	23082.83
615.493	23086.92
615.688	22996.81
615.884	23721.79
616.079	22634.32
616.274	22869.84
616.47	22906.7
616.665	22806.35
616.86	22763.34
617.055	22679.38
617.25	22554.45
617.445	22931.28
617.641	22269.78
617.836	22714.19
618.031	22054.75
618.226	22486.87
618.421	22095.71
618.616	22583.12
618.811	22093.66
619.006	22390.61
619.201	22017.88
619.396	22288.21
619.591	21958.49
619.786	22040.41
619.981	21294.95
620.176	21802.85
620.371	21419.88
620.566	21426.02
620.761	21256.04
620.956	21241.7
621.151	20823.92
621.346	21251.94
621.541	20916.08
621.735	20797.29
621.93	20715.37
622.125	20588.4
622.32	20406.13
622.515	20510.58
622.709	20285.3
622.904	20260.73
623.099	19978.11
623.294	19961.72
623.488	19916.67
623.683	20092.79
623.878	19746.69
624.072	19863.42
624.267	19666.81
624.462	19330.95
624.656	19224.45
624.851	19197.83
625.046	19242.89
625.24	19302.28
625.435	18747.28
625.629	18773.9
625.824	18907.02
626.018	18804.62
626.213	18558.86
626.407	18544.53
626.602	18132.89
626.796	18251.67
626.991	17837.98
627.185	18106.26
627.38	17895.32
627.574	17885.08
627.768	17846.17
627.963	17598.37
628.157	17596.32
628.352	17526.69
628.546	17246.12
628.74	17416.1
628.935	16945.06
629.129	17354.66
629.323	16707.5
629.517	16846.76
629.712	16854.95
629.906	16957.35
630.1	16498.61
630.294	16592.81
630.489	16289.71
630.683	16498.61
630.877	16201.65
631.071	16101.3
631.265	16256.95
631.459	15890.36
631.653	15699.9
631.848	15880.12
632.042	15796.15
632.236	15777.72
632.43	15673.28
632.624	15751.1
632.818	15448
633.012	15171.52
633.206	15361.98
633.4	15099.84
633.594	14958.53
633.788	15056.84
633.982	14962.63
634.176	14964.68
634.369	14802.89
634.563	14741.45
634.757	14419.92
634.951	14475.21
635.145	14546.89
635.339	14262.23
635.533	14319.57
635.726	14098.39
635.92	13881.3
636.114	13944.79
636.308	14036.95
636.501	14053.33
636.695	14006.23
636.889	13924.31
637.083	13803.48
637.276	13639.64
637.47	13672.41
637.664	13426.65
637.857	13332.45
638.051	13258.72
638.244	13107.17
638.438	13162.47
638.632	13098.98
638.825	13170.66
639.019	12820.46
639.212	12861.41
639.406	12709.86
639.599	12771.3
639.793	12765.16
639.986	12519.4
640.18	12613.61
640.373	12498.92
640.567	12204.02
640.76	12249.07
640.954	12146.67
641.147	11943.92
641.34	12111.86
641.534	12107.76
641.727	11835.38
641.92	11692.02
642.114	11888.63
642.307	11702.26
642.5	11606.01
642.694	11462.65
642.887	11509.76
643.08	11606.01
643.273	11571.19
643.467	11511.8
643.66	11030.53
643.853	11134.98
644.046	11126.78
644.239	11149.31
644.432	10917.89
644.626	11008
644.819	10799.11
645.012	10723.34
645.205	10952.71
645.398	10776.58
645.591	10727.43
645.784	10674.18
645.977	10479.63
646.17	10422.28
646.363	10366.99
646.556	10422.28
646.749	10364.94
646.942	10453
647.135	10164.24
647.328	10174.48
647.521	9959.44
647.714	10074.13
647.907	10135.57
648.099	9920.53
648.292	10061.84
648.485	9740.31
648.678	9803.8
648.871	9668.63
649.064	9709.59
649.256	9760.79
649.449	9564.18
649.642	9586.71
649.835	9275.42
650.027	9465.88
650.22	9502.75
650.413	9300
650.605	9326.62
650.798	9302.04
650.991	9093.15
651.183	9146.4
651.376	8904.74
651.568	8917.03
651.761	9066.53
651.954	8822.82
652.146	8957.99
652.339	8955.94
652.531	8835.11
652.724	8712.23
652.916	8484.91
653.109	8718.37
653.301	8699.94
653.494	8644.65
653.686	8427.56
653.879	8681.51
654.071	8431.66
654.263	8288.3
654.456	8302.64
654.648	8443.95
654.84	8314.92
655.033	8171.57
655.225	8063.02
655.417	8007.73
655.61	8122.41
655.802	7905.33
655.994	7854.13
656.186	7979.06
656.379	8056.88
656.571	7940.15
656.763	7678.01
656.955	7960.63
657.148	7727.16
657.34	7862.32
657.532	7604.28
657.724	7667.77
657.916	7678.01
658.108	7686.2
658.3	7479.35
658.492	7362.62
658.684	7366.71
658.876	7327.8
659.068	7436.35
659.26	7288.89
659.452	7364.67
659.644	7323.71
659.836	7114.81
660.028	7071.81
660.22	7063.61
660.412	7161.92
660.604	6744.13
660.796	6991.94
660.988	6998.08
661.18	6803.52
661.372	6764.61
661.563	6981.7
661.755	6639.69
661.947	6811.71
662.139	6715.46
662.331	6692.93
662.522	6627.4
662.714	6615.11
662.906	6516.81
663.097	6791.24
663.289	6641.73
663.481	6496.33
663.673	6531.14
663.864	6434.89
664.056	6486.09
664.247	6254.67
664.439	6373.45
664.631	6314.06
664.822	6148.17
665.014	6277.19
665.205	6332.49
665.397	6133.84
665.588	6156.36
665.78	6115.41
665.971	6049.87
666.163	6152.27
666.354	6000.72
666.546	6111.31
666.737	6019.15
666.929	5941.33
667.12	5992.53
667.311	6041.68
667.503	5953.62
667.694	5828.69
667.885	5996.62
668.077	5804.11
668.268	5836.88
668.459	5738.58
668.651	5621.84
668.842	5658.71
669.033	5636.18
669.224	5763.15
669.416	5871.7
669.607	5664.85
669.798	5576.79
669.989	5584.98
670.18	5423.19
670.371	5593.17
670.563	5519.45
670.754	5550.17
670.945	5474.39
671.136	5455.96
671.327	5412.95
671.518	5597.27
671.709	5304.41
671.9	5437.53
672.091	5390.42
672.282	5388.38
672.473	5310.55
672.664	5429.34
672.855	5189.72
673.046	5441.62
673.237	5283.93
673.428	5212.25
673.619	5288.03
673.809	5150.81
674	5083.23
674.191	5261.4
674.382	5140.57
674.573	5216.35
674.764	5169.24
674.954	5077.09
675.145	5085.28
675.336	4976.73
675.527	4921.44
675.717	5193.82
675.908	4970.59
676.099	5019.74
676.289	5134.43
676.48	4851.81
676.671	5120.09
676.861	5023.84
677.052	4872.29
677.243	4984.93
677.433	4952.16
677.624	5017.69
677.814	4821.09
678.005	5034.08
678.195	4937.82
678.386	4894.82
678.576	4946.02
678.767	4964.45
678.957	4864.1
679.148	4890.72
679.338	4894.82
679.529	4800.61
679.719	5103.71
679.909	4923.49
680.1	4741.22
680.29	4829.28
680.481	4798.56
680.671	4896.86
680.861	4798.56
681.052	4943.97
681.242	4866.14
681.432	5003.36
681.622	4886.62
681.813	4864.1
682.003	4927.58
682.193	4798.56
682.383	4888.67
682.573	4956.26
682.764	4653.16
682.954	4952.16
683.144	4618.34
683.334	4661.35
683.524	4714.59
683.714	4724.83
683.904	4784.23
684.094	4610.15
684.284	4808.8
684.474	4681.83
684.664	4655.2
684.854	4690.02
685.044	4589.67
685.234	4550.76
685.424	4528.23
685.614	4515.94
685.804	4722.79
685.994	4542.57
686.184	4647.01
686.374	4595.81
686.564	4515.94
686.753	4530.28
686.943	4374.63
687.133	4481.13
687.323	4640.87
687.513	4405.35
687.702	4354.15
687.892	4286.57
688.082	4511.85
688.272	4425.83
688.461	4436.07
688.651	4362.34
688.841	4472.93
689.03	4182.12
689.22	4345.96
689.41	4300.91
689.599	4300.91
689.789	4259.95
689.979	4198.51
690.168	4266.09
690.358	4112.49
690.547	4132.97
690.737	4255.85
690.926	4307.05
691.116	3993.71
691.305	4288.62
691.495	4026.48
691.684	4059.24
691.874	4122.73
692.063	4231.27
692.252	3936.37
692.442	4042.86
692.631	4036.72
692.82	3997.81
693.01	3934.32
693.199	3899.5
693.388	3915.89
693.578	3895.41
693.767	3899.5
693.956	3897.46
694.146	3885.17
694.335	3958.89
694.524	3870.83
694.713	3911.79
694.902	3870.83
695.092	3881.07
695.281	3850.35
695.47	3782.77
695.659	3815.54
695.848	3770.48
696.037	3876.98
696.226	3836.02
696.415	3887.22
696.604	3874.93
696.793	3866.74
696.982	3776.63
697.171	3788.91
697.36	3750
697.549	3766.39
697.738	3782.77
697.927	3680.37
698.116	3745.91
698.305	3688.56
698.494	3743.86
698.683	3641.46
698.872	3614.84
699.061	3700.85
699.25	3645.56
699.438	3686.51
699.627	3661.94
699.816	3637.36
700.005	3672.18
700.193	3682.42
700.382	3659.89
700.571	3698.8
700.76	3704.95
700.948	3647.6
701.137	3625.08
701.326	3651.7
701.514	3596.4
701.703	3653.75
701.892	3633.27
702.08	3676.27
702.269	3743.86
702.457	3477.62
702.646	3760.24
702.834	3586.16
703.023	3557.49
703.212	3475.57
703.4	3735.67
703.589	3573.88
703.777	3684.47
703.965	3539.06
704.154	3543.16
704.342	3588.21
704.531	3537.01
704.719	3608.69
704.907	3711.09
705.096	3498.1
705.284	3670.13
705.472	3663.99
705.661	3559.54
705.849	3737.71
706.037	3612.79
706.226	3530.87
706.414	3526.77
706.602	3494.01
706.79	3551.35
706.979	3623.03
707.167	3569.78
707.355	3471.48
707.543	3608.69
707.731	3637.36
707.919	3629.17
708.107	3569.78
708.296	3600.5
708.484	3571.83
708.672	3637.36
708.86	3686.51
709.048	3580.02
709.236	3633.27
709.424	3561.59
709.612	3686.51
709.8	3635.32
709.988	3473.53
710.176	3668.08
710.364	3672.18
710.551	3598.45
710.739	3610.74
710.927	3776.63
711.115	3608.69
711.303	3569.78
711.491	3584.12
711.679	3553.4
711.866	3479.67
712.054	3623.03
712.242	3596.4
712.43	3584.12
712.617	3543.16
712.805	3498.1
712.993	3457.14
713.181	3453.05
713.368	3567.73
713.556	3494.01
713.744	3516.53
713.931	3719.28
714.119	3543.16
714.306	3569.78
714.494	3534.96
714.682	3481.72
714.869	3457.14
715.057	3457.14
715.244	3571.83
715.432	3485.81
715.619	3465.33
715.807	3590.26
715.994	3473.53
716.182	3448.95
716.369	3618.93
716.556	3541.11
716.744	3614.84
716.931	3444.85
717.119	3432.57
717.306	3524.72
717.493	3553.4
717.681	3647.6
717.868	3422.33
718.055	3504.25
718.242	3516.53
718.43	3457.14
718.617	3596.4
718.804	3604.6
718.991	3469.43
719.179	3639.41
719.366	3557.49
719.553	3512.44
719.74	3534.96
719.927	3498.1
720.114	3614.84
720.301	3446.9
720.488	3420.28
720.676	3473.53
720.863	3461.24
721.05	3346.55
721.237	3520.63
721.424	3512.44
721.611	3473.53
721.798	3590.26
721.985	3448.95
722.172	3481.72
722.358	3502.2
722.545	3502.2
722.732	3459.19
722.919	3393.65
723.106	3405.94
723.293	3424.37
723.48	3287.16
723.667	3471.48
723.853	3381.37
724.04	3317.88
724.227	3414.13
724.414	3338.36
724.6	3407.99
724.787	3403.89
724.974	3416.18
725.161	3416.18
725.347	3307.64
725.534	3342.46
725.72	3463.29
725.907	3500.15
726.094	3436.66
726.28	3455.09
726.467	3348.6
726.653	3358.84
726.84	3541.11
727.027	3311.74
727.213	3276.92
727.4	3364.98
727.586	3430.52
727.773	3391.61
727.959	3389.56
728.145	3405.94
728.332	3244.15
728.518	3375.22
728.705	3285.11
728.891	3420.28
729.077	3395.7
729.264	3348.6
729.45	3356.79
729.636	3256.44
729.823	3385.46
730.009	3313.78
730.195	3371.13
730.382	3416.18
730.568	3440.76
730.754	3324.02
730.94	3299.45
731.126	3242.11
731.313	3326.07
731.499	3223.67
731.685	3354.74
731.871	3260.54
732.057	3242.11
732.243	3283.06
732.429	3309.69
732.615	3289.21
732.801	3403.89
732.987	3346.55
733.173	3227.77
733.359	3309.69
733.545	3262.58
733.731	3235.96
733.917	3289.21
734.103	3315.83
734.289	3276.92
734.475	3131.51
734.661	3254.39
734.847	3149.95
735.033	3244.15
735.219	3235.96
735.404	3141.75
735.59	3188.86
735.776	3129.47
735.962	3154.04
736.148	3182.71
736.333	3240.06
736.519	3096.7
736.705	3090.56
736.89	3158.14
737.076	3033.21
737.262	3137.66
737.447	3016.83
737.633	3068.03
737.819	3209.34
738.004	3055.74
738.19	3076.22
738.375	3104.89
738.561	3037.31
738.747	3111.04
738.932	3076.22
739.118	3020.92
739.303	3055.74
739.489	3065.98
739.674	2982.01
739.859	3049.6
740.045	3088.51
740.23	2975.87
740.416	2834.56
740.601	2986.11
740.786	2955.39
740.972	2924.67
741.157	2885.76
741.342	2818.18
741.528	2930.81
741.713	2855.04
741.898	3014.78
742.084	2848.9
742.269	2824.32
742.454	2834.56
742.639	2867.33
742.824	2822.27
743.01	2781.31
743.195	2863.23
743.38	2840.7
743.565	2877.57
743.75	2687.11
743.935	2680.96
744.12	2844.8
744.305	2754.69
744.49	2691.2
744.675	2678.91
744.86	2789.5
745.045	2635.91
745.23	2601.09
745.415	2566.28
745.6	2574.47
745.785	2545.8
745.97	2586.76
746.155	2502.79
746.34	2592.9
746.525	2584.71
746.71	2597
746.895	2586.76
747.079	2537.6
747.264	2621.57
747.449	2531.46
747.634	2461.83
747.819	2523.27
748.003	2427.01
748.188	2332.81
748.373	2480.26
748.557	2345.09
748.742	2269.32
748.927	2435.21
749.111	2293.9
749.296	2318.47
749.481	2416.77
749.665	2289.8
749.85	2234.5
750.034	2195.59
750.219	2273.42
750.404	2295.94
750.588	2341
750.773	2353.29
750.957	2166.92
751.141	2275.46
751.326	2199.69
751.51	2044.04
751.695	2111.63
751.879	2054.28
752.064	2062.48
752.248	2068.62
752.432	2158.73
752.617	2074.76
752.801	2093.19
752.985	2021.52
753.17	2029.71
753.354	1962.12
753.538	1953.93
753.722	1970.32
753.907	1906.83
754.091	1884.3
754.275	2064.52
754.459	1839.25
754.643	1745.04
754.828	1855.63
755.012	1941.65
755.196	1888.4
755.38	1839.25
755.564	1859.73
755.748	1841.29
755.932	1781.9
756.116	1738.9
756.3	1726.61
756.484	1810.58
756.668	1654.93
756.852	1661.07
757.036	1687.7
757.22	1759.38
757.404	1732.75
757.588	1659.03
757.772	1699.98
757.956	1677.46
758.14	1603.73
758.323	1560.72
758.507	1601.68
758.691	1534.1
758.875	1622.16
759.059	1558.67
759.242	1575.06
759.426	1579.15
759.61	1607.83
759.794	1540.24
759.977	1585.3
760.161	1595.54
760.345	1519.76
760.528	1458.32
760.712	1491.09
760.895	1499.28
761.079	1544.34
761.263	1568.91
761.446	1478.8
761.63	1423.51
761.813	1501.33
761.997	1450.13
762.18	1527.96
762.364	1357.97
762.547	1372.31
762.731	1409.17
762.914	1468.56
763.098	1464.47
763.281	1333.4
763.464	1405.08
763.648	1360.02
763.831	1345.69
764.015	1312.92
764.198	1329.3
764.381	1339.54
764.564	1345.69
764.748	1294.49
764.931	1329.3
765.114	1357.97
765.297	1274.01
765.481	1292.44
765.664	1267.86
765.847	1319.06
766.03	1226.9
766.213	1325.21
766.397	1218.71
766.58	1290.39
766.763	1208.47
766.946	1210.52
767.129	1298.58
767.312	1276.06
767.495	1130.65
767.678	1243.29
767.861	1210.52
768.044	1183.9
768.227	1187.99
768.41	1165.46
768.593	1124.51
768.776	1245.34
768.959	1185.94
769.142	1212.57
769.324	1099.93
769.507	1233.05
769.69	1224.86
769.873	1040.54
770.056	1235.1
770.239	1132.7
770.421	1167.51
770.604	1147.03
770.787	1122.46
770.97	1122.46
771.152	1073.31
771.335	1157.27
771.518	1112.22
771.7	1155.23
771.883	1106.07
772.066	1067.16
772.248	1069.21
772.431	1118.36
772.613	1048.73
772.796	1056.92
772.978	1079.45
773.161	1036.44
773.343	1005.72
773.526	981.15
773.708	1032.35
773.891	975
774.073	952.48
774.256	979.1
774.438	1030.3
774.621	958.62
774.803	925.85
774.985	954.52
775.168	950.43
775.35	956.57
775.532	954.52
775.715	952.48
775.897	966.81
776.079	827.55
776.261	888.99
776.444	899.23
776.626	897.18
776.808	909.47
776.99	800.93
777.173	884.89
777.355	852.13
777.537	917.66
777.719	837.79
777.901	856.22
778.083	907.42
778.265	827.55
778.447	833.69
778.629	833.69
778.811	823.45
778.993	737.44
779.175	860.32
779.357	731.3
779.539	759.97
779.721	772.25
779.903	739.49
780.085	671.9
780.267	792.73
780.449	778.4
780.631	698.53
780.812	751.78
780.994	653.47
781.176	725.15
781.358	714.91
781.54	725.15
781.721	729.25
781.903	739.49
782.085	702.62
782.267	534.69
782.448	708.77
782.63	727.2
782.812	600.23
782.993	731.3
783.175	727.2
783.357	688.29
783.538	663.71
783.72	581.79
783.901	665.76
784.083	661.66
784.264	616.61
784.446	571.55
784.627	577.7
784.809	637.09
784.99	585.89
785.172	624.8
785.353	512.16
785.535	565.41
785.716	594.08
785.897	520.35
786.079	606.37
786.26	540.83
786.441	454.82
786.623	491.68
786.804	544.93
786.985	592.03
787.167	594.08
787.348	426.15
787.529	487.59
787.71	534.69
787.891	524.45
788.073	483.49
788.254	565.41
788.435	542.88
788.616	491.68
788.797	420
788.978	516.26
789.159	469.16
789.34	442.53
789.522	555.17
789.703	491.68
789.884	514.21
790.065	506.02
790.246	458.92
790.427	526.5
790.607	528.55
790.788	397.48
790.969	489.64
791.15	481.44
791.331	434.34
791.512	452.77
791.693	381.09
791.874	469.16
792.054	473.25
792.235	411.81
792.416	430.24
792.597	454.82
792.778	491.68
792.958	485.54
793.139	415.91
793.32	444.58
793.5	379.04
793.681	440.48
793.862	422.05
794.042	393.38
794.223	344.23
794.404	295.08
794.584	313.51
794.765	360.61
794.945	358.57
795.126	413.86
795.306	428.2
795.487	428.2
795.667	385.19
795.848	377
796.028	344.23
796.209	346.28
796.389	401.57
796.57	368.81
796.75	399.52
796.93	438.44
797.111	338.09
797.291	391.33
797.471	442.53
797.652	274.6
797.832	305.32
798.012	346.28
798.192	379.04
798.373	331.94
798.553	360.61
798.733	387.24
798.913	217.26
799.093	278.69
799.274	299.17
799.454	364.71
799.634	262.31
799.814	362.66
799.994	422.05
800.174	262.31
800.354	264.36
800.534	299.17
800.714	264.36
800.894	278.69
801.074	342.18
801.254	311.46
801.434	295.08
801.614	286.89
801.794	307.37
801.974	766.11
802.154	258.21
802.334	333.99
802.514	258.21
802.693	311.46
802.873	295.08
803.053	270.5
803.233	260.26
803.413	256.17
803.592	266.41
803.772	258.21
803.952	274.6
804.131	278.69
804.311	229.54
804.491	254.12
804.67	233.64
804.85	229.54
805.03	278.69
805.209	362.66
805.389	215.21
805.568	200.87
805.748	213.16
805.928	303.27
806.107	260.26
806.287	241.83
806.466	188.58
806.646	258.21
806.825	256.17
807.004	231.59
807.184	252.07
807.363	217.26
807.543	268.45
807.722	180.39
807.901	272.55
808.081	239.78
808.26	217.26
808.439	266.41
808.619	258.21
808.798	192.68
808.977	235.69
809.156	254.12
809.336	202.92
809.515	254.12
809.694	184.49
809.873	198.82
810.052	229.54
810.231	274.6
810.411	166.06
810.59	202.92
810.769	229.54
810.948	262.31
811.127	129.19
811.306	194.73
811.485	213.16
811.664	221.35
811.843	229.54
812.022	204.97
812.201	147.62
812.38	260.26
812.559	164.01
812.737	223.4
812.916	211.11
813.095	166.06
813.274	180.39
813.453	196.78
813.632	250.02
813.811	151.72
813.989	188.58
814.168	166.06
814.347	157.86
814.526	241.83
814.704	217.26
814.883	268.45
815.062	69.8
815.24	217.26
815.419	172.2
815.598	190.63
815.776	47.27
815.955	108.71
816.133	143.53
816.312	180.39
816.49	118.95
816.669	204.97
816.847	96.43
817.026	221.35
817.204	147.62
817.383	194.73
817.561	129.19
817.74	194.73
817.918	166.06
818.097	202.92
818.275	176.3
818.453	137.38
818.632	151.72
818.81	135.34
818.988	104.62
819.167	256.17
819.345	174.25
819.523	82.09
819.701	110.76
819.879	131.24
820.058	116.9
820.236	172.2
820.414	157.86
820.592	174.25
820.77	88.23
820.948	139.43
821.127	153.77
821.305	180.39
821.483	155.82
821.661	151.72
821.839	96.43
822.017	57.51
822.195	174.25
822.373	166.06
822.551	102.57
822.729	90.28
822.907	178.34
823.085	112.81
823.262	174.25
823.44	96.43
823.618	104.62
823.796	135.34
823.974	114.86
824.152	104.62
824.329	86.19
824.507	141.48
824.685	116.9
824.863	121
825.04	194.73
825.218	196.78
825.396	96.43
825.574	227.5
825.751	114.86
825.929	157.86
826.107	145.58
826.284	112.81
826.462	106.67
826.639	127.14
826.817	88.23
826.994	41.13
827.172	131.24
827.349	102.57
827.527	77.99
827.704	73.9
827.882	80.04
828.059	104.62
828.237	65.71
828.414	86.19
828.591	127.14
828.769	106.67
828.946	125.1
829.124	125.1
829.301	77.99
829.478	166.06
829.655	123.05
829.833	116.9
830.01	43.18
830.187	143.53
830.364	45.23
830.542	118.95
830.719	237.74
830.896	65.71
831.073	96.43
831.25	145.58
831.427	129.19
831.604	94.38
831.782	71.85
831.959	106.67
832.136	98.47
832.313	104.62
832.49	84.14
832.667	127.14
832.844	65.71
833.021	135.34
833.198	147.62
833.374	90.28
833.551	77.99
833.728	51.37
833.905	141.48
834.082	114.86
834.259	51.37
834.436	131.24
834.612	65.71
834.789	69.8
834.966	53.42
835.143	157.86
835.319	41.13
835.496	147.62
835.673	125.1
835.85	121
836.026	16.55
836.203	114.86
836.38	75.95
836.556	86.19
836.733	24.75
836.909	161.96
837.086	121
837.262	67.75
837.439	159.91
837.616	86.19
837.792	108.71
837.968	98.47
838.145	20.65
838.321	114.86
838.498	26.79
838.674	84.14
838.851	139.43
839.027	63.66
839.203	53.42
839.38	96.43
839.556	94.38
839.732	121
839.909	112.81
840.085	51.37
840.261	65.71
840.437	73.9
840.614	37.03
840.79	20.65
840.966	82.09
841.142	106.67
841.318	77.99
841.494	94.38
841.671	71.85
841.847	73.9
842.023	155.82
842.199	82.09
842.375	92.33
842.551	80.04
842.727	0.17
842.903	106.67
843.079	-22.36
843.255	127.14
843.431	121
843.607	57.51
843.783	65.71
843.959	80.04
844.134	41.13
844.31	98.47
844.486	-1.88
844.662	65.71
844.838	59.56
845.013	180.39
845.189	37.03
845.365	106.67
845.541	55.47
845.716	26.79
845.892	53.42
846.068	106.67
846.244	65.71
846.419	4.27
846.595	16.55
846.77	57.51
846.946	82.09
847.122	65.71
847.297	37.03
847.473	159.91
847.648	-18.26
847.824	77.99
847.999	45.23
848.175	92.33
848.35	75.95
848.526	94.38
848.701	53.42
848.876	63.66
849.052	65.71
849.227	24.75
849.403	53.42
849.578	49.32
849.753	80.04
849.929	16.55
850.104	-3.93
850.279	47.27
850.454	49.32
850.63	39.08
850.805	14.51
850.98	22.7
851.155	84.14
851.33	24.75
851.505	-10.07
851.681	80.04
851.856	90.28
852.031	61.61
852.206	6.31
852.381	-26.45
852.556	4.27
852.731	30.89
852.906	12.46
853.081	69.8
853.256	41.13
853.431	24.75
853.606	61.61
853.781	57.51
853.956	8.36
854.131	39.08
854.305	39.08
854.48	47.27
854.655	32.94
854.83	73.9
855.005	-100.18
855.18	47.27
855.354	47.27
855.529	61.61
855.704	73.9
855.879	-14.17
856.053	59.56
856.228	110.76
856.403	18.6
856.577	102.57
856.752	41.13
856.926	12.46
857.101	65.71
857.276	-42.84
857.45	24.75
857.625	37.03
857.799	24.75
857.974	55.47
858.148	-22.36
858.323	10.41
858.497	-1.88
858.672	69.8
858.846	10.41
859.02	53.42
859.195	20.65
859.369	53.42
859.543	32.94
859.718	0.17
859.892	55.47
860.066	59.56
860.241	39.08
860.415	51.37
860.589	-1.88
860.763	12.46
860.938	-24.4
861.112	16.55
861.286	39.08
861.46	65.71
861.634	-28.5
861.808	55.47
861.982	-51.03
862.157	47.27
862.331	61.61
862.505	32.94
862.679	24.75
862.853	4.27
863.027	61.61
863.201	82.09
863.375	8.36
863.549	26.79
863.722	118.95
863.896	121
864.07	28.84
864.244	22.7
864.418	20.65
864.592	-1.88
864.766	-8.02
864.939	43.18
865.113	14.51
865.287	20.65
865.461	20.65
865.634	-28.5
865.808	4.27
865.982	-16.21
866.156	12.46
866.329	18.6
866.503	0.17
866.676	90.28
866.85	-16.21
867.024	137.38
867.197	39.08
867.371	20.65
867.544	-20.31
867.718	-3.93
867.891	-5.97
868.065	-3.93
868.238	45.23
868.412	53.42
868.585	24.75
868.759	32.94
868.932	16.55
869.105	-12.12
869.279	-85.84
869.452	20.65
869.625	63.66
869.799	18.6
869.972	-65.36
870.145	-16.21
870.319	-8.02
870.492	14.51
870.665	16.55
870.838	2.22
871.011	59.56
871.185	47.27
871.358	2.22
871.531	82.09
871.704	-98.13
871.877	34.99
872.05	59.56
872.223	8.36
872.396	18.6
872.569	32.94
872.742	-40.79
872.915	24.75
873.088	-20.31
873.261	4.27
873.434	37.03
873.607	24.75
873.78	-1.88
873.953	-106.32
874.126	8.36
874.299	37.03
874.471	2.22
874.644	-51.03
874.817	6.31
874.99	32.94
875.163	-63.32
875.335	16.55
875.508	34.99
875.681	69.8
875.853	22.7
876.026	37.03
876.199	112.81
876.371	53.42
876.544	-14.17
876.717	73.9
876.889	22.7
877.062	-1.88
877.234	-81.75
877.407	16.55
877.579	51.37
877.752	-53.08
877.924	28.84
878.097	18.6
878.269	0.17
878.442	106.67
878.614	61.61
878.786	39.08
878.959	-46.93
879.131	118.95
879.303	16.55
879.476	37.03
879.648	59.56
879.82	37.03
879.993	4.27
880.165	-14.17
880.337	-22.36
880.509	28.84
880.681	-24.4
880.854	-65.36
881.026	-55.12
881.198	110.76
881.37	-22.36
881.542	49.32
881.714	-34.64
881.886	45.23
882.058	0.17
882.23	51.37
882.402	12.46
882.574	-26.45
882.746	47.27
882.918	82.09
883.09	10.41
883.262	-53.08
883.434	37.03
883.606	-59.22
883.778	22.7
883.95	32.94
884.122	-22.36
884.293	37.03
884.465	-46.93
884.637	-34.64
884.809	-1.88
884.98	-69.46
885.152	12.46
885.324	16.55
885.496	63.66
885.667	22.7
885.839	6.31
886.011	-18.26
886.182	14.51
886.354	0.17
886.525	16.55
886.697	-8.02
886.869	16.55
887.04	-3.93
887.212	53.42
887.383	-10.07
887.555	12.46
887.726	8.36
887.897	41.13
888.069	-8.02
888.24	-18.26
888.412	-12.12
888.583	-12.12
888.754	4.27
888.926	-65.36
889.097	-5.97
889.268	-16.21
889.44	55.47
889.611	-48.98
889.782	-28.5
889.953	0.17
890.125	16.55
890.296	4.27
890.467	-20.31
890.638	-48.98
890.809	45.23
890.98	-40.79
891.151	112.81
891.323	2.22
891.494	-36.69
891.665	-71.51
891.836	26.79
892.007	-34.64
892.178	22.7
892.349	8.36
892.52	-10.07
892.691	61.61
892.862	-40.79
893.032	-1.88
893.203	-53.08
893.374	90.28
893.545	49.32
893.716	92.33
893.887	-44.88
894.057	-40.79
894.228	-34.64
894.399	-16.21
894.57	41.13
894.74	-5.97
894.911	73.9
895.082	6.31
895.253	10.41
895.423	-12.12
895.594	47.27
895.764	34.99
895.935	-34.64
896.106	-110.42
896.276	-30.55
896.447	-10.07
896.617	-44.88
896.788	-65.36
896.958	-5.97
897.129	-1.88
897.299	-24.4
897.47	-44.88
897.64	49.32
897.81	-1.88
897.981	16.55
898.151	57.51
898.322	-28.5
898.492	34.99
898.662	0.17
898.832	-1.88
899.003	20.65
899.173	-30.55
899.343	8.36
899.513	-16.21
