Data from USB4F104151__107__10-24-50-012.txt Node

Date: Wed Mar 12 10:24:50 EDT 2025
User: louis
Spectrometer: USB4F10415
Trigger mode: 4
Integration Time (sec): 3.000000E-2
Scans to average: 1
Electric dark correction enabled: true
Nonlinearity correction enabled: false
Boxcar width: 0
XAxis mode: Wavelengths
Number of Pixels in Spectrum: 3648
>>>>>Begin Spectral Data<<<<<
178.204	-159.23
178.424	-159.23
178.644	-159.23
178.864	-65.02
179.084	-95.74
179.304	31.23
179.524	23.04
179.744	-95.74
179.964	59.9
180.184	-13.82
180.404	51.71
180.624	-40.45
180.844	25.09
181.064	-22.02
181.283	16.9
181.503	-46.59
181.723	10.75
181.943	-46.59
182.163	-3.58
182.383	-15.87
182.602	27.14
182.822	23.04
183.042	35.33
183.262	-15.87
183.482	2.56
183.701	-65.02
183.921	84.48
184.141	-30.21
184.361	64
184.58	-19.97
184.8	14.85
185.02	-7.68
185.239	47.62
185.459	20.99
185.679	66.05
185.898	41.47
186.118	0.51
186.338	-26.11
186.557	61.95
186.777	-52.74
186.997	-11.78
187.216	4.61
187.436	10.75
187.655	-26.11
187.875	57.86
188.095	45.57
188.314	78.33
188.534	53.76
188.753	-69.12
188.973	18.94
189.192	94.72
189.412	4.61
189.631	47.62
189.851	35.33
190.07	8.7
190.29	33.28
190.509	-26.11
190.729	-1.54
190.948	-30.21
191.168	162.3
191.387	129.53
191.607	61.95
191.826	-30.21
192.045	4.61
192.265	96.77
192.484	-56.83
192.704	45.57
192.923	-79.36
193.142	57.86
193.362	-34.3
193.581	25.09
193.8	-5.63
194.02	10.75
194.239	29.18
194.458	74.24
194.678	31.23
194.897	18.94
195.116	25.09
195.335	23.04
195.555	20.99
195.774	29.18
195.993	35.33
196.212	43.52
196.432	-5.63
196.651	39.42
196.87	39.42
197.089	25.09
197.308	64
197.528	94.72
197.747	-58.88
197.966	74.24
198.185	14.85
198.404	-5.63
198.623	-19.97
198.842	57.86
199.062	86.53
199.281	96.77
199.5	-7.68
199.719	45.57
199.938	43.52
200.157	-22.02
200.376	4.61
200.595	92.67
200.814	33.28
201.033	66.05
201.252	55.81
201.471	20.99
201.69	-19.97
201.909	29.18
202.128	10.75
202.347	-9.73
202.566	-5.63
202.785	18.94
203.004	10.75
203.223	88.57
203.442	-71.17
203.661	29.18
203.879	-13.82
204.098	39.42
204.317	16.9
204.536	61.95
204.755	-11.78
204.974	20.99
205.193	31.23
205.411	57.86
205.63	72.19
205.849	-28.16
206.068	-48.64
206.287	10.75
206.505	78.33
206.724	-11.78
206.943	-1.54
207.162	-28.16
207.381	18.94
207.599	-11.78
207.818	-54.78
208.037	33.28
208.255	-3.58
208.474	-28.16
208.693	72.19
208.911	94.72
209.13	14.85
209.349	-1.54
209.567	2.56
209.786	12.8
210.005	45.57
210.223	104.96
210.442	-5.63
210.661	8.7
210.879	-3.58
211.098	23.04
211.316	39.42
211.535	57.86
211.753	2.56
211.972	61.95
212.191	109.05
212.409	92.67
212.628	4.61
212.846	18.94
213.065	39.42
213.283	27.14
213.502	8.7
213.72	8.7
213.938	0.51
214.157	49.66
214.375	94.72
214.594	64
214.812	-24.06
215.031	23.04
215.249	-5.63
215.467	90.62
215.686	20.99
215.904	16.9
216.122	-24.06
216.341	4.61
216.559	-15.87
216.778	76.29
216.996	76.29
217.214	12.8
217.432	16.9
217.651	74.24
217.869	4.61
218.087	6.66
218.306	4.61
218.524	6.66
218.742	-48.64
218.96	47.62
219.179	2.56
219.397	55.81
219.615	-13.82
219.833	53.76
220.051	16.9
220.27	43.52
220.488	-17.92
220.706	-40.45
220.924	-22.02
221.142	20.99
221.36	-52.74
221.578	59.9
221.796	-9.73
222.015	-77.31
222.233	-15.87
222.451	45.57
222.669	-11.78
222.887	12.8
223.105	-77.31
223.323	8.7
223.541	-44.54
223.759	-1.54
223.977	41.47
224.195	-9.73
224.413	100.86
224.631	41.47
224.849	72.19
225.067	16.9
225.285	-5.63
225.503	59.9
225.721	-65.02
225.939	29.18
226.157	-15.87
226.375	61.95
226.592	12.8
226.81	-50.69
227.028	18.94
227.246	10.75
227.464	59.9
227.682	76.29
227.9	82.43
228.117	35.33
228.335	45.57
228.553	16.9
228.771	66.05
228.989	23.04
229.206	4.61
229.424	49.66
229.642	-7.68
229.86	-44.54
230.077	-3.58
230.295	43.52
230.513	4.61
230.731	45.57
230.948	0.51
231.166	78.33
231.384	-11.78
231.601	-44.54
231.819	59.9
232.037	-73.21
232.254	-11.78
232.472	35.33
232.689	-34.3
232.907	45.57
233.125	-58.88
233.342	39.42
233.56	25.09
233.777	-28.16
233.995	39.42
234.213	88.57
234.43	53.76
234.648	135.68
234.865	-5.63
235.083	-17.92
235.3	-69.12
235.518	-19.97
235.735	10.75
235.953	55.81
236.17	45.57
236.388	-9.73
236.605	72.19
236.822	-34.3
237.04	4.61
237.257	33.28
237.475	-22.02
237.692	47.62
237.909	37.38
238.127	12.8
238.344	53.76
238.562	6.66
238.779	-24.06
238.996	8.7
239.214	-60.93
239.431	55.81
239.648	57.86
239.865	80.38
240.083	88.57
240.3	-52.74
240.517	-5.63
240.735	8.7
240.952	23.04
241.169	94.72
241.386	43.52
241.603	78.33
241.821	-60.93
242.038	-24.06
242.255	39.42
242.472	4.61
242.689	45.57
242.907	31.23
243.124	2.56
243.341	45.57
243.558	-11.78
243.775	-36.35
243.992	8.7
244.209	84.48
244.426	94.72
244.643	-1.54
244.86	-34.3
245.078	33.28
245.295	68.09
245.512	33.28
245.729	-13.82
245.946	86.53
246.163	78.33
246.38	35.33
246.597	78.33
246.814	20.99
247.031	4.61
247.248	37.38
247.464	18.94
247.681	107.01
247.898	45.57
248.115	39.42
248.332	18.94
248.549	-11.78
248.766	0.51
248.983	31.23
249.2	86.53
249.417	10.75
249.633	23.04
249.85	10.75
250.067	-9.73
250.284	66.05
250.501	-5.63
250.717	43.52
250.934	8.7
251.151	0.51
251.368	31.23
251.585	29.18
251.801	-7.68
252.018	4.61
252.235	82.43
252.451	12.8
252.668	61.95
252.885	-3.58
253.102	92.67
253.318	-3.58
253.535	-5.63
253.752	-11.78
253.968	-11.78
254.185	107.01
254.401	37.38
254.618	41.47
254.835	45.57
255.051	49.66
255.268	37.38
255.484	18.94
255.701	37.38
255.917	16.9
256.134	4.61
256.351	-36.35
256.567	4.61
256.784	16.9
257	-3.58
257.217	16.9
257.433	88.57
257.65	25.09
257.866	86.53
258.082	-13.82
258.299	111.1
258.515	57.86
258.732	57.86
258.948	16.9
259.165	47.62
259.381	-58.88
259.597	53.76
259.814	6.66
260.03	92.67
260.246	-44.54
260.463	82.43
260.679	70.14
260.895	-3.58
261.112	88.57
261.328	-13.82
261.544	76.29
261.761	133.63
261.977	57.86
262.193	-69.12
262.409	33.28
262.626	4.61
262.842	6.66
263.058	-56.83
263.274	-15.87
263.49	-42.5
263.707	0.51
263.923	-24.06
264.139	2.56
264.355	-32.26
264.571	14.85
264.787	16.9
265.004	25.09
265.22	41.47
265.436	-1.54
265.652	-60.93
265.868	70.14
266.084	-42.5
266.3	-11.78
266.516	-110.08
266.732	-32.26
266.948	-56.83
267.164	-44.54
267.38	33.28
267.596	37.38
267.812	61.95
268.028	37.38
268.244	-7.68
268.46	37.38
268.676	55.81
268.892	80.38
269.108	-24.06
269.324	-22.02
269.54	-36.35
269.756	72.19
269.972	86.53
270.188	12.8
270.403	25.09
270.619	49.66
270.835	66.05
271.051	64
271.267	-28.16
271.483	33.28
271.698	51.71
271.914	23.04
272.13	31.23
272.346	43.52
272.562	18.94
272.777	59.9
272.993	37.38
273.209	12.8
273.425	12.8
273.64	49.66
273.856	27.14
274.072	35.33
274.287	-36.35
274.503	33.28
274.719	-5.63
274.934	20.99
275.15	-15.87
275.366	90.62
275.581	10.75
275.797	35.33
276.012	-22.02
276.228	-38.4
276.444	51.71
276.659	61.95
276.875	14.85
277.09	53.76
277.306	61.95
277.521	-34.3
277.737	33.28
277.952	45.57
278.168	-1.54
278.383	51.71
278.599	41.47
278.814	-7.68
279.03	-24.06
279.245	27.14
279.461	53.76
279.676	74.24
279.892	-30.21
280.107	-7.68
280.322	-44.54
280.538	43.52
280.753	-11.78
280.969	-13.82
281.184	35.33
281.399	23.04
281.615	-60.93
281.83	33.28
282.045	14.85
282.26	-40.45
282.476	4.61
282.691	20.99
282.906	33.28
283.122	4.61
283.337	-69.12
283.552	4.61
283.767	-15.87
283.983	45.57
284.198	-22.02
284.413	25.09
284.628	-13.82
284.843	45.57
285.058	27.14
285.274	-42.5
285.489	43.52
285.704	53.76
285.919	-19.97
286.134	12.8
286.349	35.33
286.564	0.51
286.779	78.33
286.995	45.57
287.21	-54.78
287.425	6.66
287.64	53.76
287.855	-95.74
288.07	-15.87
288.285	8.7
288.5	-5.63
288.715	37.38
288.93	18.94
289.145	57.86
289.36	33.28
289.575	-3.58
289.79	92.67
290.004	23.04
290.219	25.09
290.434	-11.78
290.649	-11.78
290.864	16.9
291.079	-48.64
291.294	23.04
291.509	59.9
291.724	90.62
291.938	-32.26
292.153	45.57
292.368	-48.64
292.583	18.94
292.798	33.28
293.012	37.38
293.227	4.61
293.442	27.14
293.657	43.52
293.871	78.33
294.086	12.8
294.301	113.15
294.516	86.53
294.73	27.14
294.945	-5.63
295.16	6.66
295.374	68.09
295.589	57.86
295.804	10.75
296.018	-5.63
296.233	27.14
296.447	20.99
296.662	78.33
296.877	59.9
297.091	76.29
297.306	53.76
297.52	-11.78
297.735	53.76
297.949	-75.26
298.164	-3.58
298.378	4.61
298.593	61.95
298.807	12.8
299.022	43.52
299.236	43.52
299.451	31.23
299.665	-40.45
299.88	-36.35
300.094	74.24
300.309	10.75
300.523	-1.54
300.737	43.52
300.952	29.18
301.166	0.51
301.381	47.62
301.595	-7.68
301.809	20.99
302.024	-15.87
302.238	2.56
302.452	66.05
302.667	2.56
302.881	49.66
303.095	14.85
303.309	66.05
303.524	-19.97
303.738	18.94
303.952	-36.35
304.166	107.01
304.381	-120.32
304.595	78.33
304.809	-69.12
305.023	10.75
305.237	-17.92
305.452	-11.78
305.666	86.53
305.88	-3.58
306.094	25.09
306.308	-15.87
306.522	31.23
306.736	66.05
306.95	-3.58
307.164	55.81
307.379	66.05
307.593	59.9
307.807	70.14
308.021	78.33
308.235	-62.98
308.449	-24.06
308.663	10.75
308.877	70.14
309.091	6.66
309.305	41.47
309.519	-58.88
309.733	84.48
309.947	27.14
310.161	78.33
310.374	16.9
310.588	152.06
310.802	-30.21
311.016	18.94
311.23	57.86
311.444	23.04
311.658	72.19
311.872	109.05
312.085	29.18
312.299	92.67
312.513	33.28
312.727	111.1
312.941	12.8
313.154	-28.16
313.368	2.56
313.582	23.04
313.796	37.38
314.009	51.71
314.223	76.29
314.437	-7.68
314.651	31.23
314.864	53.76
315.078	82.43
315.292	-1.54
315.505	29.18
315.719	57.86
315.933	25.09
316.146	6.66
316.36	51.71
316.573	41.47
316.787	-7.68
317.001	29.18
317.214	-36.35
317.428	55.81
317.641	12.8
317.855	14.85
318.068	-15.87
318.282	27.14
318.495	102.91
318.709	53.76
318.922	33.28
319.136	20.99
319.349	33.28
319.563	29.18
319.776	41.47
319.99	-44.54
320.203	37.38
320.417	16.9
320.63	29.18
320.843	57.86
321.057	2.56
321.27	33.28
321.483	45.57
321.697	90.62
321.91	-15.87
322.124	-19.97
322.337	88.57
322.55	61.95
322.763	-24.06
322.977	4.61
323.19	-48.64
323.403	84.48
323.617	66.05
323.83	12.8
324.043	45.57
324.256	-22.02
324.469	8.7
324.683	115.2
324.896	39.42
325.109	61.95
325.322	27.14
325.535	68.09
325.748	37.38
325.962	-3.58
326.175	29.18
326.388	18.94
326.601	55.81
326.814	96.77
327.027	-7.68
327.24	66.05
327.453	-89.6
327.666	74.24
327.879	57.86
328.092	68.09
328.305	104.96
328.518	-7.68
328.731	102.91
328.944	102.91
329.157	66.05
329.37	29.18
329.583	41.47
329.796	45.57
330.009	-3.58
330.222	-3.58
330.435	25.09
330.648	33.28
330.861	-5.63
331.073	-24.06
331.286	29.18
331.499	16.9
331.712	-9.73
331.925	14.85
332.138	25.09
332.35	57.86
332.563	70.14
332.776	23.04
332.989	-46.59
333.202	31.23
333.414	-19.97
333.627	-7.68
333.84	-36.35
334.053	78.33
334.265	6.66
334.478	-32.26
334.691	51.71
334.903	82.43
335.116	29.18
335.329	64
335.541	12.8
335.754	119.29
335.966	33.28
336.179	10.75
336.392	-26.11
336.604	6.66
336.817	47.62
337.029	98.81
337.242	20.99
337.454	23.04
337.667	8.7
337.88	14.85
338.092	37.38
338.305	37.38
338.517	-50.69
338.729	68.09
338.942	-26.11
339.154	29.18
339.367	92.67
339.579	18.94
339.792	-24.06
340.004	68.09
340.217	4.61
340.429	29.18
340.641	-73.21
340.854	-54.78
341.066	76.29
341.278	27.14
341.491	43.52
341.703	66.05
341.915	-19.97
342.128	29.18
342.34	33.28
342.552	-15.87
342.764	0.51
342.977	8.7
343.189	25.09
343.401	27.14
343.613	-13.82
343.826	-19.97
344.038	49.66
344.25	4.61
344.462	27.14
344.674	55.81
344.886	59.9
345.099	55.81
345.311	47.62
345.523	16.9
345.735	-26.11
345.947	76.29
346.159	37.38
346.371	35.33
346.583	25.09
346.795	66.05
347.007	25.09
347.219	4.61
347.431	96.77
347.643	-50.69
347.855	-34.3
348.067	82.43
348.279	10.75
348.491	14.85
348.703	47.62
348.915	64
349.127	66.05
349.339	16.9
349.551	-3.58
349.763	66.05
349.975	-11.78
350.187	-11.78
350.399	80.38
350.61	51.71
350.822	51.71
351.034	45.57
351.246	20.99
351.458	20.99
351.669	-9.73
351.881	27.14
352.093	68.09
352.305	59.9
352.517	100.86
352.728	86.53
352.94	29.18
353.152	96.77
353.363	33.28
353.575	100.86
353.787	111.1
353.999	68.09
354.21	123.39
354.422	78.33
354.633	57.86
354.845	-15.87
355.057	33.28
355.268	35.33
355.48	27.14
355.692	23.04
355.903	6.66
356.115	2.56
356.326	37.38
356.538	-15.87
356.749	14.85
356.961	8.7
357.172	43.52
357.384	25.09
357.595	39.42
357.807	45.57
358.018	29.18
358.23	-3.58
358.441	76.29
358.653	59.9
358.864	4.61
359.075	41.47
359.287	4.61
359.498	96.77
359.709	70.14
359.921	27.14
360.132	45.57
360.344	37.38
360.555	64
360.766	92.67
360.977	8.7
361.189	102.91
361.4	8.7
361.611	66.05
361.823	39.42
362.034	25.09
362.245	-9.73
362.456	64
362.667	-73.21
362.879	31.23
363.09	43.52
363.301	18.94
363.512	2.56
363.723	76.29
363.935	23.04
364.146	0.51
364.357	23.04
364.568	10.75
364.779	-9.73
364.99	59.9
365.201	92.67
365.412	43.52
365.623	4.61
365.834	59.9
366.045	35.33
366.256	49.66
366.467	66.05
366.678	41.47
366.889	49.66
367.1	127.49
367.311	78.33
367.522	23.04
367.733	78.33
367.944	61.95
368.155	-22.02
368.366	-65.02
368.577	84.48
368.788	68.09
368.999	16.9
369.209	25.09
369.42	172.54
369.631	123.39
369.842	61.95
370.053	55.81
370.264	43.52
370.474	-15.87
370.685	16.9
370.896	27.14
371.107	-15.87
371.317	100.86
371.528	37.38
371.739	70.14
371.95	68.09
372.16	29.18
372.371	-3.58
372.582	80.38
372.792	55.81
373.003	66.05
373.214	4.61
373.424	82.43
373.635	27.14
373.846	31.23
374.056	-28.16
374.267	64
374.477	18.94
374.688	10.75
374.898	27.14
375.109	29.18
375.319	-3.58
375.53	57.86
375.74	-22.02
375.951	45.57
376.161	41.47
376.372	57.86
376.582	49.66
376.793	61.95
377.003	35.33
377.214	2.56
377.424	-36.35
377.635	53.76
377.845	16.9
378.055	61.95
378.266	-36.35
378.476	35.33
378.686	16.9
378.897	41.47
379.107	43.52
379.317	98.81
379.528	53.76
379.738	59.9
379.948	-36.35
380.158	8.7
380.369	-13.82
380.579	102.91
380.789	-11.78
380.999	102.91
381.21	78.33
381.42	4.61
381.63	25.09
381.84	-5.63
382.05	90.62
382.261	117.25
382.471	27.14
382.681	-32.26
382.891	53.76
383.101	-52.74
383.311	-15.87
383.521	-30.21
383.731	84.48
383.941	113.15
384.151	31.23
384.361	72.19
384.571	41.47
384.781	66.05
384.991	117.25
385.201	74.24
385.411	61.95
385.621	82.43
385.831	35.33
386.041	53.76
386.251	147.97
386.461	59.9
386.671	-54.78
386.881	57.86
387.091	102.91
387.301	92.67
387.511	43.52
387.72	45.57
387.93	92.67
388.14	2.56
388.35	35.33
388.56	41.47
388.769	35.33
388.979	8.7
389.189	27.14
389.399	-1.54
389.609	43.52
389.818	107.01
390.028	29.18
390.238	78.33
390.447	61.95
390.657	57.86
390.867	35.33
391.076	-1.54
391.286	61.95
391.496	80.38
391.705	33.28
391.915	86.53
392.125	109.05
392.334	86.53
392.544	66.05
392.753	76.29
392.963	33.28
393.172	39.42
393.382	25.09
393.591	4.61
393.801	-9.73
394.01	111.1
394.22	141.82
394.429	4.61
394.639	51.71
394.848	86.53
395.058	43.52
395.267	70.14
395.477	55.81
395.686	55.81
395.895	100.86
396.105	166.4
396.314	119.29
396.524	41.47
396.733	49.66
396.942	147.97
397.152	141.82
397.361	158.21
397.57	119.29
397.78	64
397.989	68.09
398.198	107.01
398.407	90.62
398.617	76.29
398.826	96.77
399.035	61.95
399.244	205.31
399.453	162.3
399.663	119.29
399.872	209.4
400.081	78.33
400.29	96.77
400.499	43.52
400.708	184.83
400.917	119.29
401.127	55.81
401.336	133.63
401.545	188.93
401.754	104.96
401.963	156.16
402.172	119.29
402.381	150.01
402.59	143.87
402.799	119.29
403.008	133.63
403.217	31.23
403.426	141.82
403.635	174.59
403.844	131.58
404.053	92.67
404.262	125.44
404.471	143.87
404.68	37.38
404.888	100.86
405.097	135.68
405.306	180.73
405.515	135.68
405.724	139.77
405.933	182.78
406.142	193.02
406.35	129.53
406.559	166.4
406.768	158.21
406.977	256.51
407.185	174.59
407.394	225.79
407.603	193.02
407.812	279.04
408.02	344.57
408.229	272.89
408.438	252.41
408.646	135.68
408.855	233.98
409.064	274.94
409.272	225.79
409.481	266.75
409.69	258.56
409.898	363
410.107	311.8
410.315	324.09
410.524	356.86
410.733	352.76
410.941	338.43
411.15	369.15
411.358	473.59
411.567	475.64
411.775	363
411.984	453.11
412.192	449.02
412.401	438.78
412.609	422.39
412.818	528.89
413.026	510.46
413.234	528.89
413.443	569.85
413.651	561.66
413.86	639.48
414.068	647.67
414.276	664.05
414.485	608.76
414.693	723.44
414.901	682.49
415.11	756.21
415.318	670.2
415.526	780.79
415.734	823.8
415.943	827.89
416.151	844.28
416.359	827.89
416.567	883.19
416.776	862.71
416.984	1008.11
417.192	1094.13
417.4	1083.89
417.608	1069.55
417.817	993.78
418.025	1098.22
418.233	1247.72
418.441	1145.33
418.649	1237.49
418.857	1323.5
419.065	1425.9
419.273	1337.84
419.481	1423.85
419.689	1444.33
419.897	1475.05
420.105	1544.68
420.313	1679.85
420.521	1712.61
420.729	1802.72
420.937	1796.58
421.145	1843.68
421.353	1939.94
421.561	1948.13
421.769	1999.33
421.977	2120.16
422.185	2167.26
422.393	2318.81
422.601	2372.06
422.809	2345.44
423.017	2466.27
423.224	2462.17
423.432	2482.65
423.64	2597.34
423.848	2773.46
424.056	2828.76
424.263	3107.28
424.471	2882
424.679	3234.25
424.887	3215.82
425.094	3187.15
425.302	3342.8
425.51	3637.7
425.718	3533.26
425.925	3545.55
426.133	3623.37
426.341	3918.28
426.548	3908.04
426.756	4035.01
426.964	4125.12
427.171	4465.08
427.379	4463.04
427.586	4657.59
427.794	4749.75
428.001	4942.26
428.209	5147.06
428.417	5091.76
428.624	5458.35
428.832	5540.27
429.039	5433.77
429.247	5435.82
429.454	5890.47
429.662	6240.67
429.869	5931.43
430.076	6298.02
430.284	6214.05
430.491	6420.89
430.699	6650.27
430.906	6697.37
431.114	6775.19
431.321	7066
431.528	7252.37
431.736	7711.11
431.943	8040.84
432.15	7545.23
432.358	7725.45
432.565	8186.24
432.772	8169.86
432.979	8595.84
433.187	8796.54
433.394	8728.95
433.601	9582.96
433.808	9734.51
434.016	9429.36
434.223	9843.05
434.43	10359.14
434.637	10144.1
434.844	10834.27
435.052	11053.4
435.259	10754.4
435.466	11280.72
435.673	11034.97
435.88	11811.15
436.087	12208.45
436.294	12194.12
436.501	12024.14
436.708	12360
436.915	12808.51
437.122	13330.74
437.329	13238.58
437.537	13586.74
437.743	14141.74
437.95	13775.15
438.157	14293.29
438.364	15008.03
438.571	15055.13
438.778	15108.38
438.985	16568.58
439.192	15733.01
439.399	16146.7
439.606	15919.37
439.813	17060.09
440.02	17826.03
440.227	17361.14
440.433	17330.42
440.64	17981.68
440.847	17670.39
441.054	18188.52
441.261	19511.51
441.467	19372.25
441.674	19353.82
441.881	20486.34
442.088	20326.6
442.294	20111.57
442.501	20414.66
442.708	20809.92
442.914	21801.14
443.121	22569.13
443.328	22210.73
443.534	23779.48
443.741	22661.29
443.948	22689.96
444.154	24447.11
444.361	24221.84
444.568	24309.9
444.774	24455.31
444.981	24658.06
445.187	24969.35
445.394	26460.27
445.6	26157.17
445.807	28434.51
446.013	27234.4
446.22	27842.65
446.426	28850.25
446.633	28827.72
446.839	30144.56
447.046	29110.34
447.252	30160.95
447.459	30543.92
447.665	29995.06
447.871	31399.97
448.078	32569.36
448.284	31125.54
448.491	31922.2
448.697	33193.99
448.903	33861.63
449.11	33642.49
449.316	33355.78
449.522	33826.81
449.728	34961.39
449.935	34912.24
450.141	34881.52
450.347	35786.72
450.553	34625.52
450.76	34629.62
450.966	36480.98
451.172	35157.99
451.378	36413.4
451.584	36143.06
451.791	36546.51
451.997	36263.89
452.203	37158.86
452.409	37115.85
452.615	36810.7
452.821	35422.18
453.027	35346.4
453.233	36976.59
453.44	35170.28
453.646	35915.74
453.852	35837.92
454.058	36673.49
454.264	35069.93
454.47	35801.05
454.676	35123.18
454.882	36265.94
455.088	33007.62
455.294	33556.48
455.5	33939.45
455.705	34652.14
455.911	32643.09
456.117	32192.53
456.323	31805.47
456.529	30226.48
456.735	31348.77
456.941	30472.24
457.147	30283.83
457.352	29233.22
457.558	28665.93
457.764	29022.28
457.97	28334.16
458.176	27615.32
458.381	27732.06
458.587	26519.66
458.793	26323.05
458.999	25086.08
459.204	26648.68
459.41	25839.73
459.616	24262.8
459.821	24473.74
460.027	24219.79
460.233	23515.29
460.438	22280.36
460.644	23058.59
460.85	21838
461.055	21606.58
461.261	21170.36
461.466	20076.75
461.672	19232.99
461.878	20580.55
462.083	19243.23
462.289	18962.65
462.494	18774.24
462.7	18147.56
462.905	17424.63
463.111	18086.12
463.316	18020.59
463.522	17737.97
463.727	17842.42
463.932	17678.58
464.138	17461.49
464.343	17580.28
464.549	17297.66
464.754	17801.46
464.959	17391.86
465.165	17344.76
465.37	16324.87
465.575	15960.33
465.781	16791.81
465.986	17084.67
466.191	16072.97
466.397	15843.6
466.602	15370.52
466.807	15896.85
467.012	15814.93
467.218	15886.61
467.423	15552.79
467.628	15761.68
467.833	16503.04
468.038	15458.58
468.244	15354.13
468.449	15941.9
468.654	15329.56
468.859	15241.5
469.064	15147.29
469.269	14338.34
469.474	14629.15
469.679	14788.89
469.885	14580
470.09	14698.78
470.295	14588.19
470.5	14260.52
470.705	14131.5
470.91	13850.92
471.115	13789.49
471.32	14131.5
471.525	14006.57
471.73	13695.28
471.935	13533.49
472.139	13189.43
472.344	13287.73
472.549	13494.58
472.754	13136.18
472.959	12788.03
473.164	12218.69
473.369	12394.82
473.574	12902.72
473.778	12718.4
473.983	12532.03
474.188	12491.07
474.393	12030.28
474.598	12046.66
474.802	11757.9
475.007	11833.68
475.212	11899.21
475.417	11397.46
475.621	11307.35
475.826	11354.45
476.031	11174.23
476.235	10867.03
476.44	11088.21
476.645	10971.48
476.849	11045.21
477.054	10643.81
477.259	10451.3
477.463	10828.12
477.668	10531.17
477.872	10512.74
478.077	10318.18
478.282	10195.3
478.486	10148.2
478.691	9992.55
478.895	9838.95
479.1	9879.91
479.304	9970.02
479.509	9732.46
479.713	9908.58
479.918	9447.79
480.122	9435.5
480.326	9611.63
480.531	9587.05
480.735	9498.99
480.94	9331.06
481.144	9720.17
481.348	9363.83
481.553	9408.88
481.757	9017.72
481.961	9322.87
482.166	9419.12
482.37	9359.73
482.574	9097.59
482.778	9132.4
482.983	9341.3
483.187	9185.65
483.391	9144.69
483.595	9318.77
483.8	8962.42
484.004	9064.82
484.208	9286
484.412	9134.45
484.616	9204.08
484.821	9347.44
485.025	9286
485.229	9245.04
485.433	9218.42
485.637	9077.11
485.841	9013.62
486.045	9136.5
486.249	9292.15
486.453	9030.01
486.657	9120.12
486.861	9193.84
487.065	8884.6
487.269	9228.66
487.473	8952.18
487.677	9220.47
487.881	9099.64
488.085	9255.28
488.289	9204.08
488.493	9146.74
488.697	9302.39
488.901	9144.69
489.105	9183.6
489.309	9197.94
489.512	9425.26
489.716	9318.77
489.92	9464.18
490.124	9247.09
490.328	9548.14
490.531	9437.55
490.735	9384.3
490.939	9396.59
491.143	9503.09
491.346	9515.37
491.55	9724.27
491.754	9372.02
491.958	9441.65
492.161	9490.8
492.365	9767.27
492.569	9742.7
492.772	9615.73
492.976	9824.62
493.18	9953.64
493.383	9974.12
493.587	9922.92
493.79	10180.96
493.994	9986.41
494.197	10039.65
494.401	10352.99
494.605	10183.01
494.808	10535.26
495.012	10393.95
495.215	10533.22
495.419	10652
495.622	10434.91
495.825	10826.07
496.029	10670.43
496.232	10926.43
496.436	10633.57
496.639	11166.04
496.843	11229.52
497.046	11454.8
497.249	11485.52
497.453	11569.49
497.656	11465.04
497.859	11544.91
498.063	11688.27
498.266	12204.36
498.469	11927.88
498.673	12093.77
498.876	12425.54
499.079	12669.25
499.282	12153.16
499.485	12982.59
499.689	12753.21
499.892	12857.66
500.095	12978.49
500.298	13269.3
500.501	13160.76
500.705	13412.66
500.908	13623.6
501.111	13832.49
501.314	13996.33
501.517	13943.08
501.72	14256.42
501.923	13965.61
502.126	14700.83
502.329	14874.91
502.532	15065.37
502.735	14950.68
502.938	15423.76
503.141	15352.09
503.344	15380.76
503.547	15444.24
503.75	15765.78
503.953	15950.09
504.156	16288.01
504.359	16210.18
504.562	16505.09
504.765	16873.73
504.968	16824.58
505.17	17076.48
505.373	17217.79
505.576	17637.62
505.779	17674.48
505.982	17979.63
506.185	18295.02
506.387	18186.47
506.59	18346.22
506.793	18788.58
506.996	18628.84
507.198	19271.9
507.401	19024.09
507.604	19589.33
507.807	19765.46
508.009	20035.79
508.212	20154.57
508.415	20064.46
508.617	20502.73
508.82	20469.96
509.022	20574.41
509.225	21354.68
509.428	21047.49
509.63	21108.93
509.833	21528.76
510.035	22036.66
510.238	22046.9
510.44	22126.77
510.643	22628.52
510.845	22683.81
511.048	22487.21
511.25	23255.2
511.453	23271.58
511.655	24217.74
511.858	23986.32
512.06	24033.43
512.262	24359.05
512.465	24514.7
512.667	24817.8
512.87	24721.54
513.072	24877.19
513.274	25733.24
513.477	25935.99
513.679	26032.24
513.881	26359.92
514.084	26556.52
514.286	26568.81
514.488	26763.37
514.69	27463.77
514.893	27474.01
515.095	27383.9
515.297	28383.31
515.499	28018.77
515.701	28782.66
515.904	28971.08
516.106	29022.28
516.308	29196.35
516.51	29917.24
516.712	29814.84
516.914	29900.86
517.116	30656.56
517.318	30570.54
517.52	31184.93
517.722	31012.9
517.925	31307.81
518.127	31701.02
518.329	32337.94
518.531	32174.1
518.733	32585.74
518.935	32974.86
519.136	33177.61
519.338	33269.76
519.54	33396.74
519.742	33839.1
519.944	33859.58
520.146	34797.55
520.348	34648.05
520.55	34727.92
520.752	35031.02
520.954	35708.9
521.155	35495.91
521.357	36126.68
521.559	36124.63
521.761	37124.04
521.963	36919.24
522.164	37009.36
522.366	37261.26
522.568	37654.47
522.77	37771.2
522.971	38451.13
523.173	38111.16
523.375	38741.94
523.576	38619.06
523.778	38629.3
523.98	39546.79
524.181	39581.6
524.383	39720.87
524.584	40314.78
524.786	40245.15
524.988	40322.97
525.189	40470.42
525.391	40810.39
525.592	41107.34
525.794	41181.07
525.995	41625.48
526.197	41766.79
526.398	41932.67
526.6	41975.68
526.801	42178.43
527.003	42803.06
527.204	42418.04
527.406	42874.74
527.607	42735.48
527.808	43386.73
528.01	42356.6
528.211	43157.36
528.412	43702.12
528.614	43593.57
528.815	43917.15
529.016	44210.01
529.218	43491.18
529.419	43900.77
529.62	44320.6
529.822	44429.15
530.023	44502.87
530.224	43941.73
530.425	44431.19
530.626	44078.94
530.828	44384.09
531.029	45424.46
531.23	44525.4
531.431	44808.02
531.632	44971.86
531.833	45295.44
532.035	45295.44
532.236	45119.31
532.437	45260.62
532.638	44750.68
532.839	45455.18
533.04	45492.04
533.241	44898.13
533.442	45950.79
533.643	45442.89
533.844	45811.52
534.045	45721.41
534.246	45498.19
534.447	46174.02
534.648	45655.88
534.849	45668.17
535.05	45664.07
535.251	45926.21
535.451	45856.58
535.652	45885.25
535.853	45870.92
536.054	45856.58
536.255	46108.48
536.456	45573.96
536.657	46894.9
536.857	46006.08
537.058	45762.37
537.259	46235.45
537.46	46085.95
537.66	45881.16
537.861	45834.05
538.062	45670.22
538.263	46196.54
538.463	45963.07
538.664	46432.06
538.865	46036.8
539.065	46577.47
539.266	45610.82
539.466	46630.71
539.667	45469.51
539.868	46362.43
540.068	46249.79
540.269	45885.25
540.469	46182.21
540.67	46092.1
540.87	46094.14
541.071	46094.14
541.271	45612.87
541.472	46133.06
541.672	45690.69
541.873	45657.93
542.073	45719.37
542.274	46102.34
542.474	45608.78
542.675	45479.75
542.875	46481.21
543.075	45766.47
543.276	44980.05
543.476	46139.2
543.676	45682.5
543.877	46096.19
544.077	45748.04
544.277	45821.76
544.478	45676.36
544.678	46169.92
544.878	45858.63
545.078	45645.64
545.279	45932.36
545.479	45399.88
545.679	45672.26
545.879	45823.81
546.079	46174.02
546.28	45969.22
546.48	45367.12
546.68	45659.98
546.88	45817.67
547.08	45737.8
547.28	45948.74
547.48	45391.69
547.68	45797.19
547.88	45533
548.081	46014.27
548.281	45819.72
548.481	45326.16
548.681	45997.89
548.881	45547.34
549.081	45528.91
549.28	45428.55
549.48	45891.4
549.68	45117.26
549.88	45983.55
550.08	45389.64
550.28	45356.88
550.48	45141.84
550.68	45938.5
550.88	45219.66
551.08	45219.66
551.279	45121.36
551.479	44848.98
551.679	45567.82
551.879	45543.24
552.079	45967.17
552.278	45172.56
552.478	45193.04
552.678	45066.06
552.878	45535.05
553.077	45633.35
553.277	44738.39
553.477	45414.22
553.676	44969.81
553.876	45627.21
554.076	44914.51
554.275	44703.57
554.475	44660.57
554.674	45156.17
554.874	44765.01
555.074	44910.42
555.273	44586.84
555.473	44851.03
555.672	44732.25
555.872	44599.13
556.071	44525.4
556.271	45133.65
556.47	44408.67
556.67	44070.75
556.869	44375.9
557.068	45162.32
557.268	44296.03
557.467	44091.23
557.667	44605.27
557.866	44328.8
558.065	44316.51
558.265	44128.09
558.464	43548.52
558.663	44046.18
558.863	43212.65
559.062	44408.67
559.261	43425.64
559.461	43775.84
559.66	43218.8
559.859	43695.97
560.058	43114.35
560.258	43831.14
560.457	43026.29
560.656	43460.46
560.855	42981.23
561.054	43224.94
561.253	43001.71
561.453	42938.22
561.652	42977.14
561.851	42780.53
562.05	42669.94
562.249	42114.94
562.448	43188.08
562.647	42325.88
562.846	42289.02
563.045	43024.24
563.244	41707.4
563.443	42553.21
563.642	42172.28
563.841	42024.83
564.04	41609.09
564.239	41920.38
564.438	41709.44
564.637	42243.96
564.836	41334.67
565.035	41150.35
565.234	41932.67
565.432	41078.67
565.631	41334.67
565.83	41310.09
566.029	41420.68
566.228	40867.73
566.427	40847.25
566.625	40484.76
566.824	40093.6
567.023	40648.6
567.222	39890.85
567.42	40521.62
567.619	40558.49
567.818	40089.5
568.016	39933.85
568.215	40337.3
568.414	39729.06
568.612	40122.27
568.811	39745.44
569.01	39716.77
569.208	39182.25
569.407	39436.2
569.605	38891.44
569.804	39165.87
570.002	39016.36
570.201	38729.65
570.4	38664.11
570.598	38524.85
570.797	38449.08
570.995	39006.12
571.193	38340.53
571.392	38594.48
571.59	38303.67
571.789	37822.4
571.987	38025.15
572.186	37873.6
572.384	37826.49
572.582	38154.17
572.781	37736.38
572.979	37203.91
573.177	37128.14
573.376	37291.97
573.574	36755.41
573.772	37390.28
573.971	36968.4
574.169	36939.72
574.367	36431.83
574.565	36984.78
574.763	36706.26
574.962	36374.48
575.16	36032.47
575.358	36220.89
575.556	36120.54
575.754	36505.55
575.952	35870.68
576.151	35940.32
576.349	35395.56
576.547	35657.7
576.745	35739.61
576.943	35850.2
577.141	35514.34
577.339	35553.25
577.537	35420.13
577.735	35209.19
577.933	35055.59
578.131	35053.55
578.329	35028.97
578.527	34732.01
578.725	34734.06
578.923	34478.07
579.121	34646
579.319	34414.58
579.516	34637.81
579.714	34562.03
579.912	34064.38
580.11	34138.1
580.308	34031.61
580.506	33835
580.704	33544.19
580.901	33753.08
581.099	33865.72
581.297	33310.72
581.495	33441.79
581.692	33345.54
581.89	33155.08
582.088	33142.79
582.285	32960.52
582.483	33161.22
582.681	32913.42
582.878	33275.91
583.076	32411.67
583.274	33085.45
583.471	32219.16
583.669	32442.38
583.866	32040.98
584.064	32436.24
584.262	32127
584.459	32370.71
584.657	31971.35
584.854	32063.51
585.052	31627.29
585.249	31672.35
585.447	31838.23
585.644	31594.53
585.841	31262.75
586.039	31596.57
586.236	31105.06
586.434	31021.09
586.631	30930.98
586.828	30992.42
587.026	30988.33
587.223	30804.01
587.42	30627.88
587.618	30707.76
587.815	30210.1
588.012	30730.28
588.21	30132.28
588.407	30748.71
588.604	30283.83
588.801	29853.75
588.999	30271.54
589.196	30251.06
589.393	30130.23
589.59	29632.57
589.787	29433.92
589.984	28977.22
590.182	29708.35
590.379	29476.93
590.576	29524.03
590.773	28999.75
590.97	29063.24
591.167	28995.65
591.364	28624.97
591.561	28878.92
591.758	28727.37
591.955	28647.5
592.152	29233.22
592.349	28289.1
592.546	28528.72
592.743	28481.61
592.94	27957.33
593.137	28051.54
593.334	28383.31
593.531	28076.12
593.727	28168.27
593.924	28139.6
594.121	27580.51
594.318	27932.76
594.515	27506.78
594.712	28063.83
594.908	27805.78
595.105	27848.79
595.302	27193.44
595.499	27365.47
595.696	27058.28
595.892	26959.97
596.089	27246.69
596.286	26998.88
596.482	26792.04
596.679	26730.6
596.876	27007.08
597.072	26771.56
597.269	26515.56
597.466	26325.1
597.662	26378.35
597.859	26132.59
598.055	26419.31
598.252	26275.95
598.448	26216.56
598.645	26050.67
598.841	25837.69
599.038	25708.66
599.234	26056.82
599.431	25596.03
599.627	25481.34
599.824	25505.91
600.02	25383.04
600.217	25403.52
600.413	25055.36
600.609	25065.6
600.806	25190.53
601.002	25428.09
601.198	25176.19
601.395	25096.32
601.591	24942.72
601.787	25026.69
601.984	24584.33
602.18	24713.35
602.376	24408.2
602.572	24471.69
602.769	24373.39
602.965	24520.84
603.161	24324.24
603.357	24000.66
603.553	24240.27
603.75	24166.54
603.946	23705.75
604.142	23892.12
604.338	23535.77
604.534	23689.37
604.73	23253.15
604.926	23408.79
605.122	23601.3
605.318	23255.2
605.514	23300.25
605.71	23144.61
605.906	23371.93
606.102	23103.65
606.298	23120.03
606.494	23029.92
606.69	23163.04
606.886	23029.92
607.082	22849.7
607.278	22753.44
607.474	22681.77
607.67	22874.27
607.866	22081.71
608.062	22769.83
608.257	22272.17
608.453	22444.2
608.649	22466.73
608.845	22280.36
609.041	22257.84
609.236	22077.62
609.432	22194.35
609.628	22356.14
609.824	22358.19
610.019	21911.73
610.215	22034.61
610.411	22055.09
610.606	22001.84
610.802	21960.88
610.998	21682.36
611.193	21846.19
611.389	21715.12
611.584	21633.21
611.78	21551.29
611.976	21604.53
612.171	21586.1
612.367	21647.54
612.562	21080.25
612.758	21145.79
612.953	20951.23
613.149	21395.64
613.344	21029.06
613.539	21528.76
613.735	21110.97
613.93	21299.39
614.126	20986.05
614.321	21063.87
614.517	21117.12
614.712	21121.21
614.907	20840.64
615.103	20789.44
615.298	20779.2
615.493	21037.25
615.688	20510.92
615.884	20951.23
616.079	20482.25
616.274	20852.93
616.47	20472.01
616.665	20906.18
616.86	20160.72
617.055	20324.55
617.25	20189.39
617.445	20181.2
617.641	20068.56
617.836	20277.45
618.031	20076.75
618.226	20291.79
618.421	20080.85
618.616	20109.52
618.811	19765.46
619.006	20078.8
619.201	19837.14
619.396	19642.58
619.591	19220.7
619.786	19671.25
619.981	19431.64
620.176	19593.43
620.371	19232.99
620.566	19138.78
620.761	19106.01
620.956	19056.86
621.151	18970.85
621.346	18831.58
621.541	18718.95
621.735	19075.29
621.93	18460.9
622.125	18911.46
622.32	18559.2
622.515	18508.01
622.709	18280.68
622.904	18411.75
623.099	18317.54
623.294	18348.26
623.488	17598.71
623.683	18067.69
623.878	17705.2
624.072	17535.22
624.267	17574.13
624.462	17500.4
624.656	17367.29
624.851	17510.64
625.046	17498.36
625.24	17256.7
625.435	16791.81
625.629	16937.21
625.824	16793.86
626.018	16763.14
626.213	16632.07
626.407	16746.75
626.602	16443.65
626.796	16638.21
626.991	16449.8
627.185	16140.55
627.38	16107.79
627.574	16089.35
627.768	15851.79
627.963	15829.26
628.157	15749.39
628.352	16068.87
628.546	15735.06
628.74	15718.67
628.935	15593.75
629.129	15528.21
629.323	15163.67
629.517	15622.42
629.712	15073.56
629.906	15233.3
630.1	14637.34
630.294	15311.13
630.489	14815.52
630.683	14782.75
630.877	14588.19
631.071	14807.33
631.265	14649.63
631.459	14784.8
631.653	14385.44
631.848	14520.61
632.042	14166.31
632.236	14154.02
632.43	13979.95
632.624	14260.52
632.818	14225.7
633.012	13807.92
633.206	13723.95
633.4	13922.6
633.594	13513.01
633.788	13654.32
633.982	13617.46
634.176	13472.05
634.369	13617.46
634.563	13390.13
634.757	13392.18
634.951	13365.56
635.145	13263.16
635.339	13031.74
635.533	13134.14
635.726	12861.76
635.92	12814.65
636.114	12843.32
636.308	12665.15
636.501	12685.63
636.695	12749.12
636.889	12417.35
637.083	12550.46
637.276	12505.41
637.47	12468.55
637.664	12206.41
637.857	12304.71
638.051	12114.25
638.244	12081.48
638.438	11981.13
638.632	11999.56
638.825	11753.8
639.019	11626.83
639.212	11823.44
639.406	11782.48
639.599	11749.71
639.793	11606.35
639.986	11161.94
640.18	11604.3
640.373	11622.73
640.567	11231.57
640.76	11178.33
640.954	11231.57
641.147	11059.54
641.34	11184.47
641.534	11125.08
641.727	10942.81
641.92	10895.71
642.114	10928.47
642.307	10781.02
642.5	10500.45
642.694	10783.07
642.887	10475.87
643.08	10719.58
643.273	10412.39
643.467	10457.44
643.66	10295.65
643.853	10232.16
644.046	10068.33
644.239	10129.77
644.432	10236.26
644.626	9845.1
644.819	9879.91
645.012	9949.54
645.205	9859.43
645.398	9963.88
645.591	9804.14
645.784	9779.56
645.977	9589.1
646.17	9664.88
646.363	9511.28
646.556	9699.69
646.749	9509.23
646.942	9699.69
647.135	9169.27
647.328	9372.02
647.521	9240.95
647.714	9275.76
647.907	9204.08
648.099	9191.8
648.292	9048.44
648.485	9032.05
648.678	8792.44
648.871	8956.28
649.064	8845.69
649.256	8761.72
649.449	8624.51
649.642	8655.23
649.835	8755.58
650.027	8599.93
650.22	8694.14
650.413	8657.28
650.605	8520.06
650.798	8563.07
650.991	8368.51
651.183	8241.54
651.376	8286.59
651.568	8364.42
651.761	8278.4
651.954	8249.73
652.146	8008.07
652.339	8235.39
652.531	8143.24
652.724	8149.38
652.916	7989.64
653.109	7930.25
653.301	7989.64
653.494	8135.04
653.686	7924.1
653.879	7754.12
654.071	7836.04
654.263	7659.92
654.456	7559.56
654.648	7829.9
654.84	7555.47
655.033	7575.95
655.225	7625.1
655.417	7446.93
655.61	7684.49
655.802	7483.79
655.994	7383.44
656.186	7500.17
656.379	7281.04
656.571	7410.06
656.763	7098.77
656.955	7235.99
657.148	7190.93
657.34	7170.45
657.532	6990.23
657.724	7039.38
657.916	7039.38
658.108	7006.61
658.3	6822.3
658.492	7035.28
658.684	6756.76
658.876	6850.97
659.068	6818.2
659.26	6812.06
659.452	6672.79
659.644	6580.64
659.836	6680.99
660.028	6910.36
660.22	6400.41
660.412	6517.15
660.604	6551.96
660.796	6537.63
660.988	6701.47
661.18	6468
661.372	6486.43
661.563	6400.41
661.755	6287.78
661.947	6304.16
662.139	6367.65
662.331	6357.41
662.522	6255.01
662.714	6240.67
662.906	6103.46
663.097	6205.86
663.289	6197.67
663.481	6140.32
663.673	5994.92
663.864	6023.59
664.056	5863.85
664.247	6144.42
664.439	5951.91
664.631	5947.81
664.822	5939.62
665.014	5869.99
665.205	5962.15
665.397	5927.33
665.588	5681.58
665.78	5857.7
665.971	5570.99
666.163	5779.88
666.354	5808.55
666.546	5501.36
666.737	5663.15
666.929	5761.45
667.12	5560.75
667.311	5837.22
667.503	5429.68
667.694	5579.18
667.885	5374.38
668.077	5538.22
668.268	5409.2
668.459	5505.45
668.651	5417.39
668.842	5304.75
669.033	5282.22
669.224	5224.88
669.416	5415.34
669.607	5331.37
669.798	5308.85
669.989	5140.91
670.18	5181.87
670.371	5444.01
670.563	5132.72
670.754	5314.99
670.945	5149.11
671.136	5124.53
671.327	5140.91
671.518	4966.84
671.709	5243.31
671.9	5194.16
672.091	5210.54
672.282	5042.61
672.473	5067.19
672.664	5015.99
672.855	4936.12
673.046	5052.85
673.237	5028.28
673.428	4956.6
673.619	5038.52
673.809	4977.08
674	4948.4
674.191	4794.81
674.382	4919.73
674.573	4907.45
674.764	4886.97
674.954	5009.84
675.145	4841.91
675.336	4790.71
675.527	4852.15
675.717	4966.84
675.908	4889.01
676.099	4811.19
676.289	4698.55
676.48	4755.9
676.671	4725.18
676.861	4870.58
677.052	4803
677.243	4796.85
677.433	4743.61
677.624	4706.74
677.814	4837.81
678.005	4719.03
678.195	4657.59
678.386	4729.27
678.576	4823.48
678.767	4782.52
678.957	4622.78
679.148	4815.29
679.338	4657.59
679.529	4608.44
679.719	4751.8
679.909	4714.94
680.1	4729.27
680.29	4796.85
680.481	4532.67
680.671	4696.5
680.861	4608.44
681.052	4682.17
681.242	4731.32
681.432	4655.54
681.622	4673.98
681.813	4620.73
682.003	4520.38
682.193	4491.71
682.383	4655.54
682.573	4618.68
682.764	4714.94
682.954	4706.74
683.144	4641.21
683.334	4436.41
683.524	4606.39
683.714	4673.98
683.904	4559.29
684.094	4604.35
684.284	4551.1
684.474	4514.24
684.664	4577.72
684.854	4633.02
685.044	4714.94
685.234	4508.09
685.424	4592.06
685.614	4354.49
685.804	4348.35
685.994	4506.04
686.184	4485.56
686.374	4526.52
686.564	4358.59
686.753	4428.22
686.943	4405.69
687.133	4463.04
687.323	4393.4
687.513	4348.35
687.702	4243.9
687.892	4352.45
688.082	4311.49
688.272	4278.72
688.461	4217.28
688.651	4202.94
688.841	4331.97
689.03	4288.96
689.22	4151.74
689.41	4282.81
689.599	4237.76
689.789	4284.86
689.979	4260.29
690.168	4116.93
690.358	4127.17
690.547	4223.42
690.737	4006.34
690.926	4196.8
691.116	3975.62
691.305	4178.37
691.495	4053.44
691.684	3965.38
691.874	3932.61
692.063	4049.35
692.252	4004.29
692.442	4157.89
692.631	3924.42
692.82	3981.76
693.01	3842.5
693.199	3881.41
693.388	3772.87
693.578	3711.43
693.767	3936.71
693.956	3736.01
694.146	3918.28
694.335	3746.25
694.524	3860.93
694.713	3922.37
694.902	3697.1
695.092	3879.36
695.281	3891.65
695.47	3819.97
695.659	3785.16
695.848	3752.39
696.037	3760.58
696.226	3805.64
696.415	3723.72
696.604	3772.87
696.793	3525.07
696.982	3690.95
697.171	3723.72
697.36	3772.87
697.549	3699.14
697.738	3613.13
697.927	3535.31
698.116	3715.53
698.305	3783.11
698.494	3615.18
698.683	3520.97
698.872	3725.77
699.061	3736.01
699.25	3738.05
699.438	3656.14
699.627	3768.77
699.816	3688.9
700.005	3664.33
700.193	3690.95
700.382	3615.18
700.571	3772.87
700.76	3649.99
700.948	3645.9
701.137	3555.79
701.326	3637.7
701.514	3584.46
701.703	3668.42
701.892	3531.21
702.08	3779.01
702.269	3611.08
702.457	3570.12
702.646	3631.56
702.834	3557.83
703.023	3627.46
703.212	3590.6
703.4	3568.07
703.589	3498.44
703.777	3699.14
703.965	3549.64
704.154	3543.5
704.342	3592.65
704.531	3553.74
704.719	3486.15
704.907	3545.55
705.096	3488.2
705.284	3629.51
705.472	3496.39
705.661	3602.89
705.849	3523.02
706.037	3631.56
706.226	3633.61
706.414	3600.84
706.602	3459.53
706.79	3656.14
706.979	3586.51
707.167	3525.07
707.355	3633.61
707.543	3541.45
707.731	3801.54
707.919	3488.2
708.107	3551.69
708.296	3541.45
708.484	3473.87
708.672	3670.47
708.86	3590.6
709.048	3609.03
709.236	3529.16
709.424	3676.62
709.612	3551.69
709.8	3611.08
709.988	3633.61
710.176	3666.38
710.364	3627.46
710.551	3678.66
710.739	3592.65
710.927	3654.09
711.115	3613.13
711.303	3652.04
711.491	3576.27
711.679	3533.26
711.866	3670.47
712.054	3600.84
712.242	3500.49
712.43	3664.33
712.617	3553.74
712.805	3590.6
712.993	3639.75
713.181	3504.59
713.368	3563.98
713.556	3629.51
713.744	3543.5
713.931	3701.19
714.119	3613.13
714.306	3598.79
714.494	3670.47
714.682	3588.55
714.869	3637.7
715.057	3779.01
715.244	3682.76
715.432	3606.98
715.619	3748.29
715.807	3475.91
715.994	3561.93
716.182	3680.71
716.369	3695.05
716.556	3693
716.744	3598.79
716.931	3666.38
717.119	3609.03
717.306	3490.25
717.493	3561.93
717.681	3664.33
717.868	3670.47
718.055	3721.67
718.242	3670.47
718.43	3664.33
718.617	3664.33
718.804	3684.81
718.991	3684.81
719.179	3723.72
719.366	3629.51
719.553	3641.8
719.74	3606.98
719.927	3805.64
720.114	3686.86
720.301	3744.2
720.488	3533.26
720.676	3600.84
720.863	3731.91
721.05	3633.61
721.237	3742.15
721.424	3553.74
721.611	3707.34
721.798	3633.61
721.985	3602.89
722.172	3525.07
722.358	3731.91
722.545	3592.65
722.732	3574.22
722.919	3645.9
723.106	3639.75
723.293	3617.22
723.48	3660.23
723.667	3615.18
723.853	3568.07
724.04	3660.23
724.227	3514.83
724.414	3645.9
724.6	3590.6
724.787	3606.98
724.974	3576.27
725.161	3576.27
725.347	3432.91
725.534	3621.32
725.72	3576.27
725.907	3594.7
726.094	3568.07
726.28	3547.59
726.467	3559.88
726.653	3649.99
726.84	3570.12
727.027	3623.37
727.213	3586.51
727.4	3469.77
727.586	3506.63
727.773	3606.98
727.959	3451.34
728.145	3658.18
728.332	3568.07
728.518	3629.51
728.705	3523.02
728.891	3600.84
729.077	3637.7
729.264	3559.88
729.45	3568.07
729.636	3549.64
729.823	3512.78
730.009	3566.03
730.195	3553.74
730.382	3494.35
730.568	3434.96
730.754	3492.3
730.94	3654.09
731.126	3457.48
731.313	3584.46
731.499	3529.16
731.685	3400.14
731.871	3439.05
732.057	3580.36
732.243	3553.74
732.429	3453.39
732.615	3529.16
732.801	3394
732.987	3498.44
733.173	3381.71
733.359	3484.11
733.545	3406.28
733.731	3453.39
733.917	3432.91
734.103	3584.46
734.289	3430.86
734.475	3475.91
734.661	3578.31
734.847	3572.17
735.033	3449.29
735.219	3398.09
735.404	3445.2
735.59	3312.08
735.776	3348.94
735.962	3465.68
736.148	3496.39
736.333	3215.82
736.519	3494.35
736.705	3426.76
736.89	3355.08
737.076	3264.97
737.262	3408.33
737.447	3375.56
737.633	3348.94
737.819	3297.74
738.004	3293.65
738.19	3338.7
738.375	3285.45
738.561	3443.15
738.747	3262.93
738.932	3187.15
739.118	3267.02
739.303	3281.36
739.489	3162.58
739.674	3277.26
739.859	3232.21
740.045	3215.82
740.23	3168.72
740.416	3156.43
740.601	3320.27
740.786	3267.02
740.972	3025.36
741.157	3254.73
741.342	3191.25
741.528	3113.42
741.713	3158.48
741.898	3109.33
742.084	3076.56
742.269	3125.71
742.454	2994.64
742.639	3109.33
742.824	3064.27
743.01	3033.55
743.195	3039.7
743.38	3152.34
743.565	2882
743.75	3025.36
743.935	3088.85
744.12	3062.23
744.305	2990.55
744.49	2910.68
744.675	2994.64
744.86	2927.06
745.045	2898.39
745.23	2925.01
745.415	2869.72
745.6	2945.49
745.785	2769.37
745.97	2781.65
746.155	2789.85
746.34	2730.45
746.525	2841.04
746.71	2865.62
746.895	2775.51
747.079	2779.61
747.264	2593.24
747.449	2642.39
747.634	2744.79
747.819	2691.54
748.003	2527.71
748.188	2560.47
748.373	2650.58
748.557	2599.38
748.742	2556.38
748.927	2607.58
749.111	2566.62
749.296	2464.22
749.481	2544.09
749.665	2531.8
749.85	2499.03
750.034	2509.27
750.219	2372.06
750.404	2437.59
750.588	2435.55
750.773	2355.68
750.957	2439.64
751.141	2339.29
751.326	2445.79
751.51	2197.98
751.695	2370.01
751.879	2277.85
752.064	2329.05
752.248	2179.55
752.432	2281.95
752.617	2181.6
752.801	2279.9
752.985	2204.13
753.17	2148.83
753.354	2124.26
753.538	2163.17
753.722	2079.2
753.907	2144.74
754.091	2120.16
754.275	2097.63
754.459	2083.3
754.643	2036.19
754.828	2032.1
755.012	1982.95
755.196	2011.62
755.38	1886.69
755.564	1886.69
755.748	1909.22
755.932	2019.81
756.116	1853.92
756.3	1962.47
756.484	1825.25
756.668	1888.74
756.852	1911.27
757.036	1774.05
757.22	1868.26
757.404	1798.63
757.588	1808.87
757.772	1815.01
757.956	1765.86
758.14	1741.29
758.323	1724.9
758.507	1837.54
758.691	1720.81
758.875	1753.57
759.059	1720.81
759.242	1683.94
759.426	1622.5
759.61	1618.41
759.794	1739.24
759.977	1616.36
760.161	1753.57
760.345	1712.61
760.528	1616.36
760.712	1630.7
760.895	1622.5
761.079	1593.83
761.263	1571.3
761.446	1556.97
761.63	1640.93
761.813	1548.78
761.997	1468.91
762.18	1559.02
762.364	1552.87
762.547	1520.1
762.731	1505.77
762.914	1604.07
763.098	1530.34
763.281	1470.95
763.464	1397.23
763.648	1567.21
763.831	1458.67
764.015	1421.8
764.198	1528.3
764.381	1436.14
764.564	1503.72
764.748	1554.92
764.931	1438.19
765.114	1380.84
765.297	1411.56
765.481	1438.19
765.664	1380.84
765.847	1405.42
766.03	1337.84
766.213	1386.99
766.397	1317.36
766.58	1378.79
766.763	1374.7
766.946	1378.79
767.129	1317.36
767.312	1354.22
767.495	1350.12
767.678	1307.12
767.861	1327.6
768.044	1282.54
768.227	1270.25
768.41	1237.49
768.593	1284.59
768.776	1255.92
768.959	1317.36
769.142	1315.31
769.324	1262.06
769.507	1278.44
769.69	1237.49
769.873	1286.64
770.056	1241.58
770.239	1262.06
770.421	1260.01
770.604	1212.91
770.787	1155.57
770.97	1161.71
771.152	1206.77
771.335	1276.4
771.518	1159.66
771.7	1141.23
771.883	1147.37
772.066	1114.61
772.248	1178.09
772.431	1169.9
772.613	1098.22
772.796	1094.13
772.978	1077.74
773.161	1137.13
773.343	989.68
773.526	1116.65
773.708	958.96
773.891	1010.16
774.073	1077.74
774.256	1061.36
774.438	1098.22
774.621	1075.7
774.803	1075.7
774.985	950.77
775.168	940.53
775.35	983.54
775.532	958.96
775.715	913.91
775.897	924.15
776.079	973.3
776.261	999.92
776.444	950.77
776.626	897.52
776.808	930.29
776.99	971.25
777.173	877.04
777.355	918
777.537	952.82
777.719	901.62
777.901	889.33
778.083	930.29
778.265	891.38
778.447	905.71
778.629	860.66
778.811	858.61
778.993	868.85
779.175	803.32
779.357	881.14
779.539	774.64
779.721	739.83
779.903	801.27
780.085	788.98
780.267	821.75
780.449	811.51
780.631	786.93
780.812	891.38
780.994	768.5
781.176	735.73
781.358	809.46
781.54	764.4
781.721	729.59
781.903	774.64
782.085	772.6
782.267	723.44
782.448	750.07
782.63	737.78
782.812	725.49
782.993	780.79
783.175	733.68
783.357	662.01
783.538	700.92
783.72	631.29
783.901	602.61
784.083	760.31
784.264	686.58
784.446	584.18
784.627	623.09
784.809	528.89
784.99	649.72
785.172	676.34
785.353	625.14
785.535	682.49
785.716	584.18
785.897	475.64
786.079	639.48
786.26	553.46
786.441	655.86
786.623	575.99
786.804	549.37
786.985	616.95
787.167	694.77
787.348	526.84
787.529	567.8
787.71	592.37
787.891	543.22
788.073	575.99
788.254	518.65
788.435	549.37
788.616	592.37
788.797	614.9
788.978	625.14
789.159	475.64
789.34	487.93
789.522	498.17
789.703	514.55
789.884	479.74
790.065	459.26
790.246	494.07
790.427	457.21
790.607	487.93
790.788	559.61
790.969	494.07
791.15	545.27
791.331	428.54
791.512	432.63
791.693	387.58
791.874	426.49
792.054	557.56
792.235	446.97
792.416	492.02
792.597	418.3
792.778	504.31
792.958	420.35
793.139	492.02
793.32	455.16
793.5	393.72
793.681	438.78
793.862	467.45
794.042	377.34
794.223	459.26
794.404	377.34
794.584	463.35
794.765	381.43
794.945	410.11
795.126	432.63
795.306	434.68
795.487	406.01
795.667	330.23
795.848	348.67
796.028	330.23
796.209	481.78
796.389	350.71
796.57	360.95
796.75	297.47
796.93	420.35
797.111	295.42
797.291	414.2
797.471	363
797.652	473.59
797.832	397.82
798.012	397.82
798.192	397.82
798.373	303.61
798.553	406.01
798.733	328.19
798.913	199.16
799.093	397.82
799.274	387.58
799.454	406.01
799.634	332.28
799.814	258.56
799.994	303.61
800.174	393.72
800.354	295.42
800.534	322.04
800.714	289.28
800.894	332.28
801.074	299.52
801.254	274.94
801.434	356.86
801.614	344.57
801.794	307.71
801.974	856.56
802.154	307.71
802.334	338.43
802.514	295.42
802.693	287.23
802.873	272.89
803.053	307.71
803.233	322.04
803.413	250.36
803.592	248.32
803.772	348.67
803.952	369.15
804.131	256.51
804.311	334.33
804.491	299.52
804.67	295.42
804.85	367.1
805.03	293.37
805.209	264.7
805.389	262.65
805.568	236.03
805.748	246.27
805.928	283.13
806.107	287.23
806.287	240.12
806.466	324.09
806.646	221.69
806.825	264.7
807.004	203.26
807.184	291.32
807.363	264.7
807.543	221.69
807.722	320
807.901	309.76
808.081	293.37
808.26	221.69
808.439	324.09
808.619	262.65
808.798	207.36
808.977	209.4
809.156	272.89
809.336	293.37
809.515	160.25
809.694	164.35
809.873	233.98
810.052	309.76
810.231	299.52
810.411	225.79
810.59	248.32
810.769	193.02
810.948	215.55
811.127	141.82
811.306	264.7
811.485	268.8
811.664	231.93
811.843	184.83
812.022	186.88
812.201	211.45
812.38	166.4
812.559	252.41
812.737	201.21
812.916	184.83
813.095	215.55
813.274	244.22
813.453	213.5
813.632	188.93
813.811	199.16
813.989	238.08
814.168	197.12
814.347	266.75
814.526	229.88
814.704	184.83
814.883	334.33
815.062	199.16
815.24	166.4
815.419	152.06
815.598	162.3
815.776	168.45
815.955	176.64
816.133	121.34
816.312	186.88
816.49	147.97
816.669	133.63
816.847	156.16
817.026	188.93
817.204	158.21
817.383	180.73
817.561	164.35
817.74	246.27
817.918	166.4
818.097	102.91
818.275	131.58
818.453	168.45
818.632	176.64
818.81	188.93
818.988	160.25
819.167	262.65
819.345	205.31
819.523	94.72
819.701	139.77
819.879	152.06
820.058	162.3
820.236	143.87
820.414	133.63
820.592	158.21
820.77	174.59
820.948	135.68
821.127	104.96
821.305	90.62
821.483	74.24
821.661	262.65
821.839	213.5
822.017	117.25
822.195	195.07
822.373	197.12
822.551	158.21
822.729	184.83
822.907	131.58
823.085	168.45
823.262	182.78
823.44	119.29
823.618	98.81
823.796	174.59
823.974	143.87
824.152	82.43
824.329	145.92
824.507	143.87
824.685	119.29
824.863	137.73
825.04	129.53
825.218	111.1
825.396	143.87
825.574	145.92
825.751	100.86
825.929	123.39
826.107	82.43
826.284	94.72
826.462	180.73
826.639	160.25
826.817	86.53
826.994	100.86
827.172	115.2
827.349	147.97
827.527	143.87
827.704	82.43
827.882	107.01
828.059	129.53
828.237	150.01
828.414	143.87
828.591	78.33
828.769	125.44
828.946	133.63
829.124	121.34
829.301	143.87
829.478	160.25
829.655	129.53
829.833	141.82
830.01	68.09
830.187	117.25
830.364	150.01
830.542	166.4
830.719	168.45
830.896	127.49
831.073	102.91
831.25	141.82
831.427	160.25
831.604	135.68
831.782	72.19
831.959	98.81
832.136	139.77
832.313	127.49
832.49	98.81
832.667	176.64
832.844	113.15
833.021	160.25
833.198	174.59
833.374	111.1
833.551	70.14
833.728	102.91
833.905	98.81
834.082	-17.92
834.259	82.43
834.436	174.59
834.612	66.05
834.789	127.49
834.966	150.01
835.143	100.86
835.319	47.62
835.496	92.67
835.673	98.81
835.85	113.15
836.026	72.19
836.203	193.02
836.38	100.86
836.556	57.86
836.733	86.53
836.909	131.58
837.086	27.14
837.262	104.96
837.439	104.96
837.616	49.66
837.792	16.9
837.968	135.68
838.145	20.99
838.321	127.49
838.498	111.1
838.674	121.34
838.851	51.71
839.027	70.14
839.203	111.1
839.38	70.14
839.556	135.68
839.732	178.69
839.909	41.47
840.085	74.24
840.261	0.51
840.437	86.53
840.614	92.67
840.79	66.05
840.966	86.53
841.142	100.86
841.318	80.38
841.494	92.67
841.671	55.81
841.847	33.28
842.023	107.01
842.199	59.9
842.375	117.25
842.551	14.85
842.727	16.9
842.903	119.29
843.079	-22.02
843.255	66.05
843.431	84.48
843.607	98.81
843.783	-34.3
843.959	68.09
844.134	94.72
844.31	86.53
844.486	70.14
844.662	8.7
844.838	61.95
845.013	166.4
845.189	57.86
845.365	59.9
845.541	45.57
845.716	102.91
845.892	78.33
846.068	72.19
846.244	43.52
846.419	39.42
846.595	90.62
846.77	4.61
846.946	113.15
847.122	-3.58
847.297	88.57
847.473	70.14
847.648	-44.54
847.824	135.68
847.999	-24.06
848.175	20.99
848.35	82.43
848.526	57.86
848.701	86.53
848.876	59.9
849.052	92.67
849.227	20.99
849.403	72.19
849.578	104.96
849.753	64
849.929	16.9
850.104	10.75
850.279	70.14
850.454	41.47
850.63	72.19
850.805	35.33
850.98	117.25
851.155	6.66
851.33	76.29
851.505	-60.93
851.681	143.87
851.856	-5.63
852.031	43.52
852.206	12.8
852.381	-24.06
852.556	39.42
852.731	-9.73
852.906	53.76
853.081	49.66
853.256	53.76
853.431	35.33
853.606	12.8
853.781	82.43
853.956	2.56
854.131	76.29
854.305	45.57
854.48	-11.78
854.655	-17.92
854.83	0.51
855.005	78.33
855.18	35.33
855.354	-19.97
855.529	12.8
855.704	-28.16
855.879	27.14
856.053	0.51
856.228	64
856.403	-5.63
856.577	-38.4
856.752	-19.97
856.926	35.33
857.101	78.33
857.276	0.51
857.45	51.71
857.625	51.71
857.799	27.14
857.974	41.47
858.148	45.57
858.323	53.76
858.497	51.71
858.672	18.94
858.846	49.66
859.02	59.9
859.195	33.28
859.369	-19.97
859.543	98.81
859.718	23.04
859.892	-28.16
860.066	-19.97
860.241	86.53
860.415	-5.63
860.589	-36.35
860.763	-69.12
860.938	2.56
861.112	49.66
861.286	-36.35
861.46	29.18
861.634	8.7
861.808	18.94
861.982	55.81
862.157	-19.97
862.331	-28.16
862.505	23.04
862.679	-28.16
862.853	33.28
863.027	37.38
863.201	57.86
863.375	74.24
863.549	10.75
863.722	4.61
863.896	51.71
864.07	-38.4
864.244	66.05
864.418	18.94
864.592	-46.59
864.766	94.72
864.939	74.24
865.113	43.52
865.287	86.53
865.461	-5.63
865.634	39.42
865.808	49.66
865.982	8.7
866.156	-17.92
866.329	33.28
866.503	66.05
866.676	29.18
866.85	78.33
867.024	29.18
867.197	-5.63
867.371	43.52
867.544	23.04
867.718	-11.78
867.891	57.86
868.065	41.47
868.238	53.76
868.412	66.05
868.585	43.52
868.759	8.7
868.932	82.43
869.105	-22.02
869.279	61.95
869.452	0.51
869.625	12.8
869.799	10.75
869.972	-40.45
870.145	53.76
870.319	27.14
870.492	-32.26
870.665	37.38
870.838	45.57
871.011	6.66
871.185	-3.58
871.358	-48.64
871.531	29.18
871.704	45.57
871.877	20.99
872.05	-5.63
872.223	-60.93
872.396	57.86
872.569	76.29
872.742	-34.3
872.915	-40.45
873.088	59.9
873.261	31.23
873.434	16.9
873.607	25.09
873.78	74.24
873.953	-40.45
874.126	-44.54
874.299	18.94
874.471	-50.69
874.644	27.14
874.817	-7.68
874.99	49.66
875.163	33.28
875.335	-60.93
875.508	53.76
875.681	57.86
875.853	61.95
876.026	53.76
876.199	0.51
876.371	8.7
876.544	-7.68
876.717	4.61
876.889	-1.54
877.062	2.56
877.234	-71.17
877.407	35.33
877.579	2.56
877.752	-19.97
877.924	92.67
878.097	37.38
878.269	43.52
878.442	-24.06
878.614	10.75
878.786	-19.97
878.959	-11.78
879.131	6.66
879.303	-7.68
879.476	37.38
879.648	16.9
879.82	23.04
879.993	-24.06
880.165	-24.06
880.337	20.99
880.509	-22.02
880.681	-67.07
880.854	4.61
881.026	43.52
881.198	25.09
881.37	-81.41
881.542	27.14
881.714	4.61
881.886	12.8
882.058	-30.21
882.23	23.04
882.402	-91.65
882.574	-3.58
882.746	88.57
882.918	53.76
883.09	2.56
883.262	33.28
883.434	18.94
883.606	-48.64
883.778	37.38
883.95	72.19
884.122	-60.93
884.293	41.47
884.465	16.9
884.637	31.23
884.809	-50.69
884.98	70.14
885.152	-5.63
885.324	0.51
885.496	0.51
885.667	-13.82
885.839	-38.4
886.011	8.7
886.182	86.53
886.354	4.61
886.525	37.38
886.697	-7.68
886.869	-50.69
887.04	16.9
887.212	-32.26
887.383	45.57
887.555	-7.68
887.726	18.94
887.897	-3.58
888.069	107.01
888.24	-19.97
888.412	49.66
888.583	-36.35
888.754	37.38
888.926	-71.17
889.097	74.24
889.268	-50.69
889.44	-7.68
889.611	72.19
889.782	45.57
889.953	20.99
890.125	16.9
890.296	-52.74
890.467	-11.78
890.638	6.66
890.809	-11.78
890.98	-22.02
891.151	-67.07
891.323	29.18
891.494	29.18
891.665	-26.11
891.836	8.7
892.007	6.66
892.178	31.23
892.349	35.33
892.52	25.09
892.691	-48.64
892.862	-13.82
893.032	6.66
893.203	-1.54
893.374	-22.02
893.545	37.38
893.716	14.85
893.887	-26.11
894.057	20.99
894.228	-19.97
894.399	10.75
894.57	20.99
894.74	29.18
894.911	74.24
895.082	-77.31
895.253	20.99
895.423	12.8
895.594	23.04
895.764	-7.68
895.935	-62.98
896.106	27.14
896.276	-19.97
896.447	4.61
896.617	37.38
896.788	18.94
896.958	27.14
897.129	35.33
897.299	-26.11
897.47	-36.35
897.64	-26.11
897.81	-30.21
897.981	-36.35
898.151	-60.93
898.322	33.28
898.492	6.66
898.662	-50.69
898.832	-48.64
899.003	23.04
899.173	39.42
899.343	27.14
899.513	23.04
