Data from USB4F104151__128__10-25-22-173.txt Node

Date: Wed Mar 12 10:25:22 EDT 2025
User: louis
Spectrometer: USB4F10415
Trigger mode: 4
Integration Time (sec): 3.000000E-2
Scans to average: 1
Electric dark correction enabled: true
Nonlinearity correction enabled: false
Boxcar width: 0
XAxis mode: Wavelengths
Number of Pixels in Spectrum: 3648
>>>>>Begin Spectral Data<<<<<
178.204	-136.02
178.424	-136.02
178.644	-136.02
178.864	-90.96
179.084	-115.54
179.304	-19.29
179.524	-4.95
179.744	27.82
179.964	11.43
180.184	1.19
180.404	52.39
180.624	17.58
180.844	-23.38
181.064	-76.63
181.283	46.25
181.503	5.29
181.723	-37.72
181.943	-21.33
182.163	44.2
182.383	56.49
182.602	-35.67
182.822	23.72
183.042	60.59
183.262	3.24
183.482	-41.81
183.701	-0.85
183.921	74.92
184.141	-66.39
184.361	-7
184.58	11.43
184.8	21.67
185.02	7.34
185.239	36.01
185.459	17.58
185.679	46.25
185.898	-21.33
186.118	13.48
186.338	81.07
186.557	-4.95
186.777	11.43
186.997	-21.33
187.216	-21.33
187.436	13.48
187.655	56.49
187.875	19.63
188.095	13.48
188.314	11.43
188.534	56.49
188.753	-47.96
188.973	19.63
189.192	1.19
189.412	21.67
189.631	-27.48
189.851	15.53
190.07	58.54
190.29	19.63
190.509	74.92
190.729	58.54
190.948	7.34
191.168	199.85
191.387	-2.9
191.607	-54.1
191.826	-25.43
192.045	29.87
192.265	-37.72
192.484	52.39
192.704	11.43
192.923	15.53
193.142	113.83
193.362	66.73
193.581	42.15
193.8	3.24
194.02	68.78
194.239	-78.68
194.458	36.01
194.678	-56.15
194.897	-15.19
195.116	19.63
195.335	-9.05
195.555	38.06
195.774	25.77
195.993	38.06
196.212	3.24
196.432	-80.72
196.651	31.91
196.87	-15.19
197.089	-17.24
197.308	-21.33
197.528	54.44
197.747	46.25
197.966	-0.85
198.185	29.87
198.404	23.72
198.623	25.77
198.842	83.11
199.062	87.21
199.281	-27.48
199.5	58.54
199.719	29.87
199.938	64.68
200.157	-0.85
200.376	79.02
200.595	-45.91
200.814	1.19
201.033	-72.53
201.252	81.07
201.471	76.97
201.69	11.43
201.909	-45.91
202.128	19.63
202.347	38.06
202.566	-25.43
202.785	-35.67
203.004	-33.62
203.223	81.07
203.442	19.63
203.661	11.43
203.879	58.54
204.098	72.87
204.317	42.15
204.536	38.06
204.755	5.29
204.974	-4.95
205.193	-19.29
205.411	99.5
205.63	17.58
205.849	58.54
206.068	15.53
206.287	40.11
206.505	76.97
206.724	25.77
206.943	13.48
207.162	27.82
207.381	42.15
207.599	-2.9
207.818	40.11
208.037	29.87
208.255	9.39
208.474	1.19
208.693	-7
208.911	1.19
209.13	11.43
209.349	21.67
209.567	85.16
209.786	72.87
210.005	15.53
210.223	54.44
210.442	-29.52
210.661	27.82
210.879	52.39
211.098	38.06
211.316	-13.14
211.535	64.68
211.753	17.58
211.972	66.73
212.191	44.2
212.409	48.3
212.628	76.97
212.846	74.92
213.065	21.67
213.283	50.35
213.502	74.92
213.72	31.91
213.938	-4.95
214.157	-11.09
214.375	40.11
214.594	48.3
214.812	-15.19
215.031	54.44
215.249	3.24
215.467	19.63
215.686	-9.05
215.904	27.82
216.122	11.43
216.341	13.48
216.559	25.77
216.778	70.83
216.996	60.59
217.214	-15.19
217.432	-29.52
217.651	27.82
217.869	7.34
218.087	23.72
218.306	13.48
218.524	93.35
218.742	7.34
218.96	-37.72
219.179	21.67
219.397	66.73
219.615	-0.85
219.833	81.07
220.051	1.19
220.27	19.63
220.488	83.11
220.706	54.44
220.924	-13.14
221.142	3.24
221.36	-4.95
221.578	9.39
221.796	66.73
222.015	-11.09
222.233	60.59
222.451	56.49
222.669	1.19
222.887	97.45
223.105	3.24
223.323	60.59
223.541	-7
223.759	52.39
223.977	-15.19
224.195	85.16
224.413	52.39
224.631	111.78
224.849	-11.09
225.067	76.97
225.285	19.63
225.503	70.83
225.721	5.29
225.939	17.58
226.157	-2.9
226.375	38.06
226.592	-31.57
226.81	-0.85
227.028	7.34
227.246	99.5
227.464	-7
227.682	58.54
227.9	50.35
228.117	9.39
228.335	23.72
228.553	7.34
228.771	-7
228.989	-0.85
229.206	13.48
229.424	29.87
229.642	3.24
229.86	25.77
230.077	50.35
230.295	-35.67
230.513	-11.09
230.731	11.43
230.948	50.35
231.166	60.59
231.384	-29.52
231.601	-37.72
231.819	19.63
232.037	-27.48
232.254	-39.76
232.472	46.25
232.689	-27.48
232.907	66.73
233.125	-21.33
233.342	15.53
233.56	58.54
233.777	-17.24
233.995	54.44
234.213	33.96
234.43	36.01
234.648	-9.05
234.865	9.39
235.083	70.83
235.3	7.34
235.518	85.16
235.735	52.39
235.953	-50
236.17	46.25
236.388	56.49
236.605	-19.29
236.822	52.39
237.04	15.53
237.257	-17.24
237.475	-21.33
237.692	-31.57
237.909	83.11
238.127	7.34
238.344	-95.06
238.562	15.53
238.779	-29.52
238.996	-54.1
239.214	-78.68
239.431	40.11
239.648	-29.52
239.865	31.91
240.083	111.78
240.3	17.58
240.517	50.35
240.735	103.59
240.952	60.59
241.169	-4.95
241.386	-21.33
241.603	60.59
241.821	-52.05
242.038	64.68
242.255	19.63
242.472	-54.1
242.689	33.96
242.907	74.92
243.124	-7
243.341	7.34
243.558	-39.76
243.775	-35.67
243.992	7.34
244.209	85.16
244.426	11.43
244.643	15.53
244.86	1.19
245.078	27.82
245.295	46.25
245.512	42.15
245.729	-7
245.946	83.11
246.163	62.63
246.38	-2.9
246.597	-109.4
246.814	31.91
247.031	-9.05
247.248	-35.67
247.464	36.01
247.681	111.78
247.898	40.11
248.115	99.5
248.332	25.77
248.549	-17.24
248.766	60.59
248.983	56.49
249.2	97.45
249.417	111.78
249.633	60.59
249.85	13.48
250.067	68.78
250.284	-43.86
250.501	-64.34
250.717	56.49
250.934	-23.38
251.151	33.96
251.368	91.31
251.585	91.31
251.801	7.34
252.018	119.98
252.235	-9.05
252.451	-4.95
252.668	31.91
252.885	50.35
253.102	5.29
253.318	27.82
253.535	-13.14
253.752	-7
253.968	83.11
254.185	27.82
254.401	81.07
254.618	23.72
254.835	15.53
255.051	113.83
255.268	31.91
255.484	-11.09
255.701	-31.57
255.917	33.96
256.134	-68.44
256.351	-0.85
256.567	-15.19
256.784	105.64
257	3.24
257.217	48.3
257.433	3.24
257.65	38.06
257.866	25.77
258.082	-54.1
258.299	122.02
258.515	66.73
258.732	17.58
258.948	33.96
259.165	81.07
259.381	15.53
259.597	60.59
259.814	70.83
260.03	17.58
260.246	15.53
260.463	25.77
260.679	60.59
260.895	-29.52
261.112	52.39
261.328	-27.48
261.544	-29.52
261.761	52.39
261.977	21.67
262.193	68.78
262.409	13.48
262.626	89.26
262.842	-17.24
263.058	-45.91
263.274	-101.2
263.49	15.53
263.707	87.21
263.923	-15.19
264.139	-21.33
264.355	27.82
264.571	38.06
264.787	36.01
265.004	91.31
265.22	-39.76
265.436	-41.81
265.652	-4.95
265.868	-11.09
266.084	15.53
266.3	72.87
266.516	21.67
266.732	-19.29
266.948	9.39
267.164	-27.48
267.38	-50
267.596	33.96
267.812	17.58
268.028	99.5
268.244	-2.9
268.46	126.12
268.676	-19.29
268.892	23.72
269.108	-0.85
269.324	-2.9
269.54	-45.91
269.756	74.92
269.972	-23.38
270.188	52.39
270.403	-15.19
270.619	-54.1
270.835	31.91
271.051	5.29
271.267	42.15
271.483	-7
271.698	-0.85
271.914	54.44
272.13	25.77
272.346	-15.19
272.562	15.53
272.777	95.4
272.993	21.67
273.209	-25.43
273.425	27.82
273.64	1.19
273.856	-13.14
274.072	81.07
274.287	60.59
274.503	40.11
274.719	56.49
274.934	29.87
275.15	-47.96
275.366	7.34
275.581	-66.39
275.797	85.16
276.012	-23.38
276.228	36.01
276.444	38.06
276.659	40.11
276.875	-115.54
277.09	64.68
277.306	36.01
277.521	83.11
277.737	50.35
277.952	-54.1
278.168	42.15
278.383	42.15
278.599	62.63
278.814	60.59
279.03	7.34
279.245	109.74
279.461	46.25
279.676	66.73
279.892	31.91
280.107	64.68
280.322	-15.19
280.538	19.63
280.753	-13.14
280.969	36.01
281.184	-88.92
281.399	19.63
281.615	44.2
281.83	46.25
282.045	11.43
282.26	-27.48
282.476	72.87
282.691	-2.9
282.906	1.19
283.122	-50
283.337	-68.44
283.552	-23.38
283.767	89.26
283.983	27.82
284.198	25.77
284.413	7.34
284.628	70.83
284.843	54.44
285.058	-45.91
285.274	109.74
285.489	19.63
285.704	-9.05
285.919	23.72
286.134	-7
286.349	44.2
286.564	11.43
286.779	40.11
286.995	33.96
287.21	-17.24
287.425	109.74
287.64	-4.95
287.855	-4.95
288.07	-31.57
288.285	7.34
288.5	72.87
288.715	109.74
288.93	-2.9
289.145	-39.76
289.36	54.44
289.575	-33.62
289.79	54.44
290.004	33.96
290.219	21.67
290.434	60.59
290.649	13.48
290.864	62.63
291.079	25.77
291.294	97.45
291.509	25.77
291.724	-2.9
291.938	-33.62
292.153	56.49
292.368	27.82
292.583	19.63
292.798	21.67
293.012	21.67
293.227	1.19
293.442	89.26
293.657	76.97
293.871	9.39
294.086	19.63
294.301	81.07
294.516	132.26
294.73	23.72
294.945	117.93
295.16	13.48
295.374	19.63
295.589	29.87
295.804	7.34
296.018	7.34
296.233	29.87
296.447	46.25
296.662	-64.34
296.877	72.87
297.091	81.07
297.306	17.58
297.52	-23.38
297.735	52.39
297.949	117.93
298.164	21.67
298.378	58.54
298.593	15.53
298.807	27.82
299.022	17.58
299.236	105.64
299.451	126.12
299.665	25.77
299.88	62.63
300.094	52.39
300.309	66.73
300.523	19.63
300.737	5.29
300.952	-9.05
301.166	44.2
301.381	-7
301.595	36.01
301.809	-0.85
302.024	31.91
302.238	-25.43
302.452	150.7
302.667	-13.14
302.881	40.11
303.095	29.87
303.309	44.2
303.524	40.11
303.738	-17.24
303.952	74.92
304.166	29.87
304.381	-27.48
304.595	62.63
304.809	52.39
305.023	-4.95
305.237	-43.86
305.452	56.49
305.666	101.55
305.88	58.54
306.094	60.59
306.308	68.78
306.522	107.69
306.736	113.83
306.95	19.63
307.164	9.39
307.379	29.87
307.593	87.21
307.807	-13.14
308.021	101.55
308.235	60.59
308.449	25.77
308.663	36.01
308.877	107.69
309.091	-62.29
309.305	7.34
309.519	-11.09
309.733	56.49
309.947	-7
310.161	36.01
310.374	72.87
310.588	81.07
310.802	70.83
311.016	58.54
311.23	-21.33
311.444	-45.91
311.658	44.2
311.872	15.53
312.085	31.91
312.299	81.07
312.513	70.83
312.727	31.91
312.941	54.44
313.154	81.07
313.368	70.83
313.582	-0.85
313.796	-19.29
314.009	7.34
314.223	64.68
314.437	58.54
314.651	7.34
314.864	-4.95
315.078	3.24
315.292	27.82
315.505	-2.9
315.719	11.43
315.933	44.2
316.146	13.48
316.36	-9.05
316.573	56.49
316.787	60.59
317.001	48.3
317.214	-27.48
317.428	46.25
317.641	-62.29
317.855	29.87
318.068	-4.95
318.282	-13.14
318.495	156.84
318.709	68.78
318.922	1.19
319.136	76.97
319.349	31.91
319.563	33.96
319.776	11.43
319.99	21.67
320.203	72.87
320.417	40.11
320.63	48.3
320.843	93.35
321.057	58.54
321.27	15.53
321.483	42.15
321.697	132.26
321.91	29.87
322.124	64.68
322.337	126.12
322.55	-19.29
322.763	36.01
322.977	-31.57
323.19	19.63
323.403	36.01
323.617	7.34
323.83	68.78
324.043	111.78
324.256	19.63
324.469	-7
324.683	56.49
324.896	-37.72
325.109	58.54
325.322	60.59
325.535	101.55
325.748	15.53
325.962	74.92
326.175	38.06
326.388	27.82
326.601	93.35
326.814	-23.38
327.027	58.54
327.24	15.53
327.453	36.01
327.666	38.06
327.879	50.35
328.092	27.82
328.305	31.91
328.518	11.43
328.731	-62.29
328.944	19.63
329.157	56.49
329.37	44.2
329.583	38.06
329.796	31.91
330.009	31.91
330.222	89.26
330.435	-17.24
330.648	99.5
330.861	50.35
331.073	-21.33
331.286	74.92
331.499	-21.33
331.712	-4.95
331.925	48.3
332.138	64.68
332.35	17.58
332.563	5.29
332.776	103.59
332.989	7.34
333.202	76.97
333.414	21.67
333.627	60.59
333.84	-27.48
334.053	101.55
334.265	9.39
334.478	50.35
334.691	5.29
334.903	70.83
335.116	17.58
335.329	-13.14
335.541	70.83
335.754	27.82
335.966	5.29
336.179	40.11
336.392	3.24
336.604	-27.48
336.817	83.11
337.029	29.87
337.242	15.53
337.454	52.39
337.667	1.19
337.88	60.59
338.092	25.77
338.305	42.15
338.517	60.59
338.729	54.44
338.942	126.12
339.154	-9.05
339.367	-21.33
339.579	87.21
339.792	68.78
340.004	38.06
340.217	21.67
340.429	81.07
340.641	33.96
340.854	70.83
341.066	54.44
341.278	48.3
341.491	68.78
341.703	5.29
341.915	1.19
342.128	31.91
342.34	31.91
342.552	56.49
342.764	-4.95
342.977	7.34
343.189	70.83
343.401	83.11
343.613	9.39
343.826	46.25
344.038	-41.81
344.25	72.87
344.462	-50
344.674	25.77
344.886	25.77
345.099	60.59
345.311	105.64
345.523	27.82
345.735	-37.72
345.947	27.82
346.159	58.54
346.371	44.2
346.583	1.19
346.795	93.35
347.007	52.39
347.219	54.44
347.431	-7
347.643	64.68
347.855	31.91
348.067	58.54
348.279	-25.43
348.491	17.58
348.703	97.45
348.915	27.82
349.127	81.07
349.339	54.44
349.551	36.01
349.763	36.01
349.975	74.92
350.187	54.44
350.399	99.5
350.61	70.83
350.822	91.31
351.034	36.01
351.246	85.16
351.458	87.21
351.669	-9.05
351.881	72.87
352.093	60.59
352.305	23.72
352.517	48.3
352.728	27.82
352.94	19.63
353.152	66.73
353.363	5.29
353.575	56.49
353.787	91.31
353.999	3.24
354.21	72.87
354.422	48.3
354.633	-9.05
354.845	17.58
355.057	11.43
355.268	-29.52
355.48	17.58
355.692	13.48
355.903	40.11
356.115	44.2
356.326	60.59
356.538	38.06
356.749	97.45
356.961	29.87
357.172	83.11
357.384	19.63
357.595	150.7
357.807	-13.14
358.018	52.39
358.23	-35.67
358.441	64.68
358.653	58.54
358.864	44.2
359.075	-29.52
359.287	-39.76
359.498	107.69
359.709	74.92
359.921	62.63
360.132	83.11
360.344	64.68
360.555	31.91
360.766	52.39
360.977	-17.24
361.189	81.07
361.4	40.11
361.611	50.35
361.823	54.44
362.034	76.97
362.245	52.39
362.456	36.01
362.667	79.02
362.879	42.15
363.09	93.35
363.301	40.11
363.512	99.5
363.723	-31.57
363.935	9.39
364.146	56.49
364.357	56.49
364.568	101.55
364.779	-47.96
364.99	87.21
365.201	25.77
365.412	130.22
365.623	-23.38
365.834	21.67
366.045	15.53
366.256	21.67
366.467	-64.34
366.678	97.45
366.889	93.35
367.1	91.31
367.311	85.16
367.522	68.78
367.733	111.78
367.944	89.26
368.155	58.54
368.366	85.16
368.577	93.35
368.788	44.2
368.999	54.44
369.209	68.78
369.42	74.92
369.631	66.73
369.842	99.5
370.053	83.11
370.264	-13.14
370.474	-4.95
370.685	11.43
370.896	21.67
371.107	64.68
371.317	15.53
371.528	44.2
371.739	85.16
371.95	13.48
372.16	52.39
372.371	-35.67
372.582	175.27
372.792	52.39
373.003	11.43
373.214	-9.05
373.424	38.06
373.635	31.91
373.846	113.83
374.056	-9.05
374.267	64.68
374.477	79.02
374.688	-9.05
374.898	93.35
375.109	38.06
375.319	124.07
375.53	85.16
375.74	87.21
375.951	44.2
376.161	7.34
376.372	95.4
376.582	85.16
376.793	74.92
377.003	50.35
377.214	44.2
377.424	21.67
377.635	85.16
377.845	44.2
378.055	124.07
378.266	40.11
378.476	11.43
378.686	128.17
378.897	40.11
379.107	56.49
379.317	70.83
379.528	79.02
379.738	48.3
379.948	-25.43
380.158	23.72
380.369	76.97
380.579	89.26
380.789	33.96
380.999	122.02
381.21	101.55
381.42	117.93
381.63	-64.34
381.84	113.83
382.05	40.11
382.261	42.15
382.471	17.58
382.681	72.87
382.891	50.35
383.101	48.3
383.311	-0.85
383.521	42.15
383.731	1.19
383.941	27.82
384.151	56.49
384.361	79.02
384.571	19.63
384.781	89.26
384.991	138.41
385.201	-29.52
385.411	11.43
385.621	58.54
385.831	122.02
386.041	-19.29
386.251	42.15
386.461	23.72
386.671	64.68
386.881	68.78
387.091	19.63
387.301	101.55
387.511	27.82
387.72	60.59
387.93	27.82
388.14	44.2
388.35	38.06
388.56	19.63
388.769	91.31
388.979	-27.48
389.189	50.35
389.399	15.53
389.609	31.91
389.818	68.78
390.028	109.74
390.238	56.49
390.447	56.49
390.657	93.35
390.867	11.43
391.076	23.72
391.286	87.21
391.496	83.11
391.705	46.25
391.915	72.87
392.125	79.02
392.334	56.49
392.544	54.44
392.753	81.07
392.963	27.82
393.172	126.12
393.382	76.97
393.591	126.12
393.801	40.11
394.01	19.63
394.22	7.34
394.429	27.82
394.639	56.49
394.848	130.22
395.058	-23.38
395.267	95.4
395.477	95.4
395.686	66.73
395.895	134.31
396.105	134.31
396.314	95.4
396.524	148.65
396.733	68.78
396.942	150.7
397.152	52.39
397.361	148.65
397.57	72.87
397.78	183.46
397.989	167.08
398.198	126.12
398.407	52.39
398.617	50.35
398.826	79.02
399.035	70.83
399.244	27.82
399.453	128.17
399.663	50.35
399.872	74.92
400.081	76.97
400.29	105.64
400.499	58.54
400.708	169.13
400.917	76.97
401.127	93.35
401.336	154.79
401.545	226.47
401.754	165.03
401.963	183.46
402.172	17.58
402.381	134.31
402.59	64.68
402.799	146.6
403.008	117.93
403.217	183.46
403.426	179.37
403.635	144.55
403.844	115.88
404.053	181.42
404.262	85.16
404.471	154.79
404.68	162.98
404.888	148.65
405.097	249
405.306	181.42
405.515	195.75
405.724	119.98
405.933	246.95
406.142	257.19
406.35	218.28
406.559	287.91
406.768	228.52
406.977	306.34
407.185	261.29
407.394	173.22
407.603	236.71
407.812	251.05
408.02	294.05
408.229	298.15
408.438	302.25
408.646	236.71
408.855	263.33
409.064	341.16
409.272	304.29
409.481	326.82
409.69	289.96
409.898	355.49
410.107	232.62
410.315	418.98
410.524	335.01
410.733	435.36
410.941	324.77
411.15	435.36
411.358	371.88
411.567	402.6
411.775	468.13
411.984	480.42
412.192	588.96
412.401	502.95
412.609	578.72
412.818	629.92
413.026	599.2
413.234	672.93
413.443	664.74
413.651	677.02
413.86	703.65
414.068	677.02
414.276	752.8
414.485	738.46
414.693	828.57
414.901	842.91
415.11	900.25
415.318	920.73
415.526	869.53
415.734	986.27
415.943	957.6
416.151	1055.9
416.359	949.4
416.567	984.22
416.776	1094.81
416.984	1021.08
417.192	1117.34
417.4	1197.21
417.608	1182.87
417.817	1217.69
418.025	1301.65
418.233	1449.11
418.441	1277.08
418.649	1350.81
418.857	1559.7
419.065	1469.59
419.273	1561.75
419.481	1526.93
419.689	1711.25
419.897	1711.25
420.105	1756.3
420.313	1991.82
420.521	1948.81
420.729	1944.72
420.937	1997.96
421.145	2071.69
421.353	2296.97
421.561	2260.1
421.769	2352.26
421.977	2393.22
422.185	2344.07
422.393	2632.83
422.601	2673.79
422.809	2731.14
423.017	2788.48
423.224	2849.92
423.432	2911.36
423.64	3046.52
423.848	3198.07
424.056	3097.72
424.263	3419.25
424.471	3355.77
424.679	3353.72
424.887	3681.39
425.094	3665.01
425.302	3828.85
425.51	3886.19
425.718	4072.56
425.925	4080.75
426.133	4228.2
426.341	4547.69
426.548	4682.85
426.756	4625.51
426.964	4777.06
427.171	4969.57
427.379	5246.04
427.586	5219.42
427.794	5368.92
428.001	5727.32
428.209	5825.62
428.417	5860.43
428.624	6216.78
428.832	6229.07
429.039	6188.11
429.247	6138.96
429.454	6640.71
429.662	7195.71
429.869	6757.44
430.076	7218.24
430.284	6876.23
430.491	7400.51
430.699	7672.89
430.906	7806
431.114	7863.35
431.321	8162.35
431.528	8221.74
431.736	8743.97
431.943	9051.17
432.15	9067.55
432.358	8963.11
432.565	9581.59
432.772	9573.4
432.979	9950.23
433.187	10185.74
433.394	10081.3
433.601	10955.78
433.808	11066.37
434.016	10810.37
434.223	11363.33
434.43	11971.57
434.637	11785.21
434.844	12653.55
435.052	12604.39
435.259	12803.05
435.466	12762.09
435.673	12772.33
435.88	13306.85
436.087	14332.88
436.294	14080.98
436.501	13843.42
436.708	14107.6
436.915	14392.27
437.122	15221.7
437.329	14994.37
437.537	15836.09
437.743	16083.89
437.95	15811.51
438.157	16466.86
438.364	17296.29
438.571	17136.55
438.778	17152.93
438.985	18860.94
439.192	18189.21
439.399	18768.78
439.606	18203.54
439.813	19506.05
440.02	20472.69
440.227	20401.01
440.433	19835.77
440.64	20546.42
440.847	20548.47
441.054	20900.72
441.261	22031.19
441.467	22037.34
441.674	22500.18
441.881	23329.61
442.088	23284.55
442.294	23176.01
442.501	23585.6
442.708	23925.57
442.914	24955.69
443.121	26084.12
443.328	25518.89
443.534	27370.25
443.741	26598.16
443.948	25824.03
444.154	27958.02
444.361	28089.09
444.568	28121.85
444.774	28070.65
444.981	28224.25
445.187	29113.07
445.394	30399.19
445.6	29739.75
445.807	32877.24
446.013	31097.55
446.22	31707.85
446.426	32916.15
446.633	33598.12
446.839	34138.79
447.046	32639.67
447.252	34849.43
447.459	34833.05
447.665	34546.33
447.871	35674.76
448.078	37247.6
448.284	35953.29
448.491	36917.88
448.697	38107.75
448.903	38828.63
449.11	39105.11
449.316	38134.37
449.522	39139.93
449.728	39658.06
449.935	40088.13
450.141	40274.5
450.347	41013.82
450.553	39721.55
450.76	40507.97
450.966	41493.04
451.172	40847.93
451.378	42031.66
451.584	41419.31
451.791	42107.43
451.997	41763.37
452.203	42869.28
452.409	42609.18
452.615	42781.21
452.821	40966.71
453.027	40786.49
453.233	42222.12
453.44	40704.57
453.646	41523.76
453.852	41060.92
454.058	41894.44
454.264	40854.08
454.47	41185.85
454.676	40526.4
454.882	41751.09
455.088	38208.1
455.294	38662.75
455.5	39449.17
455.705	39684.69
455.911	37859.94
456.117	37167.73
456.323	36934.26
456.529	34689.69
456.735	36577.92
456.941	35226.26
457.147	34933.4
457.352	33819.3
457.558	32983.73
457.764	33405.61
457.97	32488.12
458.176	32219.84
458.381	31965.89
458.587	30239.45
458.793	30753.49
458.999	28822.26
459.204	31097.55
459.41	30313.18
459.616	27906.82
459.821	28328.7
460.027	27828.99
460.233	27540.23
460.438	26348.31
460.644	26481.43
460.85	25180.97
461.055	24621.87
461.261	25051.95
461.466	23014.22
461.672	22188.89
461.878	23614.27
462.083	22440.79
462.289	21912.41
462.494	21685.09
462.7	20517.75
462.905	20153.21
463.111	20798.32
463.316	20996.97
463.522	20505.46
463.727	20534.13
463.932	20575.09
464.138	20192.12
464.343	20304.76
464.549	19606.4
464.754	20360.05
464.959	20161.4
465.165	19993.47
465.37	19596.16
465.575	18641.81
465.781	19680.13
465.986	19596.16
466.191	18977.67
466.397	18555.79
466.602	17716.12
466.807	18508.69
467.012	18178.97
467.218	18400.15
467.423	17978.26
467.628	18234.26
467.833	18932.62
468.038	18025.37
468.244	17494.94
468.449	18518.93
468.654	17691.55
468.859	17496.99
469.064	17714.08
469.269	16874.41
469.474	16909.22
469.679	17046.44
469.885	16481.2
470.09	17122.21
470.295	17025.96
470.5	16165.81
470.705	16516.01
470.91	16339.89
471.115	15934.39
471.32	16319.41
471.525	16131
471.73	15815.61
471.935	15563.71
472.139	15197.12
472.344	15465.41
472.549	15504.32
472.754	15047.62
472.959	14693.32
473.164	14324.69
473.369	14255.06
473.574	14939.08
473.778	14599.12
473.983	14250.96
474.188	14291.92
474.393	13831.13
474.598	13642.71
474.802	13589.47
475.007	13761.5
475.212	13661.15
475.417	13159.39
475.621	13304.8
475.826	13382.62
476.031	12835.81
476.235	12628.97
476.44	12884.97
476.645	12571.63
476.849	12760.04
477.054	12588.01
477.259	12221.42
477.463	12278.77
477.668	12180.46
477.872	12073.97
478.077	11867.13
478.282	11744.25
478.486	11574.27
478.691	11666.42
478.895	11471.87
479.1	11441.15
479.304	11592.7
479.509	11269.12
479.713	11422.72
479.918	11082.75
480.122	11097.09
480.326	10912.77
480.531	11107.33
480.735	10988.55
480.94	11041.79
481.144	11092.99
481.348	10597.38
481.553	10767.37
481.757	10480.65
481.961	10750.98
482.166	10771.46
482.37	10806.28
482.574	10601.48
482.778	10615.82
482.983	10953.73
483.187	10595.34
483.391	10697.74
483.595	10548.23
483.8	10509.32
484.004	10820.61
484.208	10857.48
484.412	10650.63
484.616	10488.84
484.821	10486.79
485.025	10425.36
485.229	10675.21
485.433	10392.59
485.637	10531.85
485.841	10421.26
486.045	10593.29
486.249	10540.04
486.453	10621.96
486.657	10546.19
486.861	10720.26
487.065	10419.21
487.269	10599.43
487.473	10325.01
487.677	10740.74
487.881	10716.17
488.085	10529.8
488.289	10560.52
488.493	10357.77
488.697	10779.65
488.901	10781.7
489.105	10476.55
489.309	10611.72
489.512	10599.43
489.716	10847.24
489.92	10589.19
490.124	10732.55
490.328	10961.92
490.531	10865.67
490.735	10828.81
490.939	10816.52
491.143	10806.28
491.346	10845.19
491.55	11082.75
491.754	11062.27
491.958	11033.6
492.161	11136
492.365	10996.74
492.569	11226.11
492.772	11348.99
492.976	11318.27
493.18	11412.48
493.383	11320.32
493.587	11385.85
493.79	11404.28
493.994	11445.24
494.197	11564.03
494.401	11783.16
494.605	11920.37
494.808	12041.2
495.012	12047.35
495.215	12016.63
495.419	12205.04
495.622	11873.27
495.825	12375.02
496.029	12241.9
496.232	12663.79
496.436	12729.32
496.639	12852.2
496.843	12813.29
497.046	13173.73
497.249	13450.21
497.453	13196.26
497.656	13630.43
497.859	13259.74
498.063	13470.69
498.266	13757.4
498.469	13925.33
498.673	14121.94
498.876	14115.8
499.079	14285.78
499.282	14314.45
499.485	15008.71
499.689	14808.01
499.892	14957.51
500.095	14840.78
500.298	15231.94
500.501	15127.49
500.705	15625.15
500.908	15948.73
501.111	15979.45
501.314	16186.29
501.517	16321.46
501.72	16683.95
501.923	16722.86
502.126	16761.77
502.329	17361.83
502.532	17300.39
502.735	17372.07
502.938	17632.16
503.141	17847.19
503.344	17941.4
503.547	18080.66
503.75	18480.02
503.953	18611.09
504.156	18711.44
504.359	18901.9
504.562	18989.96
504.765	19497.86
504.968	19790.72
505.17	19389.31
505.373	19760
505.576	20206.45
505.779	20364.15
505.982	20429.68
506.185	20902.76
506.387	20937.58
506.59	21171.05
506.793	21842.78
506.996	21525.35
507.198	21949.28
507.401	21982.04
507.604	22246.23
507.807	22713.17
508.009	22872.91
508.212	23102.28
508.415	23362.37
508.617	23538.5
508.82	23507.78
509.022	23192.39
509.225	24144.7
509.428	24314.68
509.63	24470.33
509.833	24791.86
510.035	25414.44
510.238	25080.62
510.44	25615.14
510.643	25957.15
510.845	26407.7
511.048	26260.25
511.25	26596.12
511.453	26708.76
511.655	27781.89
511.858	27417.35
512.06	27683.59
512.262	27695.88
512.465	28064.51
512.667	28304.12
512.87	28695.28
513.072	28496.63
513.274	29700.84
513.477	29663.97
513.679	29666.02
513.881	30026.46
514.084	30454.49
514.286	30513.88
514.488	30884.56
514.69	31587.02
514.893	31644.36
515.095	31847.11
515.297	32142.02
515.499	32010.95
515.701	32465.6
515.904	32844.47
516.106	32996.02
516.308	33354.41
516.51	33809.06
516.712	33856.17
516.914	34249.38
517.116	35140.24
517.318	34656.92
517.52	35007.12
517.722	35107.47
517.925	35918.47
518.127	36637.31
518.329	36242.05
518.531	36496
518.733	37046.9
518.935	37296.75
519.136	37460.59
519.338	37905
519.54	38093.41
519.742	38220.39
519.944	38525.53
520.146	39086.68
520.348	39209.56
520.55	39393.87
520.752	39801.42
520.954	40198.73
521.155	40024.65
521.357	40862.27
521.559	41114.17
521.761	41708.08
521.963	41630.26
522.164	42119.72
522.366	42045.99
522.568	42103.34
522.77	43024.92
522.971	43418.13
523.173	42848.8
523.375	43498
523.576	43923.98
523.778	43950.6
523.98	44663.3
524.181	44356.1
524.383	44407.3
524.584	44966.4
524.786	45300.22
524.988	45279.74
525.189	45615.6
525.391	45896.17
525.592	46141.93
525.794	46305.77
525.995	46135.79
526.197	46260.71
526.398	46858.72
526.6	46850.53
526.801	47378.9
527.003	47700.43
527.204	47084
527.406	47923.66
527.607	47735.25
527.808	47948.24
528.01	47604.18
528.211	47997.39
528.412	48824.77
528.614	48910.78
528.815	48587.21
529.016	49377.72
529.218	48540.1
529.419	48927.17
529.62	49377.72
529.822	49066.43
530.023	49240.51
530.224	49125.82
530.425	49523.13
530.626	49332.67
530.828	49439.16
531.029	50854.31
531.23	49600.95
531.431	49957.3
531.632	50016.69
531.833	49983.92
532.035	50291.12
532.236	50422.19
532.437	50622.89
532.638	50131.37
532.839	50311.59
533.04	50442.66
533.241	50549.16
533.442	51048.86
533.643	51016.1
533.844	50796.96
534.045	50944.42
534.246	50184.62
534.447	51161.5
534.648	50657.7
534.849	50942.37
535.05	50876.83
535.251	51024.29
535.451	50575.78
535.652	50942.37
535.853	50823.59
536.054	50950.56
536.255	51294.62
536.456	50131.37
536.657	51380.63
536.857	50917.79
537.058	50917.79
537.259	51542.42
537.46	51337.63
537.66	50809.25
537.861	51208.61
538.062	50770.34
538.263	51663.25
538.463	50829.73
538.664	50704.8
538.865	51134.88
539.065	51304.86
539.266	50803.11
539.466	51669.4
539.667	50528.68
539.868	51360.15
540.068	50991.52
540.269	51384.73
540.469	51188.13
540.67	51323.29
540.87	51003.81
541.071	50987.42
541.271	50792.87
541.472	51257.76
541.672	50993.57
541.873	50721.19
542.073	50176.43
542.274	51325.34
542.474	50665.89
542.675	50528.68
542.875	51325.34
543.075	50545.06
543.276	50354.6
543.476	51116.45
543.676	50377.13
543.877	50819.49
544.077	50762.15
544.277	50835.87
544.478	50899.36
544.678	51032.48
544.878	50518.44
545.078	51018.14
545.279	50348.46
545.479	50106.8
545.679	50792.87
545.879	50704.8
546.079	50852.26
546.28	50778.53
546.48	50411.95
546.68	50516.39
546.88	50635.17
547.08	50608.55
547.28	50663.85
547.48	50041.26
547.68	50147.76
547.88	49988.02
548.081	50848.16
548.281	50123.18
548.481	50713
548.681	50774.44
548.881	50147.76
549.081	50229.68
549.28	50172.33
549.48	50561.45
549.68	50411.95
549.88	50690.47
550.08	50284.97
550.28	50368.94
550.48	50346.41
550.68	50438.57
550.88	50047.41
551.08	49541.56
551.279	50411.95
551.479	49840.56
551.679	50600.36
551.879	50262.44
552.079	50565.54
552.278	49979.82
552.478	49766.84
552.678	49631.67
552.878	50350.51
553.077	49852.85
553.277	49461.69
553.477	50426.28
553.676	50110.89
553.876	49912.24
554.076	49983.92
554.275	49795.51
554.475	49263.03
554.674	49797.55
554.874	49805.75
555.074	49754.55
555.273	49873.33
555.473	50049.45
555.672	48894.4
555.872	49285.56
556.071	49684.92
556.271	49703.35
556.47	49009.09
556.67	49189.31
556.869	48773.57
557.068	49349.05
557.268	48660.93
557.467	49279.42
557.667	49328.57
557.866	48955.84
558.065	49011.13
558.265	48804.29
558.464	48290.25
558.663	49211.84
558.863	48339.4
559.062	49082.81
559.261	48454.09
559.461	48779.71
559.66	48419.27
559.859	48345.54
560.058	48017.87
560.258	48726.47
560.457	47821.26
560.656	48230.86
560.855	48017.87
561.054	48427.46
561.253	47845.84
561.453	47718.87
561.652	47976.91
561.851	48112.08
562.05	47540.69
562.249	47264.22
562.448	47792.59
562.647	47278.55
562.846	47466.97
563.045	47339.99
563.244	46979.55
563.443	47344.09
563.642	46531.04
563.841	46600.68
564.04	46361.06
564.239	47057.37
564.438	46619.11
564.637	46825.95
564.836	46776.8
565.035	45998.57
565.234	46203.37
565.432	45629.94
565.631	46037.48
565.83	45652.47
566.029	46174.7
566.228	45093.37
566.427	45543.92
566.625	45273.59
566.824	45119.99
567.023	45244.92
567.222	44683.78
567.42	45396.47
567.619	45060.6
567.818	44786.18
568.016	44605.95
568.215	44855.81
568.414	44448.26
568.612	44890.62
568.811	44511.75
569.01	44517.89
569.208	43854.35
569.407	44358.15
569.605	43803.15
569.804	44278.28
570.002	43487.76
570.201	44016.14
570.4	43803.15
570.598	43244.05
570.797	43680.27
570.995	43446.8
571.193	42807.84
571.392	43242.01
571.59	42852.89
571.789	42768.93
571.987	42799.65
572.186	42832.41
572.384	42211.88
572.582	42621.47
572.781	42816.03
572.979	41804.33
573.177	42330.66
573.376	42631.71
573.574	41902.64
573.772	41833
573.971	41550.38
574.169	41835.05
574.367	41755.18
574.565	41843.24
574.763	41396.79
574.962	41036.34
575.16	40436.29
575.358	41318.96
575.556	40376.9
575.754	41056.82
575.952	40118.85
576.151	40448.58
576.349	39645.77
576.547	40018.5
576.745	40149.57
576.943	40413.76
577.141	40096.33
577.339	40094.28
577.537	39907.91
577.735	39864.91
577.933	39404.11
578.131	39770.7
578.329	39256.66
578.527	39350.87
578.725	39266.9
578.923	39281.24
579.121	39133.78
579.319	38937.18
579.516	39387.73
579.714	39074.39
579.912	38679.13
580.11	38531.68
580.308	38677.08
580.506	38392.42
580.704	37894.76
580.901	38627.93
581.099	38294.11
581.297	38099.56
581.495	37892.71
581.692	38310.5
581.89	37749.35
582.088	37929.58
582.285	37069.43
582.483	37642.86
582.681	37313.14
582.878	36952.69
583.076	37028.47
583.274	37333.62
583.471	36690.55
583.669	37188.21
583.866	36579.96
584.064	36893.3
584.262	36256.39
584.459	36754.04
584.657	36047.49
584.854	36614.78
585.052	35748.49
585.249	36149.89
585.447	36166.27
585.644	35852.94
585.841	35969.67
586.039	35803.78
586.236	35320.46
586.434	35173.01
586.631	35482.25
586.828	35330.7
587.026	35211.92
587.223	35443.34
587.42	34927.25
587.618	34831
587.815	34677.4
588.012	34525.85
588.21	34206.37
588.407	34751.13
588.604	34460.32
588.801	34161.31
588.999	33983.14
589.196	34075.3
589.393	34175.65
589.59	33968.8
589.787	33790.63
589.984	33348.27
590.182	33688.23
590.379	33739.43
590.576	33131.19
590.773	33483.44
590.97	32895.67
591.167	33190.58
591.364	32559.8
591.561	32809.65
591.758	32748.21
591.955	32533.18
592.152	32758.45
592.349	32457.4
592.546	32744.12
592.743	32228.03
592.94	31986.37
593.137	32182.98
593.334	32314.05
593.531	31687.37
593.727	31840.96
593.924	31845.06
594.121	31404.75
594.318	31625.93
594.515	31208.14
594.712	31703.75
594.908	31181.52
595.105	31316.68
595.302	30704.34
595.499	31177.42
595.696	30974.67
595.892	30845.65
596.089	31115.98
596.286	30534.36
596.482	30843.6
596.679	30704.34
596.876	30737.11
597.072	30096.1
597.269	30352.09
597.466	30147.29
597.662	29987.55
597.859	30218.97
598.055	29924.07
598.252	29856.48
598.448	29715.17
598.645	29637.35
598.841	29403.88
599.038	29543.14
599.234	29442.79
599.431	29125.36
599.627	29117.17
599.824	29369.07
600.02	28928.75
600.217	29270.76
600.413	28801.78
600.609	28855.03
600.806	28480.25
601.002	28506.87
601.198	28465.91
601.395	28218.11
601.591	28134.14
601.787	28330.75
601.984	27978.5
602.18	28293.88
602.376	28113.66
602.572	27710.21
602.769	27935.49
602.965	27634.44
603.161	27714.31
603.357	27312.91
603.553	27392.78
603.75	27575.05
603.946	27210.51
604.142	27464.46
604.338	26721.04
604.534	27067.15
604.73	26819.35
604.926	26854.16
605.122	26878.74
605.318	26630.93
605.514	26589.97
605.71	26526.49
605.906	26463
606.102	26444.57
606.298	26508.05
606.494	26153.76
606.69	26090.27
606.886	26426.14
607.082	25856.8
607.278	25938.72
607.474	25588.52
607.67	26129.18
607.866	25699.11
608.062	26155.8
608.257	25672.48
608.453	25371.43
608.649	25875.23
608.845	25434.92
609.041	25418.53
609.236	25479.97
609.432	25426.73
609.628	25346.86
609.824	24859.44
610.019	25068.33
610.215	25111.34
610.411	25041.71
610.606	24990.51
610.802	24933.17
610.998	24709.94
611.193	24824.62
611.389	24789.81
611.584	24763.18
611.78	24554.29
611.976	24597.3
612.171	24472.37
612.367	24595.25
612.562	24615.73
612.758	24496.95
612.953	24294.2
613.149	24314.68
613.344	24156.99
613.539	24326.97
613.735	24341.3
613.93	24451.89
614.126	23888.7
614.321	24050.49
614.517	23835.45
614.712	24132.41
614.907	23778.11
615.103	23939.9
615.298	23700.29
615.493	23960.38
615.688	23425.86
615.884	23839.55
616.079	23266.12
616.274	23520.07
616.47	23456.58
616.665	23374.66
616.86	22989.64
617.055	23321.41
617.25	23171.91
617.445	23360.33
617.641	22768.46
617.836	23178.06
618.031	22881.1
618.226	23077.71
618.421	22659.92
618.616	23204.68
618.811	22469.46
619.006	22967.12
619.201	22387.54
619.396	22547.28
619.591	22264.66
619.786	22332.25
619.981	21875.55
620.176	22342.49
620.371	21906.27
620.566	21848.93
620.761	22027.1
620.956	21977.95
621.151	21637.98
621.346	21740.38
621.541	21599.07
621.735	21617.5
621.93	21326.69
622.125	21150.57
622.32	21080.94
622.515	21044.07
622.709	20929.39
622.904	20800.37
623.099	20765.55
623.294	20587.38
623.488	20384.63
623.683	20278.13
623.878	20108.15
624.072	20374.39
624.267	20089.72
624.462	20124.54
624.656	19997.56
624.851	19934.07
625.046	19778.43
625.24	19440.51
625.435	19436.42
625.629	19364.74
625.824	19037.06
626.018	19323.78
626.213	18826.12
626.407	19106.7
626.602	19051.4
626.796	18738.06
626.991	18877.32
627.185	18506.64
627.38	18340.75
627.574	18105.24
627.768	18097.05
627.963	18125.72
628.157	17916.83
628.352	18027.42
628.546	17656.73
628.74	18041.75
628.935	17607.58
629.129	17765.28
629.323	17290.15
629.517	17540
629.712	17228.71
629.906	17335.2
630.1	16862.12
630.294	17009.58
630.489	16919.46
630.683	17060.77
630.877	16642.99
631.071	16618.41
631.265	16896.94
631.459	16438.19
631.653	16602.03
631.848	16339.89
632.042	16229.3
632.236	16194.48
632.43	16100.28
632.624	15969.21
632.818	16012.21
633.012	15500.22
633.206	15717.31
633.4	15905.72
633.594	15459.26
633.788	15647.68
633.982	15541.18
634.176	15502.27
634.369	14990.28
634.563	15190.98
634.757	15033.29
634.951	15229.89
635.145	14824.39
635.339	14822.34
635.533	14621.64
635.726	14590.92
635.92	14541.77
636.114	14633.93
636.308	14334.93
636.501	14625.74
636.695	14214.1
636.889	14289.87
637.083	14244.82
637.276	13935.57
637.47	14193.62
637.664	13814.74
637.857	13986.77
638.051	13802.46
638.244	13683.67
638.438	13601.76
638.632	13673.43
638.825	13368.29
639.019	13466.59
639.212	13251.55
639.406	13243.36
639.599	13130.72
639.793	13114.34
639.986	13085.67
640.18	13200.35
640.373	12794.86
640.567	12610.54
640.76	12772.33
640.954	12422.13
641.147	12674.03
641.34	12401.65
641.534	12495.85
641.727	12327.92
641.92	12458.99
642.114	12364.78
642.307	12055.54
642.5	12002.29
642.694	11998.2
642.887	11844.6
643.08	12180.46
643.273	11901.94
643.467	11707.38
643.66	11693.05
643.853	11537.4
644.046	11486.2
644.239	11650.04
644.432	11404.28
644.626	11377.66
644.819	11498.49
645.012	11299.84
645.205	11414.52
645.398	11207.68
645.591	11035.65
645.784	11136
645.977	10837
646.17	10693.64
646.363	10906.63
646.556	10716.17
646.749	10718.22
646.942	10871.81
647.135	10722.31
647.328	10490.89
647.521	10427.4
647.714	10576.91
647.907	10351.63
648.099	10329.1
648.292	10169.36
648.485	10243.09
648.678	9976.85
648.871	9995.28
649.064	10007.57
649.256	9997.33
649.449	9950.23
649.642	9841.68
649.835	9839.64
650.027	9856.02
650.22	9925.65
650.413	9763.86
650.605	9522.2
650.798	9604.12
650.991	9505.82
651.183	9694.23
651.376	9288.73
651.568	9542.68
651.761	9133.09
651.954	9309.21
652.146	9395.23
652.339	9423.9
652.531	9215.01
652.724	9116.7
652.916	9036.83
653.109	9092.13
653.301	8989.73
653.494	8932.39
653.686	8789.03
653.879	8965.15
654.071	9165.85
654.263	8754.21
654.456	8721.45
654.648	8766.5
654.84	8682.53
655.033	8637.48
655.225	8487.98
655.417	8475.69
655.61	8358.96
655.802	8537.13
655.994	8311.85
656.186	8246.32
656.379	8209.45
656.571	8205.36
656.763	8080.43
656.955	8062
657.148	8158.25
657.34	8064.05
657.532	7887.92
657.724	7969.84
657.916	7799.86
658.108	7818.29
658.3	7879.73
658.492	7789.62
658.684	7578.68
658.876	7666.74
659.068	7578.68
659.26	7769.14
659.452	7717.94
659.644	7578.68
659.836	7443.51
660.028	7478.33
660.22	7568.44
660.412	7255.1
660.604	7328.83
660.796	7332.92
660.988	7459.9
661.18	7339.07
661.372	7081.02
661.563	7296.06
661.755	7232.57
661.947	7185.47
662.139	7025.73
662.331	6970.43
662.522	6933.57
662.714	6990.91
662.906	6949.95
663.097	6962.24
663.289	6657.09
663.481	6857.79
663.673	6798.4
663.864	6663.24
664.056	6741.06
664.247	6687.81
664.439	6728.77
664.631	6736.96
664.822	6827.07
665.014	6564.93
665.205	6519.88
665.397	6521.93
665.588	6282.31
665.78	6546.5
665.971	6460.49
666.163	6487.11
666.354	6292.55
666.546	6278.22
666.737	6292.55
666.929	6349.9
667.12	6229.07
667.311	6263.88
667.503	6054.99
667.694	6114.38
667.885	6163.53
668.077	6089.81
668.268	6071.37
668.459	6038.61
668.651	6100.05
668.842	6118.48
669.033	6110.29
669.224	5852.24
669.416	5944.4
669.607	6001.74
669.798	5835.86
669.989	5964.88
670.18	5950.54
670.371	5948.5
670.563	5733.46
670.754	5856.34
670.945	5852.24
671.136	5768.27
671.327	5762.13
671.518	5696.6
671.709	5717.08
671.9	5606.49
672.091	5483.61
672.282	5647.44
672.473	5551.19
672.664	5651.54
672.855	5592.15
673.046	5471.32
673.237	5639.25
673.428	5520.47
673.619	5651.54
673.809	5565.53
674	5579.86
674.191	5555.29
674.382	5172.32
674.573	5409.88
674.764	5413.98
674.954	5391.45
675.145	5309.53
675.336	5350.49
675.527	5342.3
675.717	5454.94
675.908	5422.17
676.099	5350.49
676.289	5446.74
676.48	5248.09
676.671	5338.2
676.861	5475.42
677.052	5264.47
677.243	5186.65
677.433	5229.66
677.624	5295.19
677.814	5141.6
678.005	5182.56
678.195	5139.55
678.386	5274.71
678.576	5131.36
678.767	5074.01
678.957	5192.8
679.148	5114.97
679.338	5059.68
679.529	5221.47
679.719	5051.49
679.909	5018.72
680.1	5074.01
680.29	4973.66
680.481	5188.7
680.671	5127.26
680.861	5074.01
681.052	5041.25
681.242	5006.43
681.432	5188.7
681.622	5000.29
681.813	5162.08
682.003	4975.71
682.193	4990.05
682.383	5024.86
682.573	5047.39
682.764	4918.37
682.954	5106.78
683.144	4942.94
683.334	4828.26
683.524	4877.41
683.714	5041.25
683.904	4940.9
684.094	5014.62
684.284	4879.46
684.474	5057.63
684.664	4920.42
684.854	4934.75
685.044	4957.28
685.234	4678.76
685.424	4791.39
685.614	4846.69
685.804	4766.82
685.994	4762.72
686.184	4744.29
686.374	4828.26
686.564	4676.71
686.753	4818.02
686.943	4637.8
687.133	4670.56
687.323	4660.32
687.513	4605.03
687.702	4703.33
687.892	4455.53
688.082	4645.99
688.272	4707.43
688.461	4566.12
688.651	4574.31
688.841	4455.53
689.03	4504.68
689.22	4607.08
689.41	4500.58
689.599	4525.16
689.789	4389.99
689.979	4500.58
690.168	4435.05
690.358	4365.42
690.547	4285.55
690.737	4385.9
690.926	4326.5
691.116	4328.55
691.305	4424.81
691.495	4285.55
691.684	4254.83
691.874	4164.72
692.063	4199.53
692.252	4179.05
692.442	4107.37
692.631	4215.91
692.82	4113.52
693.01	4086.89
693.199	4095.08
693.388	4090.99
693.578	4064.36
693.767	4037.74
693.956	4154.48
694.146	4047.98
694.335	3968.11
694.524	4009.07
694.713	4047.98
694.902	4041.84
695.092	4015.21
695.281	3947.63
695.47	3892.34
695.659	3998.83
695.848	3941.49
696.037	3898.48
696.226	4045.93
696.415	3902.58
696.604	3947.63
696.793	3976.3
696.982	3929.2
697.171	3869.81
697.36	3941.49
697.549	3865.71
697.738	3787.89
697.927	3886.19
698.116	3875.95
698.305	3961.97
698.494	3830.9
698.683	3890.29
698.872	3814.51
699.061	3853.42
699.25	3771.51
699.438	3822.7
699.627	3804.27
699.816	3822.7
700.005	3677.3
700.193	3791.98
700.382	3828.85
700.571	3798.13
700.76	3722.35
700.948	3789.94
701.137	3796.08
701.326	3800.18
701.514	3703.92
701.703	3806.32
701.892	3636.34
702.08	3789.94
702.269	3828.85
702.457	3767.41
702.646	3726.45
702.834	3693.68
703.023	3646.58
703.212	3855.47
703.4	3740.79
703.589	3687.54
703.777	3744.88
703.965	3644.53
704.154	3779.7
704.342	3669.11
704.531	3701.87
704.719	3613.81
704.907	3830.9
705.096	3763.31
705.284	3710.07
705.472	3763.31
705.661	3779.7
705.849	3593.33
706.037	3673.2
706.226	3595.38
706.414	3755.12
706.602	3595.38
706.79	3720.31
706.979	3759.22
707.167	3734.64
707.355	3751.03
707.543	3615.86
707.731	3744.88
707.919	3560.56
708.107	3748.98
708.296	3679.35
708.484	3636.34
708.672	3681.39
708.86	3570.8
709.048	3798.13
709.236	3628.15
709.424	3810.42
709.612	3677.3
709.8	3613.81
709.988	3726.45
710.176	3677.3
710.364	3757.17
710.551	3624.05
710.739	3697.78
710.927	3683.44
711.115	3681.39
711.303	3798.13
711.491	3572.85
711.679	3667.06
711.866	3671.15
712.054	3519.6
712.242	3673.2
712.43	3705.97
712.617	3742.83
712.805	3644.53
712.993	3691.63
713.181	3560.56
713.368	3601.52
713.556	3708.02
713.744	3642.48
713.931	3759.22
714.119	3779.7
714.306	3648.63
714.494	3662.96
714.682	3724.4
714.869	3622
715.057	3622
715.244	3638.39
715.432	3734.64
715.619	3624.05
715.807	3724.4
715.994	3669.11
716.182	3683.44
716.369	3726.45
716.556	3744.88
716.744	3669.11
716.931	3763.31
717.119	3875.95
717.306	3742.83
717.493	3724.4
717.681	3728.5
717.868	3751.03
718.055	3763.31
718.242	3579
718.43	3660.91
718.617	3656.82
718.804	3878
718.991	3669.11
719.179	3726.45
719.366	3699.83
719.553	3736.69
719.74	3712.11
719.927	3677.3
720.114	3574.9
720.301	3667.06
720.488	3628.15
720.676	3574.9
720.863	3675.25
721.05	3564.66
721.237	3609.72
721.424	3671.15
721.611	3714.16
721.798	3560.56
721.985	3619.96
722.172	3730.55
722.358	3583.09
722.545	3687.54
722.732	3751.03
722.919	3665.01
723.106	3624.05
723.293	3538.04
723.48	3628.15
723.667	3492.98
723.853	3544.18
724.04	3619.96
724.227	3560.56
724.414	3697.78
724.6	3609.72
724.787	3693.68
724.974	3691.63
725.161	3574.9
725.347	3476.6
725.534	3529.84
725.72	3480.69
725.907	3460.21
726.094	3591.28
726.28	3613.81
726.467	3587.19
726.653	3609.72
726.84	3630.2
727.027	3533.94
727.213	3419.25
727.4	3609.72
727.586	3579
727.773	3423.35
727.959	3503.22
728.145	3632.24
728.332	3581.04
728.518	3632.24
728.705	3566.71
728.891	3480.69
729.077	3617.91
729.264	3497.08
729.45	3488.89
729.636	3591.28
729.823	3562.61
730.009	3558.52
730.195	3542.13
730.382	3472.5
730.568	3538.04
730.754	3361.91
730.94	3556.47
731.126	3449.97
731.313	3593.33
731.499	3579
731.685	3484.79
731.871	3480.69
732.057	3513.46
732.243	3406.97
732.429	3523.7
732.615	3415.16
732.801	3429.49
732.987	3533.94
733.173	3464.31
733.359	3376.25
733.545	3349.62
733.731	3431.54
733.917	3312.76
734.103	3443.83
734.289	3464.31
734.475	3372.15
734.661	3404.92
734.847	3449.97
735.033	3288.18
735.219	3288.18
735.404	3376.25
735.59	3335.29
735.776	3376.25
735.962	3345.53
736.148	3243.13
736.333	3368.06
736.519	3372.15
736.705	3279.99
736.89	3318.9
737.076	3294.33
737.262	3320.95
737.447	3282.04
737.633	3341.43
737.819	3318.9
738.004	3341.43
738.19	3314.81
738.375	3288.18
738.561	3331.19
738.747	3310.71
738.932	3214.46
739.118	3239.03
739.303	3351.67
739.489	3189.88
739.674	3206.27
739.859	3228.79
740.045	3179.64
740.23	3142.78
740.416	3202.17
740.601	3134.59
740.786	3245.18
740.972	3024
741.157	3034.24
741.342	3107.96
741.528	3003.52
741.713	3097.72
741.898	3142.78
742.084	3136.63
742.269	3032.19
742.454	3032.19
742.639	3105.92
742.824	3001.47
743.01	3046.52
743.195	3026.04
743.38	3054.72
743.565	2997.37
743.75	3021.95
743.935	2897.02
744.12	2931.84
744.305	2768
744.49	2974.85
744.675	2911.36
744.86	2880.64
745.045	2894.97
745.23	2872.45
745.415	2821.25
745.6	2899.07
745.785	2856.06
745.97	2847.87
746.155	2796.67
746.34	2686.08
746.525	2737.28
746.71	2772.1
746.895	2632.83
747.079	2651.27
747.264	2716.8
747.449	2577.54
747.634	2542.72
747.819	2686.08
748.003	2608.26
748.188	2507.91
748.373	2571.4
748.557	2538.63
748.742	2493.57
748.927	2600.07
749.111	2430.09
749.296	2514.05
749.481	2462.85
749.665	2456.71
749.85	2462.85
750.034	2444.42
750.219	2329.74
750.404	2350.21
750.588	2395.27
750.773	2288.78
750.957	2288.78
751.141	2307.21
751.326	2270.34
751.51	2223.24
751.695	2303.11
751.879	2182.28
752.064	2317.45
752.248	2284.68
752.432	2235.53
752.617	2149.51
752.801	2149.51
752.985	2243.72
753.17	2133.13
753.354	2204.81
753.538	2102.41
753.722	2174.09
753.907	2110.6
754.091	1985.68
754.275	2045.07
754.459	2047.12
754.643	1948.81
754.828	1920.14
755.012	1903.76
755.196	1934.48
755.38	1973.39
755.564	2022.54
755.748	1975.44
755.932	1928.33
756.116	1850.51
756.3	1924.24
756.484	1854.61
756.668	1840.27
756.852	1811.6
757.036	1870.99
757.22	1827.98
757.404	1709.2
757.588	1764.5
757.772	1776.78
757.956	1801.36
758.14	1694.86
758.323	1637.52
758.507	1750.16
758.691	1766.54
758.875	1686.67
759.059	1690.77
759.242	1649.81
759.426	1522.84
759.61	1649.81
759.794	1666.19
759.977	1711.25
760.161	1739.92
760.345	1746.06
760.528	1637.52
760.712	1524.88
760.895	1557.65
761.079	1666.19
761.263	1641.62
761.446	1602.71
761.63	1612.95
761.813	1492.12
761.997	1520.79
762.18	1549.46
762.364	1588.37
762.547	1471.64
762.731	1596.56
762.914	1500.31
763.098	1600.66
763.281	1432.72
763.464	1463.44
763.648	1463.44
763.831	1473.68
764.015	1410.2
764.198	1440.92
764.381	1356.95
764.564	1483.92
764.748	1436.82
764.931	1416.34
765.114	1387.67
765.297	1402.01
765.481	1301.65
765.664	1410.2
765.847	1385.62
766.03	1377.43
766.213	1383.57
766.397	1436.82
766.58	1336.47
766.763	1338.52
766.946	1338.52
767.129	1330.33
767.312	1297.56
767.495	1338.52
767.678	1320.09
767.861	1268.89
768.044	1289.37
768.227	1359
768.41	1170.58
768.593	1318.04
768.776	1207.45
768.959	1256.6
769.142	1268.89
769.324	1201.3
769.507	1307.8
769.69	1178.78
769.873	1248.41
770.056	1205.4
770.239	1248.41
770.421	1240.22
770.604	1348.76
770.787	1221.78
770.97	1082.52
771.152	1184.92
771.335	1221.78
771.518	1168.54
771.7	1154.2
771.883	1225.88
772.066	1137.82
772.248	1113.24
772.431	1191.06
772.613	1146.01
772.796	1139.87
772.978	1107.1
773.161	1084.57
773.343	1055.9
773.526	1156.25
773.708	1121.43
773.891	1047.71
774.073	1051.8
774.256	1109.15
774.438	1129.63
774.621	1002.65
774.803	1041.56
774.985	1023.13
775.168	1064.09
775.35	1023.13
775.532	1078.43
775.715	1033.37
775.897	961.69
776.079	928.92
776.261	965.79
776.444	971.93
776.626	953.5
776.808	941.21
776.99	951.45
777.173	847.01
777.355	900.25
777.537	953.5
777.719	892.06
777.901	933.02
778.083	885.92
778.265	793.76
778.447	818.33
778.629	857.25
778.811	871.58
778.993	847.01
779.175	926.88
779.357	822.43
779.539	851.1
779.721	840.86
779.903	836.77
780.085	787.61
780.267	799.9
780.449	748.7
780.631	806.05
780.812	793.76
780.994	793.76
781.176	785.57
781.358	697.5
781.54	695.46
781.721	732.32
781.903	763.04
782.085	736.42
782.267	810.14
782.448	687.26
782.63	726.18
782.812	828.57
782.993	728.22
783.175	767.13
783.357	711.84
783.538	689.31
783.72	629.92
783.901	640.16
784.083	736.42
784.264	638.11
784.446	748.7
784.627	599.2
784.809	584.87
784.99	695.46
785.172	709.79
785.353	638.11
785.535	634.02
785.716	654.5
785.897	550.05
786.079	634.02
786.26	591.01
786.441	603.3
786.623	597.15
786.804	500.9
786.985	531.62
787.167	601.25
787.348	582.82
787.529	548
787.71	619.68
787.891	494.76
788.073	488.61
788.254	529.57
788.435	554.15
788.616	576.67
788.797	457.89
788.978	550.05
789.159	437.41
789.34	601.25
789.522	480.42
789.703	488.61
789.884	472.23
790.065	482.47
790.246	558.24
790.427	453.8
790.607	392.36
790.788	498.85
790.969	388.26
791.15	539.81
791.331	412.84
791.512	507.04
791.693	437.41
791.874	457.89
792.054	509.09
792.235	509.09
792.416	439.46
792.597	451.75
792.778	373.92
792.958	439.46
793.139	449.7
793.32	453.8
793.5	470.18
793.681	390.31
793.862	394.4
794.042	519.33
794.223	421.03
794.404	418.98
794.584	400.55
794.765	435.36
794.945	392.36
795.126	412.84
795.306	390.31
795.487	408.74
795.667	384.16
795.848	423.08
796.028	367.78
796.209	388.26
796.389	341.16
796.57	285.86
796.75	378.02
796.93	328.87
797.111	498.85
797.291	373.92
797.471	402.6
797.652	271.53
797.832	304.29
798.012	375.97
798.192	359.59
798.373	392.36
798.553	312.49
798.733	345.25
798.913	306.34
799.093	320.68
799.274	312.49
799.454	351.4
799.634	373.92
799.814	273.57
799.994	306.34
800.174	335.01
800.354	345.25
800.534	298.15
800.714	339.11
800.894	302.25
801.074	279.72
801.254	281.77
801.434	363.69
801.614	330.92
801.794	306.34
801.974	814.24
802.154	361.64
802.334	359.59
802.514	263.33
802.693	304.29
802.873	275.62
803.053	349.35
803.233	287.91
803.413	228.52
803.592	244.9
803.772	253.09
803.952	314.53
804.131	249
804.311	332.97
804.491	316.58
804.67	240.81
804.85	287.91
805.03	230.57
805.209	263.33
805.389	257.19
805.568	275.62
805.748	165.03
805.928	339.11
806.107	320.68
806.287	326.82
806.466	337.06
806.646	189.61
806.825	306.34
807.004	312.49
807.184	285.86
807.363	302.25
807.543	240.81
807.722	242.85
807.901	337.06
808.081	296.1
808.26	253.09
808.439	246.95
808.619	234.66
808.798	126.12
808.977	232.62
809.156	273.57
809.336	205.99
809.515	244.9
809.694	203.94
809.873	205.99
810.052	212.14
810.231	289.96
810.411	298.15
810.59	240.81
810.769	244.9
810.948	205.99
811.127	203.94
811.306	162.98
811.485	267.43
811.664	208.04
811.843	249
812.022	242.85
812.201	249
812.38	148.65
812.559	257.19
812.737	169.13
812.916	212.14
813.095	249
813.274	187.56
813.453	240.81
813.632	171.18
813.811	238.76
813.989	189.61
814.168	232.62
814.347	187.56
814.526	222.38
814.704	222.38
814.883	187.56
815.062	158.89
815.24	195.75
815.419	93.35
815.598	224.42
815.776	195.75
815.955	142.5
816.133	195.75
816.312	197.8
816.49	183.46
816.669	165.03
816.847	179.37
817.026	289.96
817.204	154.79
817.383	175.27
817.561	185.51
817.74	142.5
817.918	111.78
818.097	171.18
818.275	167.08
818.453	240.81
818.632	199.85
818.81	134.31
818.988	165.03
819.167	195.75
819.345	146.6
819.523	165.03
819.701	93.35
819.879	177.32
820.058	158.89
820.236	146.6
820.414	105.64
820.592	140.46
820.77	165.03
820.948	232.62
821.127	124.07
821.305	173.22
821.483	150.7
821.661	197.8
821.839	134.31
822.017	199.85
822.195	140.46
822.373	146.6
822.551	162.98
822.729	195.75
822.907	105.64
823.085	142.5
823.262	142.5
823.44	126.12
823.618	85.16
823.796	148.65
823.974	107.69
824.152	126.12
824.329	171.18
824.507	126.12
824.685	203.94
824.863	156.84
825.04	175.27
825.218	146.6
825.396	72.87
825.574	130.22
825.751	101.55
825.929	183.46
826.107	93.35
826.284	101.55
826.462	138.41
826.639	130.22
826.817	87.21
826.994	105.64
827.172	134.31
827.349	224.42
827.527	156.84
827.704	195.75
827.882	72.87
828.059	109.74
828.237	113.83
828.414	154.79
828.591	154.79
828.769	46.25
828.946	167.08
829.124	171.18
829.301	183.46
829.478	93.35
829.655	99.5
829.833	58.54
830.01	97.45
830.187	117.93
830.364	115.88
830.542	134.31
830.719	93.35
830.896	52.39
831.073	64.68
831.25	38.06
831.427	134.31
831.604	138.41
831.782	103.59
831.959	52.39
832.136	132.26
832.313	79.02
832.49	60.59
832.667	105.64
832.844	173.22
833.021	140.46
833.198	101.55
833.374	136.36
833.551	150.7
833.728	146.6
833.905	189.61
834.082	-7
834.259	95.4
834.436	109.74
834.612	-13.14
834.789	152.74
834.966	44.2
835.143	111.78
835.319	76.97
835.496	50.35
835.673	66.73
835.85	130.22
836.026	60.59
836.203	126.12
836.38	124.07
836.556	99.5
836.733	44.2
836.909	150.7
837.086	130.22
837.262	40.11
837.439	126.12
837.616	52.39
837.792	11.43
837.968	25.77
838.145	109.74
838.321	101.55
838.498	99.5
838.674	58.54
838.851	50.35
839.027	111.78
839.203	48.3
839.38	124.07
839.556	76.97
839.732	85.16
839.909	81.07
840.085	103.59
840.261	9.39
840.437	150.7
840.614	25.77
840.79	122.02
840.966	97.45
841.142	58.54
841.318	83.11
841.494	93.35
841.671	109.74
841.847	21.67
842.023	52.39
842.199	62.63
842.375	130.22
842.551	-21.33
842.727	-2.9
842.903	138.41
843.079	7.34
843.255	87.21
843.431	60.59
843.607	165.03
843.783	-2.9
843.959	44.2
844.134	38.06
844.31	87.21
844.486	11.43
844.662	23.72
844.838	66.73
845.013	79.02
845.189	117.93
845.365	36.01
845.541	117.93
845.716	60.59
845.892	113.83
846.068	85.16
846.244	-13.14
846.419	19.63
846.595	19.63
846.77	81.07
846.946	31.91
847.122	64.68
847.297	17.58
847.473	97.45
847.648	-0.85
847.824	128.17
847.999	5.29
848.175	76.97
848.35	56.49
848.526	130.22
848.701	17.58
848.876	52.39
849.052	107.69
849.227	17.58
849.403	122.02
849.578	-4.95
849.753	97.45
849.929	36.01
850.104	-39.76
850.279	140.46
850.454	64.68
850.63	36.01
850.805	23.72
850.98	36.01
851.155	76.97
851.33	87.21
851.505	-4.95
851.681	33.96
851.856	27.82
852.031	44.2
852.206	11.43
852.381	64.68
852.556	44.2
852.731	19.63
852.906	48.3
853.081	17.58
853.256	62.63
853.431	11.43
853.606	7.34
853.781	38.06
853.956	-39.76
854.131	29.87
854.305	13.48
854.48	40.11
854.655	11.43
854.83	-7
855.005	-31.57
855.18	89.26
855.354	1.19
855.529	-13.14
855.704	-45.91
855.879	-9.05
856.053	74.92
856.228	31.91
856.403	23.72
856.577	64.68
856.752	-15.19
856.926	58.54
857.101	23.72
857.276	-13.14
857.45	13.48
857.625	33.96
857.799	-35.67
857.974	38.06
858.148	-17.24
858.323	54.44
858.497	117.93
858.672	17.58
858.846	-43.86
859.02	7.34
859.195	1.19
859.369	52.39
859.543	7.34
859.718	9.39
859.892	95.4
860.066	42.15
860.241	81.07
860.415	-33.62
860.589	-31.57
860.763	11.43
860.938	-15.19
861.112	29.87
861.286	15.53
861.46	11.43
861.634	23.72
861.808	19.63
861.982	31.91
862.157	-68.44
862.331	15.53
862.505	-23.38
862.679	11.43
862.853	27.82
863.027	-9.05
863.201	136.36
863.375	17.58
863.549	36.01
863.722	-7
863.896	31.91
864.07	36.01
864.244	21.67
864.418	60.59
864.592	-11.09
864.766	64.68
864.939	-33.62
865.113	40.11
865.287	81.07
865.461	17.58
865.634	54.44
865.808	19.63
865.982	-15.19
866.156	-21.33
866.329	-2.9
866.503	27.82
866.676	7.34
866.85	44.2
867.024	-0.85
867.197	36.01
867.371	56.49
867.544	40.11
867.718	52.39
867.891	-9.05
868.065	-33.62
868.238	-0.85
868.412	113.83
868.585	83.11
868.759	-45.91
868.932	9.39
869.105	-33.62
869.279	-37.72
869.452	66.73
869.625	11.43
869.799	31.91
869.972	3.24
870.145	27.82
870.319	33.96
870.492	-17.24
870.665	-15.19
870.838	-13.14
871.011	36.01
871.185	-7
871.358	33.96
871.531	44.2
871.704	9.39
871.877	54.44
872.05	1.19
872.223	23.72
872.396	-39.76
872.569	52.39
872.742	17.58
872.915	23.72
873.088	-56.15
873.261	79.02
873.434	-4.95
873.607	25.77
873.78	5.29
873.953	-21.33
874.126	9.39
874.299	19.63
874.471	25.77
874.644	15.53
874.817	-31.57
874.99	-11.09
875.163	19.63
875.335	60.59
875.508	46.25
875.681	48.3
875.853	13.48
876.026	19.63
876.199	-50
876.371	7.34
876.544	-13.14
876.717	3.24
876.889	-25.43
877.062	42.15
877.234	11.43
877.407	3.24
877.579	72.87
877.752	38.06
877.924	-13.14
878.097	7.34
878.269	-4.95
878.442	42.15
878.614	-39.76
878.786	56.49
878.959	38.06
879.131	1.19
879.303	-76.63
879.476	9.39
879.648	42.15
879.82	52.39
879.993	36.01
880.165	-41.81
880.337	-47.96
880.509	-13.14
880.681	-17.24
880.854	19.63
881.026	15.53
881.198	11.43
881.37	44.2
881.542	36.01
881.714	-39.76
881.886	-35.67
882.058	-37.72
882.23	25.77
882.402	-7
882.574	48.3
882.746	9.39
882.918	-54.1
883.09	11.43
883.262	-0.85
883.434	-54.1
883.606	17.58
883.778	-7
883.95	46.25
884.122	-50
884.293	111.78
884.465	-25.43
884.637	7.34
884.809	36.01
884.98	19.63
885.152	56.49
885.324	23.72
885.496	-101.2
885.667	42.15
885.839	-17.24
886.011	21.67
886.182	36.01
886.354	3.24
886.525	-45.91
886.697	-23.38
886.869	17.58
887.04	-19.29
887.212	19.63
887.383	93.35
887.555	48.3
887.726	3.24
887.897	-2.9
888.069	31.91
888.24	60.59
888.412	7.34
888.583	-23.38
888.754	3.24
888.926	17.58
889.097	-33.62
889.268	-21.33
889.44	40.11
889.611	-47.96
889.782	-88.92
889.953	27.82
890.125	-39.76
890.296	23.72
890.467	17.58
890.638	-7
890.809	-47.96
890.98	3.24
891.151	29.87
891.323	42.15
891.494	-27.48
891.665	-31.57
891.836	-23.38
892.007	48.3
892.178	7.34
892.349	-60.24
892.52	56.49
892.691	-78.68
892.862	-41.81
893.032	-62.29
893.203	3.24
893.374	-17.24
893.545	-33.62
893.716	-39.76
893.887	15.53
894.057	7.34
894.228	29.87
894.399	21.67
894.57	9.39
894.74	33.96
894.911	31.91
895.082	-95.06
895.253	-11.09
895.423	-41.81
895.594	9.39
895.764	-4.95
895.935	-4.95
896.106	-15.19
896.276	-68.44
896.447	11.43
896.617	-29.52
896.788	9.39
896.958	-4.95
897.129	46.25
897.299	-35.67
897.47	9.39
897.64	15.53
897.81	-47.96
897.981	19.63
898.151	-45.91
898.322	-43.86
898.492	79.02
898.662	29.87
898.832	-62.29
899.003	-7
899.173	27.82
899.343	-31.57
899.513	-103.25
