Data from USB4F104151__50__10-23-29-235.txt Node

Date: Wed Mar 12 10:23:29 EDT 2025
User: louis
Spectrometer: USB4F10415
Trigger mode: 4
Integration Time (sec): 3.000000E-2
Scans to average: 1
Electric dark correction enabled: true
Nonlinearity correction enabled: false
Boxcar width: 0
XAxis mode: Wavelengths
Number of Pixels in Spectrum: 3648
>>>>>Begin Spectral Data<<<<<
178.204	-146.43
178.424	-146.43
178.644	-146.43
178.864	-68.61
179.084	-78.85
179.304	33.79
179.524	-7.17
179.744	-39.94
179.964	13.31
180.184	1.02
180.404	-39.94
180.624	58.37
180.844	-58.37
181.064	70.65
181.283	-13.31
181.503	-29.7
181.723	11.26
181.943	-109.57
182.163	68.61
182.383	35.84
182.602	9.22
182.822	62.46
183.042	70.65
183.262	-7.17
183.482	-15.36
183.701	11.26
183.921	-3.07
184.141	-48.13
184.361	23.55
184.58	62.46
184.8	-27.65
185.02	-15.36
185.239	68.61
185.459	-13.31
185.679	66.56
185.898	-52.22
186.118	123.9
186.338	37.89
186.557	33.79
186.777	35.84
186.997	76.8
187.216	60.42
187.436	103.42
187.655	21.5
187.875	25.6
188.095	62.46
188.314	89.09
188.534	-68.61
188.753	21.5
188.973	50.18
189.192	54.27
189.412	5.12
189.631	44.03
189.851	5.12
190.07	9.22
190.29	76.8
190.509	-23.55
190.729	-9.22
190.948	27.65
191.168	189.44
191.387	11.26
191.607	-23.55
191.826	-19.46
192.045	-1.02
192.265	31.74
192.484	13.31
192.704	37.89
192.923	-19.46
193.142	95.23
193.362	-11.26
193.581	60.42
193.8	35.84
194.02	37.89
194.239	9.22
194.458	58.37
194.678	3.07
194.897	27.65
195.116	15.36
195.335	70.65
195.555	35.84
195.774	11.26
195.993	60.42
196.212	-52.22
196.432	-1.02
196.651	52.22
196.87	48.13
197.089	11.26
197.308	74.75
197.528	27.65
197.747	5.12
197.966	54.27
198.185	89.09
198.404	-31.74
198.623	50.18
198.842	44.03
199.062	31.74
199.281	62.46
199.5	-17.41
199.719	25.6
199.938	-5.12
200.157	41.98
200.376	13.31
200.595	19.46
200.814	-19.46
201.033	-11.26
201.252	78.85
201.471	95.23
201.69	-9.22
201.909	-54.27
202.128	5.12
202.347	25.6
202.566	-35.84
202.785	-15.36
203.004	11.26
203.223	74.75
203.442	-13.31
203.661	-23.55
203.879	21.5
204.098	72.7
204.317	95.23
204.536	3.07
204.755	70.65
204.974	41.98
205.193	9.22
205.411	76.8
205.63	-5.12
205.849	25.6
206.068	3.07
206.287	82.94
206.505	21.5
206.724	-13.31
206.943	-5.12
207.162	-17.41
207.381	13.31
207.599	3.07
207.818	50.18
208.037	17.41
208.255	23.55
208.474	-5.12
208.693	78.85
208.911	-25.6
209.13	64.51
209.349	9.22
209.567	87.04
209.786	9.22
210.005	-19.46
210.223	46.08
210.442	-9.22
210.661	-19.46
210.879	35.84
211.098	48.13
211.316	-11.26
211.535	21.5
211.753	-3.07
211.972	54.27
212.191	50.18
212.409	13.31
212.628	48.13
212.846	56.32
213.065	78.85
213.283	-31.74
213.502	1.02
213.72	35.84
213.938	54.27
214.157	27.65
214.375	25.6
214.594	9.22
214.812	15.36
215.031	17.41
215.249	-7.17
215.467	37.89
215.686	9.22
215.904	37.89
216.122	-37.89
216.341	95.23
216.559	54.27
216.778	9.22
216.996	1.02
217.214	84.99
217.432	-3.07
217.651	-21.5
217.869	9.22
218.087	9.22
218.306	19.46
218.524	5.12
218.742	27.65
218.96	48.13
219.179	21.5
219.397	48.13
219.615	52.22
219.833	29.7
220.051	50.18
220.27	23.55
220.488	-11.26
220.706	105.47
220.924	-46.08
221.142	54.27
221.36	-5.12
221.578	78.85
221.796	-50.18
222.015	41.98
222.233	62.46
222.451	70.65
222.669	-31.74
222.887	37.89
223.105	-9.22
223.323	13.31
223.541	15.36
223.759	25.6
223.977	58.37
224.195	95.23
224.413	56.32
224.631	19.46
224.849	27.65
225.067	60.42
225.285	-5.12
225.503	5.12
225.721	-89.09
225.939	33.79
226.157	13.31
226.375	123.9
226.592	23.55
226.81	19.46
227.028	29.7
227.246	19.46
227.464	46.08
227.682	41.98
227.9	29.7
228.117	56.32
228.335	66.56
228.553	13.31
228.771	25.6
228.989	-7.17
229.206	-23.55
229.424	103.42
229.642	-35.84
229.86	13.31
230.077	64.51
230.295	7.17
230.513	-11.26
230.731	1.02
230.948	87.04
231.166	25.6
231.384	-23.55
231.601	-5.12
231.819	25.6
232.037	-13.31
232.254	-46.08
232.472	15.36
232.689	62.46
232.907	21.5
233.125	-50.18
233.342	5.12
233.56	-44.03
233.777	39.94
233.995	39.94
234.213	62.46
234.43	-29.7
234.648	23.55
234.865	-27.65
235.083	52.22
235.3	46.08
235.518	33.79
235.735	31.74
235.953	52.22
236.17	3.07
236.388	-31.74
236.605	-17.41
236.822	27.65
237.04	13.31
237.257	25.6
237.475	-15.36
237.692	17.41
237.909	15.36
238.127	44.03
238.344	-62.46
238.562	25.6
238.779	54.27
238.996	-23.55
239.214	-9.22
239.431	5.12
239.648	-13.31
239.865	50.18
240.083	-17.41
240.3	109.57
240.517	35.84
240.735	91.13
240.952	111.61
241.169	-27.65
241.386	21.5
241.603	1.02
241.821	78.85
242.038	58.37
242.255	35.84
242.472	-62.46
242.689	19.46
242.907	70.65
243.124	33.79
243.341	46.08
243.558	-17.41
243.775	-27.65
243.992	1.02
244.209	-19.46
244.426	107.52
244.643	15.36
244.86	-37.89
245.078	107.52
245.295	9.22
245.512	-23.55
245.729	29.7
245.946	56.32
246.163	-21.5
246.38	-70.65
246.597	-27.65
246.814	3.07
247.031	91.13
247.248	-9.22
247.464	37.89
247.681	-23.55
247.898	54.27
248.115	33.79
248.332	11.26
248.549	-19.46
248.766	54.27
248.983	68.61
249.2	72.7
249.417	-1.02
249.633	37.89
249.85	82.94
250.067	50.18
250.284	9.22
250.501	-11.26
250.717	93.18
250.934	-15.36
251.151	70.65
251.368	-15.36
251.585	-29.7
251.801	41.98
252.018	-13.31
252.235	95.23
252.451	13.31
252.668	1.02
252.885	-11.26
253.102	3.07
253.318	-5.12
253.535	9.22
253.752	74.75
253.968	9.22
254.185	-11.26
254.401	-33.79
254.618	13.31
254.835	-13.31
255.051	76.8
255.268	11.26
255.484	56.32
255.701	21.5
255.917	3.07
256.134	48.13
256.351	-21.5
256.567	46.08
256.784	119.81
257	11.26
257.217	60.42
257.433	-13.31
257.65	84.99
257.866	17.41
258.082	72.7
258.299	-17.41
258.515	93.18
258.732	21.5
258.948	52.22
259.165	-72.7
259.381	-35.84
259.597	11.26
259.814	54.27
260.03	64.51
260.246	9.22
260.463	37.89
260.679	-7.17
260.895	9.22
261.112	-5.12
261.328	-62.46
261.544	7.17
261.761	48.13
261.977	19.46
262.193	-25.6
262.409	29.7
262.626	37.89
262.842	46.08
263.058	-23.55
263.274	-29.7
263.49	56.32
263.707	44.03
263.923	-33.79
264.139	35.84
264.355	29.7
264.571	44.03
264.787	68.61
265.004	21.5
265.22	62.46
265.436	-48.13
265.652	-29.7
265.868	37.89
266.084	-11.26
266.3	56.32
266.516	-37.89
266.732	-41.98
266.948	-25.6
267.164	76.8
267.38	52.22
267.596	78.85
267.812	29.7
268.028	-17.41
268.244	21.5
268.46	37.89
268.676	37.89
268.892	29.7
269.108	-35.84
269.324	-44.03
269.54	13.31
269.756	15.36
269.972	54.27
270.188	23.55
270.403	-9.22
270.619	91.13
270.835	46.08
271.051	-23.55
271.267	48.13
271.483	48.13
271.698	44.03
271.914	-27.65
272.13	21.5
272.346	80.89
272.562	-15.36
272.777	46.08
272.993	25.6
273.209	60.42
273.425	-15.36
273.64	-23.55
273.856	52.22
274.072	44.03
274.287	58.37
274.503	21.5
274.719	66.56
274.934	27.65
275.15	54.27
275.366	66.56
275.581	70.65
275.797	64.51
276.012	-11.26
276.228	46.08
276.444	5.12
276.659	70.65
276.875	46.08
277.09	11.26
277.306	62.46
277.521	-17.41
277.737	21.5
277.952	46.08
278.168	62.46
278.383	5.12
278.599	9.22
278.814	78.85
279.03	44.03
279.245	70.65
279.461	-3.07
279.676	64.51
279.892	-15.36
280.107	-23.55
280.322	62.46
280.538	9.22
280.753	29.7
280.969	52.22
281.184	25.6
281.399	119.81
281.615	17.41
281.83	35.84
282.045	-58.37
282.26	-74.75
282.476	52.22
282.691	64.51
282.906	17.41
283.122	-9.22
283.337	21.5
283.552	33.79
283.767	-7.17
283.983	-21.5
284.198	23.55
284.413	29.7
284.628	-15.36
284.843	-37.89
285.058	44.03
285.274	-62.46
285.489	-7.17
285.704	54.27
285.919	-7.17
286.134	-1.02
286.349	23.55
286.564	7.17
286.779	35.84
286.995	66.56
287.21	-5.12
287.425	60.42
287.64	13.31
287.855	78.85
288.07	46.08
288.285	101.37
288.5	64.51
288.715	44.03
288.93	-31.74
289.145	5.12
289.36	66.56
289.575	99.33
289.79	72.7
290.004	-1.02
290.219	41.98
290.434	-1.02
290.649	29.7
290.864	9.22
291.079	21.5
291.294	52.22
291.509	23.55
291.724	-7.17
291.938	11.26
292.153	19.46
292.368	64.51
292.583	23.55
292.798	68.61
293.012	25.6
293.227	19.46
293.442	-27.65
293.657	52.22
293.871	74.75
294.086	41.98
294.301	78.85
294.516	93.18
294.73	70.65
294.945	-52.22
295.16	132.09
295.374	60.42
295.589	1.02
295.804	62.46
296.018	-5.12
296.233	-3.07
296.447	93.18
296.662	-27.65
296.877	87.04
297.091	66.56
297.306	5.12
297.52	103.42
297.735	1.02
297.949	-3.07
298.164	91.13
298.378	-68.61
298.593	3.07
298.807	41.98
299.022	152.57
299.236	78.85
299.451	46.08
299.665	39.94
299.88	19.46
300.094	62.46
300.309	39.94
300.523	64.51
300.737	44.03
300.952	46.08
301.166	54.27
301.381	37.89
301.595	41.98
301.809	19.46
302.024	21.5
302.238	66.56
302.452	74.75
302.667	-19.46
302.881	3.07
303.095	82.94
303.309	39.94
303.524	48.13
303.738	64.51
303.952	44.03
304.166	82.94
304.381	-41.98
304.595	56.32
304.809	37.89
305.023	5.12
305.237	80.89
305.452	-27.65
305.666	93.18
305.88	84.99
306.094	111.61
306.308	62.46
306.522	64.51
306.736	84.99
306.95	60.42
307.164	23.55
307.379	76.8
307.593	25.6
307.807	19.46
308.021	58.37
308.235	58.37
308.449	78.85
308.663	-7.17
308.877	9.22
309.091	70.65
309.305	60.42
309.519	-29.7
309.733	33.79
309.947	-13.31
310.161	21.5
310.374	3.07
310.588	117.76
310.802	5.12
311.016	19.46
311.23	27.65
311.444	-52.22
311.658	60.42
311.872	60.42
312.085	68.61
312.299	87.04
312.513	46.08
312.727	119.81
312.941	29.7
313.154	54.27
313.368	80.89
313.582	11.26
313.796	66.56
314.009	60.42
314.223	56.32
314.437	54.27
314.651	35.84
314.864	78.85
315.078	52.22
315.292	58.37
315.505	-13.31
315.719	66.56
315.933	33.79
316.146	74.75
316.36	-46.08
316.573	35.84
316.787	50.18
317.001	35.84
317.214	-9.22
317.428	52.22
317.641	-54.27
317.855	27.65
318.068	-37.89
318.282	91.13
318.495	134.14
318.709	33.79
318.922	62.46
319.136	41.98
319.349	97.28
319.563	35.84
319.776	103.42
319.99	37.89
320.203	-15.36
320.417	21.5
320.63	60.42
320.843	68.61
321.057	115.71
321.27	62.46
321.483	25.6
321.697	29.7
321.91	21.5
322.124	91.13
322.337	3.07
322.55	29.7
322.763	35.84
322.977	54.27
323.19	-35.84
323.403	-25.6
323.617	46.08
323.83	33.79
324.043	5.12
324.256	58.37
324.469	-29.7
324.683	3.07
324.896	66.56
325.109	52.22
325.322	35.84
325.535	37.89
325.748	89.09
325.962	-3.07
326.175	-7.17
326.388	21.5
326.601	123.9
326.814	41.98
327.027	68.61
327.24	99.33
327.453	25.6
327.666	99.33
327.879	78.85
328.092	13.31
328.305	44.03
328.518	-72.7
328.731	25.6
328.944	5.12
329.157	93.18
329.37	31.74
329.583	109.57
329.796	56.32
330.009	21.5
330.222	35.84
330.435	21.5
330.648	62.46
330.861	-27.65
331.073	-9.22
331.286	111.61
331.499	48.13
331.712	54.27
331.925	68.61
332.138	37.89
332.35	60.42
332.563	70.65
332.776	48.13
332.989	15.36
333.202	33.79
333.414	103.42
333.627	52.22
333.84	52.22
334.053	5.12
334.265	52.22
334.478	-31.74
334.691	111.61
334.903	99.33
335.116	50.18
335.329	27.65
335.541	70.65
335.754	64.51
335.966	-23.55
336.179	27.65
336.392	84.99
336.604	123.9
336.817	46.08
337.029	39.94
337.242	17.41
337.454	68.61
337.667	46.08
337.88	31.74
338.092	37.89
338.305	29.7
338.517	11.26
338.729	105.47
338.942	95.23
339.154	-5.12
339.367	39.94
339.579	78.85
339.792	-1.02
340.004	62.46
340.217	21.5
340.429	72.7
340.641	62.46
340.854	11.26
341.066	87.04
341.278	101.37
341.491	1.02
341.703	9.22
341.915	54.27
342.128	99.33
342.34	44.03
342.552	39.94
342.764	21.5
342.977	39.94
343.189	91.13
343.401	54.27
343.613	52.22
343.826	39.94
344.038	19.46
344.25	-13.31
344.462	-56.32
344.674	58.37
344.886	23.55
345.099	68.61
345.311	62.46
345.523	25.6
345.735	-44.03
345.947	35.84
346.159	54.27
346.371	56.32
346.583	91.13
346.795	103.42
347.007	21.5
347.219	21.5
347.431	54.27
347.643	70.65
347.855	33.79
348.067	5.12
348.279	27.65
348.491	-23.55
348.703	60.42
348.915	27.65
349.127	-60.42
349.339	3.07
349.551	123.9
349.763	97.28
349.975	87.04
350.187	93.18
350.399	25.6
350.61	5.12
350.822	15.36
351.034	52.22
351.246	50.18
351.458	15.36
351.669	21.5
351.881	29.7
352.093	103.42
352.305	21.5
352.517	105.47
352.728	-3.07
352.94	76.8
353.152	101.37
353.363	-35.84
353.575	19.46
353.787	37.89
353.999	78.85
354.21	121.85
354.422	19.46
354.633	39.94
354.845	72.7
355.057	111.61
355.268	66.56
355.48	58.37
355.692	78.85
355.903	119.81
356.115	7.17
356.326	25.6
356.538	93.18
356.749	68.61
356.961	148.48
357.172	13.31
357.384	66.56
357.595	87.04
357.807	39.94
358.018	27.65
358.23	91.13
358.441	46.08
358.653	54.27
358.864	56.32
359.075	-27.65
359.287	84.99
359.498	62.46
359.709	7.17
359.921	3.07
360.132	39.94
360.344	107.52
360.555	-11.26
360.766	19.46
360.977	97.28
361.189	60.42
361.4	17.41
361.611	84.99
361.823	76.8
362.034	107.52
362.245	11.26
362.456	29.7
362.667	91.13
362.879	-64.51
363.09	62.46
363.301	128
363.512	-21.5
363.723	41.98
363.935	33.79
364.146	56.32
364.357	13.31
364.568	125.95
364.779	17.41
364.99	23.55
365.201	-3.07
365.412	54.27
365.623	41.98
365.834	29.7
366.045	140.29
366.256	52.22
366.467	95.23
366.678	31.74
366.889	41.98
367.1	29.7
367.311	37.89
367.522	48.13
367.733	70.65
367.944	-7.17
368.155	78.85
368.366	111.61
368.577	95.23
368.788	87.04
368.999	66.56
369.209	19.46
369.42	48.13
369.631	148.48
369.842	33.79
370.053	13.31
370.264	84.99
370.474	-3.07
370.685	68.61
370.896	31.74
371.107	103.42
371.317	64.51
371.528	60.42
371.739	31.74
371.95	-19.46
372.16	78.85
372.371	-46.08
372.582	70.65
372.792	13.31
373.003	58.37
373.214	70.65
373.424	111.61
373.635	113.66
373.846	72.7
374.056	99.33
374.267	107.52
374.477	54.27
374.688	119.81
374.898	21.5
375.109	25.6
375.319	9.22
375.53	101.37
375.74	-21.5
375.951	68.61
376.161	74.75
376.372	78.85
376.582	41.98
376.793	117.76
377.003	13.31
377.214	52.22
377.424	95.23
377.635	31.74
377.845	35.84
378.055	119.81
378.266	-33.79
378.476	-5.12
378.686	101.37
378.897	-33.79
379.107	64.51
379.317	46.08
379.528	62.46
379.738	60.42
379.948	48.13
380.158	33.79
380.369	62.46
380.579	82.94
380.789	-31.74
380.999	66.56
381.21	17.41
381.42	91.13
381.63	-3.07
381.84	41.98
382.05	19.46
382.261	39.94
382.471	91.13
382.681	37.89
382.891	76.8
383.101	128
383.311	-15.36
383.521	41.98
383.731	173.05
383.941	121.85
384.151	11.26
384.361	37.89
384.571	25.6
384.781	150.53
384.991	37.89
385.201	72.7
385.411	107.52
385.621	103.42
385.831	68.61
386.041	54.27
386.251	21.5
386.461	123.9
386.671	48.13
386.881	-13.31
387.091	52.22
387.301	93.18
387.511	52.22
387.72	84.99
387.93	70.65
388.14	41.98
388.35	52.22
388.56	101.37
388.769	35.84
388.979	44.03
389.189	103.42
389.399	25.6
389.609	99.33
389.818	140.29
390.028	107.52
390.238	1.02
390.447	44.03
390.657	125.95
390.867	76.8
391.076	93.18
391.286	46.08
391.496	70.65
391.705	-19.46
391.915	113.66
392.125	189.44
392.334	23.55
392.544	91.13
392.753	123.9
392.963	111.61
393.172	105.47
393.382	68.61
393.591	68.61
393.801	128
394.01	152.57
394.22	54.27
394.429	54.27
394.639	101.37
394.848	56.32
395.058	115.71
395.267	111.61
395.477	93.18
395.686	91.13
395.895	95.23
396.105	82.94
396.314	72.7
396.524	107.52
396.733	89.09
396.942	111.61
397.152	52.22
397.361	78.85
397.57	54.27
397.78	123.9
397.989	171.01
398.198	158.72
398.407	82.94
398.617	103.42
398.826	130.05
399.035	70.65
399.244	158.72
399.453	160.77
399.663	162.81
399.872	107.52
400.081	101.37
400.29	166.91
400.499	138.24
400.708	158.72
400.917	109.57
401.127	89.09
401.336	101.37
401.545	166.91
401.754	175.1
401.963	144.38
402.172	130.05
402.381	93.18
402.59	111.61
402.799	173.05
403.008	240.64
403.217	138.24
403.426	154.62
403.635	101.37
403.844	205.82
404.053	115.71
404.262	156.67
404.471	162.81
404.68	166.91
404.888	197.63
405.097	232.44
405.306	148.48
405.515	209.92
405.724	242.68
405.933	152.57
406.142	150.53
406.35	171.01
406.559	166.91
406.768	134.14
406.977	275.45
407.185	250.88
407.394	240.64
407.603	207.87
407.812	201.72
408.02	283.64
408.229	232.44
408.438	226.3
408.646	263.16
408.855	300.03
409.064	234.49
409.272	257.02
409.481	293.88
409.69	250.88
409.898	252.92
410.107	345.08
410.315	390.14
410.524	308.22
410.733	371.71
410.941	347.13
411.15	441.34
411.358	435.19
411.567	418.81
411.775	461.82
411.984	439.29
412.192	527.35
412.401	359.42
412.609	586.74
412.818	541.69
413.026	549.88
413.234	617.46
413.443	586.74
413.651	584.7
413.86	592.89
414.068	607.22
414.276	689.14
414.485	615.41
414.693	711.67
414.901	736.24
415.11	726
415.318	865.27
415.526	807.92
415.734	963.57
415.943	963.57
416.151	920.56
416.359	910.32
416.567	959.47
416.776	1029.1
416.984	1090.54
417.192	1063.92
417.4	1090.54
417.608	1086.45
417.817	1188.85
418.025	1250.28
418.233	1364.97
418.441	1315.82
418.649	1420.27
418.857	1487.85
419.065	1479.66
419.273	1479.66
419.481	1506.28
419.689	1510.38
419.897	1635.3
420.105	1756.13
420.313	1713.13
420.521	1813.48
420.729	1827.81
420.937	2028.51
421.145	2071.52
421.353	2055.14
421.561	2198.49
421.769	2178.01
421.977	2231.26
422.185	2286.56
422.393	2419.68
422.601	2520.03
422.809	2626.52
423.017	2608.09
423.224	2583.51
423.432	2782.17
423.64	2753.49
423.848	3013.59
424.056	3005.39
424.263	3267.53
424.471	3206.1
424.679	3357.64
424.887	3464.14
425.094	3683.27
425.302	3556.3
425.51	3517.39
425.718	3722.18
425.925	3869.64
426.133	3961.8
426.341	4084.67
426.548	4336.57
426.756	4357.05
426.964	4455.36
427.171	4694.97
427.379	4903.86
427.586	4940.72
427.794	4950.96
428.001	5329.84
428.209	5524.4
428.417	5495.72
428.624	5917.61
428.832	5788.58
429.039	5753.77
429.247	5632.94
429.454	6394.78
429.662	6847.38
429.869	6230.94
430.076	6847.38
430.284	6708.12
430.491	6900.63
430.699	7349.14
430.906	7508.88
431.114	7482.25
431.321	7803.78
431.528	8035.21
431.736	8104.84
431.943	8577.92
432.15	8377.22
432.358	8684.41
432.565	8977.27
432.772	9012.09
432.979	9466.74
433.187	9425.78
433.394	9548.65
433.601	10261.35
433.808	10285.92
434.016	10240.87
434.223	10521.44
434.43	11197.27
434.637	11103.06
434.844	11551.57
435.052	11961.16
435.259	12006.22
435.466	11883.34
435.673	11776.84
435.88	12682.05
436.087	13288.25
436.294	13382.45
436.501	13075.26
436.708	13308.72
436.915	13693.74
437.122	14246.69
437.329	14091.05
437.537	14433.06
437.743	15004.44
437.95	14850.85
438.157	15684.37
438.364	16171.79
438.571	16067.34
438.778	16216.84
438.985	17781.49
439.192	16997.12
439.399	17519.35
439.606	17146.62
439.813	18064.11
440.02	19098.33
440.227	18498.28
440.433	18639.59
440.64	19442.39
440.847	18959.07
441.054	19618.52
441.261	21021.38
441.467	20660.93
441.674	20861.63
441.881	21922.48
442.088	21668.53
442.294	21347
442.501	22039.22
442.708	22553.26
442.914	23274.14
443.121	24146.58
443.328	23827.09
443.534	25385.6
443.741	24384.14
443.948	24251.02
444.154	25864.82
444.361	25959.03
444.568	26243.7
444.774	25952.88
444.981	26327.66
445.187	27097.7
445.394	28140.11
445.6	27822.68
445.807	30544.43
446.013	28963.4
446.22	29413.95
446.426	30827.05
446.633	31199.78
446.839	31992.34
447.046	30878.25
447.252	32526.86
447.459	32541.2
447.665	32471.57
447.871	33376.77
448.078	35119.59
448.284	33436.16
448.491	34228.73
448.697	35271.14
448.903	35887.58
449.11	36315.61
449.316	35424.74
449.522	36440.53
449.728	37247.43
449.935	36985.29
450.141	37243.34
450.347	38228.41
450.553	37190.09
450.76	37366.21
450.966	38748.59
451.172	38068.67
451.378	38996.4
451.584	38252.98
451.791	39299.5
451.997	39176.62
452.203	39453.09
452.409	39801.25
452.615	39418.28
452.821	37650.88
453.027	37597.63
453.233	39389.61
453.44	37839.29
453.646	38418.87
453.852	38152.63
454.058	39160.23
454.264	37521.86
454.47	38291.9
454.676	37138.89
454.882	38334.9
455.088	35437.03
455.294	35856.86
455.5	36264.41
455.705	36678.1
455.911	35342.82
456.117	34441.71
456.323	34232.82
456.529	32199.19
456.735	33384.96
456.941	32901.64
457.147	31769.12
457.352	31044.13
457.558	30773.8
457.764	30999.08
457.97	30628.4
458.176	29571.64
458.381	29534.78
458.587	28312.14
458.793	28217.94
458.999	26710.63
459.204	28785.22
459.41	27910.74
459.616	26172.02
459.821	26249.84
460.027	26278.51
460.233	25410.17
460.438	24160.91
460.644	24494.73
460.85	23777.94
461.055	22901.41
461.261	22817.44
461.466	21113.53
461.672	20501.19
461.878	22278.83
462.083	20597.45
462.289	20308.68
462.494	19995.34
462.7	19163.87
462.905	18658.02
463.111	19628.76
463.316	19286.75
463.522	19110.62
463.727	19104.48
463.932	19088.09
464.138	18871.01
464.343	18868.96
464.549	18119.4
464.754	19075.8
464.959	18688.74
465.165	18457.32
465.37	17926.89
465.575	17664.75
465.781	17996.53
465.986	18338.54
466.191	17576.69
466.397	17384.18
466.602	16446.21
466.807	17140.47
467.012	17015.55
467.218	16849.66
467.423	16802.56
467.628	17072.89
467.833	17621.75
468.038	17019.64
468.244	16171.79
468.449	16958.21
468.654	16462.6
468.859	16257.8
469.064	16126.73
469.269	15792.91
469.474	15524.63
469.679	16003.85
469.885	15557.39
470.09	15686.42
470.295	15487.76
470.5	15319.83
470.705	15373.08
470.91	14940.96
471.115	15192.86
471.32	15092.51
471.525	15051.55
471.73	14709.54
471.935	14431.01
472.139	13900.59
472.344	14347.05
472.549	14168.87
472.754	14177.06
472.959	13749.04
473.164	13605.68
473.369	13157.18
473.574	13929.26
473.778	13630.26
473.983	13703.98
474.188	13523.76
474.393	12806.97
474.598	12882.75
474.802	12716.86
475.007	12780.35
475.212	12667.71
475.417	12352.32
475.621	12186.44
475.826	12372.8
476.031	11907.91
476.235	11903.82
476.44	12075.85
476.645	11932.49
476.849	11854.67
477.054	11719.5
477.259	11400.02
477.463	11402.07
477.668	11037.53
477.872	11539.28
478.077	11098.97
478.282	10879.83
478.486	10814.3
478.691	10904.41
478.895	10627.93
479.1	10793.82
479.304	10589.02
479.509	10290.02
479.713	10591.07
479.918	10302.31
480.122	10171.24
480.326	10197.86
480.531	10199.91
480.735	10113.89
480.94	10171.24
481.144	10500.96
481.348	10025.83
481.553	10044.26
481.757	9945.96
481.961	9876.33
482.166	10249.06
482.37	10062.69
482.574	9907.05
482.778	9855.85
482.983	10310.5
483.187	10046.31
483.391	10060.65
483.595	10042.21
483.8	9876.33
484.004	9970.54
484.208	10038.12
484.412	10095.46
484.616	9976.68
484.821	10058.6
485.025	9911.14
485.229	10060.65
485.433	9991.02
485.637	9935.72
485.841	9888.62
486.045	10070.89
486.249	10029.93
486.453	9913.19
486.657	10206.05
486.861	10046.31
487.065	9886.57
487.269	9937.77
487.473	9804.65
487.677	9919.34
487.881	10351.46
488.085	10034.02
488.289	9999.21
488.493	9986.92
488.697	9978.73
488.901	10199.91
489.105	10206.05
489.309	10169.19
489.512	10156.9
489.716	10199.91
489.92	10156.9
490.124	10212.2
490.328	10283.88
490.531	10138.47
490.735	10183.52
490.939	10089.32
491.143	10412.9
491.346	10234.72
491.55	10617.69
491.754	10462.05
491.958	10589.02
492.161	10662.75
492.365	10693.47
492.569	10642.27
492.772	10500.96
492.976	10816.35
493.18	10709.85
493.383	10916.7
493.587	11064.15
493.79	11101.01
493.994	11096.92
494.197	10961.75
494.401	11350.87
494.605	11275.09
494.808	11379.54
495.012	11342.67
495.215	11563.86
495.419	11481.94
495.622	11668.3
495.825	11559.76
496.029	11832.14
496.232	12120.9
496.436	11858.76
496.639	12264.26
496.843	12110.66
497.046	12510.02
497.249	12661.57
497.453	12661.57
497.656	12854.08
497.859	12655.42
498.063	13011.77
498.266	13251.38
498.469	13144.89
498.673	13558.58
498.876	13556.53
499.079	13693.74
499.282	13486.9
499.485	13980.46
499.689	13957.93
499.892	14467.88
500.095	14058.28
500.298	14738.21
500.501	14478.12
500.705	14648.1
500.908	15080.22
501.111	15225.62
501.314	15164.18
501.517	15506.2
501.72	15547.15
501.923	15602.45
502.126	15893.26
502.329	16272.14
502.532	16347.91
502.735	16476.93
502.938	16843.52
503.141	16919.29
503.344	17048.32
503.547	17249.02
503.75	17427.19
503.953	17779.44
504.156	17791.73
504.359	17801.97
504.562	17808.11
504.765	18674.4
504.968	18567.91
505.17	18545.38
505.373	18879.2
505.576	19522.26
505.779	19669.72
505.982	19620.56
506.185	19858.13
506.387	19991.25
506.59	20155.08
506.793	20949.7
506.996	20148.94
507.198	21404.35
507.401	20970.18
507.604	21269.18
507.807	21750.45
508.009	21981.87
508.212	22053.55
508.415	22311.6
508.617	22516.39
508.82	22962.85
509.022	22608.55
509.225	23415.45
509.428	23304.86
509.63	23607.96
509.833	23743.13
510.035	24091.28
510.238	23937.68
510.44	24803.97
510.643	24998.53
510.845	25383.55
511.048	24812.17
511.25	25485.95
511.453	25735.8
511.655	26520.17
511.858	26147.44
512.06	26571.37
512.262	26628.71
512.465	26673.77
512.667	27071.07
512.87	27609.69
513.072	27685.47
513.274	28097.11
513.477	28289.62
513.679	28285.52
513.881	28912.2
514.084	29350.46
514.286	29481.53
514.488	29674.04
514.69	30325.3
514.893	30353.97
515.095	30726.7
515.297	30919.21
515.499	31068.71
515.701	31177.25
515.904	31668.76
516.106	31939.1
516.308	31996.44
516.51	32442.9
516.712	32823.82
516.914	32952.84
517.116	33563.14
517.318	33554.94
517.52	33602.05
517.722	33823.23
517.925	34476.53
518.127	34990.57
518.329	35197.41
518.531	34759.15
518.733	35676.64
518.935	36088.28
519.136	36082.14
519.338	36690.38
519.54	36694.48
519.742	36800.97
519.944	37429.7
520.146	37900.73
520.348	38179.26
520.55	38244.79
520.752	38490.55
520.954	39254.44
521.155	38695.35
521.357	39512.49
521.559	39745.95
521.761	40106.4
521.963	40014.24
522.164	40419.74
522.366	40677.78
522.568	40690.07
522.77	41134.48
522.971	41986.43
523.173	41687.43
523.375	41998.72
523.576	42342.78
523.778	42385.79
523.98	42776.95
524.181	42973.55
524.383	42762.61
524.584	43620.71
524.786	43422.06
524.988	43465.06
525.189	44245.34
525.391	44577.11
525.592	44659.03
525.794	44816.72
525.995	44460.38
526.197	44757.33
526.398	45209.93
526.6	45672.78
526.801	45701.45
527.003	45955.39
527.204	45967.68
527.406	46278.97
527.607	46577.98
527.808	46668.09
528.01	46061.89
528.211	46678.33
528.412	47194.42
528.614	47053.11
528.815	47266.09
529.016	47573.29
529.218	46764.34
529.419	47542.57
529.62	47479.08
529.822	47673.64
530.023	48085.28
530.224	47948.07
530.425	47890.73
530.626	47769.9
530.828	47886.63
531.029	48824.6
531.23	48224.54
531.431	48120.1
531.632	48498.97
531.833	48714.01
532.035	48904.47
532.236	48249.12
532.437	48722.2
532.638	48757.02
532.839	48615.71
533.04	49027.35
533.241	48496.92
533.442	49449.23
533.643	48836.89
533.844	49033.49
534.045	49002.77
534.246	49109.27
534.447	49193.23
534.648	48826.65
534.849	49256.72
535.05	48785.69
535.251	49416.46
535.451	48980.24
535.652	49770.76
535.853	49033.49
536.054	49522.96
536.255	49340.69
536.456	49068.31
536.657	50028.8
536.857	49123.6
537.058	49174.8
537.259	49592.59
537.46	49211.67
537.66	49336.59
537.861	49393.93
538.062	48883.99
538.263	49563.92
538.463	49420.56
538.664	49568.01
538.865	49512.72
539.065	49717.51
539.266	49207.57
539.466	49264.91
539.667	48873.75
539.868	49459.47
540.068	49490.19
540.269	49404.17
540.469	49092.88
540.67	49436.94
540.87	49144.08
541.071	49109.27
541.271	49275.15
541.472	49322.26
541.672	48918.81
541.873	49051.92
542.073	48521.5
542.274	49375.5
542.474	48836.89
542.675	48920.85
542.875	49088.79
543.075	49291.54
543.276	48445.72
543.476	49314.06
543.676	49039.64
543.877	48982.29
544.077	48767.26
544.277	48435.48
544.478	49121.55
544.678	49391.89
544.878	48787.74
545.078	48742.68
545.279	48845.08
545.479	48765.21
545.679	48924.95
545.879	48439.58
546.079	48947.48
546.28	48781.59
546.48	48627.99
546.68	49133.84
546.88	49092.88
547.08	49127.7
547.28	48429.34
547.48	48744.73
547.68	48750.87
547.88	48320.8
548.081	49107.22
548.281	48703.77
548.481	48240.93
548.681	48595.23
548.881	48507.16
549.081	48982.29
549.28	48304.41
549.48	48941.33
549.68	48486.68
549.88	49342.74
550.08	48451.87
550.28	48517.4
550.48	48578.84
550.68	48734.49
550.88	48625.95
551.08	48875.8
551.279	48152.87
551.479	48175.39
551.679	48480.54
551.879	48404.77
552.079	48570.65
552.278	48496.92
552.478	48308.51
552.678	48183.58
552.878	48404.77
553.077	48083.23
553.277	47687.98
553.477	48544.03
553.676	47999.27
553.876	48281.89
554.076	47831.33
554.275	47788.33
554.475	47735.08
554.674	48347.42
554.874	48212.26
555.074	47872.29
555.273	48283.94
555.473	47991.08
555.672	47434.03
555.872	47718.7
556.071	47956.26
556.271	47814.95
556.47	47446.32
556.67	47241.52
556.869	47429.93
557.068	47765.8
557.268	46973.24
557.467	47507.76
557.667	46989.62
557.866	47128.88
558.065	46973.24
558.265	47186.22
558.464	46668.09
558.663	47173.94
558.863	46545.21
559.062	47497.52
559.261	46610.74
559.461	47243.57
559.66	46346.56
559.859	47036.72
560.058	46311.74
560.258	47016.24
560.457	46174.53
560.656	46432.57
560.855	46303.55
561.054	46524.73
561.253	46143.81
561.453	46190.91
561.652	45902.15
561.851	46262.59
562.05	45932.87
562.249	45713.73
562.448	45961.54
562.647	45771.08
562.846	45797.7
563.045	45328.72
563.244	45175.12
563.443	46047.55
563.642	44923.22
563.841	45193.55
564.04	44786
564.239	45298
564.438	44677.46
564.637	44601.69
564.836	45019.47
565.035	44706.13
565.234	44867.92
565.432	44693.85
565.631	44247.39
565.83	44591.45
566.029	43952.48
566.228	44200.29
566.427	44095.84
566.625	43645.29
566.824	43338.09
567.023	44013.92
567.222	42807.67
567.42	43823.46
567.619	43338.09
567.818	43190.64
568.016	43127.15
568.215	43186.54
568.414	42551.67
568.612	43307.37
568.811	42432.89
569.01	42797.43
569.208	42217.85
569.407	42633.59
569.605	41904.51
569.804	42465.66
570.002	42146.17
570.201	42449.27
570.4	42097.02
570.598	42023.29
570.797	41486.73
570.995	41922.94
571.193	40978.83
571.392	41744.77
571.59	41214.35
571.789	41339.27
571.987	41136.52
572.186	41204.11
572.384	41077.13
572.582	41146.76
572.781	40886.67
572.979	40479.13
573.177	40690.07
573.376	40157.6
573.574	40016.29
573.772	40556.95
573.971	40122.78
574.169	40163.74
574.367	39885.22
574.565	40556.95
574.763	39537.06
574.962	39899.55
575.16	39451.05
575.358	39494.05
575.556	39217.58
575.754	39528.87
575.952	38955.44
576.151	39356.84
576.349	38678.96
576.547	38623.67
576.745	38836.66
576.943	38830.51
577.141	38429.11
577.339	38713.78
577.537	38476.21
577.735	38293.94
577.933	38117.82
578.131	38042.04
578.329	37769.66
578.527	37724.61
578.725	37861.82
578.923	37929.41
579.121	37552.58
579.319	37052.87
579.516	37579.2
579.714	37458.37
579.912	37566.91
580.11	37218.76
580.308	37380.55
580.506	37073.35
580.704	36471.25
580.901	36577.75
581.099	37042.63
581.297	36647.38
581.495	36364.76
581.692	36592.08
581.89	36231.64
582.088	36485.59
582.285	35940.83
582.483	36219.35
582.681	36125.14
582.878	36096.47
583.076	35930.59
583.274	35979.74
583.471	35574.24
583.669	35723.74
583.866	35301.86
584.064	35529.19
584.262	34890.22
584.459	35537.38
584.657	35336.68
584.854	35015.15
585.052	34404.85
585.249	35127.78
585.447	34775.53
585.644	34447.86
585.841	34642.42
586.039	35006.95
586.236	34257.4
586.434	34372.08
586.631	33909.24
586.828	34187.77
587.026	34355.7
587.223	34019.83
587.42	33698.3
587.618	33522.18
587.815	33356.29
588.012	33749.5
588.21	33565.18
588.407	33714.69
588.604	33161.73
588.801	33071.62
588.999	32948.75
589.196	33124.87
589.393	32932.36
589.59	32782.86
589.787	32670.22
589.984	32432.66
590.182	32397.84
590.379	32856.59
590.576	32201.24
590.773	32389.65
590.97	31885.85
591.167	32320.02
591.364	31504.93
591.561	32135.7
591.758	31748.64
591.955	31468.06
592.152	31914.52
592.349	31203.88
592.546	31775.26
592.743	31355.43
592.94	30788.14
593.137	31361.57
593.334	31070.76
593.531	30640.68
593.727	30915.11
593.924	30954.02
594.121	30329.39
594.318	31109.67
594.515	30169.65
594.712	30689.84
594.908	30210.61
595.105	30351.92
595.302	30251.57
595.499	30151.22
595.696	30112.31
595.892	29844.02
596.089	30001.72
596.286	29786.68
596.482	29968.95
596.679	29872.7
596.876	29643.32
597.072	29239.87
597.269	29661.76
597.466	29215.3
597.662	29297.22
597.859	29106.76
598.055	29379.14
598.252	29059.65
598.448	28856.9
598.645	28572.24
598.841	28660.3
599.038	28445.26
599.234	28414.54
599.431	28484.17
599.627	28168.79
599.824	28564.04
600.02	28346.96
600.217	28324.43
600.413	28109.4
600.609	27812.44
600.806	27753.05
601.002	27691.61
601.198	27714.14
601.395	27640.41
601.591	27556.44
601.787	27435.61
601.984	27140.71
602.18	27777.62
602.376	27171.43
602.572	27064.93
602.769	26911.33
602.965	26659.43
603.161	26925.67
603.357	27036.26
603.553	26698.34
603.75	26827.37
603.946	26466.92
604.142	26878.57
604.338	26356.33
604.534	26462.83
604.73	26174.06
604.926	26360.43
605.122	26255.98
605.318	26110.58
605.514	26235.5
605.71	25821.81
605.906	25780.85
606.102	25789.05
606.298	25774.71
606.494	25680.5
606.69	25639.54
606.886	25412.22
607.082	25232
607.278	25160.32
607.474	25041.54
607.67	25205.38
607.866	24873.6
608.062	25358.97
608.257	24918.66
608.453	24920.71
608.649	25031.3
608.845	24808.07
609.041	24930.95
609.236	24730.25
609.432	24412.81
609.628	24685.19
609.824	24398.48
610.019	24535.69
610.215	24519.31
610.411	24449.67
610.606	24185.49
610.802	24584.84
610.998	24459.91
611.193	24539.79
611.389	23898.77
611.584	24076.94
611.78	23898.77
611.976	23999.12
612.171	23698.07
612.367	23876.24
612.562	23968.4
612.758	23509.66
612.953	23259.81
613.149	23790.23
613.344	23446.17
613.539	23794.32
613.735	23530.14
613.93	23712.41
614.126	23509.66
614.321	23581.34
614.517	23235.23
614.712	23425.69
614.907	23106.21
615.103	23429.79
615.298	23241.37
615.493	23161.5
615.688	22868.64
615.884	23538.33
616.079	22928.03
616.274	23145.12
616.47	22956.71
616.665	22772.39
616.86	22880.93
617.055	22635.17
617.25	22669.99
617.445	22803.11
617.641	22174.38
617.836	22522.54
618.031	22135.47
618.226	22502.06
618.421	22219.44
618.616	22266.54
618.811	22127.28
619.006	22082.22
619.201	21959.34
619.396	22100.65
619.591	21482.17
619.786	22158
619.981	21856.95
620.176	21682.87
620.371	21383.87
620.566	21232.32
620.761	21412.54
620.956	21338.81
621.151	21066.43
621.346	21183.16
621.541	20865.73
621.735	20959.94
621.93	20607.69
622.125	20574.92
622.32	20181.71
622.515	20660.93
622.709	20187.85
622.904	20431.56
623.099	20247.24
623.294	20077.26
623.488	19792.59
623.683	20181.71
623.878	19614.42
624.072	19639
624.267	19606.23
624.462	19585.75
624.656	19327.71
624.851	19469.01
625.046	19247.83
625.24	19010.27
625.435	18871.01
625.629	18490.09
625.824	18803.43
626.018	18809.57
626.213	18193.13
626.407	18580.2
626.602	18129.64
626.796	18371.3
626.991	18361.06
627.185	18064.11
627.38	17629.94
627.574	17855.22
627.768	17744.63
627.963	17668.85
628.157	17314.55
628.352	17586.93
628.546	17054.46
628.74	17525.49
628.935	16958.21
629.129	17046.27
629.323	17044.22
629.517	16945.92
629.712	16628.48
629.906	16792.32
630.1	16661.25
630.294	16722.69
630.489	16429.83
630.683	16249.61
630.877	16194.31
631.071	16210.7
631.265	16179.98
631.459	16059.15
631.653	15758.1
631.848	15909.65
632.042	15754
632.236	15958.8
632.43	15672.08
632.624	15575.83
632.818	15373.08
633.012	15352.6
633.206	15246.1
633.4	15307.54
633.594	15145.75
633.788	14830.37
633.982	14965.53
634.176	14981.92
634.369	14865.18
634.563	14578.47
634.757	14451.49
634.951	14441.25
635.145	14289.7
635.339	14316.33
635.533	14404.39
635.726	14230.31
635.92	14013.23
636.114	14039.85
636.308	13896.49
636.501	13945.64
636.695	13790
636.889	13740.85
637.083	13429.56
637.276	13540.15
637.47	13435.7
637.664	13349.68
637.857	13396.79
638.051	13306.68
638.244	13404.98
638.438	12862.27
638.632	13198.13
638.825	12837.69
639.019	13001.53
639.212	12659.52
639.406	12804.92
639.599	12569.41
639.793	12555.07
639.986	12274.5
640.18	12518.21
640.373	12555.07
640.567	12591.94
640.76	12075.85
640.954	12274.5
641.147	12182.34
641.34	12243.78
641.534	11934.54
641.727	11926.35
641.92	11881.29
642.114	11836.24
642.307	11680.59
642.5	11707.21
642.694	11543.38
642.887	11565.9
643.08	11772.75
643.273	11492.18
643.467	11416.4
643.66	11127.64
643.853	11246.42
644.046	11199.32
644.239	11062.1
644.432	10840.92
644.626	11090.77
644.819	10885.98
645.012	10933.08
645.205	10847.07
645.398	10824.54
645.591	10584.93
645.784	10507.1
645.977	10576.73
646.17	10300.26
646.363	10261.35
646.556	10328.93
646.749	10271.59
646.942	10308.45
647.135	10056.55
647.328	10285.92
647.521	10023.78
647.714	10038.12
647.907	10052.45
648.099	10050.41
648.292	10062.69
648.485	9902.95
648.678	9581.42
648.871	9687.92
649.064	9859.95
649.256	9585.52
649.449	9388.91
649.642	9569.13
649.835	9362.29
650.027	9438.06
650.22	9302.9
650.413	9624.43
650.605	9317.23
650.798	9169.78
650.991	9102.2
651.183	8895.35
651.376	9067.38
651.568	9018.23
651.761	8979.32
651.954	8819.58
652.146	8915.83
652.339	9057.14
652.531	8780.67
652.724	8688.51
652.916	8563.58
653.109	8690.56
653.301	8487.81
653.494	8573.82
653.686	8565.63
653.879	8452.99
654.071	8240
654.263	8354.69
654.456	8151.94
654.648	8170.37
654.84	8143.75
655.033	8196.99
655.225	8082.31
655.417	7850.89
655.61	8096.64
655.802	8006.53
655.994	8082.31
656.186	7943.05
656.379	7984.01
656.571	7766.92
656.763	7603.08
656.955	7664.52
657.148	7840.65
657.34	7744.39
657.532	7429.01
657.724	7441.29
657.916	7537.55
658.108	7566.22
658.3	7572.36
658.492	7510.93
658.684	7179.15
658.876	7287.7
659.068	7353.23
659.26	7261.07
659.452	7263.12
659.644	7361.42
659.836	7259.03
660.028	7007.13
660.22	6970.26
660.412	7046.04
660.604	6935.45
660.796	6976.41
660.988	6908.82
661.18	6925.21
661.372	6820.76
661.563	7011.22
661.755	6661.02
661.947	6800.28
662.139	6618.01
662.331	6648.73
662.522	6708.12
662.714	6536.09
662.906	6597.53
663.097	6536.09
663.289	6472.61
663.481	6325.15
663.673	6454.17
663.864	6607.77
664.056	6271.9
664.247	6366.11
664.439	6140.83
664.631	6189.99
664.822	6261.66
665.014	6329.25
665.205	6118.31
665.397	6052.77
665.588	6114.21
665.78	6085.54
665.971	6099.87
666.163	6187.94
666.354	6046.63
666.546	5927.85
666.737	5837.73
666.929	5950.37
667.12	5915.56
667.311	5884.84
667.503	5827.5
667.694	5870.5
667.885	5733.29
668.077	5743.53
668.268	5680.04
668.459	5675.95
668.651	5667.75
668.842	5690.28
669.033	5604.27
669.224	5641.13
669.416	5770.15
669.607	5673.9
669.798	5417.9
669.989	5524.4
670.18	5626.79
670.371	5438.38
670.563	5520.3
670.754	5485.48
670.945	5389.23
671.136	5372.85
671.327	5417.9
671.518	5354.41
671.709	5548.97
671.9	5313.45
672.091	5381.04
672.282	5229.49
672.473	5217.2
672.664	5245.87
672.855	5258.16
673.046	5278.64
673.237	5198.77
673.428	5419.95
673.619	5370.8
673.809	5313.45
674	5116.85
674.191	5260.21
674.382	5065.65
674.573	5206.96
674.764	5028.79
674.954	5151.67
675.145	4903.86
675.336	5006.26
675.527	4881.33
675.717	5065.65
675.908	5084.08
676.099	4981.68
676.289	4985.78
676.48	4965.3
676.671	4981.68
676.861	4985.78
677.052	4887.48
677.243	4838.33
677.433	4846.52
677.624	4901.81
677.814	4922.29
678.005	4897.72
678.195	4883.38
678.386	4914.1
678.576	4817.85
678.767	4688.82
678.957	4807.61
679.148	4912.05
679.338	4905.91
679.529	4934.58
679.719	4740.02
679.909	4897.72
680.1	4844.47
680.29	4731.83
680.481	4555.71
680.671	4819.89
680.861	4520.89
681.052	4842.42
681.242	4910.01
681.432	4922.29
681.622	4707.26
681.813	4539.32
682.003	4805.56
682.193	4617.15
682.383	4789.17
682.573	4946.87
682.764	4645.82
682.954	4733.88
683.144	4760.5
683.334	4768.7
683.524	4651.96
683.714	4787.13
683.904	4721.59
684.094	4594.62
684.284	4682.68
684.474	4707.26
684.664	4660.15
684.854	4778.94
685.044	4674.49
685.234	4672.44
685.424	4600.76
685.614	4531.13
685.804	4584.38
685.994	4574.14
686.184	4488.12
686.374	4475.84
686.564	4400.06
686.753	4551.61
686.943	4465.6
687.133	4533.18
687.323	4381.63
687.513	4342.72
687.702	4463.55
687.892	4541.37
688.082	4344.77
688.272	4365.25
688.461	4488.12
688.651	4445.12
688.841	4197.31
689.03	4373.44
689.22	4275.13
689.41	4320.19
689.599	4160.45
689.789	4273.09
689.979	4223.94
690.168	4215.74
690.358	4082.63
690.547	4139.97
690.737	4072.39
690.926	4056
691.116	4006.85
691.305	4107.2
691.495	4002.75
691.684	4025.28
691.874	4008.9
692.063	4002.75
692.252	4094.91
692.442	4017.09
692.631	4101.06
692.82	3996.61
693.01	4205.5
693.199	3918.79
693.388	3957.7
693.578	3953.6
693.767	4043.71
693.956	3888.07
694.146	3847.11
694.335	3898.31
694.524	3847.11
694.713	3918.79
694.902	3886.02
695.092	3953.6
695.281	3765.19
695.47	3867.59
695.659	3804.1
695.848	3873.73
696.037	3830.73
696.226	3879.88
696.415	3705.8
696.604	3728.33
696.793	3933.12
696.982	3802.05
697.171	3738.57
697.36	3816.39
697.549	3861.45
697.738	3693.51
697.927	3630.02
698.116	3746.76
698.305	3820.49
698.494	3908.55
698.683	3634.12
698.872	3896.26
699.061	3718.09
699.25	3644.36
699.438	3795.91
699.627	3640.26
699.816	3703.75
700.005	3646.41
700.193	3691.46
700.382	3679.18
700.571	3615.69
700.76	3578.83
700.948	3738.57
701.137	3537.87
701.326	3738.57
701.514	3552.2
701.703	3691.46
701.892	3683.27
702.08	3697.61
702.269	3593.16
702.457	3617.74
702.646	3695.56
702.834	3564.49
703.023	3601.35
703.212	3625.93
703.4	3650.5
703.589	3736.52
703.777	3535.82
703.965	3552.2
704.154	3578.83
704.342	3580.87
704.531	3593.16
704.719	3580.87
704.907	3638.22
705.096	3574.73
705.284	3615.69
705.472	3673.03
705.661	3664.84
705.849	3492.81
706.037	3478.47
706.226	3675.08
706.414	3449.8
706.602	3609.54
706.79	3482.57
706.979	3564.49
707.167	3570.63
707.355	3478.47
707.543	3617.74
707.731	3597.26
707.919	3505.1
708.107	3552.2
708.296	3576.78
708.484	3576.78
708.672	3656.65
708.86	3519.43
709.048	3648.46
709.236	3580.87
709.424	3625.93
709.612	3584.97
709.8	3494.86
709.988	3460.04
710.176	3636.17
710.364	3658.7
710.551	3613.64
710.739	3617.74
710.927	3511.24
711.115	3445.71
711.303	3441.61
711.491	3429.32
711.679	3550.15
711.866	3511.24
712.054	3550.15
712.242	3492.81
712.43	3560.39
712.617	3513.29
712.805	3488.71
712.993	3468.24
713.181	3617.74
713.368	3593.16
713.556	3533.77
713.744	3605.45
713.931	3591.11
714.119	3494.86
714.306	3466.19
714.494	3531.72
714.682	3535.82
714.869	3533.77
715.057	3578.83
715.244	3462.09
715.432	3529.67
715.619	3574.73
715.807	3437.52
715.994	3494.86
716.182	3556.3
716.369	3421.13
716.556	3707.85
716.744	3468.24
716.931	3412.94
717.119	3519.43
717.306	3523.53
717.493	3484.62
717.681	3386.32
717.868	3728.33
718.055	3468.24
718.242	3609.54
718.43	3488.71
718.617	3525.58
718.804	3556.3
718.991	3527.63
719.179	3548.11
719.366	3427.28
719.553	3558.35
719.74	3441.61
719.927	3417.04
720.114	3558.35
720.301	3466.19
720.488	3462.09
720.676	3564.49
720.863	3421.13
721.05	3505.1
721.237	3365.84
721.424	3556.3
721.611	3318.73
721.798	3406.8
721.985	3439.56
722.172	3355.6
722.358	3498.95
722.545	3374.03
722.732	3423.18
722.919	3492.81
723.106	3288.01
723.293	3451.85
723.48	3355.6
723.667	3396.56
723.853	3312.59
724.04	3472.33
724.227	3462.09
724.414	3371.98
724.6	3345.36
724.787	3324.88
724.974	3445.71
725.161	3451.85
725.347	3363.79
725.534	3404.75
725.72	3275.73
725.907	3349.45
726.094	3337.17
726.28	3468.24
726.467	3337.17
726.653	3425.23
726.84	3386.32
727.027	3484.62
727.213	3417.04
727.4	3433.42
727.586	3371.98
727.773	3355.6
727.959	3277.77
728.145	3263.44
728.332	3195.86
728.518	3376.08
728.705	3212.24
728.891	3337.17
729.077	3318.73
729.264	3220.43
729.45	3269.58
729.636	3363.79
729.823	3429.32
730.009	3277.77
730.195	3261.39
730.382	3419.08
730.568	3263.44
730.754	3353.55
730.94	3339.21
731.126	3382.22
731.313	3118.03
731.499	3324.88
731.685	3273.68
731.871	3279.82
732.057	3359.69
732.243	3302.35
732.429	3285.97
732.615	3300.3
732.801	3245.01
732.987	3195.86
733.173	3273.68
733.359	3300.3
733.545	3310.54
733.731	3204.05
733.917	3341.26
734.103	3204.05
734.289	3171.28
734.475	3175.38
734.661	3273.68
734.847	3195.86
735.033	3236.81
735.219	3115.98
735.404	3181.52
735.59	3113.94
735.776	3099.6
735.962	3089.36
736.148	3185.62
736.333	3136.46
736.519	3011.54
736.705	3181.52
736.89	3075.03
737.076	3214.29
737.262	3011.54
737.447	3120.08
737.633	3079.12
737.819	3118.03
738.004	2974.67
738.19	2954.19
738.375	3015.63
738.561	3038.16
738.747	3093.46
738.932	2978.77
739.118	3124.18
739.303	3087.31
739.489	3101.65
739.674	3032.02
739.859	2960.34
740.045	2976.72
740.23	2999.25
740.416	2933.72
740.601	2806.74
740.786	2896.85
740.972	2894.8
741.157	2800.6
741.342	2702.29
741.528	2968.53
741.713	2911.19
741.898	2866.13
742.084	2937.81
742.269	2900.95
742.454	2778.07
742.639	2823.12
742.824	2747.35
743.01	2827.22
743.195	2812.89
743.38	2884.56
743.565	2745.3
743.75	2810.84
743.935	2591.7
744.12	2806.74
744.305	2612.18
744.49	2792.41
744.675	2659.29
744.86	2671.58
745.045	2632.66
745.23	2675.67
745.415	2606.04
745.6	2681.82
745.785	2560.98
745.97	2634.71
746.155	2597.85
746.34	2630.62
746.525	2579.42
746.71	2548.7
746.895	2376.67
747.079	2567.13
747.264	2470.87
747.449	2477.02
747.634	2546.65
747.819	2577.37
748.003	2403.29
748.188	2421.72
748.373	2386.91
748.557	2401.24
748.742	2376.67
748.927	2266.08
749.111	2294.75
749.296	2292.7
749.481	2331.61
749.665	2378.72
749.85	2278.37
750.034	2198.49
750.219	2198.49
750.404	2030.56
750.588	2198.49
750.773	2051.04
750.957	2223.07
751.141	2147.3
751.326	2102.24
751.51	2126.82
751.695	2003.94
751.879	2036.7
752.064	2137.06
752.248	2108.38
752.432	2053.09
752.617	2038.75
752.801	2085.86
752.985	2067.42
753.17	1903.59
753.354	2048.99
753.538	1868.77
753.722	1864.68
753.907	1981.41
754.091	1844.2
754.275	1801.19
754.459	1805.28
754.643	1848.29
754.828	1829.86
755.012	1895.4
755.196	1772.52
755.38	1770.47
755.564	1743.85
755.748	1754.09
755.932	1827.81
756.116	1758.18
756.3	1760.23
756.484	1782.76
756.668	1692.65
756.852	1678.31
757.036	1680.36
757.22	1700.84
757.404	1694.69
757.588	1623.02
757.772	1745.89
757.956	1684.45
758.14	1614.82
758.323	1590.25
758.507	1575.91
758.691	1672.17
758.875	1627.11
759.059	1594.34
759.242	1549.29
759.426	1539.05
759.61	1547.24
759.794	1565.67
759.977	1522.66
760.161	1569.77
760.345	1537
760.528	1528.81
760.712	1446.89
760.895	1465.32
761.079	1485.8
761.263	1506.28
761.446	1364.97
761.63	1461.23
761.813	1401.83
761.997	1416.17
762.18	1512.42
762.364	1434.6
762.547	1315.82
762.731	1442.79
762.914	1440.75
763.098	1434.6
763.281	1356.78
763.464	1258.48
763.648	1373.16
763.831	1387.5
764.015	1373.16
764.198	1360.88
764.381	1367.02
764.564	1324.01
764.748	1307.63
764.931	1321.96
765.114	1385.45
765.297	1309.68
765.481	1324.01
765.664	1291.24
765.847	1270.76
766.03	1381.35
766.213	1211.37
766.397	1254.38
766.58	1184.75
766.763	1209.33
766.946	1192.94
767.129	1225.71
767.312	1166.32
767.495	1197.04
767.678	1158.13
767.861	1256.43
768.044	1250.28
768.227	1256.43
768.41	1207.28
768.593	1225.71
768.776	1192.94
768.959	1137.65
769.142	1108.98
769.324	1184.75
769.507	1127.41
769.69	1139.69
769.873	1178.61
770.056	1246.19
770.239	1137.65
770.421	1197.04
770.604	1147.89
770.787	1158.13
770.97	1178.61
771.152	1080.3
771.335	1074.16
771.518	1043.44
771.7	1145.84
771.883	1086.45
772.066	1070.06
772.248	1047.54
772.431	1078.26
772.613	1192.94
772.796	1037.3
772.978	910.32
773.161	1041.39
773.343	1002.48
773.526	986.1
773.708	877.55
773.891	898.03
774.073	977.91
774.256	914.42
774.438	922.61
774.621	953.33
774.803	916.47
774.985	969.71
775.168	1041.39
775.35	951.28
775.532	855.03
775.715	941.04
775.897	977.91
776.079	922.61
776.261	955.38
776.444	887.79
776.626	875.51
776.808	893.94
776.99	787.44
777.173	1000.43
777.355	871.41
777.537	930.8
777.719	865.27
777.901	877.55
778.083	787.44
778.265	775.16
778.447	875.51
778.629	824.31
778.811	863.22
778.993	812.02
779.175	865.27
779.357	705.53
779.539	807.92
779.721	871.41
779.903	789.49
780.085	861.17
780.267	758.77
780.449	832.5
780.631	683
780.812	797.68
780.994	699.38
781.176	705.53
781.358	742.39
781.54	764.92
781.721	707.57
781.903	752.63
782.085	652.28
782.267	705.53
782.448	689.14
782.63	660.47
782.812	654.33
782.993	654.33
783.175	609.27
783.357	562.17
783.538	582.65
783.72	650.23
783.901	672.76
784.083	670.71
784.264	650.23
784.446	635.89
784.627	558.07
784.809	568.31
784.99	621.56
785.172	572.41
785.353	562.17
785.535	525.3
785.716	543.74
785.897	533.5
786.079	599.03
786.26	592.89
786.441	590.84
786.623	500.73
786.804	486.39
786.985	601.08
787.167	527.35
787.348	566.26
787.529	484.34
787.71	582.65
787.891	562.17
788.073	470.01
788.254	496.63
788.435	539.64
788.616	558.07
788.797	447.48
788.978	545.78
789.159	492.54
789.34	476.15
789.522	482.3
789.703	467.96
789.884	451.58
790.065	537.59
790.246	439.29
790.427	406.52
790.607	502.78
790.788	441.34
790.969	420.86
791.15	517.11
791.331	408.57
791.512	418.81
791.693	427
791.874	439.29
792.054	379.9
792.235	500.73
792.416	455.67
792.597	433.15
792.778	431.1
792.958	408.57
793.139	394.23
793.32	392.19
793.5	381.95
793.681	388.09
793.862	396.28
794.042	349.18
794.223	406.52
794.404	375.8
794.584	332.79
794.765	379.9
794.945	400.38
795.126	441.34
795.306	398.33
795.487	365.56
795.667	453.63
795.848	369.66
796.028	379.9
796.209	414.71
796.389	424.95
796.57	457.72
796.75	365.56
796.93	394.23
797.111	377.85
797.291	332.79
797.471	316.41
797.652	318.46
797.832	332.79
798.012	410.62
798.192	388.09
798.373	306.17
798.553	332.79
798.733	410.62
798.913	336.89
799.093	365.56
799.274	326.65
799.454	347.13
799.634	381.95
799.814	363.51
799.994	271.36
800.174	347.13
800.354	310.27
800.534	279.55
800.714	365.56
800.894	373.75
801.074	267.26
801.254	322.56
801.434	349.18
801.614	287.74
801.794	334.84
801.974	809.97
802.154	275.45
802.334	240.64
802.514	308.22
802.693	232.44
802.873	304.12
803.053	279.55
803.233	289.79
803.413	271.36
803.592	340.99
803.772	300.03
803.952	297.98
804.131	283.64
804.311	338.94
804.491	332.79
804.67	312.32
804.85	314.36
805.03	281.6
805.209	355.32
805.389	289.79
805.568	318.46
805.748	277.5
805.928	203.77
806.107	267.26
806.287	259.07
806.466	316.41
806.646	214.01
806.825	277.5
807.004	293.88
807.184	279.55
807.363	236.54
807.543	185.34
807.722	222.2
807.901	252.92
808.081	287.74
808.26	234.49
808.439	181.25
808.619	177.15
808.798	142.33
808.977	201.72
809.156	267.26
809.336	259.07
809.515	300.03
809.694	214.01
809.873	246.78
810.052	205.82
810.231	197.63
810.411	326.65
810.59	209.92
810.769	211.96
810.948	246.78
811.127	189.44
811.306	209.92
811.485	250.88
811.664	238.59
811.843	295.93
812.022	226.3
812.201	177.15
812.38	218.11
812.559	222.2
812.737	242.68
812.916	132.09
813.095	211.96
813.274	226.3
813.453	195.58
813.632	234.49
813.811	193.53
813.989	209.92
814.168	238.59
814.347	136.19
814.526	207.87
814.704	136.19
814.883	252.92
815.062	111.61
815.24	328.7
815.419	195.58
815.598	205.82
815.776	175.1
815.955	187.39
816.133	78.85
816.312	216.06
816.49	166.91
816.669	160.77
816.847	87.04
817.026	191.49
817.204	142.33
817.383	175.1
817.561	191.49
817.74	187.39
817.918	177.15
818.097	232.44
818.275	148.48
818.453	134.14
818.632	109.57
818.81	179.2
818.988	175.1
819.167	154.62
819.345	156.67
819.523	224.25
819.701	214.01
819.879	154.62
820.058	152.57
820.236	156.67
820.414	105.47
820.592	156.67
820.77	191.49
820.948	193.53
821.127	173.05
821.305	166.91
821.483	136.19
821.661	64.51
821.839	171.01
822.017	154.62
822.195	95.23
822.373	160.77
822.551	181.25
822.729	185.34
822.907	82.94
823.085	140.29
823.262	74.75
823.44	87.04
823.618	117.76
823.796	181.25
823.974	62.46
824.152	105.47
824.329	156.67
824.507	103.42
824.685	136.19
824.863	173.05
825.04	58.37
825.218	160.77
825.396	132.09
825.574	156.67
825.751	103.42
825.929	119.81
826.107	171.01
826.284	130.05
826.462	132.09
826.639	93.18
826.817	156.67
826.994	156.67
827.172	27.65
827.349	195.58
827.527	115.71
827.704	101.37
827.882	117.76
828.059	152.57
828.237	84.99
828.414	140.29
828.591	148.48
828.769	111.61
828.946	136.19
829.124	119.81
829.301	132.09
829.478	193.53
829.655	37.89
829.833	146.43
830.01	50.18
830.187	121.85
830.364	95.23
830.542	148.48
830.719	87.04
830.896	60.42
831.073	156.67
831.25	130.05
831.427	121.85
831.604	181.25
831.782	82.94
831.959	107.52
832.136	60.42
832.313	154.62
832.49	35.84
832.667	54.27
832.844	46.08
833.021	181.25
833.198	72.7
833.374	70.65
833.551	80.89
833.728	82.94
833.905	189.44
834.082	99.33
834.259	113.66
834.436	84.99
834.612	97.28
834.789	89.09
834.966	46.08
835.143	99.33
835.319	95.23
835.496	70.65
835.673	58.37
835.85	76.8
836.026	17.41
836.203	166.91
836.38	-27.65
836.556	80.89
836.733	87.04
836.909	99.33
837.086	1.02
837.262	70.65
837.439	80.89
837.616	-9.22
837.792	37.89
837.968	107.52
838.145	89.09
838.321	156.67
838.498	54.27
838.674	101.37
838.851	111.61
839.027	93.18
839.203	66.56
839.38	128
839.556	97.28
839.732	142.33
839.909	140.29
840.085	95.23
840.261	29.7
840.437	48.13
840.614	37.89
840.79	50.18
840.966	74.75
841.142	91.13
841.318	21.5
841.494	76.8
841.671	68.61
841.847	117.76
842.023	130.05
842.199	25.6
842.375	93.18
842.551	62.46
842.727	35.84
842.903	64.51
843.079	13.31
843.255	152.57
843.431	76.8
843.607	87.04
843.783	33.79
843.959	101.37
844.134	70.65
844.31	46.08
844.486	44.03
844.662	3.07
844.838	35.84
845.013	23.55
845.189	128
845.365	37.89
845.541	111.61
845.716	58.37
845.892	50.18
846.068	13.31
846.244	-11.26
846.419	37.89
846.595	52.22
846.77	9.22
846.946	105.47
847.122	48.13
847.297	27.65
847.473	91.13
847.648	72.7
847.824	70.65
847.999	123.9
848.175	72.7
848.35	87.04
848.526	113.66
848.701	70.65
848.876	1.02
849.052	23.55
849.227	1.02
849.403	101.37
849.578	41.98
849.753	15.36
849.929	52.22
850.104	-60.42
850.279	103.42
850.454	48.13
850.63	87.04
850.805	37.89
850.98	89.09
851.155	5.12
851.33	-50.18
851.505	13.31
851.681	21.5
851.856	-1.02
852.031	41.98
852.206	11.26
852.381	68.61
852.556	60.42
852.731	58.37
852.906	-37.89
853.081	44.03
853.256	80.89
853.431	15.36
853.606	-27.65
853.781	44.03
853.956	-58.37
854.131	54.27
854.305	64.51
854.48	29.7
854.655	9.22
854.83	27.65
855.005	31.74
855.18	80.89
855.354	54.27
855.529	-13.31
855.704	-19.46
855.879	66.56
856.053	54.27
856.228	62.46
856.403	58.37
856.577	62.46
856.752	-19.46
856.926	11.26
857.101	-25.6
857.276	56.32
857.45	19.46
857.625	29.7
857.799	31.74
857.974	17.41
858.148	-25.6
858.323	62.46
858.497	44.03
858.672	33.79
858.846	44.03
859.02	140.29
859.195	68.61
859.369	-7.17
859.543	44.03
859.718	58.37
859.892	-7.17
860.066	72.7
860.241	-35.84
860.415	-19.46
860.589	-19.46
860.763	52.22
860.938	21.5
861.112	15.36
861.286	84.99
861.46	52.22
861.634	31.74
861.808	-17.41
861.982	74.75
862.157	3.07
862.331	54.27
862.505	29.7
862.679	-7.17
862.853	74.75
863.027	35.84
863.201	70.65
863.375	-21.5
863.549	46.08
863.722	62.46
863.896	52.22
864.07	13.31
864.244	-9.22
864.418	70.65
864.592	58.37
864.766	-52.22
864.939	84.99
865.113	-5.12
865.287	23.55
865.461	-7.17
865.634	54.27
865.808	-15.36
865.982	44.03
866.156	-13.31
866.329	7.17
866.503	54.27
866.676	5.12
866.85	41.98
867.024	76.8
867.197	-9.22
867.371	74.75
867.544	13.31
867.718	33.79
867.891	-62.46
868.065	-9.22
868.238	11.26
868.412	72.7
868.585	1.02
868.759	-17.41
868.932	84.99
869.105	-31.74
869.279	9.22
869.452	-11.26
869.625	27.65
869.799	29.7
869.972	13.31
870.145	62.46
870.319	58.37
870.492	5.12
870.665	-54.27
870.838	1.02
871.011	-1.02
871.185	9.22
871.358	62.46
871.531	58.37
871.704	-7.17
871.877	7.17
872.05	13.31
872.223	-66.56
872.396	60.42
872.569	50.18
872.742	-48.13
872.915	13.31
873.088	105.47
873.261	46.08
873.434	29.7
873.607	64.51
873.78	62.46
873.953	29.7
874.126	29.7
874.299	52.22
874.471	-29.7
874.644	64.51
874.817	13.31
874.99	25.6
875.163	5.12
875.335	50.18
875.508	-1.02
875.681	107.52
875.853	-78.85
876.026	64.51
876.199	7.17
876.371	5.12
876.544	3.07
876.717	76.8
876.889	68.61
877.062	76.8
877.234	31.74
877.407	35.84
877.579	-21.5
877.752	-56.32
877.924	-76.8
878.097	41.98
878.269	25.6
878.442	33.79
878.614	39.94
878.786	11.26
878.959	19.46
879.131	7.17
879.303	-56.32
879.476	76.8
879.648	46.08
879.82	17.41
879.993	21.5
880.165	25.6
880.337	-64.51
880.509	-11.26
880.681	-21.5
880.854	37.89
881.026	29.7
881.198	56.32
881.37	37.89
881.542	27.65
881.714	35.84
881.886	3.07
882.058	25.6
882.23	-39.94
882.402	-7.17
882.574	13.31
882.746	11.26
882.918	-41.98
883.09	41.98
883.262	15.36
883.434	70.65
883.606	-21.5
883.778	-13.31
883.95	99.33
884.122	62.46
884.293	70.65
884.465	17.41
884.637	44.03
884.809	11.26
884.98	60.42
885.152	44.03
885.324	-31.74
885.496	33.79
885.667	31.74
885.839	25.6
886.011	37.89
886.182	13.31
886.354	74.75
886.525	-21.5
886.697	72.7
886.869	17.41
887.04	-11.26
887.212	41.98
887.383	-46.08
887.555	-23.55
887.726	31.74
887.897	-74.75
888.069	21.5
888.24	31.74
888.412	-1.02
888.583	-5.12
888.754	44.03
888.926	-80.89
889.097	29.7
889.268	-17.41
889.44	-9.22
889.611	7.17
889.782	27.65
889.953	19.46
890.125	3.07
890.296	-21.5
890.467	-41.98
890.638	-31.74
890.809	-70.65
890.98	-50.18
891.151	-41.98
891.323	19.46
891.494	50.18
891.665	3.07
891.836	56.32
892.007	54.27
892.178	15.36
892.349	19.46
892.52	29.7
892.691	-84.99
892.862	25.6
893.032	62.46
893.203	60.42
893.374	31.74
893.545	48.13
893.716	5.12
893.887	78.85
894.057	50.18
894.228	-39.94
894.399	-78.85
894.57	-17.41
894.74	41.98
894.911	-1.02
895.082	-50.18
895.253	33.79
895.423	-27.65
895.594	-39.94
895.764	-84.99
895.935	13.31
896.106	-68.61
896.276	-23.55
896.447	5.12
896.617	-21.5
896.788	-93.18
896.958	7.17
897.129	-50.18
897.299	-13.31
897.47	68.61
897.64	3.07
897.81	-29.7
897.981	5.12
898.151	9.22
898.322	41.98
898.492	-5.12
898.662	5.12
898.832	19.46
899.003	-11.26
899.173	39.94
899.343	9.22
899.513	-7.17
