Data from USB4F104151__99__10-24-40-592.txt Node

Date: Wed Mar 12 10:24:40 EDT 2025
User: louis
Spectrometer: USB4F10415
Trigger mode: 4
Integration Time (sec): 3.000000E-2
Scans to average: 1
Electric dark correction enabled: true
Nonlinearity correction enabled: false
Boxcar width: 0
XAxis mode: Wavelengths
Number of Pixels in Spectrum: 3648
>>>>>Begin Spectral Data<<<<<
178.204	-107.69
178.424	-107.69
178.644	-107.69
178.864	-115.88
179.084	-91.31
179.304	-11.43
179.524	-56.49
179.744	-11.43
179.964	70.48
180.184	-15.53
180.404	23.38
180.624	47.96
180.844	-38.06
181.064	-44.2
181.283	43.86
181.503	-58.54
181.723	50
181.943	-15.53
182.163	0.85
182.383	43.86
182.602	64.34
182.822	56.15
183.042	17.24
183.262	-48.3
183.482	-52.39
183.701	17.24
183.921	-27.82
184.141	47.96
184.361	70.48
184.58	47.96
184.8	121.68
185.02	9.05
185.239	52.05
185.459	-3.24
185.679	74.58
185.898	-99.5
186.118	52.05
186.338	35.67
186.557	62.29
186.777	-29.87
186.997	105.3
187.216	7
187.436	29.52
187.655	52.05
187.875	19.29
188.095	37.72
188.314	82.77
188.534	13.14
188.753	50
188.973	-21.67
189.192	45.91
189.412	99.16
189.631	4.95
189.851	-11.43
190.07	119.64
190.29	4.95
190.509	66.39
190.729	-29.87
190.948	43.86
191.168	125.78
191.387	47.96
191.607	-31.91
191.826	17.24
192.045	56.15
192.265	80.72
192.484	43.86
192.704	25.43
192.923	21.33
193.142	68.44
193.362	-27.82
193.581	0.85
193.8	56.15
194.02	54.1
194.239	-21.67
194.458	113.49
194.678	47.96
194.897	21.33
195.116	86.87
195.335	101.2
195.555	25.43
195.774	58.2
195.993	43.86
196.212	-17.58
196.432	35.67
196.651	105.3
196.87	25.43
197.089	88.92
197.308	23.38
197.528	17.24
197.747	9.05
197.966	13.14
198.185	68.44
198.404	2.9
198.623	-7.34
198.842	58.2
199.062	21.33
199.281	115.54
199.5	25.43
199.719	-23.72
199.938	37.72
200.157	43.86
200.376	-9.39
200.595	19.29
200.814	50
201.033	62.29
201.252	29.52
201.471	74.58
201.69	101.2
201.909	54.1
202.128	-19.63
202.347	64.34
202.566	-23.72
202.785	-3.24
203.004	41.81
203.223	127.83
203.442	-5.29
203.661	52.05
203.879	56.15
204.098	23.38
204.317	43.86
204.536	99.16
204.755	23.38
204.974	15.19
205.193	50
205.411	45.91
205.63	82.77
205.849	-9.39
206.068	58.2
206.287	-38.06
206.505	45.91
206.724	74.58
206.943	13.14
207.162	37.72
207.381	9.05
207.599	7
207.818	54.1
208.037	-7.34
208.255	72.53
208.474	76.63
208.693	78.68
208.911	11.09
209.13	62.29
209.349	11.09
209.567	31.57
209.786	25.43
210.005	0.85
210.223	15.19
210.442	56.15
210.661	56.15
210.879	99.16
211.098	-21.67
211.316	9.05
211.535	-13.48
211.753	33.62
211.972	64.34
212.191	78.68
212.409	41.81
212.628	52.05
212.846	13.14
213.065	86.87
213.283	54.1
213.502	23.38
213.72	43.86
213.938	60.24
214.157	-13.48
214.375	52.05
214.594	60.24
214.812	74.58
215.031	-19.63
215.249	-3.24
215.467	60.24
215.686	90.96
215.904	58.2
216.122	0.85
216.341	39.76
216.559	39.76
216.778	4.95
216.996	90.96
217.214	-29.87
217.432	33.62
217.651	101.2
217.869	11.09
218.087	23.38
218.306	23.38
218.524	70.48
218.742	-3.24
218.96	82.77
219.179	-83.11
219.397	21.33
219.615	68.44
219.833	78.68
220.051	7
220.27	105.3
220.488	64.34
220.706	74.58
220.924	74.58
221.142	17.24
221.36	64.34
221.578	93.01
221.796	41.81
222.015	-13.48
222.233	39.76
222.451	74.58
222.669	50
222.887	60.24
223.105	25.43
223.323	-5.29
223.541	19.29
223.759	68.44
223.977	41.81
224.195	127.83
224.413	45.91
224.631	19.29
224.849	54.1
225.067	-5.29
225.285	-5.29
225.503	95.06
225.721	43.86
225.939	25.43
226.157	0.85
226.375	121.68
226.592	58.2
226.81	11.09
227.028	-3.24
227.246	60.24
227.464	21.33
227.682	-19.63
227.9	76.63
228.117	56.15
228.335	-15.53
228.553	-9.39
228.771	13.14
228.989	-3.24
229.206	33.62
229.424	11.09
229.642	23.38
229.86	45.91
230.077	13.14
230.295	37.72
230.513	80.72
230.731	0.85
230.948	70.48
231.166	86.87
231.384	-11.43
231.601	-13.48
231.819	37.72
232.037	4.95
232.254	-1.19
232.472	39.76
232.689	31.57
232.907	62.29
233.125	9.05
233.342	35.67
233.56	7
233.777	-19.63
233.995	19.29
234.213	60.24
234.43	123.73
234.648	23.38
234.865	25.43
235.083	62.29
235.3	-23.72
235.518	37.72
235.735	72.53
235.953	-15.53
236.17	-15.53
236.388	54.1
236.605	43.86
236.822	43.86
237.04	47.96
237.257	29.52
237.475	39.76
237.692	54.1
237.909	17.24
238.127	33.62
238.344	33.62
238.562	50
238.779	58.2
238.996	45.91
239.214	43.86
239.431	13.14
239.648	-9.39
239.865	68.44
240.083	45.91
240.3	19.29
240.517	25.43
240.735	33.62
240.952	107.35
241.169	31.57
241.386	88.92
241.603	50
241.821	23.38
242.038	17.24
242.255	66.39
242.472	23.38
242.689	74.58
242.907	-19.63
243.124	64.34
243.341	60.24
243.558	7
243.775	37.72
243.992	78.68
244.209	13.14
244.426	25.43
244.643	50
244.86	-17.58
245.078	2.9
245.295	-11.43
245.512	-1.19
245.729	17.24
245.946	23.38
246.163	21.33
246.38	99.16
246.597	21.33
246.814	31.57
247.031	33.62
247.248	9.05
247.464	90.96
247.681	-7.34
247.898	47.96
248.115	58.2
248.332	21.33
248.549	-3.24
248.766	50
248.983	166.74
249.2	33.62
249.417	-9.39
249.633	15.19
249.85	107.35
250.067	56.15
250.284	41.81
250.501	64.34
250.717	95.06
250.934	-15.53
251.151	-36.01
251.368	-50.35
251.585	29.52
251.801	50
252.018	-7.34
252.235	45.91
252.451	39.76
252.668	35.67
252.885	129.88
253.102	84.82
253.318	33.62
253.535	-7.34
253.752	-23.72
253.968	2.9
254.185	23.38
254.401	23.38
254.618	50
254.835	88.92
255.051	70.48
255.268	25.43
255.484	21.33
255.701	-15.53
255.917	80.72
256.134	25.43
256.351	39.76
256.567	-27.82
256.784	60.24
257	-13.48
257.217	54.1
257.433	41.81
257.65	-3.24
257.866	41.81
258.082	-27.82
258.299	33.62
258.515	58.2
258.732	-11.43
258.948	-19.63
259.165	64.34
259.381	-17.58
259.597	54.1
259.814	9.05
260.03	52.05
260.246	-23.72
260.463	50
260.679	37.72
260.895	-21.67
261.112	97.11
261.328	17.24
261.544	31.57
261.761	54.1
261.977	58.2
262.193	43.86
262.409	2.9
262.626	66.39
262.842	111.44
263.058	41.81
263.274	4.95
263.49	68.44
263.707	68.44
263.923	-31.91
264.139	-17.58
264.355	27.48
264.571	93.01
264.787	60.24
265.004	121.68
265.22	88.92
265.436	29.52
265.652	11.09
265.868	-3.24
266.084	-15.53
266.3	70.48
266.516	70.48
266.732	9.05
266.948	-25.77
267.164	78.68
267.38	21.33
267.596	4.95
267.812	168.79
268.028	17.24
268.244	66.39
268.46	-15.53
268.676	-9.39
268.892	50
269.108	103.25
269.324	-44.2
269.54	-36.01
269.756	80.72
269.972	0.85
270.188	72.53
270.403	-5.29
270.619	43.86
270.835	15.19
271.051	70.48
271.267	45.91
271.483	19.29
271.698	47.96
271.914	35.67
272.13	45.91
272.346	-9.39
272.562	-29.87
272.777	4.95
272.993	-1.19
273.209	-21.67
273.425	88.92
273.64	-36.01
273.856	7
274.072	56.15
274.287	-40.11
274.503	66.39
274.719	56.15
274.934	47.96
275.15	-68.78
275.366	41.81
275.581	33.62
275.797	11.09
276.012	-38.06
276.228	23.38
276.444	31.57
276.659	58.2
276.875	41.81
277.09	23.38
277.306	17.24
277.521	39.76
277.737	95.06
277.952	4.95
278.168	86.87
278.383	45.91
278.599	72.53
278.814	76.63
279.03	-40.11
279.245	39.76
279.461	-15.53
279.676	105.3
279.892	-19.63
280.107	-50.35
280.322	25.43
280.538	37.72
280.753	13.14
280.969	0.85
281.184	45.91
281.399	56.15
281.615	-11.43
281.83	-11.43
282.045	-31.91
282.26	35.67
282.476	35.67
282.691	45.91
282.906	7
283.122	11.09
283.337	0.85
283.552	23.38
283.767	0.85
283.983	27.48
284.198	66.39
284.413	35.67
284.628	21.33
284.843	-11.43
285.058	33.62
285.274	17.24
285.489	37.72
285.704	13.14
285.919	39.76
286.134	25.43
286.349	56.15
286.564	0.85
286.779	107.35
286.995	27.48
287.21	13.14
287.425	86.87
287.64	52.05
287.855	99.16
288.07	68.44
288.285	9.05
288.5	19.29
288.715	72.53
288.93	64.34
289.145	-5.29
289.36	80.72
289.575	-7.34
289.79	41.81
290.004	23.38
290.219	119.64
290.434	17.24
290.649	-7.34
290.864	25.43
291.079	-7.34
291.294	31.57
291.509	17.24
291.724	54.1
291.938	13.14
292.153	123.73
292.368	-1.19
292.583	21.33
292.798	54.1
293.012	31.57
293.227	15.19
293.442	39.76
293.657	43.86
293.871	-31.91
294.086	37.72
294.301	119.64
294.516	23.38
294.73	-19.63
294.945	-19.63
295.16	68.44
295.374	82.77
295.589	113.49
295.804	9.05
296.018	50
296.233	95.06
296.447	41.81
296.662	-3.24
296.877	37.72
297.091	127.83
297.306	-46.25
297.52	45.91
297.735	31.57
297.949	41.81
298.164	21.33
298.378	72.53
298.593	84.82
298.807	-66.73
299.022	-36.01
299.236	62.29
299.451	54.1
299.665	37.72
299.88	19.29
300.094	29.52
300.309	70.48
300.523	21.33
300.737	29.52
300.952	105.3
301.166	31.57
301.381	50
301.595	50
301.809	66.39
302.024	37.72
302.238	35.67
302.452	76.63
302.667	45.91
302.881	82.77
303.095	15.19
303.309	62.29
303.524	-11.43
303.738	33.62
303.952	35.67
304.166	15.19
304.381	13.14
304.595	72.53
304.809	41.81
305.023	111.44
305.237	39.76
305.452	-52.39
305.666	9.05
305.88	78.68
306.094	43.86
306.308	109.4
306.522	25.43
306.736	56.15
306.95	66.39
307.164	97.11
307.379	37.72
307.593	21.33
307.807	9.05
308.021	13.14
308.235	35.67
308.449	58.2
308.663	25.43
308.877	82.77
309.091	86.87
309.305	25.43
309.519	-54.44
309.733	56.15
309.947	58.2
310.161	25.43
310.374	27.48
310.588	25.43
310.802	21.33
311.016	78.68
311.23	15.19
311.444	101.2
311.658	99.16
311.872	11.09
312.085	-7.34
312.299	41.81
312.513	60.24
312.727	11.09
312.941	43.86
313.154	70.48
313.368	64.34
313.582	86.87
313.796	41.81
314.009	0.85
314.223	50
314.437	52.05
314.651	2.9
314.864	111.44
315.078	-1.19
315.292	50
315.505	21.33
315.719	21.33
315.933	80.72
316.146	82.77
316.36	-27.82
316.573	64.34
316.787	119.64
317.001	56.15
317.214	-31.91
317.428	4.95
317.641	-1.19
317.855	84.82
318.068	23.38
318.282	52.05
318.495	107.35
318.709	52.05
318.922	66.39
319.136	111.44
319.349	33.62
319.563	62.29
319.776	52.05
319.99	2.9
320.203	105.3
320.417	58.2
320.63	58.2
320.843	156.5
321.057	33.62
321.27	-50.35
321.483	62.29
321.697	68.44
321.91	68.44
322.124	-36.01
322.337	7
322.55	11.09
322.763	-17.58
322.977	29.52
323.19	-42.15
323.403	45.91
323.617	64.34
323.83	99.16
324.043	4.95
324.256	-29.87
324.469	17.24
324.683	52.05
324.896	113.49
325.109	39.76
325.322	-27.82
325.535	33.62
325.748	9.05
325.962	37.72
326.175	-29.87
326.388	4.95
326.601	86.87
326.814	27.48
327.027	4.95
327.24	50
327.453	9.05
327.666	93.01
327.879	41.81
328.092	74.58
328.305	-7.34
328.518	17.24
328.731	-42.15
328.944	131.92
329.157	33.62
329.37	15.19
329.583	127.83
329.796	9.05
330.009	13.14
330.222	74.58
330.435	70.48
330.648	97.11
330.861	39.76
331.073	-5.29
331.286	11.09
331.499	45.91
331.712	21.33
331.925	27.48
332.138	64.34
332.35	50
332.563	78.68
332.776	58.2
332.989	-27.82
333.202	82.77
333.414	33.62
333.627	95.06
333.84	80.72
334.053	52.05
334.265	-46.25
334.478	43.86
334.691	-27.82
334.903	90.96
335.116	-48.3
335.329	74.58
335.541	74.58
335.754	84.82
335.966	56.15
336.179	74.58
336.392	7
336.604	27.48
336.817	-19.63
337.029	90.96
337.242	33.62
337.454	0.85
337.667	-27.82
337.88	80.72
338.092	-17.58
338.305	50
338.517	9.05
338.729	62.29
338.942	33.62
339.154	-5.29
339.367	54.1
339.579	105.3
339.792	39.76
340.004	70.48
340.217	54.1
340.429	37.72
340.641	54.1
340.854	17.24
341.066	31.57
341.278	52.05
341.491	105.3
341.703	4.95
341.915	31.57
342.128	15.19
342.34	66.39
342.552	11.09
342.764	17.24
342.977	60.24
343.189	17.24
343.401	58.2
343.613	82.77
343.826	45.91
344.038	-3.24
344.25	47.96
344.462	4.95
344.674	99.16
344.886	62.29
345.099	4.95
345.311	11.09
345.523	-11.43
345.735	45.91
345.947	35.67
346.159	35.67
346.371	95.06
346.583	39.76
346.795	58.2
347.007	-33.96
347.219	82.77
347.431	47.96
347.643	84.82
347.855	17.24
348.067	74.58
348.279	33.62
348.491	13.14
348.703	72.53
348.915	13.14
349.127	31.57
349.339	9.05
349.551	50
349.763	119.64
349.975	119.64
350.187	23.38
350.399	60.24
350.61	25.43
350.822	-9.39
351.034	37.72
351.246	-3.24
351.458	7
351.669	50
351.881	70.48
352.093	72.53
352.305	62.29
352.517	62.29
352.728	66.39
352.94	25.43
353.152	84.82
353.363	17.24
353.575	37.72
353.787	97.11
353.999	58.2
354.21	80.72
354.422	41.81
354.633	45.91
354.845	88.92
355.057	62.29
355.268	56.15
355.48	125.78
355.692	66.39
355.903	41.81
356.115	84.82
356.326	13.14
356.538	95.06
356.749	64.34
356.961	25.43
357.172	13.14
357.384	11.09
357.595	45.91
357.807	111.44
358.018	-11.43
358.23	148.31
358.441	54.1
358.653	41.81
358.864	52.05
359.075	4.95
359.287	-13.48
359.498	41.81
359.709	17.24
359.921	58.2
360.132	11.09
360.344	-36.01
360.555	13.14
360.766	76.63
360.977	-9.39
361.189	90.96
361.4	29.52
361.611	78.68
361.823	45.91
362.034	72.53
362.245	64.34
362.456	2.9
362.667	29.52
362.879	43.86
363.09	17.24
363.301	19.29
363.512	27.48
363.723	4.95
363.935	64.34
364.146	21.33
364.357	-1.19
364.568	82.77
364.779	-19.63
364.99	52.05
365.201	74.58
365.412	29.52
365.623	11.09
365.834	70.48
366.045	17.24
366.256	66.39
366.467	136.02
366.678	58.2
366.889	64.34
367.1	90.96
367.311	-56.49
367.522	45.91
367.733	62.29
367.944	41.81
368.155	82.77
368.366	54.1
368.577	74.58
368.788	101.2
368.999	56.15
369.209	11.09
369.42	115.54
369.631	129.88
369.842	64.34
370.053	13.14
370.264	74.58
370.474	-23.72
370.685	17.24
370.896	-1.19
371.107	33.62
371.317	54.1
371.528	29.52
371.739	33.62
371.95	19.29
372.16	74.58
372.371	21.33
372.582	25.43
372.792	56.15
373.003	101.2
373.214	21.33
373.424	129.88
373.635	21.33
373.846	66.39
374.056	107.35
374.267	9.05
374.477	107.35
374.688	72.53
374.898	47.96
375.109	50
375.319	62.29
375.53	80.72
375.74	99.16
375.951	64.34
376.161	4.95
376.372	88.92
376.582	90.96
376.793	37.72
377.003	33.62
377.214	41.81
377.424	101.2
377.635	11.09
377.845	70.48
378.055	107.35
378.266	27.48
378.476	68.44
378.686	25.43
378.897	17.24
379.107	33.62
379.317	62.29
379.528	41.81
379.738	86.87
379.948	23.38
380.158	54.1
380.369	82.77
380.579	47.96
380.789	35.67
380.999	103.25
381.21	52.05
381.42	119.64
381.63	64.34
381.84	138.07
382.05	111.44
382.261	140.12
382.471	70.48
382.681	47.96
382.891	138.07
383.101	82.77
383.311	-11.43
383.521	50
383.731	54.1
383.941	82.77
384.151	50
384.361	76.63
384.571	52.05
384.781	64.34
384.991	95.06
385.201	64.34
385.411	50
385.621	58.2
385.831	17.24
386.041	78.68
386.251	105.3
386.461	97.11
386.671	105.3
386.881	133.97
387.091	21.33
387.301	115.54
387.511	-50.35
387.72	113.49
387.93	58.2
388.14	25.43
388.35	23.38
388.56	72.53
388.769	107.35
388.979	-7.34
389.189	88.92
389.399	4.95
389.609	86.87
389.818	86.87
390.028	72.53
390.238	101.2
390.447	21.33
390.657	23.38
390.867	43.86
391.076	64.34
391.286	45.91
391.496	105.3
391.705	43.86
391.915	113.49
392.125	115.54
392.334	80.72
392.544	123.73
392.753	54.1
392.963	15.19
393.172	45.91
393.382	43.86
393.591	148.31
393.801	56.15
394.01	140.12
394.22	90.96
394.429	131.92
394.639	119.64
394.848	90.96
395.058	78.68
395.267	99.16
395.477	115.54
395.686	95.06
395.895	156.5
396.105	90.96
396.314	144.21
396.524	99.16
396.733	125.78
396.942	25.43
397.152	107.35
397.361	131.92
397.57	62.29
397.78	95.06
397.989	113.49
398.198	166.74
398.407	103.25
398.617	142.16
398.826	86.87
399.035	60.24
399.244	125.78
399.453	111.44
399.663	88.92
399.872	88.92
400.081	43.86
400.29	119.64
400.499	4.95
400.708	105.3
400.917	119.64
401.127	160.59
401.336	127.83
401.545	131.92
401.754	140.12
401.963	125.78
402.172	156.5
402.381	80.72
402.59	47.96
402.799	117.59
403.008	156.5
403.217	160.59
403.426	111.44
403.635	82.77
403.844	119.64
404.053	70.48
404.262	129.88
404.471	187.22
404.68	138.07
404.888	185.17
405.097	95.06
405.306	187.22
405.515	205.65
405.724	150.36
405.933	101.2
406.142	195.41
406.35	172.88
406.559	148.31
406.768	205.65
406.977	234.32
407.185	176.98
407.394	314.19
407.603	195.41
407.812	224.08
408.02	246.61
408.229	179.03
408.438	211.79
408.646	262.99
408.855	271.19
409.064	260.95
409.272	248.66
409.481	234.32
409.69	271.19
409.898	287.57
410.107	250.71
410.315	306
410.524	453.45
410.733	303.95
410.941	369.49
411.15	357.2
411.358	369.49
411.567	379.73
411.775	353.1
411.984	389.97
412.192	394.06
412.401	486.22
412.609	582.48
412.818	510.8
413.026	467.79
413.234	523.09
413.443	537.42
413.651	605
413.86	631.63
414.068	623.44
414.276	666.44
414.485	652.11
414.693	629.58
414.901	750.41
415.11	670.54
415.318	754.51
415.526	654.16
415.734	848.71
415.943	940.87
416.151	772.94
416.359	844.62
416.567	830.28
416.776	979.78
416.984	1010.5
417.192	1026.89
417.4	1045.32
417.608	1129.28
417.817	1106.76
418.025	1102.66
418.233	1301.31
418.441	1071.94
418.649	1194.82
418.857	1260.35
419.065	1297.22
419.273	1299.27
419.481	1430.34
419.689	1465.15
419.897	1489.73
420.105	1489.73
420.313	1573.69
420.521	1659.71
420.729	1737.53
420.937	1780.54
421.145	1844.03
421.353	1846.07
421.561	1983.29
421.769	1925.94
421.977	2079.54
422.185	2071.35
422.393	2147.12
422.601	2358.07
422.809	2358.07
423.017	2403.12
423.224	2579.25
423.432	2569.01
423.64	2583.34
423.848	2775.85
424.056	2822.95
424.263	2857.77
424.471	2884.39
424.679	2984.74
424.887	3140.39
425.094	3341.09
425.302	3230.5
425.51	3367.71
425.718	3476.26
425.925	3455.78
426.133	3662.62
426.341	3836.7
426.548	3928.86
426.756	3984.15
426.964	3975.96
427.171	4279.06
427.379	4371.22
427.586	4395.79
427.794	4698.89
428.001	4956.94
428.209	4981.51
428.417	4881.16
428.624	5389.06
428.832	5268.23
429.039	5452.55
429.247	5391.11
429.454	5833.47
429.662	6148.86
429.869	5692.16
430.076	6058.74
430.284	5890.81
430.491	6361.84
430.699	6716.14
430.906	6564.59
431.114	6685.42
431.321	7013.1
431.528	7133.93
431.736	7342.82
431.943	7834.33
432.15	7586.53
432.358	7727.84
432.565	7891.68
432.772	7994.08
432.979	8463.06
433.187	8587.99
433.394	8774.35
433.601	9300.68
433.808	9351.88
434.016	9259.72
434.223	9800.38
434.43	10109.63
434.637	10052.28
434.844	10535.6
435.052	10865.33
435.259	10787.5
435.466	11016.88
435.673	10638
435.88	11403.94
436.087	11917.98
436.294	11850.4
436.501	11717.28
436.708	12057.25
436.915	12528.28
437.122	13163.15
437.329	13091.47
437.537	13290.12
437.743	13652.61
437.95	13503.11
438.157	14158.46
438.364	14717.56
438.571	14490.23
438.778	14711.41
438.985	15977.06
439.192	15526.5
439.399	16038.5
439.606	15424.11
439.813	16267.87
440.02	17461.83
440.227	17160.78
440.433	16906.84
440.64	17291.85
440.847	17443.4
441.054	17609.29
441.261	19016.24
441.467	18614.84
441.674	18942.52
441.881	19493.42
442.088	19694.12
442.294	19561
442.501	19968.55
442.708	20294.18
442.914	21174.8
443.121	22178.31
443.328	21309.97
443.534	22923.77
443.741	22243.84
443.948	22069.76
444.154	23581.17
444.361	23402.99
444.568	23749.1
444.774	23849.45
444.981	23863.79
445.187	24408.54
445.394	25891.27
445.6	25389.52
445.807	27744.69
446.013	26530.24
446.22	27029.94
446.426	27535.79
446.633	28168.62
446.839	29165.98
447.046	27695.53
447.252	29235.61
447.459	29471.12
447.665	29235.61
447.871	30781.82
448.078	31854.96
448.284	29919.63
448.491	31521.14
448.697	32561.51
448.903	32846.18
449.11	32930.14
449.316	32176.49
449.522	32917.86
449.728	33698.13
449.935	33982.8
450.141	33685.84
450.347	34548.04
450.553	33546.58
450.76	34175.31
450.966	35051.84
451.172	34769.22
451.378	35500.34
451.584	34605.38
451.791	35699
451.997	35510.58
452.203	35785.01
452.409	36034.86
452.615	35950.9
452.821	34801.99
453.027	33833.3
453.233	35393.85
453.44	34445.64
453.646	34814.27
453.852	34955.58
454.058	35328.31
454.264	34296.14
454.47	34783.55
454.676	33974.61
454.882	35277.12
455.088	31902.06
455.294	32754.02
455.5	32723.3
455.705	33345.88
455.911	32072.04
456.117	31304.06
456.323	30945.66
456.529	29235.61
456.735	30732.67
456.941	29649.3
457.147	29360.53
457.352	28340.64
457.558	27791.79
457.764	27984.3
457.97	27425.2
458.176	26714.56
458.381	27109.82
458.587	25584.08
458.793	25897.42
458.999	24156.64
459.204	26272.2
459.41	25264.6
459.616	23329.27
459.821	23529.97
460.027	23417.33
460.233	23118.32
460.438	21836.3
460.644	22264.32
460.85	21164.56
461.055	20781.59
461.261	20744.73
461.466	19366.45
461.672	18510.39
461.878	19968.55
462.083	18940.47
462.289	18256.45
462.494	18086.47
462.7	17298
462.905	16992.85
463.111	17463.88
463.316	17830.47
463.522	17113.68
463.727	17236.56
463.932	17164.88
464.138	17211.98
464.343	17201.74
464.549	16460.38
464.754	17050.19
464.959	17173.07
465.165	16867.92
465.37	16394.84
465.575	15710.82
465.781	16663.13
465.986	16579.16
466.191	15821.41
466.397	15575.66
466.602	14838.39
466.807	15428.2
467.012	15364.71
467.218	15311.47
467.423	15194.73
467.628	15147.63
467.833	15741.54
468.038	15221.36
468.244	14944.88
468.449	15577.7
468.654	14838.39
468.859	14877.3
469.064	14707.32
469.269	13914.75
469.474	14117.5
469.679	14492.28
469.885	14076.54
470.09	14336.63
470.295	14398.07
470.5	13736.58
470.705	14051.97
470.91	13591.17
471.115	13283.98
471.32	13851.27
471.525	13472.39
471.73	13179.53
471.935	13255.31
472.139	12759.7
472.344	12812.95
472.549	12665.49
472.754	12692.12
472.959	12280.47
473.164	12083.87
473.369	12090.01
473.574	12462.74
473.778	12147.36
473.983	12124.83
474.188	11829.92
474.393	11602.6
474.598	11680.42
474.802	11537.06
475.007	11508.39
475.212	11573.92
475.417	11125.42
475.621	11131.56
475.826	11123.37
476.031	10853.04
476.235	10463.93
476.44	11033.26
476.645	10619.57
476.849	10595
477.054	10449.59
477.259	10287.8
477.463	10351.29
477.668	10128.06
477.872	10113.72
478.077	9941.69
478.282	9892.54
478.486	9618.11
478.691	9798.34
478.895	9822.91
479.1	9677.51
479.304	9605.83
479.509	9503.43
479.713	9454.28
479.918	9235.14
480.122	9249.48
480.326	9165.51
480.531	9452.23
480.735	9202.38
480.94	8973
481.144	9491.14
481.348	8915.66
481.553	9155.27
481.757	8936.14
481.961	9073.35
482.166	9165.51
482.37	8946.38
482.574	8917.71
482.778	9034.44
482.983	8956.62
483.187	8919.76
483.391	8921.81
483.595	8649.43
483.8	8864.46
484.004	8930
484.208	9009.87
484.412	8911.57
484.616	8903.37
484.821	9013.96
485.025	8889.04
485.229	9108.17
485.433	9020.11
485.637	8852.17
485.841	8743.63
486.045	8872.65
486.249	8962.76
486.453	8821.45
486.657	8819.41
486.861	8956.62
487.065	8829.65
487.269	8839.89
487.473	8674
487.677	8952.52
487.881	9009.87
488.085	8850.13
488.289	9013.96
488.493	8891.09
488.697	8901.33
488.901	9104.07
489.105	8829.65
489.309	9018.06
489.512	9171.66
489.716	9052.88
489.92	8966.86
490.124	9108.17
490.328	9089.74
490.531	9188.04
490.735	9067.21
490.939	9087.69
491.143	9155.27
491.346	9132.75
491.55	9335.49
491.754	9075.4
491.958	9245.38
492.161	9355.97
492.365	9349.83
492.569	9372.36
492.772	9333.45
492.976	9566.92
493.18	9550.53
493.383	9804.48
493.587	9765.57
493.79	9863.87
493.994	9700.03
494.197	9773.76
494.401	10042.04
494.605	10087.1
494.808	10093.24
495.012	10027.71
495.215	10222.27
495.419	10302.14
495.622	10205.88
495.825	10502.84
496.029	10437.3
496.232	10779.31
496.436	10480.31
496.639	11082.41
496.843	10875.57
497.046	10926.77
497.249	11035.31
497.453	11070.12
497.656	11233.96
497.859	11119.28
498.063	11588.26
498.266	11786.91
498.469	11479.72
498.673	11887.26
498.876	11821.73
499.079	12028.57
499.282	12034.72
499.485	12483.22
499.689	12415.64
499.892	12642.96
500.095	12470.94
500.298	12948.11
500.501	12788.37
500.705	13189.77
500.908	13361.8
501.111	13421.19
501.314	13390.47
501.517	13607.56
501.72	13918.85
501.923	13572.74
502.126	14279.29
502.329	14416.51
502.532	14353.02
502.735	14447.22
502.938	14856.82
503.141	14883.44
503.344	15209.07
503.547	15495.78
503.75	15501.93
503.953	15622.76
504.156	15800.93
504.359	15731.3
504.562	16116.32
504.765	16441.95
504.968	16398.94
505.17	16685.65
505.373	16779.86
505.576	16900.69
505.779	17099.34
505.982	17128.02
506.185	17728.07
506.387	17543.75
506.59	17924.68
506.793	18072.13
506.996	17883.72
507.198	18512.44
507.401	18397.76
507.604	18823.73
507.807	19218.99
508.009	19300.91
508.212	19397.17
508.415	19702.31
508.617	19974.69
508.82	20177.44
509.022	19618.35
509.225	20566.56
509.428	20376.09
509.63	20806.17
509.833	20867.61
510.035	21379.6
510.238	21236.24
510.44	21711.37
510.643	21676.55
510.845	22110.72
511.048	21991.94
511.25	22479.36
511.453	22557.18
511.655	23333.36
511.858	23083.51
512.06	22827.51
512.262	23435.76
512.465	23470.58
512.667	23783.91
512.87	24166.88
513.072	24293.86
513.274	24838.62
513.477	25024.98
513.679	25037.27
513.881	25428.43
514.084	25756.11
514.286	25588.17
514.488	25754.06
514.69	26649.02
514.893	26280.39
515.095	26896.83
515.297	26937.79
515.499	27066.81
515.701	27535.79
515.904	27613.62
516.106	28045.74
516.308	28074.41
516.51	28332.45
516.712	28742.05
516.914	28932.51
517.116	29700.5
517.318	29446.55
517.52	29546.9
517.722	29680.02
517.925	30062.99
518.127	30968.19
518.329	30691.71
518.531	30800.26
518.733	31383.93
518.935	31541.62
519.136	31494.52
519.338	32336.23
519.54	31998.32
519.742	32348.52
519.944	32700.77
520.146	33530.2
520.348	33515.86
520.55	33270.11
520.752	33565.01
520.954	34038.09
521.155	33999.18
521.357	34527.56
521.559	35027.26
521.761	35522.87
521.963	35049.79
522.164	35481.91
522.366	35993.9
522.568	35977.52
522.77	36120.88
522.971	36948.26
523.173	36497.7
523.375	36903.2
523.576	36917.54
523.778	37228.83
523.98	37884.18
524.181	37732.63
524.383	37828.88
524.584	37869.84
524.786	38334.73
524.988	38054.16
525.189	39006.47
525.391	38983.94
525.592	39135.49
525.794	39405.82
525.995	39575.8
526.197	39565.56
526.398	39477.5
526.6	40460.52
526.801	40136.94
527.003	40605.93
527.204	40390.89
527.406	40917.22
527.607	40935.65
527.808	40808.68
528.01	40579.31
528.211	40454.38
528.412	41629.91
528.614	41531.61
528.815	41347.29
529.016	42152.15
529.218	41650.39
529.419	41826.52
529.62	41801.94
529.822	42207.44
530.023	42182.87
530.224	42361.04
530.425	42264.78
530.626	42459.34
530.828	42371.28
531.029	42885.32
531.23	42299.6
531.431	42201.3
531.632	42719.43
531.833	42870.98
532.035	43153.6
532.236	43071.68
532.437	42813.64
532.638	42430.67
532.839	42938.57
533.04	43206.85
533.241	42715.34
533.442	43329.73
533.643	42957
533.844	43225.28
534.045	43454.65
534.246	43073.73
534.447	43352.26
534.648	43567.29
534.849	43276.48
535.05	43569.34
535.251	42758.34
535.451	43165.89
535.652	43655.36
535.853	43319.49
536.054	43585.72
536.255	43823.29
536.456	42827.98
536.657	43593.92
536.857	43454.65
537.058	43274.43
537.259	43733.18
537.46	43690.17
537.66	43323.58
537.861	43741.37
538.062	43362.5
538.263	43395.26
538.463	43403.46
538.664	43288.77
538.865	43722.94
539.065	43573.44
539.266	43149.51
539.466	43702.46
539.667	42954.95
539.868	43960.5
540.068	43641.02
540.269	43272.39
540.469	43942.07
540.67	43614.4
540.87	43583.68
541.071	43413.69
541.271	43679.93
541.472	43532.48
541.672	43624.64
541.873	43282.62
542.073	43036.87
542.274	44142.77
542.474	43129.03
542.675	42899.65
542.875	43364.54
543.075	43571.39
543.276	42819.78
543.476	43716.79
543.676	42924.23
543.877	43606.2
544.077	43264.19
544.277	43270.34
544.478	43024.58
544.678	43475.13
544.878	43098.31
545.078	43256
545.279	42846.41
545.479	43303.1
545.679	43251.91
545.879	43282.62
546.079	43305.15
546.28	43051.2
546.48	42528.97
546.68	43552.96
546.88	43210.95
547.08	43108.55
547.28	43100.36
547.48	42766.54
547.68	42967.24
547.88	42948.81
548.081	43202.75
548.281	43010.25
548.481	42760.39
548.681	43049.16
548.881	42995.91
549.081	42928.33
549.28	42787.02
549.48	43327.68
549.68	42582.22
549.88	43305.15
550.08	42602.7
550.28	42973.38
550.48	42707.15
550.68	43231.43
550.88	42936.52
551.08	42389.71
551.279	42795.21
551.479	42526.92
551.679	42754.25
551.879	42576.08
552.079	43116.74
552.278	42592.46
552.478	42510.54
552.678	42608.84
552.878	43251.91
553.077	42721.48
553.277	41969.88
553.477	42881.22
553.676	42436.81
553.876	42485.97
554.076	42537.16
554.275	42490.06
554.475	41607.39
554.674	42612.94
554.874	41998.55
555.074	42272.98
555.273	42184.91
555.473	42440.91
555.672	42062.04
555.872	42232.02
556.071	42498.25
556.271	42150.1
556.47	41836.76
556.67	42117.33
556.869	41945.3
557.068	41756.89
557.268	41435.36
557.467	42080.47
557.667	41664.73
557.866	41545.95
558.065	41490.65
558.265	41011.43
558.464	40995.04
558.663	41726.17
558.863	41062.63
559.062	41885.91
559.261	40759.53
559.461	41920.73
559.66	40698.09
559.859	40947.94
560.058	41021.67
560.258	41171.17
560.457	40730.86
560.656	40753.38
560.855	40786.15
561.054	40605.93
561.253	40444.14
561.453	40794.34
561.652	40634.6
561.851	41074.91
562.05	40124.66
562.249	39891.19
562.448	40794.34
562.647	40118.51
562.846	39954.68
563.045	40343.79
563.244	39586.04
563.443	40540.39
563.642	39340.29
563.841	39811.32
564.04	39579.9
564.239	39678.2
564.438	39203.07
564.637	39774.45
564.836	39454.97
565.035	38893.83
565.234	39250.17
565.432	39004.42
565.631	38732.04
565.83	39016.71
566.029	38764.81
566.228	38541.58
566.427	38699.27
566.625	38476.04
566.824	38433.03
567.023	38523.15
567.222	37452.06
567.42	38541.58
567.619	38140.18
567.818	38064.4
568.016	37720.34
568.215	37892.37
568.414	37800.21
568.612	38013.2
568.811	37601.56
569.01	37300.51
569.208	36897.06
569.407	37130.53
569.605	36612.39
569.804	37462.3
570.002	36702.5
570.201	37122.33
570.4	36819.24
570.598	36622.63
570.797	36645.16
570.995	36456.75
571.193	36038.96
571.392	36493.61
571.59	35733.81
571.789	35991.86
571.987	35875.12
572.186	36184.37
572.384	35662.13
572.582	35858.74
572.781	35995.95
572.979	35129.66
573.177	35670.33
573.376	35707.19
573.574	35166.52
573.772	35205.44
573.971	34752.84
574.169	34820.42
574.367	34873.67
574.565	34926.91
574.763	35019.07
574.962	34732.36
575.16	34507.08
575.358	34613.57
575.556	34134.35
575.754	34576.71
575.952	33974.61
576.151	34472.26
576.349	33851.73
576.547	33757.52
576.745	33999.18
576.943	33622.36
577.141	33821.01
577.339	33503.57
577.537	33655.12
577.735	33333.59
577.933	32762.21
578.131	33018.21
578.329	33122.65
578.527	32508.26
578.725	33085.79
578.923	33300.83
579.121	32885.09
579.319	32655.72
579.516	32928.09
579.714	32563.56
579.912	32330.09
580.11	31971.69
580.308	32223.59
580.506	32180.59
580.704	31908.21
580.901	32117.1
581.099	32053.61
581.297	32018.8
581.495	31732.08
581.692	32346.47
581.89	31461.75
582.088	31582.58
582.285	31682.93
582.483	31345.02
582.681	31330.68
582.878	31127.93
583.076	30966.14
583.274	31175.03
583.471	31017.34
583.669	31121.79
583.866	30460.29
584.064	30660.99
584.262	30321.03
584.459	30931.33
584.657	30366.09
584.854	30310.79
585.052	29958.54
585.249	30443.91
585.447	30484.87
585.644	29680.02
585.841	30149
586.039	30398.85
586.236	29348.25
586.434	29424.02
586.631	29397.4
586.828	29763.98
587.026	29460.88
587.223	29274.52
587.42	29233.56
587.618	29194.65
587.815	28832.16
588.012	28885.4
588.21	28854.69
588.407	29274.52
588.604	28916.12
588.801	28330.41
588.999	28737.95
589.196	28436.9
589.393	28598.69
589.59	28520.87
589.787	28154.28
589.984	28240.29
590.182	27703.73
590.379	27799.98
590.576	27830.7
590.773	28101.03
590.97	27478.45
591.167	28049.83
591.364	27470.26
591.561	27769.26
591.758	27351.48
591.955	27404.72
592.152	27343.28
592.349	27109.82
592.546	27193.78
592.743	26976.7
592.94	26417.6
593.137	26941.88
593.334	26855.87
593.531	26497.47
593.727	26673.6
593.924	26646.97
594.121	26786.24
594.318	26585.54
594.515	26221
594.712	26585.54
594.908	25915.85
595.105	26243.52
595.302	25700.81
595.499	26210.76
595.696	25897.42
595.892	25563.6
596.089	25858.51
596.286	25952.71
596.482	25584.08
596.679	25600.46
596.876	25448.91
597.072	25453.01
597.269	25328.08
597.466	25328.08
597.662	25008.6
597.859	24949.21
598.055	25145.81
598.252	24918.49
598.448	25022.94
598.645	24846.81
598.841	24660.45
599.038	24920.54
599.234	24617.44
599.431	24390.11
599.627	24336.87
599.824	24617.44
600.02	24332.77
600.217	24463.84
600.413	23957.99
600.609	23921.13
600.806	23876.07
601.002	23796.2
601.198	23702
601.395	23505.39
601.591	23618.03
601.787	23618.03
601.984	23304.69
602.18	23593.45
602.376	23525.87
602.572	23536.11
602.769	23372.27
602.965	23114.23
603.161	22931.96
603.357	22780.41
603.553	22958.58
603.75	23013.88
603.946	22792.7
604.142	23036.41
604.338	22653.44
604.534	22706.68
604.73	22391.3
604.926	22329.86
605.122	22307.33
605.318	22157.83
605.514	22084.1
605.71	22032.9
605.906	22151.68
606.102	22272.51
606.298	22166.02
606.494	21842.44
606.69	22082.05
606.886	22090.24
607.082	21711.37
607.278	21981.7
607.474	21746.19
607.67	21924.36
607.866	21312.02
608.062	21715.47
608.257	21348.88
608.453	21316.11
608.649	21518.86
608.845	21215.76
609.041	21162.51
609.236	21363.22
609.432	21385.74
609.628	21203.47
609.824	21094.93
610.019	21193.23
610.215	20845.08
610.411	21142.03
610.606	20775.45
610.802	21008.92
610.998	20816.41
611.193	20912.66
611.389	20883.99
611.584	20290.08
611.78	20374.05
611.976	20503.07
612.171	20271.65
612.367	20666.91
612.562	20245.02
612.758	20171.3
612.953	20279.84
613.149	20548.12
613.344	20279.84
613.539	20085.28
613.735	20005.41
613.93	20202.02
614.126	20095.52
614.321	20507.16
614.517	20052.52
614.712	19980.84
614.907	19788.33
615.103	20040.23
615.298	19862.05
615.493	19946.02
615.688	19700.26
615.884	19943.97
616.079	19401.26
616.274	19612.2
616.47	19491.37
616.665	19776.04
616.86	19436.08
617.055	19702.31
617.25	19352.11
617.445	19423.79
617.641	18956.85
617.836	19251.76
618.031	19110.45
618.226	19307.05
618.421	18985.52
618.616	19141.17
618.811	18737.72
619.006	19180.08
619.201	18707
619.396	18752.06
619.591	18614.84
619.786	18860.6
619.981	18383.42
620.176	18651.7
620.371	18276.93
620.566	18594.36
620.761	17984.07
620.956	18326.08
621.151	18008.64
621.346	18192.96
621.541	18014.79
621.735	18111.04
621.93	17545.8
622.125	17801.8
622.32	17246.8
622.515	17680.97
622.709	17175.12
622.904	17377.87
623.099	17345.1
623.294	17209.93
623.488	17054.29
623.683	17048.15
623.878	16656.98
624.072	17078.86
624.267	16816.72
624.462	16843.35
624.656	16468.57
624.851	16552.54
625.046	16407.13
625.24	16331.36
625.435	16218.72
625.629	16177.76
625.824	16214.62
626.018	16106.08
626.213	15434.35
626.407	15823.46
626.602	15587.94
626.796	15669.86
626.991	15393.39
627.185	15315.56
627.38	15428.2
627.574	15284.84
627.768	15207.02
627.963	15110.77
628.157	14836.34
628.352	15034.99
628.546	14672.5
628.74	14813.81
628.935	14811.76
629.129	14418.55
629.323	14535.29
629.517	14344.83
629.712	14377.59
629.906	14484.09
630.1	14121.6
630.294	14289.53
630.489	14037.63
630.683	14172.8
630.877	14015.1
631.071	13662.85
631.265	13652.61
631.459	13607.56
631.653	13746.82
631.848	13613.7
632.042	13494.92
632.236	13365.9
632.43	13337.23
632.624	13378.19
632.818	13376.14
633.012	13120.14
633.206	13355.66
633.4	13228.68
633.594	12931.73
633.788	13134.48
633.982	12556.95
634.176	12847.76
634.369	12802.71
634.563	12892.82
634.757	12440.22
634.951	12653.2
635.145	12288.67
635.339	12571.29
635.533	12247.71
635.726	12333.72
635.92	12268.19
636.114	12157.6
636.308	11995.81
636.501	11760.29
636.695	11860.64
636.889	11672.23
637.083	11731.62
637.276	11766.43
637.47	11692.71
637.664	11788.96
637.857	11756.19
638.051	11455.14
638.244	11346.6
638.438	11305.64
638.632	11350.7
638.825	11025.07
639.019	11156.14
639.212	10977.97
639.406	11016.88
639.599	11006.64
639.793	10930.86
639.986	10576.56
640.18	10877.62
640.373	10732.21
640.567	10693.3
640.76	10674.87
640.954	10535.6
641.147	10283.7
641.34	10371.77
641.534	10371.77
641.727	10468.02
641.92	10166.97
642.114	10265.27
642.307	10175.16
642.5	10212.03
642.694	10005.18
642.887	9964.22
643.08	10070.72
643.273	9900.73
643.467	9837.25
643.66	9851.58
643.853	9831.1
644.046	9732.8
644.239	9609.92
644.432	9616.07
644.626	9503.43
644.819	9255.62
645.012	9327.3
645.205	9353.93
645.398	9331.4
645.591	9282.25
645.784	9151.18
645.977	9239.24
646.17	9194.19
646.363	8950.48
646.556	8901.33
646.749	8864.46
646.942	8831.69
647.135	9005.77
647.328	8905.42
647.521	8700.62
647.714	8661.71
647.907	8803.02
648.099	8573.65
648.292	8475.35
648.485	8444.63
648.678	8526.55
648.871	8497.88
649.064	8358.61
649.256	8463.06
649.449	8399.57
649.642	8295.13
649.835	8295.13
650.027	8299.22
650.22	8264.41
650.413	8041.18
650.605	8123.1
650.798	8166.1
650.991	7959.26
651.183	7832.29
651.376	7760.61
651.568	7789.28
651.761	7826.14
651.954	7969.5
652.146	7871.2
652.339	7885.53
652.531	7699.17
652.724	7539.43
652.916	7635.68
653.109	7531.23
653.301	7535.33
653.494	7451.36
653.686	7299.81
653.879	7680.74
654.071	7402.21
654.263	7144.17
654.456	7308.01
654.648	7328.49
654.84	7123.69
655.033	7185.13
655.225	7150.31
655.417	7033.58
655.61	7070.44
655.802	7121.64
655.994	6943.47
656.186	7021.29
656.379	6884.08
656.571	6734.57
656.763	6697.71
656.955	6730.48
657.148	6656.75
657.34	6773.49
657.532	6511.35
657.724	6722.29
657.916	6650.61
658.108	6632.18
658.3	6570.74
658.492	6517.49
658.684	6462.19
658.876	6595.31
659.068	6490.87
659.26	6281.97
659.452	6376.18
659.644	6306.55
659.836	6271.73
660.028	6257.4
660.22	6216.44
660.412	6175.48
660.604	6114.04
660.796	6093.56
660.988	6071.03
661.18	5927.67
661.372	6099.7
661.563	6062.84
661.755	5960.44
661.947	5899
662.139	5806.84
662.331	5790.46
662.522	5833.47
662.714	5663.49
662.906	5722.88
663.097	5796.6
663.289	5812.99
663.481	5587.71
663.673	5817.08
663.864	5632.77
664.056	5597.95
664.247	5677.82
664.439	5776.13
664.631	5681.92
664.822	5686.01
665.014	5513.99
665.205	5378.82
665.397	5579.52
665.588	5434.11
665.78	5456.64
665.971	5425.92
666.163	5389.06
666.354	5176.07
666.546	5354.24
666.737	5290.76
666.929	5411.59
667.12	5419.78
667.311	5225.22
667.503	5010.18
667.694	5204.74
667.885	5149.45
668.077	5221.13
668.268	5128.97
668.459	5122.82
668.651	4938.51
668.842	5210.89
669.033	4958.99
669.224	5030.66
669.416	5047.05
669.607	5151.49
669.798	4961.03
669.989	4842.25
670.18	5014.28
670.371	4844.3
670.563	4961.03
670.754	4979.47
670.945	4866.83
671.136	4895.5
671.327	5055.24
671.518	4817.68
671.709	4862.73
671.9	4887.31
672.091	4850.44
672.282	4885.26
672.473	4756.24
672.664	4766.48
672.855	4715.28
673.046	4772.62
673.237	4688.65
673.428	4829.96
673.619	4741.9
673.809	4846.35
674	4829.96
674.191	4657.93
674.382	4774.67
674.573	4707.09
674.764	4567.82
674.954	4643.6
675.145	4381.46
675.336	4641.55
675.527	4645.65
675.717	4582.16
675.908	4537.1
676.099	4479.76
676.289	4543.25
676.48	4504.34
676.671	4535.06
676.861	4594.45
677.052	4471.57
677.243	4471.57
677.433	4629.26
677.624	4563.73
677.814	4420.37
678.005	4481.81
678.195	4453.14
678.386	4567.82
678.576	4504.34
678.767	4586.26
678.957	4444.95
679.148	4549.39
679.338	4516.62
679.529	4481.81
679.719	4408.08
679.909	4637.45
680.1	4442.9
680.29	4567.82
680.481	4412.18
680.671	4557.58
680.861	4403.99
681.052	4594.45
681.242	4442.9
681.432	4446.99
681.622	4436.75
681.813	4346.64
682.003	4479.76
682.193	4375.31
682.383	4508.43
682.573	4410.13
682.764	4434.71
682.954	4510.48
683.144	4358.93
683.334	4305.68
683.524	4315.92
683.714	4418.32
683.904	4496.14
684.094	4221.72
684.284	4465.43
684.474	4414.23
684.664	4317.97
684.854	4299.54
685.044	4408.08
685.234	4346.64
685.424	4307.73
685.614	4158.23
685.804	4338.45
685.994	4264.72
686.184	4385.55
686.374	4291.35
686.564	4354.83
686.753	4289.3
686.943	4221.72
687.133	4322.07
687.323	4211.48
687.513	4410.13
687.702	4270.87
687.892	4272.92
688.082	4023.06
688.272	4150.04
688.461	4057.88
688.651	4080.41
688.841	4133.65
689.03	4051.74
689.22	4123.41
689.41	4109.08
689.599	4064.02
689.789	3982.1
689.979	3986.2
690.168	4047.64
690.358	3922.71
690.547	3945.24
690.737	4021.02
690.926	3826.46
691.116	3857.18
691.305	3906.33
691.495	3717.92
691.684	3773.21
691.874	3736.35
692.063	3978.01
692.252	3719.96
692.442	3754.78
692.631	3615.52
692.82	3830.55
693.01	3697.44
693.199	3666.72
693.388	3615.52
693.578	3681.05
693.767	3728.16
693.956	3660.57
694.146	3683.1
694.335	3740.44
694.524	3568.41
694.713	3609.37
694.902	3588.89
695.092	3502.88
695.281	3525.41
695.47	3486.5
695.659	3574.56
695.848	3414.82
696.037	3535.65
696.226	3582.75
696.415	3498.78
696.604	3490.59
696.793	3529.5
696.982	3633.95
697.171	3609.37
697.36	3410.72
697.549	3406.63
697.738	3496.74
697.927	3498.78
698.116	3453.73
698.305	3435.3
698.494	3494.69
698.683	3568.41
698.872	3531.55
699.061	3414.82
699.25	3423.01
699.438	3484.45
699.627	3521.31
699.816	3359.52
700.005	3334.95
700.193	3384.1
700.382	3355.43
700.571	3423.01
700.76	3441.44
700.948	3500.83
701.137	3351.33
701.326	3343.14
701.514	3439.39
701.703	3511.07
701.892	3339.04
702.08	3533.6
702.269	3349.28
702.457	3287.84
702.646	3394.34
702.834	3287.84
703.023	3457.82
703.212	3277.6
703.4	3277.6
703.589	3441.44
703.777	3367.71
703.965	3361.57
704.154	3390.24
704.342	3318.56
704.531	3300.13
704.719	3361.57
704.907	3459.87
705.096	3347.23
705.284	3371.81
705.472	3263.27
705.661	3316.51
705.849	3281.7
706.037	3402.53
706.226	3392.29
706.414	3480.35
706.602	3345.19
706.79	3351.33
706.979	3304.23
707.167	3304.23
707.355	3242.79
707.543	3330.85
707.731	3375.91
707.919	3293.99
708.107	3330.85
708.296	3222.31
708.484	3226.4
708.672	3349.28
708.86	3398.43
709.048	3351.33
709.236	3255.08
709.424	3414.82
709.612	3203.88
709.8	3322.66
709.988	3302.18
710.176	3431.2
710.364	3328.8
710.551	3351.33
710.739	3291.94
710.927	3486.5
711.115	3355.43
711.303	3320.61
711.491	3210.02
711.679	3449.63
711.866	3291.94
712.054	3433.25
712.242	3220.26
712.43	3341.09
712.617	3228.45
712.805	3402.53
712.993	3322.66
713.181	3363.62
713.368	3326.75
713.556	3318.56
713.744	3371.81
713.931	3425.06
714.119	3392.29
714.306	3175.2
714.494	3353.38
714.682	3302.18
714.869	3253.03
715.057	3431.2
715.244	3273.51
715.432	3412.77
715.619	3246.88
715.807	3253.03
715.994	3463.97
716.182	3236.64
716.369	3263.27
716.556	3437.34
716.744	3179.3
716.931	3330.85
717.119	3425.06
717.306	3367.71
717.493	3267.36
717.681	3476.26
717.868	3365.67
718.055	3267.36
718.242	3332.9
718.43	3398.43
718.617	3306.27
718.804	3380
718.991	3273.51
719.179	3429.15
719.366	3500.83
719.553	3400.48
719.74	3334.95
719.927	3318.56
720.114	3431.2
720.301	3289.89
720.488	3349.28
720.676	3318.56
720.863	3304.23
721.05	3382.05
721.237	3277.6
721.424	3406.63
721.611	3195.68
721.798	3253.03
721.985	3273.51
722.172	3343.14
722.358	3197.73
722.545	3193.64
722.732	3347.23
722.919	3351.33
723.106	3306.27
723.293	3363.62
723.48	3291.94
723.667	3263.27
723.853	3322.66
724.04	3302.18
724.227	3281.7
724.414	3228.45
724.6	3316.51
724.787	3287.84
724.974	3341.09
725.161	3248.93
725.347	3027.75
725.534	3312.42
725.72	3250.98
725.907	3298.08
726.094	3261.22
726.28	3189.54
726.467	3248.93
726.653	3355.43
726.84	3332.9
727.027	3382.05
727.213	3228.45
727.4	3189.54
727.586	3300.13
727.773	3240.74
727.959	3271.46
728.145	3275.56
728.332	3244.84
728.518	3269.41
728.705	3263.27
728.891	3250.98
729.077	3250.98
729.264	3230.5
729.45	3089.19
729.636	3244.84
729.823	3205.92
730.009	3238.69
730.195	3314.47
730.382	3240.74
730.568	3285.8
730.754	3269.41
730.94	3246.88
731.126	3160.87
731.313	3248.93
731.499	3392.29
731.685	3257.12
731.871	3224.36
732.057	3210.02
732.243	3201.83
732.429	3191.59
732.615	3281.7
732.801	3220.26
732.987	3160.87
733.173	3242.79
733.359	3199.78
733.545	3191.59
733.731	3269.41
733.917	3203.88
734.103	3232.55
734.289	3160.87
734.475	3015.46
734.661	3197.73
734.847	3171.11
735.033	3259.17
735.219	3146.53
735.404	3205.92
735.59	3185.44
735.776	3234.6
735.962	3218.21
736.148	3187.49
736.333	3140.39
736.519	3126.05
736.705	3113.77
736.89	3177.25
737.076	3105.57
737.262	3068.71
737.447	3021.61
737.633	3003.18
737.819	3042.09
738.004	3138.34
738.19	3023.66
738.375	3214.12
738.561	3019.56
738.747	3152.68
738.932	3150.63
739.118	3015.46
739.303	2939.69
739.489	2994.98
739.674	2982.7
739.859	3025.7
740.045	2929.45
740.23	2954.02
740.416	2921.26
740.601	3011.37
740.786	2937.64
740.972	2904.87
741.157	2927.4
741.342	2976.55
741.528	2790.19
741.713	2841.39
741.898	2958.12
742.084	2845.48
742.269	2849.58
742.454	2849.58
742.639	2868.01
742.824	2827.05
743.01	2743.08
743.195	2882.35
743.38	2755.37
743.565	2781.99
743.75	2681.64
743.935	2806.57
744.12	2831.15
744.305	2718.51
744.49	2753.32
744.675	2702.12
744.86	2642.73
745.045	2798.38
745.23	2605.87
745.415	2612.01
745.6	2667.31
745.785	2728.75
745.97	2665.26
746.155	2693.93
746.34	2640.69
746.525	2532.14
746.71	2478.9
746.895	2431.79
747.079	2370.35
747.264	2495.28
747.449	2425.65
747.634	2523.95
747.819	2347.83
748.003	2386.74
748.188	2495.28
748.373	2349.87
748.557	2415.41
748.742	2360.11
748.927	2304.82
749.111	2390.83
749.296	2317.11
749.481	2319.15
749.665	2292.53
749.85	2198.32
750.034	2239.28
750.219	2183.99
750.404	2251.57
750.588	2255.67
750.773	2134.84
750.957	2313.01
751.141	2161.46
751.326	2149.17
751.51	2157.36
751.695	2171.7
751.879	2237.24
752.064	2052.92
752.248	2153.27
752.432	2130.74
752.617	2032.44
752.801	1944.38
752.985	1999.67
753.17	1925.94
753.354	2007.86
753.538	1932.09
753.722	2014.01
753.907	1927.99
754.091	1925.94
754.275	1874.74
754.459	1882.94
754.643	1889.08
754.828	1876.79
755.012	1975.1
755.196	1860.41
755.38	1762.11
755.564	1839.93
755.748	1784.63
755.932	1805.11
756.116	1776.44
756.3	1825.59
756.484	1682.24
756.668	1667.9
756.852	1594.17
757.036	1712.96
757.22	1706.81
757.404	1588.03
757.588	1585.98
757.772	1676.09
757.956	1745.72
758.14	1665.85
758.323	1585.98
758.507	1620.8
758.691	1659.71
758.875	1647.42
759.059	1696.57
759.242	1598.27
759.426	1438.53
759.61	1565.5
759.794	1516.35
759.977	1467.2
760.161	1653.56
760.345	1467.2
760.528	1545.02
760.712	1565.5
760.895	1547.07
761.079	1424.19
761.263	1383.23
761.446	1479.49
761.63	1479.49
761.813	1520.45
761.997	1395.52
762.18	1499.97
762.364	1444.67
762.547	1334.08
762.731	1393.47
762.914	1395.52
763.098	1375.04
763.281	1348.42
763.464	1418.05
763.648	1332.03
763.831	1469.25
764.015	1467.2
764.198	1227.59
764.381	1311.55
764.564	1372.99
764.748	1383.23
764.931	1311.55
765.114	1352.51
765.297	1436.48
765.481	1325.89
765.664	1223.49
765.847	1221.44
766.03	1364.8
766.213	1155.91
766.397	1340.22
766.58	1295.17
766.763	1176.39
766.946	1299.27
767.129	1205.06
767.312	1186.63
767.495	1149.76
767.678	1317.7
767.861	1243.97
768.044	1274.69
768.227	1190.72
768.41	1303.36
768.593	1194.82
768.776	1131.33
768.959	1217.35
769.142	1217.35
769.324	1180.48
769.507	1196.87
769.69	1131.33
769.873	1084.23
770.056	1094.47
770.239	1129.28
770.421	1153.86
770.604	1133.38
770.787	1033.03
770.97	1143.62
771.152	1080.13
771.335	1061.7
771.518	1131.33
771.7	1004.36
771.883	1190.72
772.066	1069.89
772.248	1117
772.431	1057.61
772.613	1006.41
772.796	1104.71
772.978	1053.51
773.161	1055.56
773.343	992.07
773.526	1028.93
773.708	904.01
773.891	938.82
774.073	983.88
774.256	994.12
774.438	1039.17
774.621	951.11
774.803	981.83
774.985	904.01
775.168	895.82
775.35	975.69
775.532	910.15
775.715	910.15
775.897	848.71
776.079	811.85
776.261	838.47
776.444	863.05
776.626	865.1
776.808	887.62
776.99	852.81
777.173	865.1
777.355	826.18
777.537	805.71
777.719	861
777.901	764.75
778.083	768.84
778.265	762.7
778.447	815.94
778.629	764.75
778.811	756.55
778.993	791.37
779.175	774.99
779.357	779.08
779.539	658.25
779.721	789.32
779.903	703.31
780.085	770.89
780.267	678.73
780.449	727.88
780.631	783.18
780.812	838.47
780.994	699.21
781.176	664.4
781.358	736.07
781.54	658.25
781.721	709.45
781.903	578.38
782.085	666.44
782.267	748.36
782.448	592.72
782.63	731.98
782.812	719.69
782.993	688.97
783.175	672.59
783.357	656.2
783.538	580.43
783.72	594.76
783.901	635.72
784.083	586.57
784.264	627.53
784.446	545.61
784.627	508.75
784.809	596.81
784.99	564.04
785.172	607.05
785.353	551.76
785.535	541.52
785.716	545.61
785.897	572.24
786.079	529.23
786.26	566.09
786.441	566.09
786.623	553.8
786.804	500.56
786.985	510.8
787.167	537.42
787.348	504.65
787.529	568.14
787.71	531.28
787.891	508.75
788.073	553.8
788.254	492.37
788.435	598.86
788.616	492.37
788.797	408.4
788.978	475.98
789.159	508.75
789.34	521.04
789.522	455.5
789.703	451.41
789.884	523.09
790.065	437.07
790.246	500.56
790.427	451.41
790.607	498.51
790.788	521.04
790.969	340.82
791.15	478.03
791.331	377.68
791.512	394.06
791.693	365.39
791.874	424.78
792.054	494.41
792.235	467.79
792.416	443.21
792.597	383.82
792.778	475.98
792.958	410.45
793.139	398.16
793.32	473.93
793.5	379.73
793.681	449.36
793.862	420.69
794.042	383.82
794.223	336.72
794.404	336.72
794.584	328.53
794.765	340.82
794.945	389.97
795.126	406.35
795.306	453.45
795.487	367.44
795.667	344.91
795.848	365.39
796.028	287.57
796.209	398.16
796.389	332.62
796.57	377.68
796.75	344.91
796.93	441.17
797.111	359.25
797.291	463.69
797.471	412.5
797.652	322.38
797.832	324.43
798.012	430.93
798.192	367.44
798.373	326.48
798.553	297.81
798.733	342.86
798.913	269.14
799.093	332.62
799.274	260.95
799.454	299.86
799.634	275.28
799.814	336.72
799.994	316.24
800.174	351.06
800.354	353.1
800.534	295.76
800.714	336.72
800.894	346.96
801.074	279.38
801.254	353.1
801.434	238.42
801.614	254.8
801.794	260.95
801.974	824.14
802.154	349.01
802.334	318.29
802.514	277.33
802.693	353.1
802.873	279.38
803.053	336.72
803.233	256.85
803.413	293.71
803.592	234.32
803.772	258.9
803.952	328.53
804.131	279.38
804.311	283.47
804.491	230.23
804.67	287.57
804.85	242.51
805.03	256.85
805.209	273.23
805.389	267.09
805.568	279.38
805.748	301.9
805.928	273.23
806.107	244.56
806.287	260.95
806.466	369.49
806.646	219.99
806.825	248.66
807.004	242.51
807.184	250.71
807.363	234.32
807.543	193.36
807.722	246.61
807.901	287.57
808.081	197.46
808.26	244.56
808.439	187.22
808.619	217.94
808.798	228.18
808.977	179.03
809.156	334.67
809.336	201.55
809.515	232.27
809.694	101.2
809.873	275.28
810.052	164.69
810.231	203.6
810.411	236.37
810.59	295.76
810.769	234.32
810.948	287.57
811.127	172.88
811.306	213.84
811.485	156.5
811.664	238.42
811.843	256.85
812.022	142.16
812.201	205.65
812.38	179.03
812.559	142.16
812.737	219.99
812.916	125.78
813.095	164.69
813.274	191.31
813.453	211.79
813.632	144.21
813.811	176.98
813.989	164.69
814.168	123.73
814.347	107.35
814.526	142.16
814.704	205.65
814.883	201.55
815.062	242.51
815.24	222.03
815.419	168.79
815.598	205.65
815.776	226.13
815.955	136.02
816.133	111.44
816.312	226.13
816.49	205.65
816.669	156.5
816.847	160.59
817.026	203.6
817.204	164.69
817.383	215.89
817.561	138.07
817.74	238.42
817.918	181.07
818.097	189.27
818.275	176.98
818.453	119.64
818.632	185.17
818.81	152.4
818.988	168.79
819.167	181.07
819.345	99.16
819.523	82.77
819.701	133.97
819.879	170.83
820.058	168.79
820.236	74.58
820.414	158.55
820.592	162.64
820.77	172.88
820.948	195.41
821.127	117.59
821.305	156.5
821.483	107.35
821.661	86.87
821.839	148.31
822.017	144.21
822.195	121.68
822.373	140.12
822.551	115.54
822.729	252.75
822.907	111.44
823.085	136.02
823.262	185.17
823.44	183.12
823.618	174.93
823.796	129.88
823.974	144.21
824.152	199.51
824.329	125.78
824.507	168.79
824.685	142.16
824.863	125.78
825.04	162.64
825.218	176.98
825.396	119.64
825.574	174.93
825.751	119.64
825.929	144.21
826.107	95.06
826.284	133.97
826.462	109.4
826.639	146.26
826.817	95.06
826.994	62.29
827.172	154.45
827.349	144.21
827.527	113.49
827.704	170.83
827.882	211.79
828.059	107.35
828.237	129.88
828.414	183.12
828.591	72.53
828.769	90.96
828.946	101.2
829.124	105.3
829.301	111.44
829.478	176.98
829.655	115.54
829.833	103.25
830.01	21.33
830.187	168.79
830.364	131.92
830.542	172.88
830.719	156.5
830.896	101.2
831.073	105.3
831.25	148.31
831.427	129.88
831.604	88.92
831.782	82.77
831.959	84.82
832.136	82.77
832.313	50
832.49	76.63
832.667	123.73
832.844	66.39
833.021	111.44
833.198	97.11
833.374	125.78
833.551	80.72
833.728	45.91
833.905	181.07
834.082	97.11
834.259	86.87
834.436	160.59
834.612	123.73
834.789	117.59
834.966	-21.67
835.143	99.16
835.319	95.06
835.496	78.68
835.673	109.4
835.85	88.92
836.026	45.91
836.203	129.88
836.38	152.4
836.556	86.87
836.733	140.12
836.909	90.96
837.086	115.54
837.262	99.16
837.439	60.24
837.616	62.29
837.792	90.96
837.968	156.5
838.145	74.58
838.321	-15.53
838.498	103.25
838.674	140.12
838.851	133.97
839.027	35.67
839.203	7
839.38	115.54
839.556	88.92
839.732	82.77
839.909	76.63
840.085	64.34
840.261	56.15
840.437	60.24
840.614	127.83
840.79	62.29
840.966	39.76
841.142	109.4
841.318	39.76
841.494	131.92
841.671	66.39
841.847	127.83
842.023	27.48
842.199	27.48
842.375	109.4
842.551	27.48
842.727	25.43
842.903	111.44
843.079	74.58
843.255	101.2
843.431	78.68
843.607	78.68
843.783	-9.39
843.959	97.11
844.134	84.82
844.31	93.01
844.486	95.06
844.662	60.24
844.838	76.63
845.013	133.97
845.189	66.39
845.365	164.69
845.541	138.07
845.716	41.81
845.892	35.67
846.068	-11.43
846.244	117.59
846.419	97.11
846.595	25.43
846.77	66.39
846.946	43.86
847.122	99.16
847.297	-15.53
847.473	70.48
847.648	41.81
847.824	29.52
847.999	9.05
848.175	2.9
848.35	72.53
848.526	95.06
848.701	35.67
848.876	41.81
849.052	88.92
849.227	76.63
849.403	93.01
849.578	129.88
849.753	50
849.929	74.58
850.104	-7.34
850.279	86.87
850.454	15.19
850.63	-40.11
850.805	82.77
850.98	107.35
851.155	-7.34
851.33	39.76
851.505	41.81
851.681	144.21
851.856	-15.53
852.031	78.68
852.206	47.96
852.381	64.34
852.556	4.95
852.731	-21.67
852.906	101.2
853.081	54.1
853.256	56.15
853.431	62.29
853.606	33.62
853.781	41.81
853.956	0.85
854.131	0.85
854.305	31.57
854.48	-15.53
854.655	39.76
854.83	64.34
855.005	7
855.18	84.82
855.354	9.05
855.529	60.24
855.704	13.14
855.879	54.1
856.053	-23.72
856.228	78.68
856.403	56.15
856.577	103.25
856.752	74.58
856.926	-3.24
857.101	50
857.276	-3.24
857.45	21.33
857.625	11.09
857.799	43.86
857.974	23.38
858.148	54.1
858.323	82.77
858.497	47.96
858.672	17.24
858.846	-7.34
859.02	82.77
859.195	-17.58
859.369	72.53
859.543	95.06
859.718	72.53
859.892	70.48
860.066	62.29
860.241	-66.73
860.415	27.48
860.589	0.85
860.763	4.95
860.938	70.48
861.112	21.33
861.286	50
861.46	4.95
861.634	74.58
861.808	13.14
861.982	37.72
862.157	-36.01
862.331	9.05
862.505	31.57
862.679	-9.39
862.853	9.05
863.027	62.29
863.201	31.57
863.375	-11.43
863.549	35.67
863.722	37.72
863.896	33.62
864.07	11.09
864.244	58.2
864.418	25.43
864.592	62.29
864.766	80.72
864.939	66.39
865.113	-19.63
865.287	19.29
865.461	54.1
865.634	76.63
865.808	25.43
865.982	95.06
866.156	35.67
866.329	17.24
866.503	56.15
866.676	50
866.85	60.24
867.024	82.77
867.197	11.09
867.371	27.48
867.544	0.85
867.718	21.33
867.891	13.14
868.065	-40.11
868.238	-7.34
868.412	27.48
868.585	15.19
868.759	58.2
868.932	43.86
869.105	11.09
869.279	-3.24
869.452	2.9
869.625	109.4
869.799	-33.96
869.972	21.33
870.145	9.05
870.319	68.44
870.492	41.81
870.665	0.85
870.838	21.33
871.011	58.2
871.185	41.81
871.358	37.72
871.531	-3.24
871.704	-70.83
871.877	62.29
872.05	-7.34
872.223	-17.58
872.396	-19.63
872.569	35.67
872.742	17.24
872.915	66.39
873.088	-3.24
873.261	-52.39
873.434	88.92
873.607	4.95
873.78	115.54
873.953	-9.39
874.126	-89.26
874.299	47.96
874.471	11.09
874.644	25.43
874.817	58.2
874.99	70.48
875.163	27.48
875.335	25.43
875.508	-27.82
875.681	35.67
875.853	47.96
876.026	31.57
876.199	-27.82
876.371	50
876.544	-5.29
876.717	-9.39
876.889	33.62
877.062	0.85
877.234	-15.53
877.407	35.67
877.579	9.05
877.752	56.15
877.924	70.48
878.097	64.34
878.269	-27.82
878.442	33.62
878.614	72.53
878.786	41.81
878.959	93.01
879.131	-13.48
879.303	45.91
879.476	50
879.648	9.05
879.82	23.38
879.993	41.81
880.165	-5.29
880.337	4.95
880.509	27.48
880.681	4.95
880.854	52.05
881.026	0.85
881.198	15.19
881.37	11.09
881.542	52.05
881.714	-5.29
881.886	9.05
882.058	2.9
882.23	41.81
882.402	-76.97
882.574	45.91
882.746	74.58
882.918	45.91
883.09	33.62
883.262	13.14
883.434	-11.43
883.606	-27.82
883.778	2.9
883.95	17.24
884.122	-44.2
884.293	31.57
884.465	-72.87
884.637	29.52
884.809	-7.34
884.98	4.95
885.152	-19.63
885.324	52.05
885.496	-48.3
885.667	9.05
885.839	-1.19
886.011	-23.72
886.182	19.29
886.354	84.82
886.525	66.39
886.697	109.4
886.869	0.85
887.04	-36.01
887.212	15.19
887.383	39.76
887.555	17.24
887.726	50
887.897	21.33
888.069	17.24
888.24	7
888.412	-48.3
888.583	-11.43
888.754	-9.39
888.926	-48.3
889.097	13.14
889.268	17.24
889.44	56.15
889.611	-46.25
889.782	-31.91
889.953	39.76
890.125	4.95
890.296	-91.31
890.467	45.91
890.638	9.05
890.809	-7.34
890.98	37.72
891.151	-9.39
891.323	17.24
891.494	-3.24
891.665	29.52
891.836	86.87
892.007	-33.96
892.178	41.81
892.349	21.33
892.52	-38.06
892.691	2.9
892.862	-3.24
893.032	-15.53
893.203	29.52
893.374	-40.11
893.545	60.24
893.716	21.33
893.887	70.48
894.057	-40.11
894.228	88.92
894.399	17.24
894.57	56.15
894.74	-13.48
894.911	15.19
895.082	-9.39
895.253	39.76
895.423	72.53
895.594	33.62
895.764	33.62
895.935	-13.48
896.106	-54.44
896.276	21.33
896.447	-27.82
896.617	-25.77
896.788	-31.91
896.958	-74.92
897.129	-27.82
897.299	-68.78
897.47	-40.11
897.64	97.11
897.81	41.81
897.981	13.14
898.151	-7.34
898.322	-25.77
898.492	-23.72
898.662	66.39
898.832	27.48
899.003	25.43
899.173	-36.01
899.343	29.52
899.513	-9.39
