Data from USB4F104151__238__10-30-35-782.txt Node

Date: Wed Mar 12 10:30:35 EDT 2025
User: louis
Spectrometer: USB4F10415
Trigger mode: 4
Integration Time (sec): 3.000000E-2
Scans to average: 1
Electric dark correction enabled: true
Nonlinearity correction enabled: false
Boxcar width: 0
XAxis mode: Wavelengths
Number of Pixels in Spectrum: 3648
>>>>>Begin Spectral Data<<<<<
178.204	-75.09
178.424	-75.09
178.644	-75.09
178.864	-79.19
179.084	-124.24
179.304	-17.75
179.524	84.65
179.744	-44.37
179.964	23.21
180.184	23.21
180.404	6.83
180.624	23.21
180.844	-11.61
181.064	17.07
181.283	-44.37
181.503	-58.71
181.723	-1.37
181.943	-64.85
182.163	37.55
182.383	-13.65
182.602	82.6
182.822	94.89
183.042	39.59
183.262	29.35
183.482	103.08
183.701	-1.37
183.921	17.07
184.141	31.4
184.361	131.75
184.58	62.12
184.8	10.92
185.02	105.13
185.239	6.83
185.459	29.35
185.679	86.7
185.898	-79.19
186.118	66.22
186.338	37.55
186.557	86.7
186.777	31.4
186.997	31.4
187.216	60.07
187.436	90.79
187.655	78.51
187.875	103.08
188.095	-34.13
188.314	43.69
188.534	72.36
188.753	53.93
188.973	64.17
189.192	113.32
189.412	92.84
189.631	88.75
189.851	-13.65
190.07	58.03
190.29	101.03
190.509	80.55
190.729	92.84
190.948	78.51
191.168	135.85
191.387	23.21
191.607	70.31
191.826	47.79
192.045	-30.04
192.265	27.31
192.484	-13.65
192.704	43.69
192.923	19.11
193.142	133.8
193.362	37.55
193.581	117.42
193.8	125.61
194.02	123.56
194.239	107.18
194.458	129.7
194.678	39.59
194.897	43.69
195.116	-9.56
195.335	162.47
195.555	84.65
195.774	29.35
195.993	76.46
196.212	49.83
196.432	43.69
196.651	35.5
196.87	55.98
197.089	90.79
197.308	64.17
197.528	92.84
197.747	-13.65
197.966	58.03
198.185	64.17
198.404	31.4
198.623	74.41
198.842	55.98
199.062	90.79
199.281	98.99
199.5	53.93
199.719	72.36
199.938	80.55
200.157	64.17
200.376	-5.46
200.595	137.9
200.814	19.11
201.033	21.16
201.252	92.84
201.471	68.27
201.69	78.51
201.909	98.99
202.128	49.83
202.347	74.41
202.566	60.07
202.785	60.07
203.004	43.69
203.223	158.38
203.442	101.03
203.661	113.32
203.879	64.17
204.098	148.14
204.317	17.07
204.536	109.22
204.755	15.02
204.974	76.46
205.193	53.93
205.411	146.09
205.63	94.89
205.849	94.89
206.068	23.21
206.287	60.07
206.505	133.8
206.724	55.98
206.943	72.36
207.162	23.21
207.381	19.11
207.599	78.51
207.818	68.27
208.037	-7.51
208.255	121.51
208.474	35.5
208.693	-21.85
208.911	47.79
209.13	47.79
209.349	74.41
209.567	103.08
209.786	139.94
210.005	15.02
210.223	76.46
210.442	62.12
210.661	55.98
210.879	53.93
211.098	119.46
211.316	84.65
211.535	180.9
211.753	51.88
211.972	53.93
212.191	15.02
212.409	80.55
212.628	29.35
212.846	19.11
213.065	121.51
213.283	156.33
213.502	-38.23
213.72	58.03
213.938	55.98
214.157	33.45
214.375	74.41
214.594	70.31
214.812	55.98
215.031	70.31
215.249	88.75
215.467	86.7
215.686	88.75
215.904	-1.37
216.122	29.35
216.341	125.61
216.559	53.93
216.778	150.18
216.996	62.12
217.214	66.22
217.432	121.51
217.651	96.94
217.869	84.65
218.087	90.79
218.306	64.17
218.524	64.17
218.742	127.66
218.96	82.6
219.179	107.18
219.397	27.31
219.615	60.07
219.833	121.51
220.051	33.45
220.27	131.75
220.488	66.22
220.706	88.75
220.924	88.75
221.142	35.5
221.36	2.73
221.578	21.16
221.796	84.65
222.015	25.26
222.233	31.4
222.451	94.89
222.669	35.5
222.887	23.21
223.105	-13.65
223.323	39.59
223.541	25.26
223.759	27.31
223.977	27.31
224.195	6.83
224.413	94.89
224.631	33.45
224.849	82.6
225.067	90.79
225.285	78.51
225.503	70.31
225.721	0.68
225.939	64.17
226.157	68.27
226.375	160.42
226.592	49.83
226.81	45.74
227.028	127.66
227.246	146.09
227.464	58.03
227.682	156.33
227.9	45.74
228.117	121.51
228.335	64.17
228.553	55.98
228.771	64.17
228.989	146.09
229.206	55.98
229.424	37.55
229.642	19.11
229.86	84.65
230.077	27.31
230.295	80.55
230.513	39.59
230.731	39.59
230.948	17.07
231.166	113.32
231.384	82.6
231.601	60.07
231.819	119.46
232.037	2.73
232.254	105.13
232.472	47.79
232.689	64.17
232.907	45.74
233.125	84.65
233.342	35.5
233.56	31.4
233.777	45.74
233.995	72.36
234.213	96.94
234.43	0.68
234.648	64.17
234.865	53.93
235.083	72.36
235.3	86.7
235.518	37.55
235.735	45.74
235.953	103.08
236.17	129.7
236.388	37.55
236.605	86.7
236.822	103.08
237.04	94.89
237.257	64.17
237.475	31.4
237.692	51.88
237.909	88.75
238.127	49.83
238.344	82.6
238.562	43.69
238.779	53.93
238.996	-3.41
239.214	49.83
239.431	41.64
239.648	31.4
239.865	70.31
240.083	105.13
240.3	72.36
240.517	23.21
240.735	109.22
240.952	101.03
241.169	80.55
241.386	53.93
241.603	86.7
241.821	45.74
242.038	88.75
242.255	39.59
242.472	41.64
242.689	62.12
242.907	150.18
243.124	72.36
243.341	43.69
243.558	90.79
243.775	37.55
243.992	-1.37
244.209	98.99
244.426	109.22
244.643	129.7
244.86	80.55
245.078	-5.46
245.295	88.75
245.512	55.98
245.729	23.21
245.946	64.17
246.163	86.7
246.38	101.03
246.597	25.26
246.814	29.35
247.031	6.83
247.248	109.22
247.464	86.7
247.681	64.17
247.898	74.41
248.115	123.56
248.332	-5.46
248.549	29.35
248.766	6.83
248.983	78.51
249.2	25.26
249.417	96.94
249.633	113.32
249.85	103.08
250.067	-5.46
250.284	109.22
250.501	189.1
250.717	29.35
250.934	45.74
251.151	94.89
251.368	6.83
251.585	133.8
251.801	82.6
252.018	74.41
252.235	119.46
252.451	33.45
252.668	51.88
252.885	66.22
253.102	55.98
253.318	-17.75
253.535	47.79
253.752	64.17
253.968	47.79
254.185	137.9
254.401	94.89
254.618	53.93
254.835	53.93
255.051	96.94
255.268	62.12
255.484	64.17
255.701	41.64
255.917	62.12
256.134	-13.65
256.351	74.41
256.567	74.41
256.784	45.74
257	-9.56
257.217	144.04
257.433	8.87
257.65	29.35
257.866	-13.65
258.082	88.75
258.299	51.88
258.515	29.35
258.732	27.31
258.948	72.36
259.165	39.59
259.381	58.03
259.597	68.27
259.814	53.93
260.03	127.66
260.246	35.5
260.463	94.89
260.679	117.42
260.895	33.45
261.112	86.7
261.328	129.7
261.544	94.89
261.761	60.07
261.977	117.42
262.193	49.83
262.409	129.7
262.626	70.31
262.842	68.27
263.058	107.18
263.274	35.5
263.49	60.07
263.707	92.84
263.923	78.51
264.139	111.27
264.355	78.51
264.571	55.98
264.787	53.93
265.004	96.94
265.22	27.31
265.436	88.75
265.652	37.55
265.868	82.6
266.084	39.59
266.3	29.35
266.516	27.31
266.732	62.12
266.948	80.55
267.164	51.88
267.38	84.65
267.596	60.07
267.812	115.37
268.028	84.65
268.244	121.51
268.46	92.84
268.676	-11.61
268.892	12.97
269.108	94.89
269.324	39.59
269.54	96.94
269.756	84.65
269.972	-9.56
270.188	72.36
270.403	43.69
270.619	96.94
270.835	88.75
271.051	43.69
271.267	-3.41
271.483	76.46
271.698	68.27
271.914	55.98
272.13	15.02
272.346	25.26
272.562	45.74
272.777	148.14
272.993	31.4
273.209	31.4
273.425	27.31
273.64	49.83
273.856	96.94
274.072	39.59
274.287	-9.56
274.503	121.51
274.719	121.51
274.934	23.21
275.15	6.83
275.366	80.55
275.581	27.31
275.797	70.31
276.012	55.98
276.228	96.94
276.444	111.27
276.659	94.89
276.875	-3.41
277.09	92.84
277.306	-25.94
277.521	68.27
277.737	92.84
277.952	103.08
278.168	66.22
278.383	119.46
278.599	2.73
278.814	64.17
279.03	88.75
279.245	141.99
279.461	119.46
279.676	111.27
279.892	103.08
280.107	-54.61
280.322	92.84
280.538	117.42
280.753	74.41
280.969	96.94
281.184	113.32
281.399	64.17
281.615	37.55
281.83	146.09
282.045	64.17
282.26	72.36
282.476	113.32
282.691	78.51
282.906	-21.85
283.122	21.16
283.337	39.59
283.552	64.17
283.767	86.7
283.983	64.17
284.198	39.59
284.413	64.17
284.628	29.35
284.843	78.51
285.058	119.46
285.274	72.36
285.489	23.21
285.704	68.27
285.919	39.59
286.134	107.18
286.349	43.69
286.564	23.21
286.779	78.51
286.995	66.22
287.21	39.59
287.425	35.5
287.64	84.65
287.855	47.79
288.07	-42.32
288.285	101.03
288.5	37.55
288.715	35.5
288.93	60.07
289.145	33.45
289.36	96.94
289.575	96.94
289.79	53.93
290.004	15.02
290.219	111.27
290.434	41.64
290.649	-15.7
290.864	53.93
291.079	55.98
291.294	148.14
291.509	55.98
291.724	35.5
291.938	101.03
292.153	8.87
292.368	62.12
292.583	115.37
292.798	66.22
293.012	55.98
293.227	72.36
293.442	31.4
293.657	96.94
293.871	76.46
294.086	109.22
294.301	107.18
294.516	80.55
294.73	131.75
294.945	76.46
295.16	39.59
295.374	31.4
295.589	96.94
295.804	58.03
296.018	96.94
296.233	176.81
296.447	12.97
296.662	92.84
296.877	96.94
297.091	121.51
297.306	74.41
297.52	72.36
297.735	41.64
297.949	-7.51
298.164	107.18
298.378	58.03
298.593	-5.46
298.807	21.16
299.022	141.99
299.236	80.55
299.451	64.17
299.665	51.88
299.88	47.79
300.094	37.55
300.309	92.84
300.523	47.79
300.737	43.69
300.952	119.46
301.166	82.6
301.381	27.31
301.595	6.83
301.809	49.83
302.024	51.88
302.238	51.88
302.452	64.17
302.667	39.59
302.881	90.79
303.095	68.27
303.309	113.32
303.524	70.31
303.738	35.5
303.952	23.21
304.166	29.35
304.381	19.11
304.595	80.55
304.809	33.45
305.023	86.7
305.237	113.32
305.452	68.27
305.666	29.35
305.88	103.08
306.094	90.79
306.308	96.94
306.522	88.75
306.736	111.27
306.95	117.42
307.164	82.6
307.379	60.07
307.593	119.46
307.807	88.75
308.021	86.7
308.235	43.69
308.449	76.46
308.663	37.55
308.877	156.33
309.091	43.69
309.305	111.27
309.519	109.22
309.733	121.51
309.947	121.51
310.161	139.94
310.374	51.88
310.588	123.56
310.802	4.78
311.016	2.73
311.23	111.27
311.444	80.55
311.658	0.68
311.872	94.89
312.085	43.69
312.299	66.22
312.513	101.03
312.727	154.28
312.941	70.31
313.154	53.93
313.368	66.22
313.582	68.27
313.796	10.92
314.009	70.31
314.223	23.21
314.437	94.89
314.651	39.59
314.864	45.74
315.078	90.79
315.292	58.03
315.505	45.74
315.719	117.42
315.933	60.07
316.146	35.5
316.36	43.69
316.573	105.13
316.787	72.36
317.001	82.6
317.214	6.83
317.428	154.28
317.641	17.07
317.855	31.4
318.068	6.83
318.282	60.07
318.495	74.41
318.709	86.7
318.922	72.36
319.136	105.13
319.349	10.92
319.563	84.65
319.776	55.98
319.99	101.03
320.203	105.13
320.417	103.08
320.63	35.5
320.843	150.18
321.057	96.94
321.27	33.45
321.483	62.12
321.697	129.7
321.91	133.8
322.124	27.31
322.337	43.69
322.55	107.18
322.763	70.31
322.977	92.84
323.19	88.75
323.403	70.31
323.617	123.56
323.83	76.46
324.043	10.92
324.256	121.51
324.469	94.89
324.683	86.7
324.896	58.03
325.109	25.26
325.322	43.69
325.535	139.94
325.748	127.66
325.962	88.75
326.175	92.84
326.388	94.89
326.601	121.51
326.814	96.94
327.027	94.89
327.24	119.46
327.453	51.88
327.666	55.98
327.879	139.94
328.092	49.83
328.305	12.97
328.518	105.13
328.731	37.55
328.944	133.8
329.157	117.42
329.37	80.55
329.583	166.57
329.796	129.7
330.009	72.36
330.222	150.18
330.435	146.09
330.648	119.46
330.861	84.65
331.073	68.27
331.286	76.46
331.499	62.12
331.712	15.02
331.925	64.17
332.138	76.46
332.35	129.7
332.563	62.12
332.776	139.94
332.989	105.13
333.202	86.7
333.414	103.08
333.627	45.74
333.84	113.32
334.053	-9.56
334.265	111.27
334.478	51.88
334.691	76.46
334.903	80.55
335.116	4.78
335.329	33.45
335.541	144.04
335.754	94.89
335.966	55.98
336.179	68.27
336.392	96.94
336.604	68.27
336.817	82.6
337.029	47.79
337.242	23.21
337.454	70.31
337.667	98.99
337.88	146.09
338.092	55.98
338.305	115.37
338.517	37.55
338.729	88.75
338.942	111.27
339.154	31.4
339.367	51.88
339.579	80.55
339.792	31.4
340.004	80.55
340.217	45.74
340.429	103.08
340.641	21.16
340.854	23.21
341.066	58.03
341.278	150.18
341.491	127.66
341.703	213.67
341.915	72.36
342.128	113.32
342.34	51.88
342.552	82.6
342.764	117.42
342.977	96.94
343.189	96.94
343.401	121.51
343.613	21.16
343.826	74.41
344.038	23.21
344.25	113.32
344.462	47.79
344.674	45.74
344.886	55.98
345.099	98.99
345.311	113.32
345.523	101.03
345.735	-5.46
345.947	72.36
346.159	68.27
346.371	92.84
346.583	84.65
346.795	152.23
347.007	86.7
347.219	72.36
347.431	109.22
347.643	94.89
347.855	76.46
348.067	125.61
348.279	72.36
348.491	76.46
348.703	80.55
348.915	37.55
349.127	90.79
349.339	78.51
349.551	101.03
349.763	148.14
349.975	43.69
350.187	88.75
350.399	39.59
350.61	105.13
350.822	127.66
351.034	105.13
351.246	101.03
351.458	47.79
351.669	109.22
351.881	80.55
352.093	86.7
352.305	164.52
352.517	98.99
352.728	162.47
352.94	33.45
353.152	64.17
353.363	2.73
353.575	101.03
353.787	133.8
353.999	29.35
354.21	76.46
354.422	2.73
354.633	58.03
354.845	105.13
355.057	105.13
355.268	103.08
355.48	39.59
355.692	96.94
355.903	62.12
356.115	-7.51
356.326	144.04
356.538	47.79
356.749	86.7
356.961	137.9
357.172	37.55
357.384	68.27
357.595	41.64
357.807	84.65
358.018	41.64
358.23	125.61
358.441	55.98
358.653	68.27
358.864	119.46
359.075	88.75
359.287	-30.04
359.498	64.17
359.709	127.66
359.921	141.99
360.132	68.27
360.344	117.42
360.555	88.75
360.766	66.22
360.977	62.12
361.189	96.94
361.4	105.13
361.611	127.66
361.823	105.13
362.034	107.18
362.245	113.32
362.456	129.7
362.667	162.47
362.879	23.21
363.09	86.7
363.301	76.46
363.512	39.59
363.723	117.42
363.935	80.55
364.146	137.9
364.357	80.55
364.568	96.94
364.779	53.93
364.99	55.98
365.201	-13.65
365.412	78.51
365.623	68.27
365.834	84.65
366.045	80.55
366.256	78.51
366.467	105.13
366.678	53.93
366.889	135.85
367.1	86.7
367.311	144.04
367.522	92.84
367.733	6.83
367.944	119.46
368.155	88.75
368.366	121.51
368.577	141.99
368.788	92.84
368.999	76.46
369.209	70.31
369.42	117.42
369.631	68.27
369.842	2.73
370.053	43.69
370.264	88.75
370.474	72.36
370.685	80.55
370.896	119.46
371.107	141.99
371.317	109.22
371.528	86.7
371.739	144.04
371.95	86.7
372.16	68.27
372.371	47.79
372.582	135.85
372.792	117.42
373.003	107.18
373.214	37.55
373.424	199.34
373.635	45.74
373.846	123.56
374.056	72.36
374.267	41.64
374.477	39.59
374.688	80.55
374.898	94.89
375.109	55.98
375.319	74.41
375.53	141.99
375.74	127.66
375.951	51.88
376.161	45.74
376.372	88.75
376.582	103.08
376.793	92.84
377.003	19.11
377.214	37.55
377.424	119.46
377.635	84.65
377.845	98.99
378.055	113.32
378.266	33.45
378.476	139.94
378.686	113.32
378.897	166.57
379.107	127.66
379.317	80.55
379.528	37.55
379.738	156.33
379.948	25.26
380.158	125.61
380.369	72.36
380.579	72.36
380.789	113.32
380.999	105.13
381.21	154.28
381.42	127.66
381.63	131.75
381.84	70.31
382.05	23.21
382.261	119.46
382.471	121.51
382.681	29.35
382.891	178.86
383.101	107.18
383.311	109.22
383.521	80.55
383.731	137.9
383.941	139.94
384.151	80.55
384.361	80.55
384.571	94.89
384.781	176.81
384.991	107.18
385.201	154.28
385.411	144.04
385.621	117.42
385.831	43.69
386.041	131.75
386.251	94.89
386.461	146.09
386.671	80.55
386.881	94.89
387.091	90.79
387.301	98.99
387.511	94.89
387.72	35.5
387.93	68.27
388.14	131.75
388.35	58.03
388.56	107.18
388.769	146.09
388.979	98.99
389.189	123.56
389.399	160.42
389.609	90.79
389.818	150.18
390.028	17.07
390.238	141.99
390.447	113.32
390.657	117.42
390.867	31.4
391.076	189.1
391.286	144.04
391.496	90.79
391.705	119.46
391.915	182.95
392.125	121.51
392.334	37.55
392.544	96.94
392.753	131.75
392.963	150.18
393.172	86.7
393.382	31.4
393.591	211.62
393.801	64.17
394.01	195.24
394.22	121.51
394.429	187.05
394.639	170.66
394.848	78.51
395.058	139.94
395.267	144.04
395.477	113.32
395.686	152.23
395.895	162.47
396.105	234.15
396.314	121.51
396.524	129.7
396.733	162.47
396.942	162.47
397.152	150.18
397.361	72.36
397.57	86.7
397.78	152.23
397.989	225.96
398.198	211.62
398.407	164.52
398.617	207.53
398.826	203.43
399.035	135.85
399.244	154.28
399.453	185
399.663	121.51
399.872	152.23
400.081	146.09
400.29	125.61
400.499	158.38
400.708	137.9
400.917	129.7
401.127	127.66
401.336	119.46
401.545	141.99
401.754	182.95
401.963	187.05
402.172	121.51
402.381	170.66
402.59	133.8
402.799	223.91
403.008	228.01
403.217	234.15
403.426	219.82
403.635	125.61
403.844	127.66
404.053	207.53
404.262	168.62
404.471	236.2
404.68	221.86
404.888	219.82
405.097	230.06
405.306	215.72
405.515	195.24
405.724	201.38
405.933	260.77
406.142	205.48
406.35	225.96
406.559	262.82
406.768	246.44
406.977	332.45
407.185	225.96
407.394	305.83
407.603	170.66
407.812	303.78
408.02	311.97
408.229	260.77
408.438	266.92
408.646	311.97
408.855	277.16
409.064	316.07
409.272	299.69
409.481	281.25
409.69	406.18
409.898	354.98
410.107	418.47
410.315	424.61
410.524	367.27
410.733	492.2
410.941	424.61
411.15	432.8
411.358	459.43
411.567	512.67
411.775	430.76
411.984	492.2
412.192	549.54
412.401	506.53
412.609	625.31
412.818	539.3
413.026	582.31
413.234	625.31
413.443	574.11
413.651	627.36
413.86	676.51
414.068	707.23
414.276	731.81
414.485	731.81
414.693	752.29
414.901	852.64
415.11	809.63
415.318	834.21
415.526	869.02
415.734	879.26
415.943	893.6
416.151	1043.1
416.359	991.9
416.567	1112.73
416.776	1075.87
416.984	1120.92
417.192	1157.79
417.4	1139.35
417.608	1118.87
417.817	1079.96
418.025	1348.25
418.233	1432.21
418.441	1251.99
418.649	1329.81
418.857	1479.32
419.065	1436.31
419.273	1485.46
419.481	1643.15
419.689	1712.78
419.897	1591.95
420.105	1790.61
420.313	1700.5
420.521	1872.53
420.729	1938.06
420.937	1874.57
421.145	2050.7
421.353	2126.47
421.561	2183.82
421.769	2202.25
421.977	2310.79
422.185	2347.65
422.393	2386.57
422.601	2560.64
422.809	2609.79
423.017	2630.27
423.224	2747.01
423.432	2898.56
423.64	2837.12
423.848	3062.4
424.056	2882.17
424.263	3250.81
424.471	3240.57
424.679	3349.11
424.887	3471.99
425.094	3488.37
425.302	3598.96
425.51	3850.86
425.718	3830.38
425.925	3861.1
426.133	4000.37
426.341	4319.85
426.548	4405.86
426.756	4393.58
426.964	4452.97
427.171	4745.83
427.379	4700.77
427.586	5063.26
427.794	4993.63
428.001	5155.42
428.209	5458.52
428.417	5544.53
428.624	5810.77
428.832	5884.5
429.039	5778
429.247	5900.88
429.454	6425.16
429.662	6763.08
429.869	6322.76
430.076	6820.42
430.284	6654.53
430.491	6959.68
430.699	7346.75
430.906	7424.57
431.114	7295.55
431.321	7787.06
431.528	7742
431.736	8206.89
431.943	8712.74
432.15	8530.47
432.358	8466.99
432.565	8981.03
432.772	8935.97
432.979	9366.04
433.187	9443.87
433.394	9585.18
433.601	10197.52
433.808	10295.82
434.016	10093.07
434.223	10512.91
434.43	11135.49
434.637	10975.75
434.844	11624.95
435.052	11950.58
435.259	11839.99
435.466	12112.37
435.673	11915.76
435.88	12630.51
436.087	13390.3
436.294	13203.94
436.501	12917.22
436.708	13384.16
436.915	13597.15
437.122	14053.84
437.329	14221.78
437.537	14846.41
437.743	15163.84
437.95	14690.76
438.157	15575.48
438.364	16087.48
438.571	16056.76
438.778	16105.91
438.985	17695.13
439.192	16939.43
439.399	17394.08
439.606	17338.79
439.813	18155.93
440.02	19468.67
440.227	18913.67
440.433	18604.43
440.64	19188.1
440.847	18938.25
441.054	19288.45
441.261	20797.81
441.467	20550
441.674	21285.22
441.881	21852.51
442.088	21776.73
442.294	21586.27
442.501	22018.39
442.708	22710.61
442.914	23472.45
443.121	24744.24
443.328	23529.8
443.534	25671.97
443.741	24955.18
443.948	24496.44
444.154	25942.3
444.361	25884.96
444.568	26407.19
444.774	26030.37
444.981	26399
445.187	26943.76
445.394	28571.89
445.6	27943.17
445.807	30564.57
446.013	29319.4
446.22	29808.87
446.426	30871.76
446.633	31201.49
446.839	32188.61
447.046	30990.55
447.252	32622.78
447.459	32958.64
447.665	32559.29
447.871	33593.51
448.078	35442.83
448.284	33618.09
448.491	34246.82
448.697	35764.36
448.903	36280.45
449.11	36378.75
449.316	35887.24
449.522	36554.88
449.728	37568.62
449.935	37734.51
450.141	37824.62
450.347	38226.02
450.553	37134.45
450.76	37873.77
450.966	38778.97
451.172	38504.54
451.378	39161.94
451.584	38586.46
451.791	39514.19
451.997	39422.03
452.203	40075.34
452.409	39940.17
452.615	39645.26
452.821	37990.5
453.027	38004.84
453.233	39829.58
453.44	38068.33
453.646	38846.55
453.852	38793.31
454.058	39370.83
454.264	37855.34
454.47	38969.43
454.676	37779.56
454.882	39168.08
455.088	35502.22
455.294	36325.5
455.5	36595.84
455.705	37261.43
455.911	35291.28
456.117	34979.99
456.323	34709.66
456.529	32229.57
456.735	33869.99
456.941	32956.6
457.147	32522.43
457.352	31529.16
457.558	31113.42
457.764	31449.29
457.97	30542.04
458.176	30157.02
458.381	29880.55
458.587	28393.72
458.793	28848.37
458.999	26962.19
459.204	28938.48
459.41	28498.17
459.616	26628.37
459.821	26413.34
460.027	26476.82
460.233	25606.44
460.438	24502.58
460.644	24645.94
460.85	23454.02
461.055	22958.41
461.261	23159.11
461.466	21578.08
461.672	20779.37
461.878	22290.77
462.083	20998.51
462.289	20607.34
462.494	20314.48
462.7	19440
462.905	18909.58
463.111	19915.13
463.316	19843.45
463.522	19179.91
463.727	19102.09
463.932	19249.54
464.138	19122.57
464.343	18958.73
464.549	18452.88
464.754	19194.25
464.959	18837.9
465.165	18971.02
465.37	18096.53
465.575	17590.69
465.781	18114.97
465.986	18618.77
466.191	17918.36
466.397	17285.54
466.602	16654.76
466.807	17050.02
467.012	17228.2
467.218	17269.16
467.423	16875.95
467.628	16914.86
467.833	17498.53
468.038	17037.73
468.244	16562.61
468.449	17199.52
468.654	16339.38
468.859	16607.66
469.064	16497.07
469.269	15970.74
469.474	16030.13
469.679	16124.34
469.885	15608.25
470.09	15890.87
470.295	15909.3
470.5	15505.85
470.705	15602.11
470.91	15329.73
471.115	15034.82
471.32	15452.61
471.525	15294.91
471.73	15006.15
471.935	14909.9
472.139	14348.75
472.344	14336.46
472.549	14301.65
472.754	14229.97
472.959	13820.38
473.164	13668.83
473.369	13582.81
473.574	14096.85
473.778	13871.57
473.983	13687.26
474.188	13693.4
474.393	12616.17
474.598	13025.76
474.802	13001.19
475.007	12863.97
475.212	12888.55
475.417	12280.3
475.621	12538.35
475.826	12323.31
476.031	12323.31
476.235	11893.24
476.44	12251.63
476.645	11917.81
476.849	12112.37
477.054	11684.34
477.259	11616.76
477.463	11497.98
477.668	11325.95
477.872	11555.32
478.077	11194.88
478.282	10881.54
478.486	10955.27
478.691	10887.68
478.895	10813.96
479.1	10852.87
479.304	10664.46
479.509	10584.59
479.713	10539.53
479.918	10234.38
480.122	10246.67
480.326	10336.78
480.531	10674.7
480.735	10232.33
480.94	10320.4
481.144	10635.78
481.348	10230.29
481.553	10314.25
481.757	10045.97
481.961	10144.27
482.166	10275.34
482.37	10244.62
482.574	10103.31
482.778	10164.75
482.983	10369.55
483.187	10054.16
483.391	10158.61
483.595	10193.42
483.8	9716.25
484.004	10144.27
484.208	10365.45
484.412	10058.26
484.616	10156.56
484.821	10111.5
485.025	9820.69
485.229	10146.32
485.433	9968.15
485.637	10021.39
485.841	10025.49
486.045	9998.87
486.249	10349.07
486.453	9771.54
486.657	9902.61
486.861	10197.52
487.065	9751.06
487.269	10152.46
487.473	9935.38
487.677	10177.04
487.881	10250.77
488.085	10095.12
488.289	10289.68
488.493	9951.76
488.697	10277.39
488.901	10019.35
489.105	10191.38
489.309	10156.56
489.512	10238.48
489.716	10017.3
489.92	10158.61
490.124	10181.14
490.328	10502.67
490.531	10349.07
490.735	10385.93
490.939	10441.23
491.143	10158.61
491.346	10347.02
491.55	10568.2
491.754	10572.3
491.958	10562.06
492.161	10570.25
492.365	10648.07
492.569	10596.87
492.772	10660.36
492.976	10723.85
493.18	10842.63
493.383	10934.79
493.587	11196.93
493.79	11098.63
493.994	11008.51
494.197	10965.51
494.401	11213.31
494.605	11377.15
494.808	11389.44
495.012	11346.43
495.215	11383.29
495.419	11348.48
495.622	11485.69
495.825	11643.38
496.029	11987.44
496.232	12247.54
496.436	11885.05
496.639	12290.54
496.843	12188.14
497.046	12591.59
497.249	12683.75
497.453	12894.69
497.656	12890.6
497.859	12874.21
498.063	12823.01
498.266	13240.8
498.469	13234.66
498.673	13406.69
498.876	13498.84
499.079	13627.87
499.282	13773.27
499.485	14051.8
499.689	14080.47
499.892	14406.09
500.095	14307.79
500.298	14813.64
500.501	14469.58
500.705	14973.38
500.908	15053.25
501.111	15483.33
501.314	15370.69
501.517	15446.46
501.72	15843.77
501.923	15573.44
502.126	16202.16
502.329	16234.93
502.532	16597.42
502.735	16857.51
502.938	16773.55
503.141	16900.52
503.344	17363.36
503.547	17185.19
503.75	17453.47
503.953	17539.49
504.156	17936.79
504.359	18151.83
504.562	18008.47
504.765	18809.23
504.968	18692.49
505.17	19132.81
505.373	19009.93
505.576	19329.41
505.779	19659.13
505.982	19906.94
506.185	20158.84
506.387	20152.7
506.59	20529.52
506.793	21010.79
506.996	20851.05
507.198	21285.22
507.401	21240.17
507.604	21709.15
507.807	21786.97
508.009	22100.31
508.212	22471
508.415	22665.55
508.617	22546.77
508.82	23040.33
509.022	22829.39
509.225	23427.4
509.428	23724.35
509.63	23834.94
509.833	23867.71
510.035	24643.89
510.238	24185.15
510.44	25045.29
510.643	25325.86
510.845	25415.97
511.048	25293.1
511.25	25651.49
511.453	25993.5
511.655	27009.29
511.858	26663.19
512.06	26687.76
512.262	27330.83
512.465	26917.14
512.667	27582.73
512.87	27771.14
513.072	28066.05
513.274	28449.02
513.477	29055.22
513.679	29079.79
513.881	29413.61
514.084	29573.35
514.286	29673.7
514.488	29905.12
514.69	30517.47
514.893	30685.4
515.095	31129.81
515.297	31557.83
515.499	31221.97
515.701	31824.07
515.904	31983.81
516.106	32397.5
516.308	32829.62
516.51	33136.82
516.712	33013.94
516.914	33736.87
517.116	33990.82
517.318	34234.53
517.52	34455.71
517.722	34609.31
517.925	34988.18
518.127	35633.29
518.329	35463.31
518.531	35594.38
518.733	36124.8
518.935	36913.27
519.136	36939.89
519.338	37320.82
519.54	37617.77
519.742	37806.19
519.944	37976.17
520.146	38676.57
520.348	38819.93
520.55	38883.42
520.752	39241.81
520.954	40183.88
521.155	39413.84
521.357	40273.99
521.559	40501.31
521.761	41295.92
521.963	40886.33
522.164	41488.43
522.366	41431.09
522.568	42098.73
522.77	42319.91
522.971	42922.01
523.173	42534.95
523.375	43040.79
523.576	43073.56
523.778	43364.37
523.98	44343.3
524.181	44204.04
524.383	44498.95
524.584	45131.77
524.786	44820.48
524.988	44664.83
525.189	45295.61
525.391	45572.08
525.592	45785.07
525.794	46225.39
525.995	45875.18
526.197	46417.89
526.398	46720.99
526.6	46735.33
526.801	47153.12
527.003	47622.1
527.204	47136.73
527.406	47888.34
527.607	48054.22
527.808	47964.11
528.01	47523.8
528.211	48037.84
528.412	49086.4
528.614	48646.08
528.815	48943.04
529.016	49139.64
529.218	48766.91
529.419	48811.97
529.62	49115.07
529.822	48834.5
530.023	49393.59
530.224	49389.5
530.425	49801.14
530.626	49426.36
530.828	49432.5
531.029	50544.55
531.23	49747.89
531.431	49651.64
531.632	49921.97
531.833	50405.29
532.035	50423.72
532.236	50126.77
532.437	50620.33
532.638	50472.87
532.839	50562.98
533.04	51124.13
533.241	50339.75
533.442	51011.49
533.643	50634.66
533.844	50720.68
534.045	50683.81
534.246	50569.13
534.447	51412.89
534.648	50880.42
534.849	51105.69
535.05	50603.94
535.251	51249.05
535.451	50851.75
535.652	51183.52
535.853	51240.86
536.054	51349.4
536.255	51378.07
536.456	50790.31
536.657	51599.26
536.857	50921.38
537.058	50960.29
537.259	51347.36
537.46	51453.85
537.66	51349.4
537.861	51595.16
538.062	51414.94
538.263	51357.59
538.463	51249.05
538.664	51285.92
538.865	51228.57
539.065	51572.63
539.266	50790.31
539.466	51904.4
539.667	50595.75
539.868	51697.56
540.068	51273.63
540.269	51388.31
540.469	51363.74
540.67	50913.19
540.87	51150.75
541.071	50876.32
541.271	51552.15
541.472	50982.82
541.672	50722.72
541.873	51101.6
542.073	50511.78
542.274	51552.15
542.474	51056.54
542.675	50982.82
542.875	51457.95
543.075	50855.84
543.276	50157.49
543.476	51294.11
543.676	50610.09
543.877	51191.71
544.077	50976.67
544.277	50638.76
544.478	51027.87
544.678	51294.11
544.878	50806.69
545.078	50921.38
545.279	50909.09
545.479	50421.67
545.679	51048.35
545.879	50913.19
546.079	51048.35
546.28	50622.37
546.48	50089.9
546.68	50896.8
546.88	51167.13
547.08	50784.16
547.28	50765.73
547.48	50460.58
547.68	50626.47
547.88	50986.91
548.081	50913.19
548.281	50577.32
548.481	49983.41
548.681	50806.69
548.881	50489.26
549.081	50483.11
549.28	50294.7
549.48	51160.99
549.68	49997.74
549.88	50999.2
550.08	49989.55
550.28	50843.55
550.48	50290.6
550.68	50929.57
550.88	50194.35
551.08	50421.67
551.279	50184.11
551.479	50276.27
551.679	50507.69
551.879	50212.78
552.079	50487.21
552.278	50337.71
552.478	50388.91
552.678	50421.67
552.878	50339.75
553.077	50108.33
553.277	50118.57
553.477	50483.11
553.676	50352.04
553.876	49651.64
554.076	49852.34
554.275	49905.59
554.475	49504.18
554.674	50038.7
554.874	49823.67
555.074	49610.68
555.273	50225.07
555.473	50122.67
555.672	49242.04
555.872	49491.9
556.071	49737.65
556.271	50077.61
556.47	49614.77
556.67	49364.92
556.869	49110.97
557.068	49694.64
557.268	49285.05
557.467	49283
557.667	49199.04
557.866	49192.89
558.065	49164.22
558.265	48897.98
558.464	48922.56
558.663	49598.39
558.863	48584.65
559.062	49156.03
559.261	48271.31
559.461	48844.74
559.66	48295.88
559.859	48406.47
560.058	48086.99
560.258	48486.34
560.457	48025.55
560.656	48664.52
560.855	48062.41
561.054	48293.83
561.253	47888.34
561.453	47935.44
561.652	48201.68
561.851	47986.64
562.05	47732.69
562.249	47527.89
562.448	47738.83
562.647	47833.04
562.846	47970.25
563.045	47327.19
563.244	46833.63
563.443	47452.12
563.642	47007.71
563.841	47321.05
564.04	47026.14
564.239	47226.84
564.438	46411.75
564.637	46878.69
564.836	46774.24
565.035	46256.1
565.234	46557.16
565.432	45842.42
565.631	46057.45
565.83	46450.66
566.029	45162.49
566.228	45574.13
566.427	45400.05
566.625	45416.44
566.824	44988.41
567.023	45365.24
567.222	44703.74
567.42	45244.41
567.619	44720.13
567.818	44621.83
568.016	44476.42
568.215	44883.97
568.414	44302.34
568.612	44728.32
568.811	44615.68
569.01	44171.27
569.208	43962.38
569.407	44476.42
569.605	43675.66
569.804	44197.9
570.002	43411.48
570.201	43806.73
570.4	43403.28
570.598	43434
570.797	43153.43
570.995	43120.66
571.193	42610.72
571.392	43079.71
571.59	42655.78
571.789	42860.57
571.987	42610.72
572.186	42031.15
572.384	42004.52
572.582	42467.36
572.781	42541.09
572.979	41644.08
573.177	41836.59
573.376	41967.66
573.574	41445.43
573.772	41553.97
573.971	41670.7
574.169	41623.6
574.367	41160.76
574.565	41402.42
574.763	41013.3
574.962	41005.11
575.16	40249.41
575.358	40800.32
575.556	40249.41
575.754	40773.69
575.952	40026.18
576.151	40607.81
576.349	39845.96
576.547	40020.04
576.745	39919.69
576.943	39995.46
577.141	40003.66
577.339	39825.48
577.537	39678.03
577.735	39657.55
577.933	39336.02
578.131	39004.25
578.329	38961.24
578.527	38740.06
578.725	38821.98
578.923	39051.35
579.121	38824.03
579.319	38660.19
579.516	38682.72
579.714	38781.02
579.912	38518.88
580.11	38447.2
580.308	38666.33
580.506	38056.04
580.704	37453.94
580.901	38125.67
581.099	37830.76
581.297	37990.5
581.495	37451.89
581.692	37767.27
581.89	37030.01
582.088	37267.57
582.285	37167.22
582.483	37263.47
582.681	36997.24
582.878	36888.7
583.076	36585.6
583.274	37038.2
583.471	36536.45
583.669	36536.45
583.866	36282.5
584.064	36626.56
584.262	36087.94
584.459	36372.61
584.657	36044.93
584.854	36192.39
585.052	35451.02
585.249	35551.37
585.447	35768.46
585.644	35551.37
585.841	35489.93
586.039	35723.4
586.236	35190.93
586.434	34998.42
586.631	34914.45
586.828	34918.55
587.026	35106.96
587.223	35074.2
587.42	34517.15
587.618	34746.52
587.815	34484.38
588.012	34343.07
588.21	33925.28
588.407	34420.89
588.604	34048.16
588.801	34089.12
588.999	33765.54
589.196	33730.73
589.393	33798.31
589.59	33935.52
589.787	33513.64
589.984	33271.98
590.182	32843.96
590.379	33564.84
590.576	32993.46
590.773	33233.07
590.97	32530.62
591.167	33245.36
591.364	32579.77
591.561	32463.04
591.758	32651.45
591.955	32391.36
592.152	32749.75
592.349	32256.19
592.546	32272.57
592.743	32123.07
592.94	31594.7
593.137	32407.74
593.334	31944.9
593.531	31537.35
593.727	31584.46
593.924	31768.77
594.121	31074.51
594.318	31711.43
594.515	30781.65
594.712	31254.73
594.908	31037.65
595.105	31176.91
595.302	31047.89
595.499	30728.41
595.696	30867.67
595.892	30587.1
596.089	30877.91
596.286	30785.75
596.482	30685.4
596.679	30744.79
596.876	30515.42
597.072	30279.9
597.269	30154.97
597.466	30154.97
597.662	29966.56
597.859	29843.68
598.055	29679.85
598.252	29810.92
598.448	29520.1
598.645	29544.68
598.841	29425.9
599.038	29632.74
599.234	29245.68
599.431	29327.6
599.627	29053.17
599.824	29348.07
600.02	28936.43
600.217	29133.04
600.413	28834.03
600.609	28784.88
600.806	28293.37
601.002	28780.79
601.198	28412.15
601.395	28293.37
601.591	27959.55
601.787	28397.82
601.984	28010.75
602.18	28432.63
602.376	27828.48
602.572	27799.81
602.769	28086.53
602.965	27480.33
603.161	27994.37
603.357	27492.62
603.553	27597.06
603.75	27377.93
603.946	27373.83
604.142	27253
604.338	26923.28
604.534	27074.83
604.73	27027.73
604.926	26845.46
605.122	27121.93
605.318	26638.61
605.514	26411.29
605.71	26624.28
605.906	26554.65
606.102	26554.65
606.298	26595.6
606.494	26265.88
606.69	26284.31
606.886	26429.72
607.082	25858.34
607.278	26325.27
607.474	25747.75
607.67	26151.2
607.866	25727.27
608.062	26003.74
608.257	25897.25
608.453	25704.74
608.649	25805.09
608.845	25604.39
609.041	25688.35
609.236	25751.84
609.432	25274.67
609.628	25610.53
609.824	25256.23
610.019	24994.09
610.215	25360.68
610.411	25344.3
610.606	25002.29
610.802	25127.21
610.998	25176.36
611.193	25186.6
611.389	25002.29
611.584	24916.27
611.78	24559.92
611.976	24512.82
612.171	24572.21
612.367	24488.24
612.562	24342.84
612.758	24187.19
612.953	24297.78
613.149	24840.5
613.344	23953.73
613.539	24686.9
613.735	24371.51
613.93	24416.57
614.126	24514.87
614.321	24631.6
614.517	24488.24
614.712	24109.37
614.907	24056.12
615.103	24334.65
615.298	23923.01
615.493	24320.31
615.688	23800.13
615.884	24004.92
616.079	23525.7
616.274	23740.74
616.47	23796.03
616.665	23636.29
616.86	23517.51
617.055	23644.48
617.25	23454.02
617.445	23544.13
617.641	23075.15
617.836	23132.49
618.031	23120.2
618.226	23480.64
618.421	22921.55
618.616	23179.59
618.811	22675.79
619.006	23349.57
619.201	22458.71
619.396	22653.26
619.591	22208.86
619.786	22593.87
619.981	22110.55
620.176	22524.24
620.371	22294.87
620.566	22192.47
620.761	22028.63
620.956	22053.21
621.151	21940.57
621.346	22073.69
621.541	21064.04
621.735	21610.85
621.93	21197.16
622.125	21367.14
622.32	21182.82
622.515	21270.89
622.709	21004.65
622.904	21148.01
623.099	21016.94
623.294	21244.26
623.488	20371.83
623.683	20251
623.878	20177.27
624.072	20371.83
624.267	20099.45
624.462	20107.64
624.656	19964.28
624.851	19788.16
625.046	20064.63
625.24	19892.6
625.435	19759.49
625.629	19794.3
625.824	19507.58
626.018	19638.65
626.213	18749.84
626.407	19122.57
626.602	18848.14
626.796	19028.36
626.991	18928.01
627.185	18780.56
627.38	18481.55
627.574	18340.24
627.768	18379.15
627.963	18383.25
628.157	18139.54
628.352	18463.12
628.546	17977.75
628.74	18184.6
628.935	17787.29
629.129	17840.54
629.323	17643.93
629.517	17465.76
629.712	17602.97
629.906	17459.62
630.1	17254.82
630.294	17197.48
630.489	17396.13
630.683	17242.53
630.877	16949.67
631.071	16984.49
631.265	16718.25
631.459	16560.56
631.653	16732.59
631.848	16476.59
632.042	16347.57
632.236	16200.12
632.43	16150.96
632.624	16218.55
632.818	16202.16
633.012	15946.17
633.206	15878.58
633.4	16062.9
633.594	15598.01
633.788	15630.78
633.982	15524.29
634.176	15370.69
634.369	15393.22
634.563	15272.39
634.757	15458.75
634.951	15225.28
635.145	14963.14
635.339	15208.9
635.533	14844.36
635.726	14696.91
635.92	14631.37
636.114	14576.08
636.308	14690.76
636.501	14782.92
636.695	14617.04
636.889	14406.09
637.083	14412.24
637.276	14141.91
637.47	14299.6
637.664	14205.39
637.857	14115.28
638.051	13906.39
638.244	13838.81
638.438	14064.08
638.632	13656.54
638.825	13650.39
639.019	13658.59
639.212	13414.88
639.406	13580.76
639.599	13375.97
639.793	13384.16
639.986	13113.83
640.18	13158.88
640.373	13015.52
640.567	12976.61
640.76	12980.71
640.954	12777.96
641.147	12698.09
641.34	12491.24
641.534	12775.91
641.727	12360.17
641.92	12466.67
642.114	12530.16
642.307	12610.03
642.5	12415.47
642.694	12083.7
642.887	12079.6
643.08	12134.9
643.273	12065.27
643.467	12032.5
643.66	11780.6
643.853	11864.57
644.046	11844.09
644.239	11831.8
644.432	11620.86
644.626	11463.16
644.819	11483.64
645.012	11493.88
645.205	11465.21
645.398	11426.3
645.591	10975.75
645.784	11176.45
645.977	10934.79
646.17	11237.89
646.363	11043.33
646.556	10777.09
646.749	10746.37
646.942	10779.14
647.135	10803.72
647.328	10863.11
647.521	10664.46
647.714	10590.73
647.907	10486.28
648.099	10283.53
648.292	10514.95
648.485	10355.21
648.678	10148.37
648.871	10107.41
649.064	10213.9
649.256	10211.85
649.449	10039.83
649.642	10084.88
649.835	9749.01
650.027	9955.86
650.22	9970.19
650.413	9730.58
650.605	9706.01
650.798	9865.75
650.991	9587.22
651.183	9665.05
651.376	9562.65
651.568	9402.91
651.761	9585.18
651.954	9456.15
652.146	9398.81
652.339	9394.72
652.531	9333.28
652.724	9144.86
652.916	9052.7
653.109	9126.43
653.301	8993.31
653.494	9228.83
653.686	8829.48
653.879	9081.38
654.071	9013.79
654.263	8854.05
654.456	8763.94
654.648	8649.25
654.84	8714.79
655.033	8686.12
655.225	8413.74
655.417	8589.86
655.61	8645.16
655.802	8677.93
655.994	8311.34
656.186	8417.83
656.379	8370.73
656.571	8448.55
656.763	8096.3
656.955	8210.99
657.148	8327.72
657.34	8063.54
657.532	8051.25
657.724	8043.06
657.916	8055.34
658.108	7989.81
658.3	7922.23
658.492	7922.23
658.684	7813.68
658.876	7926.32
659.068	7836.21
659.26	7709.24
659.452	7649.85
659.644	7701.05
659.836	7807.54
660.028	7504.44
660.22	7520.82
660.412	7424.57
660.604	7600.69
660.796	7352.89
660.988	7377.47
661.18	7440.95
661.372	7219.77
661.563	7326.27
661.755	7252.54
661.947	7148.09
662.139	7070.27
662.331	7197.24
662.522	7117.37
662.714	7240.25
662.906	7119.42
663.097	7100.99
663.289	7135.81
663.481	6904.39
663.673	6922.82
663.864	6814.27
664.056	6828.61
664.247	6912.58
664.439	6533.7
664.631	6910.53
664.822	6679.11
665.014	6902.34
665.205	6746.69
665.397	6703.68
665.588	6720.07
665.78	6584.9
665.971	6599.24
666.163	6646.34
666.354	6548.04
666.546	6781.51
666.737	6478.41
666.929	6505.03
667.12	6425.16
667.311	6486.6
667.503	6361.67
667.694	6351.43
667.885	6380.11
668.077	6482.5
668.268	6228.56
668.459	6259.28
668.651	6263.37
668.842	6230.6
669.033	6183.5
669.224	6201.93
669.416	6320.71
669.607	6066.77
669.798	6158.92
669.989	6029.9
670.18	5915.22
670.371	6115.92
670.563	5968.46
670.754	5974.61
670.945	5855.83
671.136	6038.09
671.327	5798.48
671.518	5917.26
671.709	6044.24
671.9	5892.69
672.091	5878.35
672.282	5876.3
672.473	5708.37
672.664	5728.85
672.855	5857.87
673.046	5614.16
673.237	5767.76
673.428	5642.84
673.619	5900.88
673.809	5706.32
674	5753.43
674.191	5831.25
674.382	5673.56
674.573	5542.49
674.764	5689.94
674.954	5634.64
675.145	5585.49
675.336	5554.77
675.527	5605.97
675.717	5630.55
675.908	5565.01
676.099	5528.15
676.289	5595.73
676.48	5409.37
676.671	5401.18
676.861	5442.14
677.052	5565.01
677.243	5519.96
677.433	5495.38
677.624	5556.82
677.814	5329.5
678.005	5458.52
678.195	5524.05
678.386	5542.49
678.576	5366.36
678.767	5323.35
678.957	5472.86
679.148	5556.82
679.338	5560.92
679.529	5655.12
679.719	5450.33
679.909	5458.52
680.1	5419.61
680.29	5319.26
680.481	5395.03
680.671	5577.3
680.861	5462.62
681.052	5425.75
681.242	5249.63
681.432	5485.14
681.622	5446.23
681.813	5345.88
682.003	5497.43
682.193	5419.61
682.383	5470.81
682.573	5536.34
682.764	5272.15
682.954	5280.35
683.144	5370.46
683.334	5368.41
683.524	5466.71
683.714	5286.49
683.904	5474.9
684.094	5505.62
684.284	5286.49
684.474	5331.55
684.664	5225.05
684.854	5401.18
685.044	5329.5
685.234	5323.35
685.424	5249.63
685.614	5173.85
685.804	5274.2
685.994	5298.78
686.184	5479
686.374	5313.11
686.564	5300.83
686.753	5319.26
686.943	5143.13
687.133	5231.19
687.323	5143.13
687.513	5239.39
687.702	5118.56
687.892	5042.78
688.082	4983.39
688.272	5102.17
688.461	5098.08
688.651	5216.86
688.841	4938.34
689.03	5016.16
689.22	5044.83
689.41	4977.25
689.599	4895.33
689.789	4891.23
689.979	4899.42
690.168	4946.53
690.358	4827.74
690.547	4866.66
690.737	4825.7
690.926	4749.92
691.116	4686.44
691.305	4794.98
691.495	4655.72
691.684	4450.92
691.874	4700.77
692.063	4756.07
692.252	4819.55
692.442	4559.46
692.631	4723.3
692.82	4586.08
693.01	4573.8
693.199	4672.1
693.388	4553.32
693.578	4635.24
693.767	4571.75
693.956	4536.93
694.146	4317.8
694.335	4522.6
694.524	4360.81
694.713	4584.04
694.902	4479.59
695.092	4420.2
695.281	4371.05
695.47	4332.14
695.659	4471.4
695.848	4348.52
696.037	4340.33
696.226	4420.2
696.415	4291.18
696.604	4446.82
696.793	4416.1
696.982	4295.27
697.171	4412.01
697.36	4405.86
697.549	4217.45
697.738	4416.1
697.927	4307.56
698.116	4403.82
698.305	4282.99
698.494	4442.73
698.683	4371.05
698.872	4328.04
699.061	4203.11
699.25	4221.55
699.438	4201.07
699.627	4307.56
699.816	4295.27
700.005	4278.89
700.193	4223.59
700.382	4362.86
700.571	4332.14
700.76	4426.34
700.948	4278.89
701.137	4256.36
701.326	4338.28
701.514	4317.8
701.703	4262.51
701.892	4246.12
702.08	4356.71
702.269	4282.99
702.457	4258.41
702.646	4256.36
702.834	4127.34
703.023	4143.72
703.212	4266.6
703.4	4106.86
703.589	4065.9
703.777	4270.7
703.965	4188.78
704.154	4209.26
704.342	4366.95
704.531	4258.41
704.719	4166.25
704.907	4235.88
705.096	4242.03
705.284	4098.67
705.472	4336.23
705.661	4227.69
705.849	4016.75
706.037	4356.71
706.226	4145.77
706.414	4252.27
706.602	4041.32
706.79	4141.68
706.979	4070
707.167	4217.45
707.355	4192.87
707.543	4199.02
707.731	4149.87
707.919	4182.63
708.107	4188.78
708.296	4108.91
708.484	4135.53
708.672	4166.25
708.86	4082.28
709.048	4145.77
709.236	4147.82
709.424	4098.67
709.612	4020.85
709.8	4070
709.988	4004.46
710.176	4262.51
710.364	4121.2
710.551	4211.31
710.739	4129.39
710.927	4153.96
711.115	4094.57
711.303	4248.17
711.491	4110.96
711.679	4190.83
711.866	3938.93
712.054	4270.7
712.242	4033.13
712.43	4170.35
712.617	4213.35
712.805	4248.17
712.993	3998.32
713.181	4092.52
713.368	4065.9
713.556	4147.82
713.744	4049.52
713.931	4315.75
714.119	4194.92
714.306	4104.81
714.494	4242.03
714.682	4090.48
714.869	4053.61
715.057	4174.44
715.244	4158.06
715.432	4205.16
715.619	4141.68
715.807	4063.85
715.994	4125.29
716.182	4143.72
716.369	4182.63
716.556	4088.43
716.744	4041.32
716.931	4072.04
717.119	4246.12
717.306	4057.71
717.493	4102.76
717.681	4092.52
717.868	4090.48
718.055	4096.62
718.242	4043.37
718.43	4057.71
718.617	4203.11
718.804	4000.37
718.991	4014.7
719.179	4119.15
719.366	4096.62
719.553	4024.94
719.74	4086.38
719.927	4082.28
720.114	4065.9
720.301	4078.19
720.488	4053.61
720.676	4131.44
720.863	3981.93
721.05	4188.78
721.237	4088.43
721.424	4018.8
721.611	4067.95
721.798	3943.02
721.985	4008.56
722.172	3955.31
722.358	4100.72
722.545	4067.95
722.732	3971.69
722.919	4070
723.106	3924.59
723.293	4004.46
723.48	4106.86
723.667	4004.46
723.853	3961.45
724.04	4084.33
724.227	4000.37
724.414	4045.42
724.6	4057.71
724.787	4117.1
724.974	4057.71
725.161	3922.54
725.347	3961.45
725.534	4037.23
725.72	4010.61
725.907	3961.45
726.094	4102.76
726.28	3863.15
726.467	3914.35
726.653	3897.97
726.84	3846.77
727.027	3988.08
727.213	3902.06
727.4	4070
727.586	4055.66
727.773	4041.32
727.959	3961.45
728.145	3871.34
728.332	3779.18
728.518	3895.92
728.705	3859.06
728.891	3928.69
729.077	3787.38
729.264	3926.64
729.45	3940.97
729.636	3971.69
729.823	3787.38
730.009	3887.73
730.195	3822.19
730.382	3930.73
730.568	4024.94
730.754	3893.87
730.94	3818.1
731.126	3990.13
731.313	3897.97
731.499	3879.54
731.685	3803.76
731.871	3857.01
732.057	3816.05
732.243	3885.68
732.429	3859.06
732.615	3940.97
732.801	3897.97
732.987	4016.75
733.173	3893.87
733.359	3842.67
733.545	3822.19
733.731	3863.15
733.917	3758.71
734.103	3730.03
734.289	3736.18
734.475	3746.42
734.661	3859.06
734.847	3762.8
735.033	3777.14
735.219	3789.42
735.404	3762.8
735.59	3809.9
735.776	3871.34
735.962	3744.37
736.148	3830.38
736.333	3783.28
736.519	3816.05
736.705	3627.64
736.89	3689.07
737.076	3609.2
737.262	3736.18
737.447	3594.87
737.633	3631.73
737.819	3684.98
738.004	3619.44
738.19	3695.22
738.375	3531.38
738.561	3566.2
738.747	3656.31
738.932	3471.99
739.118	3635.83
739.303	3576.44
739.489	3558
739.674	3551.86
739.859	3623.54
740.045	3484.28
740.23	3535.48
740.416	3482.23
740.601	3463.8
740.786	3480.18
740.972	3480.18
741.157	3504.76
741.342	3431.03
741.528	3388.02
741.713	3408.5
741.898	3572.34
742.084	3394.17
742.269	3412.6
742.454	3363.45
742.639	3426.93
742.824	3365.5
743.01	3404.41
743.195	3467.89
743.38	3322.49
743.565	3287.67
743.75	3230.33
743.935	3324.54
744.12	3332.73
744.305	3246.71
744.49	3316.34
744.675	3185.27
744.86	3322.49
745.045	3105.4
745.23	3238.52
745.415	3111.55
745.6	3074.68
745.785	3154.55
745.97	3175.03
746.155	2986.62
746.34	3003
746.525	2966.14
746.71	3220.09
746.895	3054.2
747.079	2951.81
747.264	2972.29
747.449	3101.31
747.634	2968.19
747.819	2902.65
748.003	2964.09
748.188	2769.54
748.373	2880.13
748.557	2880.13
748.742	2757.25
748.927	2775.68
749.111	2792.06
749.296	2769.54
749.481	2742.91
749.665	2810.5
749.85	2658.95
750.034	2706.05
750.219	2562.69
750.404	2636.42
750.588	2591.36
750.773	2660.99
750.957	2572.93
751.141	2529.92
751.326	2497.16
751.51	2603.65
751.695	2484.87
751.879	2402.95
752.064	2417.29
752.248	2656.9
752.432	2433.67
752.617	2554.5
752.801	2415.24
752.985	2345.61
753.17	2366.09
753.354	2341.51
753.538	2359.94
753.722	2353.8
753.907	2220.68
754.091	2257.54
754.275	2296.46
754.459	2284.17
754.643	2243.21
754.828	2286.22
755.012	2232.97
755.196	2167.43
755.38	2331.27
755.564	2038.41
755.748	2163.34
755.932	2263.69
756.116	2069.13
756.3	2120.33
756.484	2116.23
756.668	2077.32
756.852	1983.12
757.036	2077.32
757.22	1899.15
757.404	2038.41
757.588	2011.79
757.772	2038.41
757.956	1987.21
758.14	1938.06
758.323	1995.4
758.507	1858.19
758.691	1946.25
758.875	1852.05
759.059	1903.25
759.242	1882.77
759.426	1837.71
759.61	1858.19
759.794	1888.91
759.977	1804.94
760.161	1841.81
760.345	1831.57
760.528	1741.46
760.712	1821.33
760.895	1850
761.079	1743.5
761.263	1749.65
761.446	1700.5
761.63	1649.3
761.813	1735.31
761.997	1710.74
762.18	1710.74
762.364	1645.2
762.547	1585.81
762.731	1718.93
762.914	1667.73
763.098	1739.41
763.281	1626.77
763.464	1677.97
763.648	1645.2
763.831	1598.1
764.015	1583.76
764.198	1598.1
764.381	1530.52
764.564	1602.19
764.748	1555.09
764.931	1581.71
765.114	1653.39
765.297	1614.48
765.481	1598.1
765.664	1426.07
765.847	1616.53
766.03	1622.67
766.213	1469.08
766.397	1569.43
766.58	1446.55
766.763	1462.93
766.946	1544.85
767.129	1493.65
767.312	1436.31
767.495	1530.52
767.678	1278.62
767.861	1438.36
768.044	1419.92
768.227	1403.54
768.41	1458.84
768.593	1446.55
768.776	1356.44
768.959	1424.02
769.142	1497.75
769.324	1362.58
769.507	1444.5
769.69	1374.87
769.873	1356.44
770.056	1462.93
770.239	1274.52
770.421	1395.35
770.604	1409.69
770.787	1415.83
770.97	1438.36
771.152	1356.44
771.335	1360.53
771.518	1282.71
771.7	1348.25
771.883	1397.4
772.066	1346.2
772.248	1280.66
772.431	1290.9
772.613	1342.1
772.796	1264.28
772.978	1116.83
773.161	1165.98
773.343	1229.46
773.526	1215.13
773.708	1174.17
773.891	1139.35
774.073	1206.94
774.256	1200.79
774.438	1180.31
774.621	1098.39
774.803	1196.7
774.985	1112.73
775.168	1233.56
775.35	1139.35
775.532	1157.79
775.715	1127.07
775.897	1116.83
776.079	1020.57
776.261	1165.98
776.444	1110.68
776.626	1002.14
776.808	1032.86
776.99	1049.24
777.173	1096.35
777.355	1039
777.537	1014.43
777.719	1086.11
777.901	961.18
778.083	1010.33
778.265	1006.24
778.447	952.99
778.629	1077.91
778.811	901.79
778.993	1030.81
779.175	946.84
779.357	940.7
779.539	887.45
779.721	881.31
779.903	1030.81
780.085	1051.29
780.267	871.07
780.449	914.08
780.631	932.51
780.812	938.65
780.994	875.17
781.176	844.45
781.358	901.79
781.54	780.96
781.721	778.91
781.903	828.06
782.085	776.86
782.267	842.4
782.448	821.92
782.63	791.2
782.812	717.47
782.993	879.26
783.175	717.47
783.357	844.45
783.538	840.35
783.72	725.66
783.901	793.25
784.083	721.57
784.264	725.66
784.446	783.01
784.627	643.74
784.809	756.38
784.99	707.23
785.172	692.9
785.353	772.77
785.535	656.03
785.716	639.65
785.897	662.18
786.079	668.32
786.26	740
786.441	676.51
786.623	594.59
786.804	694.94
786.985	668.32
787.167	699.04
787.348	717.47
787.529	746.14
787.71	840.35
787.891	653.98
788.073	633.5
788.254	645.79
788.435	699.04
788.616	637.6
788.797	670.37
788.978	547.49
789.159	617.12
789.34	600.74
789.522	645.79
789.703	594.59
789.884	674.46
790.065	627.36
790.246	629.41
790.427	664.22
790.607	674.46
790.788	635.55
790.969	565.92
791.15	547.49
791.331	557.73
791.512	510.63
791.693	488.1
791.874	428.71
792.054	572.07
792.235	543.39
792.416	522.91
792.597	522.91
792.778	596.64
792.958	518.82
793.139	510.63
793.32	533.15
793.5	441
793.681	537.25
793.862	473.76
794.042	461.48
794.223	461.48
794.404	461.48
794.584	465.57
794.765	512.67
794.945	453.28
795.126	500.39
795.306	547.49
795.487	443.04
795.667	471.72
795.848	455.33
796.028	481.96
796.209	402.08
796.389	481.96
796.57	445.09
796.75	371.37
796.93	400.04
797.111	486.05
797.291	449.19
797.471	449.19
797.652	346.79
797.832	481.96
798.012	441
798.192	338.6
798.373	447.14
798.553	486.05
798.733	408.23
798.913	484
799.093	406.18
799.274	426.66
799.454	432.8
799.634	518.82
799.814	406.18
799.994	412.32
800.174	383.65
800.354	379.56
800.534	387.75
800.714	408.23
800.894	338.6
801.074	359.08
801.254	363.17
801.434	447.14
801.614	457.38
801.794	393.89
801.974	873.12
802.154	412.32
802.334	438.95
802.514	473.76
802.693	393.89
802.873	400.04
803.053	326.31
803.233	408.23
803.413	314.02
803.592	395.94
803.772	346.79
803.952	377.51
804.131	301.73
804.311	463.52
804.491	443.04
804.67	365.22
804.85	307.88
805.03	334.5
805.209	412.32
805.389	299.69
805.568	404.13
805.748	363.17
805.928	357.03
806.107	375.46
806.287	371.37
806.466	320.17
806.646	344.74
806.825	393.89
807.004	367.27
807.184	350.89
807.363	311.97
807.543	359.08
807.722	293.54
807.901	334.5
808.081	309.93
808.26	334.5
808.439	293.54
808.619	258.73
808.798	250.53
808.977	375.46
809.156	348.84
809.336	322.21
809.515	248.49
809.694	297.64
809.873	297.64
810.052	318.12
810.231	219.82
810.411	303.78
810.59	281.25
810.769	244.39
810.948	309.93
811.127	248.49
811.306	209.58
811.485	326.31
811.664	309.93
811.843	301.73
812.022	289.45
812.201	256.68
812.38	264.87
812.559	250.53
812.737	260.77
812.916	166.57
813.095	342.69
813.274	279.21
813.453	291.49
813.632	318.12
813.811	334.5
813.989	285.35
814.168	230.06
814.347	299.69
814.526	264.87
814.704	260.77
814.883	291.49
815.062	203.43
815.24	305.83
815.419	201.38
815.598	256.68
815.776	285.35
815.955	275.11
816.133	195.24
816.312	211.62
816.49	297.64
816.669	242.34
816.847	236.2
817.026	236.2
817.204	289.45
817.383	273.06
817.561	168.62
817.74	213.67
817.918	221.86
818.097	209.58
818.275	258.73
818.453	297.64
818.632	193.19
818.81	203.43
818.988	219.82
819.167	199.34
819.345	252.58
819.523	262.82
819.701	232.1
819.879	187.05
820.058	240.29
820.236	205.48
820.414	228.01
820.592	236.2
820.77	277.16
820.948	160.42
821.127	150.18
821.305	160.42
821.483	160.42
821.661	191.14
821.839	176.81
822.017	139.94
822.195	215.72
822.373	219.82
822.551	268.97
822.729	203.43
822.907	189.1
823.085	176.81
823.262	250.53
823.44	180.9
823.618	228.01
823.796	250.53
823.974	201.38
824.152	197.29
824.329	209.58
824.507	221.86
824.685	141.99
824.863	160.42
825.04	176.81
825.218	199.34
825.396	207.53
825.574	223.91
825.751	199.34
825.929	176.81
826.107	146.09
826.284	150.18
826.462	187.05
826.639	98.99
826.817	176.81
826.994	189.1
827.172	101.03
827.349	176.81
827.527	215.72
827.704	154.28
827.882	131.75
828.059	178.86
828.237	156.33
828.414	199.34
828.591	117.42
828.769	189.1
828.946	80.55
829.124	203.43
829.301	172.71
829.478	266.92
829.655	258.73
829.833	156.33
830.01	125.61
830.187	166.57
830.364	170.66
830.542	170.66
830.719	199.34
830.896	170.66
831.073	137.9
831.25	139.94
831.427	150.18
831.604	109.22
831.782	80.55
831.959	178.86
832.136	223.91
832.313	185
832.49	172.71
832.667	82.6
832.844	127.66
833.021	135.85
833.198	158.38
833.374	141.99
833.551	154.28
833.728	105.13
833.905	144.04
834.082	162.47
834.259	146.09
834.436	172.71
834.612	82.6
834.789	195.24
834.966	156.33
835.143	219.82
835.319	119.46
835.496	182.95
835.673	119.46
835.85	74.41
836.026	144.04
836.203	135.85
836.38	101.03
836.556	78.51
836.733	240.29
836.909	139.94
837.086	199.34
837.262	74.41
837.439	123.56
837.616	182.95
837.792	150.18
837.968	68.27
838.145	111.27
838.321	121.51
838.498	92.84
838.674	170.66
838.851	166.57
839.027	172.71
839.203	133.8
839.38	88.75
839.556	144.04
839.732	199.34
839.909	141.99
840.085	199.34
840.261	84.65
840.437	121.51
840.614	146.09
840.79	170.66
840.966	107.18
841.142	135.85
841.318	164.52
841.494	144.04
841.671	133.8
841.847	125.61
842.023	123.56
842.199	98.99
842.375	160.42
842.551	101.03
842.727	70.31
842.903	123.56
843.079	29.35
843.255	113.32
843.431	131.75
843.607	121.51
843.783	74.41
843.959	109.22
844.134	58.03
844.31	152.23
844.486	64.17
844.662	78.51
844.838	152.23
845.013	125.61
845.189	96.94
845.365	47.79
845.541	60.07
845.716	62.12
845.892	80.55
846.068	127.66
846.244	96.94
846.419	96.94
846.595	66.22
846.77	70.31
846.946	94.89
847.122	31.4
847.297	60.07
847.473	178.86
847.648	47.79
847.824	154.28
847.999	43.69
848.175	6.83
848.35	105.13
848.526	154.28
848.701	78.51
848.876	94.89
849.052	66.22
849.227	123.56
849.403	125.61
849.578	178.86
849.753	82.6
849.929	33.45
850.104	33.45
850.279	17.07
850.454	109.22
850.63	43.69
850.805	103.08
850.98	62.12
851.155	51.88
851.33	119.46
851.505	70.31
851.681	127.66
851.856	47.79
852.031	84.65
852.206	76.46
852.381	49.83
852.556	111.27
852.731	47.79
852.906	82.6
853.081	27.31
853.256	123.56
853.431	62.12
853.606	168.62
853.781	90.79
853.956	33.45
854.131	66.22
854.305	47.79
854.48	12.97
854.655	137.9
854.83	101.03
855.005	82.6
855.18	78.51
855.354	51.88
855.529	23.21
855.704	58.03
855.879	98.99
856.053	96.94
856.228	72.36
856.403	64.17
856.577	96.94
856.752	-11.61
856.926	84.65
857.101	27.31
857.276	80.55
857.45	74.41
857.625	96.94
857.799	39.59
857.974	113.32
858.148	66.22
858.323	84.65
858.497	68.27
858.672	19.11
858.846	70.31
859.02	109.22
859.195	4.78
859.369	64.17
859.543	103.08
859.718	107.18
859.892	64.17
860.066	17.07
860.241	-15.7
860.415	70.31
860.589	-17.75
860.763	74.41
860.938	111.27
861.112	92.84
861.286	98.99
861.46	53.93
861.634	37.55
861.808	39.59
861.982	88.75
862.157	96.94
862.331	66.22
862.505	74.41
862.679	47.79
862.853	129.7
863.027	21.16
863.201	158.38
863.375	64.17
863.549	51.88
863.722	84.65
863.896	88.75
864.07	47.79
864.244	72.36
864.418	107.18
864.592	101.03
864.766	78.51
864.939	82.6
865.113	103.08
865.287	115.37
865.461	-38.23
865.634	150.18
865.808	-1.37
865.982	10.92
866.156	51.88
866.329	62.12
866.503	103.08
866.676	60.07
866.85	90.79
867.024	17.07
867.197	41.64
867.371	76.46
867.544	86.7
867.718	23.21
867.891	78.51
868.065	29.35
868.238	96.94
868.412	72.36
868.585	29.35
868.759	12.97
868.932	-11.61
869.105	37.55
869.279	111.27
869.452	-11.61
869.625	74.41
869.799	80.55
869.972	21.16
870.145	45.74
870.319	92.84
870.492	39.59
870.665	29.35
870.838	80.55
871.011	-38.23
871.185	66.22
871.358	4.78
871.531	45.74
871.704	39.59
871.877	137.9
872.05	60.07
872.223	0.68
872.396	66.22
872.569	84.65
872.742	86.7
872.915	113.32
873.088	78.51
873.261	27.31
873.434	33.45
873.607	39.59
873.78	74.41
873.953	49.83
874.126	80.55
874.299	-15.7
874.471	23.21
874.644	86.7
874.817	29.35
874.99	72.36
875.163	58.03
875.335	96.94
875.508	33.45
875.681	115.37
875.853	74.41
876.026	55.98
876.199	70.31
876.371	125.61
876.544	86.7
876.717	19.11
876.889	-13.65
877.062	47.79
877.234	-1.37
877.407	15.02
877.579	15.02
877.752	-32.08
877.924	94.89
878.097	33.45
878.269	6.83
878.442	55.98
878.614	-25.94
878.786	68.27
878.959	68.27
879.131	15.02
879.303	-7.51
879.476	39.59
879.648	70.31
879.82	-30.04
879.993	19.11
880.165	101.03
880.337	-38.23
880.509	51.88
880.681	98.99
880.854	25.26
881.026	58.03
881.198	86.7
881.37	64.17
881.542	17.07
881.714	68.27
881.886	43.69
882.058	47.79
882.23	74.41
882.402	10.92
882.574	187.05
882.746	15.02
882.918	78.51
883.09	37.55
883.262	43.69
883.434	-34.13
883.606	23.21
883.778	-21.85
883.95	62.12
884.122	-11.61
884.293	72.36
884.465	17.07
884.637	31.4
884.809	23.21
884.98	41.64
885.152	35.5
885.324	72.36
885.496	43.69
885.667	72.36
885.839	-40.28
886.011	51.88
886.182	53.93
886.354	37.55
886.525	21.16
886.697	23.21
886.869	68.27
887.04	53.93
887.212	39.59
887.383	109.22
887.555	29.35
887.726	4.78
887.897	62.12
888.069	23.21
888.24	47.79
888.412	29.35
888.583	21.16
888.754	2.73
888.926	29.35
889.097	37.55
889.268	62.12
889.44	60.07
889.611	25.26
889.782	27.31
889.953	43.69
890.125	82.6
890.296	90.79
890.467	-48.47
890.638	4.78
890.809	86.7
890.98	-30.04
891.151	76.46
891.323	96.94
891.494	21.16
891.665	86.7
891.836	45.74
892.007	51.88
892.178	103.08
892.349	49.83
892.52	62.12
892.691	98.99
892.862	78.51
893.032	-9.56
893.203	84.65
893.374	2.73
893.545	78.51
893.716	-30.04
893.887	121.51
894.057	23.21
894.228	78.51
894.399	80.55
894.57	86.7
894.74	60.07
894.911	84.65
895.082	8.87
895.253	8.87
895.423	103.08
895.594	88.75
895.764	80.55
895.935	68.27
896.106	-9.56
896.276	-13.65
896.447	17.07
896.617	23.21
896.788	31.4
896.958	31.4
897.129	21.16
897.299	31.4
897.47	66.22
897.64	64.17
897.81	-34.13
897.981	23.21
898.151	-11.61
898.322	60.07
898.492	88.75
898.662	72.36
898.832	76.46
899.003	6.83
899.173	121.51
899.343	10.92
899.513	2.73
