Data from USB4F104151__96__10-24-39-188.txt Node

Date: Wed Mar 12 10:24:39 EDT 2025
User: louis
Spectrometer: USB4F10415
Trigger mode: 4
Integration Time (sec): 3.000000E-2
Scans to average: 1
Electric dark correction enabled: true
Nonlinearity correction enabled: false
Boxcar width: 0
XAxis mode: Wavelengths
Number of Pixels in Spectrum: 3648
>>>>>Begin Spectral Data<<<<<
178.204	-82.77
178.424	-82.77
178.644	-82.77
178.864	-68.44
179.084	-76.63
179.304	1.19
179.524	-76.63
179.744	33.96
179.964	42.15
180.184	48.3
180.404	13.48
180.624	-2.9
180.844	-2.9
181.064	-13.14
181.283	-4.95
181.503	-31.57
181.723	-7
181.943	-33.62
182.163	91.31
182.383	-4.95
182.602	50.35
182.822	23.72
183.042	-2.9
183.262	50.35
183.482	-47.96
183.701	-31.57
183.921	25.77
184.141	-27.48
184.361	-31.57
184.58	74.92
184.8	-23.38
185.02	27.82
185.239	62.63
185.459	17.58
185.679	42.15
185.898	46.25
186.118	74.92
186.338	64.68
186.557	54.44
186.777	54.44
186.997	42.15
187.216	17.58
187.436	144.55
187.655	17.58
187.875	107.69
188.095	52.39
188.314	99.5
188.534	99.5
188.753	46.25
188.973	23.72
189.192	31.91
189.412	70.83
189.631	5.29
189.851	13.48
190.07	33.96
190.29	-39.76
190.509	74.92
190.729	19.63
190.948	7.34
191.168	144.55
191.387	27.82
191.607	85.16
191.826	105.64
192.045	17.58
192.265	3.24
192.484	83.11
192.704	42.15
192.923	46.25
193.142	76.97
193.362	3.24
193.581	48.3
193.8	62.63
194.02	103.59
194.239	27.82
194.458	64.68
194.678	-29.52
194.897	38.06
195.116	70.83
195.335	38.06
195.555	9.39
195.774	21.67
195.993	15.53
196.212	21.67
196.432	-29.52
196.651	-64.34
196.87	-25.43
197.089	111.78
197.308	38.06
197.528	13.48
197.747	3.24
197.966	64.68
198.185	68.78
198.404	-43.86
198.623	46.25
198.842	152.74
199.062	19.63
199.281	76.97
199.5	83.11
199.719	42.15
199.938	42.15
200.157	115.88
200.376	68.78
200.595	36.01
200.814	115.88
201.033	31.91
201.252	66.73
201.471	48.3
201.69	31.91
201.909	68.78
202.128	79.02
202.347	-17.24
202.566	21.67
202.785	68.78
203.004	13.48
203.223	115.88
203.442	83.11
203.661	36.01
203.879	52.39
204.098	122.02
204.317	9.39
204.536	11.43
204.755	17.58
204.974	74.92
205.193	29.87
205.411	156.84
205.63	70.83
205.849	7.34
206.068	25.77
206.287	-0.85
206.505	38.06
206.724	64.68
206.943	83.11
207.162	-2.9
207.381	15.53
207.599	-15.19
207.818	52.39
208.037	13.48
208.255	85.16
208.474	-7
208.693	52.39
208.911	-31.57
209.13	42.15
209.349	25.77
209.567	50.35
209.786	62.63
210.005	-4.95
210.223	93.35
210.442	-0.85
210.661	40.11
210.879	52.39
211.098	68.78
211.316	54.44
211.535	138.41
211.753	7.34
211.972	89.26
212.191	23.72
212.409	-0.85
212.628	74.92
212.846	-39.76
213.065	72.87
213.283	85.16
213.502	46.25
213.72	27.82
213.938	70.83
214.157	46.25
214.375	70.83
214.594	9.39
214.812	40.11
215.031	46.25
215.249	-33.62
215.467	5.29
215.686	-17.24
215.904	95.4
216.122	25.77
216.341	21.67
216.559	23.72
216.778	-29.52
216.996	9.39
217.214	40.11
217.432	89.26
217.651	58.54
217.869	3.24
218.087	66.73
218.306	-15.19
218.524	113.83
218.742	-0.85
218.96	42.15
219.179	15.53
219.397	-19.29
219.615	58.54
219.833	62.63
220.051	15.53
220.27	27.82
220.488	15.53
220.706	-13.14
220.924	21.67
221.142	31.91
221.36	66.73
221.578	58.54
221.796	21.67
222.015	42.15
222.233	89.26
222.451	46.25
222.669	70.83
222.887	91.31
223.105	-9.05
223.323	23.72
223.541	1.19
223.759	-13.14
223.977	-7
224.195	50.35
224.413	29.87
224.631	74.92
224.849	38.06
225.067	99.5
225.285	-31.57
225.503	-2.9
225.721	15.53
225.939	40.11
226.157	58.54
226.375	70.83
226.592	-11.09
226.81	29.87
227.028	33.96
227.246	89.26
227.464	42.15
227.682	42.15
227.9	109.74
228.117	-9.05
228.335	31.91
228.553	76.97
228.771	81.07
228.989	79.02
229.206	-47.96
229.424	105.64
229.642	-11.09
229.86	36.01
230.077	64.68
230.295	70.83
230.513	42.15
230.731	83.11
230.948	40.11
231.166	46.25
231.384	99.5
231.601	-37.72
231.819	13.48
232.037	79.02
232.254	19.63
232.472	103.59
232.689	70.83
232.907	103.59
233.125	23.72
233.342	74.92
233.56	-0.85
233.777	-7
233.995	62.63
234.213	50.35
234.43	-17.24
234.648	17.58
234.865	-50
235.083	74.92
235.3	-2.9
235.518	101.55
235.735	81.07
235.953	76.97
236.17	42.15
236.388	1.19
236.605	42.15
236.822	68.78
237.04	38.06
237.257	19.63
237.475	17.58
237.692	25.77
237.909	5.29
238.127	-11.09
238.344	-86.87
238.562	50.35
238.779	13.48
238.996	11.43
239.214	38.06
239.431	29.87
239.648	76.97
239.865	13.48
240.083	124.07
240.3	27.82
240.517	103.59
240.735	76.97
240.952	27.82
241.169	109.74
241.386	36.01
241.603	36.01
241.821	9.39
242.038	54.44
242.255	-39.76
242.472	99.5
242.689	33.96
242.907	58.54
243.124	70.83
243.341	66.73
243.558	17.58
243.775	95.4
243.992	-31.57
244.209	95.4
244.426	58.54
244.643	66.73
244.86	-2.9
245.078	56.49
245.295	101.55
245.512	58.54
245.729	-29.52
245.946	38.06
246.163	46.25
246.38	23.72
246.597	29.87
246.814	-15.19
247.031	68.78
247.248	54.44
247.464	74.92
247.681	87.21
247.898	105.64
248.115	17.58
248.332	29.87
248.549	33.96
248.766	17.58
248.983	74.92
249.2	48.3
249.417	132.26
249.633	107.69
249.85	115.88
250.067	-13.14
250.284	-17.24
250.501	132.26
250.717	66.73
250.934	-4.95
251.151	13.48
251.368	-17.24
251.585	113.83
251.801	62.63
252.018	-35.67
252.235	60.59
252.451	-0.85
252.668	7.34
252.885	87.21
253.102	50.35
253.318	17.58
253.535	23.72
253.752	1.19
253.968	42.15
254.185	101.55
254.401	89.26
254.618	44.2
254.835	50.35
255.051	74.92
255.268	23.72
255.484	7.34
255.701	62.63
255.917	-7
256.134	-37.72
256.351	132.26
256.567	42.15
256.784	-0.85
257	-41.81
257.217	60.59
257.433	83.11
257.65	21.67
257.866	62.63
258.082	62.63
258.299	-47.96
258.515	42.15
258.732	66.73
258.948	25.77
259.165	29.87
259.381	25.77
259.597	42.15
259.814	68.78
260.03	62.63
260.246	42.15
260.463	33.96
260.679	54.44
260.895	95.4
261.112	60.59
261.328	21.67
261.544	40.11
261.761	87.21
261.977	79.02
262.193	-19.29
262.409	74.92
262.626	-17.24
262.842	-23.38
263.058	25.77
263.274	33.96
263.49	76.97
263.707	38.06
263.923	91.31
264.139	-31.57
264.355	17.58
264.571	46.25
264.787	93.35
265.004	72.87
265.22	50.35
265.436	42.15
265.652	38.06
265.868	66.73
266.084	58.54
266.3	48.3
266.516	56.49
266.732	50.35
266.948	9.39
267.164	62.63
267.38	50.35
267.596	33.96
267.812	89.26
268.028	72.87
268.244	91.31
268.46	74.92
268.676	52.39
268.892	64.68
269.108	-29.52
269.324	33.96
269.54	-27.48
269.756	72.87
269.972	-0.85
270.188	40.11
270.403	36.01
270.619	44.2
270.835	50.35
271.051	74.92
271.267	-9.05
271.483	115.88
271.698	81.07
271.914	50.35
272.13	31.91
272.346	-11.09
272.562	25.77
272.777	54.44
272.993	38.06
273.209	62.63
273.425	48.3
273.64	7.34
273.856	29.87
274.072	50.35
274.287	70.83
274.503	3.24
274.719	89.26
274.934	72.87
275.15	5.29
275.366	17.58
275.581	33.96
275.797	5.29
276.012	54.44
276.228	50.35
276.444	29.87
276.659	70.83
276.875	29.87
277.09	42.15
277.306	-23.38
277.521	87.21
277.737	17.58
277.952	85.16
278.168	38.06
278.383	56.49
278.599	115.88
278.814	-27.48
279.03	-7
279.245	83.11
279.461	83.11
279.676	38.06
279.892	9.39
280.107	25.77
280.322	42.15
280.538	36.01
280.753	-23.38
280.969	58.54
281.184	66.73
281.399	99.5
281.615	5.29
281.83	42.15
282.045	72.87
282.26	1.19
282.476	62.63
282.691	103.59
282.906	40.11
283.122	15.53
283.337	-2.9
283.552	64.68
283.767	50.35
283.983	87.21
284.198	124.07
284.413	5.29
284.628	44.2
284.843	62.63
285.058	25.77
285.274	-23.38
285.489	-47.96
285.704	87.21
285.919	79.02
286.134	38.06
286.349	21.67
286.564	21.67
286.779	38.06
286.995	66.73
287.21	33.96
287.425	25.77
287.64	-43.86
287.855	62.63
288.07	-0.85
288.285	72.87
288.5	152.74
288.715	60.59
288.93	79.02
289.145	81.07
289.36	46.25
289.575	81.07
289.79	95.4
290.004	36.01
290.219	23.72
290.434	79.02
290.649	52.39
290.864	87.21
291.079	40.11
291.294	56.49
291.509	27.82
291.724	-0.85
291.938	27.82
292.153	27.82
292.368	-4.95
292.583	33.96
292.798	91.31
293.012	79.02
293.227	79.02
293.442	56.49
293.657	50.35
293.871	21.67
294.086	74.92
294.301	81.07
294.516	58.54
294.73	60.59
294.945	74.92
295.16	148.65
295.374	72.87
295.589	83.11
295.804	11.43
296.018	89.26
296.233	38.06
296.447	124.07
296.662	56.49
296.877	40.11
297.091	42.15
297.306	72.87
297.52	5.29
297.735	83.11
297.949	72.87
298.164	68.78
298.378	62.63
298.593	109.74
298.807	1.19
299.022	-4.95
299.236	15.53
299.451	48.3
299.665	99.5
299.88	5.29
300.094	17.58
300.309	79.02
300.523	17.58
300.737	-11.09
300.952	-33.62
301.166	117.93
301.381	-33.62
301.595	66.73
301.809	29.87
302.024	13.48
302.238	58.54
302.452	52.39
302.667	48.3
302.881	142.5
303.095	72.87
303.309	60.59
303.524	46.25
303.738	68.78
303.952	-7
304.166	68.78
304.381	3.24
304.595	103.59
304.809	-9.05
305.023	38.06
305.237	33.96
305.452	-17.24
305.666	1.19
305.88	40.11
306.094	72.87
306.308	81.07
306.522	48.3
306.736	-15.19
306.95	46.25
307.164	60.59
307.379	44.2
307.593	83.11
307.807	119.98
308.021	79.02
308.235	76.97
308.449	11.43
308.663	56.49
308.877	152.74
309.091	29.87
309.305	99.5
309.519	29.87
309.733	15.53
309.947	-41.81
310.161	29.87
310.374	87.21
310.588	50.35
310.802	-58.2
311.016	60.59
311.23	58.54
311.444	19.63
311.658	85.16
311.872	87.21
312.085	105.64
312.299	60.59
312.513	29.87
312.727	79.02
312.941	25.77
313.154	50.35
313.368	-0.85
313.582	91.31
313.796	101.55
314.009	48.3
314.223	33.96
314.437	91.31
314.651	74.92
314.864	-25.43
315.078	70.83
315.292	19.63
315.505	140.46
315.719	46.25
315.933	62.63
316.146	76.97
316.36	3.24
316.573	93.35
316.787	124.07
317.001	42.15
317.214	74.92
317.428	38.06
317.641	-31.57
317.855	7.34
318.068	-7
318.282	-0.85
318.495	95.4
318.709	21.67
318.922	74.92
319.136	40.11
319.349	83.11
319.563	21.67
319.776	23.72
319.99	1.19
320.203	128.17
320.417	101.55
320.63	70.83
320.843	136.36
321.057	7.34
321.27	89.26
321.483	83.11
321.697	101.55
321.91	19.63
322.124	38.06
322.337	89.26
322.55	50.35
322.763	36.01
322.977	25.77
323.19	42.15
323.403	-11.09
323.617	54.44
323.83	44.2
324.043	33.96
324.256	74.92
324.469	31.91
324.683	152.74
324.896	7.34
325.109	74.92
325.322	-29.52
325.535	54.44
325.748	50.35
325.962	7.34
326.175	38.06
326.388	115.88
326.601	140.46
326.814	103.59
327.027	-2.9
327.24	66.73
327.453	58.54
327.666	60.59
327.879	52.39
328.092	9.39
328.305	56.49
328.518	66.73
328.731	19.63
328.944	122.02
329.157	33.96
329.37	68.78
329.583	74.92
329.796	72.87
330.009	31.91
330.222	40.11
330.435	64.68
330.648	54.44
330.861	33.96
331.073	54.44
331.286	107.69
331.499	58.54
331.712	-4.95
331.925	119.98
332.138	29.87
332.35	87.21
332.563	11.43
332.776	44.2
332.989	46.25
333.202	-21.33
333.414	64.68
333.627	99.5
333.84	103.59
334.053	17.58
334.265	7.34
334.478	9.39
334.691	54.44
334.903	74.92
335.116	-54.1
335.329	62.63
335.541	38.06
335.754	54.44
335.966	-27.48
336.179	33.96
336.392	48.3
336.604	89.26
336.817	62.63
337.029	15.53
337.242	13.48
337.454	148.65
337.667	44.2
337.88	29.87
338.092	91.31
338.305	81.07
338.517	15.53
338.729	115.88
338.942	132.26
339.154	70.83
339.367	-0.85
339.579	89.26
339.792	-2.9
340.004	72.87
340.217	46.25
340.429	79.02
340.641	40.11
340.854	-2.9
341.066	62.63
341.278	-11.09
341.491	124.07
341.703	5.29
341.915	44.2
342.128	19.63
342.34	27.82
342.552	105.64
342.764	50.35
342.977	54.44
343.189	42.15
343.401	70.83
343.613	31.91
343.826	101.55
344.038	9.39
344.25	79.02
344.462	66.73
344.674	62.63
344.886	5.29
345.099	113.83
345.311	3.24
345.523	5.29
345.735	-47.96
345.947	62.63
346.159	87.21
346.371	36.01
346.583	11.43
346.795	113.83
347.007	70.83
347.219	81.07
347.431	25.77
347.643	79.02
347.855	29.87
348.067	23.72
348.279	70.83
348.491	25.77
348.703	27.82
348.915	87.21
349.127	33.96
349.339	72.87
349.551	17.58
349.763	54.44
349.975	115.88
350.187	58.54
350.399	58.54
350.61	93.35
350.822	31.91
351.034	68.78
351.246	68.78
351.458	13.48
351.669	115.88
351.881	76.97
352.093	103.59
352.305	50.35
352.517	83.11
352.728	95.4
352.94	74.92
353.152	156.84
353.363	97.45
353.575	40.11
353.787	138.41
353.999	81.07
354.21	109.74
354.422	23.72
354.633	13.48
354.845	103.59
355.057	64.68
355.268	99.5
355.48	66.73
355.692	29.87
355.903	42.15
356.115	9.39
356.326	31.91
356.538	148.65
356.749	74.92
356.961	93.35
357.172	48.3
357.384	21.67
357.595	74.92
357.807	25.77
358.018	101.55
358.23	23.72
358.441	62.63
358.653	-4.95
358.864	38.06
359.075	25.77
359.287	46.25
359.498	48.3
359.709	111.78
359.921	56.49
360.132	54.44
360.344	95.4
360.555	31.91
360.766	111.78
360.977	-15.19
361.189	25.77
361.4	44.2
361.611	103.59
361.823	62.63
362.034	83.11
362.245	29.87
362.456	85.16
362.667	89.26
362.879	138.41
363.09	70.83
363.301	48.3
363.512	38.06
363.723	36.01
363.935	113.83
364.146	91.31
364.357	107.69
364.568	72.87
364.779	9.39
364.99	89.26
365.201	17.58
365.412	101.55
365.623	62.63
365.834	117.93
366.045	42.15
366.256	56.49
366.467	33.96
366.678	46.25
366.889	66.73
367.1	62.63
367.311	17.58
367.522	17.58
367.733	91.31
367.944	42.15
368.155	50.35
368.366	25.77
368.577	74.92
368.788	126.12
368.999	17.58
369.209	38.06
369.42	50.35
369.631	97.45
369.842	46.25
370.053	23.72
370.264	181.42
370.474	76.97
370.685	54.44
370.896	64.68
371.107	74.92
371.317	74.92
371.528	5.29
371.739	42.15
371.95	95.4
372.16	66.73
372.371	31.91
372.582	72.87
372.792	79.02
373.003	17.58
373.214	17.58
373.424	42.15
373.635	-23.38
373.846	81.07
374.056	15.53
374.267	50.35
374.477	132.26
374.688	7.34
374.898	87.21
375.109	-0.85
375.319	-37.72
375.53	87.21
375.74	58.54
375.951	44.2
376.161	62.63
376.372	52.39
376.582	50.35
376.793	70.83
377.003	124.07
377.214	56.49
377.424	-39.76
377.635	36.01
377.845	46.25
378.055	1.19
378.266	23.72
378.476	124.07
378.686	56.49
378.897	70.83
379.107	107.69
379.317	70.83
379.528	72.87
379.738	91.31
379.948	17.58
380.158	70.83
380.369	76.97
380.579	93.35
380.789	1.19
380.999	130.22
381.21	46.25
381.42	70.83
381.63	42.15
381.84	89.26
382.05	62.63
382.261	113.83
382.471	76.97
382.681	85.16
382.891	31.91
383.101	103.59
383.311	70.83
383.521	119.98
383.731	95.4
383.941	66.73
384.151	36.01
384.361	79.02
384.571	60.59
384.781	52.39
384.991	42.15
385.201	134.31
385.411	93.35
385.621	64.68
385.831	1.19
386.041	74.92
386.251	79.02
386.461	66.73
386.671	50.35
386.881	79.02
387.091	58.54
387.301	113.83
387.511	21.67
387.72	101.55
387.93	58.54
388.14	-7
388.35	72.87
388.56	66.73
388.769	99.5
388.979	74.92
389.189	81.07
389.399	85.16
389.609	83.11
389.818	48.3
390.028	115.88
390.238	19.63
390.447	91.31
390.657	93.35
390.867	97.45
391.076	62.63
391.286	38.06
391.496	29.87
391.705	23.72
391.915	99.5
392.125	148.65
392.334	42.15
392.544	130.22
392.753	99.5
392.963	66.73
393.172	175.27
393.382	103.59
393.591	175.27
393.801	105.64
394.01	154.79
394.22	124.07
394.429	101.55
394.639	74.92
394.848	132.26
395.058	25.77
395.267	103.59
395.477	144.55
395.686	91.31
395.895	58.54
396.105	107.69
396.314	181.42
396.524	66.73
396.733	62.63
396.942	54.44
397.152	99.5
397.361	134.31
397.57	79.02
397.78	162.98
397.989	91.31
398.198	103.59
398.407	66.73
398.617	70.83
398.826	87.21
399.035	132.26
399.244	140.46
399.453	134.31
399.663	152.74
399.872	128.17
400.081	74.92
400.29	124.07
400.499	54.44
400.708	150.7
400.917	83.11
401.127	132.26
401.336	70.83
401.545	171.18
401.754	181.42
401.963	140.46
402.172	144.55
402.381	97.45
402.59	140.46
402.799	150.7
403.008	171.18
403.217	212.14
403.426	185.51
403.635	79.02
403.844	181.42
404.053	144.55
404.262	177.32
404.471	199.85
404.68	160.94
404.888	142.5
405.097	165.03
405.306	136.36
405.515	208.04
405.724	105.64
405.933	197.8
406.142	203.94
406.35	279.72
406.559	257.19
406.768	173.22
406.977	275.62
407.185	244.9
407.394	189.61
407.603	222.38
407.812	261.29
408.02	222.38
408.229	271.53
408.438	242.85
408.646	257.19
408.855	304.29
409.064	275.62
409.272	251.05
409.481	304.29
409.69	326.82
409.898	351.4
410.107	337.06
410.315	357.54
410.524	351.4
410.733	353.45
410.941	355.49
411.15	367.78
411.358	437.41
411.567	449.7
411.775	410.79
411.984	496.8
412.192	511.14
412.401	421.03
412.609	543.91
412.818	611.49
413.026	459.94
413.234	504.99
413.443	537.76
413.651	550.05
413.86	545.95
414.068	658.59
414.276	642.21
414.485	588.96
414.693	695.46
414.901	740.51
415.11	744.61
415.318	709.79
415.526	742.56
415.734	830.62
415.943	783.52
416.151	758.94
416.359	861.34
416.567	801.95
416.776	978.08
416.984	945.31
417.192	1049.75
417.4	1053.85
417.608	1072.28
417.817	969.88
418.025	1121.43
418.233	1211.54
418.441	1279.13
418.649	1223.83
418.857	1279.13
419.065	1375.38
419.273	1399.96
419.481	1455.25
419.689	1442.96
419.897	1539.22
420.105	1569.94
420.313	1602.71
420.521	1635.47
420.729	1793.17
420.937	1766.54
421.145	1729.68
421.353	1825.93
421.561	2032.78
421.769	1950.86
421.977	2213
422.185	2040.97
422.393	2210.95
422.601	2315.4
422.809	2323.59
423.017	2407.56
423.224	2446.47
423.432	2483.33
423.64	2569.35
423.848	2845.82
424.056	2743.42
424.263	2862.21
424.471	2876.54
424.679	3040.38
424.887	3179.64
425.094	3187.83
425.302	3218.55
425.51	3318.9
425.718	3441.78
425.925	3568.76
426.133	3589.24
426.341	3818.61
426.548	4095.08
426.756	4039.79
426.964	4093.04
427.171	4240.49
427.379	4426.86
427.586	4533.35
427.794	4590.69
428.001	4693.09
428.209	5071.97
428.417	4858.98
428.624	5266.52
428.832	5225.56
429.039	5192.8
429.247	5313.63
429.454	5635.16
429.662	6095.95
429.869	5676.12
430.076	6216.78
430.284	5928.02
430.491	6165.58
430.699	6587.46
430.906	6605.89
431.114	6673.48
431.321	6753.35
431.528	7146.56
431.736	7265.34
431.943	7836.72
432.15	7631.93
432.358	7756.85
432.565	8082.48
432.772	8164.4
432.979	8502.31
433.187	8696.87
433.394	8528.94
433.601	9284.64
433.808	9266.21
434.016	9255.97
434.223	9751.57
434.43	10112.02
434.637	9968.66
434.844	10566.67
435.052	11004.93
435.259	10771.46
435.466	10990.59
435.673	10611.72
435.88	11201.54
436.087	11885.56
436.294	11891.7
436.501	11899.89
436.708	12116.98
436.915	12395.5
437.122	12741.61
437.329	12897.25
437.537	13245.41
437.743	13364.19
437.95	13343.71
438.157	13949.91
438.364	14560.2
438.571	14244.82
438.778	14558.16
438.985	16122.8
439.192	15356.86
439.399	15659.96
439.606	15539.13
439.813	16339.89
440.02	17435.55
440.227	16950.18
440.433	16483.25
440.64	17453.98
440.847	17241
441.054	17845.15
441.261	18494.35
441.467	18791.31
441.674	19217.29
441.881	19667.84
442.088	19590.02
442.294	19383.17
442.501	19952.51
442.708	20263.8
442.914	21334.89
443.121	22279
443.328	21365.6
443.534	23022.41
443.741	22496.08
443.948	22055.77
444.154	23851.84
444.361	23454.53
444.568	23362.37
444.774	23632.71
444.981	23798.59
445.187	24437.56
445.394	25940.77
445.6	25168.68
445.807	27974.4
446.013	26395.42
446.22	26966.8
446.426	27828.99
446.633	27945.73
446.839	29338.35
447.046	27693.83
447.252	29217.52
447.459	29354.73
447.665	28871.41
447.871	30866.13
448.078	31982.27
448.284	30481.11
448.491	31156.94
448.697	32285.37
448.903	33000.12
449.11	32955.06
449.316	32336.57
449.522	32842.42
449.728	33479.34
449.935	34005.67
450.141	33751.72
450.347	34876.05
450.553	33295.02
450.76	33995.43
450.966	35072.66
451.172	34914.97
451.378	35576.46
451.584	35064.47
451.791	35705.48
451.997	35306.13
452.203	36057.73
452.409	35998.34
452.615	35961.48
452.821	34456.22
453.027	33919.65
453.233	35646.09
453.44	34411.17
453.646	34642.59
453.852	34892.44
454.058	35539.6
454.264	34118.31
454.47	34710.17
454.676	33864.36
454.882	35314.32
455.088	32037.57
455.294	32584.38
455.5	33155.76
455.705	33290.93
455.911	31767.24
456.117	31290.06
456.323	30913.23
456.529	29561.58
456.735	30579.42
456.941	29813.48
457.147	29002.48
457.352	28347.13
457.558	27843.33
457.764	27857.67
457.97	27380.49
458.176	26817.3
458.381	26985.23
458.587	25609
458.793	25512.74
458.999	24380.21
459.204	25912.1
459.41	24863.54
459.616	24054.59
459.821	23532.36
460.027	23462.72
460.233	23044.94
460.438	21844.83
460.644	22272.85
460.85	21128.04
461.055	20921.2
461.261	20718.45
461.466	19270.53
461.672	18650
461.878	20046.71
462.083	18740.11
462.289	18334.61
462.494	18123.67
462.7	17255.33
462.905	16911.27
463.111	17824.67
463.316	17296.29
463.522	17238.95
463.727	17171.36
463.932	17249.19
464.138	17009.58
464.343	16946.09
464.549	16599.98
464.754	17077.16
464.959	16976.81
465.165	16872.36
465.37	16434.1
465.575	15856.57
465.781	16303.03
465.986	16581.55
466.191	15748.03
466.397	15461.31
466.602	14838.73
466.807	15602.62
467.012	15401.92
467.218	15266.75
467.423	15193.03
467.628	15342.53
467.833	15977.4
468.038	15414.21
468.244	14975.94
468.449	15391.68
468.654	14691.27
468.859	14683.08
469.064	14533.58
469.269	14185.43
469.474	14058.45
469.679	14605.26
469.885	13951.96
470.09	14246.87
470.295	14119.89
470.5	13644.76
470.705	13960.15
470.91	13822.94
471.115	13581.28
471.32	13450.21
471.525	13620.19
471.73	13329.38
471.935	13362.14
472.139	12690.41
472.344	12995.56
472.549	12753.9
472.754	12723.18
472.959	12389.36
473.164	12051.44
473.369	12225.52
473.574	12370.93
473.778	12254.19
473.983	11955.19
474.188	12149.75
474.393	11633.66
474.598	11877.37
474.802	11455.48
475.007	11430.91
475.212	11418.62
475.417	10859.52
475.621	11101.19
475.826	11181.06
476.031	11129.86
476.235	10617.86
476.44	10718.22
476.645	10599.43
476.849	10556.43
477.054	10720.26
477.259	10316.81
477.463	10226.7
477.668	9999.38
477.872	10167.31
478.077	10075.15
478.282	9716.76
478.486	9675.8
478.691	9905.17
478.895	9671.7
479.1	9546.78
479.304	9679.89
479.509	9315.36
479.713	9487.39
479.918	9362.46
480.122	9239.58
480.326	9481.24
480.531	9387.04
480.735	9219.1
480.94	9018.4
481.144	9425.95
481.348	8735.78
481.553	9085.98
481.757	8903.71
481.961	8913.95
482.166	9128.99
482.37	9077.79
482.574	8823.84
482.778	9098.27
482.983	9118.75
483.187	9081.89
483.391	8791.08
483.595	8805.41
483.8	9116.7
484.004	8975.39
484.208	9163.81
484.412	8780.84
484.616	8799.27
484.821	8938.53
485.025	8686.63
485.229	8862.76
485.433	9014.31
485.637	8821.8
485.841	9135.14
486.045	8832.04
486.249	8893.47
486.453	8852.52
486.657	8924.19
486.861	8922.15
487.065	8567.85
487.269	8743.97
487.473	8590.38
487.677	8885.28
487.881	9090.08
488.085	8979.49
488.289	8916
488.493	8946.72
488.697	8862.76
488.901	8993.83
489.105	8733.73
489.309	8946.72
489.512	9016.35
489.716	9049.12
489.92	9102.37
490.124	9167.9
490.328	9036.83
490.531	9122.85
490.735	9335.84
490.939	9249.82
491.143	9225.25
491.346	9192.48
491.55	9249.82
491.754	9272.35
491.958	9223.2
492.161	9225.25
492.365	9456.67
492.569	9438.23
492.772	9366.56
492.976	9583.64
493.18	9583.64
493.383	9665.56
493.587	9749.53
493.79	9989.14
493.994	9616.41
494.197	9862.16
494.401	9978.9
494.605	9903.12
494.808	10109.97
495.012	10232.85
495.215	10138.64
495.419	10210.32
495.622	10142.74
495.825	10431.5
496.029	10431.5
496.232	10882.05
496.436	10693.64
496.639	10877.96
496.843	10828.81
497.046	11025.41
497.249	11301.89
497.453	11146.24
497.656	11480.06
497.859	11449.34
498.063	11279.36
498.266	11613.18
498.469	11674.62
498.673	11715.58
498.876	12012.53
499.079	12186.61
499.282	11979.76
499.485	12217.33
499.689	12309.49
499.892	12585.96
500.095	12747.75
500.298	12893.16
500.501	12948.45
500.705	13310.94
500.908	13255.65
501.111	13286.37
501.314	13587.42
501.517	13659.1
501.72	13925.33
501.923	13755.35
502.126	14001.11
502.329	14373.84
502.532	14357.46
502.735	14691.27
502.938	14937.03
503.141	14898.12
503.344	15172.55
503.547	15107.01
503.75	15176.64
503.953	15389.63
504.156	15827.9
504.359	15881.14
504.562	15946.68
504.765	16473.01
504.968	16305.07
505.17	16634.8
505.373	16606.13
505.576	17124.26
505.779	17249.19
505.982	17236.9
506.185	17574.81
506.387	17679.26
506.59	17818.52
506.793	18332.56
506.996	18252.69
507.198	18623.37
507.401	18516.88
507.604	18979.72
507.807	18965.39
508.009	19151.75
508.212	19186.57
508.415	19647.36
508.617	19843.96
508.82	19884.92
509.022	20110.2
509.225	20425.59
509.428	20409.2
509.63	20689.77
509.833	20980.59
510.035	21390.18
510.238	21031.79
510.44	21752.67
510.643	21955.42
510.845	22135.64
511.048	22188.89
511.25	22160.22
511.453	22401.88
511.655	23255.88
511.858	23073.61
512.06	22997.84
512.262	23532.36
512.465	23851.84
512.667	24013.63
512.87	24017.72
513.072	24054.59
513.274	24943.41
513.477	25008.94
513.679	25060.14
513.881	25367.34
514.084	25701.15
514.286	25529.13
514.488	25781.03
514.69	26942.22
514.893	26968.85
515.095	26610.45
515.297	26870.54
515.499	26872.59
515.701	27876.1
515.904	27683.59
516.106	27648.77
516.308	28025.6
516.51	28386.04
516.712	28664.57
516.914	28873.46
517.116	29119.21
517.318	29420.27
517.52	29795.04
517.722	29864.67
517.925	30272.22
518.127	30444.25
518.329	30966.48
518.531	30481.11
518.733	31066.83
518.935	31455.95
519.136	31695.56
519.338	32092.86
519.54	32258.75
519.742	32254.65
519.944	32950.96
520.146	33368.75
520.348	33397.42
520.55	33569.45
520.752	33639.08
520.954	33979.04
521.155	33893.03
521.357	34466.46
521.559	34658.97
521.761	35472.01
521.963	35496.59
522.164	35558.03
522.366	35601.04
522.568	36039.3
522.77	36108.93
522.971	36840.06
523.173	36876.92
523.375	36801.15
523.576	37249.65
523.778	37274.23
523.98	37450.35
524.181	37866.09
524.383	37765.74
524.584	37941.86
524.786	38376.03
524.988	38144.61
525.189	38808.15
525.391	38939.22
525.592	39246.42
525.794	39334.48
525.995	39363.15
526.197	39504.46
526.398	39365.2
526.6	39782.99
526.801	40061.51
527.003	40596.03
527.204	40235.59
527.406	40645.18
527.607	40409.67
527.808	40622.65
528.01	40129.09
528.211	41065.02
528.412	41894.44
528.614	41472.56
528.815	41392.69
529.016	42002.99
529.218	41640.5
529.419	41812.52
529.62	41845.29
529.822	41769.52
530.023	41660.97
530.224	41654.83
530.425	42263.08
530.626	42017.32
530.828	41630.26
531.029	43164.18
531.23	42539.55
531.431	42220.07
531.632	42891.8
531.833	42801.69
532.035	42570.27
532.236	42701.34
532.437	42969.63
532.638	42674.72
532.839	43119.13
533.04	43229.72
533.241	42715.68
533.442	43725.33
533.643	43375.12
533.844	43158.04
534.045	43158.04
534.246	42801.69
534.447	43694.61
534.648	42914.33
534.849	43633.17
535.05	42791.45
535.251	43235.86
535.451	43170.33
535.652	43461.14
535.853	43762.19
536.054	43233.81
536.255	43444.76
536.456	43065.88
536.657	43663.89
536.857	43471.38
537.058	43100.7
537.259	43627.02
537.46	43586.07
537.66	43577.87
537.861	43469.33
538.062	43407.89
538.263	43649.55
538.463	43338.26
538.664	43432.47
538.865	43461.14
539.065	43844.11
539.266	42856.99
539.466	43661.84
539.667	43137.56
539.868	44067.34
540.068	43815.44
540.269	43414.04
540.469	43383.32
540.67	43176.47
540.87	43395.6
541.071	43545.11
541.271	43309.59
541.472	43239.96
541.672	43323.93
541.873	43164.18
542.073	43155.99
542.274	43776.53
542.474	43166.23
542.675	43289.11
542.875	43661.84
543.075	43545.11
543.276	42879.52
543.476	43655.7
543.676	43373.08
543.877	43149.85
544.077	43293.21
544.277	42988.06
544.478	43348.5
544.678	43325.97
544.878	43106.84
545.078	43528.72
545.279	43076.12
545.479	43037.21
545.679	43477.52
545.879	42873.37
546.079	43092.51
546.28	43166.23
546.48	42897.95
546.68	43235.86
546.88	43510.29
547.08	43235.86
547.28	42955.29
547.48	42930.72
547.68	43084.31
547.88	42783.26
548.081	43065.88
548.281	42789.41
548.481	42664.48
548.681	43158.04
548.881	42848.8
549.081	42687.01
549.28	42691.1
549.48	43452.95
549.68	42977.82
549.88	43223.58
550.08	42388
550.28	42990.11
550.48	42609.18
550.68	43182.62
550.88	42682.91
551.08	42828.32
551.279	42641.95
551.479	42422.82
551.679	42897.95
551.879	42431.01
552.079	42820.13
552.278	42648.1
552.478	42936.86
552.678	42607.14
552.878	43123.22
553.077	42240.55
553.277	42162.73
553.477	43102.74
553.676	42316.32
553.876	42381.86
554.076	42097.19
554.275	42471.97
554.475	41773.61
554.674	42396.2
554.874	42674.72
555.074	42392.1
555.273	42125.86
555.473	42426.92
555.672	41982.51
555.872	42226.21
556.071	42357.28
556.271	42347.04
556.47	41839.15
556.67	41652.78
556.869	41779.76
557.068	41892.4
557.268	41550.38
557.467	41450.03
557.667	41566.77
557.866	41806.38
558.065	41703.98
558.265	41398.83
558.464	40979
558.663	41570.86
558.863	41077.3
559.062	41671.21
559.261	41296.44
559.461	41581.1
559.66	40686.14
559.859	41110.07
560.058	40720.96
560.258	41099.83
560.457	40555.07
560.656	40856.12
560.855	40784.44
561.054	40966.71
561.253	40565.31
561.453	40612.41
561.652	40510.02
561.851	40737.34
562.05	40598.08
562.249	40024.65
562.448	40700.48
562.647	39864.91
562.846	39963.21
563.045	40303.17
563.244	39496.27
563.443	40090.18
563.642	39578.19
563.841	39780.94
564.04	39547.47
564.239	39856.71
564.438	39273.04
564.637	39602.77
564.836	39588.43
565.035	38861.4
565.234	39133.78
565.432	38898.27
565.631	38586.97
565.83	38865.5
566.029	38799.96
566.228	38632.03
566.427	38521.44
566.625	38351.46
566.824	37669.48
567.023	38703.71
567.222	37753.45
567.42	38210.15
567.619	38107.75
567.818	37923.43
568.016	37636.72
568.215	37894.76
568.414	37593.71
568.612	38193.76
568.811	37421.68
569.01	37632.62
569.208	37106.29
569.407	37507.69
569.605	37085.81
569.804	37259.89
570.002	36676.22
570.201	36940.41
570.4	36469.37
570.598	36547.2
570.797	36577.92
570.995	36190.85
571.193	35908.23
571.392	36729.47
571.59	36305.54
571.789	36186.75
571.987	36018.82
572.186	36119.17
572.384	35687.05
572.582	36366.98
572.781	35975.81
572.979	35037.84
573.177	35637.9
573.376	35691.15
573.574	35216.02
573.772	35742.35
573.971	35066.52
574.169	34800.28
574.367	34759.32
574.565	35406.48
574.763	34615.96
574.962	34966.17
575.16	34028.2
575.358	34783.9
575.556	34280.1
575.754	34753.18
575.952	33974.95
576.151	34493.08
576.349	33542.83
576.547	33325.74
576.745	33952.42
576.943	34198.18
577.141	33710.76
577.339	33544.87
577.537	33602.22
577.735	33628.84
577.933	33204.91
578.131	33106.61
578.329	33127.09
578.527	32737.98
578.725	33043.12
578.923	33139.38
579.121	32672.44
579.319	32500.41
579.516	32795.32
579.714	32985.78
579.912	32598.71
580.11	32266.94
580.308	32285.37
580.506	32053.95
580.704	31589.06
580.901	32049.86
581.099	32033.47
581.297	31886.02
581.495	31535.82
581.692	31836.87
581.89	31249.1
582.088	31705.8
582.285	31378.12
582.483	31347.4
582.681	31390.41
582.878	31388.36
583.076	30986.96
583.274	30702.29
583.471	30857.94
583.669	31144.66
583.866	30837.46
584.064	30626.52
584.262	30489.31
584.459	30903
584.657	30329.56
584.854	30532.31
585.052	30001.89
585.249	30487.26
585.447	30184.16
585.644	30370.52
585.841	30108.38
586.039	30003.94
586.236	29934.31
586.434	29483.75
586.631	29416.17
586.828	29430.51
587.026	29577.96
587.223	29553.38
587.42	29006.58
587.618	29305.58
587.815	29010.67
588.012	29010.67
588.21	28910.32
588.407	29354.73
588.604	28754.68
588.801	28486.39
588.999	28355.32
589.196	28486.39
589.393	28242.68
589.59	28381.95
589.787	28306.17
589.984	28230.4
590.182	28275.45
590.379	28179.2
590.576	27767.55
590.773	27839.23
590.97	27540.23
591.167	27833.09
591.364	27443.98
591.561	27448.07
591.758	26882.83
591.955	27484.94
592.152	27509.51
592.349	27224.84
592.546	27200.27
592.743	26876.69
592.94	26749.71
593.137	26866.45
593.334	27134.73
593.531	26557.21
593.727	26528.53
593.924	26780.43
594.121	26510.1
594.318	26579.73
594.515	26274.59
594.712	26602.26
594.908	26184.48
595.105	26274.59
595.302	25959.2
595.499	26219.29
595.696	26018.59
595.892	25834.27
596.089	25754.4
596.286	25846.56
596.482	25643.81
596.679	25551.65
596.876	25461.54
597.072	25539.36
597.269	25342.76
597.466	25113.39
597.662	25228.07
597.859	25191.21
598.055	25103.15
598.252	24990.51
598.448	24685.36
598.645	24933.17
598.841	24718.13
599.038	24640.31
599.234	24617.78
599.431	24259.38
599.627	24625.97
599.824	24423.22
600.02	24044.35
600.217	24460.09
600.413	23823.17
600.609	24068.92
600.806	23814.98
601.002	24060.73
601.198	23767.87
601.395	23853.89
601.591	23546.69
601.787	23833.41
601.984	23575.36
602.18	23673.67
602.376	23579.46
602.572	23339.85
602.769	23348.04
602.965	22891.34
603.161	23356.23
603.357	22774.61
603.553	22819.66
603.75	22836.05
603.946	22627.15
604.142	22877.01
604.338	22518.61
604.534	22909.77
604.73	22285.14
604.926	22360.92
605.122	22534.99
605.318	22049.63
605.514	22121.31
605.71	22057.82
605.906	22358.87
606.102	22197.08
606.298	22043.48
606.494	21826.4
606.69	21635.94
606.886	21898.08
607.082	21400.42
607.278	21807.97
607.474	21408.61
607.67	22012.76
607.866	21285.73
608.062	21736.29
608.257	21515.11
608.453	21402.47
608.649	21713.76
608.845	21533.54
609.041	21265.25
609.236	21369.7
609.432	21082.98
609.628	21183.34
609.824	21031.79
610.019	21072.75
610.215	20663.15
610.411	21121.9
610.606	20679.54
610.802	20749.17
610.998	20679.54
611.193	20726.64
611.389	20372.34
611.584	20550.51
611.78	20581.23
611.976	20497.27
612.171	20706.16
612.367	20593.52
612.562	20317.04
612.758	20204.41
612.953	20204.41
613.149	20214.65
613.344	20071.29
613.539	20587.38
613.735	19977.08
613.93	20231.03
614.126	20284.28
614.321	20099.96
614.517	20028.28
614.712	19614.59
614.907	19704.7
615.103	19932.03
615.298	19665.79
615.493	19964.79
615.688	19577.73
615.884	19733.37
616.079	19321.73
616.274	19995.51
616.47	19520.38
616.665	19690.37
616.86	19276.68
617.055	19448.71
617.25	19491.71
617.445	19227.53
617.641	18834.32
617.836	19458.95
618.031	18989.96
618.226	19123.08
618.421	19260.29
618.616	19241.86
618.811	18895.75
619.006	18981.77
619.201	18580.37
619.396	18639.76
619.591	18523.02
619.786	18742.16
619.981	18561.94
620.176	18670.48
620.371	18293.65
620.566	18412.43
620.761	18084.76
620.956	18402.19
621.151	17996.7
621.346	18068.37
621.541	17712.03
621.735	18013.08
621.93	17562.53
622.125	17783.71
622.32	17644.45
622.515	17507.23
622.709	17351.59
622.904	17404.83
623.099	17132.45
623.294	17300.39
623.488	16964.52
623.683	16993.19
623.878	16669.61
624.072	16925.61
624.267	16618.41
624.462	16593.84
624.656	16591.79
624.851	16493.49
625.046	16520.11
625.24	16339.89
625.435	16020.41
625.629	15950.78
625.824	15875
626.018	15942.58
626.213	15707.07
626.407	15776.7
626.602	15590.33
626.796	15823.8
626.991	15788.99
627.185	15651.77
627.38	15401.92
627.574	15432.64
627.768	15135.68
627.963	14898.12
628.157	15086.53
628.352	15049.67
628.546	14584.78
628.74	14910.41
628.935	14734.28
629.129	14597.07
629.323	14496.72
629.517	14666.7
629.712	14218.19
629.906	14316.5
630.1	14101.46
630.294	14242.77
630.489	14074.84
630.683	14224.34
630.877	13677.53
631.071	13755.35
631.265	13806.55
631.459	13691.87
631.653	13601.76
631.848	13509.6
632.042	13403.1
632.236	13235.17
632.43	13442.01
632.624	13290.46
632.818	13251.55
633.012	13282.27
633.206	12950.5
633.4	13147.11
633.594	12780.52
633.788	13007.84
633.982	12989.41
634.176	12739.56
634.369	12710.89
634.563	12807.14
634.757	12575.72
634.951	12757.99
635.145	12452.84
635.339	12499.95
635.533	12200.94
635.726	12303.34
635.92	12047.35
636.114	12149.75
636.308	12133.36
636.501	11901.94
636.695	11877.37
636.889	11754.49
637.083	11660.28
637.276	11697.14
637.47	11674.62
637.664	11656.18
637.857	11633.66
638.051	11496.44
638.244	11441.15
638.438	11301.89
638.632	11158.53
638.825	11088.9
639.019	11328.51
639.212	10978.31
639.406	10968.07
639.599	11138.05
639.793	11004.93
639.986	10744.84
640.18	10951.68
640.373	10961.92
640.567	10488.84
640.76	10552.33
640.954	10615.82
641.147	10408.97
641.34	10464.27
641.534	10316.81
641.727	10447.88
641.92	10400.78
642.114	10284.05
642.307	10130.45
642.5	10046.48
642.694	10013.71
642.887	9833.49
643.08	10175.5
643.273	9847.83
643.467	9741.33
643.66	9716.76
643.853	9767.96
644.046	9694.23
644.239	9610.26
644.432	9475.1
644.626	9352.22
644.819	9329.69
645.012	9401.37
645.205	9341.98
645.398	9325.6
645.591	9204.77
645.784	9034.78
645.977	9210.91
646.17	9176.09
646.363	8899.62
646.556	8928.29
646.749	9085.98
646.942	8944.67
647.135	8791.08
647.328	8811.56
647.521	8664.1
647.714	8586.28
647.907	8723.49
648.099	8469.55
648.292	8643.62
648.485	8637.48
648.678	8467.5
648.871	8371.24
649.064	8457.26
649.256	8440.87
649.449	8313.9
649.642	8244.27
649.835	8195.12
650.027	8277.04
650.22	8260.65
650.413	8166.45
650.605	8025.14
650.798	8072.24
650.991	7777.33
651.183	7971.89
651.376	7707.7
651.568	7887.92
651.761	7826.48
651.954	7724.08
652.146	7939.12
652.339	7617.59
652.531	7625.78
652.724	7717.94
652.916	7535.67
653.109	7519.29
653.301	7613.49
653.494	7541.82
653.686	7441.47
653.879	7369.79
654.071	7326.78
654.263	7210.04
654.456	7316.54
654.648	7314.49
654.84	7126.08
655.033	7009.34
655.225	7005.25
655.417	7095.36
655.61	7150.65
655.802	7171.13
655.994	6825.03
656.186	6870.08
656.379	7009.34
656.571	6835.27
656.763	6716.48
656.955	6841.41
657.148	6915.14
657.34	6782.02
657.532	6587.46
657.724	6667.33
657.916	6679.62
658.108	6702.15
658.3	6446.15
658.492	6464.58
658.684	6382.67
658.876	6523.98
659.068	6411.34
659.26	6333.51
659.452	6380.62
659.644	6390.86
659.836	6319.18
660.028	6286.41
660.22	6374.47
660.412	6091.85
660.604	6108.24
660.796	6237.26
660.988	6059.09
661.18	6179.92
661.372	5997.65
661.563	6100.05
661.755	5868.63
661.947	5909.58
662.139	5901.39
662.331	5751.89
662.522	5706.84
662.714	5760.08
662.906	5858.39
663.097	5817.43
663.289	5686.36
663.481	5839.95
663.673	5766.23
663.864	5684.31
664.056	5698.64
664.247	5588.05
664.439	5502.04
664.631	5608.53
664.822	5661.78
665.014	5657.68
665.205	5448.79
665.397	5508.18
665.588	5454.94
665.78	5411.93
665.971	5330.01
666.163	5395.54
666.354	5342.3
666.546	5422.17
666.737	5422.17
666.929	5485.65
667.12	5325.91
667.311	5215.32
667.503	5059.68
667.694	5160.03
667.885	5205.08
668.077	5022.81
668.268	5211.23
668.459	5186.65
668.651	5053.53
668.842	5051.49
669.033	5176.41
669.224	5123.16
669.416	5133.4
669.607	4990.05
669.798	4949.09
669.989	4930.66
670.18	5014.62
670.371	4963.42
670.563	4985.95
670.754	4832.35
670.945	4846.69
671.136	5078.11
671.327	4996.19
671.518	4924.51
671.709	4908.13
671.9	4832.35
672.091	4979.81
672.282	4856.93
672.473	4770.91
672.664	4754.53
672.855	4678.76
673.046	4869.22
673.237	4924.51
673.428	4811.87
673.619	4760.67
673.809	4586.6
674	4637.8
674.191	4805.73
674.382	4760.67
674.573	4486.25
674.764	4562.02
674.954	4740.19
675.145	4541.54
675.336	4650.08
675.527	4549.73
675.717	4629.6
675.908	4590.69
676.099	4424.81
676.289	4678.76
676.48	4430.95
676.671	4516.97
676.861	4699.23
677.052	4523.11
677.243	4562.02
677.433	4461.67
677.624	4562.02
677.814	4494.44
678.005	4389.99
678.195	4443.24
678.386	4437.09
678.576	4592.74
678.767	4478.05
678.957	4506.73
679.148	4488.29
679.338	4437.09
679.529	4351.08
679.719	4453.48
679.909	4389.99
680.1	4541.54
680.29	4324.46
680.481	4365.42
680.671	4492.39
680.861	4498.53
681.052	4433
681.242	4359.27
681.432	4463.72
681.622	4473.96
681.813	4389.99
682.003	4490.34
682.193	4377.7
682.383	4408.42
682.573	4492.39
682.764	4340.84
682.954	4439.14
683.144	4535.4
683.334	4447.33
683.524	4328.55
683.714	4412.52
683.904	4383.85
684.094	4351.08
684.284	4424.81
684.474	4365.42
684.664	4328.55
684.854	4353.13
685.044	4318.31
685.234	4389.99
685.424	4402.28
685.614	4242.54
685.804	4320.36
685.994	4246.63
686.184	4336.74
686.374	4285.55
686.564	4334.7
686.753	4267.11
686.943	4187.24
687.133	4187.24
687.323	4248.68
687.513	4297.83
687.702	4183.15
687.892	4170.86
688.082	4088.94
688.272	4070.51
688.461	4150.38
688.651	4123.76
688.841	4172.91
689.03	4146.28
689.22	3988.59
689.41	3972.21
689.599	3964.01
689.789	4078.7
689.979	3945.58
690.168	3959.92
690.358	3908.72
690.547	3970.16
690.737	3859.57
690.926	3955.82
691.116	3738.74
691.305	3906.67
691.495	3718.26
691.684	3806.32
691.874	3808.37
692.063	3916.91
692.252	3632.24
692.442	3800.18
692.631	3740.79
692.82	3681.39
693.01	3746.93
693.199	3845.23
693.388	3675.25
693.578	3744.88
693.767	3597.43
693.956	3785.84
694.146	3755.12
694.335	3662.96
694.524	3718.26
694.713	3763.31
694.902	3597.43
695.092	3531.89
695.281	3546.23
695.47	3544.18
695.659	3693.68
695.848	3552.37
696.037	3464.31
696.226	3411.06
696.415	3478.65
696.604	3474.55
696.793	3576.95
696.982	3509.37
697.171	3568.76
697.36	3603.57
697.549	3515.51
697.738	3480.69
697.927	3351.67
698.116	3482.74
698.305	3490.93
698.494	3490.93
698.683	3409.01
698.872	3585.14
699.061	3458.17
699.25	3374.2
699.438	3564.66
699.627	3390.58
699.816	3406.97
700.005	3341.43
700.193	3454.07
700.382	3435.64
700.571	3417.21
700.76	3359.86
700.948	3388.53
701.137	3411.06
701.326	3409.01
701.514	3398.77
701.703	3435.64
701.892	3449.97
702.08	3423.35
702.269	3462.26
702.457	3292.28
702.646	3535.99
702.834	3277.94
703.023	3357.82
703.212	3224.7
703.4	3204.22
703.589	3325.05
703.777	3456.12
703.965	3273.85
704.154	3484.79
704.342	3300.47
704.531	3253.37
704.719	3273.85
704.907	3212.41
705.096	3343.48
705.284	3384.44
705.472	3376.25
705.661	3404.92
705.849	3267.7
706.037	3323
706.226	3329.14
706.414	3294.33
706.602	3427.45
706.79	3400.82
706.979	3175.55
707.167	3353.72
707.355	3290.23
707.543	3349.62
707.731	3406.97
707.919	3486.84
708.107	3402.87
708.296	3292.28
708.484	3284.09
708.672	3304.57
708.86	3314.81
709.048	3251.32
709.236	3314.81
709.424	3320.95
709.612	3357.82
709.8	3335.29
709.988	3318.9
710.176	3335.29
710.364	3415.16
710.551	3331.19
710.739	3224.7
710.927	3380.34
711.115	3245.18
711.303	3433.59
711.491	3318.9
711.679	3363.96
711.866	3343.48
712.054	3347.58
712.242	3419.25
712.43	3312.76
712.617	3361.91
712.805	3351.67
712.993	3363.96
713.181	3210.36
713.368	3435.64
713.556	3439.73
713.744	3316.86
713.931	3429.49
714.119	3329.14
714.306	3206.27
714.494	3284.09
714.682	3294.33
714.869	3257.46
715.057	3310.71
715.244	3292.28
715.432	3394.68
715.619	3413.11
715.807	3384.44
715.994	3298.42
716.182	3314.81
716.369	3327.1
716.556	3386.49
716.744	3425.4
716.931	3351.67
717.119	3480.69
717.306	3499.13
717.493	3306.62
717.681	3396.73
717.868	3449.97
718.055	3456.12
718.242	3421.3
718.43	3372.15
718.617	3533.94
718.804	3380.34
718.991	3341.43
719.179	3296.38
719.366	3370.1
719.553	3433.59
719.74	3323
719.927	3402.87
720.114	3325.05
720.301	3329.14
720.488	3359.86
720.676	3318.9
720.863	3355.77
721.05	3368.06
721.237	3464.31
721.424	3417.21
721.611	3376.25
721.798	3265.66
721.985	3511.41
722.172	3304.57
722.358	3308.66
722.545	3425.4
722.732	3277.94
722.919	3220.6
723.106	3382.39
723.293	3462.26
723.48	3368.06
723.667	3363.96
723.853	3200.12
724.04	3251.32
724.227	3292.28
724.414	3294.33
724.6	3282.04
724.787	3355.77
724.974	3294.33
725.161	3368.06
725.347	3232.89
725.534	3277.94
725.72	3355.77
725.907	3384.44
726.094	3306.62
726.28	3122.3
726.467	3351.67
726.653	3251.32
726.84	3259.51
727.027	3406.97
727.213	3228.79
727.4	3368.06
727.586	3257.46
727.773	3409.01
727.959	3282.04
728.145	3376.25
728.332	3239.03
728.518	3372.15
728.705	3355.77
728.891	3216.51
729.077	3220.6
729.264	3288.18
729.45	3245.18
729.636	3222.65
729.823	3173.5
730.009	3214.46
730.195	3159.16
730.382	3302.52
730.568	3163.26
730.754	3349.62
730.94	3085.44
731.126	3236.99
731.313	3263.61
731.499	3284.09
731.685	3245.18
731.871	3241.08
732.057	3212.41
732.243	3275.9
732.429	3179.64
732.615	3329.14
732.801	3155.07
732.987	3296.38
733.173	3265.66
733.359	3187.83
733.545	3320.95
733.731	3153.02
733.917	3189.88
734.103	3175.55
734.289	3200.12
734.475	3021.95
734.661	3208.31
734.847	3093.63
735.033	3091.58
735.219	3150.97
735.404	3099.77
735.59	3179.64
735.776	3179.64
735.962	3232.89
736.148	3208.31
736.333	3204.22
736.519	3046.52
736.705	3032.19
736.89	3167.35
737.076	3040.38
737.262	3112.06
737.447	3159.16
737.633	3032.19
737.819	3249.27
738.004	2782.34
738.19	3101.82
738.375	3021.95
738.561	2993.28
738.747	3062.91
738.932	2989.18
739.118	2991.23
739.303	3093.63
739.489	3069.05
739.674	2993.28
739.859	3005.56
740.045	3003.52
740.23	2819.2
740.416	2899.07
740.601	3081.34
740.786	2946.17
740.972	2897.02
741.157	2989.18
741.342	3005.56
741.528	2868.35
741.713	2958.46
741.898	2962.56
742.084	2890.88
742.269	2921.6
742.454	2772.1
742.639	2835.58
742.824	2843.78
743.01	2819.2
743.195	2825.34
743.38	2780.29
743.565	2813.06
743.75	2864.25
743.935	2770.05
744.12	2778.24
744.305	2761.86
744.49	2661.51
744.675	2774.14
744.86	2595.97
745.045	2696.32
745.23	2784.38
745.415	2729.09
745.6	2532.48
745.785	2714.75
745.97	2673.79
746.155	2573.44
746.34	2538.63
746.525	2544.77
746.71	2530.44
746.895	2466.95
747.079	2534.53
747.264	2495.62
747.449	2540.68
747.634	2507.91
747.819	2575.49
748.003	2448.52
748.188	2466.95
748.373	2520.2
748.557	2389.13
748.742	2237.58
748.927	2382.98
749.111	2413.7
749.296	2262.15
749.481	2364.55
749.665	2196.62
749.85	2282.63
750.034	2206.86
750.219	2315.4
750.404	2190.47
750.588	2301.06
750.773	2241.67
750.957	2098.31
751.141	2210.95
751.326	2141.32
751.51	2122.89
751.695	2079.88
751.879	2141.32
752.064	2079.88
752.248	2081.93
752.432	2045.07
752.617	1975.44
752.801	2045.07
752.985	2043.02
753.17	2004.11
753.354	2040.97
753.538	1989.77
753.722	1973.39
753.907	1870.99
754.091	1860.75
754.275	1924.24
754.459	1993.87
754.643	1885.33
754.828	1836.17
755.012	1879.18
755.196	1903.76
755.38	1791.12
755.564	1830.03
755.748	1834.13
755.932	1838.22
756.116	1696.91
756.3	1787.02
756.484	1780.88
756.668	1844.37
756.852	1703.06
757.036	1721.49
757.22	1764.5
757.404	1660.05
757.588	1666.19
757.772	1637.52
757.956	1639.57
758.14	1733.78
758.323	1528.98
758.507	1543.32
758.691	1701.01
758.875	1571.99
759.059	1641.62
759.242	1647.76
759.426	1537.17
759.61	1668.24
759.794	1555.6
759.977	1463.44
760.161	1549.46
760.345	1569.94
760.528	1473.68
760.712	1518.74
760.895	1580.18
761.079	1528.98
761.263	1469.59
761.446	1463.44
761.63	1436.82
761.813	1569.94
761.997	1438.87
762.18	1363.09
762.364	1475.73
762.547	1402.01
762.731	1315.99
762.914	1313.94
763.098	1420.44
763.281	1324.18
763.464	1434.77
763.648	1324.18
763.831	1348.76
764.015	1254.55
764.198	1328.28
764.381	1367.19
764.564	1320.09
764.748	1307.8
764.931	1309.85
765.114	1250.46
765.297	1256.6
765.481	1283.22
765.664	1361.05
765.847	1281.18
766.03	1334.42
766.213	1285.27
766.397	1283.22
766.58	1217.69
766.763	1197.21
766.946	1262.74
767.129	1258.65
767.312	1244.31
767.495	1162.39
767.678	1176.73
767.861	1217.69
768.044	1137.82
768.227	1229.98
768.41	1252.5
768.593	1195.16
768.776	1115.29
768.959	1121.43
769.142	1143.96
769.324	1158.3
769.507	1139.87
769.69	1197.21
769.873	1088.67
770.056	1189.02
770.239	1105.05
770.421	1193.11
770.604	1148.06
770.787	1158.3
770.97	1103
771.152	1182.87
771.335	1111.19
771.518	1162.39
771.7	1113.24
771.883	1086.62
772.066	1090.71
772.248	1127.58
772.431	1082.52
772.613	1086.62
772.796	1016.99
772.978	1010.84
773.161	998.56
773.343	1021.08
773.526	963.74
773.708	992.41
773.891	998.56
774.073	926.88
774.256	849.05
774.438	1012.89
774.621	990.36
774.803	1053.85
774.985	928.92
775.168	976.03
775.35	887.97
775.532	998.56
775.715	853.15
775.897	1010.84
776.079	873.63
776.261	890.01
776.444	894.11
776.626	883.87
776.808	847.01
776.99	832.67
777.173	855.2
777.355	857.25
777.537	834.72
777.719	777.37
777.901	857.25
778.083	814.24
778.265	834.72
778.447	894.11
778.629	818.33
778.811	867.49
778.993	816.29
779.175	791.71
779.357	828.57
779.539	748.7
779.721	769.18
779.903	701.6
780.085	783.52
780.267	775.33
780.449	730.27
780.631	820.38
780.812	820.38
780.994	732.32
781.176	709.79
781.358	726.18
781.54	722.08
781.721	732.32
781.903	689.31
782.085	664.74
782.267	677.02
782.448	593.06
782.63	689.31
782.812	693.41
782.993	656.54
783.175	668.83
783.357	681.12
783.538	674.98
783.72	625.83
783.901	619.68
784.083	656.54
784.264	548
784.446	597.15
784.627	558.24
784.809	713.89
784.99	541.86
785.172	597.15
785.353	588.96
785.535	586.91
785.716	636.06
785.897	539.81
786.079	554.15
786.26	560.29
786.441	631.97
786.623	550.05
786.804	529.57
786.985	529.57
787.167	582.82
787.348	468.13
787.529	623.78
787.71	509.09
787.891	525.47
788.073	464.04
788.254	533.67
788.435	517.28
788.616	517.28
788.797	468.13
788.978	568.48
789.159	400.55
789.34	521.38
789.522	472.23
789.703	459.94
789.884	451.75
790.065	478.37
790.246	504.99
790.427	431.27
790.607	474.28
790.788	537.76
790.969	461.99
791.15	496.8
791.331	406.69
791.512	410.79
791.693	433.32
791.874	447.65
792.054	494.76
792.235	480.42
792.416	476.32
792.597	347.3
792.778	423.08
792.958	408.74
793.139	398.5
793.32	371.88
793.5	425.12
793.681	443.56
793.862	437.41
794.042	404.64
794.223	337.06
794.404	451.75
794.584	351.4
794.765	398.5
794.945	371.88
795.126	380.07
795.306	369.83
795.487	314.53
795.667	351.4
795.848	369.83
796.028	359.59
796.209	380.07
796.389	398.5
796.57	353.45
796.75	328.87
796.93	330.92
797.111	345.25
797.291	335.01
797.471	298.15
797.652	328.87
797.832	343.21
798.012	326.82
798.192	367.78
798.373	355.49
798.553	328.87
798.733	335.01
798.913	251.05
799.093	347.3
799.274	328.87
799.454	298.15
799.634	353.45
799.814	404.64
799.994	406.69
800.174	400.55
800.354	294.05
800.534	218.28
800.714	259.24
800.894	267.43
801.074	343.21
801.254	335.01
801.434	292.01
801.614	328.87
801.794	249
801.974	801.95
802.154	253.09
802.334	386.21
802.514	283.81
802.693	300.2
802.873	318.63
803.053	353.45
803.233	312.49
803.413	300.2
803.592	271.53
803.772	162.98
803.952	281.77
804.131	267.43
804.311	380.07
804.491	285.86
804.67	302.25
804.85	265.38
805.03	285.86
805.209	365.73
805.389	259.24
805.568	230.57
805.748	238.76
805.928	312.49
806.107	279.72
806.287	324.77
806.466	234.66
806.646	283.81
806.825	244.9
807.004	326.82
807.184	185.51
807.363	287.91
807.543	240.81
807.722	267.43
807.901	265.38
808.081	263.33
808.26	275.62
808.439	255.14
808.619	193.7
808.798	197.8
808.977	185.51
809.156	287.91
809.336	165.03
809.515	335.01
809.694	210.09
809.873	234.66
810.052	156.84
810.231	263.33
810.411	230.57
810.59	261.29
810.769	249
810.948	261.29
811.127	212.14
811.306	246.95
811.485	234.66
811.664	251.05
811.843	234.66
812.022	201.9
812.201	238.76
812.38	222.38
812.559	146.6
812.737	228.52
812.916	224.42
813.095	287.91
813.274	191.66
813.453	238.76
813.632	218.28
813.811	218.28
813.989	249
814.168	201.9
814.347	179.37
814.526	199.85
814.704	271.53
814.883	240.81
815.062	226.47
815.24	289.96
815.419	203.94
815.598	267.43
815.776	195.75
815.955	140.46
816.133	195.75
816.312	236.71
816.49	228.52
816.669	179.37
816.847	177.32
817.026	187.56
817.204	205.99
817.383	228.52
817.561	179.37
817.74	205.99
817.918	171.18
818.097	269.48
818.275	124.07
818.453	193.7
818.632	214.18
818.81	146.6
818.988	154.79
819.167	158.89
819.345	132.26
819.523	107.69
819.701	158.89
819.879	228.52
820.058	197.8
820.236	132.26
820.414	165.03
820.592	169.13
820.77	130.22
820.948	197.8
821.127	124.07
821.305	160.94
821.483	183.46
821.661	222.38
821.839	179.37
822.017	140.46
822.195	152.74
822.373	189.61
822.551	189.61
822.729	222.38
822.907	167.08
823.085	152.74
823.262	126.12
823.44	89.26
823.618	140.46
823.796	107.69
823.974	179.37
824.152	156.84
824.329	152.74
824.507	193.7
824.685	144.55
824.863	132.26
825.04	238.76
825.218	195.75
825.396	126.12
825.574	162.98
825.751	62.63
825.929	130.22
826.107	19.63
826.284	107.69
826.462	85.16
826.639	197.8
826.817	122.02
826.994	156.84
827.172	66.73
827.349	169.13
827.527	119.98
827.704	144.55
827.882	99.5
828.059	79.02
828.237	91.31
828.414	107.69
828.591	62.63
828.769	115.88
828.946	91.31
829.124	87.21
829.301	126.12
829.478	40.11
829.655	115.88
829.833	134.31
830.01	134.31
830.187	91.31
830.364	152.74
830.542	105.64
830.719	140.46
830.896	214.18
831.073	193.7
831.25	95.4
831.427	99.5
831.604	171.18
831.782	79.02
831.959	134.31
832.136	146.6
832.313	130.22
832.49	136.36
832.667	44.2
832.844	68.78
833.021	162.98
833.198	101.55
833.374	109.74
833.551	128.17
833.728	138.41
833.905	99.5
834.082	115.88
834.259	48.3
834.436	138.41
834.612	83.11
834.789	226.47
834.966	124.07
835.143	136.36
835.319	93.35
835.496	85.16
835.673	115.88
835.85	58.54
836.026	91.31
836.203	115.88
836.38	66.73
836.556	117.93
836.733	132.26
836.909	81.07
837.086	83.11
837.262	113.83
837.439	70.83
837.616	68.78
837.792	79.02
837.968	136.36
838.145	74.92
838.321	107.69
838.498	130.22
838.674	138.41
838.851	46.25
839.027	119.98
839.203	81.07
839.38	52.39
839.556	66.73
839.732	136.36
839.909	119.98
840.085	74.92
840.261	87.21
840.437	38.06
840.614	89.26
840.79	97.45
840.966	79.02
841.142	56.49
841.318	111.78
841.494	126.12
841.671	83.11
841.847	117.93
842.023	-25.43
842.199	132.26
842.375	93.35
842.551	89.26
842.727	29.87
842.903	107.69
843.079	72.87
843.255	66.73
843.431	33.96
843.607	68.78
843.783	-4.95
843.959	119.98
844.134	87.21
844.31	136.36
844.486	111.78
844.662	21.67
844.838	101.55
845.013	111.78
845.189	107.69
845.365	109.74
845.541	33.96
845.716	46.25
845.892	130.22
846.068	48.3
846.244	5.29
846.419	148.65
846.595	-7
846.77	109.74
846.946	-17.24
847.122	46.25
847.297	25.77
847.473	109.74
847.648	62.63
847.824	31.91
847.999	29.87
848.175	109.74
848.35	42.15
848.526	50.35
848.701	97.45
848.876	56.49
849.052	64.68
849.227	-13.14
849.403	42.15
849.578	83.11
849.753	70.83
849.929	124.07
850.104	99.5
850.279	70.83
850.454	103.59
850.63	50.35
850.805	72.87
850.98	17.58
851.155	72.87
851.33	17.58
851.505	-23.38
851.681	21.67
851.856	17.58
852.031	46.25
852.206	115.88
852.381	29.87
852.556	48.3
852.731	-2.9
852.906	74.92
853.081	40.11
853.256	70.83
853.431	29.87
853.606	9.39
853.781	54.44
853.956	-50
854.131	76.97
854.305	58.54
854.48	-9.05
854.655	5.29
854.83	85.16
855.005	81.07
855.18	9.39
855.354	70.83
855.529	66.73
855.704	52.39
855.879	89.26
856.053	99.5
856.228	81.07
856.403	50.35
856.577	103.59
856.752	11.43
856.926	76.97
857.101	-0.85
857.276	74.92
857.45	15.53
857.625	138.41
857.799	62.63
857.974	48.3
858.148	-4.95
858.323	85.16
858.497	87.21
858.672	107.69
858.846	111.78
859.02	25.77
859.195	81.07
859.369	36.01
859.543	60.59
859.718	91.31
859.892	11.43
860.066	19.63
860.241	46.25
860.415	58.54
860.589	-47.96
860.763	31.91
860.938	87.21
861.112	23.72
861.286	17.58
861.46	42.15
861.634	52.39
861.808	17.58
861.982	48.3
862.157	68.78
862.331	-31.57
862.505	70.83
862.679	-9.05
862.853	3.24
863.027	-31.57
863.201	113.83
863.375	1.19
863.549	36.01
863.722	107.69
863.896	50.35
864.07	21.67
864.244	64.68
864.418	17.58
864.592	99.5
864.766	66.73
864.939	52.39
865.113	25.77
865.287	89.26
865.461	-2.9
865.634	99.5
865.808	19.63
865.982	50.35
866.156	-19.29
866.329	25.77
866.503	-17.24
866.676	52.39
866.85	105.64
867.024	40.11
867.197	74.92
867.371	103.59
867.544	50.35
867.718	38.06
867.891	83.11
868.065	-68.44
868.238	58.54
868.412	99.5
868.585	99.5
868.759	21.67
868.932	11.43
869.105	66.73
869.279	27.82
869.452	-19.29
869.625	29.87
869.799	13.48
869.972	46.25
870.145	-15.19
870.319	40.11
870.492	31.91
870.665	72.87
870.838	11.43
871.011	-7
871.185	89.26
871.358	-0.85
871.531	27.82
871.704	103.59
871.877	-19.29
872.05	-19.29
872.223	50.35
872.396	46.25
872.569	64.68
872.742	-50
872.915	33.96
873.088	103.59
873.261	15.53
873.434	-2.9
873.607	9.39
873.78	46.25
873.953	3.24
874.126	81.07
874.299	17.58
874.471	46.25
874.644	42.15
874.817	66.73
874.99	7.34
875.163	17.58
875.335	83.11
875.508	5.29
875.681	93.35
875.853	29.87
876.026	-29.52
876.199	64.68
876.371	9.39
876.544	-45.91
876.717	70.83
876.889	15.53
877.062	60.59
877.234	-13.14
877.407	56.49
877.579	46.25
877.752	52.39
877.924	76.97
878.097	38.06
878.269	99.5
878.442	52.39
878.614	64.68
878.786	13.48
878.959	44.2
879.131	31.91
879.303	-41.81
879.476	25.77
879.648	44.2
879.82	56.49
879.993	25.77
880.165	27.82
880.337	97.45
880.509	25.77
880.681	-15.19
880.854	9.39
881.026	138.41
881.198	91.31
881.37	-7
881.542	64.68
881.714	50.35
881.886	107.69
882.058	66.73
882.23	-17.24
882.402	19.63
882.574	79.02
882.746	1.19
882.918	50.35
883.09	68.78
883.262	50.35
883.434	-17.24
883.606	-0.85
883.778	48.3
883.95	9.39
884.122	50.35
884.293	-0.85
884.465	64.68
884.637	13.48
884.809	33.96
884.98	33.96
885.152	-15.19
885.324	93.35
885.496	-19.29
885.667	15.53
885.839	42.15
886.011	23.72
886.182	23.72
886.354	50.35
886.525	107.69
886.697	-27.48
886.869	-15.19
887.04	79.02
887.212	25.77
887.383	-7
887.555	-9.05
887.726	46.25
887.897	58.54
888.069	7.34
888.24	31.91
888.412	-2.9
888.583	-39.76
888.754	54.44
888.926	29.87
889.097	44.2
889.268	54.44
889.44	9.39
889.611	27.82
889.782	83.11
889.953	-66.39
890.125	91.31
890.296	58.54
890.467	13.48
890.638	9.39
890.809	-50
890.98	29.87
891.151	-37.72
891.323	-25.43
891.494	87.21
891.665	-31.57
891.836	11.43
892.007	17.58
892.178	64.68
892.349	-37.72
892.52	-76.63
892.691	76.97
892.862	-2.9
893.032	-23.38
893.203	60.59
893.374	1.19
893.545	68.78
893.716	33.96
893.887	-15.19
894.057	3.24
894.228	1.19
894.399	-35.67
894.57	31.91
894.74	-39.76
894.911	17.58
895.082	5.29
895.253	48.3
895.423	-7
895.594	85.16
895.764	15.53
895.935	19.63
896.106	31.91
896.276	42.15
896.447	27.82
896.617	7.34
896.788	25.77
896.958	-25.43
897.129	5.29
897.299	7.34
897.47	83.11
897.64	13.48
897.81	-4.95
897.981	21.67
898.151	-29.52
898.322	9.39
898.492	31.91
898.662	-7
898.832	1.19
899.003	-13.14
899.173	-4.95
899.343	-29.52
899.513	-39.76
