Data from USB4F104151__192__10-29-26-016.txt Node

Date: Wed Mar 12 10:29:26 EDT 2025
User: louis
Spectrometer: USB4F10415
Trigger mode: 4
Integration Time (sec): 3.000000E-2
Scans to average: 1
Electric dark correction enabled: true
Nonlinearity correction enabled: false
Boxcar width: 0
XAxis mode: Wavelengths
Number of Pixels in Spectrum: 3648
>>>>>Begin Spectral Data<<<<<
178.204	-91.13
178.424	-91.13
178.644	-91.13
178.864	-66.56
179.084	-146.43
179.304	9.22
179.524	17.41
179.744	33.79
179.964	41.98
180.184	-17.41
180.404	-39.94
180.624	-7.17
180.844	-29.7
181.064	-17.41
181.283	58.37
181.503	-25.6
181.723	-23.55
181.943	21.5
182.163	17.41
182.383	-7.17
182.602	-74.75
182.822	99.33
183.042	74.75
183.262	-7.17
183.482	27.65
183.701	29.7
183.921	54.27
184.141	-35.84
184.361	95.23
184.58	109.57
184.8	15.36
185.02	5.12
185.239	101.37
185.459	72.7
185.679	48.13
185.898	-11.26
186.118	56.32
186.338	-7.17
186.557	-1.02
186.777	25.6
186.997	11.26
187.216	27.65
187.436	68.61
187.655	9.22
187.875	-46.08
188.095	72.7
188.314	62.46
188.534	50.18
188.753	27.65
188.973	27.65
189.192	74.75
189.412	52.22
189.631	3.07
189.851	33.79
190.07	48.13
190.29	80.89
190.509	33.79
190.729	-23.55
190.948	9.22
191.168	82.94
191.387	48.13
191.607	-46.08
191.826	105.47
192.045	-3.07
192.265	37.89
192.484	33.79
192.704	56.32
192.923	-23.55
193.142	89.09
193.362	21.5
193.581	78.85
193.8	41.98
194.02	39.94
194.239	17.41
194.458	35.84
194.678	35.84
194.897	-1.02
195.116	11.26
195.335	50.18
195.555	-7.17
195.774	78.85
195.993	1.02
196.212	5.12
196.432	23.55
196.651	50.18
196.87	44.03
197.089	119.81
197.308	35.84
197.528	17.41
197.747	-15.36
197.966	41.98
198.185	56.32
198.404	29.7
198.623	50.18
198.842	-5.12
199.062	56.32
199.281	44.03
199.5	68.61
199.719	91.13
199.938	48.13
200.157	48.13
200.376	41.98
200.595	50.18
200.814	58.37
201.033	19.46
201.252	132.09
201.471	33.79
201.69	29.7
201.909	64.51
202.128	50.18
202.347	76.8
202.566	19.46
202.785	41.98
203.004	-3.07
203.223	39.94
203.442	-9.22
203.661	48.13
203.879	50.18
204.098	70.65
204.317	25.6
204.536	82.94
204.755	64.51
204.974	29.7
205.193	46.08
205.411	62.46
205.63	37.89
205.849	-11.26
206.068	46.08
206.287	48.13
206.505	101.37
206.724	15.36
206.943	5.12
207.162	119.81
207.381	41.98
207.599	23.55
207.818	41.98
208.037	91.13
208.255	89.09
208.474	62.46
208.693	68.61
208.911	44.03
209.13	-19.46
209.349	70.65
209.567	46.08
209.786	97.28
210.005	56.32
210.223	56.32
210.442	-25.6
210.661	1.02
210.879	-1.02
211.098	7.17
211.316	72.7
211.535	93.18
211.753	-35.84
211.972	78.85
212.191	-19.46
212.409	39.94
212.628	130.05
212.846	107.52
213.065	76.8
213.283	70.65
213.502	11.26
213.72	13.31
213.938	82.94
214.157	74.75
214.375	56.32
214.594	17.41
214.812	27.65
215.031	-11.26
215.249	31.74
215.467	33.79
215.686	37.89
215.904	121.85
216.122	46.08
216.341	76.8
216.559	78.85
216.778	48.13
216.996	70.65
217.214	78.85
217.432	-44.03
217.651	13.31
217.869	87.04
218.087	17.41
218.306	58.37
218.524	80.89
218.742	9.22
218.96	74.75
219.179	31.74
219.397	109.57
219.615	7.17
219.833	52.22
220.051	-27.65
220.27	5.12
220.488	9.22
220.706	44.03
220.924	29.7
221.142	11.26
221.36	91.13
221.578	-21.5
221.796	-5.12
222.015	-46.08
222.233	41.98
222.451	97.28
222.669	-39.94
222.887	39.94
223.105	17.41
223.323	50.18
223.541	-7.17
223.759	35.84
223.977	1.02
224.195	66.56
224.413	121.85
224.631	78.85
224.849	-9.22
225.067	60.42
225.285	-27.65
225.503	64.51
225.721	52.22
225.939	-15.36
226.157	7.17
226.375	80.89
226.592	17.41
226.81	37.89
227.028	78.85
227.246	123.9
227.464	76.8
227.682	99.33
227.9	105.47
228.117	33.79
228.335	39.94
228.553	19.46
228.771	70.65
228.989	64.51
229.206	76.8
229.424	50.18
229.642	21.5
229.86	46.08
230.077	80.89
230.295	17.41
230.513	99.33
230.731	46.08
230.948	72.7
231.166	76.8
231.384	31.74
231.601	35.84
231.819	89.09
232.037	-70.65
232.254	58.37
232.472	31.74
232.689	-9.22
232.907	144.38
233.125	21.5
233.342	1.02
233.56	15.36
233.777	15.36
233.995	95.23
234.213	29.7
234.43	52.22
234.648	-1.02
234.865	91.13
235.083	66.56
235.3	-9.22
235.518	-5.12
235.735	62.46
235.953	19.46
236.17	9.22
236.388	132.09
236.605	7.17
236.822	99.33
237.04	95.23
237.257	111.61
237.475	-7.17
237.692	66.56
237.909	39.94
238.127	-13.31
238.344	78.85
238.562	72.7
238.779	52.22
238.996	-5.12
239.214	113.66
239.431	93.18
239.648	37.89
239.865	115.71
240.083	13.31
240.3	84.99
240.517	44.03
240.735	27.65
240.952	130.05
241.169	82.94
241.386	33.79
241.603	31.74
241.821	1.02
242.038	7.17
242.255	111.61
242.472	-35.84
242.689	48.13
242.907	29.7
243.124	-3.07
243.341	54.27
243.558	17.41
243.775	-1.02
243.992	68.61
244.209	66.56
244.426	82.94
244.643	48.13
244.86	132.09
245.078	35.84
245.295	74.75
245.512	58.37
245.729	31.74
245.946	33.79
246.163	-29.7
246.38	27.65
246.597	-9.22
246.814	33.79
247.031	7.17
247.248	56.32
247.464	121.85
247.681	107.52
247.898	21.5
248.115	72.7
248.332	35.84
248.549	46.08
248.766	23.55
248.983	50.18
249.2	119.81
249.417	23.55
249.633	-13.31
249.85	72.7
250.067	62.46
250.284	58.37
250.501	134.14
250.717	68.61
250.934	-15.36
251.151	93.18
251.368	7.17
251.585	72.7
251.801	107.52
252.018	62.46
252.235	74.75
252.451	-33.79
252.668	13.31
252.885	52.22
253.102	46.08
253.318	25.6
253.535	72.7
253.752	66.56
253.968	72.7
254.185	-37.89
254.401	19.46
254.618	46.08
254.835	44.03
255.051	103.42
255.268	46.08
255.484	68.61
255.701	64.51
255.917	48.13
256.134	56.32
256.351	5.12
256.567	25.6
256.784	-37.89
257	15.36
257.217	136.19
257.433	54.27
257.65	17.41
257.866	35.84
258.082	31.74
258.299	17.41
258.515	80.89
258.732	11.26
258.948	-9.22
259.165	64.51
259.381	37.89
259.597	37.89
259.814	52.22
260.03	46.08
260.246	82.94
260.463	11.26
260.679	80.89
260.895	39.94
261.112	50.18
261.328	44.03
261.544	25.6
261.761	109.57
261.977	5.12
262.193	-44.03
262.409	87.04
262.626	46.08
262.842	-19.46
263.058	64.51
263.274	35.84
263.49	74.75
263.707	52.22
263.923	58.37
264.139	23.55
264.355	-19.46
264.571	158.72
264.787	54.27
265.004	58.37
265.22	-19.46
265.436	11.26
265.652	5.12
265.868	99.33
266.084	-39.94
266.3	50.18
266.516	48.13
266.732	11.26
266.948	25.6
267.164	97.28
267.38	35.84
267.596	60.42
267.812	62.46
268.028	17.41
268.244	60.42
268.46	15.36
268.676	91.13
268.892	68.61
269.108	91.13
269.324	-13.31
269.54	1.02
269.756	91.13
269.972	11.26
270.188	95.23
270.403	-46.08
270.619	84.99
270.835	82.94
271.051	54.27
271.267	-5.12
271.483	29.7
271.698	109.57
271.914	54.27
272.13	33.79
272.346	-1.02
272.562	68.61
272.777	142.33
272.993	25.6
273.209	37.89
273.425	13.31
273.64	111.61
273.856	95.23
274.072	144.38
274.287	74.75
274.503	68.61
274.719	29.7
274.934	56.32
275.15	13.31
275.366	-29.7
275.581	64.51
275.797	78.85
276.012	-56.32
276.228	64.51
276.444	13.31
276.659	150.53
276.875	-1.02
277.09	9.22
277.306	58.37
277.521	60.42
277.737	27.65
277.952	144.38
278.168	82.94
278.383	-46.08
278.599	74.75
278.814	39.94
279.03	-7.17
279.245	66.56
279.461	91.13
279.676	84.99
279.892	64.51
280.107	50.18
280.322	62.46
280.538	99.33
280.753	91.13
280.969	52.22
281.184	84.99
281.399	58.37
281.615	19.46
281.83	93.18
282.045	-62.46
282.26	41.98
282.476	11.26
282.691	74.75
282.906	54.27
283.122	76.8
283.337	-5.12
283.552	95.23
283.767	56.32
283.983	123.9
284.198	-1.02
284.413	91.13
284.628	1.02
284.843	64.51
285.058	103.42
285.274	41.98
285.489	115.71
285.704	39.94
285.919	-11.26
286.134	52.22
286.349	50.18
286.564	68.61
286.779	76.8
286.995	21.5
287.21	-46.08
287.425	35.84
287.64	33.79
287.855	103.42
288.07	-52.22
288.285	48.13
288.5	-1.02
288.715	66.56
288.93	13.31
289.145	25.6
289.36	134.14
289.575	41.98
289.79	91.13
290.004	1.02
290.219	101.37
290.434	70.65
290.649	37.89
290.864	-35.84
291.079	37.89
291.294	48.13
291.509	101.37
291.724	11.26
291.938	78.85
292.153	82.94
292.368	41.98
292.583	25.6
292.798	31.74
293.012	74.75
293.227	-60.42
293.442	7.17
293.657	56.32
293.871	128
294.086	138.24
294.301	54.27
294.516	35.84
294.73	33.79
294.945	17.41
295.16	13.31
295.374	103.42
295.589	15.36
295.804	11.26
296.018	87.04
296.233	64.51
296.447	41.98
296.662	84.99
296.877	84.99
297.091	89.09
297.306	142.33
297.52	91.13
297.735	31.74
297.949	58.37
298.164	41.98
298.378	29.7
298.593	35.84
298.807	-15.36
299.022	68.61
299.236	105.47
299.451	84.99
299.665	74.75
299.88	-23.55
300.094	64.51
300.309	35.84
300.523	58.37
300.737	33.79
300.952	35.84
301.166	23.55
301.381	97.28
301.595	41.98
301.809	-1.02
302.024	58.37
302.238	66.56
302.452	136.19
302.667	39.94
302.881	113.66
303.095	128
303.309	72.7
303.524	91.13
303.738	46.08
303.952	-25.6
304.166	70.65
304.381	-1.02
304.595	134.14
304.809	7.17
305.023	74.75
305.237	25.6
305.452	46.08
305.666	-19.46
305.88	70.65
306.094	91.13
306.308	72.7
306.522	70.65
306.736	44.03
306.95	74.75
307.164	78.85
307.379	35.84
307.593	109.57
307.807	33.79
308.021	41.98
308.235	62.46
308.449	15.36
308.663	109.57
308.877	35.84
309.091	82.94
309.305	56.32
309.519	41.98
309.733	111.61
309.947	54.27
310.161	74.75
310.374	91.13
310.588	134.14
310.802	41.98
311.016	82.94
311.23	105.47
311.444	121.85
311.658	52.22
311.872	93.18
312.085	181.25
312.299	44.03
312.513	72.7
312.727	41.98
312.941	33.79
313.154	74.75
313.368	99.33
313.582	29.7
313.796	41.98
314.009	60.42
314.223	15.36
314.437	25.6
314.651	107.52
314.864	121.85
315.078	7.17
315.292	5.12
315.505	27.65
315.719	35.84
315.933	82.94
316.146	41.98
316.36	-15.36
316.573	37.89
316.787	33.79
317.001	74.75
317.214	5.12
317.428	72.7
317.641	29.7
317.855	33.79
318.068	-23.55
318.282	66.56
318.495	103.42
318.709	64.51
318.922	72.7
319.136	80.89
319.349	70.65
319.563	70.65
319.776	117.76
319.99	33.79
320.203	87.04
320.417	62.46
320.63	64.51
320.843	117.76
321.057	56.32
321.27	9.22
321.483	54.27
321.697	123.9
321.91	15.36
322.124	50.18
322.337	21.5
322.55	91.13
322.763	70.65
322.977	78.85
323.19	-27.65
323.403	41.98
323.617	11.26
323.83	91.13
324.043	78.85
324.256	25.6
324.469	-7.17
324.683	78.85
324.896	-21.5
325.109	56.32
325.322	62.46
325.535	76.8
325.748	78.85
325.962	52.22
326.175	74.75
326.388	27.65
326.601	39.94
326.814	35.84
327.027	68.61
327.24	82.94
327.453	17.41
327.666	54.27
327.879	68.61
328.092	50.18
328.305	-17.41
328.518	25.6
328.731	39.94
328.944	48.13
329.157	91.13
329.37	68.61
329.583	140.29
329.796	46.08
330.009	33.79
330.222	68.61
330.435	33.79
330.648	107.52
330.861	89.09
331.073	33.79
331.286	62.46
331.499	103.42
331.712	60.42
331.925	31.74
332.138	-31.74
332.35	56.32
332.563	39.94
332.776	91.13
332.989	41.98
333.202	50.18
333.414	74.75
333.627	99.33
333.84	44.03
334.053	101.37
334.265	23.55
334.478	82.94
334.691	25.6
334.903	117.76
335.116	15.36
335.329	11.26
335.541	7.17
335.754	84.99
335.966	29.7
336.179	7.17
336.392	-17.41
336.604	46.08
336.817	87.04
337.029	117.76
337.242	89.09
337.454	82.94
337.667	-15.36
337.88	82.94
338.092	134.14
338.305	41.98
338.517	1.02
338.729	54.27
338.942	74.75
339.154	-52.22
339.367	50.18
339.579	76.8
339.792	-17.41
340.004	19.46
340.217	58.37
340.429	-9.22
340.641	76.8
340.854	35.84
341.066	97.28
341.278	93.18
341.491	121.85
341.703	91.13
341.915	9.22
342.128	74.75
342.34	82.94
342.552	33.79
342.764	68.61
342.977	99.33
343.189	89.09
343.401	95.23
343.613	-27.65
343.826	48.13
344.038	82.94
344.25	66.56
344.462	15.36
344.674	64.51
344.886	74.75
345.099	107.52
345.311	87.04
345.523	41.98
345.735	1.02
345.947	70.65
346.159	44.03
346.371	80.89
346.583	60.42
346.795	91.13
347.007	54.27
347.219	119.81
347.431	48.13
347.643	46.08
347.855	33.79
348.067	130.05
348.279	-15.36
348.491	60.42
348.703	89.09
348.915	72.7
349.127	64.51
349.339	74.75
349.551	-9.22
349.763	128
349.975	25.6
350.187	58.37
350.399	89.09
350.61	78.85
350.822	78.85
351.034	74.75
351.246	91.13
351.458	103.42
351.669	97.28
351.881	70.65
352.093	80.89
352.305	74.75
352.517	46.08
352.728	113.66
352.94	136.19
353.152	68.61
353.363	-13.31
353.575	58.37
353.787	95.23
353.999	50.18
354.21	64.51
354.422	87.04
354.633	-11.26
354.845	7.17
355.057	80.89
355.268	46.08
355.48	37.89
355.692	23.55
355.903	74.75
356.115	68.61
356.326	25.6
356.538	115.71
356.749	93.18
356.961	78.85
357.172	58.37
357.384	13.31
357.595	150.53
357.807	123.9
358.018	111.61
358.23	-7.17
358.441	78.85
358.653	48.13
358.864	52.22
359.075	5.12
359.287	64.51
359.498	78.85
359.709	58.37
359.921	-39.94
360.132	60.42
360.344	78.85
360.555	25.6
360.766	130.05
360.977	50.18
361.189	11.26
361.4	60.42
361.611	119.81
361.823	78.85
362.034	91.13
362.245	95.23
362.456	74.75
362.667	107.52
362.879	80.89
363.09	78.85
363.301	128
363.512	70.65
363.723	80.89
363.935	-25.6
364.146	58.37
364.357	80.89
364.568	115.71
364.779	107.52
364.99	144.38
365.201	97.28
365.412	78.85
365.623	58.37
365.834	50.18
366.045	54.27
366.256	103.42
366.467	56.32
366.678	97.28
366.889	103.42
367.1	50.18
367.311	132.09
367.522	99.33
367.733	82.94
367.944	82.94
368.155	52.22
368.366	148.48
368.577	62.46
368.788	21.5
368.999	23.55
369.209	11.26
369.42	173.05
369.631	95.23
369.842	123.9
370.053	29.7
370.264	95.23
370.474	54.27
370.685	74.75
370.896	80.89
371.107	117.76
371.317	121.85
371.528	41.98
371.739	15.36
371.95	41.98
372.16	103.42
372.371	41.98
372.582	91.13
372.792	-19.46
373.003	62.46
373.214	82.94
373.424	52.22
373.635	66.56
373.846	62.46
374.056	97.28
374.267	95.23
374.477	97.28
374.688	39.94
374.898	66.56
375.109	5.12
375.319	101.37
375.53	195.58
375.74	101.37
375.951	99.33
376.161	60.42
376.372	119.81
376.582	82.94
376.793	74.75
377.003	97.28
377.214	87.04
377.424	87.04
377.635	160.77
377.845	-7.17
378.055	111.61
378.266	60.42
378.476	68.61
378.686	72.7
378.897	119.81
379.107	138.24
379.317	23.55
379.528	-19.46
379.738	97.28
379.948	27.65
380.158	95.23
380.369	125.95
380.579	160.77
380.789	80.89
380.999	113.66
381.21	91.13
381.42	140.29
381.63	105.47
381.84	76.8
382.05	56.32
382.261	140.29
382.471	109.57
382.681	93.18
382.891	115.71
383.101	21.5
383.311	-25.6
383.521	-25.6
383.731	136.19
383.941	132.09
384.151	89.09
384.361	111.61
384.571	80.89
384.781	109.57
384.991	105.47
385.201	115.71
385.411	109.57
385.621	103.42
385.831	60.42
386.041	41.98
386.251	62.46
386.461	66.56
386.671	140.29
386.881	27.65
387.091	13.31
387.301	66.56
387.511	58.37
387.72	54.27
387.93	7.17
388.14	52.22
388.35	-17.41
388.56	99.33
388.769	27.65
388.979	56.32
389.189	64.51
389.399	132.09
389.609	156.67
389.818	64.51
390.028	156.67
390.238	74.75
390.447	101.37
390.657	142.33
390.867	89.09
391.076	109.57
391.286	121.85
391.496	97.28
391.705	91.13
391.915	84.99
392.125	70.65
392.334	62.46
392.544	119.81
392.753	44.03
392.963	9.22
393.172	87.04
393.382	107.52
393.591	195.58
393.801	144.38
394.01	109.57
394.22	74.75
394.429	123.9
394.639	50.18
394.848	123.9
395.058	105.47
395.267	132.09
395.477	72.7
395.686	117.76
395.895	146.43
396.105	119.81
396.314	95.23
396.524	72.7
396.733	158.72
396.942	128
397.152	95.23
397.361	74.75
397.57	105.47
397.78	132.09
397.989	123.9
398.198	187.39
398.407	199.68
398.617	84.99
398.826	164.86
399.035	119.81
399.244	93.18
399.453	115.71
399.663	128
399.872	224.25
400.081	117.76
400.29	152.57
400.499	99.33
400.708	142.33
400.917	111.61
401.127	187.39
401.336	115.71
401.545	222.2
401.754	226.3
401.963	263.16
402.172	185.34
402.381	203.77
402.59	148.48
402.799	175.1
403.008	197.63
403.217	236.54
403.426	234.49
403.635	160.77
403.844	240.64
404.053	152.57
404.262	93.18
404.471	242.68
404.68	164.86
404.888	201.72
405.097	130.05
405.306	199.68
405.515	173.05
405.724	189.44
405.933	201.72
406.142	271.36
406.35	295.93
406.559	259.07
406.768	250.88
406.977	318.46
407.185	254.97
407.394	252.92
407.603	316.41
407.812	226.3
408.02	295.93
408.229	263.16
408.438	343.03
408.646	379.9
408.855	330.75
409.064	414.71
409.272	359.42
409.481	427
409.69	338.94
409.898	310.27
410.107	474.1
410.315	492.54
410.524	439.29
410.733	480.25
410.941	523.26
411.15	441.34
411.358	556.02
411.567	517.11
411.775	480.25
411.984	578.55
412.192	691.19
412.401	566.26
412.609	613.37
412.818	695.29
413.026	664.57
413.234	689.14
413.443	730.1
413.651	680.95
413.86	726
414.068	887.79
414.276	840.69
414.485	869.36
414.693	949.23
414.901	959.47
415.11	848.88
415.318	955.38
415.526	1115.12
415.734	1025.01
415.943	1057.78
416.151	1145.84
416.359	1104.88
416.567	1092.59
416.776	1205.23
416.984	1209.33
417.192	1301.48
417.4	1338.35
417.608	1299.44
417.817	1414.12
418.025	1450.99
418.233	1618.92
418.441	1547.24
418.649	1559.53
418.857	1774.56
419.065	1711.08
419.273	1729.51
419.481	1872.87
419.689	1917.92
419.897	1975.27
420.105	2120.67
420.313	2085.86
420.521	2208.73
420.729	2264.03
420.937	2307.04
421.145	2343.9
421.353	2552.79
421.561	2429.91
421.769	2663.38
421.977	2776.02
422.185	2687.96
422.393	2790.36
422.601	3175.38
422.809	3158.99
423.017	3099.6
423.224	3208.14
423.432	3400.65
423.64	3437.52
423.848	3677.13
424.056	3515.34
424.263	3929.03
424.471	3886.02
424.679	3910.6
424.887	4117.44
425.094	4291.52
425.302	4332.48
425.51	4350.91
425.718	4520.89
425.925	4582.33
426.133	4746.17
426.341	4998.07
426.548	5166
426.756	5321.65
426.964	5188.53
427.171	5768.1
427.379	5925.8
427.586	5956.52
427.794	5888.93
428.001	6415.26
428.209	6495.13
428.417	6486.94
428.624	6919.06
428.832	7003.03
429.039	6980.5
429.247	7027.6
429.454	7531.41
429.662	8233.86
429.869	7658.38
430.076	8067.97
430.284	7893.9
430.491	8227.71
430.699	8657.79
430.906	8715.13
431.114	8829.82
431.321	9083.77
431.528	9503.6
431.736	9892.71
431.943	10371.94
432.15	9995.11
432.358	10296.16
432.565	10861.4
432.772	10873.69
432.979	11225.94
433.187	11639.63
433.394	11580.24
433.601	12612.42
433.808	12469.06
434.016	12194.63
434.223	12649.28
434.43	13443.89
434.637	13321.01
434.844	13943.6
435.052	14324.52
435.259	14590.75
435.466	14588.71
435.673	14508.83
435.88	15252.25
436.087	16317.19
436.294	15995.66
436.501	15700.75
436.708	15917.84
436.915	16339.72
437.122	17445.62
437.329	17373.94
437.537	17468.15
437.743	18066.16
437.95	17697.52
438.157	18864.86
438.364	19847.89
438.571	19432.15
438.778	19446.49
438.985	21523.13
439.192	20497.1
439.399	21496.5
439.606	20572.87
439.813	21768.88
440.02	23110.3
440.227	22528.68
440.433	22241.96
440.64	23120.54
440.847	23278.24
441.054	23714.45
441.261	25127.55
441.467	25086.59
441.674	25619.07
441.881	26159.73
442.088	26360.43
442.294	25950.84
442.501	26899.05
442.708	27343.45
442.914	28398.16
443.121	29487.68
443.328	28895.82
443.534	31087.14
443.741	30085.68
443.948	29674.04
444.154	31832.6
444.361	31377.95
444.568	31689.24
444.774	31855.13
444.981	32193.04
445.187	32883.21
445.394	34419.19
445.6	33649.15
445.807	37280.2
446.013	35240.42
446.22	36194.78
446.426	37548.48
446.633	38123.96
446.839	39006.64
447.046	37671.36
447.252	39473.57
447.459	39209.39
447.665	38996.4
447.871	40870.29
448.078	42469.75
448.284	41339.27
448.491	41929.09
448.697	43108.72
448.903	44018.02
449.11	44157.28
449.316	43444.59
449.522	44101.98
449.728	44839.25
449.935	45803.85
450.141	45482.31
450.347	47028.53
450.553	44910.93
450.76	45533.51
450.966	47008.05
451.172	46180.67
451.378	47726.89
451.584	46469.43
451.791	47587.63
451.997	47483.18
452.203	48232.74
452.409	47733.03
452.615	47993.12
452.821	45771.08
453.027	45861.19
453.233	47866.15
453.44	45977.92
453.646	46371.13
453.852	46821.69
454.058	46762.29
454.264	45779.27
454.47	46649.66
454.676	45853
454.882	47608.11
455.088	43026.8
455.294	43643.24
455.5	43884.9
455.705	45128.02
455.911	43043.18
456.117	42191.23
456.323	41935.23
456.529	39496.1
456.735	41136.52
456.941	39748
457.147	39436.71
457.352	37974.46
457.558	37458.37
457.764	37964.22
457.97	37104.07
458.176	36153.82
458.381	36303.32
458.587	34558.45
458.793	34357.75
458.999	32913.93
459.204	34648.56
459.41	34265.59
459.616	32051.73
459.821	31605.28
460.027	31549.98
460.233	31195.68
460.438	29592.12
460.644	29889.08
460.85	28148.31
461.055	28054.1
461.261	28045.91
461.466	25838.2
461.672	25094.79
461.878	26864.23
462.083	25260.67
462.289	24777.35
462.494	24576.65
462.7	23753.37
462.905	23032.48
463.111	23476.89
463.316	24027.79
463.522	23147.17
463.727	23343.77
463.932	23132.83
464.138	23184.03
464.343	23206.56
464.549	22434.47
464.754	23263.9
464.959	22792.87
465.165	22721.19
465.37	22162.09
465.575	21363.39
465.781	22442.67
465.986	22201.01
466.191	21349.05
466.397	21144.25
466.602	20341.45
466.807	20951.74
467.012	20619.97
467.218	20959.94
467.423	20601.54
467.628	20658.88
467.833	21390.01
468.038	20519.62
468.244	20099.79
468.449	20898.5
468.654	20175.56
468.859	19882.7
469.064	20069.07
469.269	19321.56
469.474	19565.27
469.679	19888.85
469.885	18907.87
470.09	19450.58
470.295	19161.82
470.5	19043.04
470.705	18967.26
470.91	18658.02
471.115	18617.06
471.32	18860.77
471.525	18762.47
471.73	18316.01
471.935	18123.5
472.139	17423.09
472.344	17535.73
472.549	17564.4
472.754	17511.16
472.959	16894.72
473.164	16581.38
473.369	16460.55
473.574	17025.79
473.778	16845.57
473.983	16567.04
474.188	16708.35
474.393	15985.42
474.598	15790.86
474.802	15766.29
475.007	15684.37
475.212	15657.75
475.417	14975.77
475.621	15213.34
475.826	15092.51
476.031	15069.98
476.235	14711.58
476.44	14861.09
476.645	14525.22
476.849	14625.57
477.054	14492.45
477.259	14246.69
477.463	14242.6
477.668	13802.29
477.872	13892.4
478.077	13749.04
478.282	13355.83
478.486	13359.92
478.691	13370.16
478.895	13288.25
479.1	13208.37
479.304	13298.49
479.509	12833.6
479.713	12905.28
479.918	12903.23
480.122	12757.82
480.326	12890.94
480.531	12944.19
480.735	12845.88
480.94	12395.33
481.144	12874.56
481.348	12342.08
481.553	12688.19
481.757	12114.76
481.961	12483.39
482.166	12401.47
482.37	12495.68
482.574	12165.96
482.778	12297.03
482.983	12456.77
483.187	12430.15
483.391	12303.17
483.595	12172.1
483.8	12229.45
484.004	12198.73
484.208	12475.2
484.412	12059.46
484.616	12436.29
484.821	12376.9
485.025	12165.96
485.229	12510.02
485.433	12276.55
485.637	12475.2
485.841	12264.26
486.045	12364.61
486.249	12567.36
486.453	12264.26
486.657	12481.35
486.861	12522.3
487.065	12041.03
487.269	12456.77
487.473	12290.88
487.677	12493.63
487.881	12436.29
488.085	12350.28
488.289	12536.64
488.493	12215.11
488.697	12360.52
488.901	12424
489.105	12512.07
489.309	12501.83
489.512	12550.98
489.716	12680
489.92	12471.11
490.124	12475.2
490.328	12641.09
490.531	12790.59
490.735	12581.7
490.939	12743.49
491.143	12821.31
491.346	12655.42
491.55	12888.89
491.754	13120.31
491.958	12970.81
492.161	13153.08
492.365	13005.63
492.569	13105.98
492.772	13097.78
492.976	13288.25
493.18	13421.36
493.383	13353.78
493.587	13697.84
493.79	13806.38
493.994	13550.39
494.197	13812.53
494.401	13904.68
494.605	13929.26
494.808	14029.61
495.012	14095.14
495.215	14281.51
495.419	14254.89
495.622	14129.96
495.825	14721.82
496.029	14488.35
496.232	14877.47
496.436	14840.61
496.639	15217.43
496.843	15133.47
497.046	15405.84
497.249	15500.05
497.453	15631.12
497.656	15708.94
497.859	15661.84
498.063	15997.71
498.266	16370.44
498.469	16233.22
498.673	16593.67
498.876	16700.16
499.079	16665.35
499.282	16921.34
499.485	17355.51
499.689	17396.47
499.892	17388.28
500.095	17468.15
500.298	18070.25
500.501	18113.26
500.705	18445.03
500.908	18529
501.111	18907.87
501.314	19182.3
501.517	19333.85
501.72	19407.58
501.923	19374.81
502.126	19772.11
502.329	20210.38
502.532	20333.26
502.735	20628.17
502.938	20701.89
503.141	20601.54
503.344	21498.55
503.547	21115.58
503.75	21363.39
503.953	22102.7
504.156	21930.67
504.359	21908.15
504.562	22385.32
504.765	22688.42
504.968	22995.62
505.17	23497.37
505.373	22954.66
505.576	23853.72
505.779	24154.77
505.982	23958.16
506.185	24353.42
506.387	24724.1
506.59	24935.04
506.793	25469.56
506.996	25191.04
507.198	26157.68
507.401	25498.23
507.604	26100.34
507.807	26675.82
508.009	26890.85
508.212	27226.72
508.415	27353.69
508.617	27712.09
508.82	27617.88
509.022	27820.63
509.225	28375.63
509.428	28889.67
509.63	28832.33
509.833	28971.59
510.035	29923.9
510.238	29467.2
510.44	30048.82
510.643	30253.62
510.845	30458.42
511.048	30593.58
511.25	31324.71
511.453	31341.09
511.655	32234
511.858	31871.51
512.06	32246.29
512.262	32676.37
512.465	32596.49
512.667	33413.63
512.87	33864.19
513.072	33325.57
513.274	34122.23
513.477	34552.3
513.679	34689.52
513.881	35027.43
514.084	35721.69
514.286	35727.84
514.488	35867.1
514.69	36841.93
514.893	36231.64
515.095	36528.59
515.297	37401.03
515.499	37382.6
515.701	37648.83
515.904	37910.97
516.106	38605.23
516.308	38771.12
516.51	39264.68
516.712	39215.53
516.914	39860.64
517.116	40421.78
517.318	40573.33
517.52	40696.21
517.722	41146.76
517.925	41521.54
518.127	41867.65
518.329	41755.01
518.531	42006.91
518.733	42553.72
518.935	42731.89
519.136	43002.22
519.338	44005.73
519.54	43757.92
519.742	44472.67
519.944	44941.65
520.146	44968.27
520.348	45398.35
520.55	45422.92
520.752	45816.13
520.954	46389.56
521.155	45961.54
521.357	46663.99
521.559	47067.44
521.761	47382.83
521.963	47933.73
522.164	48032.04
522.366	48245.02
522.568	48539.93
522.77	48544.03
522.971	49674.51
523.173	48662.81
523.375	49869.06
523.576	49312.02
523.778	49752.33
523.98	50133.25
524.181	51099.89
524.383	50710.78
524.584	51613.93
524.786	50940.15
524.988	50991.35
525.189	51939.56
525.391	51900.65
525.592	52508.89
525.794	52768.99
525.995	52906.2
526.197	52392.16
526.398	53065.94
526.6	52945.11
526.801	53475.54
527.003	53467.34
527.204	53741.77
527.406	54249.67
527.607	53938.38
527.808	54499.52
528.01	53291.22
528.211	54468.8
528.412	55089.34
528.614	54868.15
528.815	54954.17
529.016	55269.56
529.218	55027.9
529.419	55040.18
529.62	55068.86
529.822	55302.32
530.023	55290.04
530.224	55611.57
530.425	55863.47
530.626	55175.35
530.828	55759.02
531.029	56668.32
531.23	55423.15
531.431	55759.02
531.632	55818.41
531.833	56660.13
532.035	56199.33
532.236	56400.04
532.437	56690.85
532.638	56498.34
532.839	56359.08
533.04	56567.97
533.241	55955.63
533.442	57231.51
533.643	56754.33
533.844	56281.25
534.045	56692.89
534.246	56588.45
534.447	56783.01
534.648	56318.12
534.849	56690.85
535.05	56393.89
535.251	56561.82
535.451	56567.97
535.652	56823.96
535.853	56570.02
536.054	57176.22
536.255	57241.75
536.456	55990.44
536.657	57088.15
536.857	56522.91
537.058	56592.54
537.259	57168.02
537.46	56967.32
537.66	56948.89
537.861	57268.37
538.062	57067.67
538.263	56952.99
538.463	56819.87
538.664	57118.87
538.865	57026.71
539.065	56965.27
539.266	56871.07
539.466	57368.72
539.667	56658.08
539.868	57223.32
540.068	56963.23
540.269	56627.36
540.469	57112.73
540.67	56438.95
540.87	56721.57
541.071	56731.81
541.271	57010.33
541.472	56527.01
541.672	56449.19
541.873	56524.96
542.073	56141.99
542.274	57067.67
542.474	56846.49
542.675	56397.99
542.875	56520.87
543.075	56750.24
543.276	55625.9
543.476	56809.63
543.676	56113.32
543.877	56744.09
544.077	57020.57
544.277	56789.15
544.478	56488.1
544.678	57278.61
544.878	56610.98
545.078	56590.5
545.279	56119.46
545.479	56291.49
545.679	56819.87
545.879	56379.56
546.079	56086.7
546.28	56576.16
546.48	56154.28
546.68	56653.98
546.88	56791.2
547.08	56182.95
547.28	56201.38
547.48	56023.21
547.68	56148.14
547.88	56158.38
548.081	56660.13
548.281	55926.95
548.481	55451.83
548.681	56410.28
548.881	55879.85
549.081	56283.3
549.28	55832.75
549.48	56350.88
549.68	56086.7
549.88	56940.7
550.08	55732.4
550.28	56371.36
550.48	55797.93
550.68	56529.06
550.88	55814.32
551.08	55902.38
551.279	56193.19
551.479	55881.9
551.679	56117.42
551.879	55613.62
552.079	56586.4
552.278	55724.21
552.478	55693.49
552.678	55793.84
552.878	56291.49
553.077	56088.74
553.277	55492.79
553.477	56322.21
553.676	55777.45
553.876	55466.16
554.076	55818.41
554.275	55709.87
554.475	54902.97
554.674	55847.08
554.874	55480.5
555.074	55185.59
555.273	55333.04
555.473	55787.69
555.672	55261.36
555.872	55283.89
556.071	55201.97
556.271	55134.39
556.47	54970.55
556.67	55042.23
556.869	54888.63
557.068	55462.07
557.268	55089.34
557.467	54921.4
557.667	55097.53
557.866	54870.2
558.065	54882.49
558.265	54640.83
558.464	54421.7
558.663	54792.38
558.863	54409.41
559.062	55007.42
559.261	54012.1
559.461	54743.23
559.66	53913.8
559.859	54708.41
560.058	54126.79
560.258	54390.98
560.457	53799.12
560.656	54311.11
560.855	54300.87
561.054	54108.36
561.253	53485.78
561.453	53782.73
561.652	54249.67
561.851	54319.3
562.05	53868.75
562.249	53418.19
562.448	53774.54
562.647	53725.39
562.846	53168.34
563.045	53663.95
563.244	52781.27
563.443	53704.91
563.642	52701.4
563.841	52986.07
564.04	52814.04
564.239	53131.48
564.438	53012.7
564.637	53041.37
564.836	52803.8
565.035	52406.5
565.234	52672.73
565.432	52269.28
565.631	52046.05
565.83	52269.28
566.029	52324.58
566.228	52353.25
566.427	52283.62
566.625	51677.42
566.824	51286.26
567.023	52046.05
567.222	51103.99
567.42	51994.85
567.619	51796.2
567.818	51136.76
568.016	51243.25
568.215	51665.13
568.414	51390.7
568.612	51245.3
568.811	50661.63
569.01	51177.72
569.208	50686.2
569.407	51036.41
569.605	50559.23
569.804	51136.76
570.002	50278.66
570.201	50432.25
570.4	50221.31
570.598	49842.44
570.797	49522.96
570.995	49871.11
571.193	49801.48
571.392	49803.53
571.59	49451.28
571.789	49500.43
571.987	49393.93
572.186	49334.54
572.384	49045.78
572.582	49461.52
572.781	49219.86
572.979	48851.22
573.177	48900.37
573.376	49168.66
573.574	48699.67
573.772	49135.89
573.971	48144.67
574.169	48296.22
574.367	48003.36
574.565	48580.89
574.763	48204.06
574.962	47884.58
575.16	47687.98
575.358	47941.92
575.556	47450.41
575.754	48146.72
575.952	47038.77
576.151	48003.36
576.349	47233.33
576.547	47372.59
576.745	47397.16
576.943	47106.35
577.141	47159.6
577.339	46788.92
577.537	46696.76
577.735	46919.99
577.933	46149.95
578.131	46848.31
578.329	46491.96
578.527	45930.82
578.725	46655.8
578.923	46403.9
579.121	45766.98
579.319	46063.94
579.516	46379.32
579.714	45584.71
579.912	45138.26
580.11	45601.1
580.308	45494.6
580.506	45427.02
580.704	44650.84
580.901	45332.81
581.099	45390.16
581.297	45154.64
581.495	44532.06
581.692	44826.96
581.89	44603.74
582.088	44982.61
582.285	44341.6
582.483	44511.58
582.681	44233.05
582.878	43909.47
583.076	43837.8
583.274	44396.89
583.471	43495.78
583.669	44067.17
583.866	43802.98
584.064	43796.84
584.262	42846.58
584.459	43481.45
584.657	43100.53
584.854	43583.85
585.052	42613.11
585.249	43354.47
585.447	43352.43
585.644	42369.4
585.841	42305.91
586.039	43139.44
586.236	42363.26
586.434	42402.17
586.631	42224
586.828	42502.52
587.026	42193.28
587.223	42166.65
587.42	42031.49
587.618	41980.29
587.815	41746.82
588.012	41218.44
588.21	41638.28
588.407	41824.64
588.604	41150.86
588.801	40864.14
588.999	41027.98
589.196	40870.29
589.393	40757.65
589.59	40708.5
589.787	40419.74
589.984	40565.14
590.182	39733.67
590.379	40626.58
590.576	39979.42
590.773	40208.79
590.97	39809.44
591.167	40116.64
591.364	39481.77
591.561	39498.15
591.758	39405.99
591.955	39236.01
592.152	39528.87
592.349	39197.1
592.546	39582.12
592.743	39025.07
592.94	38611.38
593.137	38975.92
593.334	39049.64
593.531	38568.37
593.727	38523.32
593.924	38965.68
594.121	38250.94
594.318	38150.59
594.515	37796.29
594.712	38138.3
594.908	38185.4
595.105	38578.61
595.302	37403.08
595.499	38134.2
595.696	37546.44
595.892	37347.78
596.089	37390.79
596.286	37390.79
596.482	36927.95
596.679	37478.85
596.876	36637.14
597.072	36712.91
597.269	36868.56
597.466	36630.99
597.662	36506.07
597.859	36747.73
598.055	36563.41
598.252	36276.69
598.448	36190.68
598.645	35701.22
598.841	35432.93
599.038	35807.71
599.234	35940.83
599.431	35377.64
599.627	35408.36
599.824	35824.09
600.02	35254.76
600.217	35453.41
600.413	34859.5
600.609	35002.86
600.806	34859.5
601.002	35023.34
601.198	34341.36
601.395	34720.24
601.591	34548.21
601.787	34228.73
601.984	34015.74
602.18	34519.54
602.376	34046.46
602.572	34060.79
602.769	33751.55
602.965	33550.85
603.161	33759.74
603.357	33743.36
603.553	33475.07
603.75	33675.77
603.946	33110.53
604.142	33073.67
604.338	32647.69
604.534	33063.43
604.73	32612.88
604.926	32942.6
605.122	32760.33
605.318	32813.58
605.514	32657.93
605.71	32545.3
605.906	32287.25
606.102	32524.82
606.298	32344.59
606.494	32061.97
606.69	32424.47
606.886	32205.33
607.082	31760.92
607.278	32016.92
607.474	31504.93
607.67	31711.77
607.866	31418.91
608.062	31496.74
608.257	31304.23
608.453	31732.25
608.649	31343.14
608.845	31031.85
609.041	31386.15
609.236	31234.6
609.432	31273.51
609.628	30915.11
609.824	30825
610.019	30841.39
610.215	30665.26
610.411	30771.75
610.606	30296.63
610.802	30833.19
610.998	30245.43
611.193	30454.32
611.389	30251.57
611.584	30323.25
611.78	30423.6
611.976	30288.43
612.171	30120.5
612.367	30276.15
612.562	29911.61
612.758	29927.99
612.953	29497.92
613.149	30356.02
613.344	29583.93
613.539	30214.71
613.735	29569.6
613.93	29747.77
614.126	29377.09
614.321	29594.17
614.517	29272.64
614.712	29319.74
614.907	29039.17
615.103	29266.5
615.298	28971.59
615.493	28959.3
615.688	28754.51
615.884	29657.66
616.079	28711.5
616.274	29061.7
616.47	28947.01
616.665	28817.99
616.86	28791.37
617.055	28746.31
617.25	28387.92
617.445	28625.48
617.641	28273.23
617.836	28451.41
618.031	28310.1
618.226	28140.11
618.421	28013.14
618.616	28230.23
618.811	27458.14
619.006	27892.31
619.201	27617.88
619.396	27718.23
619.591	27368.03
619.786	27636.31
619.981	27011.68
620.176	27347.55
620.371	26798.7
620.566	26804.84
620.761	26647.15
620.956	26970.72
621.151	26354.29
621.346	26684.01
621.541	26307.18
621.735	26550.89
621.93	25930.36
622.125	26186.35
622.32	25623.16
622.515	25743.99
622.709	25313.92
622.904	25696.89
623.099	25305.73
623.294	25365.12
623.488	24933
623.683	25129.6
623.878	24869.51
624.072	24910.47
624.267	24625.8
624.462	24324.75
624.656	24261.26
624.851	24199.82
625.046	24210.06
625.24	23831.19
625.435	23667.35
625.629	23628.44
625.824	23741.08
626.018	23333.53
626.213	23089.82
626.407	23384.73
626.602	22870.69
626.796	23012
626.991	22942.37
627.185	22690.47
627.38	22618.79
627.574	22522.54
627.768	22215.34
627.963	22450.86
628.157	21740.21
628.352	22289.07
628.546	21523.13
628.74	21910.19
628.935	21504.7
629.129	21711.54
629.323	21185.21
629.517	21371.58
629.712	21095.1
629.906	20949.7
630.1	20728.52
630.294	20921.02
630.489	20323.02
630.683	20632.26
630.877	20173.52
631.071	20415.18
631.265	20286.15
631.459	19938
631.653	20441.8
631.848	19970.77
632.042	19753.68
632.236	19897.04
632.43	19448.54
632.624	19880.66
632.818	19296.99
633.012	19368.66
633.206	18817.76
633.4	19227.35
633.594	18828
633.788	18766.56
633.982	19006.17
634.176	18633.44
634.369	18604.77
634.563	18774.75
634.757	18295.53
634.951	18561.76
635.145	18445.03
635.339	18508.52
635.533	18057.96
635.726	18107.12
635.92	17621.75
636.114	17834.74
636.308	17593.08
636.501	17746.67
636.695	17578.74
636.889	17212.15
637.083	17177.34
637.276	17249.02
637.47	17117.95
637.664	17033.98
637.857	17105.66
638.051	17044.22
638.244	16651.01
638.438	16616.19
638.632	16384.77
638.825	16440.07
639.019	16421.64
639.212	16204.55
639.406	16337.67
639.599	16046.86
639.793	16167.69
639.986	15885.07
640.18	15878.93
640.373	15846.16
640.567	15735.57
640.76	15788.82
640.954	15594.26
641.147	15373.08
641.34	15428.37
641.534	15477.52
641.727	15096.6
641.92	15305.49
642.114	15110.94
642.307	15018.78
642.5	14779.17
642.694	14551.84
642.887	14807.84
643.08	14615.33
643.273	14570.27
643.467	14508.83
643.66	14177.06
643.853	14328.61
644.046	14107.43
644.239	13880.11
644.432	13910.83
644.626	13927.21
644.819	13970.22
645.012	14082.86
645.205	13900.59
645.398	13845.29
645.591	13470.51
645.784	13628.21
645.977	13361.97
646.17	13562.67
646.363	13417.27
646.556	13093.69
646.749	13329.2
646.942	13280.05
647.135	12999.48
647.328	12870.46
647.521	12841.79
647.714	12825.4
647.907	13009.72
648.099	12716.86
648.292	12788.54
648.485	12501.83
648.678	12358.47
648.871	12346.18
649.064	12485.44
649.256	12520.26
649.449	12229.45
649.642	12114.76
649.835	12067.66
650.027	12311.36
650.22	11957.07
650.413	11909.96
650.605	12073.8
650.798	11981.64
650.991	11895.63
651.183	11649.87
651.376	11641.68
651.568	11690.83
651.761	11322.2
651.954	11340.63
652.146	11434.83
652.339	11162.45
652.531	11330.39
652.724	11123.54
652.916	11027.29
653.109	11092.82
653.301	11060.06
653.494	11076.44
653.686	10779.48
653.879	11023.19
654.071	10683.23
654.263	10984.28
654.456	10738.52
654.648	10709.85
654.84	10429.28
655.033	10414.95
655.225	10412.9
655.417	10507.1
655.61	10425.18
655.802	10367.84
655.994	10582.88
656.186	10240.87
656.379	10138.47
656.571	10144.61
656.763	10054.5
656.955	10019.69
657.148	10013.54
657.34	10025.83
657.532	9814.89
657.724	9651.05
657.916	9812.84
658.108	9886.57
658.3	9825.13
658.492	9544.56
658.684	9436.02
658.876	9638.76
659.068	9444.21
659.26	9487.22
659.452	9255.79
659.644	9272.18
659.836	9161.59
660.028	9112.44
660.22	9061.24
660.412	9132.92
660.604	8821.63
660.796	9130.87
660.988	8969.08
661.18	9001.85
661.372	8698.75
661.563	8946.55
661.755	8835.96
661.947	8799.1
662.139	8786.81
662.331	8514.43
662.522	8573.82
662.714	8627.07
662.906	8471.42
663.097	8489.85
663.289	8289.15
663.481	8401.79
663.673	8313.73
663.864	8246.15
664.056	8248.19
664.247	8176.52
664.439	8117.12
664.631	8207.23
664.822	8086.4
665.014	7998.34
665.205	7910.28
665.397	8031.11
665.588	8127.36
665.78	7881.61
665.971	7981.96
666.163	8016.77
666.354	7930.76
666.546	7904.14
666.737	7676.81
666.929	7748.49
667.12	7746.44
667.311	7668.62
667.503	7422.86
667.694	7482.25
667.885	7523.21
668.077	7426.96
668.268	7398.29
668.459	7414.67
668.651	7371.66
668.842	7359.38
669.033	7218.07
669.224	7267.22
669.416	7426.96
669.607	7431.05
669.798	7351.18
669.989	7117.72
670.18	7068.56
670.371	7156.63
670.563	6929.3
670.754	7103.38
670.945	6900.63
671.136	7046.04
671.327	7005.08
671.518	6945.69
671.709	6730.65
671.9	6831
672.091	6861.72
672.282	6769.56
672.473	6632.35
672.664	6849.43
672.855	6843.29
673.046	6597.53
673.237	6665.11
673.428	6667.16
673.619	6593.44
673.809	6572.96
674	6658.97
674.191	6458.27
674.382	6634.39
674.573	6425.5
674.764	6566.81
674.954	6474.65
675.145	6540.19
675.336	6509.47
675.527	6495.13
675.717	6261.66
675.908	6560.67
676.099	6335.39
676.289	6294.43
676.48	6226.85
676.671	6304.67
676.861	6286.24
677.052	6142.88
677.243	6192.03
677.433	6077.35
677.624	6300.58
677.814	6022.05
678.005	6175.65
678.195	6091.68
678.386	6151.07
678.576	6009.76
678.767	5981.09
678.957	5983.14
679.148	6179.75
679.338	6040.48
679.529	6124.45
679.719	6077.35
679.909	6288.29
680.1	5962.66
680.29	5919.65
680.481	5960.61
680.671	5811.11
680.861	5811.11
681.052	5931.94
681.242	5821.35
681.432	6071.2
681.622	5948.33
681.813	5886.89
682.003	5759.91
682.193	5723.05
682.383	5776.3
682.573	5798.82
682.764	5651.37
682.954	5657.51
683.144	5661.61
683.334	5487.53
683.524	5749.67
683.714	5700.52
683.904	5714.86
684.094	5612.46
684.284	5600.17
684.474	5538.73
684.664	5571.5
684.854	5628.84
685.044	5493.68
685.234	5563.31
685.424	5438.38
685.614	5489.58
685.804	5475.24
685.994	5563.31
686.184	5522.35
686.374	5413.81
686.564	5327.79
686.753	5389.23
686.943	5370.8
687.133	5432.24
687.323	5338.03
687.513	5209.01
687.702	5252.02
687.892	5213.1
688.082	5108.66
688.272	5305.26
688.461	5129.14
688.651	5166
688.841	5217.2
689.03	5178.29
689.22	5084.08
689.41	5014.45
689.599	5137.33
689.789	5100.47
689.979	5020.6
690.168	4985.78
690.358	5004.21
690.547	4875.19
690.737	4807.61
690.926	4932.53
691.116	4821.94
691.305	5018.55
691.495	4807.61
691.684	4936.63
691.874	4756.41
692.063	4998.07
692.252	4778.94
692.442	4686.78
692.631	4791.22
692.82	4793.27
693.01	4586.43
693.199	4670.39
693.388	4531.13
693.578	4635.58
693.767	4754.36
693.956	4567.99
694.146	4547.51
694.335	4498.36
694.524	4565.95
694.713	4463.55
694.902	4338.62
695.092	4627.39
695.281	4457.4
695.47	4481.98
695.659	4416.44
695.848	4465.6
696.037	4328.38
696.226	4398.01
696.415	4391.87
696.604	4496.32
696.793	4438.97
696.982	4455.36
697.171	4385.73
697.36	4201.41
697.549	4365.25
697.738	4234.18
697.927	4236.22
698.116	4359.1
698.305	4135.87
698.494	4277.18
698.683	4363.2
698.872	4299.71
699.061	4221.89
699.25	4309.95
699.438	4387.77
699.627	4217.79
699.816	4277.18
700.005	4090.82
700.193	4197.31
700.382	4299.71
700.571	4076.48
700.76	4021.19
700.948	4129.73
701.137	4238.27
701.326	4217.79
701.514	4086.72
701.703	4217.79
701.892	4142.02
702.08	4215.74
702.269	4238.27
702.457	4084.67
702.646	4094.91
702.834	4150.21
703.023	3990.47
703.212	4004.8
703.4	4109.25
703.589	4031.43
703.777	3947.46
703.965	4021.19
704.154	3978.18
704.342	3937.22
704.531	4033.47
704.719	3935.17
704.907	4182.98
705.096	3992.52
705.284	4037.57
705.472	4088.77
705.661	4066.24
705.849	3992.52
706.037	3990.47
706.226	3937.22
706.414	3939.27
706.602	3873.73
706.79	4078.53
706.979	3912.64
707.167	3955.65
707.355	3982.28
707.543	3988.42
707.731	4101.06
707.919	3824.58
708.107	3931.08
708.296	3914.69
708.484	4015.04
708.672	3771.33
708.86	4027.33
709.048	3929.03
709.236	3761.09
709.424	3986.37
709.612	3732.42
709.8	3918.79
709.988	3955.65
710.176	3951.56
710.364	3894.21
710.551	3949.51
710.739	3918.79
710.927	3814.34
711.115	3894.21
711.303	3982.28
711.491	3929.03
711.679	3767.24
711.866	3769.29
712.054	3834.82
712.242	3795.91
712.43	3810.25
712.617	3912.64
712.805	3689.42
712.993	3740.61
713.181	3695.56
713.368	3859.4
713.556	3896.26
713.744	3701.7
713.931	3959.75
714.119	3881.92
714.306	3865.54
714.494	3662.79
714.682	3965.89
714.869	3750.85
715.057	3787.72
715.244	3648.46
715.432	3840.97
715.619	3789.77
715.807	3783.62
715.994	3673.03
716.182	3734.47
716.369	3761.09
716.556	3800.01
716.744	3709.9
716.931	3765.19
717.119	3656.65
717.306	3818.44
717.493	3726.28
717.681	3597.26
717.868	3660.74
718.055	3765.19
718.242	3544.01
718.43	3713.99
718.617	3728.33
718.804	3818.44
718.991	3777.48
719.179	3691.46
719.366	3601.35
719.553	3609.54
719.74	3648.46
719.927	3746.76
720.114	3589.07
720.301	3668.94
720.488	3634.12
720.676	3761.09
720.863	3607.5
721.05	3646.41
721.237	3701.7
721.424	3587.02
721.611	3568.59
721.798	3632.07
721.985	3560.39
722.172	3584.97
722.358	3564.49
722.545	3580.87
722.732	3619.78
722.919	3701.7
723.106	3670.98
723.293	3623.88
723.48	3527.63
723.667	3603.4
723.853	3531.72
724.04	3691.46
724.227	3619.78
724.414	3728.33
724.6	3482.57
724.787	3529.67
724.974	3619.78
725.161	3572.68
725.347	3480.52
725.534	3605.45
725.72	3757
725.907	3611.59
726.094	3580.87
726.28	3535.82
726.467	3580.87
726.653	3587.02
726.84	3521.48
727.027	3505.1
727.213	3533.77
727.4	3564.49
727.586	3501
727.773	3539.91
727.959	3398.6
728.145	3388.36
728.332	3523.53
728.518	3441.61
728.705	3496.91
728.891	3462.09
729.077	3468.24
729.264	3300.3
729.45	3601.35
729.636	3599.31
729.823	3388.36
730.009	3355.6
730.195	3337.17
730.382	3498.95
730.568	3421.13
730.754	3343.31
730.94	3449.8
731.126	3433.42
731.313	3410.89
731.499	3376.08
731.685	3369.93
731.871	3421.13
732.057	3341.26
732.243	3380.17
732.429	3382.22
732.615	3269.58
732.801	3386.32
732.987	3255.25
733.173	3376.08
733.359	3310.54
733.545	3318.73
733.731	3271.63
733.917	3347.4
734.103	3218.38
734.289	3251.15
734.475	3326.93
734.661	3382.22
734.847	3267.53
735.033	3285.97
735.219	3290.06
735.404	3347.4
735.59	3271.63
735.776	3273.68
735.962	3363.79
736.148	3290.06
736.333	3175.38
736.519	3165.14
736.705	3181.52
736.89	3101.65
737.076	3032.02
737.262	3255.25
737.447	3195.86
737.633	3204.05
737.819	3216.33
738.004	3175.38
738.19	3089.36
738.375	3171.28
738.561	3204.05
738.747	3081.17
738.932	3124.18
739.118	3054.55
739.303	3144.66
739.489	3064.79
739.674	2980.82
739.859	3050.45
740.045	3068.88
740.23	3003.35
740.416	2859.99
740.601	2986.96
740.786	3034.07
740.972	2888.66
741.157	2939.86
741.342	3005.39
741.528	2982.87
741.713	2921.43
741.898	2825.17
742.084	2917.33
742.269	2882.52
742.454	2868.18
742.639	2900.95
742.824	2802.65
743.01	2913.24
743.195	2882.52
743.38	2753.49
743.565	2829.27
743.75	2794.45
743.935	2712.53
744.12	2763.73
744.305	2903
744.49	2827.22
744.675	2769.88
744.86	2759.64
745.045	2755.54
745.23	2808.79
745.415	2706.39
745.6	2720.73
745.785	2593.75
745.97	2757.59
746.155	2618.33
746.34	2704.34
746.525	2630.62
746.71	2606.04
746.895	2599.9
747.079	2585.56
747.264	2597.85
747.449	2495.45
747.634	2571.22
747.819	2583.51
748.003	2423.77
748.188	2546.65
748.373	2458.59
748.557	2356.19
748.742	2454.49
748.927	2462.68
749.111	2421.72
749.296	2323.42
749.481	2298.84
749.665	2313.18
749.85	2307.04
750.034	2415.58
750.219	2333.66
750.404	2313.18
750.588	2118.62
750.773	2259.93
750.957	2210.78
751.141	2268.13
751.326	2106.34
751.51	2218.97
751.695	2110.43
751.879	2157.54
752.064	2298.84
752.248	2098.14
752.432	2118.62
752.617	2151.39
752.801	2163.68
752.985	2028.51
753.17	2092
753.354	2147.3
753.538	2057.18
753.722	2016.23
753.907	1971.17
754.091	1895.4
754.275	2081.76
754.459	1874.92
754.643	1887.2
754.828	1954.79
755.012	1926.11
755.196	1868.77
755.38	1958.88
755.564	1768.42
755.748	1850.34
755.932	1879.01
756.116	1795.04
756.3	1872.87
756.484	1815.52
756.668	1770.47
756.852	1762.28
757.036	1731.56
757.22	1754.09
757.404	1704.93
757.588	1735.65
757.772	1684.45
757.956	1688.55
758.14	1731.56
758.323	1739.75
758.507	1770.47
758.691	1721.32
758.875	1666.02
759.059	1606.63
759.242	1571.82
759.426	1606.63
759.61	1629.16
759.794	1530.86
759.977	1610.73
760.161	1668.07
760.345	1551.34
760.528	1645.54
760.712	1563.62
760.895	1549.29
761.079	1434.6
761.263	1522.66
761.446	1473.51
761.63	1512.42
761.813	1489.9
761.997	1487.85
762.18	1487.85
762.364	1512.42
762.547	1391.59
762.731	1446.89
762.914	1418.22
763.098	1328.11
763.281	1426.41
763.464	1418.22
763.648	1459.18
763.831	1405.93
764.015	1330.16
764.198	1350.64
764.381	1367.02
764.564	1496.04
764.748	1410.03
764.931	1442.79
765.114	1352.68
765.297	1332.2
765.481	1287.15
765.664	1385.45
765.847	1326.06
766.03	1328.11
766.213	1332.2
766.397	1371.12
766.58	1137.65
766.763	1207.28
766.946	1356.78
767.129	1332.2
767.312	1231.85
767.495	1209.33
767.678	1309.68
767.861	1254.38
768.044	1186.8
768.227	1293.29
768.41	1246.19
768.593	1287.15
768.776	1274.86
768.959	1291.24
769.142	1367.02
769.324	1211.37
769.507	1256.43
769.69	1225.71
769.873	1176.56
770.056	1276.91
770.239	1194.99
770.421	1094.64
770.604	1154.03
770.787	1143.79
770.97	1203.18
771.152	1094.64
771.335	1221.61
771.518	1108.98
771.7	1201.13
771.883	1184.75
772.066	1102.83
772.248	1168.37
772.431	1154.03
772.613	1158.13
772.796	947.19
772.978	1086.45
773.161	1080.3
773.343	1092.59
773.526	1000.43
773.708	1000.43
773.891	1100.78
774.073	969.71
774.256	967.67
774.438	1119.21
774.621	924.66
774.803	1057.78
774.985	1000.43
775.168	1010.67
775.35	1025.01
775.532	959.47
775.715	914.42
775.897	943.09
776.079	910.32
776.261	1010.67
776.444	967.67
776.626	916.47
776.808	938.99
776.99	852.98
777.173	1008.62
777.355	891.89
777.537	826.36
777.719	922.61
777.901	801.78
778.083	943.09
778.265	822.26
778.447	795.64
778.629	898.03
778.811	861.17
778.993	832.5
779.175	834.55
779.357	783.35
779.539	771.06
779.721	779.25
779.903	832.5
780.085	746.48
780.267	803.83
780.449	730.1
780.631	760.82
780.812	885.75
780.994	789.49
781.176	713.72
781.358	773.11
781.54	836.6
781.721	766.96
781.903	715.77
782.085	766.96
782.267	719.86
782.448	672.76
782.63	689.14
782.812	746.48
782.993	781.3
783.175	683
783.357	633.85
783.538	744.44
783.72	644.09
783.901	666.61
784.083	676.85
784.264	689.14
784.446	596.98
784.627	721.91
784.809	605.17
784.99	611.32
785.172	656.37
785.353	619.51
785.535	556.02
785.716	621.56
785.897	568.31
786.079	639.99
786.26	580.6
786.441	644.09
786.623	517.11
786.804	564.22
786.985	603.13
787.167	596.98
787.348	529.4
787.529	590.84
787.71	584.7
787.891	574.46
788.073	525.3
788.254	453.63
788.435	553.98
788.616	531.45
788.797	498.68
788.978	490.49
789.159	508.92
789.34	568.31
789.522	547.83
789.703	517.11
789.884	547.83
790.065	523.26
790.246	496.63
790.427	506.87
790.607	490.49
790.788	496.63
790.969	568.31
791.15	461.82
791.331	467.96
791.512	467.96
791.693	488.44
791.874	539.64
792.054	496.63
792.235	515.06
792.416	492.54
792.597	414.71
792.778	515.06
792.958	457.72
793.139	424.95
793.32	394.23
793.5	383.99
793.681	476.15
793.862	457.72
794.042	506.87
794.223	345.08
794.404	379.9
794.584	402.43
794.765	410.62
794.945	373.75
795.126	406.52
795.306	453.63
795.487	472.06
795.667	361.47
795.848	433.15
796.028	383.99
796.209	365.56
796.389	353.27
796.57	379.9
796.75	263.16
796.93	340.99
797.111	406.52
797.291	363.51
797.471	363.51
797.652	435.19
797.832	433.15
798.012	418.81
798.192	383.99
798.373	334.84
798.553	336.89
798.733	408.57
798.913	332.79
799.093	336.89
799.274	414.71
799.454	388.09
799.634	328.7
799.814	449.53
799.994	386.04
800.174	332.79
800.354	322.56
800.534	300.03
800.714	361.47
800.894	308.22
801.074	343.03
801.254	285.69
801.434	355.32
801.614	334.84
801.794	250.88
801.974	893.94
802.154	261.12
802.334	410.62
802.514	322.56
802.693	283.64
802.873	349.18
803.053	263.16
803.233	312.32
803.413	336.89
803.592	295.93
803.772	310.27
803.952	275.45
804.131	267.26
804.311	302.08
804.491	365.56
804.67	300.03
804.85	207.87
805.03	302.08
805.209	263.16
805.389	232.44
805.568	283.64
805.748	285.69
805.928	254.97
806.107	343.03
806.287	316.41
806.466	347.13
806.646	209.92
806.825	265.21
807.004	265.21
807.184	285.69
807.363	297.98
807.543	240.64
807.722	261.12
807.901	353.27
808.081	297.98
808.26	230.4
808.439	230.4
808.619	297.98
808.798	232.44
808.977	259.07
809.156	312.32
809.336	246.78
809.515	302.08
809.694	181.25
809.873	201.72
810.052	304.12
810.231	318.46
810.411	226.3
810.59	232.44
810.769	293.88
810.948	228.35
811.127	181.25
811.306	199.68
811.485	168.96
811.664	240.64
811.843	203.77
812.022	236.54
812.201	273.4
812.38	238.59
812.559	183.29
812.737	234.49
812.916	222.2
813.095	189.44
813.274	187.39
813.453	187.39
813.632	162.81
813.811	236.54
813.989	199.68
814.168	259.07
814.347	166.91
814.526	130.05
814.704	209.92
814.883	287.74
815.062	189.44
815.24	175.1
815.419	115.71
815.598	168.96
815.776	195.58
815.955	207.87
816.133	168.96
816.312	189.44
816.49	156.67
816.669	201.72
816.847	168.96
817.026	185.34
817.204	183.29
817.383	166.91
817.561	123.9
817.74	220.16
817.918	205.82
818.097	148.48
818.275	156.67
818.453	203.77
818.632	136.19
818.81	148.48
818.988	175.1
819.167	207.87
819.345	218.11
819.523	123.9
819.701	177.15
819.879	201.72
820.058	162.81
820.236	173.05
820.414	158.72
820.592	134.14
820.77	197.63
820.948	158.72
821.127	179.2
821.305	152.57
821.483	125.95
821.661	156.67
821.839	171.01
822.017	175.1
822.195	121.85
822.373	224.25
822.551	152.57
822.729	138.24
822.907	189.44
823.085	191.49
823.262	177.15
823.44	89.09
823.618	189.44
823.796	138.24
823.974	68.61
824.152	142.33
824.329	177.15
824.507	224.25
824.685	164.86
824.863	115.71
825.04	173.05
825.218	173.05
825.396	189.44
825.574	119.81
825.751	89.09
825.929	138.24
826.107	123.9
826.284	119.81
826.462	84.99
826.639	128
826.817	113.66
826.994	130.05
827.172	70.65
827.349	230.4
827.527	76.8
827.704	152.57
827.882	160.77
828.059	132.09
828.237	162.81
828.414	140.29
828.591	93.18
828.769	119.81
828.946	82.94
829.124	87.04
829.301	97.28
829.478	130.05
829.655	128
829.833	146.43
830.01	35.84
830.187	144.38
830.364	175.1
830.542	193.53
830.719	193.53
830.896	136.19
831.073	140.29
831.25	125.95
831.427	123.9
831.604	78.85
831.782	105.47
831.959	117.76
832.136	60.42
832.313	148.48
832.49	39.94
832.667	91.13
832.844	44.03
833.021	150.53
833.198	138.24
833.374	140.29
833.551	121.85
833.728	95.23
833.905	95.23
834.082	52.22
834.259	111.61
834.436	140.29
834.612	84.99
834.789	50.18
834.966	99.33
835.143	123.9
835.319	64.51
835.496	128
835.673	99.33
835.85	60.42
836.026	101.37
836.203	109.57
836.38	29.7
836.556	66.56
836.733	119.81
836.909	181.25
837.086	119.81
837.262	105.47
837.439	142.33
837.616	123.9
837.792	58.37
837.968	148.48
838.145	74.75
838.321	97.28
838.498	84.99
838.674	121.85
838.851	148.48
839.027	52.22
839.203	62.46
839.38	66.56
839.556	70.65
839.732	111.61
839.909	144.38
840.085	138.24
840.261	82.94
840.437	132.09
840.614	95.23
840.79	78.85
840.966	130.05
841.142	68.61
841.318	138.24
841.494	41.98
841.671	52.22
841.847	21.5
842.023	123.9
842.199	39.94
842.375	130.05
842.551	82.94
842.727	115.71
842.903	105.47
843.079	9.22
843.255	101.37
843.431	50.18
843.607	132.09
843.783	17.41
843.959	123.9
844.134	27.65
844.31	70.65
844.486	21.5
844.662	82.94
844.838	25.6
845.013	119.81
845.189	103.42
845.365	78.85
845.541	70.65
845.716	70.65
845.892	23.55
846.068	21.5
846.244	66.56
846.419	64.51
846.595	105.47
846.77	64.51
846.946	136.19
847.122	62.46
847.297	80.89
847.473	101.37
847.648	78.85
847.824	87.04
847.999	58.37
848.175	99.33
848.35	78.85
848.526	101.37
848.701	97.28
848.876	115.71
849.052	109.57
849.227	9.22
849.403	62.46
849.578	58.37
849.753	87.04
849.929	13.31
850.104	48.13
850.279	66.56
850.454	58.37
850.63	64.51
850.805	62.46
850.98	52.22
851.155	9.22
851.33	50.18
851.505	58.37
851.681	171.01
851.856	54.27
852.031	93.18
852.206	66.56
852.381	37.89
852.556	99.33
852.731	78.85
852.906	93.18
853.081	76.8
853.256	111.61
853.431	52.22
853.606	-29.7
853.781	27.65
853.956	-29.7
854.131	44.03
854.305	78.85
854.48	78.85
854.655	-15.36
854.83	64.51
855.005	41.98
855.18	37.89
855.354	105.47
855.529	115.71
855.704	54.27
855.879	25.6
856.053	13.31
856.228	25.6
856.403	25.6
856.577	-1.02
856.752	111.61
856.926	84.99
857.101	50.18
857.276	66.56
857.45	56.32
857.625	95.23
857.799	50.18
857.974	97.28
858.148	-7.17
858.323	31.74
858.497	27.65
858.672	-64.51
858.846	-1.02
859.02	119.81
859.195	25.6
859.369	80.89
859.543	66.56
859.718	52.22
859.892	64.51
860.066	23.55
860.241	78.85
860.415	25.6
860.589	15.36
860.763	58.37
860.938	41.98
861.112	78.85
861.286	35.84
861.46	99.33
861.634	-72.7
861.808	41.98
861.982	111.61
862.157	39.94
862.331	80.89
862.505	-31.74
862.679	21.5
862.853	33.79
863.027	5.12
863.201	99.33
863.375	99.33
863.549	9.22
863.722	66.56
863.896	68.61
864.07	54.27
864.244	74.75
864.418	109.57
864.592	-44.03
864.766	64.51
864.939	46.08
865.113	11.26
865.287	80.89
865.461	41.98
865.634	89.09
865.808	123.9
865.982	52.22
866.156	17.41
866.329	1.02
866.503	60.42
866.676	3.07
866.85	66.56
867.024	99.33
867.197	-15.36
867.371	78.85
867.544	1.02
867.718	-15.36
867.891	1.02
868.065	-3.07
868.238	13.31
868.412	123.9
868.585	25.6
868.759	7.17
868.932	-9.22
869.105	46.08
869.279	-7.17
869.452	62.46
869.625	56.32
869.799	121.85
869.972	-1.02
870.145	-39.94
870.319	21.5
870.492	17.41
870.665	60.42
870.838	64.51
871.011	37.89
871.185	3.07
871.358	41.98
871.531	89.09
871.704	-31.74
871.877	70.65
872.05	132.09
872.223	60.42
872.396	3.07
872.569	72.7
872.742	-19.46
872.915	-64.51
873.088	-13.31
873.261	39.94
873.434	39.94
873.607	25.6
873.78	37.89
873.953	-19.46
874.126	109.57
874.299	29.7
874.471	5.12
874.644	-25.6
874.817	64.51
874.99	48.13
875.163	58.37
875.335	82.94
875.508	25.6
875.681	35.84
875.853	25.6
876.026	50.18
876.199	48.13
876.371	31.74
876.544	5.12
876.717	23.55
876.889	33.79
877.062	31.74
877.234	-56.32
877.407	-27.65
877.579	27.65
877.752	5.12
877.924	54.27
878.097	97.28
878.269	9.22
878.442	68.61
878.614	-25.6
878.786	52.22
878.959	-44.03
879.131	29.7
879.303	-54.27
879.476	-13.31
879.648	70.65
879.82	48.13
879.993	46.08
880.165	-7.17
880.337	-7.17
880.509	76.8
880.681	115.71
880.854	27.65
881.026	58.37
881.198	136.19
881.37	31.74
881.542	23.55
881.714	82.94
881.886	87.04
882.058	1.02
882.23	66.56
882.402	76.8
882.574	31.74
882.746	-9.22
882.918	21.5
883.09	25.6
883.262	9.22
883.434	-1.02
883.606	33.79
883.778	29.7
883.95	82.94
884.122	-54.27
884.293	60.42
884.465	80.89
884.637	31.74
884.809	23.55
884.98	5.12
885.152	-1.02
885.324	29.7
885.496	29.7
885.667	-21.5
885.839	-17.41
886.011	39.94
886.182	-39.94
886.354	31.74
886.525	13.31
886.697	-33.79
886.869	60.42
887.04	-17.41
887.212	3.07
887.383	1.02
887.555	68.61
887.726	91.13
887.897	50.18
888.069	52.22
888.24	39.94
888.412	27.65
888.583	19.46
888.754	35.84
888.926	-27.65
889.097	15.36
889.268	41.98
889.44	33.79
889.611	25.6
889.782	-58.37
889.953	52.22
890.125	31.74
890.296	68.61
890.467	44.03
890.638	9.22
890.809	29.7
890.98	21.5
891.151	33.79
891.323	17.41
891.494	1.02
891.665	72.7
891.836	13.31
892.007	-31.74
892.178	35.84
892.349	50.18
892.52	-58.37
892.691	-58.37
892.862	11.26
893.032	21.5
893.203	29.7
893.374	-52.22
893.545	-15.36
893.716	29.7
893.887	52.22
894.057	39.94
894.228	9.22
894.399	-11.26
894.57	50.18
894.74	17.41
894.911	76.8
895.082	-13.31
895.253	-15.36
895.423	46.08
895.594	-25.6
895.764	-37.89
895.935	9.22
896.106	31.74
896.276	-13.31
896.447	-54.27
896.617	37.89
896.788	-48.13
896.958	64.51
897.129	21.5
897.299	-23.55
897.47	93.18
897.64	5.12
897.81	-25.6
897.981	-19.46
898.151	46.08
898.322	29.7
898.492	80.89
898.662	50.18
898.832	13.31
899.003	-7.17
899.173	7.17
899.343	17.41
899.513	41.98
