Data from USB4F104151__140__10-25-53-850.txt Node

Date: Wed Mar 12 10:25:53 EDT 2025
User: louis
Spectrometer: USB4F10415
Trigger mode: 4
Integration Time (sec): 3.000000E-2
Scans to average: 1
Electric dark correction enabled: true
Nonlinearity correction enabled: false
Boxcar width: 0
XAxis mode: Wavelengths
Number of Pixels in Spectrum: 3648
>>>>>Begin Spectral Data<<<<<
178.204	-63.66
178.424	-63.66
178.644	-63.66
178.864	-110.76
179.084	-47.27
179.304	-75.95
179.524	-12.46
179.744	-55.47
179.964	75.6
180.184	28.5
180.404	-22.7
180.624	10.07
180.844	75.6
181.064	-24.75
181.283	18.26
181.503	-6.31
181.723	-10.41
181.943	61.27
182.163	48.98
182.383	1.88
182.602	61.27
182.822	83.8
183.042	71.51
183.262	30.55
183.482	71.51
183.701	59.22
183.921	44.88
184.141	-0.17
184.361	100.18
184.58	5.97
184.8	26.45
185.02	14.17
185.239	106.32
185.459	65.36
185.679	59.22
185.898	8.02
186.118	87.89
186.338	53.08
186.557	16.21
186.777	51.03
186.997	63.32
187.216	20.31
187.436	100.18
187.655	20.31
187.875	161.62
188.095	48.98
188.314	110.42
188.534	75.6
188.753	-8.36
188.973	71.51
189.192	14.17
189.412	-14.51
189.631	81.75
189.851	59.22
190.07	77.65
190.29	-32.94
190.509	24.4
190.729	-4.27
190.948	18.26
191.168	143.19
191.387	46.93
191.607	46.93
191.826	59.22
192.045	63.32
192.265	26.45
192.484	8.02
192.704	14.17
192.923	-34.99
193.142	118.61
193.362	38.74
193.581	96.08
193.8	122.71
194.02	67.41
194.239	-22.7
194.458	-6.31
194.678	22.36
194.897	34.64
195.116	81.75
195.335	112.47
195.555	122.71
195.774	81.75
195.993	108.37
196.212	71.51
196.432	38.74
196.651	69.46
196.87	77.65
197.089	106.32
197.308	42.84
197.528	118.61
197.747	-14.51
197.966	81.75
198.185	81.75
198.404	28.5
198.623	135
198.842	69.46
199.062	-22.7
199.281	135
199.5	85.84
199.719	73.56
199.938	65.36
200.157	112.47
200.376	26.45
200.595	73.56
200.814	132.95
201.033	67.41
201.252	28.5
201.471	57.17
201.69	51.03
201.909	46.93
202.128	26.45
202.347	71.51
202.566	26.45
202.785	102.23
203.004	-14.51
203.223	128.85
203.442	30.55
203.661	61.27
203.879	1.88
204.098	55.12
204.317	28.5
204.536	91.99
204.755	30.55
204.974	75.6
205.193	73.56
205.411	87.89
205.63	61.27
205.849	71.51
206.068	81.75
206.287	38.74
206.505	59.22
206.724	46.93
206.943	12.12
207.162	-0.17
207.381	55.12
207.599	63.32
207.818	40.79
208.037	59.22
208.255	28.5
208.474	94.04
208.693	34.64
208.911	77.65
209.13	87.89
209.349	-34.99
209.567	63.32
209.786	124.76
210.005	116.56
210.223	32.6
210.442	5.97
210.661	5.97
210.879	114.52
211.098	87.89
211.316	40.79
211.535	59.22
211.753	-37.03
211.972	48.98
212.191	59.22
212.409	79.7
212.628	94.04
212.846	63.32
213.065	77.65
213.283	79.7
213.502	22.36
213.72	-39.08
213.938	91.99
214.157	44.88
214.375	106.32
214.594	77.65
214.812	18.26
215.031	46.93
215.249	-2.22
215.467	38.74
215.686	51.03
215.904	65.36
216.122	65.36
216.341	65.36
216.559	20.31
216.778	12.12
216.996	87.89
217.214	22.36
217.432	55.12
217.651	26.45
217.869	14.17
218.087	5.97
218.306	22.36
218.524	48.98
218.742	14.17
218.96	26.45
219.179	83.8
219.397	77.65
219.615	30.55
219.833	79.7
220.051	46.93
220.27	106.32
220.488	12.12
220.706	40.79
220.924	-39.08
221.142	120.66
221.36	14.17
221.578	63.32
221.796	48.98
222.015	34.64
222.233	53.08
222.451	-14.51
222.669	-0.17
222.887	143.19
223.105	40.79
223.323	61.27
223.541	1.88
223.759	26.45
223.977	3.93
224.195	67.41
224.413	5.97
224.631	71.51
224.849	100.18
225.067	87.89
225.285	18.26
225.503	30.55
225.721	30.55
225.939	69.46
226.157	118.61
226.375	186.19
226.592	40.79
226.81	57.17
227.028	96.08
227.246	61.27
227.464	53.08
227.682	69.46
227.9	94.04
228.117	51.03
228.335	-16.55
228.553	34.64
228.771	171.86
228.989	141.14
229.206	12.12
229.424	118.61
229.642	10.07
229.86	-51.37
230.077	71.51
230.295	-14.51
230.513	118.61
230.731	96.08
230.948	10.07
231.166	85.84
231.384	-30.89
231.601	73.56
231.819	44.88
232.037	102.23
232.254	34.64
232.472	71.51
232.689	32.6
232.907	71.51
233.125	30.55
233.342	-6.31
233.56	28.5
233.777	30.55
233.995	34.64
234.213	44.88
234.43	51.03
234.648	71.51
234.865	118.61
235.083	77.65
235.3	102.23
235.518	20.31
235.735	83.8
235.953	16.21
236.17	-2.22
236.388	38.74
236.605	38.74
236.822	65.36
237.04	100.18
237.257	22.36
237.475	28.5
237.692	16.21
237.909	91.99
238.127	5.97
238.344	110.42
238.562	71.51
238.779	-20.65
238.996	51.03
239.214	42.84
239.431	91.99
239.648	1.88
239.865	69.46
240.083	53.08
240.3	18.26
240.517	22.36
240.735	28.5
240.952	18.26
241.169	89.94
241.386	91.99
241.603	69.46
241.821	28.5
242.038	32.6
242.255	94.04
242.472	67.41
242.689	126.8
242.907	59.22
243.124	-18.6
243.341	14.17
243.558	55.12
243.775	75.6
243.992	22.36
244.209	96.08
244.426	161.62
244.643	38.74
244.86	5.97
245.078	114.52
245.295	10.07
245.512	77.65
245.729	28.5
245.946	40.79
246.163	-34.99
246.38	28.5
246.597	14.17
246.814	18.26
247.031	104.28
247.248	10.07
247.464	89.94
247.681	104.28
247.898	94.04
248.115	34.64
248.332	26.45
248.549	28.5
248.766	108.37
248.983	71.51
249.2	91.99
249.417	38.74
249.633	98.13
249.85	-2.22
250.067	-26.79
250.284	124.76
250.501	104.28
250.717	67.41
250.934	46.93
251.151	51.03
251.368	61.27
251.585	128.85
251.801	48.98
252.018	40.79
252.235	55.12
252.451	81.75
252.668	24.4
252.885	57.17
253.102	108.37
253.318	10.07
253.535	87.89
253.752	34.64
253.968	-6.31
254.185	89.94
254.401	57.17
254.618	147.28
254.835	-51.37
255.051	59.22
255.268	36.69
255.484	79.7
255.701	67.41
255.917	38.74
256.134	-18.6
256.351	71.51
256.567	8.02
256.784	3.93
257	44.88
257.217	69.46
257.433	55.12
257.65	67.41
257.866	83.8
258.082	-12.46
258.299	-28.84
258.515	10.07
258.732	-24.75
258.948	110.42
259.165	75.6
259.381	94.04
259.597	77.65
259.814	14.17
260.03	16.21
260.246	59.22
260.463	100.18
260.679	106.32
260.895	81.75
261.112	22.36
261.328	-12.46
261.544	38.74
261.761	96.08
261.977	-39.08
262.193	77.65
262.409	-12.46
262.626	22.36
262.842	63.32
263.058	59.22
263.274	110.42
263.49	106.32
263.707	34.64
263.923	112.47
264.139	-22.7
264.355	18.26
264.571	61.27
264.787	59.22
265.004	85.84
265.22	-26.79
265.436	83.8
265.652	30.55
265.868	28.5
266.084	79.7
266.3	114.52
266.516	22.36
266.732	112.47
266.948	57.17
267.164	40.79
267.38	40.79
267.596	26.45
267.812	65.36
268.028	-12.46
268.244	96.08
268.46	-51.37
268.676	18.26
268.892	96.08
269.108	28.5
269.324	69.46
269.54	12.12
269.756	71.51
269.972	14.17
270.188	32.6
270.403	-10.41
270.619	28.5
270.835	57.17
271.051	114.52
271.267	85.84
271.483	57.17
271.698	104.28
271.914	98.13
272.13	122.71
272.346	55.12
272.562	-6.31
272.777	87.89
272.993	36.69
273.209	40.79
273.425	81.75
273.64	18.26
273.856	51.03
274.072	42.84
274.287	28.5
274.503	77.65
274.719	87.89
274.934	28.5
275.15	22.36
275.366	91.99
275.581	10.07
275.797	44.88
276.012	24.4
276.228	34.64
276.444	96.08
276.659	69.46
276.875	71.51
277.09	26.45
277.306	51.03
277.521	91.99
277.737	100.18
277.952	57.17
278.168	77.65
278.383	-12.46
278.599	22.36
278.814	67.41
279.03	53.08
279.245	104.28
279.461	42.84
279.676	1.88
279.892	51.03
280.107	71.51
280.322	55.12
280.538	79.7
280.753	26.45
280.969	46.93
281.184	26.45
281.399	139.09
281.615	51.03
281.83	124.76
282.045	61.27
282.26	104.28
282.476	-2.22
282.691	151.38
282.906	63.32
283.122	26.45
283.337	-0.17
283.552	73.56
283.767	55.12
283.983	44.88
284.198	91.99
284.413	48.98
284.628	-26.79
284.843	169.81
285.058	14.17
285.274	-8.36
285.489	16.21
285.704	63.32
285.919	28.5
286.134	48.98
286.349	79.7
286.564	71.51
286.779	116.56
286.995	96.08
287.21	20.31
287.425	32.6
287.64	55.12
287.855	59.22
288.07	-37.03
288.285	71.51
288.5	94.04
288.715	-24.75
288.93	24.4
289.145	24.4
289.36	55.12
289.575	124.76
289.79	135
290.004	75.6
290.219	30.55
290.434	83.8
290.649	36.69
290.864	34.64
291.079	53.08
291.294	51.03
291.509	75.6
291.724	30.55
291.938	24.4
292.153	26.45
292.368	30.55
292.583	169.81
292.798	75.6
293.012	42.84
293.227	5.97
293.442	5.97
293.657	83.8
293.871	137.04
294.086	55.12
294.301	159.57
294.516	10.07
294.73	26.45
294.945	30.55
295.16	40.79
295.374	26.45
295.589	79.7
295.804	12.12
296.018	91.99
296.233	63.32
296.447	87.89
296.662	3.93
296.877	96.08
297.091	118.61
297.306	40.79
297.52	46.93
297.735	1.88
297.949	106.32
298.164	94.04
298.378	22.36
298.593	16.21
298.807	40.79
299.022	59.22
299.236	63.32
299.451	38.74
299.665	30.55
299.88	77.65
300.094	55.12
300.309	143.19
300.523	59.22
300.737	30.55
300.952	36.69
301.166	71.51
301.381	85.84
301.595	61.27
301.809	42.84
302.024	59.22
302.238	22.36
302.452	69.46
302.667	36.69
302.881	71.51
303.095	102.23
303.309	85.84
303.524	-26.79
303.738	73.56
303.952	22.36
304.166	120.66
304.381	42.84
304.595	112.47
304.809	69.46
305.023	26.45
305.237	18.26
305.452	36.69
305.666	100.18
305.88	108.37
306.094	5.97
306.308	53.08
306.522	104.28
306.736	57.17
306.95	89.94
307.164	26.45
307.379	8.02
307.593	16.21
307.807	153.43
308.021	26.45
308.235	87.89
308.449	5.97
308.663	24.4
308.877	96.08
309.091	81.75
309.305	130.9
309.519	20.31
309.733	83.8
309.947	1.88
310.161	14.17
310.374	22.36
310.588	63.32
310.802	28.5
311.016	51.03
311.23	89.94
311.444	22.36
311.658	42.84
311.872	63.32
312.085	94.04
312.299	102.23
312.513	42.84
312.727	63.32
312.941	12.12
313.154	110.42
313.368	59.22
313.582	26.45
313.796	75.6
314.009	94.04
314.223	55.12
314.437	48.98
314.651	87.89
314.864	14.17
315.078	55.12
315.292	55.12
315.505	165.71
315.719	28.5
315.933	67.41
316.146	14.17
316.36	42.84
316.573	94.04
316.787	96.08
317.001	94.04
317.214	98.13
317.428	-2.22
317.641	-6.31
317.855	46.93
318.068	46.93
318.282	96.08
318.495	96.08
318.709	110.42
318.922	22.36
319.136	73.56
319.349	141.14
319.563	34.64
319.776	110.42
319.99	20.31
320.203	89.94
320.417	32.6
320.63	22.36
320.843	124.76
321.057	55.12
321.27	32.6
321.483	-4.27
321.697	77.65
321.91	42.84
322.124	69.46
322.337	14.17
322.55	28.5
322.763	79.7
322.977	61.27
323.19	18.26
323.403	120.66
323.617	51.03
323.83	85.84
324.043	100.18
324.256	14.17
324.469	77.65
324.683	96.08
324.896	16.21
325.109	71.51
325.322	10.07
325.535	46.93
325.748	55.12
325.962	106.32
326.175	38.74
326.388	10.07
326.601	16.21
326.814	77.65
327.027	83.8
327.24	34.64
327.453	51.03
327.666	48.98
327.879	77.65
328.092	71.51
328.305	55.12
328.518	42.84
328.731	10.07
328.944	51.03
329.157	100.18
329.37	59.22
329.583	85.84
329.796	106.32
330.009	42.84
330.222	65.36
330.435	61.27
330.648	48.98
330.861	87.89
331.073	110.42
331.286	61.27
331.499	63.32
331.712	26.45
331.925	112.47
332.138	55.12
332.35	26.45
332.563	30.55
332.776	83.8
332.989	42.84
333.202	-20.65
333.414	73.56
333.627	38.74
333.84	-14.51
334.053	102.23
334.265	40.79
334.478	34.64
334.691	-14.51
334.903	73.56
335.116	-4.27
335.329	106.32
335.541	22.36
335.754	51.03
335.966	102.23
336.179	51.03
336.392	53.08
336.604	65.36
336.817	46.93
337.029	59.22
337.242	55.12
337.454	85.84
337.667	-2.22
337.88	46.93
338.092	65.36
338.305	153.43
338.517	30.55
338.729	63.32
338.942	100.18
339.154	14.17
339.367	75.6
339.579	116.56
339.792	40.79
340.004	89.94
340.217	55.12
340.429	96.08
340.641	77.65
340.854	96.08
341.066	26.45
341.278	10.07
341.491	137.04
341.703	-0.17
341.915	40.79
342.128	120.66
342.34	89.94
342.552	77.65
342.764	63.32
342.977	110.42
343.189	116.56
343.401	75.6
343.613	51.03
343.826	71.51
344.038	51.03
344.25	116.56
344.462	118.61
344.674	118.61
344.886	51.03
345.099	106.32
345.311	5.97
345.523	149.33
345.735	46.93
345.947	57.17
346.159	116.56
346.371	38.74
346.583	57.17
346.795	87.89
347.007	104.28
347.219	71.51
347.431	-4.27
347.643	96.08
347.855	48.98
348.067	51.03
348.279	14.17
348.491	34.64
348.703	51.03
348.915	83.8
349.127	18.26
349.339	46.93
349.551	87.89
349.763	59.22
349.975	34.64
350.187	44.88
350.399	91.99
350.61	173.91
350.822	36.69
351.034	75.6
351.246	28.5
351.458	100.18
351.669	30.55
351.881	-4.27
352.093	79.7
352.305	137.04
352.517	91.99
352.728	141.14
352.94	55.12
353.152	124.76
353.363	59.22
353.575	57.17
353.787	87.89
353.999	112.47
354.21	104.28
354.422	104.28
354.633	42.84
354.845	42.84
355.057	120.66
355.268	91.99
355.48	73.56
355.692	57.17
355.903	137.04
356.115	42.84
356.326	8.02
356.538	79.7
356.749	145.24
356.961	22.36
357.172	83.8
357.384	48.98
357.595	75.6
357.807	75.6
358.018	10.07
358.23	73.56
358.441	75.6
358.653	165.71
358.864	106.32
359.075	75.6
359.287	108.37
359.498	71.51
359.709	94.04
359.921	67.41
360.132	12.12
360.344	14.17
360.555	55.12
360.766	57.17
360.977	30.55
361.189	89.94
361.4	44.88
361.611	96.08
361.823	91.99
362.034	94.04
362.245	-47.27
362.456	48.98
362.667	143.19
362.879	81.75
363.09	55.12
363.301	65.36
363.512	63.32
363.723	28.5
363.935	87.89
364.146	94.04
364.357	5.97
364.568	1.88
364.779	-18.6
364.99	94.04
365.201	-2.22
365.412	87.89
365.623	30.55
365.834	96.08
366.045	128.85
366.256	59.22
366.467	69.46
366.678	51.03
366.889	28.5
367.1	42.84
367.311	38.74
367.522	108.37
367.733	79.7
367.944	112.47
368.155	71.51
368.366	75.6
368.577	98.13
368.788	65.36
368.999	44.88
369.209	44.88
369.42	171.86
369.631	161.62
369.842	28.5
370.053	55.12
370.264	79.7
370.474	-2.22
370.685	124.76
370.896	169.81
371.107	100.18
371.317	-18.6
371.528	28.5
371.739	34.64
371.95	48.98
372.16	130.9
372.371	89.94
372.582	51.03
372.792	110.42
373.003	-18.6
373.214	18.26
373.424	67.41
373.635	42.84
373.846	46.93
374.056	120.66
374.267	79.7
374.477	91.99
374.688	120.66
374.898	116.56
375.109	65.36
375.319	-6.31
375.53	75.6
375.74	126.8
375.951	36.69
376.161	91.99
376.372	67.41
376.582	67.41
376.793	16.21
377.003	38.74
377.214	106.32
377.424	130.9
377.635	53.08
377.845	96.08
378.055	40.79
378.266	83.8
378.476	100.18
378.686	87.89
378.897	77.65
379.107	85.84
379.317	-8.36
379.528	91.99
379.738	87.89
379.948	38.74
380.158	112.47
380.369	69.46
380.579	243.54
380.789	69.46
380.999	67.41
381.21	79.7
381.42	91.99
381.63	44.88
381.84	91.99
382.05	75.6
382.261	98.13
382.471	128.85
382.681	114.52
382.891	112.47
383.101	53.08
383.311	85.84
383.521	96.08
383.731	149.33
383.941	114.52
384.151	1.88
384.361	67.41
384.571	63.32
384.781	96.08
384.991	38.74
385.201	110.42
385.411	63.32
385.621	67.41
385.831	38.74
386.041	114.52
386.251	108.37
386.461	55.12
386.671	114.52
386.881	44.88
387.091	44.88
387.301	106.32
387.511	159.57
387.72	38.74
387.93	100.18
388.14	24.4
388.35	102.23
388.56	116.56
388.769	122.71
388.979	106.32
389.189	96.08
389.399	75.6
389.609	38.74
389.818	28.5
390.028	46.93
390.238	63.32
390.447	75.6
390.657	120.66
390.867	-10.41
391.076	36.69
391.286	157.52
391.496	46.93
391.705	65.36
391.915	130.9
392.125	102.23
392.334	38.74
392.544	149.33
392.753	91.99
392.963	30.55
393.172	87.89
393.382	42.84
393.591	104.28
393.801	67.41
394.01	145.24
394.22	91.99
394.429	128.85
394.639	79.7
394.848	255.83
395.058	94.04
395.267	120.66
395.477	100.18
395.686	87.89
395.895	141.14
396.105	106.32
396.314	100.18
396.524	71.51
396.733	110.42
396.942	124.76
397.152	89.94
397.361	55.12
397.57	147.28
397.78	120.66
397.989	145.24
398.198	165.71
398.407	159.57
398.617	69.46
398.826	141.14
399.035	118.61
399.244	85.84
399.453	155.47
399.663	173.91
399.872	83.8
400.081	67.41
400.29	180.05
400.499	124.76
400.708	147.28
400.917	79.7
401.127	22.36
401.336	77.65
401.545	190.29
401.754	79.7
401.963	71.51
402.172	161.62
402.381	89.94
402.59	126.8
402.799	118.61
403.008	112.47
403.217	167.76
403.426	194.39
403.635	94.04
403.844	79.7
404.053	96.08
404.262	155.47
404.471	200.53
404.68	216.91
404.888	126.8
405.097	223.06
405.306	130.9
405.515	147.28
405.724	163.67
405.933	229.2
406.142	149.33
406.35	175.95
406.559	231.25
406.768	192.34
406.977	194.39
407.185	241.49
407.394	171.86
407.603	184.15
407.812	227.15
408.02	259.92
408.229	130.9
408.438	214.87
408.646	175.95
408.855	233.3
409.064	241.49
409.272	200.53
409.481	284.5
409.69	202.58
409.898	208.72
410.107	218.96
410.315	270.16
410.524	255.83
410.733	304.98
410.941	309.07
411.15	333.65
411.358	339.79
411.567	380.75
411.775	313.17
411.984	407.38
412.192	403.28
412.401	407.38
412.609	425.81
412.818	438.09
413.026	393.04
413.234	380.75
413.443	479.05
413.651	470.86
413.86	499.53
414.068	495.44
414.276	472.91
414.485	479.05
414.693	556.88
414.901	614.22
415.11	556.88
415.318	657.23
415.526	665.42
415.734	638.8
415.943	677.71
416.151	675.66
416.359	657.23
416.567	716.62
416.776	776.01
416.984	812.87
417.192	847.69
417.4	816.97
417.608	816.97
417.817	943.94
418.025	931.66
418.233	989
418.441	984.9
418.649	1042.25
418.857	986.95
419.065	1038.15
419.273	1132.36
419.481	1148.74
419.689	1214.27
419.897	1300.29
420.105	1199.94
420.313	1359.68
420.521	1283.91
420.729	1322.82
420.937	1367.87
421.145	1392.45
421.353	1474.37
421.561	1541.95
421.769	1587.01
421.977	1670.97
422.185	1595.2
422.393	1828.67
422.601	1834.81
422.809	1799.99
423.017	1814.33
423.224	1922.87
423.432	1998.65
423.64	2031.41
423.848	2139.96
424.056	2174.77
424.263	2320.18
424.471	2406.19
424.679	2330.42
424.887	2477.87
425.094	2551.6
425.302	2551.6
425.51	2645.8
425.718	2733.87
425.925	2805.55
426.133	2815.79
426.341	3051.3
426.548	3159.85
426.756	3168.04
426.964	3106.6
427.171	3295.01
427.379	3438.37
427.586	3501.86
427.794	3487.52
428.001	3778.33
428.209	3798.81
428.417	3847.96
428.624	4144.92
428.832	4196.12
429.039	4063
429.247	4058.9
429.454	4468.5
429.662	4853.52
429.869	4474.64
430.076	4925.19
430.284	4544.27
430.491	5000.97
430.699	4994.83
430.906	5232.39
431.114	5191.43
431.321	5363.46
431.528	5670.65
431.736	5988.09
431.943	6199.03
432.15	5955.32
432.358	6186.74
432.565	6385.4
432.772	6248.18
432.979	6565.62
433.187	6721.26
433.394	6825.71
433.601	7126.76
433.808	7259.88
434.016	7149.29
434.223	7638.75
434.43	7904.99
434.637	7923.42
434.844	8509.14
435.052	8496.85
435.259	8259.29
435.466	8550.1
435.673	8228.57
435.88	8885.97
436.087	9246.41
436.294	9438.92
436.501	9213.64
436.708	9506.5
436.915	9834.18
437.122	10286.78
437.329	10057.4
437.537	10313.4
437.743	10413.75
437.95	10645.17
438.157	11138.73
438.364	11462.31
438.571	11634.34
438.778	11552.42
438.985	12885.65
439.192	11949.73
439.399	12424.86
439.606	12123.8
439.813	12678.8
440.02	13774.47
440.227	13352.59
440.433	13147.79
440.64	13665.92
440.847	13586.05
441.054	13854.34
441.261	14823.03
441.467	14722.68
441.674	14980.72
441.881	15472.23
442.088	15449.71
442.294	15255.15
442.501	15732.33
442.708	15812.2
442.914	16602.71
443.121	17483.34
443.328	16981.59
443.534	18136.64
443.741	17401.42
443.948	17190.48
444.154	18744.89
444.361	18236.99
444.568	18470.46
444.774	18351.68
444.981	18845.24
445.187	19359.28
445.394	20182.56
445.6	19908.13
445.807	21861.9
446.013	20620.83
446.22	21063.19
446.426	21919.24
446.633	22326.78
446.839	22666.75
447.046	21835.27
447.252	23240.18
447.459	22984.18
447.665	23264.75
447.871	24020.45
448.078	25103.83
448.284	23821.8
448.491	24602.08
448.697	25718.22
448.903	26119.62
449.11	26064.33
449.316	25478.61
449.522	25832.91
449.728	26541.5
449.935	26953.15
450.141	26672.57
450.347	27628.98
450.553	26447.3
450.76	26865.08
450.966	27782.57
451.172	27565.49
451.378	27661.74
451.584	27637.17
451.791	28388.77
451.997	27981.23
452.203	28476.83
452.409	28509.6
452.615	28163.5
452.821	27035.06
453.027	27063.74
453.233	28274.09
453.44	27215.29
453.646	27383.22
453.852	27458.99
454.058	27813.29
454.264	26936.76
454.47	27706.8
454.676	26961.34
454.882	28179.88
455.088	25249.24
455.294	25562.58
455.5	26158.53
455.705	26623.42
455.911	25294.29
456.117	24743.39
456.323	24509.92
456.529	23041.53
456.735	24120.81
456.941	23774.7
457.147	23328.24
457.352	22382.08
457.558	22244.87
457.764	22228.48
457.97	21685.77
458.176	21501.45
458.381	21413.39
458.587	20026.92
458.793	19951.14
458.999	19281.46
459.204	20618.78
459.41	20215.33
459.616	18751.03
459.821	18665.02
460.027	18574.91
460.233	18245.18
460.438	17569.35
460.644	17430.09
460.85	16854.61
461.055	16465.5
461.261	16408.15
461.466	15273.58
461.672	14739.06
461.878	15951.46
462.083	14743.16
462.289	14712.44
462.494	14442.1
462.7	14061.18
462.905	13366.92
463.111	13889.15
463.316	13788.8
463.522	13690.5
463.727	13612.68
463.932	13461.13
464.138	13481.61
464.343	13594.25
464.549	13125.26
464.754	13680.26
464.959	13477.51
465.165	13457.03
465.37	12928.66
465.575	12367.51
465.781	13059.73
465.986	13061.77
466.191	12572.31
466.397	12312.22
466.602	11916.96
466.807	12261.02
467.012	12385.94
467.218	12064.41
467.423	11982.49
467.628	12162.72
467.833	12539.54
468.038	12023.45
468.244	11685.54
468.449	12117.66
468.654	11867.81
468.859	11902.62
469.064	11699.87
469.269	11163.31
469.474	11329.19
469.679	11701.92
469.885	11132.59
470.09	11474.6
470.295	11187.88
470.5	11151.02
470.705	10925.74
470.91	11024.05
471.115	10550.96
471.32	10847.92
471.525	10729.14
471.73	10790.58
471.935	10514.1
472.139	10270.39
472.344	10247.86
472.549	10467
472.754	10022.59
472.959	9877.18
473.164	9498.31
473.369	9531.08
473.574	9967.29
473.778	9991.87
473.983	9680.58
474.188	9617.09
474.393	9303.75
474.598	9488.07
474.802	9266.89
475.007	8859.34
475.212	9148.11
475.417	8750.8
475.621	8924.88
475.826	8808.14
476.031	8611.54
476.235	8474.32
476.44	8765.14
476.645	8462.04
476.849	8435.41
477.054	8451.8
477.259	8134.36
477.463	8322.77
477.668	8287.96
477.872	8140.51
478.077	7896.8
478.282	7915.23
478.486	7962.33
478.691	7890.65
478.895	7751.39
479.1	7767.77
479.304	7661.28
479.509	7526.11
479.713	7614.18
479.918	7591.65
480.122	7538.4
480.326	7331.56
480.531	7677.66
480.735	7446.24
480.94	7405.28
481.144	7417.57
481.348	7290.6
481.553	7421.67
481.757	7143.14
481.961	7421.67
482.166	7345.89
482.37	7245.54
482.574	7075.56
482.778	7214.82
482.983	7454.44
483.187	7186.15
483.391	7427.81
483.595	7155.43
483.8	7145.19
484.004	7186.15
484.208	7233.25
484.412	7112.42
484.616	7057.13
484.821	7337.7
485.025	7083.75
485.229	7358.18
485.433	7096.04
485.637	7220.97
485.841	7050.99
486.045	7444.2
486.249	7177.96
486.453	7165.67
486.657	7112.42
486.861	7155.43
487.065	6969.07
487.269	7395.04
487.473	7171.82
487.677	7368.42
487.881	7448.29
488.085	7124.71
488.289	7141.1
488.493	7339.75
488.697	7311.08
488.901	7393
489.105	7317.22
489.309	7206.63
489.512	7366.37
489.716	7249.64
489.92	7456.48
490.124	7257.83
490.328	7509.73
490.531	7515.87
490.735	7456.48
490.939	7153.38
491.143	7565.03
491.346	7405.28
491.55	7548.64
491.754	7601.89
491.958	7655.14
492.161	7556.83
492.365	7739.1
492.569	7644.9
492.772	7775.97
492.976	7681.76
493.18	7773.92
493.383	7896.8
493.587	8089.31
493.79	8009.44
493.994	8068.83
494.197	8062.68
494.401	8167.13
494.605	8013.53
494.808	8339.16
495.012	8345.3
495.215	8294.1
495.419	8435.41
495.622	8437.46
495.825	8509.14
496.029	8423.12
496.232	8720.08
496.436	8715.98
496.639	8963.79
496.843	8740.56
497.046	9062.09
497.249	9078.47
497.453	9072.33
497.656	9236.17
497.859	9336.52
498.063	9471.68
498.266	9604.8
498.469	9578.18
498.673	9453.25
498.876	9891.52
499.079	9846.46
499.282	9887.42
499.485	10147.51
499.689	10337.98
499.892	10301.11
500.095	10409.65
500.298	10794.67
500.501	10579.64
500.705	10733.23
500.908	10886.83
501.111	10872.5
501.314	11105.96
501.517	11339.43
501.72	11466.41
501.923	11337.38
502.126	11761.31
502.329	11919.01
502.532	11847.33
502.735	12013.21
502.938	12457.62
503.141	12359.32
503.344	12529.3
503.547	12547.73
503.75	12807.83
503.953	12869.26
504.156	12942.99
504.359	13264.52
504.562	13174.41
504.765	13387.4
504.968	13667.97
505.17	13753.99
505.373	13751.94
505.576	14188.16
505.779	14294.65
505.982	14272.12
506.185	14716.53
506.387	14622.33
506.59	14691.96
506.793	15140.46
506.996	15011.44
507.198	15390.31
507.401	15093.36
507.604	15474.28
507.807	15894.11
508.009	16109.15
508.212	15984.23
508.415	16381.53
508.617	16619.1
508.82	16506.46
509.022	16408.15
509.225	17141.33
509.428	17190.48
509.63	17284.69
509.833	17112.66
510.035	17954.37
510.238	17718.85
510.44	17843.78
510.643	18265.66
510.845	18374.2
511.048	18646.58
511.25	18658.87
511.453	19144.24
511.655	19523.12
511.858	19170.86
512.06	19330.61
512.262	19678.76
512.465	19719.72
512.667	19988
512.87	20117.03
513.072	20231.71
513.274	20692.51
513.477	20905.49
513.679	20991.51
513.881	21358.1
514.084	21755.4
514.286	21552.65
514.488	21921.29
514.69	22425.09
514.893	22271.49
515.095	22498.81
515.297	22789.63
515.499	22801.91
515.701	22994.42
515.904	23569.9
516.106	23410.16
516.308	23621.1
516.51	24079.85
516.712	24120.81
516.914	24403.42
517.116	24587.74
517.318	24421.86
517.52	24817.11
517.722	25202.13
517.925	25470.42
518.127	25650.64
518.329	25830.86
518.531	26027.46
518.733	26209.73
518.935	26498.5
519.136	26774.97
519.338	27100.6
519.54	26738.11
519.742	27016.63
519.944	27530.67
520.146	27848.11
520.348	27889.07
520.55	28313
520.752	28489.12
520.954	28806.56
521.155	28618.14
521.357	28988.83
521.559	29220.25
521.761	30004.62
521.963	30074.25
522.164	29658.51
522.366	30139.79
522.568	30481.8
522.77	30631.3
522.971	31010.17
523.173	30610.82
523.375	31204.73
523.576	31206.78
523.778	31104.38
523.98	31593.84
524.181	31694.19
524.383	31835.5
524.584	32226.67
524.786	32292.2
524.988	32431.46
525.189	32621.92
525.391	32669.03
525.592	32873.82
525.794	33148.25
525.995	32857.44
526.197	33168.73
526.398	33181.02
526.6	33846.61
526.801	33871.18
527.003	34035.02
527.204	34008.4
527.406	34274.63
527.607	34059.6
527.808	34436.42
528.01	34022.73
528.211	34397.51
528.412	35169.6
528.614	34886.98
528.815	34880.83
529.016	35489.08
529.218	34708.8
529.419	34964.8
529.62	35392.83
529.822	34874.69
530.023	35292.47
530.224	35226.94
530.425	35501.37
530.626	35179.84
530.828	35261.76
531.029	35826.99
531.23	35401.02
531.431	35542.33
531.632	35648.82
531.833	36261.16
532.035	35806.51
532.236	35644.73
532.437	36277.55
532.638	35941.68
532.839	36422.95
533.04	36162.86
533.241	35599.67
533.442	36298.03
533.643	35933.49
533.844	36005.17
534.045	36316.46
534.246	35958.06
534.447	36019.5
534.648	36433.19
534.849	36646.18
535.05	35929.39
535.251	36230.44
535.451	36326.7
535.652	36398.38
535.853	36459.82
536.054	36484.39
536.255	36406.57
536.456	36250.92
536.657	36580.65
536.857	36255.02
537.058	36433.19
537.259	36873.51
537.46	36400.43
537.66	36277.55
537.861	36707.62
538.062	36242.73
538.263	36568.36
538.463	36412.71
538.664	35872.05
538.865	36713.77
539.065	36648.23
539.266	35732.79
539.466	36384.04
539.667	36175.15
539.868	36601.13
540.068	36482.34
540.269	36519.21
540.469	36455.72
540.67	36425
540.87	36250.92
541.071	36418.86
541.271	36238.64
541.472	36429.1
541.672	36322.6
541.873	36369.71
542.073	36007.22
542.274	36494.63
542.474	36519.21
542.675	36072.75
542.875	36496.68
543.075	36199.72
543.276	35634.49
543.476	36506.92
543.676	35790.13
543.877	36193.58
544.077	36459.82
544.277	36263.21
544.478	36078.89
544.678	36320.56
544.878	36113.71
545.078	36420.91
545.279	36111.66
545.479	36332.84
545.679	36543.78
545.879	36283.69
546.079	36109.61
546.28	36506.92
546.48	35859.76
546.68	36281.64
546.88	36126
547.08	36490.54
547.28	35972.4
547.48	35736.88
547.68	36369.71
547.88	36154.67
548.081	36060.46
548.281	36117.81
548.481	35743.03
548.681	36365.61
548.881	35990.83
549.081	36132.14
549.28	35892.53
549.48	36441.39
549.68	35781.94
549.88	36459.82
550.08	35966.26
550.28	36085.04
550.48	35802.42
550.68	36238.64
550.88	35685.68
551.08	35984.69
551.279	36085.04
551.479	35536.18
551.679	35675.44
551.879	35831.09
552.079	35865.91
552.278	35841.33
552.478	35693.88
552.678	36197.68
552.878	35777.84
553.077	35853.62
553.277	35482.94
553.477	36314.41
553.676	35759.41
553.876	35605.81
554.076	35401.02
554.275	35599.67
554.475	35228.99
554.674	35366.2
554.874	35628.34
555.074	35562.81
555.273	35644.73
555.473	35525.94
555.672	34989.38
555.872	35548.47
556.071	35591.48
556.271	35497.27
556.47	35630.39
556.67	35368.25
556.869	35208.51
557.068	35245.37
557.268	35188.03
557.467	35063.1
557.667	35124.54
557.866	35202.36
558.065	35106.11
558.265	34925.89
558.464	35151.16
558.663	35224.89
558.863	35054.91
559.062	35200.32
559.261	34610.5
559.461	35073.34
559.66	34745.67
559.859	34790.72
560.058	34516.29
560.258	34983.23
560.457	34454.86
560.656	34913.6
560.855	34434.38
561.054	34663.75
561.253	34630.98
561.453	34374.98
561.652	34471.24
561.851	34616.65
562.05	34360.65
562.249	33727.83
562.448	34569.54
562.647	34184.52
562.846	33856.85
563.045	34004.3
563.244	33865.04
563.443	34123.08
563.642	33621.33
563.841	33944.91
564.04	33598.8
564.239	33910.1
564.438	33676.63
564.637	33711.44
564.836	33854.8
565.035	33330.52
565.234	33426.78
565.432	33631.57
565.631	33097.05
565.83	33400.15
566.029	32726.37
566.228	33172.83
566.427	33256.79
566.625	32769.38
566.824	32640.36
567.023	33090.91
567.222	32357.74
567.42	33197.4
567.619	32798.05
567.818	32453.99
568.016	32468.33
568.215	32589.16
568.414	32163.18
568.612	32707.94
568.811	32566.63
569.01	32693.6
569.208	31845.74
569.407	32464.23
569.605	31853.94
569.804	31974.77
570.002	31874.41
570.201	31868.27
570.4	31661.43
570.598	31649.14
570.797	31419.77
570.995	31837.55
571.193	31374.71
571.392	31649.14
571.59	31122.81
571.789	31069.56
571.987	31094.14
572.186	30881.15
572.384	31114.62
572.582	31350.13
572.781	31194.49
572.979	30739.84
573.177	30655.87
573.376	31001.98
573.574	30391.69
573.772	30473.6
573.971	30543.24
574.169	30457.22
574.367	30492.04
574.565	30432.64
574.763	30244.23
574.962	30254.47
575.16	30049.67
575.358	29984.14
575.556	29898.13
575.754	29988.24
575.952	29832.59
576.151	29687.18
576.349	29724.05
576.547	29445.52
576.745	29402.52
576.943	29713.81
577.141	29408.66
577.339	29584.79
577.537	29351.32
577.735	29279.64
577.933	29183.38
578.131	29228.44
578.329	29121.94
578.527	28689.82
578.725	28997.02
578.923	28892.57
579.121	28812.7
579.319	28528.03
579.516	28648.86
579.714	28513.7
579.912	28593.57
580.11	28476.83
580.308	28349.86
580.506	28337.57
580.704	28136.87
580.901	28208.55
581.099	28126.63
581.297	27882.92
581.495	27927.98
581.692	28048.81
581.89	27876.78
582.088	27889.07
582.285	27532.72
582.483	28061.1
582.681	27467.19
582.878	27475.38
583.076	27458.99
583.274	27827.63
583.471	26799.55
583.669	27061.69
583.866	26906.04
584.064	27237.81
584.262	26803.64
584.459	27041.21
584.657	27037.11
584.854	26971.58
585.052	26707.39
585.249	26590.66
585.447	26467.78
585.644	26136.01
585.841	26619.33
586.039	26959.29
586.236	26246.6
586.434	26242.5
586.631	26209.73
586.828	25972.17
587.026	26045.9
587.223	25988.55
587.42	25841.1
587.618	26017.22
587.815	25624.01
588.012	25421.27
588.21	25583.05
588.407	25925.07
588.604	25546.19
588.801	25228.76
588.999	25462.22
589.196	25413.07
589.393	25224.66
589.59	25171.41
589.787	24942.04
589.984	24987.1
590.182	24890.84
590.379	25038.3
590.576	24890.84
590.773	24802.78
590.97	24620.51
591.167	24698.33
591.364	24186.34
591.561	24522.21
591.758	24176.1
591.955	24245.73
592.152	24407.52
592.349	24270.31
592.546	24245.73
592.743	24215.01
592.94	23637.48
593.137	23934.44
593.334	23991.78
593.531	23537.13
593.727	23733.74
593.924	23743.98
594.121	23442.93
594.318	23866.86
594.515	23358.96
594.712	23684.59
594.908	23342.58
595.105	23516.65
595.302	23256.56
595.499	23461.36
595.696	23137.78
595.892	23170.55
596.089	23031.29
596.286	23102.96
596.482	22875.64
596.679	22961.65
596.876	22683.13
597.072	22625.79
597.269	22640.12
597.466	22404.61
597.662	22511.1
597.859	22371.84
598.055	22349.31
598.252	22066.69
598.448	22007.3
598.645	22283.78
598.841	21931.53
599.038	22095.36
599.234	22038.02
599.431	21822.98
599.627	21575.18
599.824	22062.6
600.02	21650.95
600.217	21562.89
600.413	21495.31
600.609	21630.48
600.806	21315.09
601.002	21853.7
601.198	21595.66
601.395	21227.03
601.591	21257.74
601.787	21288.46
601.984	20776.47
602.18	21315.09
602.376	20817.43
602.572	20962.84
602.769	20956.69
602.965	20508.19
603.161	20606.49
603.357	20477.47
603.553	20805.14
603.75	20768.28
603.946	20485.66
604.142	20479.52
604.338	20358.69
604.534	20239.9
604.73	19977.76
604.926	20135.46
605.122	20264.48
605.318	20112.93
605.514	19949.09
605.71	19901.99
605.906	19889.7
606.102	19633.71
606.298	19930.66
606.494	20063.78
606.69	19914.28
606.886	19631.66
607.082	19566.12
607.278	19422.76
607.474	19179.06
607.67	19750.44
607.866	19090.99
608.062	19674.67
608.257	19209.78
608.453	19279.41
608.649	19189.3
608.845	19060.27
609.041	19002.93
609.236	19043.89
609.432	19035.7
609.628	18818.61
609.824	18968.12
610.019	18683.45
610.215	18986.55
610.411	18986.55
610.606	18628.15
610.802	18839.09
610.998	18804.28
611.193	18550.33
611.389	18507.32
611.584	18402.88
611.78	18456.12
611.976	18347.58
612.171	18318.91
612.367	18292.29
612.562	18103.87
612.758	18044.48
612.953	18173.5
613.149	18447.93
613.344	18175.55
613.539	18449.98
613.735	18126.4
613.93	18300.48
614.126	17817.16
614.321	18331.2
614.517	18046.53
614.712	18146.88
614.907	17731.14
615.103	17983.04
615.298	17954.37
615.493	17821.25
615.688	17679.94
615.884	18103.87
616.079	17614.41
616.274	17725
616.47	17716.81
616.665	17563.21
616.86	17337.93
617.055	17401.42
617.25	17532.49
617.445	17636.94
617.641	17208.91
617.836	17628.74
618.031	17096.27
618.226	17194.57
618.421	17124.94
618.616	17389.13
618.811	16963.15
619.006	17200.72
619.201	16897.62
619.396	16979.54
619.591	16598.62
619.786	17153.62
619.981	16490.07
620.176	16768.6
620.371	16588.38
620.566	16637.53
620.761	16348.76
620.956	16612.95
621.151	16205.41
621.346	16350.81
621.541	16070.24
621.735	16184.93
621.93	15869.54
622.125	15916.64
622.32	15439.47
622.515	16211.55
622.709	15562.34
622.904	15466.09
623.099	15535.72
623.294	15486.57
623.488	15212.14
623.683	15373.93
623.878	15105.65
624.072	15134.32
624.267	15140.46
624.462	14976.62
624.656	15013.49
624.851	14958.19
625.046	14769.78
625.24	14751.35
625.435	14526.07
625.629	14155.39
625.824	14337.66
626.018	14233.21
626.213	14085.76
626.407	14188.16
626.602	14024.32
626.796	14096
626.991	14182.01
627.185	14083.71
627.38	13760.13
627.574	13725.32
627.768	13561.48
627.963	13555.33
628.157	13602.44
628.352	13430.41
628.546	13176.46
628.74	13360.78
628.935	13151.88
629.129	13178.51
629.323	13131.4
629.517	13061.77
629.712	12777.11
629.906	12904.08
630.1	12734.1
630.294	12779.15
630.489	12490.39
630.683	12734.1
630.877	12838.55
631.071	12465.82
631.265	12676.76
631.459	12279.45
631.653	12412.57
631.848	12379.8
632.042	11988.64
632.236	12363.42
632.43	12215.96
632.624	12093.08
632.818	12082.84
633.012	11925.15
633.206	11878.05
633.4	11646.63
633.594	11624.1
633.788	11867.81
633.982	11570.85
634.176	11546.28
634.369	11327.14
634.563	11439.78
634.757	11437.73
634.951	11288.23
635.145	11331.24
635.339	11169.45
635.533	11024.05
635.726	11179.69
635.92	10974.89
636.114	10847.92
636.308	10983.09
636.501	10960.56
636.695	10735.28
636.889	10766
637.083	10419.89
637.276	10661.55
637.47	10604.21
637.664	10442.42
637.857	10450.61
638.051	10161.85
638.244	10139.32
638.438	10206.91
638.632	10088.12
638.825	10149.56
639.019	9985.72
639.212	10206.91
639.406	10008.25
639.599	9952.96
639.793	9944.77
639.986	9705.15
640.18	9733.82
640.373	9602.75
640.567	9785.02
640.76	9778.88
640.954	9645.76
641.147	9465.54
641.34	9348.81
641.534	9588.42
641.727	9342.66
641.92	9473.73
642.114	9236.17
642.307	9031.37
642.5	9119.43
642.694	9109.19
642.887	9178.83
643.08	9064.14
643.273	8838.86
643.467	8859.34
643.66	8656.59
643.853	8820.43
644.046	8779.47
644.239	8783.57
644.432	8556.24
644.626	8664.79
644.819	8707.79
645.012	8398.55
645.205	8560.34
645.398	8427.22
645.591	8427.22
645.784	8398.55
645.977	8175.32
646.17	8281.81
646.363	8169.18
646.556	8007.39
646.749	8036.06
646.942	8148.7
647.135	8132.31
647.328	7991
647.521	7773.92
647.714	7771.87
647.907	7735.01
648.099	7726.82
648.292	7880.41
648.485	7640.8
648.678	7702.24
648.871	7726.82
649.064	7661.28
649.256	7683.81
649.449	7499.49
649.642	7403.24
649.835	7352.04
650.027	7261.93
650.22	7489.25
650.413	7460.58
650.605	7403.24
650.798	7266.02
650.991	7313.13
651.183	7259.88
651.376	7225.06
651.568	7214.82
651.761	7075.56
651.954	7163.62
652.146	6833.9
652.339	7118.57
652.531	6993.64
652.724	6821.61
652.916	6620.91
653.109	6905.58
653.301	6838
653.494	6838
653.686	6838
653.879	6622.96
654.071	6635.25
654.263	6592.24
654.456	6694.64
654.648	6549.23
654.84	6436.6
655.033	6319.86
655.225	6479.6
655.417	6582
655.61	6426.36
655.802	6420.21
655.994	6412.02
656.186	6301.43
656.379	6369.01
656.571	6266.61
656.763	6072.06
656.955	6182.65
657.148	6121.21
657.34	6301.43
657.532	5975.8
657.724	6043.39
657.916	5965.56
658.108	5930.75
658.3	5906.17
658.492	5904.12
658.684	5965.56
658.876	5809.92
659.068	5916.41
659.26	5887.74
659.452	5756.67
659.644	5861.12
659.836	5846.78
660.028	5676.8
660.22	5586.69
660.412	5588.74
660.604	5560.06
660.796	5453.57
660.988	5488.39
661.18	5601.02
661.372	5402.37
661.563	5353.22
661.755	5494.53
661.947	5263.11
662.139	5408.51
662.331	5211.91
662.522	5312.26
662.714	5418.75
662.906	5271.3
663.097	5211.91
663.289	5117.7
663.481	5058.31
663.673	5175.05
663.864	5078.79
664.056	5074.7
664.247	5019.4
664.439	5011.21
664.631	5205.77
664.822	5078.79
665.014	4812.56
665.205	4933.39
665.397	4912.91
665.588	4908.81
665.78	4896.52
665.971	4845.32
666.163	4810.51
666.354	4861.71
666.546	4751.12
666.737	4785.93
666.929	4757.26
667.12	4818.7
667.311	4654.86
667.503	4624.14
667.694	4691.73
667.885	4509.46
668.077	4675.34
668.268	4712.21
668.459	4572.94
668.651	4517.65
668.842	4556.56
669.033	4435.73
669.224	4509.46
669.416	4511.5
669.607	4529.94
669.798	4402.96
669.989	4626.19
670.18	4441.87
670.371	4364.05
670.563	4466.45
670.754	4339.48
670.945	4431.63
671.136	4462.35
671.327	4261.65
671.518	4355.86
671.709	4400.91
671.9	4241.17
672.091	4249.36
672.282	4261.65
672.473	4192.02
672.664	4079.38
672.855	4048.66
673.046	4077.34
673.237	4212.5
673.428	4142.87
673.619	4126.49
673.809	3884.83
674	4081.43
674.191	4044.57
674.382	4175.64
674.573	4069.14
674.764	4249.36
674.954	4192.02
675.145	4048.66
675.336	3942.17
675.527	3897.11
675.717	4026.14
675.908	3913.5
676.099	3958.55
676.289	3942.17
676.48	3940.12
676.671	3901.21
676.861	3921.69
677.052	3884.83
677.243	3981.08
677.433	3962.65
677.624	3798.81
677.814	3895.07
678.005	3694.36
678.195	3886.87
678.386	3841.82
678.576	3733.28
678.767	3862.3
678.957	3774.24
679.148	3847.96
679.338	3831.58
679.529	3811.1
679.719	3731.23
679.909	3798.81
680.1	3723.04
680.29	3710.75
680.481	3716.89
680.671	3872.54
680.861	3675.93
681.052	3798.81
681.242	3577.63
681.432	3661.6
681.622	3641.12
681.813	3622.69
682.003	3655.45
682.193	3565.34
682.383	3735.32
682.573	3649.31
682.764	3651.36
682.954	3659.55
683.144	3639.07
683.334	3614.49
683.524	3551.01
683.714	3682.08
683.904	3641.12
684.094	3628.83
684.284	3606.3
684.474	3657.5
684.664	3565.34
684.854	3610.4
685.044	3421.99
685.234	3495.71
685.424	3417.89
685.614	3452.7
685.804	3501.86
685.994	3514.14
686.184	3403.55
686.374	3395.36
686.564	3350.31
686.753	3405.6
686.943	3364.64
687.133	3505.95
687.323	3436.32
687.513	3370.79
687.702	3381.03
687.892	3192.61
688.082	3313.44
688.272	3325.73
688.461	3301.15
688.651	3340.07
688.841	3254.05
689.03	3200.8
689.22	3348.26
689.41	3260.2
689.599	3327.78
689.789	3157.8
689.979	3217.19
690.168	3151.65
690.358	3094.31
690.547	3305.25
690.737	3102.5
690.926	3151.65
691.116	3026.73
691.305	3211.04
691.495	2983.72
691.684	3006.25
691.874	3100.45
692.063	3030.82
692.252	3047.21
692.442	3112.74
692.631	3008.3
692.82	3047.21
693.01	3045.16
693.199	2920.23
693.388	3000.1
693.578	3004.2
693.767	2918.18
693.956	2989.86
694.146	3010.34
694.335	2840.36
694.524	2817.83
694.713	2897.71
694.902	2826.03
695.092	3041.06
695.281	2891.56
695.47	2885.42
695.659	3000.1
695.848	2879.27
696.037	2776.87
696.226	2834.22
696.415	2774.83
696.604	2930.47
696.793	2803.5
696.982	2844.46
697.171	2807.59
697.36	2744.11
697.549	2787.11
697.738	2701.1
697.927	2803.5
698.116	2823.98
698.305	2717.48
698.494	2856.75
698.683	2838.31
698.872	2787.11
699.061	2823.98
699.25	2701.1
699.438	2770.73
699.627	2676.52
699.816	2866.99
700.005	2699.05
700.193	2733.87
700.382	2729.77
700.571	2690.86
700.76	2688.81
700.948	2668.33
701.137	2660.14
701.326	2606.89
701.514	2572.08
701.703	2633.52
701.892	2699.05
702.08	2762.54
702.269	2740.01
702.457	2658.09
702.646	2690.86
702.834	2627.37
703.023	2588.46
703.212	2715.44
703.4	2647.85
703.589	2656.04
703.777	2537.26
703.965	2541.36
704.154	2578.22
704.342	2512.69
704.531	2565.93
704.719	2561.84
704.907	2697
705.096	2570.03
705.284	2625.33
705.472	2619.18
705.661	2543.41
705.849	2484.02
706.037	2553.65
706.226	2555.69
706.414	2563.89
706.602	2504.5
706.79	2606.89
706.979	2389.81
707.167	2498.35
707.355	2529.07
707.543	2590.51
707.731	2570.03
707.919	2504.5
708.107	2469.68
708.296	2516.78
708.484	2459.44
708.672	2492.21
708.86	2436.91
709.048	2418.48
709.236	2465.58
709.424	2502.45
709.612	2412.34
709.8	2402.1
709.988	2445.1
710.176	2443.06
710.364	2430.77
710.551	2389.81
710.739	2457.39
710.927	2320.18
711.115	2256.69
711.303	2410.29
711.491	2428.72
711.679	2357.04
711.866	2389.81
712.054	2438.96
712.242	2414.38
712.43	2445.1
712.617	2449.2
712.805	2316.08
712.993	2361.14
713.181	2443.06
713.368	2393.9
713.556	2248.5
713.744	2408.24
713.931	2529.07
714.119	2395.95
714.306	2340.66
714.494	2385.71
714.682	2414.38
714.869	2369.33
715.057	2260.79
715.244	2352.95
715.432	2346.8
715.619	2197.3
715.807	2359.09
715.994	2291.51
716.182	2373.43
716.369	2309.94
716.556	2434.86
716.744	2301.75
716.931	2185.01
717.119	2373.43
717.306	2277.17
717.493	2168.63
717.681	2262.83
717.868	2283.31
718.055	2238.26
718.242	2293.55
718.43	2379.57
718.617	2246.45
718.804	2209.59
718.991	2228.02
719.179	2209.59
719.366	2180.92
719.553	2168.63
719.74	2291.51
719.927	2193.2
720.114	2320.18
720.301	2185.01
720.488	2197.3
720.676	2211.64
720.863	2156.34
721.05	2248.5
721.237	2133.81
721.424	2283.31
721.611	2195.25
721.798	2172.72
721.985	2137.91
722.172	2236.21
722.358	2189.11
722.545	2078.52
722.732	2228.02
722.919	2176.82
723.106	2219.83
723.293	2160.44
723.48	2221.88
723.667	2035.51
723.853	2121.52
724.04	2109.24
724.227	2092.85
724.414	2037.56
724.6	2123.57
724.787	2189.11
724.974	2258.74
725.161	2166.58
725.347	2082.61
725.534	2103.09
725.72	2111.29
725.907	2088.76
726.094	2139.96
726.28	2144.05
726.467	2074.42
726.653	2060.09
726.84	2000.69
727.027	2072.37
727.213	2025.27
727.4	2035.51
727.586	2047.8
727.773	2033.46
727.959	2139.96
728.145	2012.98
728.332	2029.37
728.518	1965.88
728.705	2068.28
728.891	1972.02
729.077	1994.55
729.264	1988.41
729.45	2025.27
729.636	2086.71
729.823	1969.98
730.009	2012.98
730.195	1961.78
730.382	1994.55
730.568	1890.1
730.754	2131.76
730.94	1953.59
731.126	1935.16
731.313	1916.73
731.499	1967.93
731.685	1869.62
731.871	1879.86
732.057	1965.88
732.243	1996.6
732.429	2000.69
732.615	1898.3
732.801	1861.43
732.987	1771.32
733.173	1892.15
733.359	1808.19
733.545	1869.62
733.731	1849.15
733.917	1992.5
734.103	1847.1
734.289	1824.57
734.475	1900.34
734.661	1974.07
734.847	1886.01
735.033	1867.58
735.219	1859.38
735.404	1906.49
735.59	1824.57
735.776	1836.86
735.962	1879.86
736.148	1851.19
736.333	1965.88
736.519	1799.99
736.705	1871.67
736.89	1771.32
737.076	1744.7
737.262	1791.8
737.447	1771.32
737.633	1744.7
737.819	1773.37
738.004	1736.51
738.19	1806.14
738.375	1804.09
738.561	1863.48
738.747	1791.8
738.932	1744.7
739.118	1816.38
739.303	1752.89
739.489	1787.71
739.674	1734.46
739.859	1675.07
740.045	1621.82
740.23	1775.42
740.416	1578.81
740.601	1726.27
740.786	1681.21
740.972	1597.24
741.157	1726.27
741.342	1564.48
741.528	1650.49
741.713	1601.34
741.898	1576.77
742.084	1695.55
742.269	1652.54
742.454	1679.16
742.639	1691.45
742.824	1599.29
743.01	1630.01
743.195	1689.4
743.38	1570.62
743.565	1636.16
743.75	1576.77
743.935	1572.67
744.12	1644.35
744.305	1423.17
744.49	1533.76
744.675	1562.43
744.86	1535.81
745.045	1607.48
745.23	1525.57
745.415	1445.7
745.6	1513.28
745.785	1392.45
745.97	1365.82
746.155	1494.85
746.34	1412.93
746.525	1439.55
746.71	1396.54
746.895	1445.7
747.079	1343.3
747.264	1394.5
747.449	1421.12
747.634	1341.25
747.819	1421.12
748.003	1341.25
748.188	1423.17
748.373	1480.51
748.557	1337.15
748.742	1382.21
748.927	1337.15
749.111	1296.19
749.296	1238.85
749.481	1390.4
749.665	1328.96
749.85	1204.03
750.034	1324.87
750.219	1224.51
750.404	1283.91
750.588	1236.8
750.773	1181.51
750.957	1314.63
751.141	1269.57
751.326	1300.29
751.51	1146.69
751.695	1234.75
751.879	1244.99
752.064	1210.18
752.248	1173.32
752.432	1204.03
752.617	1210.18
752.801	1214.27
752.985	1163.08
753.17	1206.08
753.354	1156.93
753.538	1189.7
753.722	1146.69
753.907	1144.64
754.091	1075.01
754.275	1107.78
754.459	1097.54
754.643	1054.53
754.828	984.9
755.012	1052.49
755.196	1038.15
755.38	1050.44
755.564	968.52
755.748	1029.96
755.932	1097.54
756.116	1019.72
756.3	884.55
756.484	976.71
756.668	1005.38
756.852	964.42
757.036	1003.33
757.22	954.18
757.404	956.23
757.588	898.89
757.772	995.14
757.956	997.19
758.14	976.71
758.323	874.31
758.507	919.37
758.691	1027.91
758.875	964.42
759.059	970.57
759.242	870.22
759.426	890.7
759.61	841.54
759.794	833.35
759.977	1023.81
760.161	1003.33
760.345	829.26
760.528	905.03
760.712	907.08
760.895	753.48
761.079	890.7
761.263	788.3
761.446	847.69
761.63	862.02
761.813	831.3
761.997	823.11
762.18	894.79
762.364	862.02
762.547	726.86
762.731	788.3
762.914	864.07
763.098	784.2
763.281	880.46
763.464	825.16
763.648	747.34
763.831	788.3
764.015	769.87
764.198	773.96
764.381	773.96
764.564	806.73
764.748	792.39
764.931	776.01
765.114	819.02
765.297	831.3
765.481	710.47
765.664	804.68
765.847	716.62
766.03	792.39
766.213	718.67
766.397	710.47
766.58	722.76
766.763	720.71
766.946	733
767.129	714.57
767.312	823.11
767.495	696.14
767.678	700.23
767.861	814.92
768.044	671.56
768.227	694.09
768.41	720.71
768.593	667.47
768.776	776.01
768.959	739.15
769.142	814.92
769.324	667.47
769.507	632.65
769.69	700.23
769.873	728.91
770.056	712.52
770.239	681.8
770.421	626.51
770.604	704.33
770.787	653.13
770.97	679.75
771.152	644.94
771.335	757.58
771.518	710.47
771.7	618.32
771.883	585.55
772.066	653.13
772.248	626.51
772.431	628.56
772.613	644.94
772.796	614.22
772.978	720.71
773.161	649.04
773.343	608.08
773.526	597.84
773.708	575.31
773.891	524.11
774.073	681.8
774.256	669.52
774.438	610.12
774.621	573.26
774.803	601.93
774.985	530.25
775.168	546.64
775.35	560.97
775.532	554.83
775.715	513.87
775.897	526.16
776.079	575.31
776.261	546.64
776.444	589.64
776.626	544.59
776.808	517.97
776.99	505.68
777.173	538.45
777.355	558.92
777.537	552.78
777.719	493.39
777.901	587.6
778.083	466.77
778.265	477.01
778.447	470.86
778.629	419.66
778.811	538.45
778.993	517.97
779.175	505.68
779.357	520.01
779.539	495.44
779.721	581.45
779.903	419.66
780.085	405.33
780.267	538.45
780.449	483.15
780.631	434
780.812	522.06
780.994	474.96
781.176	446.29
781.358	485.2
781.54	427.85
781.721	470.86
781.903	497.49
782.085	370.51
782.267	390.99
782.448	405.33
782.63	462.67
782.812	468.81
782.993	440.14
783.175	431.95
783.357	321.36
783.538	505.68
783.72	341.84
783.901	386.9
784.083	419.66
784.264	413.52
784.446	323.41
784.627	333.65
784.809	380.75
784.99	374.61
785.172	397.14
785.353	370.51
785.535	313.17
785.716	362.32
785.897	345.94
786.079	356.18
786.26	386.9
786.441	364.37
786.623	307.02
786.804	292.69
786.985	333.65
787.167	393.04
787.348	358.22
787.529	427.85
787.71	380.75
787.891	380.75
788.073	341.84
788.254	288.59
788.435	266.07
788.616	325.46
788.797	251.73
788.978	290.64
789.159	317.26
789.34	358.22
789.522	300.88
789.703	284.5
789.884	321.36
790.065	272.21
790.246	247.63
790.427	331.6
790.607	257.87
790.788	329.55
790.969	331.6
791.15	325.46
791.331	233.3
791.512	274.26
791.693	282.45
791.874	261.97
792.054	415.57
792.235	272.21
792.416	296.78
792.597	208.72
792.778	292.69
792.958	274.26
793.139	196.43
793.32	309.07
793.5	280.4
793.681	259.92
793.862	259.92
794.042	208.72
794.223	288.59
794.404	255.83
794.584	321.36
794.765	212.82
794.945	288.59
795.126	323.41
795.306	253.78
795.487	253.78
795.667	255.83
795.848	278.35
796.028	200.53
796.209	329.55
796.389	259.92
796.57	122.71
796.75	216.91
796.93	235.35
797.111	180.05
797.291	284.5
797.471	233.3
797.652	241.49
797.832	194.39
798.012	261.97
798.192	274.26
798.373	169.81
798.553	268.11
798.733	208.72
798.913	225.11
799.093	196.43
799.274	223.06
799.454	253.78
799.634	286.54
799.814	298.83
799.994	264.02
800.174	178
800.354	272.21
800.534	192.34
800.714	147.28
800.894	198.48
801.074	157.52
801.254	223.06
801.434	233.3
801.614	178
801.794	122.71
801.974	702.28
802.154	178
802.334	223.06
802.514	137.04
802.693	243.54
802.873	163.67
803.053	235.35
803.233	165.71
803.413	208.72
803.592	190.29
803.772	198.48
803.952	169.81
804.131	145.24
804.311	300.88
804.491	296.78
804.67	212.82
804.85	186.19
805.03	180.05
805.209	206.67
805.389	110.42
805.568	241.49
805.748	208.72
805.928	253.78
806.107	149.33
806.287	243.54
806.466	169.81
806.646	163.67
806.825	173.91
807.004	151.38
807.184	235.35
807.363	159.57
807.543	163.67
807.722	124.76
807.901	178
808.081	212.82
808.26	139.09
808.439	102.23
808.619	141.14
808.798	145.24
808.977	184.15
809.156	126.8
809.336	130.9
809.515	186.19
809.694	145.24
809.873	116.56
810.052	120.66
810.231	198.48
810.411	255.83
810.59	261.97
810.769	122.71
810.948	178
811.127	128.85
811.306	135
811.485	100.18
811.664	194.39
811.843	120.66
812.022	163.67
812.201	73.56
812.38	165.71
812.559	106.32
812.737	151.38
812.916	114.52
813.095	159.57
813.274	184.15
813.453	91.99
813.632	159.57
813.811	151.38
813.989	106.32
814.168	114.52
814.347	79.7
814.526	227.15
814.704	202.58
814.883	229.2
815.062	53.08
815.24	112.47
815.419	116.56
815.598	124.76
815.776	112.47
815.955	178
816.133	75.6
816.312	137.04
816.49	102.23
816.669	36.69
816.847	112.47
817.026	116.56
817.204	139.09
817.383	108.37
817.561	63.32
817.74	169.81
817.918	159.57
818.097	139.09
818.275	98.13
818.453	67.41
818.632	130.9
818.81	110.42
818.988	69.46
819.167	194.39
819.345	120.66
819.523	153.43
819.701	178
819.879	87.89
820.058	126.8
820.236	182.1
820.414	122.71
820.592	112.47
820.77	100.18
820.948	118.61
821.127	40.79
821.305	106.32
821.483	124.76
821.661	106.32
821.839	114.52
822.017	132.95
822.195	79.7
822.373	175.95
822.551	87.89
822.729	110.42
822.907	112.47
823.085	118.61
823.262	116.56
823.44	71.51
823.618	87.89
823.796	149.33
823.974	94.04
824.152	175.95
824.329	110.42
824.507	147.28
824.685	137.04
824.863	81.75
825.04	112.47
825.218	186.19
825.396	106.32
825.574	114.52
825.751	79.7
825.929	55.12
826.107	38.74
826.284	67.41
826.462	104.28
826.639	120.66
826.817	75.6
826.994	116.56
827.172	71.51
827.349	67.41
827.527	108.37
827.704	112.47
827.882	135
828.059	32.6
828.237	100.18
828.414	126.8
828.591	73.56
828.769	128.85
828.946	-22.7
829.124	110.42
829.301	128.85
829.478	87.89
829.655	145.24
829.833	135
830.01	8.02
830.187	94.04
830.364	104.28
830.542	130.9
830.719	198.48
830.896	102.23
831.073	69.46
831.25	79.7
831.427	161.62
831.604	63.32
831.782	141.14
831.959	96.08
832.136	28.5
832.313	141.14
832.49	69.46
832.667	85.84
832.844	5.97
833.021	112.47
833.198	96.08
833.374	69.46
833.551	135
833.728	96.08
833.905	194.39
834.082	16.21
834.259	102.23
834.436	120.66
834.612	128.85
834.789	65.36
834.966	20.31
835.143	28.5
835.319	5.97
835.496	79.7
835.673	169.81
835.85	126.8
836.026	81.75
836.203	118.61
836.38	67.41
836.556	20.31
836.733	102.23
836.909	126.8
837.086	128.85
837.262	77.65
837.439	79.7
837.616	67.41
837.792	114.52
837.968	89.94
838.145	73.56
838.321	87.89
838.498	130.9
838.674	102.23
838.851	75.6
839.027	79.7
839.203	110.42
839.38	108.37
839.556	73.56
839.732	116.56
839.909	3.93
840.085	61.27
840.261	38.74
840.437	44.88
840.614	63.32
840.79	59.22
840.966	42.84
841.142	63.32
841.318	51.03
841.494	120.66
841.671	85.84
841.847	53.08
842.023	-4.27
842.199	98.13
842.375	85.84
842.551	48.98
842.727	46.93
842.903	63.32
843.079	112.47
843.255	65.36
843.431	55.12
843.607	104.28
843.783	10.07
843.959	63.32
844.134	20.31
844.31	87.89
844.486	34.64
844.662	114.52
844.838	28.5
845.013	122.71
845.189	100.18
845.365	124.76
845.541	28.5
845.716	143.19
845.892	118.61
846.068	26.45
846.244	-18.6
846.419	96.08
846.595	14.17
846.77	110.42
846.946	69.46
847.122	89.94
847.297	8.02
847.473	85.84
847.648	24.4
847.824	83.8
847.999	-34.99
848.175	22.36
848.35	141.14
848.526	194.39
848.701	46.93
848.876	36.69
849.052	75.6
849.227	89.94
849.403	77.65
849.578	-18.6
849.753	28.5
849.929	79.7
850.104	96.08
850.279	46.93
850.454	96.08
850.63	135
850.805	112.47
850.98	87.89
851.155	-34.99
851.33	67.41
851.505	69.46
851.681	141.14
851.856	55.12
852.031	79.7
852.206	87.89
852.381	24.4
852.556	38.74
852.731	116.56
852.906	1.88
853.081	108.37
853.256	10.07
853.431	46.93
853.606	42.84
853.781	18.26
853.956	34.64
854.131	30.55
854.305	94.04
854.48	71.51
854.655	-49.32
854.83	59.22
855.005	73.56
855.18	42.84
855.354	18.26
855.529	73.56
855.704	28.5
855.879	57.17
856.053	30.55
856.228	65.36
856.403	14.17
856.577	55.12
856.752	-34.99
856.926	48.98
857.101	59.22
857.276	26.45
857.45	104.28
857.625	46.93
857.799	55.12
857.974	59.22
858.148	77.65
858.323	59.22
858.497	69.46
858.672	20.31
858.846	12.12
859.02	-2.22
859.195	5.97
859.369	40.79
859.543	83.8
859.718	51.03
859.892	59.22
860.066	28.5
860.241	46.93
860.415	91.99
860.589	77.65
860.763	53.08
860.938	48.98
861.112	10.07
861.286	32.6
861.46	65.36
861.634	18.26
861.808	89.94
861.982	28.5
862.157	10.07
862.331	40.79
862.505	-34.99
862.679	24.4
862.853	-57.51
863.027	46.93
863.201	61.27
863.375	5.97
863.549	42.84
863.722	63.32
863.896	61.27
864.07	-14.51
864.244	38.74
864.418	48.98
864.592	30.55
864.766	34.64
864.939	44.88
865.113	65.36
865.287	38.74
865.461	28.5
865.634	71.51
865.808	14.17
865.982	46.93
866.156	-28.84
866.329	32.6
866.503	24.4
866.676	51.03
866.85	91.99
867.024	57.17
867.197	38.74
867.371	26.45
867.544	1.88
867.718	18.26
867.891	48.98
868.065	-22.7
868.238	5.97
868.412	61.27
868.585	22.36
868.759	-8.36
868.932	71.51
869.105	34.64
869.279	65.36
869.452	83.8
869.625	10.07
869.799	5.97
869.972	-16.55
870.145	12.12
870.319	24.4
870.492	30.55
870.665	14.17
870.838	65.36
871.011	-75.95
871.185	102.23
871.358	55.12
871.531	69.46
871.704	-2.22
871.877	40.79
872.05	-6.31
872.223	38.74
872.396	128.85
872.569	106.32
872.742	30.55
872.915	83.8
873.088	12.12
873.261	22.36
873.434	-4.27
873.607	106.32
873.78	114.52
873.953	1.88
874.126	1.88
874.299	30.55
874.471	38.74
874.644	36.69
874.817	34.64
874.99	102.23
875.163	77.65
875.335	79.7
875.508	51.03
875.681	46.93
875.853	28.5
876.026	69.46
876.199	28.5
876.371	85.84
876.544	28.5
876.717	26.45
876.889	-18.6
877.062	98.13
877.234	-0.17
877.407	44.88
877.579	40.79
877.752	22.36
877.924	1.88
878.097	126.8
878.269	77.65
878.442	63.32
878.614	98.13
878.786	30.55
878.959	34.64
879.131	12.12
879.303	-30.89
879.476	96.08
879.648	24.4
879.82	26.45
879.993	51.03
880.165	20.31
880.337	28.5
880.509	14.17
880.681	20.31
880.854	8.02
881.026	14.17
881.198	63.32
881.37	44.88
881.542	1.88
881.714	20.31
881.886	-24.75
882.058	1.88
882.23	69.46
882.402	-2.22
882.574	110.42
882.746	71.51
882.918	1.88
883.09	34.64
883.262	-18.6
883.434	85.84
883.606	51.03
883.778	22.36
883.95	65.36
884.122	59.22
884.293	46.93
884.465	42.84
884.637	-4.27
884.809	63.32
884.98	51.03
885.152	59.22
885.324	14.17
885.496	28.5
885.667	30.55
885.839	10.07
886.011	91.99
886.182	71.51
886.354	46.93
886.525	38.74
886.697	40.79
886.869	53.08
887.04	81.75
887.212	-6.31
887.383	44.88
887.555	114.52
887.726	1.88
887.897	87.89
888.069	94.04
888.24	46.93
888.412	-2.22
888.583	36.69
888.754	36.69
888.926	-18.6
889.097	30.55
889.268	-2.22
889.44	26.45
889.611	8.02
889.782	44.88
889.953	51.03
890.125	10.07
890.296	53.08
890.467	63.32
890.638	40.79
890.809	51.03
890.98	-6.31
891.151	42.84
891.323	104.28
891.494	26.45
891.665	-39.08
891.836	18.26
892.007	94.04
892.178	18.26
892.349	28.5
892.52	46.93
892.691	42.84
892.862	36.69
893.032	10.07
893.203	-28.84
893.374	-18.6
893.545	63.32
893.716	55.12
893.887	14.17
894.057	-88.23
894.228	-0.17
894.399	10.07
894.57	53.08
894.74	12.12
894.911	40.79
895.082	57.17
895.253	-4.27
895.423	24.4
895.594	32.6
895.764	57.17
895.935	79.7
896.106	53.08
896.276	34.64
896.447	51.03
896.617	71.51
896.788	71.51
896.958	14.17
897.129	-24.75
897.299	14.17
897.47	69.46
897.64	65.36
897.81	57.17
897.981	26.45
898.151	5.97
898.322	65.36
898.492	67.41
898.662	-6.31
898.832	24.4
899.003	26.45
899.173	42.84
899.343	20.31
899.513	8.02
