Data from USB4F104151__102__10-24-44-287.txt Node

Date: Wed Mar 12 10:24:44 EDT 2025
User: louis
Spectrometer: USB4F10415
Trigger mode: 4
Integration Time (sec): 3.000000E-2
Scans to average: 1
Electric dark correction enabled: true
Nonlinearity correction enabled: false
Boxcar width: 0
XAxis mode: Wavelengths
Number of Pixels in Spectrum: 3648
>>>>>Begin Spectral Data<<<<<
178.204	-179.37
178.424	-179.37
178.644	-179.37
178.864	-136.36
179.084	-105.64
179.304	19.29
179.524	-29.87
179.744	31.57
179.964	47.96
180.184	-23.72
180.404	47.96
180.624	-42.15
180.844	-36.01
181.064	-11.43
181.283	-42.15
181.503	-15.53
181.723	54.1
181.943	-27.82
182.163	-1.19
182.383	-25.77
182.602	54.1
182.822	-5.29
183.042	13.14
183.262	-81.07
183.482	4.95
183.701	-85.16
183.921	0.85
184.141	25.43
184.361	95.06
184.58	50
184.8	-44.2
185.02	-13.48
185.239	41.81
185.459	50
185.679	25.43
185.898	-40.11
186.118	-5.29
186.338	39.76
186.557	2.9
186.777	9.05
186.997	11.09
187.216	35.67
187.436	4.95
187.655	35.67
187.875	52.05
188.095	-29.87
188.314	111.44
188.534	23.38
188.753	-17.58
188.973	52.05
189.192	119.64
189.412	19.29
189.631	13.14
189.851	4.95
190.07	21.33
190.29	33.62
190.509	-19.63
190.729	-7.34
190.948	78.68
191.168	78.68
191.387	78.68
191.607	21.33
191.826	62.29
192.045	-23.72
192.265	-5.29
192.484	43.86
192.704	35.67
192.923	-27.82
193.142	17.24
193.362	-36.01
193.581	35.67
193.8	54.1
194.02	78.68
194.239	-48.3
194.458	11.09
194.678	-64.68
194.897	-3.24
195.116	47.96
195.335	-36.01
195.555	27.48
195.774	0.85
195.993	82.77
196.212	33.62
196.432	0.85
196.651	2.9
196.87	2.9
197.089	54.1
197.308	45.91
197.528	29.52
197.747	35.67
197.966	4.95
198.185	74.58
198.404	17.24
198.623	-42.15
198.842	9.05
199.062	45.91
199.281	27.48
199.5	17.24
199.719	31.57
199.938	15.19
200.157	80.72
200.376	-21.67
200.595	4.95
200.814	-11.43
201.033	-27.82
201.252	-15.53
201.471	58.2
201.69	52.05
201.909	-9.39
202.128	-13.48
202.347	82.77
202.566	-46.25
202.785	-11.43
203.004	-58.54
203.223	64.34
203.442	-60.59
203.661	-38.06
203.879	25.43
204.098	2.9
204.317	-50.35
204.536	-11.43
204.755	52.05
204.974	13.14
205.193	39.76
205.411	35.67
205.63	0.85
205.849	33.62
206.068	17.24
206.287	52.05
206.505	35.67
206.724	-19.63
206.943	52.05
207.162	0.85
207.381	21.33
207.599	0.85
207.818	-11.43
208.037	-42.15
208.255	27.48
208.474	-23.72
208.693	13.14
208.911	17.24
209.13	2.9
209.349	4.95
209.567	54.1
209.786	35.67
210.005	-9.39
210.223	97.11
210.442	-31.91
210.661	82.77
210.879	4.95
211.098	-23.72
211.316	-15.53
211.535	33.62
211.753	33.62
211.972	97.11
212.191	0.85
212.409	58.2
212.628	-19.63
212.846	-13.48
213.065	97.11
213.283	50
213.502	21.33
213.72	-15.53
213.938	-3.24
214.157	72.53
214.375	33.62
214.594	-33.96
214.812	103.25
215.031	-42.15
215.249	-44.2
215.467	-17.58
215.686	7
215.904	21.33
216.122	58.2
216.341	-7.34
216.559	-5.29
216.778	7
216.996	56.15
217.214	-31.91
217.432	-5.29
217.651	-38.06
217.869	66.39
218.087	72.53
218.306	25.43
218.524	37.72
218.742	-23.72
218.96	4.95
219.179	29.52
219.397	-21.67
219.615	56.15
219.833	95.06
220.051	-21.67
220.27	41.81
220.488	70.48
220.706	13.14
220.924	-50.35
221.142	-64.68
221.36	25.43
221.578	29.52
221.796	60.24
222.015	27.48
222.233	-5.29
222.451	11.09
222.669	-81.07
222.887	4.95
223.105	9.05
223.323	4.95
223.541	29.52
223.759	-42.15
223.977	41.81
224.195	52.05
224.413	43.86
224.631	90.96
224.849	-38.06
225.067	70.48
225.285	43.86
225.503	19.29
225.721	-29.87
225.939	45.91
226.157	-3.24
226.375	140.12
226.592	7
226.81	-31.91
227.028	76.63
227.246	-9.39
227.464	-13.48
227.682	62.29
227.9	17.24
228.117	54.1
228.335	17.24
228.553	-15.53
228.771	27.48
228.989	-33.96
229.206	11.09
229.424	-5.29
229.642	-68.78
229.86	19.29
230.077	111.44
230.295	-36.01
230.513	90.96
230.731	39.76
230.948	31.57
231.166	37.72
231.384	52.05
231.601	29.52
231.819	0.85
232.037	-62.63
232.254	11.09
232.472	-52.39
232.689	25.43
232.907	15.19
233.125	13.14
233.342	39.76
233.56	-5.29
233.777	0.85
233.995	27.48
234.213	54.1
234.43	-15.53
234.648	13.14
234.865	-15.53
235.083	33.62
235.3	-7.34
235.518	-27.82
235.735	68.44
235.953	37.72
236.17	66.39
236.388	-62.63
236.605	-13.48
236.822	33.62
237.04	-11.43
237.257	70.48
237.475	58.2
237.692	21.33
237.909	-52.39
238.127	21.33
238.344	29.52
238.562	19.29
238.779	11.09
238.996	39.76
239.214	-33.96
239.431	52.05
239.648	31.57
239.865	88.92
240.083	-19.63
240.3	11.09
240.517	-50.35
240.735	13.14
240.952	70.48
241.169	11.09
241.386	-13.48
241.603	-25.77
241.821	-36.01
242.038	68.44
242.255	54.1
242.472	17.24
242.689	23.38
242.907	9.05
243.124	21.33
243.341	-11.43
243.558	82.77
243.775	-19.63
243.992	0.85
244.209	52.05
244.426	66.39
244.643	-11.43
244.86	-13.48
245.078	142.16
245.295	-9.39
245.512	90.96
245.729	52.05
245.946	64.34
246.163	78.68
246.38	54.1
246.597	25.43
246.814	-5.29
247.031	-27.82
247.248	54.1
247.464	50
247.681	31.57
247.898	23.38
248.115	47.96
248.332	-3.24
248.549	17.24
248.766	70.48
248.983	-23.72
249.2	15.19
249.417	17.24
249.633	-38.06
249.85	70.48
250.067	11.09
250.284	43.86
250.501	45.91
250.717	2.9
250.934	52.05
251.151	-9.39
251.368	21.33
251.585	76.63
251.801	33.62
252.018	-27.82
252.235	109.4
252.451	-19.63
252.668	80.72
252.885	41.81
253.102	-1.19
253.318	43.86
253.535	29.52
253.752	76.63
253.968	21.33
254.185	45.91
254.401	-33.96
254.618	21.33
254.835	23.38
255.051	66.39
255.268	-13.48
255.484	47.96
255.701	76.63
255.917	13.14
256.134	31.57
256.351	9.05
256.567	-3.24
256.784	9.05
257	33.62
257.217	56.15
257.433	9.05
257.65	29.52
257.866	33.62
258.082	56.15
258.299	86.87
258.515	27.48
258.732	13.14
258.948	27.48
259.165	-3.24
259.381	-1.19
259.597	0.85
259.814	84.82
260.03	84.82
260.246	25.43
260.463	90.96
260.679	47.96
260.895	2.9
261.112	70.48
261.328	0.85
261.544	0.85
261.761	56.15
261.977	27.48
262.193	0.85
262.409	76.63
262.626	7
262.842	7
263.058	-3.24
263.274	31.57
263.49	58.2
263.707	37.72
263.923	43.86
264.139	-11.43
264.355	-58.54
264.571	68.44
264.787	41.81
265.004	31.57
265.22	15.19
265.436	-27.82
265.652	35.67
265.868	-19.63
266.084	-13.48
266.3	43.86
266.516	15.19
266.732	41.81
266.948	74.58
267.164	9.05
267.38	66.39
267.596	43.86
267.812	4.95
268.028	43.86
268.244	4.95
268.46	9.05
268.676	37.72
268.892	13.14
269.108	-56.49
269.324	-23.72
269.54	-11.43
269.756	117.59
269.972	45.91
270.188	68.44
270.403	-11.43
270.619	-17.58
270.835	33.62
271.051	27.48
271.267	-68.78
271.483	52.05
271.698	-36.01
271.914	41.81
272.13	39.76
272.346	23.38
272.562	-95.4
272.777	68.44
272.993	19.29
273.209	27.48
273.425	56.15
273.64	29.52
273.856	58.2
274.072	23.38
274.287	15.19
274.503	37.72
274.719	70.48
274.934	-36.01
275.15	-31.91
275.366	-17.58
275.581	29.52
275.797	39.76
276.012	-21.67
276.228	37.72
276.444	29.52
276.659	39.76
276.875	31.57
277.09	19.29
277.306	62.29
277.521	-3.24
277.737	45.91
277.952	60.24
278.168	50
278.383	19.29
278.599	60.24
278.814	37.72
279.03	-68.78
279.245	17.24
279.461	-11.43
279.676	95.06
279.892	13.14
280.107	-36.01
280.322	43.86
280.538	-5.29
280.753	-3.24
280.969	4.95
281.184	-21.67
281.399	58.2
281.615	47.96
281.83	35.67
282.045	-36.01
282.26	97.11
282.476	-5.29
282.691	27.48
282.906	33.62
283.122	50
283.337	-91.31
283.552	33.62
283.767	-23.72
283.983	52.05
284.198	4.95
284.413	-27.82
284.628	-7.34
284.843	41.81
285.058	54.1
285.274	-19.63
285.489	43.86
285.704	43.86
285.919	35.67
286.134	11.09
286.349	-9.39
286.564	76.63
286.779	54.1
286.995	25.43
287.21	15.19
287.425	45.91
287.64	31.57
287.855	-19.63
288.07	43.86
288.285	56.15
288.5	80.72
288.715	29.52
288.93	21.33
289.145	54.1
289.36	23.38
289.575	19.29
289.79	90.96
290.004	37.72
290.219	33.62
290.434	19.29
290.649	21.33
290.864	39.76
291.079	-7.34
291.294	84.82
291.509	72.53
291.724	17.24
291.938	-27.82
292.153	45.91
292.368	-64.68
292.583	0.85
292.798	-11.43
293.012	33.62
293.227	-7.34
293.442	-56.49
293.657	50
293.871	31.57
294.086	4.95
294.301	9.05
294.516	25.43
294.73	80.72
294.945	-25.77
295.16	-19.63
295.374	17.24
295.589	19.29
295.804	-21.67
296.018	-64.68
296.233	60.24
296.447	-48.3
296.662	76.63
296.877	105.3
297.091	15.19
297.306	-3.24
297.52	60.24
297.735	43.86
297.949	29.52
298.164	31.57
298.378	17.24
298.593	-23.72
298.807	-5.29
299.022	17.24
299.236	17.24
299.451	-33.96
299.665	37.72
299.88	68.44
300.094	68.44
300.309	29.52
300.523	-15.53
300.737	47.96
300.952	-25.77
301.166	129.88
301.381	-103.59
301.595	29.52
301.809	37.72
302.024	33.62
302.238	-7.34
302.452	95.06
302.667	-9.39
302.881	84.82
303.095	45.91
303.309	35.67
303.524	0.85
303.738	-11.43
303.952	27.48
304.166	27.48
304.381	21.33
304.595	29.52
304.809	29.52
305.023	31.57
305.237	-19.63
305.452	-5.29
305.666	60.24
305.88	17.24
306.094	62.29
306.308	109.4
306.522	-23.72
306.736	35.67
306.95	47.96
307.164	27.48
307.379	23.38
307.593	115.54
307.807	78.68
308.021	58.2
308.235	9.05
308.449	25.43
308.663	-36.01
308.877	33.62
309.091	4.95
309.305	21.33
309.519	-74.92
309.733	-52.39
309.947	-31.91
310.161	13.14
310.374	45.91
310.588	45.91
310.802	-21.67
311.016	11.09
311.23	41.81
311.444	27.48
311.658	-3.24
311.872	17.24
312.085	76.63
312.299	23.38
312.513	54.1
312.727	7
312.941	68.44
313.154	9.05
313.368	52.05
313.582	50
313.796	54.1
314.009	33.62
314.223	13.14
314.437	15.19
314.651	11.09
314.864	-36.01
315.078	35.67
315.292	-15.53
315.505	58.2
315.719	50
315.933	13.14
316.146	-44.2
316.36	-76.97
316.573	41.81
316.787	2.9
317.001	109.4
317.214	33.62
317.428	0.85
317.641	-72.87
317.855	80.72
318.068	56.15
318.282	-3.24
318.495	43.86
318.709	72.53
318.922	19.29
319.136	84.82
319.349	-58.54
319.563	37.72
319.776	101.2
319.99	58.2
320.203	-48.3
320.417	23.38
320.63	2.9
320.843	58.2
321.057	29.52
321.27	-13.48
321.483	58.2
321.697	52.05
321.91	33.62
322.124	-1.19
322.337	84.82
322.55	-36.01
322.763	25.43
322.977	33.62
323.19	-11.43
323.403	23.38
323.617	-5.29
323.83	29.52
324.043	37.72
324.256	54.1
324.469	52.05
324.683	82.77
324.896	29.52
325.109	37.72
325.322	35.67
325.535	47.96
325.748	50
325.962	103.25
326.175	54.1
326.388	17.24
326.601	62.29
326.814	-19.63
327.027	45.91
327.24	95.06
327.453	-83.11
327.666	-13.48
327.879	78.68
328.092	9.05
328.305	-31.91
328.518	27.48
328.731	39.76
328.944	29.52
329.157	29.52
329.37	-3.24
329.583	35.67
329.796	19.29
330.009	13.14
330.222	11.09
330.435	62.29
330.648	-48.3
330.861	7
331.073	47.96
331.286	78.68
331.499	43.86
331.712	-15.53
331.925	19.29
332.138	33.62
332.35	17.24
332.563	29.52
332.776	35.67
332.989	-19.63
333.202	64.34
333.414	2.9
333.627	35.67
333.84	-29.87
334.053	54.1
334.265	-83.11
334.478	-21.67
334.691	47.96
334.903	-15.53
335.116	23.38
335.329	-7.34
335.541	45.91
335.754	95.06
335.966	45.91
336.179	-11.43
336.392	54.1
336.604	-23.72
336.817	41.81
337.029	70.48
337.242	-15.53
337.454	0.85
337.667	-19.63
337.88	54.1
338.092	21.33
338.305	39.76
338.517	21.33
338.729	101.2
338.942	68.44
339.154	17.24
339.367	-70.83
339.579	7
339.792	9.05
340.004	62.29
340.217	41.81
340.429	-11.43
340.641	45.91
340.854	78.68
341.066	31.57
341.278	-17.58
341.491	-15.53
341.703	78.68
341.915	82.77
342.128	17.24
342.34	-11.43
342.552	-3.24
342.764	86.87
342.977	37.72
343.189	25.43
343.401	95.06
343.613	4.95
343.826	74.58
344.038	27.48
344.25	-15.53
344.462	2.9
344.674	90.96
344.886	-31.91
345.099	-9.39
345.311	84.82
345.523	68.44
345.735	-19.63
345.947	62.29
346.159	68.44
346.371	29.52
346.583	-3.24
346.795	136.02
347.007	47.96
347.219	25.43
347.431	15.19
347.643	70.48
347.855	27.48
348.067	9.05
348.279	-7.34
348.491	105.3
348.703	90.96
348.915	0.85
349.127	4.95
349.339	45.91
349.551	45.91
349.763	58.2
349.975	60.24
350.187	60.24
350.399	19.29
350.61	82.77
350.822	54.1
351.034	99.16
351.246	-13.48
351.458	62.29
351.669	66.39
351.881	121.68
352.093	39.76
352.305	2.9
352.517	62.29
352.728	103.25
352.94	-21.67
353.152	-9.39
353.363	0.85
353.575	2.9
353.787	-3.24
353.999	62.29
354.21	43.86
354.422	-5.29
354.633	-48.3
354.845	-21.67
355.057	23.38
355.268	0.85
355.48	66.39
355.692	27.48
355.903	-50.35
356.115	25.43
356.326	-15.53
356.538	68.44
356.749	-52.39
356.961	2.9
357.172	50
357.384	52.05
357.595	76.63
357.807	-13.48
358.018	-1.19
358.23	76.63
358.441	39.76
358.653	62.29
358.864	9.05
359.075	7
359.287	0.85
359.498	9.05
359.709	84.82
359.921	33.62
360.132	-5.29
360.344	-5.29
360.555	23.38
360.766	43.86
360.977	86.87
361.189	70.48
361.4	56.15
361.611	66.39
361.823	31.57
362.034	29.52
362.245	-40.11
362.456	19.29
362.667	-7.34
362.879	-1.19
363.09	54.1
363.301	58.2
363.512	-3.24
363.723	-1.19
363.935	56.15
364.146	86.87
364.357	43.86
364.568	78.68
364.779	9.05
364.99	31.57
365.201	-36.01
365.412	70.48
365.623	-31.91
365.834	72.53
366.045	35.67
366.256	41.81
366.467	66.39
366.678	78.68
366.889	9.05
367.1	47.96
367.311	76.63
367.522	-7.34
367.733	11.09
367.944	103.25
368.155	101.2
368.366	29.52
368.577	60.24
368.788	86.87
368.999	33.62
369.209	-33.96
369.42	60.24
369.631	47.96
369.842	86.87
370.053	-52.39
370.264	90.96
370.474	70.48
370.685	-31.91
370.896	21.33
371.107	29.52
371.317	35.67
371.528	33.62
371.739	66.39
371.95	-1.19
372.16	76.63
372.371	72.53
372.582	19.29
372.792	47.96
373.003	31.57
373.214	29.52
373.424	74.58
373.635	-5.29
373.846	11.09
374.056	19.29
374.267	41.81
374.477	62.29
374.688	15.19
374.898	39.76
375.109	27.48
375.319	58.2
375.53	74.58
375.74	-52.39
375.951	25.43
376.161	11.09
376.372	-40.11
376.582	37.72
376.793	43.86
377.003	-5.29
377.214	-36.01
377.424	80.72
377.635	4.95
377.845	54.1
378.055	62.29
378.266	74.58
378.476	103.25
378.686	86.87
378.897	78.68
379.107	0.85
379.317	50
379.528	37.72
379.738	123.73
379.948	58.2
380.158	13.14
380.369	45.91
380.579	86.87
380.789	33.62
380.999	82.77
381.21	47.96
381.42	66.39
381.63	19.29
381.84	54.1
382.05	86.87
382.261	-19.63
382.471	82.77
382.681	-5.29
382.891	17.24
383.101	2.9
383.311	23.38
383.521	-11.43
383.731	86.87
383.941	45.91
384.151	4.95
384.361	-15.53
384.571	76.63
384.781	107.35
384.991	52.05
385.201	86.87
385.411	95.06
385.621	-36.01
385.831	52.05
386.041	105.3
386.251	45.91
386.461	168.79
386.671	33.62
386.881	50
387.091	-3.24
387.301	76.63
387.511	-38.06
387.72	9.05
387.93	-13.48
388.14	50
388.35	0.85
388.56	35.67
388.769	97.11
388.979	60.24
389.189	37.72
389.399	54.1
389.609	27.48
389.818	133.97
390.028	105.3
390.238	105.3
390.447	84.82
390.657	70.48
390.867	66.39
391.076	-36.01
391.286	-23.72
391.496	11.09
391.705	58.2
391.915	76.63
392.125	115.54
392.334	58.2
392.544	56.15
392.753	50
392.963	29.52
393.172	37.72
393.382	9.05
393.591	37.72
393.801	-109.74
394.01	125.78
394.22	43.86
394.429	54.1
394.639	70.48
394.848	80.72
395.058	80.72
395.267	117.59
395.477	105.3
395.686	66.39
395.895	54.1
396.105	103.25
396.314	105.3
396.524	60.24
396.733	2.9
396.942	195.41
397.152	93.01
397.361	84.82
397.57	43.86
397.78	156.5
397.989	78.68
398.198	93.01
398.407	136.02
398.617	70.48
398.826	58.2
399.035	52.05
399.244	95.06
399.453	56.15
399.663	109.4
399.872	113.49
400.081	50
400.29	148.31
400.499	66.39
400.708	93.01
400.917	70.48
401.127	72.53
401.336	160.59
401.545	86.87
401.754	60.24
401.963	129.88
402.172	129.88
402.381	37.72
402.59	123.73
402.799	70.48
403.008	121.68
403.217	54.1
403.426	86.87
403.635	62.29
403.844	72.53
404.053	131.92
404.262	84.82
404.471	176.98
404.68	131.92
404.888	156.5
405.097	154.45
405.306	136.02
405.515	113.49
405.724	195.41
405.933	162.64
406.142	97.11
406.35	172.88
406.559	105.3
406.768	107.35
406.977	199.51
407.185	166.74
407.394	133.97
407.603	172.88
407.812	244.56
408.02	232.27
408.229	222.03
408.438	254.8
408.646	193.36
408.855	238.42
409.064	258.9
409.272	250.71
409.481	260.95
409.69	244.56
409.898	262.99
410.107	181.07
410.315	289.62
410.524	250.71
410.733	250.71
410.941	361.3
411.15	314.19
411.358	392.02
411.567	334.67
411.775	346.96
411.984	357.2
412.192	447.31
412.401	404.3
412.609	484.17
412.818	416.59
413.026	490.32
413.234	455.5
413.443	504.65
413.651	455.5
413.86	525.13
414.068	594.76
414.276	564.04
414.485	576.33
414.693	643.92
414.901	629.58
415.11	617.29
415.318	594.76
415.526	674.64
415.734	648.01
415.943	758.6
416.151	729.93
416.359	723.79
416.567	754.51
416.776	787.27
416.984	844.62
417.192	934.73
417.4	863.05
417.608	895.82
417.817	920.39
418.025	942.92
418.233	1071.94
418.441	1094.47
418.649	1033.03
418.857	1108.8
419.065	1168.2
419.273	1065.8
419.481	1153.86
419.689	1217.35
419.897	1354.56
420.105	1313.6
420.313	1413.95
420.521	1430.34
420.729	1450.82
420.937	1487.68
421.145	1608.51
421.353	1612.6
421.561	1669.95
421.769	1835.83
421.977	1844.03
422.185	1839.93
422.393	1919.8
422.601	2143.03
422.809	1977.14
423.017	2073.4
423.224	2038.58
423.432	2124.6
423.64	2175.8
423.848	2405.17
424.056	2345.78
424.263	2431.79
424.471	2413.36
424.679	2530.09
424.887	2630.45
425.094	2747.18
425.302	2712.36
425.51	2992.94
425.718	2898.73
425.925	3042.09
426.133	3005.22
426.341	3289.89
426.548	3437.34
426.756	3498.78
426.964	3482.4
427.171	3668.77
427.379	3722.01
427.586	3793.69
427.794	3941.15
428.001	4303.64
428.209	4354.83
428.417	4348.69
428.624	4524.82
428.832	4522.77
429.039	4596.5
429.247	4504.34
429.454	4786.96
429.662	5286.66
429.869	4985.61
430.076	5317.38
430.284	5159.69
430.491	5534.46
430.699	5647.1
430.906	5534.46
431.114	5864.19
431.321	5894.91
431.528	6099.7
431.736	6406.9
431.943	6800.11
432.15	6382.32
432.358	6695.66
432.565	6951.66
432.772	6922.99
432.979	7320.29
433.187	7365.35
433.394	7324.39
433.601	7836.38
433.808	8112.86
434.016	8073.95
434.223	8237.78
434.43	8766.16
434.637	8532.69
434.844	9194.19
435.052	9290.44
435.259	9249.48
435.466	9124.55
435.673	9315.02
435.88	9702.08
436.087	10322.62
436.294	10320.57
436.501	10201.79
436.708	10363.58
436.915	10756.79
437.122	11240.11
437.329	11000.49
437.537	11559.59
437.743	11629.22
437.95	11489.96
438.157	12247.71
438.364	12466.84
438.571	12575.38
438.778	12665.49
438.985	13625.99
439.192	13214.35
439.399	13492.87
439.606	13269.64
439.813	14105.21
440.02	14932.59
440.227	14781.04
440.433	14467.7
440.64	14930.55
440.847	15139.44
441.054	15389.29
441.261	16257.63
441.467	16026.21
441.674	16308.83
441.881	17138.26
442.088	17027.67
442.294	16716.37
442.501	17406.54
442.708	17738.31
442.914	18430.52
443.121	19010.1
443.328	18596.41
443.534	19986.98
443.741	19098.16
443.948	18944.56
444.154	20095.52
444.361	20312.61
444.568	20496.92
444.774	20230.69
444.981	20486.68
445.187	21178.9
445.394	22010.37
445.6	21408.27
445.807	23843.31
446.013	22673.92
446.22	23593.45
446.426	23878.12
446.633	24666.59
446.839	25121.24
447.046	23894.5
447.252	25571.79
447.459	25412.05
447.665	25139.67
447.871	26214.85
448.078	27388.34
448.284	26327.49
448.491	27105.72
448.697	27914.67
448.903	28381.6
449.11	28672.42
449.316	27957.67
449.522	28572.07
449.728	29534.61
449.935	29544.85
450.141	29385.11
450.347	30095.75
450.553	28842.4
450.76	29530.51
450.966	30482.82
451.172	30026.12
451.378	30810.5
451.584	30089.61
451.791	31093.11
451.997	30849.41
452.203	31144.31
452.409	31287.67
452.615	31074.68
452.821	29497.75
453.027	29684.11
453.233	31289.72
453.44	29749.65
453.646	30247.3
453.852	30185.86
454.058	30704
454.264	29692.3
454.47	30294.41
454.676	29301.14
454.882	30429.57
455.088	27621.81
455.294	28369.32
455.5	28801.44
455.705	29182.36
455.911	27847.08
456.117	27062.71
456.323	26913.21
456.529	25405.91
456.735	26540.48
456.941	25905.61
457.147	25199.06
457.352	24953.3
457.558	24443.36
457.764	24363.49
457.97	23794.15
458.176	23362.03
458.381	23462.38
458.587	22235.65
458.793	22546.94
458.999	21269.01
459.204	22454.78
459.41	21983.75
459.616	20470.3
459.821	20476.44
460.027	20308.51
460.233	19894.82
460.438	19028.53
460.644	19165.74
460.85	18326.08
461.055	18072.13
461.261	17877.57
461.466	16556.63
461.672	16196.19
461.878	17228.37
462.083	16179.81
462.289	15913.57
462.494	15843.94
462.7	15102.57
462.905	14637.69
463.111	15100.53
463.316	15274.6
463.522	15159.92
463.727	15026.8
463.932	14764.66
464.138	14858.87
464.343	14932.59
464.549	14412.41
464.754	15133.29
464.959	14930.55
465.165	14766.71
465.37	14228.09
465.575	13517.45
465.781	14232.19
465.986	14381.69
466.191	13984.38
466.397	13546.12
466.602	12776.08
466.807	13525.64
467.012	13460.1
467.218	13105.81
467.423	12991.12
467.628	13363.85
467.833	13875.84
468.038	13267.59
468.244	12872.34
468.449	13415.05
468.654	12970.64
468.859	12792.47
469.064	12743.31
469.269	12161.69
469.474	12354.2
469.679	12706.45
469.885	12245.66
470.09	12413.59
470.295	12423.83
470.5	11956.89
470.705	12135.07
470.91	11752.1
471.115	11543.21
471.32	11754.15
471.525	11823.78
471.73	11569.83
471.935	11440.81
472.139	11164.33
472.344	11270.83
472.549	11303.59
472.754	11111.08
472.959	10699.44
473.164	10406.58
473.369	10353.34
473.574	10922.67
473.778	10724.02
473.983	10648.24
474.188	10533.56
474.393	10255.03
474.598	10269.37
474.802	10089.15
475.007	9802.43
475.212	9892.54
475.417	9646.79
475.621	9503.43
475.826	9450.18
476.031	9446.09
476.235	9517.76
476.44	9425.61
476.645	9026.25
476.849	9196.23
477.054	9134.79
477.259	9087.69
477.463	8919.76
477.668	8770.26
477.872	8794.83
478.077	8813.26
478.282	8381.14
478.486	8645.33
478.691	8436.44
478.895	8481.49
479.1	8391.38
479.304	8237.78
479.509	8106.71
479.713	8252.12
479.918	8053.47
480.122	7934.68
480.326	7910.11
480.531	8170.2
480.735	7908.06
480.94	7897.82
481.144	8260.31
481.348	7934.68
481.553	8016.6
481.757	7604.96
481.961	7809.76
482.166	7897.82
482.37	7762.65
482.574	7754.46
482.778	7768.8
482.983	7795.42
483.187	7680.74
483.391	7944.92
483.595	7631.58
483.8	7693.02
484.004	7760.61
484.208	7848.67
484.412	7611.11
484.616	7887.58
484.821	7746.27
485.025	7582.43
485.229	7934.68
485.433	7826.14
485.637	7742.18
485.841	7699.17
486.045	7820
486.249	7924.44
486.453	7731.94
486.657	7740.13
486.861	7764.7
487.065	7512.8
487.269	7848.67
487.473	7590.63
487.677	7883.49
487.881	7811.81
488.085	7742.18
488.289	7830.24
488.493	7916.25
488.697	7705.31
488.901	7770.85
489.105	7717.6
489.309	7914.2
489.512	7992.03
489.716	7906.01
489.92	7953.12
490.124	7709.41
490.328	7901.92
490.531	7770.85
490.735	8022.75
490.939	7985.88
491.143	7944.92
491.346	8184.54
491.55	8131.29
491.754	8114.91
491.958	8323.8
492.161	8295.13
492.365	8407.77
492.569	8313.56
492.772	8262.36
492.976	8485.59
493.18	8336.09
493.383	8313.56
493.587	8565.46
493.79	8766.16
493.994	8377.05
494.197	8653.52
494.401	8684.24
494.605	8538.84
494.808	8749.78
495.012	8858.32
495.215	9069.26
495.419	9177.8
495.622	9007.82
495.825	8944.33
496.029	9005.77
496.232	9405.13
496.436	9392.84
496.639	9327.3
496.843	9380.55
497.046	9636.55
497.249	9773.76
497.453	9571.01
497.656	9867.97
497.859	9880.25
498.063	10162.87
498.266	10070.72
498.469	10113.72
498.673	10255.03
498.876	10359.48
499.079	10545.84
499.282	10560.18
499.485	10711.73
499.689	10795.7
499.892	10875.57
500.095	11016.88
500.298	11158.19
500.501	11371.18
500.705	11469.48
500.908	11727.52
501.111	11621.03
501.314	11668.13
501.517	11776.67
501.72	12038.81
501.923	12153.5
502.126	12571.29
502.329	12520.09
502.532	12470.94
502.735	12755.6
502.938	12710.55
503.141	12843.67
503.344	13267.59
503.547	13413
503.75	13560.45
503.953	13761.16
504.156	13728.39
504.359	13953.66
504.562	14013.06
504.765	14314.11
504.968	14342.78
505.17	14535.29
505.373	14723.7
505.576	14643.83
505.779	15114.86
505.982	15000.18
506.185	15622.76
506.387	15497.83
506.59	15440.49
506.793	15575.66
506.996	15899.23
507.198	16183.9
507.401	16343.64
507.604	16233.05
507.807	16863.83
508.009	16904.79
508.212	16857.68
508.415	17314.38
508.617	17545.8
508.82	17488.46
509.022	17394.25
509.225	17787.46
509.428	18051.65
509.63	18086.47
509.833	18225.73
510.035	18747.96
510.238	18483.77
510.44	18952.76
510.643	19231.28
510.845	19405.36
511.048	19214.9
511.25	19395.12
511.453	19530.28
511.655	20943.38
511.858	20382.24
512.06	20374.05
512.262	20623.9
512.465	20511.26
512.667	20861.46
512.87	21367.31
513.072	21299.73
513.274	21688.84
513.477	21963.27
513.679	22016.52
513.881	22346.24
514.084	22600.19
514.286	22761.98
514.488	22915.58
514.69	23525.87
514.893	23548.4
515.095	23456.24
515.297	23704.04
515.499	24039.91
515.701	24191.46
515.904	24349.15
516.106	24576.48
516.308	25129.43
516.51	25430.48
516.712	25602.51
516.914	25446.87
517.116	26214.85
517.318	25985.48
517.52	26225.09
517.722	26122.69
517.925	26759.61
518.127	27154.87
518.329	27218.36
518.531	27015.61
518.733	27586.99
518.935	27883.95
519.136	28207.53
519.338	28469.67
519.54	28561.83
519.742	28942.75
519.944	29147.54
520.146	29749.65
520.348	29460.88
520.55	29751.7
520.752	29739.41
520.954	30798.21
521.155	30206.34
521.357	30654.85
521.559	31080.83
521.761	31783.28
521.963	31359.35
522.164	31951.21
522.366	31652.21
522.568	32139.63
522.77	32229.74
522.971	32557.41
523.173	32733.54
523.375	33014.11
523.576	33169.76
523.778	33188.19
523.98	33569.11
524.181	34064.72
524.383	33767.76
524.584	34398.54
524.786	34085.2
524.988	34210.12
525.189	34912.58
525.391	34662.72
525.592	34986.3
525.794	35098.94
525.995	35295.55
526.197	35463.48
526.398	35934.51
526.6	35821.87
526.801	35836.21
527.003	35612.98
527.204	35846.45
527.406	36389.16
527.607	36532.52
527.808	36776.23
528.01	36299.05
528.211	37345.56
528.412	37656.85
528.614	37351.71
528.815	37517.59
529.016	37525.78
529.218	37581.08
529.419	37636.38
529.62	37740.82
529.822	37759.25
530.023	37962
530.224	37685.53
530.425	37622.04
530.626	38131.98
530.828	37669.14
531.029	38807.81
531.23	38195.47
531.431	38502.67
531.632	38848.77
531.833	38848.77
532.035	38377.74
532.236	38517
532.437	38936.84
532.638	38322.44
532.839	39303.42
533.04	39043.33
533.241	38906.12
533.442	39190.78
533.643	39246.08
533.844	38797.57
534.045	39215.36
534.246	38641.93
534.447	39186.69
534.648	39467.26
534.849	39211.26
535.05	39158.02
535.251	39379.2
535.451	39115.01
535.652	39581.95
535.853	39368.96
536.054	39450.88
536.255	39653.62
536.456	39033.09
536.657	39547.13
536.857	39244.03
537.058	39141.63
537.259	39792.89
537.46	39450.88
537.66	39452.92
537.861	39399.68
538.062	39004.42
538.263	39952.63
538.463	39399.68
538.664	39221.5
538.865	39713.02
539.065	39883
539.266	38979.84
539.466	39639.29
539.667	39166.21
539.868	39647.48
540.068	39258.37
540.269	39598.33
540.469	39520.51
540.67	39262.46
540.87	39452.92
541.071	39407.87
541.271	39756.02
541.472	39516.41
541.672	39354.62
541.873	39676.15
542.073	39170.3
542.274	39788.79
542.474	39483.64
542.675	39104.77
542.875	39788.79
543.075	39168.26
543.276	38951.17
543.476	39729.4
543.676	39317.76
543.877	39305.47
544.077	39332.09
544.277	39262.46
544.478	39368.96
544.678	39555.32
544.878	39344.38
545.078	39575.8
545.279	39198.98
545.479	39155.97
545.679	39311.61
545.879	39166.21
546.079	39422.2
546.28	39307.52
546.48	38799.62
546.68	39600.38
546.88	39289.09
547.08	39166.21
547.28	39305.47
547.48	39115.01
547.68	39211.26
547.88	38795.53
548.081	39768.31
548.281	38988.03
548.481	38994.18
548.681	39182.59
548.881	39096.58
549.081	39205.12
549.28	39176.45
549.48	39270.65
549.68	39315.71
549.88	39414.01
550.08	39135.49
550.28	39311.61
550.48	39008.51
550.68	39192.83
550.88	38738.18
551.08	39250.17
551.279	39008.51
551.479	38922.5
551.679	39012.61
551.879	38531.34
552.079	39033.09
552.278	38805.77
552.478	38904.07
552.678	38863.11
552.878	39158.02
553.077	38701.32
553.277	38492.43
553.477	39260.41
553.676	38779.14
553.876	38877.44
554.076	38619.4
554.275	38725.89
554.475	38258.96
554.674	38899.97
554.874	38934.79
555.074	38256.91
555.273	38463.75
555.473	38578.44
555.672	38162.7
555.872	38195.47
556.071	38533.39
556.271	38504.71
556.47	38684.94
556.67	37927.19
556.869	38459.66
557.068	38224.14
557.268	37525.78
557.467	38041.87
557.667	38013.2
557.866	38064.4
558.065	37800.21
558.265	37544.22
558.464	37632.28
558.663	37882.13
558.863	37601.56
559.062	37775.64
559.261	37493.02
559.461	37929.23
559.66	37222.69
559.859	37681.43
560.058	37189.92
560.258	37628.18
560.457	37124.38
560.656	37216.54
560.855	37079.33
561.054	37054.75
561.253	36796.71
561.453	36827.43
561.652	36931.87
561.851	37093.66
562.05	36833.57
562.249	36477.22
562.448	36888.87
562.647	36653.35
562.846	36407.59
563.045	36739.36
563.244	36026.67
563.443	36559.14
563.642	36124.97
563.841	36063.54
564.04	35674.42
564.239	36438.31
564.438	35899.7
564.637	36006.19
564.836	35682.61
565.035	35408.19
565.234	35541.3
565.432	35461.43
565.631	35254.59
565.83	35356.99
566.029	35121.47
566.228	35111.23
566.427	34834.75
566.625	34371.91
566.824	34937.15
567.023	34711.88
567.222	34394.44
567.42	34849.09
567.619	34697.54
567.818	34687.3
568.016	34095.44
568.215	34783.55
568.414	34097.49
568.612	34552.13
568.811	33737.04
569.01	33638.74
569.208	33438.04
569.407	33921.36
569.605	33556.82
569.804	34134.35
570.002	33343.83
570.201	33462.61
570.4	33272.15
570.598	33102.17
570.797	32784.74
570.995	32924
571.193	32700.77
571.392	33091.93
571.59	32528.74
571.789	32205.16
571.987	32309.61
572.186	32379.24
572.384	32299.37
572.582	32190.83
572.781	32561.51
572.979	32106.86
573.177	32287.08
573.376	32180.59
573.574	31506.8
573.772	31889.77
573.971	31433.08
574.169	31500.66
574.367	31105.4
574.565	31596.92
574.763	31101.31
574.962	31035.77
575.16	30974.33
575.358	31175.03
575.556	30687.62
575.754	31095.16
575.952	30507.4
576.151	30790.02
576.349	30736.77
576.547	30325.13
576.745	30364.04
576.943	30357.89
577.141	30239.11
577.339	30323.08
577.537	30128.52
577.735	30093.71
577.933	29694.35
578.131	30046.6
578.329	29813.13
578.527	29589.91
578.725	29804.94
578.923	29833.61
579.121	29460.88
579.319	29401.49
579.516	29245.85
579.714	29381.01
579.912	29313.43
580.11	28928.41
580.308	29264.28
580.506	29198.74
580.704	28391.84
580.901	28604.83
581.099	29186.46
581.297	28414.37
581.495	28209.57
581.692	28645.79
581.89	28037.55
582.088	28651.94
582.285	28367.27
582.483	28320.17
582.681	28180.9
582.878	27929
583.076	27537.84
583.274	27832.75
583.471	27642.29
583.669	27414.96
583.866	27328.95
584.064	27677.1
584.262	27228.6
584.459	27533.75
584.657	27343.28
584.854	26993.08
585.052	27040.18
585.249	27335.09
585.447	27177.4
585.644	26706.37
585.841	26761.66
586.039	27007.42
586.236	26548.67
586.434	26565.06
586.631	26544.58
586.828	26573.25
587.026	26528.19
587.223	26350.02
587.42	26036.68
587.618	26315.2
587.815	25936.33
588.012	26186.18
588.21	25870.79
588.407	26225.09
588.604	25889.23
588.801	25721.29
588.999	25723.34
589.196	25491.92
589.393	25618.89
589.59	25182.68
589.787	25076.18
589.984	24979.93
590.182	25031.13
590.379	24945.11
590.576	24615.39
590.773	24930.78
590.97	24488.42
591.167	24910.3
591.364	24459.74
591.561	24670.68
591.758	24676.83
591.955	24517.09
592.152	24635.87
592.349	24148.45
592.546	24326.63
592.743	24265.19
592.94	23980.52
593.137	24236.52
593.334	24439.26
593.531	23957.99
593.727	24001
593.924	23710.19
594.121	23880.17
594.318	24011.24
594.515	23321.07
594.712	23833.07
594.908	23263.73
595.105	23374.32
595.302	23103.99
595.499	23468.53
595.696	23196.15
595.892	22768.12
596.089	23218.68
596.286	23210.48
596.482	22776.31
596.679	23126.52
596.876	23280.11
597.072	22614.52
597.269	22907.38
597.466	22600.19
597.662	22489.6
597.859	22675.96
598.055	22262.27
598.252	22073.86
598.448	22172.16
598.645	22338.05
598.841	22149.64
599.038	22075.91
599.234	22100.48
599.431	21707.27
599.627	21813.77
599.824	21795.34
600.02	21535.24
600.217	21852.68
600.413	21533.2
600.609	21387.79
600.806	21109.27
601.002	21418.51
601.198	21139.99
601.395	21103.12
601.591	21049.88
601.787	21269.01
601.984	21021.2
602.18	21430.8
602.376	20746.78
602.572	21006.87
602.769	20582.94
602.965	20550.17
603.161	20728.35
603.357	20470.3
603.553	20421.15
603.75	20697.63
603.946	20216.35
604.142	20509.21
604.338	19860.01
604.534	20312.61
604.73	20107.81
604.926	19968.55
605.122	20005.41
605.318	19683.88
605.514	19956.26
605.71	19507.76
605.906	20120.1
606.102	19518
606.298	19978.79
606.494	19642.92
606.69	19577.39
606.886	19595.82
607.082	19216.94
607.278	19653.16
607.474	19061.3
607.67	19388.97
607.866	18991.67
608.062	19264.05
608.257	19083.83
608.453	19020.34
608.649	19153.46
608.845	19044.91
609.041	18942.52
609.236	18905.65
609.432	19030.58
609.628	18952.76
609.824	18733.62
610.019	18723.38
610.215	18854.45
610.411	18801.21
610.606	18655.8
610.802	18833.97
610.998	18674.23
611.193	18612.79
611.389	18442.81
611.584	18338.37
611.78	18354.75
611.976	18295.36
612.171	18297.41
612.367	18420.28
612.562	18039.36
612.758	17961.54
612.953	17977.92
613.149	18190.91
613.344	17791.56
613.539	18162.24
613.735	17875.52
613.93	18094.66
614.126	17979.97
614.321	17873.48
614.517	18008.64
614.712	17713.74
614.907	17789.51
615.103	17869.38
615.298	17676.87
615.493	17855.04
615.688	17588.81
615.884	17781.32
616.079	17402.44
616.274	17439.31
616.47	17515.08
616.665	17359.44
616.86	17427.02
617.055	17334.86
617.25	17207.89
617.445	17394.25
617.641	17082.96
617.836	17510.99
618.031	17005.14
618.226	17185.36
618.421	16951.89
618.616	17113.68
618.811	16663.13
619.006	17105.49
619.201	16720.47
619.396	17017.43
619.591	16409.18
619.786	16835.16
619.981	16521.82
620.176	16597.59
620.371	16558.68
620.566	16607.83
620.761	16345.69
620.956	16314.97
621.151	15952.48
621.346	16120.42
621.541	15903.33
621.735	16130.66
621.93	15747.69
622.125	15794.79
622.32	15719.01
622.515	15712.87
622.709	15690.34
622.904	15360.62
623.099	15295.08
623.294	15751.78
623.488	15422.06
623.683	15362.67
623.878	15028.85
624.072	15178.35
624.267	14924.4
624.462	14858.87
624.656	14764.66
624.851	14793.33
625.046	14717.56
625.24	14635.64
625.435	14293.63
625.629	14338.68
625.824	14424.7
626.018	14293.63
626.213	14193.28
626.407	14033.54
626.602	13765.25
626.796	14037.63
626.991	13841.03
627.185	13806.21
627.38	13920.9
627.574	13687.43
627.768	13458.06
627.963	13525.64
628.157	13453.96
628.352	13628.04
628.546	13101.71
628.74	13224.59
628.935	13044.37
629.129	12878.48
629.323	12933.78
629.517	12776.08
629.712	13050.51
629.906	12980.88
630.1	12720.79
630.294	12817.04
630.489	12622.48
630.683	12624.53
630.877	12472.98
631.071	12534.42
631.265	12282.52
631.459	12356.25
631.653	12303
631.848	12065.44
632.042	11895.46
632.236	12204.7
632.43	11993.76
632.624	11965.09
632.818	11788.96
633.012	11653.8
633.206	11758.24
633.4	11678.37
633.594	11414.18
633.788	11633.32
633.982	11422.38
634.176	11655.84
634.369	11203.24
634.563	11190.95
634.757	11436.71
634.951	11125.42
635.145	11227.82
635.339	11311.78
635.533	11090.6
635.726	11057.84
635.92	10838.7
636.114	10982.06
636.308	10754.74
636.501	10861.23
636.695	10828.46
636.889	10683.06
637.083	10539.7
637.276	10758.83
637.47	10287.8
637.664	10592.95
637.857	10433.21
638.051	10304.18
638.244	10056.38
638.438	10166.97
638.632	10162.87
638.825	9931.45
639.019	9870.01
639.212	9870.01
639.406	10011.32
639.599	9697.99
639.793	9863.87
639.986	9554.63
640.18	9751.23
640.373	9614.02
640.567	9347.78
640.76	9601.73
640.954	9351.88
641.147	9237.19
641.34	9370.31
641.534	9261.77
641.727	9159.37
641.92	9210.57
642.114	9257.67
642.307	9280.2
642.5	9099.98
642.694	8843.98
642.887	8983.24
643.08	8993.48
643.273	8780.5
643.467	8942.28
643.66	8665.81
643.853	8837.84
644.046	8680.14
644.239	8614.61
644.432	8383.19
644.626	8626.9
644.819	8334.04
645.012	8409.81
645.205	8327.89
645.398	8309.46
645.591	8119
645.784	8082.14
645.977	8241.88
646.17	8123.1
646.363	8149.72
646.556	8106.71
646.749	8053.47
646.942	8196.82
647.135	7793.37
647.328	8022.75
647.521	7891.68
647.714	7609.06
647.907	7791.33
648.099	7776.99
648.292	7768.8
648.485	7731.94
648.678	7514.85
648.871	7529.19
649.064	7557.86
649.256	7635.68
649.449	7451.36
649.642	7480.04
649.835	7246.57
650.027	7371.49
650.22	7365.35
650.413	7330.53
650.605	7271.14
650.798	7156.46
650.991	7047.91
651.183	7131.88
651.376	7084.78
651.568	7082.73
651.761	6933.23
651.954	6888.17
652.146	6771.44
652.339	6916.84
652.531	6935.28
652.724	6791.92
652.916	6689.52
653.109	6888.17
653.301	6675.18
653.494	6646.51
653.686	6542.07
653.879	6611.7
654.071	6564.59
654.263	6464.24
654.456	6402.8
654.648	6626.03
654.84	6443.76
655.033	6466.29
655.225	6386.42
655.417	6230.77
655.61	6492.91
655.802	6353.65
655.994	6316.79
656.186	6284.02
656.379	6130.42
656.571	6011.64
656.763	6134.52
656.955	6062.84
657.148	6159.1
657.34	6152.95
657.532	6052.6
657.724	5995.26
657.916	5956.35
658.108	5991.16
658.3	5925.63
658.492	5985.02
658.684	5856
658.876	5839.61
659.068	5653.25
659.26	5643.01
659.452	5835.52
659.644	5686.01
659.836	5552.9
660.028	5812.99
660.22	5593.86
660.412	5612.29
660.604	5489.41
660.796	5583.62
660.988	5477.12
661.18	5624.58
661.372	5378.82
661.563	5374.72
661.755	5427.97
661.947	5362.44
662.139	5264.13
662.331	5384.96
662.522	5061.38
662.714	5221.13
662.906	5155.59
663.097	5180.17
663.289	5202.69
663.481	5030.66
663.673	5266.18
663.864	5081.86
664.056	5022.47
664.247	5055.24
664.439	5024.52
664.631	5051.14
664.822	5032.71
665.014	5032.71
665.205	4866.83
665.397	4907.79
665.588	5018.38
665.78	4770.57
665.971	4954.89
666.163	4832.01
666.354	4903.69
666.546	4809.48
666.737	4707.09
666.929	4729.61
667.12	4731.66
667.311	4727.57
667.503	4678.41
667.694	4702.99
667.885	4676.37
668.077	4651.79
668.268	4510.48
668.459	4629.26
668.651	4598.54
668.842	4490
669.033	4416.27
669.224	4576.02
669.416	4625.17
669.607	4498.19
669.798	4332.31
669.989	4516.62
670.18	4348.69
670.371	4403.99
670.563	4391.7
670.754	4557.58
670.945	4420.37
671.136	4422.42
671.327	4467.47
671.518	4332.31
671.709	4428.56
671.9	4432.66
672.091	4338.45
672.282	4313.88
672.473	4268.82
672.664	4332.31
672.855	4311.83
673.046	4375.31
673.237	4457.23
673.428	4354.83
673.619	4281.11
673.809	4344.6
674	4365.07
674.191	4336.4
674.382	4184.85
674.573	4076.31
674.764	4231.96
674.954	4285.2
675.145	4055.83
675.336	4238.1
675.527	4090.65
675.717	4287.25
675.908	4168.47
676.099	4156.18
676.289	4014.87
676.48	4082.46
676.671	4096.79
676.861	4117.27
677.052	4107.03
677.243	4121.37
677.433	4113.17
677.624	4166.42
677.814	4133.65
678.005	4047.64
678.195	4119.32
678.386	4066.07
678.576	4055.83
678.767	4092.69
678.957	4096.79
679.148	4066.07
679.338	4072.22
679.529	3953.43
679.719	3953.43
679.909	4023.06
680.1	4184.85
680.29	4023.06
680.481	4027.16
680.671	4172.57
680.861	4186.9
681.052	4268.82
681.242	4000.54
681.432	4102.93
681.622	4135.7
681.813	4168.47
682.003	4199.19
682.193	4043.54
682.383	4021.02
682.573	4115.22
682.764	4018.97
682.954	4205.33
683.144	4086.55
683.334	4012.82
683.524	4092.69
683.714	4064.02
683.904	3928.86
684.094	3939.1
684.284	4004.63
684.474	4109.08
684.664	3971.86
684.854	4016.92
685.044	4100.89
685.234	3894.04
685.424	3963.67
685.614	3932.95
685.804	3818.27
685.994	3877.66
686.184	3869.47
686.374	3967.77
686.564	3771.16
686.753	3941.15
686.943	3707.68
687.133	3980.06
687.323	3762.97
687.513	3873.56
687.702	3765.02
687.892	3828.51
688.082	3814.17
688.272	3851.03
688.461	3808.03
688.651	3580.7
688.841	3810.08
689.03	3584.8
689.22	3631.9
689.41	3713.82
689.599	3601.18
689.789	3472.16
689.979	3662.62
690.168	3687.2
690.358	3609.37
690.547	3617.57
690.737	3562.27
690.926	3588.89
691.116	3535.65
691.305	3552.03
691.495	3535.65
691.684	3437.34
691.874	3476.26
692.063	3398.43
692.252	3283.75
692.442	3461.92
692.631	3515.17
692.82	3525.41
693.01	3322.66
693.199	3293.99
693.388	3281.7
693.578	3207.97
693.767	3369.76
693.956	3285.8
694.146	3336.99
694.335	3308.32
694.524	3330.85
694.713	3283.75
694.902	3169.06
695.092	3361.57
695.281	3300.13
695.47	3326.75
695.659	3246.88
695.848	3158.82
696.037	3158.82
696.226	3175.2
696.415	3154.73
696.604	3164.97
696.793	3199.78
696.982	3363.62
697.171	3242.79
697.36	3420.96
697.549	3072.81
697.738	3091.24
697.927	3267.36
698.116	3119.91
698.305	3175.2
698.494	3244.84
698.683	3078.95
698.872	3169.06
699.061	3230.5
699.25	3132.2
699.438	3236.64
699.627	3105.57
699.816	3310.37
700.005	3105.57
700.193	3156.77
700.382	3175.2
700.571	3218.21
700.76	3287.84
700.948	3167.01
701.137	3224.36
701.326	3109.67
701.514	2999.08
701.703	3189.54
701.892	3142.44
702.08	3160.87
702.269	3197.73
702.457	3124.01
702.646	3167.01
702.834	3152.68
703.023	3177.25
703.212	3148.58
703.4	3173.16
703.589	3013.42
703.777	3064.61
703.965	3005.22
704.154	3142.44
704.342	3158.82
704.531	3162.92
704.719	2972.46
704.907	3158.82
705.096	3033.9
705.284	3042.09
705.472	3173.16
705.661	3060.52
705.849	3044.13
706.037	3185.44
706.226	3117.86
706.414	3068.71
706.602	3091.24
706.79	3191.59
706.979	3117.86
707.167	3124.01
707.355	3130.15
707.543	3066.66
707.731	3183.4
707.919	3015.46
708.107	3023.66
708.296	3029.8
708.484	3064.61
708.672	3015.46
708.86	3169.06
709.048	3044.13
709.236	3044.13
709.424	3058.47
709.612	3099.43
709.8	3035.94
709.988	3240.74
710.176	3095.33
710.364	3175.2
710.551	3089.19
710.739	3074.85
710.927	3277.6
711.115	3113.77
711.303	3146.53
711.491	3037.99
711.679	3093.29
711.866	3173.16
712.054	3117.86
712.242	3134.25
712.43	3126.05
712.617	3099.43
712.805	3111.72
712.993	3212.07
713.181	3181.35
713.368	3187.49
713.556	3279.65
713.744	3093.29
713.931	3216.16
714.119	3285.8
714.306	3081
714.494	3283.75
714.682	3093.29
714.869	3025.7
715.057	3234.6
715.244	3138.34
715.432	3085.09
715.619	3121.96
715.807	3197.73
715.994	3207.97
716.182	3326.75
716.369	3310.37
716.556	3179.3
716.744	3205.92
716.931	3046.18
717.119	3134.25
717.306	3111.72
717.493	3154.73
717.681	3220.26
717.868	3162.92
718.055	3220.26
718.242	3289.89
718.43	3136.29
718.617	3210.02
718.804	3150.63
718.991	3267.36
719.179	3255.08
719.366	3130.15
719.553	3148.58
719.74	3187.49
719.927	3222.31
720.114	3173.16
720.301	3253.03
720.488	3134.25
720.676	3164.97
720.863	3167.01
721.05	3019.56
721.237	3113.77
721.424	3164.97
721.611	3248.93
721.798	3189.54
721.985	2960.17
722.172	3179.3
722.358	3119.91
722.545	3259.17
722.732	3119.91
722.919	3218.21
723.106	3265.32
723.293	3107.62
723.48	3136.29
723.667	3152.68
723.853	3105.57
724.04	3195.68
724.227	3173.16
724.414	3160.87
724.6	3029.8
724.787	3134.25
724.974	3189.54
725.161	3169.06
725.347	3027.75
725.534	3117.86
725.72	3085.09
725.907	3085.09
726.094	3167.01
726.28	3181.35
726.467	3115.81
726.653	3085.09
726.84	3146.53
727.027	3130.15
727.213	3076.9
727.4	3121.96
727.586	3081
727.773	3138.34
727.959	3156.77
728.145	3101.48
728.332	3271.46
728.518	2945.83
728.705	3246.88
728.891	3160.87
729.077	3152.68
729.264	3068.71
729.45	2994.98
729.636	3216.16
729.823	3056.42
730.009	3187.49
730.195	3115.81
730.382	3056.42
730.568	3066.66
730.754	3128.1
730.94	3062.57
731.126	3160.87
731.313	3128.1
731.499	3105.57
731.685	3136.29
731.871	3083.05
732.057	3119.91
732.243	3167.01
732.429	3158.82
732.615	3103.53
732.801	3091.24
732.987	2931.5
733.173	3117.86
733.359	2968.36
733.545	3060.52
733.731	3058.47
733.917	2900.78
734.103	3089.19
734.289	2992.94
734.475	3093.29
734.661	3134.25
734.847	3001.13
735.033	3066.66
735.219	3113.77
735.404	3117.86
735.59	3027.75
735.776	3033.9
735.962	3029.8
736.148	3083.05
736.333	3009.32
736.519	2915.11
736.705	3138.34
736.89	3060.52
737.076	3050.28
737.262	2964.26
737.447	2837.29
737.633	2933.54
737.819	2933.54
738.004	2919.21
738.19	2812.71
738.375	2855.72
738.561	2949.93
738.747	2962.22
738.932	2812.71
739.118	2933.54
739.303	2800.43
739.489	2810.67
739.674	2913.06
739.859	2724.65
740.045	2855.72
740.23	2865.96
740.416	2863.91
740.601	2745.13
740.786	2726.7
740.972	2751.28
741.157	2800.43
741.342	2755.37
741.528	2755.37
741.713	2730.8
741.898	2765.61
742.084	2749.23
742.269	2704.17
742.454	2788.14
742.639	2749.23
742.824	2628.4
743.01	2741.04
743.195	2650.92
743.38	2700.08
743.565	2650.92
743.75	2593.58
743.935	2702.12
744.12	2663.21
744.305	2683.69
744.49	2566.96
744.675	2571.05
744.86	2462.51
745.045	2583.34
745.23	2583.34
745.415	2550.57
745.6	2616.11
745.785	2581.29
745.97	2405.17
746.155	2552.62
746.34	2485.04
746.525	2341.68
746.71	2413.36
746.895	2407.22
747.079	2360.11
747.264	2470.7
747.449	2368.31
747.634	2274.1
747.819	2417.46
748.003	2292.53
748.188	2296.63
748.373	2386.74
748.557	2325.3
748.742	2233.14
748.927	2286.39
749.111	2222.9
749.296	2167.6
749.481	2247.48
749.665	2245.43
749.85	2237.24
750.034	2206.52
750.219	2128.69
750.404	2081.59
750.588	2095.93
750.773	2081.59
750.957	2200.37
751.141	2024.25
751.326	2102.07
751.51	2048.82
751.695	2059.06
751.879	1938.23
752.064	2048.82
752.248	1995.57
752.432	1944.38
752.617	1995.57
752.801	1997.62
752.985	1919.8
753.17	1919.8
753.354	1874.74
753.538	1950.52
753.722	1923.9
753.907	1825.59
754.091	1835.83
754.275	1919.8
754.459	1798.97
754.643	1872.7
754.828	1858.36
755.012	1811.26
755.196	1821.5
755.38	1715
755.564	1749.82
755.748	1665.85
755.932	1690.43
756.116	1663.8
756.3	1661.76
756.484	1729.34
756.668	1590.08
756.852	1557.31
757.036	1594.17
757.22	1651.52
757.404	1643.32
757.588	1592.13
757.772	1614.65
757.956	1553.21
758.14	1618.75
758.323	1520.45
758.507	1608.51
758.691	1497.92
758.875	1528.64
759.059	1631.04
759.242	1395.52
759.426	1622.84
759.61	1518.4
759.794	1461.06
759.977	1475.39
760.161	1567.55
760.345	1461.06
760.528	1452.86
760.712	1438.53
760.895	1522.49
761.079	1565.5
761.263	1436.48
761.446	1413.95
761.63	1332.03
761.813	1448.77
761.997	1385.28
762.18	1329.99
762.364	1323.84
762.547	1295.17
762.731	1303.36
762.914	1340.22
763.098	1282.88
763.281	1370.94
763.464	1389.38
763.648	1383.23
763.831	1317.7
764.015	1225.54
764.198	1299.27
764.381	1276.74
764.564	1325.89
764.748	1217.35
764.931	1282.88
765.114	1207.11
765.297	1323.84
765.481	1209.15
765.664	1248.07
765.847	1246.02
766.03	1227.59
766.213	1280.83
766.397	1200.96
766.58	1131.33
766.763	1143.62
766.946	1198.92
767.129	1207.11
767.312	1235.78
767.495	1168.2
767.678	1184.58
767.861	1125.19
768.044	1119.04
768.227	1123.14
768.41	1209.15
768.593	1209.15
768.776	1180.48
768.959	1092.42
769.142	1137.48
769.324	1112.9
769.507	1076.04
769.69	1069.89
769.873	1110.85
770.056	1207.11
770.239	1067.85
770.421	1076.04
770.604	1094.47
770.787	1106.76
770.97	1108.8
771.152	930.63
771.335	1069.89
771.518	1045.32
771.7	1043.27
771.883	1051.46
772.066	1012.55
772.248	1006.41
772.431	981.83
772.613	1065.8
772.796	942.92
772.978	967.49
773.161	1008.45
773.343	928.58
773.526	871.24
773.708	955.21
773.891	895.82
774.073	971.59
774.256	871.24
774.438	877.38
774.621	963.4
774.803	1012.55
774.985	848.71
775.168	904.01
775.35	930.63
775.532	901.96
775.715	904.01
775.897	1006.41
776.079	996.17
776.261	756.55
776.444	865.1
776.626	889.67
776.808	820.04
776.99	799.56
777.173	848.71
777.355	824.14
777.537	754.51
777.719	856.9
777.901	824.14
778.083	748.36
778.265	684.87
778.447	758.6
778.629	688.97
778.811	789.32
778.993	801.61
779.175	711.5
779.357	781.13
779.539	654.16
779.721	734.03
779.903	643.92
780.085	725.83
780.267	668.49
780.449	668.49
780.631	707.4
780.812	672.59
780.994	740.17
781.176	721.74
781.358	703.31
781.54	705.35
781.721	664.4
781.903	654.16
782.085	676.68
782.267	619.34
782.448	639.82
782.63	697.16
782.812	658.25
782.993	627.53
783.175	588.62
783.357	695.11
783.538	643.92
783.72	502.61
783.901	596.81
784.083	533.33
784.264	588.62
784.446	531.28
784.627	602.96
784.809	562
784.99	516.94
785.172	594.76
785.353	506.7
785.535	521.04
785.716	533.33
785.897	484.17
786.079	525.13
786.26	562
786.441	568.14
786.623	471.89
786.804	523.09
786.985	490.32
787.167	596.81
787.348	514.89
787.529	486.22
787.71	461.65
787.891	490.32
788.073	516.94
788.254	461.65
788.435	504.65
788.616	443.21
788.797	424.78
788.978	453.45
789.159	379.73
789.34	459.6
789.522	402.26
789.703	471.89
789.884	533.33
790.065	375.63
790.246	510.8
790.427	469.84
790.607	494.41
790.788	482.13
790.969	361.3
791.15	389.97
791.331	430.93
791.512	275.28
791.693	455.5
791.874	308.05
792.054	398.16
792.235	412.5
792.416	287.57
792.597	340.82
792.778	340.82
792.958	414.54
793.139	365.39
793.32	389.97
793.5	406.35
793.681	344.91
793.862	379.73
794.042	303.95
794.223	385.87
794.404	267.09
794.584	260.95
794.765	371.54
794.945	283.47
795.126	367.44
795.306	365.39
795.487	252.75
795.667	316.24
795.848	379.73
796.028	277.33
796.209	306
796.389	355.15
796.57	334.67
796.75	338.77
796.93	355.15
797.111	279.38
797.291	349.01
797.471	320.34
797.652	256.85
797.832	439.12
798.012	377.68
798.192	250.71
798.373	248.66
798.553	303.95
798.733	293.71
798.913	275.28
799.093	295.76
799.274	279.38
799.454	332.62
799.634	332.62
799.814	396.11
799.994	262.99
800.174	273.23
800.354	314.19
800.534	273.23
800.714	293.71
800.894	252.75
801.074	246.61
801.254	340.82
801.434	320.34
801.614	320.34
801.794	265.04
801.974	799.56
802.154	318.29
802.334	273.23
802.514	254.8
802.693	234.32
802.873	267.09
803.053	314.19
803.233	265.04
803.413	246.61
803.592	197.46
803.772	232.27
803.952	248.66
804.131	256.85
804.311	260.95
804.491	303.95
804.67	279.38
804.85	238.42
805.03	254.8
805.209	295.76
805.389	303.95
805.568	318.29
805.748	254.8
805.928	271.19
806.107	262.99
806.287	262.99
806.466	250.71
806.646	209.75
806.825	201.55
807.004	191.31
807.184	207.7
807.363	219.99
807.543	215.89
807.722	248.66
807.901	224.08
808.081	248.66
808.26	193.36
808.439	234.32
808.619	211.79
808.798	232.27
808.977	201.55
809.156	248.66
809.336	197.46
809.515	271.19
809.694	162.64
809.873	207.7
810.052	193.36
810.231	291.66
810.411	219.99
810.59	228.18
810.769	164.69
810.948	201.55
811.127	172.88
811.306	170.83
811.485	176.98
811.664	244.56
811.843	215.89
812.022	121.68
812.201	222.03
812.38	179.03
812.559	185.17
812.737	185.17
812.916	189.27
813.095	150.36
813.274	226.13
813.453	103.25
813.632	158.55
813.811	140.12
813.989	123.73
814.168	152.4
814.347	189.27
814.526	148.31
814.704	168.79
814.883	224.08
815.062	74.58
815.24	242.51
815.419	176.98
815.598	166.74
815.776	82.77
815.955	240.47
816.133	176.98
816.312	205.65
816.49	131.92
816.669	119.64
816.847	203.6
817.026	201.55
817.204	142.16
817.383	111.44
817.561	185.17
817.74	187.22
817.918	205.65
818.097	103.25
818.275	82.77
818.453	183.12
818.632	90.96
818.81	136.02
818.988	97.11
819.167	162.64
819.345	191.31
819.523	123.73
819.701	119.64
819.879	191.31
820.058	74.58
820.236	185.17
820.414	150.36
820.592	117.59
820.77	93.01
820.948	142.16
821.127	224.08
821.305	105.3
821.483	66.39
821.661	144.21
821.839	148.31
822.017	142.16
822.195	156.5
822.373	195.41
822.551	82.77
822.729	131.92
822.907	133.97
823.085	187.22
823.262	33.62
823.44	109.4
823.618	138.07
823.796	76.63
823.974	101.2
824.152	58.2
824.329	93.01
824.507	156.5
824.685	156.5
824.863	191.31
825.04	109.4
825.218	166.74
825.396	119.64
825.574	172.88
825.751	70.48
825.929	43.86
826.107	103.25
826.284	90.96
826.462	109.4
826.639	113.49
826.817	70.48
826.994	140.12
827.172	109.4
827.349	125.78
827.527	86.87
827.704	140.12
827.882	156.5
828.059	82.77
828.237	129.88
828.414	125.78
828.591	99.16
828.769	84.82
828.946	93.01
829.124	76.63
829.301	113.49
829.478	101.2
829.655	119.64
829.833	144.21
830.01	29.52
830.187	150.36
830.364	95.06
830.542	54.1
830.719	103.25
830.896	156.5
831.073	58.2
831.25	103.25
831.427	82.77
831.604	84.82
831.782	111.44
831.959	64.34
832.136	103.25
832.313	148.31
832.49	90.96
832.667	144.21
832.844	68.44
833.021	123.73
833.198	95.06
833.374	144.21
833.551	60.24
833.728	27.48
833.905	45.91
834.082	9.05
834.259	78.68
834.436	97.11
834.612	-11.43
834.789	125.78
834.966	66.39
835.143	82.77
835.319	68.44
835.496	125.78
835.673	117.59
835.85	129.88
836.026	47.96
836.203	95.06
836.38	111.44
836.556	88.92
836.733	9.05
836.909	109.4
837.086	84.82
837.262	13.14
837.439	97.11
837.616	58.2
837.792	-7.34
837.968	64.34
838.145	-36.01
838.321	70.48
838.498	107.35
838.674	82.77
838.851	64.34
839.027	66.39
839.203	54.1
839.38	0.85
839.556	78.68
839.732	144.21
839.909	50
840.085	70.48
840.261	76.63
840.437	62.29
840.614	70.48
840.79	64.34
840.966	43.86
841.142	76.63
841.318	103.25
841.494	111.44
841.671	50
841.847	64.34
842.023	74.58
842.199	60.24
842.375	136.02
842.551	19.29
842.727	-17.58
842.903	88.92
843.079	45.91
843.255	117.59
843.431	35.67
843.607	99.16
843.783	-19.63
843.959	35.67
844.134	78.68
844.31	90.96
844.486	-23.72
844.662	13.14
844.838	103.25
845.013	35.67
845.189	27.48
845.365	131.92
845.541	-42.15
845.716	68.44
845.892	50
846.068	115.54
846.244	121.68
846.419	17.24
846.595	103.25
846.77	-23.72
846.946	95.06
847.122	-17.58
847.297	21.33
847.473	50
847.648	-29.87
847.824	-5.29
847.999	31.57
848.175	27.48
848.35	52.05
848.526	93.01
848.701	60.24
848.876	90.96
849.052	43.86
849.227	45.91
849.403	31.57
849.578	0.85
849.753	-9.39
849.929	90.96
850.104	-50.35
850.279	74.58
850.454	45.91
850.63	45.91
850.805	58.2
850.98	-72.87
851.155	60.24
851.33	52.05
851.505	125.78
851.681	52.05
851.856	-15.53
852.031	9.05
852.206	64.34
852.381	-31.91
852.556	43.86
852.731	-52.39
852.906	88.92
853.081	58.2
853.256	66.39
853.431	21.33
853.606	4.95
853.781	33.62
853.956	23.38
854.131	13.14
854.305	25.43
854.48	62.29
854.655	64.34
854.83	70.48
855.005	62.29
855.18	62.29
855.354	97.11
855.529	62.29
855.704	9.05
855.879	62.29
856.053	45.91
856.228	113.49
856.403	60.24
856.577	66.39
856.752	-60.59
856.926	11.09
857.101	72.53
857.276	-7.34
857.45	43.86
857.625	-11.43
857.799	78.68
857.974	-3.24
858.148	-15.53
858.323	27.48
858.497	19.29
858.672	86.87
858.846	-40.11
859.02	35.67
859.195	27.48
859.369	72.53
859.543	17.24
859.718	58.2
859.892	13.14
860.066	21.33
860.241	-38.06
860.415	-33.96
860.589	-19.63
860.763	37.72
860.938	33.62
861.112	111.44
861.286	13.14
861.46	21.33
861.634	54.1
861.808	56.15
861.982	-44.2
862.157	4.95
862.331	29.52
862.505	29.52
862.679	15.19
862.853	-36.01
863.027	-9.39
863.201	54.1
863.375	-7.34
863.549	78.68
863.722	33.62
863.896	90.96
864.07	-33.96
864.244	86.87
864.418	-31.91
864.592	64.34
864.766	-81.07
864.939	60.24
865.113	43.86
865.287	17.24
865.461	47.96
865.634	39.76
865.808	72.53
865.982	-13.48
866.156	-17.58
866.329	4.95
866.503	-40.11
866.676	86.87
866.85	17.24
867.024	-19.63
867.197	13.14
867.371	66.39
867.544	-27.82
867.718	-52.39
867.891	17.24
868.065	-29.87
868.238	60.24
868.412	97.11
868.585	39.76
868.759	-48.3
868.932	29.52
869.105	11.09
869.279	45.91
869.452	-11.43
869.625	-31.91
869.799	-11.43
869.972	0.85
870.145	4.95
870.319	-31.91
870.492	27.48
870.665	-27.82
870.838	-62.63
871.011	68.44
871.185	-42.15
871.358	37.72
871.531	35.67
871.704	-19.63
871.877	-1.19
872.05	17.24
872.223	-50.35
872.396	21.33
872.569	60.24
872.742	-40.11
872.915	13.14
873.088	70.48
873.261	29.52
873.434	88.92
873.607	-40.11
873.78	-21.67
873.953	25.43
874.126	-33.96
874.299	-31.91
874.471	-15.53
874.644	-31.91
874.817	21.33
874.99	-11.43
875.163	90.96
875.335	-19.63
875.508	62.29
875.681	76.63
875.853	-42.15
876.026	4.95
876.199	29.52
876.371	-64.68
876.544	-15.53
876.717	-7.34
876.889	19.29
877.062	13.14
877.234	29.52
877.407	31.57
877.579	-29.87
877.752	-3.24
877.924	-3.24
878.097	119.64
878.269	-25.77
878.442	-5.29
878.614	17.24
878.786	9.05
878.959	-25.77
879.131	-44.2
879.303	2.9
879.476	58.2
879.648	-5.29
879.82	-58.54
879.993	64.34
880.165	21.33
880.337	-11.43
880.509	-23.72
880.681	-48.3
880.854	27.48
881.026	-44.2
881.198	41.81
881.37	-17.58
881.542	21.33
881.714	13.14
881.886	19.29
882.058	-1.19
882.23	25.43
882.402	4.95
882.574	43.86
882.746	52.05
882.918	13.14
883.09	58.2
883.262	-5.29
883.434	17.24
883.606	-7.34
883.778	-42.15
883.95	29.52
884.122	11.09
884.293	-42.15
884.465	66.39
884.637	88.92
884.809	-70.83
884.98	9.05
885.152	33.62
885.324	0.85
885.496	-46.25
885.667	-5.29
885.839	-31.91
886.011	72.53
886.182	-7.34
886.354	-31.91
886.525	-15.53
886.697	17.24
886.869	2.9
887.04	47.96
887.212	37.72
887.383	35.67
887.555	-19.63
887.726	45.91
887.897	25.43
888.069	-23.72
888.24	19.29
888.412	56.15
888.583	11.09
888.754	-3.24
888.926	-19.63
889.097	66.39
889.268	21.33
889.44	-58.54
889.611	-21.67
889.782	-7.34
889.953	-23.72
890.125	15.19
890.296	-21.67
890.467	21.33
890.638	-44.2
890.809	23.38
890.98	-23.72
891.151	4.95
891.323	47.96
891.494	-3.24
891.665	4.95
891.836	-36.01
892.007	-38.06
892.178	70.48
892.349	45.91
892.52	-68.78
892.691	-76.97
892.862	-54.44
893.032	-44.2
893.203	-9.39
893.374	50
893.545	31.57
893.716	-19.63
893.887	29.52
894.057	-46.25
894.228	15.19
894.399	0.85
894.57	21.33
894.74	-60.59
894.911	17.24
895.082	29.52
895.253	-21.67
895.423	-21.67
895.594	66.39
895.764	-23.72
895.935	-21.67
896.106	29.52
896.276	-7.34
896.447	-36.01
896.617	4.95
896.788	-15.53
896.958	-13.48
897.129	-36.01
897.299	41.81
897.47	84.82
897.64	33.62
897.81	9.05
897.981	-36.01
898.151	13.14
898.322	62.29
898.492	58.2
898.662	-25.77
898.832	21.33
899.003	7
899.173	-25.77
899.343	27.48
899.513	21.33
