Data from USB4F104151__10__10-20-37-595.txt Node

Date: Wed Mar 12 10:20:37 EDT 2025
User: louis
Spectrometer: USB4F10415
Trigger mode: 4
Integration Time (sec): 3.000000E-2
Scans to average: 1
Electric dark correction enabled: true
Nonlinearity correction enabled: false
Boxcar width: 0
XAxis mode: Wavelengths
Number of Pixels in Spectrum: 3648
>>>>>Begin Spectral Data<<<<<
178.204	-145.75
178.424	-145.75
178.644	-145.75
178.864	-133.46
179.084	-59.73
179.304	24.23
179.524	3.75
179.744	-74.07
179.964	79.53
180.184	9.9
180.404	16.04
180.624	46.76
180.844	36.52
181.064	-92.5
181.283	-41.3
181.503	1.71
181.723	-10.58
181.943	-29.01
182.163	20.14
182.383	-18.77
182.602	95.91
182.822	38.57
183.042	46.76
183.262	-45.4
183.482	28.33
183.701	71.34
183.921	16.04
184.141	36.52
184.361	5.8
184.58	7.85
184.8	46.76
185.02	63.15
185.239	34.47
185.459	77.48
185.679	30.38
185.898	-14.68
186.118	67.24
186.338	20.14
186.557	32.43
186.777	44.71
186.997	-22.87
187.216	-4.44
187.436	40.62
187.655	13.99
187.875	40.62
188.095	22.19
188.314	93.87
188.534	83.63
188.753	-78.16
188.973	-20.82
189.192	46.76
189.412	3.75
189.631	11.95
189.851	3.75
190.07	9.9
190.29	-43.35
190.509	67.24
190.729	26.28
190.948	65.19
191.168	69.29
191.387	75.43
191.607	-12.63
191.826	-0.34
192.045	81.58
192.265	73.39
192.484	77.48
192.704	-35.16
192.923	-16.73
193.142	44.71
193.362	61.1
193.581	61.1
193.8	-18.77
194.02	42.67
194.239	18.09
194.458	85.67
194.678	28.33
194.897	11.95
195.116	5.8
195.335	-35.16
195.555	95.91
195.774	42.67
195.993	-14.68
196.212	16.04
196.432	52.91
196.651	77.48
196.87	9.9
197.089	104.11
197.308	-35.16
197.528	104.11
197.747	-31.06
197.966	3.75
198.185	73.39
198.404	-26.96
198.623	30.38
198.842	26.28
199.062	79.53
199.281	32.43
199.5	-2.39
199.719	52.91
199.938	59.05
200.157	93.87
200.376	-6.49
200.595	54.95
200.814	32.43
201.033	-4.44
201.252	22.19
201.471	-31.06
201.69	28.33
201.909	63.15
202.128	46.76
202.347	42.67
202.566	5.8
202.785	-4.44
203.004	79.53
203.223	22.19
203.442	16.04
203.661	-51.54
203.879	-6.49
204.098	46.76
204.317	-2.39
204.536	73.39
204.755	3.75
204.974	20.14
205.193	57
205.411	104.11
205.63	79.53
205.849	9.9
206.068	38.57
206.287	36.52
206.505	50.86
206.724	3.75
206.943	-8.53
207.162	-6.49
207.381	85.67
207.599	40.62
207.818	71.34
208.037	59.05
208.255	54.95
208.474	32.43
208.693	-6.49
208.911	93.87
209.13	89.77
209.349	77.48
209.567	-18.77
209.786	-8.53
210.005	46.76
210.223	54.95
210.442	26.28
210.661	36.52
210.879	61.1
211.098	54.95
211.316	-4.44
211.535	63.15
211.753	52.91
211.972	11.95
212.191	24.23
212.409	-6.49
212.628	36.52
212.846	30.38
213.065	13.99
213.283	30.38
213.502	-22.87
213.72	16.04
213.938	38.57
214.157	40.62
214.375	46.76
214.594	52.91
214.812	44.71
215.031	46.76
215.249	30.38
215.467	97.96
215.686	5.8
215.904	44.71
216.122	-14.68
216.341	104.11
216.559	5.8
216.778	42.67
216.996	22.19
217.214	-12.63
217.432	-41.3
217.651	-67.92
217.869	54.95
218.087	9.9
218.306	-4.44
218.524	69.29
218.742	73.39
218.96	5.8
219.179	52.91
219.397	5.8
219.615	130.73
219.833	77.48
220.051	38.57
220.27	71.34
220.488	-16.73
220.706	24.23
220.924	18.09
221.142	28.33
221.36	16.04
221.578	22.19
221.796	-14.68
222.015	3.75
222.233	13.99
222.451	89.77
222.669	-8.53
222.887	85.67
223.105	20.14
223.323	-10.58
223.541	-10.58
223.759	93.87
223.977	-0.34
224.195	5.8
224.413	-35.16
224.631	87.72
224.849	13.99
225.067	38.57
225.285	9.9
225.503	-14.68
225.721	13.99
225.939	-2.39
226.157	134.82
226.375	136.87
226.592	13.99
226.81	42.67
227.028	54.95
227.246	81.58
227.464	24.23
227.682	118.44
227.9	75.43
228.117	-6.49
228.335	61.1
228.553	22.19
228.771	18.09
228.989	71.34
229.206	61.1
229.424	-33.11
229.642	-22.87
229.86	9.9
230.077	13.99
230.295	3.75
230.513	67.24
230.731	50.86
230.948	30.38
231.166	-4.44
231.384	20.14
231.601	28.33
231.819	42.67
232.037	-12.63
232.254	63.15
232.472	-43.35
232.689	-55.64
232.907	48.81
233.125	52.91
233.342	5.8
233.56	20.14
233.777	1.71
233.995	36.52
234.213	75.43
234.43	40.62
234.648	30.38
234.865	61.1
235.083	54.95
235.3	28.33
235.518	147.11
235.735	46.76
235.953	52.91
236.17	79.53
236.388	36.52
236.605	38.57
236.822	44.71
237.04	91.82
237.257	11.95
237.475	9.9
237.692	102.06
237.909	57
238.127	18.09
238.344	89.77
238.562	-31.06
238.779	30.38
238.996	-18.77
239.214	-57.68
239.431	87.72
239.648	-10.58
239.865	5.8
240.083	40.62
240.3	67.24
240.517	44.71
240.735	-14.68
240.952	38.57
241.169	30.38
241.386	63.15
241.603	1.71
241.821	1.71
242.038	42.67
242.255	83.63
242.472	1.71
242.689	73.39
242.907	7.85
243.124	9.9
243.341	79.53
243.558	-22.87
243.775	22.19
243.992	5.8
244.209	122.54
244.426	91.82
244.643	75.43
244.86	-10.58
245.078	85.67
245.295	40.62
245.512	-47.44
245.729	44.71
245.946	61.1
246.163	-4.44
246.38	67.24
246.597	-4.44
246.814	48.81
247.031	36.52
247.248	73.39
247.464	-2.39
247.681	24.23
247.898	75.43
248.115	36.52
248.332	-18.77
248.549	69.29
248.766	83.63
248.983	59.05
249.2	26.28
249.417	77.48
249.633	26.28
249.85	-18.77
250.067	3.75
250.284	40.62
250.501	20.14
250.717	28.33
250.934	-39.25
251.151	22.19
251.368	-39.25
251.585	13.99
251.801	38.57
252.018	-4.44
252.235	32.43
252.451	-12.63
252.668	-2.39
252.885	-10.58
253.102	34.47
253.318	46.76
253.535	13.99
253.752	-4.44
253.968	36.52
254.185	-12.63
254.401	26.28
254.618	38.57
254.835	1.71
255.051	32.43
255.268	132.78
255.484	1.71
255.701	18.09
255.917	50.86
256.134	-16.73
256.351	30.38
256.567	38.57
256.784	38.57
257	-41.3
257.217	120.49
257.433	1.71
257.65	126.63
257.866	28.33
258.082	20.14
258.299	52.91
258.515	63.15
258.732	28.33
258.948	79.53
259.165	24.23
259.381	20.14
259.597	-18.77
259.814	83.63
260.03	24.23
260.246	30.38
260.463	63.15
260.679	65.19
260.895	28.33
261.112	22.19
261.328	-33.11
261.544	16.04
261.761	16.04
261.977	-10.58
262.193	22.19
262.409	54.95
262.626	93.87
262.842	44.71
263.058	1.71
263.274	9.9
263.49	13.99
263.707	20.14
263.923	38.57
264.139	-35.16
264.355	13.99
264.571	73.39
264.787	-43.35
265.004	38.57
265.22	-4.44
265.436	-29.01
265.652	3.75
265.868	11.95
266.084	57
266.3	20.14
266.516	24.23
266.732	-8.53
266.948	18.09
267.164	-35.16
267.38	59.05
267.596	42.67
267.812	87.72
268.028	40.62
268.244	24.23
268.46	50.86
268.676	28.33
268.892	48.81
269.108	11.95
269.324	-14.68
269.54	7.85
269.756	91.82
269.972	32.43
270.188	9.9
270.403	-43.35
270.619	38.57
270.835	22.19
271.051	1.71
271.267	13.99
271.483	-12.63
271.698	54.95
271.914	26.28
272.13	9.9
272.346	-35.16
272.562	52.91
272.777	-2.39
272.993	20.14
273.209	11.95
273.425	63.15
273.64	-72.02
273.856	40.62
274.072	9.9
274.287	-22.87
274.503	1.71
274.719	110.25
274.934	95.91
275.15	20.14
275.366	5.8
275.581	-24.92
275.797	7.85
276.012	3.75
276.228	81.58
276.444	46.76
276.659	95.91
276.875	-63.83
277.09	44.71
277.306	-4.44
277.521	42.67
277.737	34.47
277.952	11.95
278.168	100.01
278.383	32.43
278.599	48.81
278.814	24.23
279.03	52.91
279.245	52.91
279.461	-67.92
279.676	-18.77
279.892	9.9
280.107	-10.58
280.322	54.95
280.538	3.75
280.753	44.71
280.969	50.86
281.184	32.43
281.399	54.95
281.615	20.14
281.83	67.24
282.045	-41.3
282.26	-4.44
282.476	114.34
282.691	71.34
282.906	-26.96
283.122	28.33
283.337	87.72
283.552	104.11
283.767	-16.73
283.983	1.71
284.198	38.57
284.413	73.39
284.628	1.71
284.843	52.91
285.058	95.91
285.274	-2.39
285.489	65.19
285.704	57
285.919	71.34
286.134	38.57
286.349	-6.49
286.564	-18.77
286.779	128.68
286.995	-41.3
287.21	93.87
287.425	63.15
287.64	38.57
287.855	54.95
288.07	22.19
288.285	-24.92
288.5	30.38
288.715	3.75
288.93	-4.44
289.145	11.95
289.36	95.91
289.575	-4.44
289.79	32.43
290.004	32.43
290.219	77.48
290.434	-10.58
290.649	-12.63
290.864	57
291.079	20.14
291.294	26.28
291.509	69.29
291.724	28.33
291.938	73.39
292.153	44.71
292.368	54.95
292.583	22.19
292.798	63.15
293.012	153.26
293.227	-26.96
293.442	54.95
293.657	30.38
293.871	108.2
294.086	13.99
294.301	61.1
294.516	30.38
294.73	22.19
294.945	7.85
295.16	50.86
295.374	100.01
295.589	54.95
295.804	-4.44
296.018	36.52
296.233	63.15
296.447	61.1
296.662	20.14
296.877	63.15
297.091	95.91
297.306	9.9
297.52	-2.39
297.735	3.75
297.949	-18.77
298.164	-2.39
298.378	-47.44
298.593	54.95
298.807	-20.82
299.022	57
299.236	59.05
299.451	126.63
299.665	22.19
299.88	28.33
300.094	16.04
300.309	-22.87
300.523	40.62
300.737	-0.34
300.952	-55.64
301.166	73.39
301.381	77.48
301.595	9.9
301.809	24.23
302.024	48.81
302.238	13.99
302.452	81.58
302.667	11.95
302.881	11.95
303.095	-2.39
303.309	85.67
303.524	28.33
303.738	-12.63
303.952	26.28
304.166	57
304.381	42.67
304.595	63.15
304.809	52.91
305.023	79.53
305.237	32.43
305.452	13.99
305.666	87.72
305.88	57
306.094	-6.49
306.308	69.29
306.522	73.39
306.736	34.47
306.95	61.1
307.164	-31.06
307.379	71.34
307.593	91.82
307.807	81.58
308.021	34.47
308.235	75.43
308.449	24.23
308.663	79.53
308.877	132.78
309.091	28.33
309.305	57
309.519	46.76
309.733	-6.49
309.947	-14.68
310.161	7.85
310.374	95.91
310.588	54.95
310.802	5.8
311.016	79.53
311.23	22.19
311.444	42.67
311.658	-2.39
311.872	79.53
312.085	50.86
312.299	57
312.513	11.95
312.727	48.81
312.941	-2.39
313.154	69.29
313.368	9.9
313.582	36.52
313.796	28.33
314.009	69.29
314.223	42.67
314.437	-24.92
314.651	26.28
314.864	-10.58
315.078	22.19
315.292	3.75
315.505	16.04
315.719	11.95
315.933	46.76
316.146	116.39
316.36	38.57
316.573	67.24
316.787	61.1
317.001	71.34
317.214	1.71
317.428	59.05
317.641	24.23
317.855	110.25
318.068	44.71
318.282	54.95
318.495	71.34
318.709	65.19
318.922	-10.58
319.136	48.81
319.349	-22.87
319.563	-2.39
319.776	57
319.99	20.14
320.203	79.53
320.417	134.82
320.63	79.53
320.843	26.28
321.057	79.53
321.27	59.05
321.483	61.1
321.697	126.63
321.91	5.8
322.124	79.53
322.337	97.96
322.55	71.34
322.763	26.28
322.977	116.39
323.19	-26.96
323.403	22.19
323.617	75.43
323.83	40.62
324.043	34.47
324.256	22.19
324.469	30.38
324.683	59.05
324.896	13.99
325.109	65.19
325.322	-10.58
325.535	28.33
325.748	63.15
325.962	54.95
326.175	22.19
326.388	13.99
326.601	75.43
326.814	63.15
327.027	59.05
327.24	97.96
327.453	-12.63
327.666	147.11
327.879	79.53
328.092	54.95
328.305	73.39
328.518	57
328.731	85.67
328.944	26.28
329.157	-20.82
329.37	46.76
329.583	110.25
329.796	-6.49
330.009	34.47
330.222	63.15
330.435	95.91
330.648	95.91
330.861	65.19
331.073	44.71
331.286	100.01
331.499	57
331.712	54.95
331.925	67.24
332.138	52.91
332.35	87.72
332.563	-37.2
332.776	63.15
332.989	52.91
333.202	30.38
333.414	-4.44
333.627	38.57
333.84	77.48
334.053	44.71
334.265	34.47
334.478	52.91
334.691	13.99
334.903	65.19
335.116	11.95
335.329	11.95
335.541	28.33
335.754	71.34
335.966	9.9
336.179	18.09
336.392	-4.44
336.604	-47.44
336.817	22.19
337.029	97.96
337.242	-18.77
337.454	128.68
337.667	65.19
337.88	18.09
338.092	42.67
338.305	30.38
338.517	-16.73
338.729	57
338.942	77.48
339.154	3.75
339.367	1.71
339.579	-33.11
339.792	-39.25
340.004	32.43
340.217	1.71
340.429	-18.77
340.641	95.91
340.854	-14.68
341.066	46.76
341.278	126.63
341.491	87.72
341.703	40.62
341.915	9.9
342.128	59.05
342.34	48.81
342.552	42.67
342.764	110.25
342.977	-10.58
343.189	38.57
343.401	38.57
343.613	52.91
343.826	32.43
344.038	28.33
344.25	30.38
344.462	36.52
344.674	13.99
344.886	34.47
345.099	48.81
345.311	38.57
345.523	161.45
345.735	38.57
345.947	69.29
346.159	93.87
346.371	-26.96
346.583	-47.44
346.795	87.72
347.007	-35.16
347.219	79.53
347.431	95.91
347.643	95.91
347.855	77.48
348.067	13.99
348.279	11.95
348.491	54.95
348.703	38.57
348.915	85.67
349.127	36.52
349.339	16.04
349.551	67.24
349.763	157.35
349.975	26.28
350.187	65.19
350.399	-10.58
350.61	102.06
350.822	91.82
351.034	95.91
351.246	81.58
351.458	-0.34
351.669	91.82
351.881	102.06
352.093	65.19
352.305	71.34
352.517	-12.63
352.728	75.43
352.94	79.53
353.152	16.04
353.363	22.19
353.575	54.95
353.787	28.33
353.999	1.71
354.21	112.3
354.422	38.57
354.633	-4.44
354.845	79.53
355.057	30.38
355.268	46.76
355.48	63.15
355.692	13.99
355.903	32.43
356.115	-2.39
356.326	38.57
356.538	81.58
356.749	28.33
356.961	54.95
357.172	18.09
357.384	54.95
357.595	71.34
357.807	54.95
358.018	59.05
358.23	118.44
358.441	112.3
358.653	52.91
358.864	65.19
359.075	79.53
359.287	54.95
359.498	48.81
359.709	59.05
359.921	97.96
360.132	52.91
360.344	57
360.555	46.76
360.766	67.24
360.977	-26.96
361.189	112.3
361.4	54.95
361.611	106.15
361.823	50.86
362.034	42.67
362.245	-20.82
362.456	112.3
362.667	69.29
362.879	18.09
363.09	46.76
363.301	91.82
363.512	3.75
363.723	-63.83
363.935	38.57
364.146	91.82
364.357	46.76
364.568	-10.58
364.779	46.76
364.99	95.91
365.201	1.71
365.412	22.19
365.623	50.86
365.834	71.34
366.045	48.81
366.256	104.11
366.467	-10.58
366.678	34.47
366.889	67.24
367.1	52.91
367.311	24.23
367.522	-6.49
367.733	69.29
367.944	69.29
368.155	83.63
368.366	67.24
368.577	-4.44
368.788	118.44
368.999	28.33
369.209	85.67
369.42	106.15
369.631	161.45
369.842	5.8
370.053	38.57
370.264	83.63
370.474	100.01
370.685	46.76
370.896	52.91
371.107	22.19
371.317	95.91
371.528	63.15
371.739	93.87
371.95	149.16
372.16	77.48
372.371	-4.44
372.582	95.91
372.792	91.82
373.003	65.19
373.214	71.34
373.424	5.8
373.635	63.15
373.846	108.2
374.056	36.52
374.267	-2.39
374.477	71.34
374.688	5.8
374.898	-22.87
375.109	81.58
375.319	44.71
375.53	61.1
375.74	9.9
375.951	71.34
376.161	30.38
376.372	93.87
376.582	91.82
376.793	32.43
377.003	-45.4
377.214	106.15
377.424	108.2
377.635	18.09
377.845	75.43
378.055	147.11
378.266	1.71
378.476	161.45
378.686	-26.96
378.897	34.47
379.107	-14.68
379.317	24.23
379.528	16.04
379.738	114.34
379.948	83.63
380.158	50.86
380.369	75.43
380.579	89.77
380.789	69.29
380.999	67.24
381.21	77.48
381.42	89.77
381.63	79.53
381.84	77.48
382.05	57
382.261	59.05
382.471	93.87
382.681	52.91
382.891	79.53
383.101	28.33
383.311	50.86
383.521	46.76
383.731	57
383.941	59.05
384.151	77.48
384.361	22.19
384.571	50.86
384.781	112.3
384.991	95.91
385.201	118.44
385.411	54.95
385.621	93.87
385.831	87.72
386.041	63.15
386.251	71.34
386.461	118.44
386.671	-2.39
386.881	67.24
387.091	54.95
387.301	147.11
387.511	120.49
387.72	136.87
387.93	50.86
388.14	130.73
388.35	32.43
388.56	46.76
388.769	81.58
388.979	59.05
389.189	77.48
389.399	132.78
389.609	95.91
389.818	28.33
390.028	13.99
390.238	134.82
390.447	100.01
390.657	67.24
390.867	20.14
391.076	26.28
391.286	122.54
391.496	63.15
391.705	124.58
391.915	89.77
392.125	69.29
392.334	132.78
392.544	89.77
392.753	122.54
392.963	71.34
393.172	143.02
393.382	54.95
393.591	118.44
393.801	87.72
394.01	212.65
394.22	75.43
394.429	134.82
394.639	93.87
394.848	173.74
395.058	24.23
395.267	50.86
395.477	140.97
395.686	85.67
395.895	202.41
396.105	200.36
396.314	110.25
396.524	106.15
396.733	34.47
396.942	100.01
397.152	54.95
397.361	128.68
397.57	13.99
397.78	128.68
397.989	120.49
398.198	210.6
398.407	95.91
398.617	61.1
398.826	159.4
399.035	149.16
399.244	173.74
399.453	153.26
399.663	108.2
399.872	153.26
400.081	130.73
400.29	165.54
400.499	136.87
400.708	120.49
400.917	145.06
401.127	149.16
401.336	120.49
401.545	208.55
401.754	188.07
401.963	220.84
402.172	75.43
402.381	165.54
402.59	112.3
402.799	63.15
403.008	183.98
403.217	151.21
403.426	104.11
403.635	167.59
403.844	147.11
404.053	149.16
404.262	188.07
404.471	186.02
404.68	128.68
404.888	128.68
405.097	161.45
405.306	167.59
405.515	169.64
405.724	157.35
405.933	259.75
406.142	235.18
406.35	269.99
406.559	181.93
406.768	233.13
406.977	243.37
407.185	188.07
407.394	251.56
407.603	218.79
407.812	245.41
408.02	202.41
408.229	274.09
408.438	251.56
408.646	245.41
408.855	241.32
409.064	306.85
409.272	218.79
409.481	335.53
409.69	339.62
409.898	259.75
410.107	274.09
410.315	472.74
410.524	323.24
410.733	403.11
410.941	399.01
411.15	382.63
411.358	439.97
411.567	378.53
411.775	396.96
411.984	489.12
412.192	444.07
412.401	456.36
412.609	554.66
412.818	575.14
413.026	476.84
413.234	554.66
413.443	517.79
413.651	618.15
413.86	630.43
414.068	689.82
414.276	736.93
414.485	642.72
414.693	730.78
414.901	765.6
415.11	781.98
415.318	779.93
415.526	765.6
415.734	886.43
415.943	792.22
416.151	906.91
416.359	878.24
416.567	939.68
416.776	1099.42
416.984	1074.84
417.192	1119.9
417.4	1144.47
417.608	1070.75
417.817	1179.29
418.025	1201.82
418.233	1257.11
418.441	1218.2
418.649	1269.4
418.857	1418.9
419.065	1451.67
419.273	1390.23
419.481	1470.1
419.689	1568.4
419.897	1730.19
420.105	1681.04
420.313	1750.67
420.521	1646.23
420.729	1801.87
420.937	1855.12
421.145	1945.23
421.353	2041.48
421.561	2049.68
421.769	2227.85
421.977	2201.23
422.185	2313.86
422.393	2389.64
422.601	2477.7
422.809	2545.28
423.017	2455.17
423.224	2557.57
423.432	2725.51
423.64	2719.36
423.848	2987.65
424.056	2823.81
424.263	3221.11
424.471	3090.04
424.679	3167.87
424.887	3329.66
425.094	3450.49
425.302	3507.83
425.51	3616.37
425.718	3671.67
425.925	3745.39
426.133	3993.2
426.341	4101.74
426.548	4279.91
426.756	4300.39
426.964	4476.52
427.171	4576.87
427.379	4683.36
427.586	4718.18
427.794	4984.41
428.001	5025.37
428.209	5408.34
428.417	5287.51
428.624	5629.52
428.832	5729.88
429.039	5525.08
429.247	5684.82
429.454	6123.09
429.662	6559.3
429.869	6108.75
430.076	6585.93
430.284	6336.07
430.491	6641.22
430.699	7024.19
430.906	7075.39
431.114	7130.69
431.321	7493.18
431.528	7489.08
431.736	7870
431.943	8357.42
432.15	8027.7
432.358	8132.14
432.565	8525.35
432.772	8594.98
432.979	9111.07
433.187	9174.56
433.394	9227.81
433.601	9813.52
433.808	9883.16
434.016	9840.15
434.223	10321.42
434.43	10761.73
434.637	10595.85
434.844	11097.6
435.052	11718.14
435.259	11445.76
435.466	11365.89
435.673	11449.85
435.88	12281.33
436.087	12778.98
436.294	12938.73
436.501	12619.24
436.708	12928.49
436.915	13227.49
437.122	13782.49
437.329	13792.73
437.537	14134.74
437.743	14443.98
437.95	14331.34
438.157	15130.05
438.364	15642.04
438.571	15406.53
438.778	15789.5
438.985	17055.14
439.192	16367.02
439.399	16825.77
439.606	16502.19
439.813	17644.96
440.02	18591.12
440.227	18161.05
440.433	17886.62
440.64	18462.1
440.847	18226.58
441.054	18740.62
441.261	20352.37
441.467	19899.77
441.674	20317.56
441.881	21153.13
442.088	20958.57
442.294	21067.11
442.501	21370.21
442.708	21671.26
442.914	22680.91
443.121	23399.75
443.328	22957.39
443.534	24411.45
443.741	23569.73
443.948	23545.16
444.154	25380.14
444.361	25214.25
444.568	25361.7
444.774	25402.66
444.981	25400.62
445.187	26352.92
445.394	27243.79
445.6	26715.41
445.807	29656.29
446.013	28024.06
446.22	28552.44
446.426	29715.69
446.633	29918.43
446.839	31358.16
447.046	30033.12
447.252	31143.12
447.459	31925.44
447.665	31112.4
447.871	32785.59
448.078	33709.22
448.284	32283.84
448.491	33182.9
448.697	34628.76
448.903	35179.67
449.11	35007.64
449.316	34301.09
449.522	35073.17
449.728	36011.14
449.935	36187.27
450.141	35980.42
450.347	37000.31
450.553	35538.06
450.76	36390.02
450.966	37037.17
451.172	36981.88
451.378	37952.62
451.584	37194.87
451.791	37700.72
451.997	37706.86
452.203	38444.13
452.409	38261.86
452.615	38177.89
452.821	36637.82
453.027	36060.29
453.233	38106.21
453.44	36310.14
453.646	36736.12
453.852	36940.92
454.058	37428.34
454.264	36119.68
454.47	37018.74
454.676	36320.38
454.882	37278.83
455.088	33836.2
455.294	34610.33
455.5	34995.35
455.705	35208.34
455.911	33842.34
456.117	33496.24
456.323	32795.83
456.529	31059.15
456.735	31831.24
456.941	31640.78
457.147	30864.6
457.352	29953.25
457.558	29676.77
457.764	29670.63
457.97	29070.58
458.176	28450.04
458.381	28368.12
458.587	26991.89
458.793	27106.57
458.999	25591.08
459.204	27483.4
459.41	26588.44
459.616	24974.64
459.821	25040.17
460.027	24759.6
460.233	24134.97
460.438	22912.33
460.644	23391.56
460.85	22678.86
461.055	21984.6
461.261	22015.32
461.466	20534.64
461.672	19973.5
461.878	21196.14
462.083	19551.62
462.289	19352.96
462.494	19105.16
462.7	18380.18
462.905	17884.57
463.111	18326.93
463.316	18761.1
463.522	17794.46
463.727	18314.64
463.932	18130.33
464.138	17884.57
464.343	18019.74
464.549	17515.94
464.754	18187.67
464.959	18058.65
465.165	18052.5
465.37	17249.7
465.575	16563.63
465.781	17268.13
465.986	17401.25
466.191	16758.19
466.397	16604.59
466.602	15805.88
466.807	16088.5
467.012	16418.22
467.218	16324.02
467.423	16022.97
467.628	16041.4
467.833	16735.66
468.038	16410.03
468.244	15683
468.449	16135.6
468.654	15820.22
468.859	15506.88
469.064	15545.79
469.269	14904.78
469.474	15044.04
469.679	15338.94
469.885	14925.25
470.09	15130.05
470.295	15029.7
470.5	14652.88
470.705	14900.68
470.91	14511.57
471.115	14276.05
471.32	14355.92
471.525	14235.09
471.73	13979.09
471.935	13923.8
472.139	13637.08
472.344	13534.68
472.549	13557.21
472.754	13522.4
472.959	13446.62
473.164	12772.84
473.369	12520.94
473.574	13129.19
473.778	12998.12
473.983	12858.85
474.188	12797.42
474.393	12404.21
474.598	12275.18
474.802	12299.76
475.007	12146.16
475.212	12176.88
475.417	11785.72
475.621	11376.13
475.826	11654.65
476.031	11662.84
476.235	11269.63
476.44	11458.04
476.645	11267.58
476.849	11290.11
477.054	11179.52
477.259	10878.47
477.463	10880.52
477.668	10771.97
477.872	10882.56
478.077	10647.05
478.282	10591.75
478.486	10194.45
478.691	10327.57
478.895	10489.35
479.1	10149.39
479.304	10262.03
479.509	9999.89
479.713	10065.43
479.918	9723.41
480.122	9745.94
480.326	9971.22
480.531	9850.39
480.735	9635.35
480.94	9784.85
481.144	10237.45
481.348	9291.29
481.553	9664.02
481.757	9500.19
481.961	9604.63
482.166	9717.27
482.37	9641.5
482.574	9399.84
482.778	9442.84
482.983	9537.05
483.187	9637.4
483.391	9598.49
483.595	9561.62
483.8	9389.6
484.004	9348.64
484.208	9655.83
484.412	9569.82
484.616	9401.88
484.821	9551.38
485.025	9276.96
485.229	9559.58
485.433	9498.14
485.637	9442.84
485.841	9717.27
486.045	9229.85
486.249	9430.55
486.453	9451.03
486.657	9338.4
486.861	9477.66
487.065	9272.86
487.269	9459.23
487.473	9360.92
487.677	9651.74
487.881	9698.84
488.085	9213.47
488.289	9618.97
488.493	9436.7
488.697	9524.76
488.901	9692.69
489.105	9535
489.309	9535
489.512	9408.03
489.716	9799.19
489.92	9727.51
490.124	9647.64
490.328	9926.16
490.531	9631.26
490.735	9678.36
490.939	9889.3
491.143	9797.14
491.346	9643.54
491.55	10055.19
491.754	10036.75
491.958	9979.41
492.161	9797.14
492.365	10073.62
492.569	10090
492.772	9942.55
492.976	10454.54
493.18	10231.31
493.383	10151.44
493.587	10378.76
493.79	10485.26
493.994	10397.2
494.197	10544.65
494.401	10524.17
494.605	10757.64
494.808	10786.31
495.012	10954.24
495.215	10702.34
495.419	11259.39
495.622	10972.68
495.825	11187.71
496.029	11118.08
496.232	11412.99
496.436	11292.16
496.639	11707.9
496.843	11599.35
497.046	11912.69
497.249	11791.86
497.453	11865.59
497.656	11965.94
497.859	12002.8
498.063	12094.96
498.266	12592.62
498.469	12269.04
498.673	12633.58
498.876	12905.96
499.079	12967.4
499.282	13114.85
499.485	13268.45
499.689	13458.91
499.892	13450.72
500.095	13501.92
500.298	13956.57
500.501	13811.16
500.705	14030.29
500.908	14136.79
501.111	14437.84
501.314	14386.64
501.517	14759.37
501.72	14841.29
501.923	14882.25
502.126	15130.05
502.329	15488.45
502.532	15406.53
502.735	15359.42
502.938	15797.69
503.141	16012.73
503.344	16416.18
503.547	16227.76
503.75	16436.66
503.953	16844.2
504.156	16958.89
504.359	16983.46
504.562	17163.68
504.765	17671.58
504.968	17458.59
505.17	17708.44
505.373	17859.99
505.576	18220.44
505.779	18404.75
505.982	18662.8
506.185	18732.43
506.387	18830.73
506.59	19236.23
506.793	19764.61
506.996	19393.92
507.198	19926.39
507.401	19912.06
507.604	20184.44
507.807	20630.9
508.009	20866.41
508.212	20706.67
508.415	21189.99
508.617	21462.37
508.82	21611.87
509.022	21306.73
509.225	21732.7
509.428	22099.29
509.63	22013.27
509.833	22064.47
510.035	22965.58
510.238	22750.54
510.44	23164.23
510.643	23526.72
510.845	23872.83
511.048	23758.14
511.25	23964.99
511.453	24079.68
511.655	24999.21
511.858	24782.13
512.06	25029.93
512.262	25244.97
512.465	25320.74
512.667	25718.05
512.87	25793.83
513.072	25726.24
513.274	26414.36
513.477	27010.32
513.679	26899.73
513.881	27331.85
514.084	27651.33
514.286	27598.09
514.488	27702.53
514.69	28284.16
514.893	28548.34
515.095	28335.35
515.297	28771.57
515.499	29152.49
515.701	29465.83
515.904	29857
516.106	29902.05
516.308	30229.73
516.51	30264.54
516.712	30631.13
516.914	30993.62
517.116	31567.05
517.318	31612.1
517.52	31689.93
517.722	31849.67
517.925	32169.15
518.127	32607.42
518.329	32838.84
518.531	32988.34
518.733	33494.19
518.935	33852.58
519.136	33670.31
519.338	34415.77
519.54	34575.52
519.742	34950.29
519.944	34944.15
520.146	35507.34
520.348	36263.04
520.55	36191.36
520.752	36125.83
520.954	36682.87
521.155	36928.63
521.357	36924.54
521.559	37780.59
521.761	38175.84
521.963	37846.12
522.164	38280.29
522.366	38444.13
522.568	38739.04
522.77	38978.65
522.971	39093.33
523.173	39861.32
523.375	39787.6
523.576	39713.87
523.778	39373.91
523.98	40453.19
524.181	41049.14
524.383	40444.99
524.584	40999.99
524.786	41333.81
524.988	41034.81
525.189	41731.12
525.391	41878.57
525.592	42419.24
525.794	42200.1
525.995	42626.08
526.197	42587.17
526.398	42589.22
526.6	43039.77
526.801	43432.98
527.003	43523.09
527.204	43672.59
527.406	44137.48
527.607	43688.98
527.808	44211.21
528.01	43715.6
528.211	44133.39
528.412	44948.48
528.614	44510.21
528.815	44739.58
529.016	45073.4
529.218	44768.26
529.419	44743.68
529.62	44862.46
529.822	44899.33
530.023	45540.34
530.224	45222.9
530.425	45423.61
530.626	45505.52
530.828	45198.33
531.029	45786.1
531.23	45616.11
531.431	45954.03
531.632	45921.26
531.833	45947.89
532.035	45734.9
532.236	46543.84
532.437	46590.95
532.638	46416.87
532.839	46545.89
533.04	46975.97
533.241	46167.02
533.442	47070.17
533.643	46496.74
533.844	46908.38
534.045	47113.18
534.246	46248.94
534.447	47037.4
534.648	46662.63
534.849	47092.7
535.05	46848.99
535.251	46990.3
535.451	46611.43
535.652	46963.68
535.853	47053.79
536.054	47262.68
536.255	47164.38
536.456	46658.53
536.657	47283.16
536.857	46943.2
537.058	46373.86
537.259	47176.67
537.46	47293.4
537.66	47021.02
537.861	47195.1
538.062	46834.66
538.263	47049.69
538.463	47287.26
538.664	47184.86
538.865	47061.98
539.065	47559.64
539.266	46744.55
539.466	47672.28
539.667	46279.66
539.868	47860.69
540.068	47414.23
540.269	47281.11
540.469	47416.28
540.67	46685.15
540.87	47000.54
541.071	47397.85
541.271	47240.15
541.472	47342.55
541.672	46760.93
541.873	46584.8
542.073	46474.21
542.274	47229.91
542.474	46605.28
542.675	46785.5
542.875	47541.21
543.075	46975.97
543.276	46357.48
543.476	47334.36
543.676	46740.45
543.877	47119.32
544.077	47039.45
544.277	47148
544.478	46824.42
544.678	47162.33
544.878	47033.31
545.078	47479.77
545.279	46738.4
545.479	46975.97
545.679	46992.35
545.879	47039.45
546.079	47006.69
546.28	46625.76
546.48	46492.65
546.68	47274.97
546.88	47365.08
547.08	47090.65
547.28	46537.7
547.48	46636
547.68	46652.39
547.88	46140.39
548.081	46902.24
548.281	46803.94
548.481	46384.1
548.681	46824.42
548.881	46523.36
549.081	46523.36
549.28	46558.18
549.48	47152.09
549.68	46142.44
549.88	47096.8
550.08	46357.48
550.28	46762.98
550.48	46236.65
550.68	46980.06
550.88	46132.2
551.08	46513.12
551.279	46808.03
551.479	46230.51
551.679	46134.25
551.879	46500.84
552.079	46529.51
552.278	46081
552.478	46713.83
552.678	46291.94
552.878	46898.14
553.077	46259.18
553.277	46021.61
553.477	47145.95
553.676	45943.79
553.876	46332.9
554.076	46275.56
554.275	45773.81
554.475	45796.34
554.674	46404.58
554.874	46052.33
555.074	46087.15
555.273	46015.47
555.473	46599.14
555.672	45982.7
555.872	46310.38
556.071	45878.25
556.271	46316.52
556.47	45612.02
556.67	45765.62
556.869	45616.11
557.068	46044.14
557.268	45566.96
557.467	45738.99
557.667	45845.49
557.866	45489.14
558.065	45403.13
558.265	45394.93
558.464	45054.97
558.663	45272.06
558.863	45018.11
559.062	45734.9
559.261	45351.93
559.461	45120.51
559.66	44360.71
559.859	44856.32
560.058	44407.81
560.258	44944.38
560.457	44426.24
560.656	45368.31
560.855	44454.92
561.054	44538.88
561.253	44211.21
561.453	44526.6
561.652	44727.3
561.851	44344.33
562.05	43992.08
562.249	44280.84
562.448	43850.77
562.647	44227.59
562.846	44121.1
563.045	44030.99
563.244	43736.08
563.443	44106.76
563.642	43357.21
563.841	43967.5
564.04	43164.7
564.239	43652.11
564.438	43058.2
564.637	43228.18
564.836	43222.04
565.035	42839.07
565.234	42789.92
565.432	42583.07
565.631	42212.39
565.83	42970.14
566.029	42581.02
566.228	42689.57
566.427	42318.88
566.625	42292.26
566.824	41727.02
567.023	42187.81
567.222	41184.31
567.42	42327.08
567.619	41890.86
567.818	41581.62
568.016	41311.28
568.215	42109.99
568.414	41354.29
568.612	41509.94
568.811	41491.51
569.01	41329.72
569.208	41221.17
569.407	40926.27
569.605	40619.07
569.804	41151.54
570.002	40391.75
570.201	40782.91
570.4	40016.97
570.598	40279.11
570.797	40102.98
570.995	40324.16
571.193	39574.61
571.392	40209.48
571.59	39930.95
571.789	39820.36
571.987	39574.61
572.186	39124.05
572.384	39345.23
572.582	39607.37
572.781	38976.6
572.979	38911.06
573.177	39124.05
573.376	38796.38
573.574	38894.68
573.772	38853.72
573.971	38714.46
574.169	38399.07
574.367	38370.4
574.565	38878.3
574.763	38386.78
574.962	38028.39
575.16	37663.85
575.358	38237.28
575.556	37543.02
575.754	37823.59
575.952	37428.34
576.151	37973.1
576.349	37192.82
576.547	37626.99
576.745	37006.45
576.943	37373.04
577.141	37069.94
577.339	36924.54
577.537	36990.07
577.735	36674.68
577.933	36314.24
578.131	36666.49
578.329	36398.21
578.527	36275.33
578.725	36244.61
578.923	36154.5
579.121	35943.56
579.319	36125.83
579.516	36232.32
579.714	35908.74
579.912	35923.08
580.11	35820.68
580.308	35929.22
580.506	35724.43
580.704	34821.27
580.901	35650.7
581.099	35445.9
581.297	35251.34
581.495	35218.58
581.692	35208.34
581.89	35005.59
582.088	34868.37
582.285	34860.18
582.483	34958.49
582.681	34694.3
582.878	34636.95
583.076	34096.29
583.274	34446.49
583.471	33961.12
583.669	34194.59
583.866	33983.65
584.064	34059.43
584.262	33707.18
584.459	34299.04
584.657	33375.41
584.854	33975.46
585.052	33219.76
585.249	33701.03
585.447	33598.63
585.644	33324.21
585.841	33139.89
586.039	33572.01
586.236	32433.34
586.434	32443.58
586.631	32744.63
586.828	32847.03
587.026	32570.55
587.223	32558.27
587.42	32470.2
587.618	32470.2
587.815	32130.24
588.012	31765.7
588.21	32105.66
588.407	32009.41
588.604	31741.13
588.801	31587.53
588.999	31661.26
589.196	31458.51
589.393	31474.89
589.59	31370.44
589.787	31112.4
589.984	31335.63
590.182	31055.06
590.379	31083.73
590.576	30696.66
590.773	31036.63
590.97	30541.02
591.167	31053.01
591.364	30244.06
591.561	30620.89
591.758	30565.59
591.955	30506.2
592.152	30332.12
592.349	29965.54
592.546	30688.47
592.743	30463.19
592.94	29787.36
593.137	30002.4
593.334	29994.21
593.531	29459.69
593.727	29533.42
593.924	29689.06
594.121	29332.72
594.318	29910.24
594.515	29125.87
594.712	29666.53
594.908	29537.51
595.105	28933.36
595.302	28876.02
595.499	28933.36
595.696	28779.76
595.892	28544.25
596.089	28562.68
596.286	28605.69
596.482	28042.49
596.679	28376.31
596.876	28525.82
597.072	28196.09
597.269	28157.18
597.466	27958.53
597.662	27929.86
597.859	28065.02
598.055	27940.1
598.252	27710.72
598.448	27710.72
598.645	27501.83
598.841	27548.93
599.038	27428.1
599.234	27231.5
599.431	27174.16
599.627	27217.16
599.824	27114.76
600.02	26963.22
600.217	26897.68
600.413	26944.78
600.609	26803.47
600.806	26459.41
601.002	26819.86
601.198	26545.43
601.395	26266.91
601.591	26621.2
601.787	26148.12
601.984	26299.67
602.18	26344.73
602.376	25765.15
602.572	25990.43
602.769	25820.45
602.965	25732.39
603.161	25994.53
603.357	25648.42
603.553	25572.64
603.75	25664.8
603.946	25206.06
604.142	25687.33
604.338	25318.7
604.534	25175.34
604.73	24941.87
604.926	25099.56
605.122	25036.08
605.318	24751.41
605.514	24616.24
605.71	24653.11
605.906	24964.4
606.102	24589.62
606.298	24642.87
606.494	24737.07
606.69	24354.1
606.886	24411.45
607.082	24051
607.278	24511.8
607.474	23807.3
607.67	24309.05
607.866	23678.27
608.062	24210.75
608.257	23727.42
608.453	23778.62
608.649	24063.29
608.845	23989.56
609.041	23461.19
609.236	23874.88
609.432	23493.96
609.628	23684.42
609.824	23315.78
610.019	23420.23
610.215	23127.37
610.411	23694.66
610.606	22945.1
610.802	23412.04
610.998	23385.41
611.193	23194.95
611.389	23145.8
611.584	22988.11
611.78	22814.03
611.976	23061.83
612.171	22771.02
612.367	22783.31
612.562	22701.39
612.758	22484.31
612.953	22492.5
613.149	22699.34
613.344	22439.25
613.539	22646.1
613.735	22336.85
613.93	22859.09
614.126	22152.54
614.321	22308.18
614.517	22435.16
614.712	22087
614.907	21943.64
615.103	22029.66
615.298	21972.32
615.493	22134.1
615.688	21726.56
615.884	22289.75
616.079	21683.55
616.274	21835.1
616.47	21742.94
616.665	21613.92
616.86	21777.76
617.055	21601.63
617.25	21527.91
617.445	21677.41
617.641	21374.31
617.836	21570.91
618.031	21050.73
618.226	21349.73
618.421	21214.57
618.616	21146.98
618.811	21054.83
619.006	21230.95
619.201	20587.89
619.396	20899.18
619.591	20675.95
619.786	20882.8
619.981	20497.78
620.176	20632.94
620.371	20460.91
620.566	20649.33
620.761	20176.25
620.956	20450.67
621.151	19852.67
621.346	20213.11
621.541	19791.23
621.735	19928.44
621.93	19297.67
622.125	19563.9
622.32	19191.17
622.515	19699.07
622.709	19670.4
622.904	19217.8
623.099	19289.48
623.294	19254.66
623.488	18615.69
623.683	19111.3
623.878	18871.69
624.072	18816.4
624.267	18345.36
624.462	18490.77
624.656	18425.23
624.851	18269.59
625.046	17956.25
625.24	18040.22
625.435	17812.89
625.629	17952.15
625.824	17966.49
626.018	17722.78
626.213	17376.67
626.407	17573.28
626.602	17339.81
626.796	17151.4
626.991	17237.41
627.185	17243.56
627.38	17147.3
627.574	16924.07
627.768	16618.93
627.963	16797.1
628.157	16586.16
628.352	16770.47
628.546	16321.97
628.74	16629.16
628.935	16289.2
629.129	16078.26
629.323	16188.85
629.517	16037.3
629.712	16080.31
629.906	15742.39
630.1	15746.49
630.294	15844.79
630.489	15754.68
630.683	15803.83
630.877	15422.91
631.071	15287.75
631.265	15361.47
631.459	15197.63
631.653	15197.63
631.848	15117.76
632.042	15187.39
632.236	15087.04
632.43	14841.29
632.624	14863.82
632.818	14785.99
633.012	14769.61
633.206	14609.87
633.4	14628.3
633.594	14364.11
633.788	14613.96
633.982	14296.53
634.176	14179.79
634.369	14261.71
634.563	14005.72
634.757	13891.03
634.951	14126.55
635.145	13835.74
635.339	13809.11
635.533	13704.67
635.726	13708.76
635.92	13589.98
636.114	13327.84
636.308	13305.31
636.501	13270.5
636.695	13526.49
636.889	13198.82
637.083	12951.01
637.276	13014.5
637.47	12867.05
637.664	12938.73
637.857	12606.95
638.051	12582.38
638.244	12600.81
638.438	12451.31
638.632	12731.88
638.825	12471.79
639.019	12119.54
639.212	12424.69
639.406	12150.26
639.599	12318.19
639.793	12105.2
639.986	11910.64
640.18	12176.88
640.373	11906.55
640.567	11765.24
640.76	11798.01
640.954	11994.61
641.147	11580.92
641.34	11480.57
641.534	11425.28
641.727	11484.67
641.92	11503.1
642.114	11357.69
642.307	11128.32
642.5	11161.09
642.694	11136.51
642.887	10845.7
643.08	11208.19
643.273	11214.34
643.467	10993.15
643.66	10960.39
643.853	10774.02
644.046	10634.76
644.239	10647.05
644.432	10423.82
644.626	10595.85
644.819	10622.47
645.012	10391.05
645.205	10579.47
645.398	10235.41
645.591	10421.77
645.784	10106.38
645.977	10030.61
646.17	10057.23
646.363	9971.22
646.556	10006.03
646.749	9649.69
646.942	10003.99
647.135	9811.48
647.328	9692.69
647.521	9774.61
647.714	9414.17
647.907	9582.1
648.099	9448.99
648.292	9457.18
648.485	9625.11
648.678	9401.88
648.871	9217.57
649.064	9401.88
649.256	9301.53
649.449	9100.83
649.642	9186.85
649.835	9096.74
650.027	9233.95
650.22	8824.36
650.413	8795.68
650.605	8795.68
650.798	8850.98
650.991	8724.01
651.183	8754.73
651.376	8707.62
651.568	8558.12
651.761	8543.78
651.954	8611.37
652.146	8492.59
652.339	8353.32
652.531	8386.09
652.724	8205.87
652.916	8212.01
653.109	8212.01
653.301	8162.86
653.494	8230.45
653.686	7986.74
653.879	8154.67
654.071	8111.66
654.263	8048.18
654.456	7945.78
654.648	8021.55
654.84	7769.65
655.033	7966.26
655.225	7829.04
655.417	7919.15
655.61	7845.43
655.802	7730.74
655.994	7638.58
656.186	7511.61
656.379	7546.42
656.571	7550.52
656.763	7482.94
656.955	7392.83
657.148	7534.14
657.34	7466.55
657.532	7267.9
657.724	7120.45
657.916	7247.42
658.108	7241.28
658.3	7198.27
658.492	7249.47
658.684	6975.04
658.876	7044.67
659.068	6991.42
659.26	7067.2
659.452	6991.42
659.644	7196.22
659.836	6964.8
660.028	7046.72
660.22	6706.76
660.412	6800.96
660.604	6835.78
660.796	6780.48
660.988	6794.82
661.18	6712.9
661.372	6737.48
661.563	6704.71
661.755	6248.01
661.947	6450.76
662.139	6334.03
662.331	6587.97
662.522	6610.5
662.714	6448.71
662.906	6319.69
663.097	6368.84
663.289	6108.75
663.481	6284.87
663.673	6227.53
663.864	6209.1
664.056	6202.96
664.247	6258.25
664.439	6096.46
664.631	6207.05
664.822	6282.83
665.014	6114.89
665.205	5998.16
665.397	5916.24
665.588	5807.7
665.78	5903.95
665.971	5834.32
666.163	5973.58
666.354	5807.7
666.546	5725.78
666.737	5652.05
666.929	5711.44
667.12	5590.61
667.311	5613.14
667.503	5582.42
667.694	5715.54
667.885	5656.15
668.077	5637.72
668.268	5574.23
668.459	5678.68
668.651	5535.32
668.842	5494.36
669.033	5488.21
669.224	5549.65
669.416	5482.07
669.607	5375.58
669.798	5391.96
669.989	5647.96
670.18	5363.29
670.371	5252.7
670.563	5348.95
670.754	5312.09
670.945	5215.84
671.136	5248.6
671.327	5176.92
671.518	5371.48
671.709	5199.45
671.9	5213.79
672.091	5060.19
672.282	5287.51
672.473	4980.32
672.664	5158.49
672.855	4953.7
673.046	4965.98
673.237	5183.07
673.428	5039.71
673.619	5019.23
673.809	5027.42
674	4953.7
674.191	4947.55
674.382	4994.65
674.573	4877.92
674.764	4845.15
674.954	5084.77
675.145	4959.84
675.336	4968.03
675.527	4714.08
675.717	4902.5
675.908	4705.89
676.099	4834.91
676.289	4851.3
676.48	4871.78
676.671	4677.22
676.861	4943.46
677.052	4894.3
677.243	4796
677.433	4781.67
677.624	4791.91
677.814	4507.24
678.005	4798.05
678.195	4757.09
678.386	4681.32
678.576	4709.99
678.767	4699.75
678.957	4626.02
679.148	4771.43
679.338	4726.37
679.529	4699.75
679.719	4560.49
679.909	4724.32
680.1	4599.4
680.29	4572.77
680.481	4654.69
680.671	4699.75
680.861	4568.68
681.052	4585.06
681.242	4482.66
681.432	4623.97
681.622	4433.51
681.813	4462.18
682.003	4707.94
682.193	4429.42
682.383	4427.37
682.573	4435.56
682.764	4533.86
682.954	4537.96
683.144	4482.66
683.334	4509.29
683.524	4507.24
683.714	4552.29
683.904	4433.51
684.094	4443.75
684.284	4554.34
684.474	4443.75
684.664	4503.14
684.854	4503.14
685.044	4417.13
685.234	4417.13
685.424	4335.21
685.614	4396.65
685.804	4386.41
685.994	4308.58
686.184	4370.02
686.374	4308.58
686.564	4320.87
686.753	4333.16
686.943	4136.56
687.133	4439.65
687.323	4208.23
687.513	4228.71
687.702	4238.95
687.892	4210.28
688.082	4353.64
688.272	4290.15
688.461	4163.18
688.651	4281.96
688.841	4159.08
689.03	4173.42
689.22	4081.26
689.41	4177.51
689.599	3964.53
689.789	4105.84
689.979	3946.09
690.168	4105.84
690.358	3937.9
690.547	3935.85
690.737	3870.32
690.926	3950.19
691.116	3985.01
691.305	3991.15
691.495	4019.82
691.684	3921.52
691.874	4068.97
692.063	3798.64
692.252	3927.66
692.442	3901.04
692.631	3784.3
692.82	3753.59
693.01	3702.39
693.199	3706.48
693.388	3804.78
693.578	3782.26
693.767	3823.22
693.956	3858.03
694.146	3810.93
694.335	3731.06
694.524	3710.58
694.713	3851.89
694.902	3743.35
695.092	3675.76
695.281	3704.43
695.47	3681.91
695.659	3716.72
695.848	3589.75
696.037	3726.96
696.226	3651.19
696.415	3698.29
696.604	3552.88
696.793	3608.18
696.982	3587.7
697.171	3706.48
697.36	3692.15
697.549	3683.95
697.738	3520.12
697.927	3561.08
698.116	3540.6
698.305	3548.79
698.494	3669.62
698.683	3534.45
698.872	3552.88
699.061	3468.92
699.25	3563.12
699.438	3737.2
699.627	3513.97
699.816	3544.69
700.005	3456.63
700.193	3452.53
700.382	3583.6
700.571	3643
700.76	3528.31
700.948	3561.08
701.137	3602.04
701.326	3577.46
701.514	3462.77
701.703	3571.32
701.892	3536.5
702.08	3599.99
702.269	3528.31
702.457	3409.53
702.646	3610.23
702.834	3407.48
703.023	3569.27
703.212	3587.7
703.4	3524.21
703.589	3438.2
703.777	3567.22
703.965	3559.03
704.154	3567.22
704.342	3405.43
704.531	3466.87
704.719	3372.66
704.907	3513.97
705.096	3434.1
705.284	3561.08
705.472	3599.99
705.661	3464.82
705.849	3593.84
706.037	3518.07
706.226	3397.24
706.414	3487.35
706.602	3493.49
706.79	3499.64
706.979	3524.21
707.167	3569.27
707.355	3491.45
707.543	3438.2
707.731	3452.53
707.919	3479.16
708.107	3452.53
708.296	3534.45
708.484	3446.39
708.672	3593.84
708.86	3360.38
709.048	3546.74
709.236	3470.97
709.424	3577.46
709.612	3452.53
709.8	3483.25
709.988	3548.79
710.176	3532.4
710.364	3378.81
710.551	3501.69
710.739	3352.18
710.927	3575.41
711.115	3497.59
711.303	3507.83
711.491	3509.88
711.679	3528.31
711.866	3589.75
712.054	3651.19
712.242	3360.38
712.43	3419.77
712.617	3507.83
712.805	3475.06
712.993	3520.12
713.181	3362.42
713.368	3495.54
713.556	3528.31
713.744	3348.09
713.931	3483.25
714.119	3497.59
714.306	3559.03
714.494	3497.59
714.682	3419.77
714.869	3436.15
715.057	3454.58
715.244	3526.26
715.432	3503.73
715.619	3405.43
715.807	3614.32
715.994	3430.01
716.182	3569.27
716.369	3430.01
716.556	3479.16
716.744	3417.72
716.931	3466.87
717.119	3444.34
717.306	3432.05
717.493	3419.77
717.681	3602.04
717.868	3430.01
718.055	3606.13
718.242	3481.21
718.43	3501.69
718.617	3434.1
718.804	3382.9
718.991	3524.21
719.179	3436.15
719.366	3470.97
719.553	3511.93
719.74	3444.34
719.927	3423.86
720.114	3438.2
720.301	3577.46
720.488	3339.9
720.676	3554.93
720.863	3436.15
721.05	3616.37
721.237	3464.82
721.424	3427.96
721.611	3493.49
721.798	3581.56
721.985	3380.86
722.172	3536.5
722.358	3464.82
722.545	3489.4
722.732	3483.25
722.919	3499.64
723.106	3536.5
723.293	3466.87
723.48	3495.54
723.667	3380.86
723.853	3397.24
724.04	3266.17
724.227	3491.45
724.414	3454.58
724.6	3368.57
724.787	3413.62
724.974	3485.3
725.161	3376.76
725.347	3454.58
725.534	3358.33
725.72	3337.85
725.907	3487.35
726.094	3430.01
726.28	3421.81
726.467	3366.52
726.653	3380.86
726.84	3454.58
727.027	3477.11
727.213	3417.72
727.4	3323.51
727.586	3452.53
727.773	3479.16
727.959	3405.43
728.145	3378.81
728.332	3290.74
728.518	3331.7
728.705	3577.46
728.891	3257.98
729.077	3364.47
729.264	3341.94
729.45	3419.77
729.636	3366.52
729.823	3241.59
730.009	3329.66
730.195	3460.73
730.382	3563.12
730.568	3442.29
730.754	3241.59
730.94	3329.66
731.126	3360.38
731.313	3321.46
731.499	3298.94
731.685	3260.02
731.871	3452.53
732.057	3391.09
732.243	3409.53
732.429	3298.94
732.615	3294.84
732.801	3294.84
732.987	3210.87
733.173	3290.74
733.359	3294.84
733.545	3251.83
733.731	3303.03
733.917	3294.84
734.103	3329.66
734.289	3280.5
734.475	3114.62
734.661	3167.87
734.847	3341.94
735.033	3208.83
735.219	3169.91
735.404	3188.35
735.59	3280.5
735.776	3165.82
735.962	3219.07
736.148	3354.23
736.333	3231.35
736.519	3141.24
736.705	3280.5
736.89	3235.45
737.076	3296.89
737.262	3133.05
737.447	3298.94
737.633	3165.82
737.819	3221.11
738.004	3067.52
738.19	3083.9
738.375	3151.48
738.561	3063.42
738.747	3192.44
738.932	3053.18
739.118	2995.84
739.303	3016.32
739.489	3004.03
739.674	3032.7
739.859	3028.6
740.045	3051.13
740.23	3053.18
740.416	3020.41
740.601	2977.41
740.786	3042.94
740.972	2930.3
741.157	2989.69
741.342	2979.45
741.528	2907.77
741.713	3001.98
741.898	2924.16
742.084	2911.87
742.269	2979.45
742.454	2946.69
742.639	2846.34
742.824	2766.46
743.01	2834.05
743.195	2868.86
743.38	2836.1
743.565	2819.71
743.75	2815.62
743.935	2707.07
744.12	2922.11
744.305	2684.55
744.49	2819.71
744.675	2760.32
744.86	2743.94
745.045	2737.79
745.23	2647.68
745.415	2635.39
745.6	2707.07
745.785	2715.27
745.97	2705.03
746.155	2643.59
746.34	2664.07
746.525	2606.72
746.71	2643.59
746.895	2524.8
747.079	2700.93
747.264	2543.24
747.449	2672.26
747.634	2561.67
747.819	2483.84
748.003	2498.18
748.188	2535.04
748.373	2530.95
748.557	2442.89
748.742	2463.37
748.927	2485.89
749.111	2381.45
749.296	2494.08
749.481	2418.31
749.665	2328.2
749.85	2322.06
750.034	2338.44
750.219	2295.43
750.404	2342.53
750.588	2313.86
750.773	2195.08
750.957	2225.8
751.141	2238.09
751.326	2297.48
751.51	2244.23
751.695	2223.75
751.879	2180.75
752.064	2233.99
752.248	2094.73
752.432	2070.16
752.617	2156.17
752.801	2156.17
752.985	2059.92
753.17	2162.31
753.354	2190.99
753.538	2158.22
753.722	2021
753.907	1916.56
754.091	1963.66
754.275	1934.99
754.459	1871.5
754.643	2004.62
754.828	1951.37
755.012	1963.66
755.196	1916.56
755.38	1844.88
755.564	1906.32
755.748	1900.17
755.932	1760.91
756.116	1799.82
756.3	1889.93
756.484	1769.1
756.668	1898.13
756.852	1814.16
757.036	1758.86
757.22	1736.34
757.404	1744.53
757.588	1787.54
757.772	1681.04
757.956	1629.84
758.14	1580.69
758.323	1726.1
758.507	1668.75
758.691	1623.7
758.875	1662.61
759.059	1578.64
759.242	1703.57
759.426	1535.64
759.61	1611.41
759.794	1584.79
759.977	1625.75
760.161	1672.85
760.345	1574.55
760.528	1554.07
760.712	1619.6
760.895	1597.07
761.079	1513.11
761.263	1535.64
761.446	1480.34
761.63	1488.53
761.813	1576.59
761.997	1570.45
762.18	1420.95
762.364	1494.68
762.547	1365.65
762.731	1371.8
762.914	1519.25
763.098	1400.47
763.281	1427.09
763.464	1365.65
763.648	1504.92
763.831	1447.57
764.015	1398.42
764.198	1513.11
764.381	1365.65
764.564	1353.37
764.748	1324.69
764.931	1326.74
765.114	1379.99
765.297	1386.13
765.481	1357.46
765.664	1371.8
765.847	1304.21
766.03	1386.13
766.213	1388.18
766.397	1314.45
766.58	1343.13
766.763	1271.45
766.946	1265.3
767.129	1298.07
767.312	1283.74
767.495	1232.54
767.678	1173.14
767.861	1275.54
768.044	1156.76
768.227	1259.16
768.41	1240.73
768.593	1250.97
768.776	1236.63
768.959	1207.96
769.142	1242.78
769.324	1191.58
769.507	1187.48
769.69	1185.43
769.873	1162.9
770.056	1267.35
770.239	1167
770.421	1283.74
770.604	1212.06
770.787	1099.42
770.97	1160.86
771.152	1173.14
771.335	1101.47
771.518	1185.43
771.7	1224.34
771.883	1121.95
772.066	1105.56
772.248	1068.7
772.431	1089.18
772.613	1021.6
772.796	1027.74
772.978	1123.99
773.161	1119.9
773.343	1033.88
773.526	1099.42
773.708	968.35
773.891	968.35
774.073	1115.8
774.256	1095.32
774.438	1046.17
774.621	1027.74
774.803	1005.21
774.985	964.25
775.168	956.06
775.35	1037.98
775.532	906.91
775.715	833.18
775.897	1011.36
776.079	904.86
776.261	954.01
776.444	915.1
776.626	894.62
776.808	911
776.99	947.87
777.173	865.95
777.355	884.38
777.537	929.44
777.719	906.91
777.901	857.76
778.083	818.85
778.265	804.51
778.447	808.61
778.629	786.08
778.811	868
778.993	929.44
779.175	902.81
779.357	824.99
779.539	857.76
779.721	802.46
779.903	824.99
780.085	857.76
780.267	800.41
780.449	714.4
780.631	849.57
780.812	786.08
780.994	747.17
781.176	775.84
781.358	659.1
781.54	743.07
781.721	738.98
781.903	726.69
782.085	769.69
782.267	669.34
782.448	599.71
782.63	704.16
782.812	681.63
782.993	683.68
783.175	708.26
783.357	636.58
783.538	620.19
783.72	640.67
783.901	718.5
784.083	648.86
784.264	620.19
784.446	765.6
784.627	603.81
784.809	710.3
784.99	663.2
785.172	634.53
785.353	624.29
785.535	540.32
785.716	579.23
785.897	605.86
786.079	609.95
786.26	568.99
786.441	507.55
786.623	523.94
786.804	562.85
786.985	546.47
787.167	622.24
787.348	478.88
787.529	575.14
787.71	573.09
787.891	640.67
788.073	550.56
788.254	530.08
788.435	579.23
788.616	519.84
788.797	448.16
788.978	550.56
789.159	446.12
789.34	489.12
789.522	511.65
789.703	525.99
789.884	560.8
790.065	519.84
790.246	429.73
790.427	450.21
790.607	470.69
790.788	491.17
790.969	452.26
791.15	482.98
791.331	442.02
791.512	458.4
791.693	429.73
791.874	480.93
792.054	511.65
792.235	503.46
792.416	474.79
792.597	452.26
792.778	460.45
792.958	439.97
793.139	439.97
793.32	489.12
793.5	421.54
793.681	439.97
793.862	390.82
794.042	425.64
794.223	380.58
794.404	427.68
794.584	403.11
794.765	384.68
794.945	388.77
795.126	439.97
795.306	435.88
795.487	411.3
795.667	427.68
795.848	345.77
796.028	325.29
796.209	394.92
796.389	364.2
796.57	329.38
796.75	356.01
796.93	435.88
797.111	390.82
797.291	382.63
797.471	384.68
797.652	347.81
797.832	280.23
798.012	317.09
798.192	382.63
798.373	394.92
798.553	327.33
798.733	284.33
798.913	241.32
799.093	384.68
799.274	329.38
799.454	304.81
799.634	349.86
799.814	372.39
799.994	378.53
800.174	356.01
800.354	390.82
800.534	341.67
800.714	372.39
800.894	327.33
801.074	288.42
801.254	286.37
801.434	302.76
801.614	337.57
801.794	331.43
801.974	796.32
802.154	243.37
802.334	321.19
802.514	360.1
802.693	319.14
802.873	280.23
803.053	333.48
803.233	333.48
803.413	337.57
803.592	267.94
803.772	319.14
803.952	300.71
804.131	265.89
804.311	241.32
804.491	325.29
804.67	298.66
804.85	276.13
805.03	255.65
805.209	259.75
805.389	226.98
805.568	267.94
805.748	222.89
805.928	341.67
806.107	302.76
806.287	308.9
806.466	241.32
806.646	245.41
806.825	278.18
807.004	200.36
807.184	247.46
807.363	288.42
807.543	341.67
807.722	229.03
807.901	249.51
808.081	251.56
808.26	257.7
808.439	331.43
808.619	231.08
808.798	235.18
808.977	257.7
809.156	300.71
809.336	210.6
809.515	210.6
809.694	169.64
809.873	196.26
810.052	218.79
810.231	333.48
810.411	120.49
810.59	220.84
810.769	220.84
810.948	308.9
811.127	128.68
811.306	190.12
811.485	212.65
811.664	284.33
811.843	171.69
812.022	226.98
812.201	222.89
812.38	233.13
812.559	239.27
812.737	208.55
812.916	175.78
813.095	237.22
813.274	284.33
813.453	186.02
813.632	226.98
813.811	235.18
813.989	136.87
814.168	253.61
814.347	206.5
814.526	183.98
814.704	257.7
814.883	222.89
815.062	149.16
815.24	175.78
815.419	177.83
815.598	179.88
815.776	147.11
815.955	171.69
816.133	179.88
816.312	169.64
816.49	140.97
816.669	138.92
816.847	263.85
817.026	196.26
817.204	188.07
817.383	247.46
817.561	153.26
817.74	151.21
817.918	169.64
818.097	183.98
818.275	181.93
818.453	202.41
818.632	216.74
818.81	165.54
818.988	143.02
819.167	216.74
819.345	175.78
819.523	77.48
819.701	145.06
819.879	169.64
820.058	118.44
820.236	157.35
820.414	130.73
820.592	181.93
820.77	149.16
820.948	116.39
821.127	134.82
821.305	175.78
821.483	132.78
821.661	206.5
821.839	128.68
822.017	171.69
822.195	93.87
822.373	177.83
822.551	151.21
822.729	106.15
822.907	100.01
823.085	71.34
823.262	194.22
823.44	126.63
823.618	85.67
823.796	87.72
823.974	132.78
824.152	169.64
824.329	85.67
824.507	126.63
824.685	118.44
824.863	116.39
825.04	157.35
825.218	87.72
825.396	151.21
825.574	124.58
825.751	186.02
825.929	183.98
826.107	138.92
826.284	79.53
826.462	112.3
826.639	79.53
826.817	136.87
826.994	124.58
827.172	108.2
827.349	198.31
827.527	177.83
827.704	85.67
827.882	202.41
828.059	110.25
828.237	108.2
828.414	177.83
828.591	67.24
828.769	192.17
828.946	20.14
829.124	95.91
829.301	79.53
829.478	120.49
829.655	188.07
829.833	124.58
830.01	112.3
830.187	136.87
830.364	120.49
830.542	159.4
830.719	145.06
830.896	210.6
831.073	175.78
831.25	83.63
831.427	95.91
831.604	108.2
831.782	44.71
831.959	161.45
832.136	18.09
832.313	124.58
832.49	175.78
832.667	179.88
832.844	147.11
833.021	116.39
833.198	28.33
833.374	104.11
833.551	104.11
833.728	167.59
833.905	102.06
834.082	46.76
834.259	143.02
834.436	57
834.612	-4.44
834.789	147.11
834.966	116.39
835.143	149.16
835.319	63.15
835.496	38.57
835.673	128.68
835.85	91.82
836.026	71.34
836.203	63.15
836.38	79.53
836.556	79.53
836.733	159.4
836.909	114.34
837.086	34.47
837.262	83.63
837.439	75.43
837.616	114.34
837.792	67.24
837.968	22.19
838.145	11.95
838.321	52.91
838.498	50.86
838.674	102.06
838.851	54.95
839.027	97.96
839.203	128.68
839.38	147.11
839.556	100.01
839.732	140.97
839.909	63.15
840.085	63.15
840.261	85.67
840.437	-2.39
840.614	30.38
840.79	20.14
840.966	102.06
841.142	145.06
841.318	18.09
841.494	145.06
841.671	97.96
841.847	18.09
842.023	50.86
842.199	71.34
842.375	52.91
842.551	77.48
842.727	13.99
842.903	128.68
843.079	54.95
843.255	157.35
843.431	61.1
843.607	116.39
843.783	54.95
843.959	151.21
844.134	73.39
844.31	48.81
844.486	36.52
844.662	42.67
844.838	161.45
845.013	77.48
845.189	128.68
845.365	93.87
845.541	87.72
845.716	83.63
845.892	61.1
846.068	61.1
846.244	112.3
846.419	30.38
846.595	54.95
846.77	79.53
846.946	93.87
847.122	61.1
847.297	7.85
847.473	38.57
847.648	42.67
847.824	63.15
847.999	7.85
848.175	89.77
848.35	91.82
848.526	128.68
848.701	24.23
848.876	97.96
849.052	83.63
849.227	40.62
849.403	46.76
849.578	54.95
849.753	28.33
849.929	145.06
850.104	30.38
850.279	85.67
850.454	38.57
850.63	81.58
850.805	95.91
850.98	26.28
851.155	79.53
851.33	71.34
851.505	59.05
851.681	54.95
851.856	42.67
852.031	89.77
852.206	61.1
852.381	104.11
852.556	69.29
852.731	85.67
852.906	26.28
853.081	32.43
853.256	54.95
853.431	26.28
853.606	13.99
853.781	93.87
853.956	5.8
854.131	42.67
854.305	44.71
854.48	104.11
854.655	46.76
854.83	69.29
855.005	83.63
855.18	40.62
855.354	-14.68
855.529	28.33
855.704	85.67
855.879	44.71
856.053	13.99
856.228	48.81
856.403	1.71
856.577	83.63
856.752	26.28
856.926	13.99
857.101	-26.96
857.276	46.76
857.45	32.43
857.625	83.63
857.799	54.95
857.974	95.91
858.148	30.38
858.323	36.52
858.497	7.85
858.672	-12.63
858.846	65.19
859.02	-2.39
859.195	-4.44
859.369	28.33
859.543	73.39
859.718	34.47
859.892	69.29
860.066	18.09
860.241	28.33
860.415	24.23
860.589	22.19
860.763	75.43
860.938	50.86
861.112	48.81
861.286	-10.58
861.46	46.76
861.634	16.04
861.808	44.71
861.982	5.8
862.157	-51.54
862.331	54.95
862.505	28.33
862.679	-2.39
862.853	-16.73
863.027	22.19
863.201	59.05
863.375	36.52
863.549	40.62
863.722	69.29
863.896	54.95
864.07	7.85
864.244	-0.34
864.418	26.28
864.592	38.57
864.766	46.76
864.939	38.57
865.113	59.05
865.287	40.62
865.461	22.19
865.634	61.1
865.808	71.34
865.982	42.67
866.156	-41.3
866.329	11.95
866.503	34.47
866.676	36.52
866.85	38.57
867.024	9.9
867.197	42.67
867.371	89.77
867.544	32.43
867.718	-24.92
867.891	11.95
868.065	26.28
868.238	95.91
868.412	65.19
868.585	50.86
868.759	-10.58
868.932	-2.39
869.105	63.15
869.279	-18.77
869.452	-59.73
869.625	26.28
869.799	44.71
869.972	50.86
870.145	-55.64
870.319	65.19
870.492	36.52
870.665	13.99
870.838	40.62
871.011	83.63
871.185	44.71
871.358	-74.07
871.531	50.86
871.704	-2.39
871.877	7.85
872.05	3.75
872.223	-65.88
872.396	54.95
872.569	57
872.742	-20.82
872.915	69.29
873.088	46.76
873.261	71.34
873.434	-37.2
873.607	5.8
873.78	44.71
873.953	18.09
874.126	20.14
874.299	-6.49
874.471	-39.25
874.644	-4.44
874.817	11.95
874.99	75.43
875.163	52.91
875.335	57
875.508	42.67
875.681	48.81
875.853	11.95
876.026	22.19
876.199	30.38
876.371	3.75
876.544	81.58
876.717	85.67
876.889	-2.39
877.062	46.76
877.234	-74.07
877.407	40.62
877.579	-18.77
877.752	44.71
877.924	13.99
878.097	-29.01
878.269	-14.68
878.442	-24.92
878.614	75.43
878.786	-12.63
878.959	-67.92
879.131	40.62
879.303	-37.2
879.476	42.67
879.648	-6.49
879.82	46.76
879.993	-10.58
880.165	-49.49
880.337	-22.87
880.509	-63.83
880.681	-2.39
880.854	-0.34
881.026	-33.11
881.198	52.91
881.37	83.63
881.542	9.9
881.714	22.19
881.886	116.39
882.058	13.99
882.23	-18.77
882.402	28.33
882.574	50.86
882.746	83.63
882.918	67.24
883.09	-18.77
883.262	3.75
883.434	67.24
883.606	24.23
883.778	-2.39
883.95	93.87
884.122	28.33
884.293	44.71
884.465	-39.25
884.637	-0.34
884.809	-2.39
884.98	-47.44
885.152	26.28
885.324	13.99
885.496	1.71
885.667	50.86
885.839	-26.96
886.011	34.47
886.182	40.62
886.354	5.8
886.525	52.91
886.697	46.76
886.869	-14.68
887.04	71.34
887.212	18.09
887.383	54.95
887.555	-43.35
887.726	50.86
887.897	18.09
888.069	18.09
888.24	-43.35
888.412	20.14
888.583	13.99
888.754	67.24
888.926	-6.49
889.097	7.85
889.268	38.57
889.44	1.71
889.611	-16.73
889.782	-4.44
889.953	-18.77
890.125	38.57
890.296	-29.01
890.467	-43.35
890.638	38.57
890.809	153.26
890.98	42.67
891.151	52.91
891.323	44.71
891.494	-80.21
891.665	-49.49
891.836	-6.49
892.007	30.38
892.178	42.67
892.349	65.19
892.52	38.57
892.691	54.95
892.862	36.52
893.032	-86.36
893.203	36.52
893.374	-18.77
893.545	24.23
893.716	-26.96
893.887	3.75
894.057	-18.77
894.228	-37.2
894.399	71.34
894.57	28.33
894.74	-18.77
894.911	-72.02
895.082	-37.2
895.253	50.86
895.423	-4.44
895.594	-61.78
895.764	50.86
895.935	-29.01
896.106	97.96
896.276	63.15
896.447	32.43
896.617	-63.83
896.788	-10.58
896.958	5.8
897.129	-18.77
897.299	-31.06
897.47	73.39
897.64	26.28
897.81	-45.4
897.981	-0.34
898.151	7.85
898.322	54.95
898.492	87.72
898.662	-59.73
898.832	38.57
899.003	18.09
899.173	81.58
899.343	9.9
899.513	-59.73
